,channel_1,channel_2,channel_3,channel_4,channel_5,channel_6,channel_7
0,-0.0050961,-0.30944,-0.086623,0.0075714,-0.028157,0.028359,0.041351
1,0.065712,-0.12885,-0.096042,0.0065969,0.080653,0.029983,0.03518
2,0.14139,0.028034,-0.12138,0.00075039,0.18427,0.025111,0.031607
3,0.22227,0.13425,-0.14964,0.0091954,0.32134,0.015367,0.037778
4,0.30412,0.18557,-0.1701,0.046873,0.51297,0.003024,0.048497
5,0.37655,0.19369,-0.18504,0.10534,0.72897,-0.0093186,0.059541
6,0.42495,0.17777,-0.19771,0.16088,0.89819,-0.020362,0.064413
7,0.44054,0.15471,-0.21785,0.19304,0.95698,-0.026858,0.062464
8,0.42138,0.13165,-0.24773,0.19206,0.88942,-0.029457,0.051096
9,0.37525,0.11054,-0.28216,0.15861,0.74066,-0.031081,0.032257
10,0.31581,0.092346,-0.30489,0.10599,0.59158,-0.029782,0.013418
11,0.25345,0.079679,-0.29937,0.061489,0.51005,-0.027833,-0.0028225
12,0.19499,0.081303,-0.25715,0.050121,0.50388,-0.025559,-0.013216
13,0.14724,0.10209,-0.18082,0.073182,0.51882,-0.02426,-0.014191
14,0.11313,0.14496,-0.078827,0.10599,0.50388,-0.022636,-0.0076946
15,0.091372,0.2044,0.028359,0.11995,0.44021,-0.021012,0.0026992
16,0.073832,0.26482,0.11573,0.10566,0.34277,-0.020362,0.017316
17,0.054993,0.30412,0.1677,0.072208,0.23916,-0.017764,0.029333
18,0.03518,0.30704,0.18329,0.031282,0.14984,-0.012242,0.032257
19,0.016666,0.27164,0.1703,-0.010293,0.078055,-0.0067202,0.028359
20,-0.00087364,0.2122,0.13977,-0.049595,0.025111,-0.0037969,0.022837
21,-0.021986,0.14626,0.099492,-0.087597,-0.0011985,-0.0041217,0.019264
22,-0.046347,0.088448,0.061489,-0.11456,0.0085458,-0.0024977,0.021213
23,-0.070382,0.05142,0.037129,-0.11943,0.053044,0.0039985,0.023162
24,-0.089871,0.040702,0.032906,-0.093444,0.098842,0.016016,0.023812
25,-0.10319,0.057917,0.054993,-0.032705,0.10209,0.029658,0.023812
26,-0.11163,0.093645,0.10371,0.070909,0.054344,0.042001,0.027709
27,-0.11423,0.13457,0.1664,0.20213,-0.0041217,0.056292,0.036154
28,-0.11748,0.1625,0.22357,0.32458,-0.012892,0.074157,0.047198
29,-0.12527,0.16673,0.25313,0.39767,0.06896,0.093645,0.05272
30,-0.13762,0.14269,0.2489,0.40221,0.23396,0.11151,0.048822
31,-0.14964,0.095594,0.21707,0.35317,0.43729,0.13197,0.039402
32,-0.15841,0.033231,0.17127,0.29145,0.62081,0.15698,0.033556
33,-0.16847,-0.033354,0.11931,0.24793,0.7189,0.18459,0.032257
34,-0.17724,-0.094743,0.067986,0.22779,0.67115,0.20863,0.033231
35,-0.17757,-0.13924,0.01894,0.2148,0.45353,0.22454,0.033556
36,-0.1636,-0.15873,-0.02426,0.19563,0.11021,0.23201,0.033556
37,-0.13145,-0.14866,-0.061288,0.16803,-0.24708,0.23461,0.03518
38,-0.082725,-0.11196,-0.091495,0.13652,-0.50043,0.23169,0.039078
39,-0.021661,-0.056091,-0.11456,0.11118,-0.59137,0.21967,0.045574
40,0.044275,0.0069217,-0.13372,0.099492,-0.53258,0.19888,0.054668
41,0.10956,0.069934,-0.161,0.10501,-0.38382,0.17485,0.065062
42,0.17192,0.12385,-0.20453,0.11411,-0.21914,0.15276,0.075456
43,0.22617,0.16121,-0.26039,0.11346,-0.097341,0.1349,0.082602
44,0.26742,0.18199,-0.31496,0.092021,-0.038551,0.11768,0.0865
45,0.2921,0.19206,-0.34679,0.054344,-0.019388,0.10144,0.087149
46,0.30022,0.19921,-0.3429,0.015367,0.0065969,0.089098,0.092021
47,0.28756,0.2057,-0.2997,-0.013866,0.061814,0.079679,0.10177
48,0.2528,0.20278,-0.22694,-0.03173,0.12483,0.06831,0.10631
49,0.19661,0.17582,-0.13762,-0.037577,0.15991,0.051745,0.097543
50,0.1206,0.11833,-0.039851,-0.034978,0.15049,0.02706,0.073507
51,0.035505,0.041027,0.066037,-0.031081,0.099167,-0.0018481,0.045574
52,-0.040175,-0.036602,0.17387,-0.03173,0.027709,-0.027183,0.01894
53,-0.088247,-0.09117,0.27261,-0.039526,-0.034978,-0.037577,0.0043233
54,-0.097341,-0.10514,0.35771,-0.047971,-0.061937,-0.026533,0.0049729
55,-0.07493,-0.079802,0.42495,-0.044398,-0.044398,-0.0015233,0.01894
56,-0.035628,-0.032705,0.47497,-0.022636,0.0023744,0.024461,0.039402
57,0.00075039,0.013418,0.50648,0.010495,0.049796,0.040052,0.062464
58,0.028034,0.040052,0.51362,0.037454,0.074157,0.041027,0.080328
59,0.045574,0.049796,0.49608,0.048822,0.078704,0.029333,0.087149
60,0.05207,0.056292,0.4571,0.042651,0.083576,0.010495,0.080653
61,0.042651,0.067661,0.41163,0.025436,0.10501,-0.0063954,0.065062
62,0.01829,0.084551,0.37201,0.0059473,0.14399,-0.019063,0.050121
63,-0.015815,0.10306,0.34375,-0.007045,0.19434,-0.027508,0.042001
64,-0.047321,0.12418,0.33011,-0.011592,0.24793,-0.030106,0.044599
65,-0.063886,0.15406,0.33303,-0.011917,0.2986,-0.024909,0.05272
66,-0.060313,0.19304,0.35771,-0.0060706,0.33595,-0.014191,0.06084
67,-0.039201,0.23786,0.39929,0.0072465,0.3444,-0.0034721,0.063763
68,-0.0089938,0.27359,0.43827,0.021863,0.31029,0.00042559,0.061814
69,0.028684,0.28723,0.45158,0.036154,0.24403,-0.0024977,0.055968
70,0.072858,0.27651,0.4269,0.050771,0.17517,-0.0047713,0.049796
71,0.12288,0.24436,0.36129,0.063763,0.14172,-0.0050961,0.046548
72,0.17615,0.20505,0.26514,0.072533,0.1768,-0.0047713,0.048172
73,0.22877,0.1716,0.15406,0.073507,0.26514,-0.007045,0.054344
74,0.27489,0.15211,0.041676,0.064737,0.35414,-0.013866,0.064737
75,0.30769,0.14529,-0.055766,0.051745,0.38435,-0.02426,0.076755
76,0.31841,0.14204,-0.13307,0.037778,0.32653,-0.035953,0.084551
77,0.30672,0.1297,-0.20031,0.02706,0.18784,-0.050244,0.086175
78,0.28561,0.099817,-0.27761,0.01764,0.0017248,-0.064211,0.07708
79,0.26677,0.05272,-0.3731,0.0039985,-0.18439,-0.078503,0.053694
80,0.25345,0.0036737,-0.47184,-0.016789,-0.3325,-0.095717,0.01894
81,0.24533,-0.032705,-0.5407,-0.045372,-0.43547,-0.10903,-0.012242
82,0.23721,-0.048296,-0.55305,-0.075904,-0.50303,-0.11748,-0.029457
83,0.22162,-0.040175,-0.50465,-0.097017,-0.54038,-0.11813,-0.03238
84,0.19596,-0.012892,-0.39974,-0.10189,-0.5511,-0.10838,-0.031081
85,0.15926,0.020564,-0.26072,-0.095393,-0.53226,-0.086623,-0.031081
86,0.11606,0.05272,-0.1178,-0.088896,-0.46178,-0.057715,-0.031406
87,0.075781,0.081303,-0.0034721,-0.08305,-0.32471,-0.025234,-0.029782
88,0.045249,0.10891,0.06084,-0.076554,-0.13794,0.009845,-0.022961
89,0.024137,0.12418,0.06961,-0.083375,0.05142,0.049147,-0.013866
90,0.0052977,0.11801,0.033556,-0.11066,0.20311,0.092346,-0.007045
91,-0.01614,0.088773,-0.023935,-0.14931,0.30542,0.13197,-0.0047713
92,-0.042124,0.046873,-0.080776,-0.18179,0.35804,0.15601,-0.0047713
93,-0.072981,0.0020496,-0.12138,-0.19998,0.36616,0.15828,-0.0047713
94,-0.10611,-0.036602,-0.14834,-0.21427,0.32848,0.13555,-0.0021729
95,-0.13567,-0.063886,-0.17302,-0.23571,0.2554,0.090722,0.0020496
96,-0.15516,-0.079802,-0.20031,-0.25942,0.15373,0.03518,0.0062721
97,-0.15418,-0.090521,-0.22954,-0.27144,0.026735,-0.016464,0.0085458
98,-0.12917,-0.10286,-0.24935,-0.25942,-0.13242,-0.048945,0.0088706
99,-0.087597,-0.11683,-0.2487,-0.21655,-0.35199,-0.057715,0.012768
100,-0.045697,-0.12917,-0.22077,-0.14216,-0.65569,-0.042124,0.019914
101,-0.02426,-0.13664,-0.17562,-0.045372,-1.0302,-0.012892,0.025436
102,-0.035303,-0.14184,-0.1295,0.05207,-1.3962,0.016991,0.02641
103,-0.074605,-0.15418,-0.096042,0.13035,-1.6373,0.038753,0.020564
104,-0.1256,-0.1727,-0.078503,0.1781,-1.6678,0.054019,0.010495
105,-0.16912,-0.19121,-0.073955,0.19011,-1.4732,0.063113,0.003024
106,-0.18731,-0.20355,-0.074605,0.17842,-1.113,0.069285,0.0014
107,-0.17757,-0.2016,-0.072331,0.16283,-0.68687,0.076431,0.008221
108,-0.14899,-0.18277,-0.062912,0.15438,-0.30327,0.0852,0.01829
109,-0.11521,-0.15516,-0.045047,0.14984,-0.026858,0.09397,0.025111
110,-0.085973,-0.1269,-0.02426,0.14139,0.16445,0.094295,0.024461
111,-0.072656,-0.10676,-0.0047713,0.12678,0.34602,0.083901,0.015692
112,-0.079477,-0.10968,0.0075714,0.11281,0.56592,0.062464,0.00042559
113,-0.10254,-0.14087,0.0091954,0.10891,0.7988,0.03453,-0.015815
114,-0.1295,-0.18861,-0.0018481,0.12418,0.9755,0.01017,-0.027833
115,-0.14866,-0.23538,-0.021012,0.15731,1.0356,-0.0034721,-0.035953
116,-0.15646,-0.25942,-0.0405,0.19628,0.96218,-0.0028225,-0.039526
117,-0.15418,-0.24708,-0.049595,0.22747,0.78159,0.015367,-0.037577
118,-0.14379,-0.19868,-0.041799,0.24111,0.5422,0.052395,-0.029132
119,-0.13177,-0.12138,-0.017439,0.23559,0.29015,0.10014,-0.016789
120,-0.1243,-0.025234,0.01764,0.20895,0.06084,0.14691,-0.0031473
121,-0.1256,0.066362,0.054668,0.15861,-0.12138,0.18362,0.011144
122,-0.12268,0.13425,0.084876,0.0852,-0.24643,0.20116,0.01764
123,-0.098316,0.1677,0.10242,-0.0031473,-0.30522,0.19921,0.018615
124,-0.047971,0.1729,0.10794,-0.088896,-0.29223,0.17257,0.021863
125,0.016991,0.15991,0.10047,-0.15613,-0.2159,0.12678,0.02706
126,0.078704,0.13262,0.083251,-0.18861,-0.10091,0.068635,0.030957
127,0.12093,0.089423,0.06019,-0.17432,0.016666,0.0062721,0.023162
128,0.13847,0.031932,0.042651,-0.11618,0.10631,-0.04992,0.0010752
129,0.13262,-0.027833,0.041351,-0.033679,0.15503,-0.097666,-0.023935
130,0.11768,-0.06551,0.058891,0.04395,0.16868,-0.13762,-0.042124
131,0.11183,-0.056091,0.088773,0.096244,0.16348,-0.16718,-0.046671
132,0.12645,0.0056225,0.12028,0.11443,0.15146,-0.18991,-0.0405
133,0.16543,0.10079,0.14042,0.10371,0.11833,-0.21232,-0.028482
134,0.22357,0.19661,0.13814,0.080328,0.057267,-0.23571,-0.017439
135,0.29438,0.27294,0.11573,0.059865,-0.012242,-0.25617,-0.0096434
136,0.36681,0.31971,0.082927,0.048497,-0.052843,-0.27079,-0.0067202
137,0.41683,0.32004,0.050121,0.046873,-0.027508,-0.28086,-0.010293
138,0.4191,0.24663,0.016341,0.049147,0.077405,-0.29223,-0.023935
139,0.36421,0.10729,-0.019712,0.050121,0.24176,-0.30684,-0.046022
140,0.26839,-0.050894,-0.054142,0.04395,0.40481,-0.31854,-0.070058
141,0.15796,-0.16912,-0.080451,0.02641,0.46133,-0.32243,-0.087922
142,0.053044,-0.21525,-0.097666,-0.0047713,0.32231,-0.31821,-0.095393
143,-0.044398,-0.20063,-0.10936,-0.045372,-0.0011985,-0.30392,-0.095717
144,-0.13859,-0.16588,-0.12073,-0.075579,-0.377,-0.27891,-0.093769
145,-0.23474,-0.15353,-0.13275,-0.084674,-0.6388,-0.2448,-0.093119
146,-0.33218,-0.17919,-0.14249,-0.079152,-0.70441,-0.20518,-0.093119
147,-0.42247,-0.22856,-0.14639,-0.072331,-0.60891,-0.17367,-0.087922
148,-0.49815,-0.28476,-0.14346,-0.076879,-0.45398,-0.15905,-0.081101
149,-0.5511,-0.34225,-0.1334,-0.096692,-0.3416,-0.16035,-0.073306
150,-0.57383,-0.39844,-0.11423,-0.12203,-0.32048,-0.16458,-0.064211
151,-0.54915,-0.45041,-0.0824,-0.13469,-0.34939,-0.15776,-0.048945
152,-0.4556,-0.48386,-0.03238,-0.12398,-0.32406,-0.12755,-0.02361
153,-0.28378,-0.48321,0.032906,-0.090196,-0.18212,-0.079802,0.0085458
154,-0.05804,-0.428,0.10339,-0.038227,0.045249,-0.022636,0.039727
155,0.1729,-0.30327,0.16478,0.024786,0.26352,0.031932,0.059216
156,0.36194,-0.11943,0.20505,0.090722,0.40708,0.075781,0.062789
157,0.48244,0.092996,0.22357,0.16608,0.47984,0.10794,0.053694
158,0.53701,0.31354,0.23396,0.26157,0.53506,0.13652,0.042651
159,0.55292,0.53279,0.25118,0.36713,0.61529,0.1755,0.041676
160,0.56657,0.74164,0.27911,0.45126,0.71955,0.23331,0.053694
161,0.59807,0.9258,0.31289,0.47627,0.82316,0.30704,0.079029
162,0.64484,1.0759,0.3444,0.42657,0.90631,0.37428,0.10956
163,0.68382,1.1785,0.36583,0.32686,0.95049,0.41261,0.1362
164,0.69389,1.2142,0.37038,0.22,0.93782,0.40546,0.14594
165,0.65719,1.173,0.34667,0.13067,0.86311,0.35674,0.13067
166,0.56624,1.0629,0.28885,0.063438,0.73579,0.28301,0.095594
167,0.43762,0.91054,0.20668,0.0091954,0.57761,0.2057,0.053044
168,0.30282,0.74618,0.12613,-0.046022,0.41293,0.14172,0.019914
169,0.18816,0.59287,0.063113,-0.10091,0.27034,0.10534,0.0036737
170,0.10501,0.45938,0.022512,-0.14119,0.16121,0.094945,0.0059473
171,0.047198,0.33823,-0.00054884,-0.1623,0.079029,0.10404,0.023487
172,-0.0044465,0.22162,-0.012892,-0.16198,0.0095202,0.1245,0.049147
173,-0.064861,0.11021,-0.018738,-0.13762,-0.054467,0.14984,0.074157
174,-0.13242,0.0075714,-0.016789,-0.092145,-0.1191,0.17874,0.10079
175,-0.19543,-0.079802,-0.0063954,-0.028482,-0.17919,0.21025,0.12613
176,-0.24026,-0.14899,0.009845,0.040702,-0.22012,0.24598,0.15049
177,-0.26234,-0.19413,0.025436,0.10404,-0.23863,0.28561,0.17127
178,-0.26364,-0.21687,0.03583,0.14626,-0.24026,0.32328,0.18362
179,-0.24935,-0.22564,0.038753,0.15991,-0.22629,0.35447,0.18524
180,-0.22564,-0.23409,0.032257,0.14659,-0.18569,0.37298,0.18069
181,-0.19543,-0.24513,0.016666,0.11963,-0.095068,0.3785,0.17582
182,-0.15483,-0.24708,-0.0044465,0.094295,0.06019,0.37298,0.17517
183,-0.10449,-0.22564,-0.022636,0.080653,0.26255,0.36161,0.17712
184,-0.050569,-0.1753,-0.031081,0.079679,0.45581,0.3418,0.17647
185,-0.0047713,-0.11261,-0.03303,0.08585,0.57436,0.31029,0.1729
186,0.022837,-0.061937,-0.032705,0.089098,0.58151,0.26255,0.1638
187,0.024137,-0.043423,-0.03173,0.087799,0.47887,0.19888,0.15049
188,0.0014,-0.054467,-0.032705,0.081952,0.29697,0.12613,0.13197
189,-0.037252,-0.084999,-0.034329,0.072858,0.040377,0.055643,0.11151
190,-0.076554,-0.11618,-0.03238,0.063438,-0.29385,-0.0034721,0.089098
191,-0.10481,-0.13437,-0.019063,0.06831,-0.66868,-0.047646,0.068635
192,-0.11683,-0.13729,0.0085458,0.088124,-1.0003,-0.075255,0.05142
193,-0.11553,-0.12625,0.042975,0.11411,-1.1916,-0.088572,0.039402
194,-0.10514,-0.10709,0.071234,0.1271,-1.1815,-0.097666,0.029658
195,-0.093119,-0.086298,0.07773,0.11638,-0.98699,-0.11098,0.019589
196,-0.088572,-0.070382,0.05207,0.079679,-0.69466,-0.1334,0.01017
197,-0.097341,-0.062262,0.0014,0.035505,-0.40493,-0.1597,0.003024
198,-0.11943,-0.064861,-0.054792,0.0062721,-0.17172,-0.18309,-0.0031473
199,-0.14801,-0.0824,-0.096692,0.0039985,0.016991,-0.2029,-0.008669
200,-0.17757,-0.11423,-0.1178,0.028034,0.23201,-0.22077,-0.014191
201,-0.19998,-0.15613,-0.1204,0.069934,0.52889,-0.23701,-0.022636
202,-0.21232,-0.19966,-0.11261,0.10989,0.84493,-0.2474,-0.034004
203,-0.21525,-0.23603,-0.10676,0.11768,1.0385,-0.25292,-0.047971
204,-0.21427,-0.25975,-0.10319,0.078055,1.0219,-0.26007,-0.06551
205,-0.21102,-0.26527,-0.084024,0.00042559,0.8485,-0.27404,-0.088247
206,-0.20745,-0.24838,-0.03173,-0.089871,0.65264,-0.28768,-0.11001
207,-0.20128,-0.20972,0.057267,-0.16685,0.51427,-0.28865,-0.11878
208,-0.18894,-0.15711,0.16608,-0.22174,0.41261,-0.26364,-0.10968
209,-0.16815,-0.10254,0.26904,-0.24935,0.28496,-0.2172,-0.085648
210,-0.14509,-0.061613,0.33855,-0.24935,0.089423,-0.16847,-0.054467
211,-0.12073,-0.038227,0.36194,-0.21914,-0.16977,-0.13145,-0.026533
212,-0.093444,-0.023285,0.34342,-0.15776,-0.44586,-0.11651,-0.007045
213,-0.063886,-0.0037969,0.30055,-0.074605,-0.6703,-0.123,-0.0015233
214,-0.034978,0.024461,0.25248,0.012119,-0.78788,-0.14379,-0.0096434
215,-0.0073698,0.06084,0.2083,0.080978,-0.77716,-0.16847,-0.022636
216,0.01764,0.10242,0.16933,0.11378,-0.65374,-0.18861,-0.03303
217,0.039078,0.14594,0.13522,0.10989,-0.46567,-0.19868,-0.038551
218,0.055968,0.17355,0.10112,0.080003,-0.26916,-0.19543,-0.038876
219,0.065387,0.16673,0.061814,0.034206,-0.11228,-0.18374,-0.038227
220,0.066686,0.12515,0.01829,-0.026858,-0.018088,-0.16782,-0.041799
221,0.06084,0.064413,-0.023935,-0.098316,0.012768,-0.15158,-0.047321
222,0.048497,0.0043233,-0.05739,-0.1675,-0.00054884,-0.13599,-0.053168
223,0.027385,-0.043423,-0.077203,-0.21297,-0.038551,-0.11943,-0.051868
224,-0.0021729,-0.06616,-0.081101,-0.22044,-0.097341,-0.10481,-0.04115
225,-0.033679,-0.054142,-0.073306,-0.18407,-0.18374,-0.090845,-0.026209
226,-0.061937,-0.008669,-0.054467,-0.11586,-0.31529,-0.079152,-0.013541
227,-0.078178,0.061814,-0.027833,-0.037902,-0.51764,-0.070382,0.00042559
228,-0.073955,0.14724,0.012119,0.029009,-0.78821,-0.056091,0.014068
229,-0.046347,0.22974,0.067011,0.07708,-1.0614,-0.036278,0.022837
230,0.00010078,0.29178,0.12937,0.10177,-1.2348,-0.012242,0.031607
231,0.05272,0.31841,0.18037,0.10891,-1.2348,0.016016,0.041351
232,0.093645,0.29308,0.20376,0.10729,-1.062,0.040702,0.053044
233,0.11411,0.2135,0.19434,0.10209,-0.76385,0.05272,0.063763
234,0.11541,0.099817,0.15536,0.10242,-0.40688,0.050446,0.06831
235,0.10501,-0.012892,0.096569,0.11346,-0.056416,0.040702,0.066362
236,0.091696,-0.09994,0.032257,0.1219,0.22357,0.029009,0.061165
237,0.080328,-0.15223,-0.027508,0.11378,0.39702,0.022837,0.055968
238,0.071234,-0.18082,-0.076229,0.086824,0.46393,0.024461,0.049472
239,0.068635,-0.20388,-0.11228,0.048497,0.45678,0.03518,0.0433
240,0.070259,-0.23993,-0.13859,0.011469,0.41683,0.053694,0.042001
241,0.075781,-0.28735,-0.15841,-0.0073698,0.37655,0.078055,0.049472
242,0.078704,-0.32828,-0.1727,-0.0041217,0.34082,0.10534,0.061489
243,0.080003,-0.34517,-0.17952,0.015042,0.29925,0.13035,0.06961
244,0.073832,-0.3299,-0.18147,0.042001,0.23039,0.14302,0.069285
245,0.061814,-0.2893,-0.17757,0.061489,0.12613,0.13977,0.057592
246,0.051096,-0.23538,-0.17107,0.067661,0.0065969,0.1206,0.037454
247,0.045899,-0.18049,-0.16782,0.06019,-0.096367,0.094945,0.012768
248,0.045574,-0.13664,-0.17205,0.042975,-0.15353,0.073507,-0.0083442
249,0.046548,-0.11228,-0.18471,0.024137,-0.14444,0.064737,-0.022636
250,0.038753,-0.11261,-0.19901,0.011144,-0.069083,0.064413,-0.032055
251,0.016991,-0.13242,-0.21037,0.0065969,0.050771,0.067011,-0.035953
252,-0.012567,-0.161,-0.21557,0.013418,0.18394,0.067661,-0.037252
253,-0.041799,-0.18147,-0.21167,0.033556,0.30022,0.06961,-0.033679
254,-0.055441,-0.18471,-0.19901,0.060515,0.38532,0.078055,-0.022311
255,-0.041799,-0.16133,-0.18114,0.088124,0.43729,0.094295,-0.0021729
256,0.00075039,-0.10871,-0.16165,0.11118,0.4571,0.11443,0.021213
257,0.063438,-0.028482,-0.13989,0.11736,0.44379,0.12937,0.0433
258,0.12937,0.066037,-0.11391,0.096244,0.39702,0.13847,0.059541
259,0.18167,0.15276,-0.0837,0.049472,0.31744,0.14399,0.066037
260,0.20928,0.21123,-0.054467,-0.010293,0.20603,0.14886,0.061165
261,0.21935,0.23071,-0.042124,-0.06551,0.075131,0.14984,0.05142
262,0.22097,0.21317,-0.056741,-0.10903,-0.050244,0.14659,0.041351
263,0.2187,0.18102,-0.098316,-0.13989,-0.14411,0.14074,0.029658
264,0.21772,0.15861,-0.15418,-0.15451,-0.18504,0.14074,0.01894
265,0.21805,0.15601,-0.20388,-0.15093,-0.1662,0.15211,0.012768
266,0.22129,0.16218,-0.23051,-0.13404,-0.10449,0.1755,0.015692
267,0.22714,0.16218,-0.22434,-0.11001,-0.037902,0.20181,0.026085
268,0.23071,0.15666,-0.17887,-0.084024,-0.010293,0.22552,0.041027
269,0.22941,0.15146,-0.098641,-0.055441,-0.048945,0.23883,0.054668
270,0.2187,0.15211,0.0069217,-0.012567,-0.13827,0.23624,0.062789
271,0.19661,0.15763,0.1245,0.06831,-0.22239,0.21382,0.063438
272,0.16673,0.16673,0.24663,0.19986,-0.24903,0.17582,0.055318
273,0.13749,0.18134,0.36226,0.34927,-0.21395,0.13457,0.042651
274,0.11833,0.20213,0.45256,0.45873,-0.1688,0.10014,0.032906
275,0.11281,0.22779,0.49738,0.48147,-0.17237,0.080003,0.022837
276,0.11606,0.25475,0.48991,0.40643,-0.23701,0.071883,0.012443
277,0.11801,0.27424,0.43145,0.26287,-0.31594,0.06961,0.0046481
278,0.11021,0.27749,0.3353,0.10404,-0.33218,0.071883,0.0017248
279,0.092671,0.26255,0.21772,-0.01549,-0.23181,0.083251,0.0043233
280,0.071883,0.23396,0.10047,-0.072656,-0.0034721,0.098517,0.011794
281,0.055318,0.19563,0.0078962,-0.077853,0.31711,0.11118,0.024137
282,0.045574,0.14789,-0.044073,-0.050894,0.67115,0.11346,0.04395
283,0.041351,0.095269,-0.051868,-0.017764,1.0109,0.10177,0.067011
284,0.043625,0.049796,-0.028482,0.0020496,1.3071,0.071558,0.082927
285,0.049796,0.028359,0.014717,0.008221,1.5364,0.027709,0.083576
286,0.054993,0.042001,0.069285,0.009845,1.6755,-0.02426,0.067661
287,0.057592,0.090397,0.12548,0.011144,1.6972,-0.077203,0.037778
288,0.055318,0.15991,0.17712,0.012443,1.5816,-0.12333,0.0062721
289,0.047523,0.22812,0.22032,0.01829,1.3403,-0.16068,-0.017439
290,0.037778,0.27716,0.25475,0.038753,1.0103,-0.18342,-0.03173
291,0.033231,0.29762,0.27586,0.07773,0.63153,-0.18926,-0.035628
292,0.036479,0.29568,0.28138,0.13295,0.23981,-0.17919,-0.030106
293,0.044924,0.28171,0.27002,0.19174,-0.15158,-0.15386,-0.017764
294,0.051096,0.258,0.24858,0.23721,-0.54785,-0.11683,-0.0034721
295,0.047523,0.22259,0.22227,0.25378,-0.93892,-0.074605,0.0075714
296,0.028034,0.17452,0.19953,0.23364,-1.2722,-0.039201,0.014392
297,-0.0037969,0.11833,0.17777,0.18004,-1.483,-0.020037,0.016341
298,-0.039201,0.062789,0.15373,0.10599,-1.5392,-0.016789,0.015367
299,-0.06681,0.016016,0.12353,0.025436,-1.4424,-0.020687,0.0095202
300,-0.078503,-0.020037,0.091696,-0.044723,-1.2221,-0.028157,0.00075039
301,-0.072006,-0.044398,0.062464,-0.090196,-0.92105,-0.035628,-0.0050961
302,-0.054467,-0.058689,0.0433,-0.10741,-0.58878,-0.040175,-0.0044465
303,-0.039201,-0.06681,0.036154,-0.098316,-0.27209,-0.039201,0.00010078
304,-0.03238,-0.068434,0.040702,-0.06681,-0.012892,-0.032055,0.0065969
305,-0.034004,-0.064211,0.048497,-0.024909,0.15991,-0.018738,0.014392
306,-0.039526,-0.058689,0.047847,0.0085458,0.24403,-0.00022403,0.024137
307,-0.047971,-0.055441,0.030957,0.026085,0.26547,0.022837,0.035505
308,-0.05804,-0.060313,-0.0034721,0.023812,0.26384,0.05142,0.051096
309,-0.062912,-0.070707,-0.045047,0.0072465,0.26969,0.084551,0.071234
310,-0.058365,-0.087597,-0.084349,-0.011592,0.29373,0.12255,0.092346
311,-0.044723,-0.10091,-0.11586,-0.022961,0.32946,0.16218,0.11248
312,-0.029132,-0.10514,-0.14022,-0.023935,0.36908,0.19986,0.1284
313,-0.021661,-0.09929,-0.1662,-0.01614,0.40643,0.23266,0.13879
314,-0.02361,-0.084674,-0.19251,-0.0031473,0.43112,0.2619,0.14561
315,-0.029132,-0.06681,-0.21655,0.0065969,0.41456,0.28366,0.14951
316,-0.029132,-0.050244,-0.23441,0.013418,0.32946,0.29405,0.14334
317,-0.02361,-0.036278,-0.24675,0.019589,0.19758,0.28333,0.12385
318,-0.016789,-0.025884,-0.25325,0.024786,0.089098,0.2528,0.094945
319,-0.0096434,-0.012567,-0.25292,0.030633,0.073832,0.20473,0.065062
320,-0.0031473,0.0072465,-0.24513,0.03583,0.16478,0.14821,0.042651
321,0.0056225,0.034206,-0.22726,0.03518,0.32653,0.092996,0.029658
322,0.01764,0.065387,-0.20128,0.028034,0.49933,0.048497,0.025436
323,0.033881,0.098193,-0.16847,0.018615,0.6325,0.015692,0.029983
324,0.046223,0.12678,-0.13047,0.011794,0.70363,-0.010293,0.038753
325,0.05272,0.14334,-0.084674,0.0017248,0.70818,-0.034004,0.046223
326,0.05142,0.14399,-0.030106,-0.0067202,0.65524,-0.057715,0.044599
327,0.044599,0.12743,0.036479,-0.008669,0.57274,-0.083375,0.034206
328,0.031932,0.10112,0.10761,0.0036737,0.49056,-0.10903,0.020564
329,0.014392,0.070584,0.16933,0.025436,0.42592,-0.13534,0.0088706
330,-0.0050961,0.042651,0.20863,0.038103,0.3772,-0.15711,0.0023744
331,-0.026209,0.022188,0.22097,0.028034,0.31939,-0.17172,0.00075039
332,-0.045372,0.012119,0.207,0.0014,0.20408,-0.18114,-0.0015233
333,-0.060313,0.0088706,0.17322,-0.027183,-0.020037,-0.19478,-0.0083442
334,-0.067784,0.0078962,0.13002,-0.051219,-0.377,-0.21947,-0.022636
335,-0.071357,0.0072465,0.086824,-0.072331,-0.82556,-0.26137,-0.041799
336,-0.068758,0.0033489,0.053694,-0.089871,-1.2533,-0.30684,-0.064211
337,-0.060313,-0.0031473,0.03518,-0.094743,-1.5291,-0.34517,-0.0837
338,-0.048296,-0.0093186,0.031607,-0.081426,-1.5941,-0.36271,-0.097666
339,-0.032705,-0.0054209,0.038753,-0.055116,-1.4781,-0.35686,-0.10351
340,-0.012892,0.012768,0.046548,-0.020037,-1.2777,-0.33218,-0.10221
341,0.014717,0.046873,0.044599,0.016991,-1.0971,-0.30002,-0.095717
342,0.048172,0.086824,0.031282,0.049147,-0.99121,-0.27046,-0.086298
343,0.078379,0.12775,0.009845,0.066362,-0.93275,-0.24773,-0.079477
344,0.099817,0.15601,-0.016464,0.06019,-0.82848,-0.22564,-0.077203
345,0.10566,0.16218,-0.047321,0.029009,-0.60534,-0.19641,-0.075255
346,0.088773,0.14302,-0.080127,-0.016789,-0.26299,-0.16003,-0.063886
347,0.047523,0.10047,-0.10806,-0.061937,0.1232,-0.1217,-0.043748
348,-0.015165,0.042326,-0.12852,-0.098316,0.44411,-0.080776,-0.025559
349,-0.079152,-0.020362,-0.13599,-0.12138,0.60197,-0.036602,-0.013866
350,-0.12755,-0.079802,-0.13112,-0.12333,0.54188,0.013743,-0.0083442
351,-0.15386,-0.12527,-0.11715,-0.095068,0.29275,0.068635,-0.0041217
352,-0.16555,-0.14834,-0.10319,-0.0405,-0.043423,0.11833,0.0023744
353,-0.17302,-0.14119,-0.09929,0.020564,-0.34582,0.15503,0.0069217
354,-0.18212,-0.11001,-0.10838,0.066362,-0.52381,0.17355,0.008221
355,-0.19089,-0.075579,-0.12755,0.080978,-0.54298,0.1742,0.0056225
356,-0.19511,-0.059014,-0.14899,0.072208,-0.43547,0.16283,0.0010752
357,-0.18666,-0.061937,-0.15581,0.053694,-0.27371,0.14919,0.00010078
358,-0.15256,-0.067459,-0.13275,0.05142,-0.11488,0.14561,0.0065969
359,-0.079477,-0.056416,-0.073955,0.076106,0.022837,0.15926,0.024461
360,0.031607,-0.018413,0.014068,0.11378,0.15373,0.19271,0.050121
361,0.15114,0.041676,0.11248,0.13327,0.29015,0.23883,0.078055
362,0.24436,0.10891,0.19661,0.12125,0.43015,0.28788,0.10112
363,0.28528,0.16023,0.24923,0.082277,0.57696,0.33011,0.11411
364,0.27619,0.18134,0.26742,0.038753,0.73189,0.35934,0.11703
365,0.23818,0.16803,0.26677,0.024461,0.88975,0.37363,0.11671
366,0.20051,0.13132,0.26384,0.052395,1.0255,0.37103,0.11671
367,0.17712,0.082277,0.26287,0.10079,1.1057,0.35414,0.11573
368,0.1716,0.031932,0.25897,0.14691,1.1064,0.32166,0.11183
369,0.17387,-0.015815,0.24598,0.17615,1.019,0.27976,0.10436
370,0.169,-0.067459,0.22552,0.18751,0.85402,0.23234,0.088448
371,0.14659,-0.12527,0.2083,0.18979,0.63802,0.18524,0.070584
372,0.10664,-0.17919,0.20311,0.18979,0.41228,0.14009,0.055318
373,0.059216,-0.2107,0.2096,0.19531,0.22454,0.095594,0.044275
374,0.014392,-0.20485,0.22129,0.207,0.10436,0.054668,0.03453
375,-0.031406,-0.16847,0.22747,0.21642,0.054019,0.021213,0.026085
376,-0.094418,-0.1243,0.21967,0.21675,0.046548,0.0010752,0.01829
377,-0.17205,-0.096042,0.19888,0.20538,0.044924,-0.0073698,0.012119
378,-0.2435,-0.092469,0.17322,0.17972,0.023162,-0.015815,0.013093
379,-0.28151,-0.10968,0.14756,0.13944,-0.027508,-0.037252,0.021213
380,-0.28216,-0.14574,0.11671,0.085525,-0.095393,-0.072006,0.029333
381,-0.26851,-0.19543,0.073182,0.024137,-0.16295,-0.1204,0.026085
382,-0.26754,-0.24838,0.019264,-0.03238,-0.23214,-0.17822,0.0085458
383,-0.2906,-0.29125,-0.036278,-0.069408,-0.31301,-0.23798,-0.016789
384,-0.32406,-0.31626,-0.0837,-0.085648,-0.40266,-0.2906,-0.041475
385,-0.3364,-0.31561,-0.11358,-0.093119,-0.49166,-0.3312,-0.060963
386,-0.28865,-0.28021,-0.11488,-0.093119,-0.55922,-0.35232,-0.067134
387,-0.15873,-0.19738,-0.089871,-0.079802,-0.57968,-0.34809,-0.056416
388,0.045574,-0.058689,-0.04992,-0.051868,-0.53973,-0.31691,-0.029457
389,0.28463,0.11898,-0.0063954,-0.015165,-0.43806,-0.26527,0.0017248
390,0.5042,0.29762,0.028359,0.027709,-0.2854,-0.20908,0.022837
391,0.65751,0.43664,0.04395,0.071558,-0.10351,-0.16263,0.028359
392,0.73059,0.51395,0.03583,0.10079,0.064088,-0.1308,0.023812
393,0.73546,0.53668,0.014392,0.10209,0.17127,-0.10903,0.015367
394,0.69909,0.52824,-0.0080194,0.070584,0.2122,-0.09182,0.011794
395,0.64322,0.51135,-0.021661,0.022512,0.2135,-0.078827,0.016991
396,0.58053,0.50193,-0.025884,-0.018088,0.21772,-0.071357,0.022188
397,0.5146,0.50388,-0.024909,-0.040825,0.23429,-0.064211,0.021213
398,0.44606,0.50875,-0.027833,-0.045047,0.23071,-0.056091,0.0095202
399,0.3733,0.5016,-0.041475,-0.039526,0.17939,-0.048945,-0.0093186
400,0.29665,0.47529,-0.072981,-0.034978,0.0852,-0.040175,-0.024909
401,0.2187,0.42917,-0.12073,-0.041475,-0.024585,-0.029132,-0.030106
402,0.14237,0.36324,-0.1753,-0.060963,-0.12592,-0.018088,-0.026858
403,0.072208,0.27716,-0.22856,-0.085324,-0.19901,-0.0067202,-0.021012
404,0.015042,0.17745,-0.26689,-0.10221,-0.23279,0.0033489,-0.01614
405,-0.029132,0.087474,-0.28183,-0.10156,-0.22986,0.011794,-0.008669
406,-0.06551,0.025436,-0.27046,-0.081426,-0.20225,0.024461,0.0026992
407,-0.10059,-0.0067202,-0.24415,-0.048296,-0.17075,0.04395,0.012443
408,-0.13827,-0.025234,-0.21557,-0.012892,-0.15093,0.072858,0.01829
409,-0.16847,-0.046347,-0.19186,0.020239,-0.14476,0.10826,0.021863
410,-0.17789,-0.073631,-0.17562,0.05207,-0.13567,0.15016,0.029333
411,-0.16035,-0.09929,-0.1623,0.082927,-0.11261,0.19011,0.044275
412,-0.11715,-0.10838,-0.15743,0.10924,-0.086623,0.21707,0.064413
413,-0.055116,-0.087922,-0.16003,0.12483,-0.071032,0.21772,0.080003
414,0.013418,-0.035953,-0.16165,0.12515,-0.070707,0.19044,0.085525
415,0.081303,0.043625,-0.15126,0.10989,-0.077528,0.14107,0.081627
416,0.14919,0.13717,-0.1256,0.081627,-0.083375,0.0865,0.078704
417,0.2083,0.22129,-0.090196,0.049147,-0.091495,0.042975,0.079354
418,0.24988,0.27294,-0.054467,0.021213,-0.11131,0.01829,0.081303
419,0.26287,0.26969,-0.03303,0.00010078,-0.14931,0.015042,0.079679
420,0.23851,0.20246,-0.027508,-0.010618,-0.20648,0.023162,0.074157
421,0.1755,0.082277,-0.035953,-0.00087364,-0.27728,0.031607,0.067011
422,0.082927,-0.05804,-0.04862,0.032906,-0.34192,0.036804,0.062139
423,-0.017439,-0.18017,-0.04927,0.081303,-0.35946,0.043625,0.058891
424,-0.10319,-0.24968,-0.016789,0.13262,-0.29417,0.060515,0.059216
425,-0.15678,-0.25585,0.057917,0.17322,-0.13275,0.087474,0.063763
426,-0.17627,-0.212,0.1664,0.19011,0.10599,0.11995,0.071234
427,-0.17335,-0.14606,0.28301,0.1625,0.3785,0.15698,0.07708
428,-0.16393,-0.085324,0.37265,0.080653,0.63737,0.19369,0.080003
429,-0.16165,-0.047971,0.40319,-0.044723,0.84168,0.22292,0.075781
430,-0.1727,-0.042774,0.36778,-0.17984,0.9638,0.24208,0.068635
431,-0.19121,-0.068434,0.28788,-0.28995,0.99401,0.2502,0.061165
432,-0.20908,-0.11326,0.19628,-0.35069,0.94691,0.24695,0.053694
433,-0.22304,-0.16555,0.11508,-0.36336,0.8524,0.23299,0.047847
434,-0.23214,-0.21525,0.058241,-0.34095,0.74066,0.2096,0.04395
435,-0.23441,-0.25325,0.028034,-0.29937,0.63023,0.17712,0.039078
436,-0.22986,-0.27599,0.018615,-0.25325,0.52986,0.13847,0.033556
437,-0.2172,-0.28313,0.020564,-0.20258,0.43989,0.099492,0.029333
438,-0.19901,-0.27469,0.022188,-0.15386,0.3392,0.067011,0.029333
439,-0.17984,-0.26527,0.017316,-0.10579,0.21058,0.046548,0.036804
440,-0.16555,-0.27988,0.0046481,-0.059014,0.057917,0.040377,0.051745
441,-0.15905,-0.31594,-0.0083442,-0.0060706,-0.10644,0.041027,0.072533
442,-0.15581,-0.34257,0.00042559,0.063763,-0.27209,0.040052,0.093321
443,-0.14996,-0.31529,0.053044,0.16608,-0.43124,0.034206,0.10761
444,-0.13957,-0.21135,0.14691,0.29633,-0.5852,0.029009,0.11183
445,-0.12885,-0.051219,0.25053,0.41228,-0.72974,0.021213,0.10664
446,-0.12138,0.11476,0.32166,0.45873,-0.85122,0.0065969,0.09462
447,-0.12235,0.23429,0.33368,0.41066,-0.91781,-0.01549,0.076106
448,-0.13275,0.27586,0.28398,0.2895,-0.89507,-0.046671,0.053694
449,-0.14866,0.24176,0.19758,0.14984,-0.73949,-0.085648,0.032906
450,-0.1675,0.15861,0.10826,0.049796,-0.40721,-0.13307,0.016341
451,-0.18439,0.064737,0.048497,0.023162,0.08585,-0.18439,0.0039985
452,-0.19706,-0.013866,0.031282,0.057592,0.5958,-0.23441,-0.0096434
453,-0.20225,-0.071682,0.050771,0.11411,0.92353,-0.27664,-0.025234
454,-0.20193,-0.11683,0.086824,0.15633,0.95081,-0.31074,-0.0405
455,-0.19868,-0.15451,0.1206,0.16445,0.70233,-0.3351,-0.053817
456,-0.19446,-0.18407,0.13587,0.14269,0.30087,-0.34744,-0.064536
457,-0.18926,-0.19641,0.13197,0.10566,-0.10221,-0.34452,-0.067459
458,-0.17984,-0.19089,0.1232,0.074806,-0.39909,-0.32601,-0.058689
459,-0.16165,-0.17075,0.12613,0.056617,-0.55435,-0.29255,-0.043748
460,-0.14314,-0.14054,0.14172,0.05207,-0.57513,-0.24805,-0.029782
461,-0.13372,-0.11293,0.15698,0.05207,-0.48971,-0.19836,-0.020362
462,-0.13404,-0.10644,0.15893,0.050771,-0.32698,-0.14736,-0.015815
463,-0.13275,-0.12787,0.14074,0.044924,-0.10644,-0.10124,-0.012892
464,-0.1191,-0.16588,0.10664,0.036479,0.16283,-0.05739,-0.013541
465,-0.090196,-0.19836,0.064413,0.031607,0.46133,-0.011917,-0.013866
466,-0.051868,-0.20453,0.024461,0.032582,0.75625,0.036479,-0.008669
467,-0.0089938,-0.17042,-0.0047713,0.039727,1.0132,0.084876,0.0017248
468,0.031607,-0.10189,-0.024585,0.047523,1.2058,0.12743,0.012768
469,0.066037,-0.018088,-0.039201,0.046223,1.299,0.15828,0.01764
470,0.093645,0.057592,-0.046347,0.029333,1.2545,0.17452,0.015367
471,0.11216,0.10826,-0.04115,0.0017248,1.0661,0.17452,0.008221
472,0.12483,0.13295,-0.022311,-0.018738,0.7949,0.16445,0.00075039
473,0.13425,0.13457,0.0095202,-0.020687,0.53149,0.15016,-0.0047713
474,0.13879,0.12125,0.050771,-0.012242,0.32816,0.14009,-0.0083442
475,0.13879,0.10274,0.092996,-0.0054209,0.16543,0.14334,-0.0083442
476,0.14399,0.089098,0.12385,-0.0047713,-0.0063954,0.16575,-0.00054884
477,0.16413,0.083901,0.13555,-0.0057458,-0.21622,0.2057,0.014392
478,0.20213,0.086824,0.1232,0.0017248,-0.46697,0.25572,0.032582
479,0.24923,0.092671,0.086824,0.015692,-0.74273,0.30055,0.049147
480,0.2908,0.092996,0.02706,0.025761,-1.0036,0.32393,0.061489
481,0.31127,0.081627,-0.055441,0.022188,-1.1913,0.31484,0.063763
482,0.30477,0.06019,-0.15548,0.0052977,-1.2403,0.27684,0.055643
483,0.27879,0.031932,-0.26039,-0.021337,-1.1176,0.21935,0.044924
484,0.24955,-0.0028225,-0.36336,-0.053817,-0.85934,0.15341,0.041027
485,0.22649,-0.046347,-0.46405,-0.083375,-0.55759,0.092996,0.044599
486,0.21188,-0.090845,-0.55954,-0.10351,-0.31204,0.041027,0.046873
487,0.20181,-0.12365,-0.64334,-0.11131,-0.18601,-0.0011985,0.041351
488,0.18849,-0.14411,-0.70051,-0.10838,-0.18277,-0.037252,0.030308
489,0.16933,-0.15938,-0.7174,-0.10254,-0.23668,-0.070707,0.016666
490,0.14659,-0.16847,-0.68135,-0.094418,-0.26299,-0.09929,0.0039985
491,0.12418,-0.15905,-0.5917,-0.084999,-0.21427,-0.1217,-0.0057458
492,0.10599,-0.1204,-0.46243,-0.078827,-0.11943,-0.13502,-0.012567
493,0.099817,-0.051219,-0.32276,-0.077203,-0.056741,-0.13989,-0.01549
494,0.10859,0.039727,-0.19706,-0.076879,-0.070058,-0.13762,-0.016789
495,0.12678,0.14367,-0.10059,-0.064211,-0.12008,-0.12203,-0.012567
496,0.15081,0.25378,-0.035303,-0.024909,-0.12592,-0.089871,-0.0024977
497,0.18069,0.37071,0.016991,0.042975,-0.08305,-0.041799,0.015042
498,0.21675,0.49803,0.078704,0.12125,-0.088572,0.011794,0.033881
499,0.25378,0.62893,0.16218,0.17907,-0.23279,0.055318,0.046873
500,0.28203,0.74229,0.25313,0.19531,-0.47996,0.079029,0.053369
501,0.29113,0.80562,0.31906,0.16673,-0.69434,0.076106,0.053369
502,0.26969,0.79783,0.33952,0.10794,-0.75183,0.051096,0.042975
503,0.21902,0.72702,0.32491,0.03518,-0.62385,0.016991,0.022837
504,0.15763,0.62146,0.31062,-0.042774,-0.39259,-0.012567,-0.00087364
505,0.10404,0.51265,0.33108,-0.12008,-0.19901,-0.03238,-0.020687
506,0.067661,0.42852,0.39767,-0.18114,-0.16945,-0.046347,-0.033679
507,0.043625,0.37785,0.49576,-0.20323,-0.35881,-0.058365,-0.041799
508,0.020239,0.34959,0.60327,-0.15581,-0.72714,-0.065835,-0.046347
509,-0.0093186,0.32458,0.68934,-0.029457,-1.1325,-0.070382,-0.051219
510,-0.049595,0.28431,0.73189,0.14756,-1.3998,-0.069733,-0.058689
511,-0.090845,0.22714,0.7176,0.31289,-1.4047,-0.063886,-0.064536
512,-0.11553,0.17192,0.65134,0.41001,-1.1319,-0.054142,-0.069408
513,-0.10968,0.13977,0.54545,0.41358,-0.68005,-0.042449,-0.068109
514,-0.075904,0.13847,0.41358,0.33628,-0.20096,-0.029457,-0.061613
515,-0.029132,0.15731,0.27489,0.2148,0.18784,-0.016464,-0.04992
516,0.015367,0.16933,0.15081,0.092671,0.45321,-0.0031473,-0.034004
517,0.047523,0.15698,0.056942,0.0049729,0.62665,0.008221,-0.020687
518,0.061489,0.11606,-0.007045,-0.037252,0.74423,0.016016,-0.015165
519,0.057592,0.054668,-0.047971,-0.046347,0.81862,0.01764,-0.019388
520,0.04395,-0.011917,-0.079152,-0.041799,0.84395,0.012119,-0.030431
521,0.029333,-0.069733,-0.099615,-0.039526,0.81634,-0.00087364,-0.040175
522,0.026085,-0.10644,-0.11131,-0.046671,0.74423,-0.017764,-0.046022
523,0.041676,-0.11878,-0.11326,-0.058689,0.65102,-0.036927,-0.048296
524,0.074157,-0.10903,-0.10514,-0.074605,0.56916,-0.056416,-0.047321
525,0.11151,-0.085324,-0.090196,-0.091495,0.52337,-0.074605,-0.047646
526,0.14302,-0.057715,-0.073306,-0.10449,0.51427,-0.087597,-0.046996
527,0.16315,-0.037252,-0.059339,-0.10449,0.5055,-0.094418,-0.042449
528,0.16998,-0.03238,-0.044398,-0.08305,0.44639,-0.097991,-0.03303
529,0.16835,-0.047321,-0.02426,-0.036278,0.29373,-0.10709,-0.018738
530,0.15698,-0.077528,-0.0054209,0.029658,0.05207,-0.1256,0.0017248
531,0.13944,-0.10806,0.0088706,0.10079,-0.22661,-0.14834,0.024137
532,0.11248,-0.13145,0.013418,0.16673,-0.46275,-0.16263,0.042651
533,0.080328,-0.13989,0.0072465,0.22877,-0.58455,-0.1597,0.050446
534,0.048497,-0.12592,-0.0031473,0.28171,-0.57871,-0.14152,0.05142
535,0.027709,-0.09117,-0.012242,0.32004,-0.47282,-0.11553,0.053369
536,0.01894,-0.047646,-0.019712,0.34147,-0.30197,-0.087922,0.058566
537,0.016991,-0.01549,-0.030756,0.3431,-0.091495,-0.062587,0.064737
538,0.013743,-0.0067202,-0.050244,0.31257,0.1362,-0.037252,0.067336
539,0.0036737,-0.02426,-0.08305,0.2476,0.35901,-0.0054209,0.066686
540,-0.014516,-0.063237,-0.12495,0.15503,0.55195,0.040052,0.064413
541,-0.042774,-0.11196,-0.17107,0.05272,0.6757,0.10177,0.061489
542,-0.077528,-0.1597,-0.21492,-0.037902,0.69811,0.17225,0.058891
543,-0.11293,-0.19738,-0.24903,-0.10091,0.65491,0.23494,0.049147
544,-0.14476,-0.21882,-0.26462,-0.12495,0.66433,0.27716,0.03518
545,-0.1714,-0.22434,-0.26072,-0.11098,0.82998,0.29178,0.026085
546,-0.18764,-0.21655,-0.24415,-0.070058,1.146,0.28268,0.029009
547,-0.18861,-0.20225,-0.22077,-0.020687,1.4822,0.2593,0.041027
548,-0.17367,-0.18277,-0.19673,0.019589,1.6644,0.23169,0.053694
549,-0.14769,-0.16198,-0.17497,0.0433,1.5647,0.20733,0.056942
550,-0.11553,-0.14249,-0.15548,0.046548,1.1814,0.19239,0.050771
551,-0.084349,-0.1256,-0.13697,0.031932,0.65004,0.18849,0.040377
552,-0.060313,-0.10611,-0.11878,0.013743,0.1781,0.19434,0.030633
553,-0.039851,-0.081101,-0.097666,0.013093,-0.077853,0.20181,0.02641
554,-0.021986,-0.046996,-0.073631,0.033231,-0.092145,0.21123,0.031932
555,-0.0073698,-0.0083442,-0.050244,0.064413,0.049147,0.22519,0.048172
556,0.0023744,0.032906,-0.030756,0.098842,0.22422,0.24241,0.078055
557,0.012768,0.070584,-0.013541,0.13425,0.34764,0.26384,0.11671
558,0.028034,0.10112,0.0062721,0.16998,0.39669,0.28496,0.15146
559,0.051745,0.1232,0.028034,0.19531,0.38078,0.29827,0.17322
560,0.077405,0.13392,0.049796,0.19434,0.32361,0.29697,0.17939
561,0.094295,0.13814,0.069934,0.16933,0.25735,0.27651,0.17745
562,0.095594,0.13717,0.09397,0.13652,0.20895,0.24306,0.17192
563,0.078379,0.12905,0.11801,0.10404,0.17874,0.20408,0.16088
564,0.04395,0.11054,0.12937,0.061814,0.13522,0.16023,0.14074
565,-0.0041217,0.081952,0.12093,-0.0037969,0.056942,0.10859,0.11638
566,-0.054792,0.046873,0.095919,-0.088896,-0.042449,0.05272,0.091696
567,-0.094743,0.0091954,0.066362,-0.1701,-0.12917,0.0020496,0.070584
568,-0.11488,-0.02361,0.043625,-0.22824,-0.17757,-0.030106,0.058566
569,-0.11456,-0.046671,0.030957,-0.24838,-0.18114,-0.044073,0.057917
570,-0.098965,-0.059989,0.027385,-0.21882,-0.14931,-0.046996,0.061489
571,-0.076554,-0.065186,0.025111,-0.13924,-0.10189,-0.050244,0.065062
572,-0.053492,-0.065186,0.01829,-0.029782,-0.066485,-0.064211,0.062139
573,-0.033354,-0.062262,-0.0037969,0.066686,-0.060313,-0.089871,0.05207
574,-0.01549,-0.063237,-0.042449,0.11054,-0.081426,-0.12105,0.036154
575,-0.00022403,-0.071357,-0.086948,0.078379,-0.10871,-0.14574,0.01894
576,0.015042,-0.081426,-0.12203,-0.011267,-0.12527,-0.16035,0.0043233
577,0.032582,-0.086948,-0.13957,-0.11391,-0.12982,-0.16425,-0.0063954
578,0.049472,-0.082725,-0.14444,-0.18114,-0.14152,-0.16425,-0.01549
579,0.056617,-0.064861,-0.14249,-0.18342,-0.17854,-0.1675,-0.023935
580,0.047523,-0.030106,-0.13307,-0.12755,-0.25098,-0.18147,-0.034654
581,0.023812,0.020888,-0.11423,-0.047971,-0.35751,-0.20615,-0.045697
582,-0.007045,0.086824,-0.089546,0.017965,-0.48224,-0.23603,-0.05804
583,-0.038876,0.15991,-0.063886,0.053044,-0.60729,-0.25877,-0.069733
584,-0.067459,0.22747,-0.037252,0.059541,-0.71967,-0.26949,-0.078178
585,-0.09117,0.27684,-0.0080194,0.05142,-0.81647,-0.26462,-0.086948
586,-0.10709,0.29373,0.024137,0.035505,-0.90221,-0.24643,-0.097991
587,-0.11878,0.27099,0.056617,0.021863,-0.97887,-0.21882,-0.10676
588,-0.12495,0.2109,0.08585,0.015367,-1.0494,-0.18764,-0.10903
589,-0.1217,0.12028,0.11671,0.01764,-1.1221,-0.16003,-0.10286
590,-0.10968,0.017316,0.14821,0.024786,-1.1929,-0.14541,-0.087597
591,-0.09182,-0.078503,0.17842,0.034206,-1.2335,-0.14411,-0.069408
592,-0.073306,-0.15386,0.20408,0.039727,-1.1858,-0.15256,-0.050569
593,-0.060638,-0.19446,0.21772,0.040702,-0.99478,-0.15841,-0.03303
594,-0.056741,-0.19836,0.21577,0.039402,-0.64497,-0.15061,-0.01484
595,-0.060963,-0.17432,0.20051,0.042651,-0.16425,-0.12592,0.0014
596,-0.06616,-0.13632,0.18069,0.047198,0.36161,-0.088572,0.013418
597,-0.06681,-0.10676,0.16445,0.047523,0.80757,-0.048296,0.022188
598,-0.059989,-0.11293,0.15861,0.046223,1.0905,-0.0083442,0.035505
599,-0.044723,-0.1636,0.16348,0.047847,1.2185,0.031282,0.050446
600,-0.019712,-0.24026,0.17517,0.061489,1.262,0.064088,0.06831
601,0.013743,-0.30392,0.18946,0.087474,1.2759,0.08585,0.0865
602,0.055318,-0.31951,0.20538,0.12515,1.2327,0.096893,0.10079
603,0.096569,-0.27144,0.21772,0.16056,1.0554,0.099167,0.10404
604,0.13067,-0.17205,0.22162,0.17972,0.71728,0.089748,0.095594
605,0.15763,-0.053492,0.21707,0.17972,0.30055,0.072858,0.080653
606,0.17485,0.048497,0.20538,0.16478,-0.051544,0.059216,0.064088
607,0.17777,0.11736,0.18524,0.14302,-0.23441,0.05272,0.047198
608,0.16738,0.16705,0.16056,0.12645,-0.23701,0.054344,0.029983
609,0.15211,0.22162,0.13295,0.11671,-0.12333,0.056292,0.014392
610,0.14269,0.2947,0.10989,0.10631,0.016016,0.051745,0.0039985
611,0.14919,0.37785,0.093321,0.087474,0.10891,0.034206,-0.0034721
612,0.1703,0.45905,0.080003,0.063113,0.13392,0.0065969,-0.0080194
613,0.20343,0.52207,0.059541,0.038753,0.093321,-0.017114,-0.0050961
614,0.24013,0.55,0.029658,0.021213,-0.0076946,-0.025559,0.0069217
615,0.26774,0.53116,-0.0031473,0.014068,-0.16035,-0.020037,0.024137
616,0.27034,0.46945,-0.029782,0.016341,-0.34777,-0.0083442,0.040702
617,0.2476,0.37818,-0.047971,0.026085,-0.53128,-0.0057458,0.047847
618,0.2135,0.27879,-0.058689,0.036479,-0.66283,-0.018413,0.04395
619,0.18654,0.18946,-0.065186,0.031932,-0.7161,-0.036278,0.038428
620,0.17582,0.11898,-0.067459,0.003024,-0.70441,-0.046347,0.041351
621,0.17387,0.06084,-0.06551,-0.042774,-0.65861,-0.039201,0.054019
622,0.1638,-0.00087364,-0.054142,-0.0824,-0.59754,-0.018413,0.066362
623,0.13035,-0.080776,-0.029782,-0.097017,-0.53843,0.0010752,0.070259
624,0.070259,-0.17984,0.010819,-0.077853,-0.49653,0.0059473,0.06019
625,-0.0024977,-0.2867,0.063763,-0.028807,-0.48614,-0.014191,0.038103
626,-0.07493,-0.38155,0.12125,0.031607,-0.5066,-0.056416,0.011144
627,-0.13437,-0.43709,0.17192,0.076431,-0.54233,-0.10741,-0.011592
628,-0.174,-0.42962,0.20765,0.086175,-0.55889,-0.15093,-0.022961
629,-0.19738,-0.35459,0.22877,0.064413,-0.50692,-0.17205,-0.016464
630,-0.21849,-0.23019,0.23526,0.028684,-0.339,-0.16263,0.0072465
631,-0.23441,-0.087272,0.22194,-0.00022403,-0.046347,-0.12203,0.04395
632,-0.23116,0.038428,0.17615,-0.008669,0.32166,-0.055766,0.0852
633,-0.19511,0.11411,0.099167,0.0078962,0.65199,0.026735,0.12613
634,-0.13372,0.13165,0.0023744,0.040702,0.81959,0.11281,0.15731
635,-0.07493,0.10859,-0.09117,0.076431,0.78224,0.18297,0.16965
636,-0.045697,0.079029,-0.16133,0.10079,0.62178,0.22422,0.16413
637,-0.053168,0.06896,-0.19316,0.10761,0.48634,0.23559,0.14009
638,-0.075255,0.093321,-0.18959,0.099167,0.48114,0.22714,0.10566
639,-0.086298,0.14756,-0.161,0.078379,0.59547,0.21025,0.06896
640,-0.059339,0.21675,-0.12138,0.049796,0.74164,0.19141,0.038103
641,0.019589,0.28496,-0.078503,0.019914,0.82154,0.17745,0.019589
642,0.13295,0.33887,-0.038876,-0.0024977,0.78224,0.17355,0.014392
643,0.24046,0.36096,-0.0073698,-0.01614,0.62373,0.17972,0.01764
644,0.29048,0.33108,0.0085458,-0.031081,0.39507,0.19174,0.016016
645,0.24923,0.23754,0.0062721,-0.052193,0.16218,0.2044,0.0023744
646,0.12515,0.092021,-0.011917,-0.077203,-0.016464,0.21317,-0.021337
647,-0.032705,-0.073631,-0.036278,-0.09929,-0.11293,0.2174,-0.044723
648,-0.16393,-0.21622,-0.059989,-0.11196,-0.1295,0.22,-0.056741
649,-0.23019,-0.29417,-0.076229,-0.10968,-0.09182,0.22454,-0.051544
650,-0.2146,-0.28378,-0.082725,-0.090521,-0.037577,0.23429,-0.03173
651,-0.12333,-0.19056,-0.08305,-0.061288,0.0036737,0.24988,0.0023744
652,0.029983,-0.038227,-0.082725,-0.029782,0.020564,0.27359,0.047523
653,0.22617,0.14789,-0.088572,-0.008669,0.011794,0.30087,0.09462
654,0.44249,0.34407,-0.098965,-0.0063954,-0.018088,0.32198,0.13067
655,0.64419,0.53214,-0.10903,-0.021661,-0.056416,0.32101,0.14561
656,0.79231,0.68934,-0.11943,-0.046347,-0.090521,0.28593,0.13457
657,0.85727,0.79393,-0.13599,-0.069408,-0.10189,0.2122,0.10306
658,0.83128,0.83486,-0.15808,-0.087272,-0.0824,0.11183,0.061489
659,0.73482,0.80855,-0.17789,-0.10514,-0.038551,0.0075714,0.021863
660,0.60294,0.73059,-0.17919,-0.12105,0.010819,-0.078178,-0.008669
661,0.46685,0.62211,-0.15483,-0.13145,0.044275,-0.13599,-0.028807
662,0.34342,0.49998,-0.09994,-0.13697,0.046223,-0.1701,-0.043423
663,0.23851,0.3876,-0.014191,-0.13697,0.017965,-0.18699,-0.054142
664,0.15471,0.29697,0.093321,-0.12787,-0.030756,-0.18991,-0.063237
665,0.091047,0.22552,0.20148,-0.10286,-0.089871,-0.18082,-0.063237
666,0.0433,0.15763,0.28366,-0.059664,-0.15483,-0.16685,-0.052193
667,0.0039985,0.07773,0.31224,-0.0021729,-0.22304,-0.15483,-0.034654
668,-0.037902,-0.019388,0.27976,0.062139,-0.29742,-0.15029,-0.014516
669,-0.080127,-0.1217,0.20278,0.12223,-0.38999,-0.15191,0.0036737
670,-0.11845,-0.20355,0.11086,0.16348,-0.50595,-0.15548,0.014717
671,-0.15516,-0.2474,0.032257,0.17745,-0.63165,-0.15451,0.017316
672,-0.19608,-0.25098,-0.022636,0.1651,-0.74014,-0.14541,0.014068
673,-0.24318,-0.22434,-0.05804,0.13457,-0.78561,-0.12885,0.0072465
674,-0.28995,-0.18764,-0.087597,0.099817,-0.72714,-0.10968,-0.0021729
675,-0.3286,-0.16295,-0.12008,0.074157,-0.5537,-0.09117,-0.016789
676,-0.35264,-0.16425,-0.1597,0.067011,-0.29645,-0.072006,-0.031406
677,-0.36044,-0.18991,-0.19608,0.081627,-0.012892,-0.053168,-0.0405
678,-0.35264,-0.22402,-0.21232,0.10339,0.23948,-0.034329,-0.042449
679,-0.33672,-0.24968,-0.19089,0.12093,0.43177,-0.013866,-0.0405
680,-0.31724,-0.25877,-0.12852,0.11931,0.55747,0.0088706,-0.037902
681,-0.29417,-0.25292,-0.034329,0.09397,0.61074,0.032582,-0.031406
682,-0.27079,-0.23603,0.070584,0.048172,0.58703,0.05272,-0.023285
683,-0.24805,-0.2172,0.16121,-0.0076946,0.49608,0.067336,-0.012242
684,-0.22272,-0.20225,0.21675,-0.061288,0.35804,0.081627,-0.0034721
685,-0.18959,-0.19251,0.23786,-0.10741,0.20083,0.096569,0.00010078
686,-0.15158,-0.18536,0.24273,-0.13957,0.062789,0.11508,0.00075039
687,-0.11456,-0.17302,0.25507,-0.14216,-0.0034721,0.13749,0.0033489
688,-0.080127,-0.14899,0.2908,-0.09929,0.05207,0.1651,0.011144
689,-0.051868,-0.12333,0.33595,-0.019063,0.22292,0.19044,0.017316
690,-0.034004,-0.11066,0.35674,0.06084,0.43209,0.20311,0.012768
691,-0.030431,-0.12235,0.32783,0.10209,0.57663,0.19888,-0.00022403
692,-0.043748,-0.15418,0.24078,0.099492,0.59872,0.18297,-0.01484
693,-0.071032,-0.19836,0.10826,0.06961,0.51005,0.1677,-0.025234
694,-0.10286,-0.24253,-0.040175,0.039402,0.36616,0.1625,-0.027833
695,-0.1308,-0.27923,-0.17075,0.028034,0.22454,0.16315,-0.023935
696,-0.15093,-0.30392,-0.25942,0.045574,0.10177,0.15568,-0.021012
697,-0.1623,-0.31886,-0.2984,0.089423,-0.020362,0.1271,-0.022961
698,-0.16523,-0.32666,-0.2932,0.14691,-0.14054,0.080328,-0.027833
699,-0.16003,-0.33055,-0.26462,0.19921,-0.22597,0.026735,-0.03238
700,-0.15029,-0.32893,-0.23441,0.22714,-0.22921,-0.027508,-0.032055
701,-0.13892,-0.32113,-0.21265,0.21545,-0.1204,-0.072656,-0.030431
702,-0.12625,-0.31496,-0.20225,0.16478,0.0852,-0.10254,-0.025234
703,-0.11228,-0.31854,-0.19576,0.090722,0.31516,-0.12073,-0.018088
704,-0.097666,-0.33737,-0.18536,0.021863,0.46945,-0.13242,-0.0096434
705,-0.085324,-0.3731,-0.1662,-0.026209,0.4571,-0.13859,-0.0028225
706,-0.072331,-0.41565,-0.13632,-0.05804,0.27456,-0.13469,0.0020496
707,-0.059014,-0.44943,-0.094418,-0.073306,0.020564,-0.11715,0.01017
708,-0.052518,-0.45918,-0.042124,-0.071357,-0.1649,-0.094418,0.021538
709,-0.060963,-0.43157,0.01829,-0.056741,-0.19998,-0.075904,0.034206
710,-0.076554,-0.36238,0.088448,-0.038876,-0.10871,-0.067459,0.043625
711,-0.089221,-0.25942,0.169,-0.022961,0.013093,-0.071032,0.049147
712,-0.086298,-0.13924,0.2528,-0.013216,0.072858,-0.0837,0.050121
713,-0.064536,-0.03303,0.31679,-0.010943,0.032906,-0.096692,0.050771
714,-0.03303,0.033881,0.3418,-0.010618,-0.070382,-0.10286,0.054019
715,-0.010293,0.048172,0.32004,-0.0021729,-0.15581,-0.098965,0.059541
716,-0.0083442,0.016016,0.25995,0.015692,-0.14281,-0.089546,0.065387
717,-0.024909,-0.036602,0.17842,0.037129,0.0036737,-0.082076,0.065712
718,-0.044073,-0.077853,0.096893,0.05207,0.25183,-0.077528,0.062464
719,-0.048945,-0.079477,0.033231,0.056617,0.52791,-0.075904,0.056292
720,-0.026533,-0.019388,-0.0018481,0.050771,0.75463,-0.074605,0.049147
721,0.026735,0.10794,-0.0047713,0.039727,0.86409,-0.069408,0.046223
722,0.10047,0.28561,0.020239,0.02706,0.8092,-0.061613,0.05142
723,0.17452,0.46523,0.057917,0.016341,0.56884,-0.052193,0.059216
724,0.22747,0.59677,0.087799,0.0078962,0.16673,-0.043423,0.061489
725,0.24468,0.64614,0.091047,0.0020496,-0.30814,-0.037577,0.056292
726,0.22487,0.61041,0.057917,-0.0015233,-0.72,-0.037252,0.044599
727,0.18557,0.5159,-0.0063954,-0.0021729,-0.95061,-0.044073,0.03453
728,0.14919,0.40319,-0.080127,0.00075039,-0.94476,-0.052518,0.03518
729,0.13002,0.31062,-0.13404,0.011144,-0.73137,-0.055441,0.046223
730,0.131,0.25832,-0.15711,0.02706,-0.41598,-0.047321,0.062464
731,0.14626,0.24436,-0.15126,0.045574,-0.13632,-0.023935,0.081627
732,0.16056,0.25215,-0.12917,0.053694,-0.0015233,0.0075714,0.098842
733,0.16056,0.26092,-0.11131,0.043625,-0.04862,0.036804,0.11086
734,0.14204,0.25507,-0.10741,0.016016,-0.21914,0.055643,0.11638
735,0.11378,0.23136,-0.11651,-0.017764,-0.39681,0.057592,0.11508
736,0.082927,0.19206,-0.1269,-0.041799,-0.47964,0.044599,0.10534
737,0.05142,0.13847,-0.12885,-0.040825,-0.43352,0.025111,0.089098
738,0.018615,0.076106,-0.12138,-0.010293,-0.28346,0.01017,0.073507
739,-0.012567,0.012119,-0.10416,0.034855,-0.093119,0.00042559,0.062139
740,-0.034978,-0.038876,-0.081426,0.067336,0.061814,-0.0047713,0.054993
741,-0.041799,-0.068109,-0.060313,0.079354,0.1336,-0.0060706,0.048822
742,-0.029782,-0.068109,-0.041799,0.086824,0.11054,-0.0054209,0.045574
743,0.0033489,-0.0405,-0.021661,0.12353,0.016016,-0.00054884,0.044599
744,0.05207,0.0091954,0.010819,0.2187,-0.10026,0.0069217,0.046548
745,0.10306,0.072208,0.055318,0.36389,-0.18439,0.012443,0.048172
746,0.14496,0.13002,0.098193,0.49868,-0.20518,0.0088706,0.045899
747,0.17192,0.1677,0.12125,0.55227,-0.1688,-0.0067202,0.037778
748,0.18394,0.17874,0.11151,0.49478,-0.11488,-0.029457,0.019264
749,0.18199,0.16315,0.06961,0.35122,-0.098965,-0.052518,-0.0060706
750,0.1664,0.1349,0.014068,0.17517,-0.15418,-0.068434,-0.030756
751,0.14172,0.11021,-0.027833,0.023487,-0.25975,-0.075904,-0.042774
752,0.11606,0.10242,-0.039201,-0.061613,-0.36109,-0.071032,-0.040825
753,0.098193,0.10794,-0.018413,-0.066485,-0.39616,-0.058689,-0.031406
754,0.086175,0.11508,0.026735,-0.013216,-0.33965,-0.048296,-0.021986
755,0.076431,0.11606,0.082927,0.065712,-0.20843,-0.042774,-0.013216
756,0.064737,0.10631,0.13879,0.14042,-0.04927,-0.038876,-0.00054884
757,0.050446,0.082602,0.18329,0.19953,0.086175,-0.03173,0.013418
758,0.033556,0.047523,0.20765,0.23883,0.1625,-0.020037,0.022512
759,0.015692,0.013418,0.21025,0.258,0.1716,-0.0080194,0.023812
760,0.0043233,-0.0024977,0.20311,0.2606,0.13977,0.0017248,0.015692
761,0.010819,0.0046481,0.19726,0.24695,0.095919,0.008221,0.0056225
762,0.046223,0.03453,0.19856,0.21577,0.065062,0.017965,-0.0018481
763,0.10826,0.079354,0.20668,0.16445,0.053694,0.038103,-0.00054884
764,0.18297,0.12905,0.22454,0.10014,0.059216,0.063763,0.0078962
765,0.24923,0.1742,0.24923,0.020888,0.073832,0.088124,0.019589
766,0.29145,0.20278,0.27034,-0.069733,0.089098,0.10534,0.029658
767,0.30347,0.2083,0.27554,-0.16165,0.10631,0.11411,0.03453
768,0.28983,0.19011,0.258,-0.23279,0.13035,0.11606,0.030957
769,0.26482,0.15601,0.2187,-0.27111,0.16575,0.11931,0.016991
770,0.23883,0.12125,0.16673,-0.27371,0.20311,0.12775,-0.0041217
771,0.21317,0.097218,0.11281,-0.24318,0.23201,0.14561,-0.025234
772,0.18134,0.074482,0.065062,-0.18796,0.24078,0.16803,-0.036927
773,0.14659,0.034206,0.02641,-0.1269,0.23039,0.18622,-0.036927
774,0.11638,-0.021986,-0.0037969,-0.07428,0.21902,0.19174,-0.028157
775,0.093645,-0.073955,-0.025234,-0.039851,0.23559,0.18492,-0.013866
776,0.072208,-0.095068,-0.037902,-0.022961,0.29405,0.16868,-0.0067202
777,0.04395,-0.070707,-0.043748,-0.018413,0.38662,0.14561,-0.011592
778,0.01017,-0.0076946,-0.042124,-0.024585,0.48796,0.11768,-0.022961
779,-0.022961,0.072858,-0.035953,-0.039201,0.56559,0.090397,-0.032055
780,-0.046347,0.14659,-0.027833,-0.054467,0.60229,0.069934,-0.03303
781,-0.05804,0.19434,-0.020037,-0.06681,0.5932,0.061489,-0.022636
782,-0.056416,0.20863,-0.016789,-0.069733,0.53636,0.069285,-0.0037969
783,-0.042124,0.19174,-0.020687,-0.060638,0.41715,0.087149,0.01894
784,-0.016789,0.15796,-0.032055,-0.043748,0.24273,0.10177,0.040377
785,0.0049729,0.11638,-0.047971,-0.024909,0.041676,0.10177,0.057592
786,0.014068,0.065387,-0.06551,-0.0076946,-0.14801,0.084226,0.06831
787,0.0072465,0.003024,-0.077528,0.0072465,-0.30392,0.053694,0.074482
788,-0.0093186,-0.066485,-0.078503,0.019914,-0.4228,0.018615,0.074806
789,-0.028482,-0.13177,-0.072981,0.029658,-0.49068,-0.012892,0.071558
790,-0.045047,-0.17594,-0.06616,0.031932,-0.50303,-0.035953,0.065062
791,-0.061613,-0.19186,-0.061937,0.028034,-0.48711,-0.051544,0.057267
792,-0.084349,-0.18407,-0.059664,0.016991,-0.47444,-0.062587,0.048822
793,-0.11943,-0.1649,-0.065835,-0.0031473,-0.47607,-0.075255,0.038753
794,-0.16328,-0.15158,-0.08305,-0.027833,-0.48094,-0.094743,0.025761
795,-0.2081,-0.15646,-0.10319,-0.042774,-0.46827,-0.11683,0.015367
796,-0.24383,-0.17887,-0.11715,-0.043423,-0.41923,-0.13404,0.013418
797,-0.26722,-0.2055,-0.12495,-0.036278,-0.32276,-0.14152,0.019264
798,-0.27599,-0.22109,-0.1269,-0.036278,-0.17887,-0.13469,0.028684
799,-0.26332,-0.22012,-0.12365,-0.04992,-0.0021729,-0.11748,0.036479
800,-0.23084,-0.19381,-0.10741,-0.07428,0.19434,-0.098316,0.041351
801,-0.18569,-0.13242,-0.069083,-0.10286,0.3876,-0.085324,0.040702
802,-0.13989,-0.034004,-0.0093186,-0.12495,0.54545,-0.075255,0.037454
803,-0.09994,0.093321,0.061165,-0.13469,0.63283,-0.063237,0.03453
804,-0.058689,0.23266,0.12775,-0.13112,0.64127,-0.048296,0.034855
805,-0.01484,0.36324,0.17777,-0.12008,0.58475,-0.03303,0.038103
806,0.029333,0.46035,0.20213,-0.10384,0.48991,-0.024585,0.042326
807,0.065387,0.50095,0.19888,-0.069408,0.38078,-0.024909,0.047523
808,0.079679,0.47399,0.18134,0.003024,0.28236,-0.037902,0.055968
809,0.066362,0.3837,0.16315,0.11541,0.21447,-0.05804,0.063763
810,0.031607,0.25085,0.15146,0.23656,0.18946,-0.079152,0.067661
811,-0.0054209,0.11573,0.14432,0.31971,0.18849,-0.094743,0.066037
812,-0.02361,0.016016,0.13197,0.33108,0.16835,-0.10286,0.061165
813,-0.0080194,-0.023935,0.11151,0.26579,0.10014,-0.10384,0.057267
814,0.045574,-0.0099683,0.087149,0.15179,-0.0076946,-0.097991,0.06019
815,0.1271,0.034855,0.06896,0.036804,-0.11586,-0.079477,0.073182
816,0.21902,0.082277,0.058241,-0.039526,-0.18504,-0.037577,0.093321
817,0.3012,0.11281,0.053694,-0.063886,-0.20063,0.032257,0.11313
818,0.36129,0.11573,0.054344,-0.038227,-0.16815,0.12678,0.1271
819,0.39279,0.10144,0.058241,0.016666,-0.098641,0.23299,0.13067
820,0.39409,0.090072,0.061165,0.07708,-0.0050961,0.33238,0.12807
821,0.37006,0.095919,0.06019,0.12743,0.11054,0.40871,0.12288
822,0.32783,0.11768,0.056942,0.16965,0.24306,0.45061,0.11443
823,0.27521,0.14042,0.050446,0.20181,0.37363,0.45288,0.097218
824,0.21837,0.14984,0.038753,0.21805,0.45873,0.41975,0.06961
825,0.16023,0.13847,0.019914,0.21415,0.45191,0.36486,0.031932
826,0.10112,0.11086,-0.0041217,0.19466,0.34375,0.30217,-0.0080194
827,0.046223,0.073507,-0.029782,0.16835,0.18102,0.2463,-0.045047
828,0.0026992,0.02706,-0.052518,0.14594,0.038103,0.2044,-0.075579
829,-0.030431,-0.017764,-0.069083,0.1297,-0.03238,0.17777,-0.10059
830,-0.05804,-0.051219,-0.083375,0.11573,-0.035628,0.16088,-0.11456
831,-0.086948,-0.068109,-0.09994,0.10242,-0.0099683,0.14724,-0.11878
832,-0.11586,-0.076554,-0.11715,0.087474,0.014392,0.1323,-0.11196
833,-0.13664,-0.082725,-0.1269,0.06896,0.023487,0.11508,-0.097666
834,-0.14574,-0.087272,-0.12463,0.041676,0.013743,0.10339,-0.083375
835,-0.14476,-0.087597,-0.11228,0.0052977,-0.0060706,0.10209,-0.072006
836,-0.13437,-0.082725,-0.093444,-0.030106,-0.02426,0.10631,-0.061613
837,-0.11715,-0.073306,-0.076879,-0.045697,-0.034329,0.10534,-0.047321
838,-0.094418,-0.064861,-0.075904,-0.024585,-0.035303,0.092021,-0.030431
839,-0.068434,-0.065186,-0.088896,0.031282,-0.028157,0.066686,-0.014191
840,-0.048945,-0.070382,-0.09994,0.097218,-0.020362,0.034855,-0.0050961
841,-0.035953,-0.077853,-0.094743,0.14204,-0.027508,0.0014,-0.0037969
842,-0.026858,-0.084349,-0.070382,0.14886,-0.053817,-0.027183,-0.0024977
843,-0.018738,-0.08305,-0.03238,0.11476,-0.095068,-0.045047,0.0056225
844,-0.0054209,-0.064211,0.009845,0.049472,-0.14801,-0.047646,0.023162
845,0.014717,-0.024909,0.049147,-0.029132,-0.22304,-0.037902,0.046548
846,0.031282,0.018615,0.076106,-0.10449,-0.33737,-0.029782,0.064088
847,0.030957,0.037778,0.075781,-0.1623,-0.48581,-0.03303,0.069934
848,0.0062721,0.01764,0.048497,-0.18796,-0.62548,-0.052843,0.060515
849,-0.039526,-0.037902,0.0033489,-0.17594,-0.69531,-0.081751,0.041676
850,-0.093769,-0.10838,-0.043423,-0.1282,-0.65861,-0.10936,0.024137
851,-0.14184,-0.17107,-0.076554,-0.061288,-0.52966,-0.12657,0.014717
852,-0.17107,-0.21037,-0.094418,-0.0021729,-0.38057,-0.13664,0.012443
853,-0.17302,-0.22402,-0.10059,0.024786,-0.2997,-0.14281,0.014068
854,-0.14769,-0.21849,-0.098316,0.0049729,-0.33672,-0.14281,0.018615
855,-0.10416,-0.19868,-0.087272,-0.051868,-0.49166,-0.13404,0.025436
856,-0.061613,-0.16912,-0.065835,-0.11488,-0.72,-0.1178,0.03453
857,-0.037252,-0.13502,-0.030431,-0.15841,-0.98894,-0.098316,0.042326
858,-0.037902,-0.093769,0.019589,-0.17724,-1.2829,-0.085648,0.046223
859,-0.05804,-0.039201,0.088124,-0.18049,-1.5554,-0.087272,0.048497
860,-0.080451,0.034206,0.16965,-0.17042,-1.7116,-0.10384,0.049472
861,-0.091495,0.12385,0.24501,-0.14054,-1.6577,-0.13047,0.05272
862,-0.083375,0.21805,0.29243,-0.093119,-1.3543,-0.15905,0.056617
863,-0.061937,0.29015,0.30347,-0.03303,-0.85025,-0.18634,0.052395
864,-0.035953,0.32198,0.28431,0.031607,-0.23798,-0.20972,0.041351
865,-0.014516,0.31062,0.24728,0.086824,0.3824,-0.22499,0.025436
866,-0.0041217,0.26027,0.19791,0.12288,0.9349,-0.23246,0.010819
867,-0.0024977,0.17062,0.14009,0.13392,1.3565,-0.23441,-0.0018481
868,-0.016464,0.055643,0.077405,0.11963,1.5991,-0.23441,-0.012567
869,-0.044398,-0.065835,0.020564,0.083251,1.654,-0.23441,-0.022961
870,-0.082076,-0.1727,-0.026858,0.029009,1.5576,-0.23376,-0.031081
871,-0.12333,-0.25,-0.068434,-0.030756,1.3675,-0.23116,-0.031081
872,-0.15256,-0.28898,-0.10676,-0.085648,1.1295,-0.22726,-0.025559
873,-0.15905,-0.28898,-0.14087,-0.11715,0.88293,-0.22272,-0.015165
874,-0.13437,-0.26267,-0.16718,-0.1204,0.65849,-0.21362,-0.0054209
875,-0.076554,-0.22044,-0.18601,-0.092794,0.47984,-0.19901,0.0052977
876,0.0039985,-0.16328,-0.19478,-0.042774,0.35284,-0.17952,0.021213
877,0.091696,-0.089871,-0.19283,0.015367,0.27132,-0.15386,0.041027
878,0.1716,-0.0011985,-0.17627,0.067661,0.21772,-0.12365,0.061165
879,0.23461,0.098193,-0.14087,0.10209,0.18524,-0.093119,0.076106
880,0.27294,0.20311,-0.083375,0.11671,0.17095,-0.070382,0.080653
881,0.28301,0.30802,-0.011592,0.10826,0.16348,-0.059014,0.06961
882,0.26384,0.40481,0.059865,0.081952,0.14821,-0.055766,0.045574
883,0.22584,0.48374,0.11606,0.047847,0.12353,-0.051219,0.016666
884,0.18069,0.52434,0.15601,0.021538,0.10404,-0.040825,-0.0063954
885,0.14074,0.51135,0.18199,0.015042,0.11118,-0.020362,-0.016464
886,0.11703,0.45613,0.2057,0.032582,0.16023,0.0062721,-0.010943
887,0.11736,0.39149,0.23429,0.070584,0.23331,0.040052,0.0065969
888,0.14399,0.34992,0.26579,0.11638,0.28528,0.076106,0.02706
889,0.19466,0.34764,0.29145,0.15146,0.27944,0.10924,0.041351
890,0.2528,0.38207,0.2934,0.16673,0.21642,0.13587,0.046873
891,0.29697,0.43404,0.26027,0.15763,0.12775,0.15568,0.05142
892,0.30542,0.47692,0.19239,0.12548,0.051745,0.1703,0.055643
893,0.27002,0.48894,0.10047,0.081627,0.011469,0.18199,0.058241
894,0.19304,0.45126,0.00075039,0.042001,0.0052977,0.19239,0.055643
895,0.095919,0.35674,-0.092145,0.015692,0.0075714,0.2057,0.049796
896,0.0033489,0.2135,-0.16068,0.0062721,-0.020362,0.22324,0.042651
897,-0.065186,0.047523,-0.18569,0.01017,-0.10189,0.24111,0.04395
898,-0.09994,-0.11001,-0.16523,0.022837,-0.23603,0.25475,0.054993
899,-0.11228,-0.24026,-0.11033,0.042651,-0.39357,0.26319,0.073832
900,-0.11683,-0.33867,-0.050894,0.064088,-0.52446,0.26319,0.09462
901,-0.12105,-0.40981,-0.0093186,0.080003,-0.58553,0.2528,0.10729
902,-0.12203,-0.44813,0.0091954,0.089098,-0.56117,0.22389,0.10631
903,-0.10416,-0.44326,0.011144,0.086824,-0.48386,0.1742,0.093321
904,-0.054467,-0.39032,0.0069217,0.076431,-0.41143,0.10501,0.074157
905,0.028034,-0.2945,0.0062721,0.067986,-0.3796,0.031282,0.052395
906,0.13522,-0.17822,0.016666,0.067336,-0.3731,-0.03238,0.031282
907,0.23656,-0.070058,0.029333,0.074806,-0.3416,-0.077528,0.010819
908,0.30315,0.0065969,0.039078,0.081627,-0.2461,-0.097341,-0.0073698
909,0.32361,0.049472,0.042975,0.085525,-0.10091,-0.094093,-0.021986
910,0.31289,0.066037,0.042651,0.081303,0.031282,-0.079477,-0.03238
911,0.29178,0.066686,0.042001,0.067986,0.081952,-0.064211,-0.035303
912,0.26807,0.056292,0.040052,0.050771,0.037454,-0.053817,-0.030756
913,0.23916,0.037454,0.039402,0.036804,-0.040175,-0.047321,-0.023935
914,0.19856,0.012119,0.03518,0.031607,-0.05804,-0.044723,-0.019388
915,0.14561,-0.016789,0.026735,0.032582,0.027709,-0.042449,-0.016789
916,0.083576,-0.047646,0.011144,0.03583,0.1664,-0.034978,-0.020037
917,0.016016,-0.084349,-0.0054209,0.041027,0.27132,-0.017114,-0.027508
918,-0.044723,-0.12138,-0.013216,0.046548,0.31289,0.010819,-0.037577
919,-0.085324,-0.15288,-0.0047713,0.053369,0.37006,0.046873,-0.0405
920,-0.092469,-0.17562,0.016341,0.054019,0.5513,0.086175,-0.031081
921,-0.071682,-0.18796,0.044599,0.049472,0.86506,0.12613,-0.0057458
922,-0.040825,-0.18894,0.074806,0.049147,1.2051,0.16608,0.029333
923,-0.018088,-0.17594,0.10242,0.063438,1.4429,0.20343,0.061165
924,-0.011267,-0.15093,0.1219,0.096244,1.4971,0.23169,0.075781
925,-0.025234,-0.11878,0.12775,0.14594,1.3705,0.24988,0.073182
926,-0.059989,-0.090845,0.1232,0.19596,1.1259,0.26255,0.061489
927,-0.10741,-0.069083,0.10989,0.20928,0.81797,0.27716,0.047523
928,-0.15223,-0.054142,0.087474,0.17062,0.47497,0.2934,0.034206
929,-0.18179,-0.044073,0.059541,0.10177,0.13035,0.31062,0.024461
930,-0.19446,-0.039526,0.032257,0.049147,-0.1701,0.32686,0.027385
931,-0.19381,-0.044723,0.013418,0.038753,-0.38642,0.33595,0.037129
932,-0.18017,-0.059014,0.0069217,0.057917,-0.50757,0.33465,0.047523
933,-0.14931,-0.069408,0.010819,0.081303,-0.5407,0.31841,0.053369
934,-0.099615,-0.064211,0.024786,0.091047,-0.5118,0.28171,0.052395
935,-0.041799,-0.046996,0.036804,0.082277,-0.4543,0.22389,0.042975
936,0.0023744,-0.024585,0.033556,0.054019,-0.40104,0.14821,0.029333
937,0.019589,-0.0089938,0.0088706,0.012768,-0.38707,0.066686,0.015692
938,0.009845,-0.0083442,-0.028482,-0.028157,-0.45755,-0.0044465,0.0046481
939,-0.013541,-0.02361,-0.065186,-0.055766,-0.62905,-0.053817,-0.0031473
940,-0.043748,-0.051544,-0.089546,-0.06551,-0.87201,-0.080776,-0.007045
941,-0.073306,-0.088247,-0.10059,-0.066485,-1.1153,-0.092145,-0.0080194
942,-0.097991,-0.1295,-0.10124,-0.073306,-1.2692,-0.095717,-0.0067202
943,-0.11553,-0.16782,-0.097666,-0.088572,-1.265,-0.098641,-0.0031473
944,-0.12722,-0.19251,-0.098641,-0.10774,-1.0922,-0.10903,0.0033489
945,-0.13729,-0.19413,-0.10449,-0.11586,-0.79958,-0.12495,0.012119
946,-0.14444,-0.1727,-0.10709,-0.10319,-0.46632,-0.14281,0.016991
947,-0.14281,-0.12755,-0.098965,-0.069083,-0.1623,-0.15288,0.017316
948,-0.12722,-0.063561,-0.07428,-0.032055,0.079354,-0.14801,0.014068
949,-0.097017,0.0039985,-0.039526,-0.0089938,0.26384,-0.12982,0.010819
950,-0.062912,0.056292,-0.0080194,-0.00054884,0.40189,-0.10189,0.0085458
951,-0.035303,0.076431,0.0026992,0.00042559,0.49381,-0.072006,0.0069217
952,-0.019388,0.064737,-0.01614,-0.0050961,0.50258,-0.044398,0.0014
953,-0.014516,0.037129,-0.052843,-0.012567,0.38825,-0.02426,-0.008669
954,-0.013216,0.021213,-0.093119,-0.017764,0.16348,-0.017764,-0.018088
955,-0.011592,0.037454,-0.1178,-0.02361,-0.091495,-0.027833,-0.024909
956,-0.0093186,0.091047,-0.12138,-0.029782,-0.27241,-0.047646,-0.029132
957,-0.010293,0.1625,-0.10676,-0.037577,-0.30684,-0.064861,-0.035303
958,-0.017439,0.2174,-0.081101,-0.046347,-0.19251,-0.072981,-0.045697
959,-0.029132,0.23136,-0.053817,-0.049595,0.029009,-0.075579,-0.064536
960,-0.039201,0.20343,-0.03303,-0.039526,0.28723,-0.079152,-0.089546
961,-0.043423,0.16088,-0.021012,-0.0096434,0.51914,-0.083375,-0.11131
962,-0.032055,0.14074,-0.014191,0.038753,0.6783,-0.08305,-0.11748
963,0.0049729,0.1703,-0.0011985,0.094945,0.73352,-0.068758,-0.097341
964,0.074806,0.25832,0.027709,0.14691,0.68544,-0.039526,-0.056091
965,0.16153,0.38045,0.079679,0.18329,0.57923,-0.0015233,-0.0041217
966,0.24013,0.48439,0.14789,0.19628,0.48341,0.03518,0.042001
967,0.27424,0.5159,0.21935,0.18199,0.43664,0.058891,0.06961
968,0.24533,0.44963,0.27846,0.14626,0.40968,0.065062,0.073507
969,0.16315,0.30607,0.31094,0.095919,0.32588,0.053044,0.057267
970,0.050771,0.1219,0.30672,0.025436,0.12937,0.027385,0.029658
971,-0.072006,-0.060963,0.26222,-0.065186,-0.14964,-0.0034721,-0.00022403
972,-0.18666,-0.21687,0.18914,-0.1727,-0.40136,-0.033354,-0.020687
973,-0.27241,-0.3325,0.10794,-0.27274,-0.52186,-0.055441,-0.026858
974,-0.31594,-0.40331,0.037129,-0.3325,-0.47932,-0.065186,-0.021661
975,-0.31236,-0.43449,-0.010293,-0.33023,-0.32113,-0.061613,-0.0054209
976,-0.26332,-0.43969,-0.039851,-0.27209,-0.1334,-0.04862,0.013418
977,-0.17919,-0.43124,-0.062912,-0.18179,0.0046481,-0.034329,0.027709
978,-0.069733,-0.41663,-0.085324,-0.089871,0.050771,-0.024585,0.033231
979,0.053044,-0.38545,-0.11131,-0.021986,0.0049729,-0.023285,0.032582
980,0.17647,-0.31951,-0.13794,0.016016,-0.11098,-0.03173,0.029009
981,0.28788,-0.20323,-0.16068,0.039402,-0.2578,-0.047321,0.025111
982,0.38013,-0.041799,-0.17107,0.057267,-0.39779,-0.06616,0.019914
983,0.44346,0.13912,-0.1662,0.075131,-0.50205,-0.08305,0.012119
984,0.47724,0.29957,-0.14834,0.087799,-0.55792,-0.096042,0.0036737
985,0.48341,0.40838,-0.1243,0.096244,-0.56896,-0.10676,-0.0034721
986,0.46035,0.45256,-0.10319,0.10371,-0.5472,-0.11423,-0.010943
987,0.40773,0.42462,-0.084999,0.11248,-0.50497,-0.11651,-0.013866
988,0.334,0.3379,-0.069408,0.11183,-0.4543,-0.11196,-0.0093186
989,0.25832,0.23234,-0.044398,0.098842,-0.40623,-0.10124,0.00042559
990,0.19563,0.15373,0.0014,0.081303,-0.35621,-0.088247,0.0078962
991,0.15373,0.12678,0.072208,0.065062,-0.2854,-0.078827,0.011794
992,0.13197,0.15081,0.15861,0.053694,-0.18407,-0.073306,0.016341
993,0.1219,0.20635,0.23526,0.049472,-0.052518,-0.068109,0.020564
994,0.11281,0.26644,0.27879,0.053044,0.10404,-0.057715,0.02706
995,0.099167,0.31322,0.28301,0.059541,0.27554,-0.043099,0.037454
996,0.078704,0.3418,0.26482,0.064737,0.44834,-0.028157,0.047523
997,0.057917,0.35706,0.2489,0.072533,0.60619,-0.01614,0.053694
998,0.039078,0.36551,0.2489,0.08585,0.73027,-0.0054209,0.055318
999,0.022512,0.37233,0.25962,0.10956,0.80627,0.0065969,0.054344
1000,0.0095202,0.37493,0.26644,0.13522,0.82868,0.020239,0.053044
1001,0.00010078,0.3733,0.258,0.15796,0.7988,0.039402,0.054668
1002,-0.0083442,0.36161,0.23851,0.17225,0.72572,0.059216,0.062464
1003,-0.011917,0.33693,0.21837,0.17582,0.62113,0.078055,0.075781
1004,-0.0080194,0.30282,0.20603,0.1677,0.47464,0.091696,0.088773
1005,0.0017248,0.25702,0.20376,0.15211,0.27229,0.092996,0.094295
1006,0.0072465,0.20863,0.21025,0.14237,0.028684,0.082927,0.089423
1007,0.0010752,0.16933,0.22194,0.14659,-0.19771,0.064413,0.073832
1008,-0.015815,0.14107,0.23169,0.15666,-0.33737,0.038428,0.052395
1009,-0.037577,0.12223,0.23201,0.16088,-0.35296,0.009845,0.030633
1010,-0.057065,0.10989,0.2187,0.15081,-0.25552,-0.01549,0.013743
1011,-0.068109,0.099492,0.19401,0.12645,-0.10481,-0.032055,0.0059473
1012,-0.072656,0.083901,0.16348,0.10079,0.038103,-0.038551,0.0065969
1013,-0.076554,0.056292,0.13295,0.090722,0.16218,-0.035628,0.013093
1014,-0.084674,0.020564,0.11021,0.10404,0.2947,-0.023935,0.023162
1015,-0.095393,-0.018413,0.10047,0.13912,0.44606,-0.00087364,0.037454
1016,-0.10936,-0.050894,0.099817,0.17582,0.56299,0.026735,0.05272
1017,-0.12203,-0.072981,0.098842,0.18849,0.57339,0.05142,0.063763
1018,-0.12527,-0.087922,0.086824,0.16575,0.44639,0.067986,0.066362
1019,-0.11033,-0.10286,0.059541,0.11378,0.24241,0.073832,0.065712
1020,-0.076229,-0.11715,0.017316,0.048497,0.084226,0.074482,0.064413
1021,-0.029782,-0.12495,-0.034978,-0.012567,0.086175,0.081303,0.067661
1022,0.023812,-0.12105,-0.086948,-0.043099,0.27846,0.10534,0.076755
1023,0.075456,-0.10189,-0.1334,-0.025559,0.60457,0.14854,0.091696
1024,0.11638,-0.068109,-0.16912,0.038428,0.94107,0.19628,0.10761
1025,0.13912,-0.029132,-0.19121,0.1271,1.1463,0.22812,0.11995
1026,0.14529,0.0088706,-0.20225,0.20408,1.1386,0.23039,0.1219
1027,0.13749,0.037129,-0.20225,0.24111,0.93977,0.19791,0.11183
1028,0.11703,0.047523,-0.19154,0.23364,0.63413,0.13392,0.091696
1029,0.094295,0.035505,-0.17497,0.19141,0.28821,0.053044,0.071234
1030,0.073182,0.0072465,-0.15646,0.13197,-0.059664,-0.02361,0.061165
1031,0.051745,-0.026858,-0.13957,0.074157,-0.39227,-0.075904,0.06019
1032,0.025111,-0.05804,-0.12463,0.034855,-0.68687,-0.097017,0.061814
1033,-0.0073698,-0.079477,-0.11391,0.01829,-0.91131,-0.088572,0.061489
1034,-0.041799,-0.086623,-0.10709,0.014392,-1.0451,-0.059664,0.058241
1035,-0.068109,-0.077528,-0.11131,0.0095202,-1.0932,-0.024909,0.051745
1036,-0.081101,-0.057065,-0.1295,-0.00087364,-1.0597,0.0065969,0.044275
1037,-0.081101,-0.035303,-0.15841,-0.014516,-0.94184,0.030957,0.039078
1038,-0.070382,-0.017764,-0.18991,-0.031081,-0.74761,0.049796,0.038428
1039,-0.050894,-0.0054209,-0.21265,-0.046671,-0.51732,0.070584,0.040377
1040,-0.029457,0.0017248,-0.22239,-0.056416,-0.31626,0.095919,0.040052
1041,-0.011917,-0.00087364,-0.21752,-0.060313,-0.21135,0.11995,0.037778
1042,-0.0060706,-0.018088,-0.19803,-0.059664,-0.22499,0.13684,0.029983
1043,-0.015815,-0.052518,-0.16945,-0.049595,-0.30912,0.14204,0.020239
1044,-0.037902,-0.10644,-0.14119,-0.033354,-0.37765,0.13847,0.014717
1045,-0.069083,-0.17789,-0.12235,-0.028807,-0.37635,0.13197,0.015367
1046,-0.10189,-0.25942,-0.1191,-0.052518,-0.31009,0.1271,0.024786
1047,-0.123,-0.33445,-0.12885,-0.11001,-0.21752,0.12807,0.041676
1048,-0.12722,-0.38674,-0.14054,-0.19219,-0.13729,0.13555,0.060515
1049,-0.11521,-0.41435,-0.14639,-0.27728,-0.089221,0.14626,0.072858
1050,-0.09182,-0.4202,-0.14476,-0.33478,-0.085648,0.15568,0.075131
1051,-0.062262,-0.41565,-0.13827,-0.33932,-0.12625,0.15568,0.068635
1052,-0.027183,-0.41143,-0.13145,-0.288,-0.19056,0.14269,0.056617
1053,0.013743,-0.40981,-0.12657,-0.20225,-0.2448,0.12125,0.04395
1054,0.054668,-0.39941,-0.11813,-0.11293,-0.25715,0.10079,0.03518
1055,0.082927,-0.36791,-0.10384,-0.035303,-0.2146,0.090072,0.031607
1056,0.087799,-0.31204,-0.081101,0.033231,-0.1282,0.091372,0.030633
1057,0.066686,-0.23798,-0.058689,0.088773,-0.038551,0.096893,0.030308
1058,0.033881,-0.15711,-0.043099,0.11801,0.0069217,0.094945,0.02706
1059,0.0026992,-0.084349,-0.039526,0.10794,-0.012242,0.077405,0.013743
1060,-0.016464,-0.028482,-0.047971,0.058891,-0.075579,0.045574,-0.010293
1061,-0.019712,0.015692,-0.063561,-0.01614,-0.14736,0.01017,-0.03303
1062,-0.0060706,0.065712,-0.075904,-0.092469,-0.19478,-0.018088,-0.042124
1063,0.022837,0.13847,-0.075255,-0.14249,-0.19641,-0.031406,-0.031081
1064,0.064737,0.21902,-0.055441,-0.15223,-0.15029,-0.028482,-0.0050961
1065,0.11833,0.27586,-0.020362,-0.12657,-0.085973,-0.017764,0.025436
1066,0.16998,0.28788,0.014068,-0.089871,-0.050244,-0.0096434,0.047198
1067,0.19661,0.2554,0.032906,-0.070382,-0.078503,-0.015165,0.051096
1068,0.18362,0.20018,0.030957,-0.068109,-0.1688,-0.037252,0.032906
1069,0.13425,0.15438,0.020888,-0.072006,-0.27826,-0.067784,0.003024
1070,0.070259,0.14139,0.018615,-0.06681,-0.34939,-0.095717,-0.031081
1071,0.017316,0.17225,0.031932,-0.051868,-0.34387,-0.10936,-0.061288
1072,-0.0011985,0.23916,0.061489,-0.03173,-0.25942,-0.10514,-0.079152
1073,0.025111,0.32198,0.098193,-0.0060706,-0.11358,-0.085324,-0.0824
1074,0.089423,0.39539,0.13262,0.023162,0.053044,-0.054792,-0.074605
1075,0.1716,0.43794,0.15276,0.047198,0.20148,-0.028157,-0.062262
1076,0.24501,0.43729,0.15341,0.059216,0.31484,-0.013541,-0.050244
1077,0.28885,0.39831,0.14204,0.059865,0.39214,-0.010618,-0.039851
1078,0.2973,0.33823,0.12743,0.053369,0.44704,-0.011592,-0.029132
1079,0.27067,0.27651,0.11898,0.049147,0.48017,-0.011267,-0.018088
1080,0.22162,0.22227,0.12158,0.057917,0.48017,-0.0083442,-0.0073698
1081,0.15991,0.18167,0.13262,0.082927,0.43762,-0.0080194,0.00075039
1082,0.094295,0.15049,0.14951,0.11216,0.35512,-0.013216,0.0014
1083,0.030633,0.11931,0.16835,0.12872,0.24306,-0.025559,-0.0057458
1084,-0.019388,0.084876,0.19823,0.12872,0.12158,-0.041799,-0.017764
1085,-0.048296,0.053044,0.25085,0.11995,0.015692,-0.059989,-0.029782
1086,-0.053168,0.027709,0.32393,0.11151,-0.051219,-0.076879,-0.03303
1087,-0.038551,0.009845,0.40026,0.11671,-0.075904,-0.09117,-0.023285
1088,-0.01484,-0.0057458,0.45646,0.14237,-0.072331,-0.097666,-0.0041217
1089,0.0078962,-0.019388,0.47692,0.17939,-0.060963,-0.10026,0.015042
1090,0.021213,-0.03303,0.45288,0.21058,-0.053168,-0.097666,0.026735
1091,0.021538,-0.046671,0.39442,0.22194,-0.043748,-0.093769,0.030308
1092,0.015692,-0.061288,0.31451,0.20895,-0.015165,-0.088572,0.028034
1093,0.0023744,-0.077528,0.22779,0.18004,0.05207,-0.081101,0.023487
1094,-0.017439,-0.096692,0.14724,0.14172,0.1625,-0.072981,0.021213
1095,-0.045372,-0.11651,0.088773,0.099817,0.29178,-0.065835,0.022188
1096,-0.077203,-0.13275,0.058891,0.058891,0.39767,-0.06551,0.022837
1097,-0.10546,-0.13989,0.054993,0.029009,0.44119,-0.075579,0.024786
1098,-0.1243,-0.13762,0.063763,0.015692,0.41066,-0.090196,0.025761
1099,-0.1321,-0.1295,0.071883,0.01764,0.32751,-0.10611,0.025111
1100,-0.12917,-0.12073,0.07773,0.02641,0.22941,-0.11845,0.01764
1101,-0.12235,-0.11228,0.081952,0.029983,0.15049,-0.12495,0.0020496
1102,-0.11975,-0.10384,0.082927,0.029333,0.10209,-0.1321,-0.01614
1103,-0.13177,-0.095393,0.079679,0.021538,0.084551,-0.14119,-0.027833
1104,-0.161,-0.088896,0.075781,0.0095202,0.087474,-0.14834,-0.032705
1105,-0.20128,-0.088896,0.073507,-0.00054884,0.099167,-0.14541,-0.031406
1106,-0.24578,-0.10286,0.069934,-0.0099683,0.11054,-0.12755,-0.026858
1107,-0.28378,-0.13177,0.059541,-0.020037,0.10599,-0.10026,-0.02361
1108,-0.30814,-0.1727,0.033231,-0.026209,0.071558,-0.072981,-0.025234
1109,-0.31139,-0.21135,-0.0083442,-0.027833,0.0085458,-0.052518,-0.029782
1110,-0.29158,-0.23246,-0.057715,-0.03303,-0.065186,-0.044723,-0.032055
1111,-0.25455,-0.22304,-0.09994,-0.0405,-0.12625,-0.053817,-0.034654
1112,-0.20713,-0.17562,-0.12592,-0.047321,-0.16035,-0.07428,-0.036927
1113,-0.15158,-0.086623,-0.13794,-0.052843,-0.16165,-0.099615,-0.035628
1114,-0.083375,0.031607,-0.13892,-0.062587,-0.1191,-0.11326,-0.026533
1115,-0.0044465,0.1625,-0.13307,-0.07493,-0.025884,-0.10156,-0.010618
1116,0.073507,0.28301,-0.12365,-0.086948,0.10696,-0.064211,0.0072465
1117,0.14139,0.3824,-0.11553,-0.10091,0.24436,-0.012242,0.021538
1118,0.19499,0.4584,-0.11131,-0.11228,0.3392,0.040052,0.033881
1119,0.23331,0.50615,-0.11066,-0.11748,0.35252,0.080978,0.046873
1120,0.25605,0.51362,-0.11391,-0.11586,0.28658,0.10696,0.062139
1121,0.26319,0.47594,-0.11683,-0.10319,0.18329,0.12385,0.078379
1122,0.2554,0.39994,-0.12073,-0.078178,0.097868,0.14269,0.089748
1123,0.23429,0.30477,-0.11813,-0.047321,0.065712,0.16835,0.097868
1124,0.20993,0.21772,-0.10579,-0.01614,0.066037,0.19596,0.10664
1125,0.19466,0.15828,-0.08305,0.016666,0.031607,0.21967,0.11606
1126,0.19953,0.131,-0.053492,0.067011,-0.11423,0.23624,0.12418
1127,0.22259,0.12775,-0.016789,0.14464,-0.39032,0.24306,0.1284
1128,0.2515,0.1297,0.023162,0.23494,-0.73656,0.23948,0.12288
1129,0.26579,0.11151,0.057917,0.31062,-1.0403,0.22617,0.10566
1130,0.24501,0.055318,0.07708,0.34927,-1.1624,0.2122,0.084551
1131,0.18557,-0.035303,0.079354,0.34602,-0.98601,0.20278,0.070909
1132,0.099492,-0.13372,0.072208,0.3051,-0.48289,0.19888,0.065387
1133,0.0033489,-0.20908,0.063438,0.23461,0.22941,0.19856,0.066037
1134,-0.090521,-0.2461,0.054344,0.14691,0.91411,0.19466,0.065387
1135,-0.17335,-0.25033,0.047198,0.056292,1.3532,0.18849,0.06084
1136,-0.23863,-0.23051,0.044924,-0.022961,1.4565,0.18167,0.05272
1137,-0.27209,-0.20128,0.05142,-0.077528,1.2594,0.1781,0.048822
1138,-0.26592,-0.17497,0.066037,-0.09929,0.88,0.18102,0.053694
1139,-0.21882,-0.15548,0.081627,-0.089871,0.46393,0.18784,0.069285
1140,-0.13404,-0.13502,0.088773,-0.059664,0.1232,0.19596,0.087149
1141,-0.021012,-0.096367,0.083901,-0.020037,-0.09182,0.19888,0.10079
1142,0.10859,-0.025559,0.067011,0.022188,-0.17724,0.18881,0.10696
1143,0.23883,0.081303,0.042326,0.061814,-0.15191,0.1651,0.10534
1144,0.35739,0.22357,0.021213,0.094945,-0.055441,0.1323,0.096569
1145,0.45483,0.38337,0.015692,0.12158,0.064088,0.095269,0.082277
1146,0.52531,0.53733,0.033881,0.13847,0.16185,0.060515,0.069285
1147,0.56364,0.66076,0.078055,0.14626,0.2148,0.03518,0.06019
1148,0.56202,0.71987,0.13457,0.14107,0.22877,0.021538,0.051745
1149,0.51525,0.69356,0.18557,0.12515,0.22194,0.014717,0.037129
1150,0.42852,0.59255,0.22065,0.10631,0.21382,0.0085458,0.017965
1151,0.31776,0.44769,0.22552,0.088448,0.2096,-0.00087364,-0.007045
1152,0.20213,0.29438,0.19661,0.072533,0.20505,-0.017114,-0.034004
1153,0.096244,0.15763,0.14367,0.057267,0.19791,-0.04115,-0.052843
1154,0.01017,0.048497,0.083901,0.041027,0.19758,-0.066485,-0.056416
1155,-0.055766,-0.034329,0.034206,0.024786,0.22617,-0.081751,-0.050894
1156,-0.11196,-0.098316,-0.00054884,0.013743,0.28788,-0.0837,-0.044723
1157,-0.16685,-0.15029,-0.014516,0.013743,0.37428,-0.076229,-0.039526
1158,-0.22077,-0.18894,-0.0067202,0.02706,0.47172,-0.061937,-0.034978
1159,-0.27306,-0.21362,0.015042,0.048497,0.56397,-0.043423,-0.028807
1160,-0.31821,-0.23214,0.03518,0.064088,0.62763,-0.030756,-0.020037
1161,-0.34874,-0.25098,0.041351,0.063763,0.63867,-0.03303,-0.013216
1162,-0.35816,-0.27209,0.02706,0.046223,0.58346,-0.054467,-0.011592
1163,-0.34712,-0.29677,-0.008669,0.013093,0.46815,-0.084674,-0.015165
1164,-0.31139,-0.31918,-0.056091,-0.027508,0.30704,-0.11001,-0.025559
1165,-0.24286,-0.32341,-0.10611,-0.065835,0.10729,-0.12333,-0.030756
1166,-0.14444,-0.2919,-0.14801,-0.095393,-0.12592,-0.12657,-0.021012
1167,-0.028157,-0.21622,-0.17854,-0.11293,-0.38025,-0.12268,0.003024
1168,0.080003,-0.10319,-0.19836,-0.11488,-0.62613,-0.11228,0.026735
1169,0.15991,0.023812,-0.2055,-0.10449,-0.8418,-0.095068,0.037454
1170,0.20376,0.13587,-0.19966,-0.090196,-1.0253,-0.070382,0.029658
1171,0.21285,0.2057,-0.18861,-0.075904,-1.2036,-0.041475,0.0088706
1172,0.19726,0.22909,-0.18212,-0.06551,-1.4063,-0.017764,-0.014191
1173,0.1651,0.21155,-0.18471,-0.061288,-1.6161,-0.007045,-0.031081
1174,0.12125,0.16803,-0.19251,-0.057065,-1.7392,-0.010293,-0.04115
1175,0.070584,0.11151,-0.19673,-0.042449,-1.6655,-0.019388,-0.040175
1176,0.01829,0.056942,-0.19024,-0.015815,-1.3654,-0.024909,-0.028482
1177,-0.026209,0.017316,-0.17042,0.01764,-0.92365,-0.020362,-0.010293
1178,-0.052518,-0.0050961,-0.13859,0.063438,-0.47347,-0.0096434,0.011144
1179,-0.059664,-0.019712,-0.10124,0.11216,-0.13502,0.0033489,0.032906
1180,-0.04992,-0.038876,-0.061613,0.14724,0.034855,0.014392,0.050771
1181,-0.034004,-0.073631,-0.025559,0.15276,0.064413,0.021863,0.063113
1182,-0.021661,-0.12495,0.00075039,0.13132,0.030957,0.025111,0.067986
1183,-0.025884,-0.18147,0.017965,0.097868,0.003024,0.025436,0.069285
1184,-0.050569,-0.22954,0.031282,0.067661,0.0085458,0.021863,0.066686
1185,-0.092145,-0.25617,0.040702,0.04395,0.03518,0.016341,0.059541
1186,-0.14249,-0.25845,0.050446,0.02706,0.054019,0.014392,0.050771
1187,-0.18471,-0.23896,0.061489,0.014068,0.047847,0.017965,0.039402
1188,-0.2068,-0.20583,0.071558,0.0062721,0.022512,0.025111,0.02706
1189,-0.20193,-0.17042,0.078379,0.009845,0.0033489,0.030633,0.01829
1190,-0.17854,-0.13957,0.089423,0.023162,0.0033489,0.029658,0.012768
1191,-0.15029,-0.11196,0.10761,0.037778,0.020564,0.022188,0.01017
1192,-0.12463,-0.082076,0.12775,0.047847,0.047198,0.014392,0.0078962
1193,-0.10091,-0.051868,0.13749,0.05207,0.084226,0.0088706,0.0072465
1194,-0.072656,-0.020037,0.12743,0.05142,0.11963,0.0043233,0.0052977
1195,-0.028807,0.017965,0.092671,0.041351,0.12353,-0.0047713,0.0046481
1196,0.032582,0.070259,0.039727,0.01894,0.079354,-0.021012,0.009845
1197,0.10371,0.13879,-0.017439,-0.011267,0.0020496,-0.047646,0.016341
1198,0.16738,0.21123,-0.065835,-0.036927,-0.071682,-0.081101,0.023162
1199,0.20538,0.26449,-0.10416,-0.053817,-0.10806,-0.11618,0.028684
1200,0.20798,0.27846,-0.1321,-0.065835,-0.093444,-0.14574,0.028684
1201,0.17745,0.24988,-0.14736,-0.073306,-0.024585,-0.16523,0.022188
1202,0.1284,0.19011,-0.14054,-0.075255,0.10664,-0.1753,0.009845
1203,0.076755,0.1271,-0.10514,-0.064861,0.31971,-0.17692,-0.00087364
1204,0.033231,0.089098,-0.038551,-0.032055,0.60911,-0.17497,-0.0067202
1205,0.0014,0.090072,0.042975,0.023162,0.91346,-0.16685,-0.0073698
1206,-0.023285,0.11021,0.11703,0.081627,1.1525,-0.15158,-0.0054209
1207,-0.047971,0.11638,0.1638,0.12093,1.2831,-0.13372,-0.0050961
1208,-0.075904,0.089098,0.18069,0.13165,1.3143,-0.1204,-0.0063954
1209,-0.11001,0.027709,0.18102,0.12223,1.2769,-0.11163,-0.0028225
1210,-0.14769,-0.043748,0.18199,0.10631,1.185,-0.10416,0.008221
1211,-0.18504,-0.097991,0.18946,0.092346,1.0226,-0.095717,0.022188
1212,-0.2107,-0.11845,0.19888,0.082927,0.76827,-0.085648,0.028034
1213,-0.2081,-0.10384,0.2096,0.073182,0.44866,-0.076554,0.025111
1214,-0.16815,-0.059664,0.21707,0.06019,0.14464,-0.069733,0.014717
1215,-0.091495,0.0010752,0.22065,0.048172,-0.054467,-0.066485,0.0072465
1216,0.0062721,0.062139,0.21512,0.040702,-0.11391,-0.065186,0.0078962
1217,0.10144,0.10924,0.19596,0.03453,-0.071357,-0.059664,0.016341
1218,0.1729,0.1349,0.16543,0.03453,-0.0067202,-0.050569,0.027709
1219,0.21285,0.14529,0.12515,0.042975,0.014068,-0.041799,0.031932
1220,0.22812,0.15081,0.078379,0.057917,-0.034329,-0.03303,0.021213
1221,0.22909,0.16218,0.028359,0.065387,-0.13794,-0.021337,-0.0018481
1222,0.22357,0.18069,-0.020687,0.06084,-0.26364,-0.00022403,-0.026209
1223,0.21188,0.20181,-0.063561,0.048172,-0.415,0.035505,-0.042774
1224,0.19369,0.21642,-0.096367,0.038103,-0.6271,0.083901,-0.044398
1225,0.1703,0.21545,-0.11683,0.037129,-0.9321,0.13425,-0.034004
1226,0.15081,0.19758,-0.12885,0.044924,-1.3108,0.16835,-0.017764
1227,0.13684,0.16705,-0.13177,0.058566,-1.674,0.18069,-0.0018481
1228,0.1245,0.13002,-0.12495,0.073182,-1.9,0.17517,0.0091954
1229,0.11054,0.088773,-0.10806,0.082927,-1.8945,0.16478,0.013418
1230,0.094945,0.04395,-0.0837,0.0865,-1.6291,0.16023,0.015367
1231,0.083576,-0.0031473,-0.054467,0.081952,-1.1565,0.16543,0.016341
1232,0.080003,-0.047321,-0.02361,0.067011,-0.59397,0.1781,0.016341
1233,0.080653,-0.077853,0.0078962,0.046873,-0.065186,0.19499,0.017316
1234,0.084876,-0.087272,0.039402,0.029009,0.35609,0.21285,0.020888
1235,0.090397,-0.073955,0.071883,0.024137,0.66368,0.23331,0.031282
1236,0.096893,-0.044723,0.10144,0.039078,0.89722,0.25995,0.05142
1237,0.10079,-0.007045,0.12678,0.078055,1.0827,0.2999,0.075781
1238,0.099817,0.023812,0.14139,0.12937,1.1892,0.35219,0.10306
1239,0.089098,0.034206,0.13912,0.16803,1.159,0.41358,0.12807
1240,0.065712,0.015042,0.11281,0.17745,0.96543,0.47464,0.14529
1241,0.028359,-0.022961,0.066037,0.16445,0.65621,0.52759,0.14984
1242,-0.016789,-0.063886,0.0091954,0.15016,0.32231,0.57014,0.14042
1243,-0.060963,-0.096692,-0.043099,0.14139,0.045899,0.58963,0.12483
1244,-0.096042,-0.1178,-0.077528,0.1323,-0.12203,0.57696,0.11118
1245,-0.11683,-0.13177,-0.088247,0.11736,-0.15483,0.53376,0.10112
1246,-0.1256,-0.14769,-0.080776,0.093321,-0.065835,0.4701,0.095919
1247,-0.12592,-0.1701,-0.068109,0.063763,0.088773,0.39637,0.09462
1248,-0.1269,-0.19511,-0.063561,0.028034,0.23169,0.31679,0.098517
1249,-0.13372,-0.2159,-0.072006,-0.0063954,0.30574,0.23396,0.10729
1250,-0.14509,-0.22856,-0.082725,-0.026533,0.29048,0.14854,0.11378
1251,-0.14996,-0.23084,-0.077203,-0.02426,0.19661,0.065712,0.10989
1252,-0.14249,-0.22174,-0.043099,-0.007045,0.061814,-0.0083442,0.09397
1253,-0.1178,-0.20063,0.019589,0.011144,-0.080776,-0.068758,0.072533
1254,-0.078503,-0.16555,0.10144,0.020564,-0.21167,-0.11196,0.054668
1255,-0.031406,-0.11748,0.18881,0.012768,-0.31366,-0.13762,0.039727
1256,0.013418,-0.056091,0.27034,-0.011917,-0.36336,-0.14671,0.03453
1257,0.053044,0.013093,0.33303,-0.043748,-0.34225,-0.14249,0.039078
1258,0.088773,0.084226,0.36681,-0.06616,-0.26429,-0.1334,0.05142
1259,0.1258,0.14561,0.36648,-0.069083,-0.17172,-0.13015,0.062464
1260,0.15958,0.18134,0.33108,-0.056741,-0.11683,-0.13567,0.067986
1261,0.17842,0.18362,0.26644,-0.04927,-0.12008,-0.15256,0.06084
1262,0.16933,0.15146,0.18784,-0.061288,-0.16393,-0.18017,0.039078
1263,0.13555,0.098517,0.11183,-0.086948,-0.21232,-0.21752,0.0052977
1264,0.090397,0.048497,0.050771,-0.11163,-0.23279,-0.2526,-0.030431
1265,0.054019,0.016666,0.0052977,-0.12203,-0.21037,-0.27664,-0.055116
1266,0.036804,0.0043233,-0.029457,-0.11293,-0.14541,-0.2867,-0.063561
1267,0.037778,0.0020496,-0.062262,-0.088247,-0.046671,-0.28086,-0.056741
1268,0.049796,0.00010078,-0.092794,-0.060638,0.06019,-0.2591,-0.04115
1269,0.062789,-0.0060706,-0.1178,-0.039851,0.14399,-0.22467,-0.025884
1270,0.077405,-0.013216,-0.13502,-0.027508,0.19044,-0.18212,-0.014516
1271,0.095919,-0.010293,-0.14444,-0.017764,0.20213,-0.14281,-0.0037969
1272,0.11801,0.013418,-0.14216,-0.018088,0.19044,-0.11521,0.0036737
1273,0.14302,0.062464,-0.12495,-0.042774,0.16153,-0.10351,0.0069217
1274,0.16348,0.12743,-0.098641,-0.092145,0.12288,-0.10774,0.0078962
1275,0.17485,0.19953,-0.06616,-0.15516,0.081303,-0.12527,0.0049729
1276,0.17745,0.27489,-0.026858,-0.2042,0.042001,-0.15093,0.00010078
1277,0.17127,0.34375,0.016016,-0.21135,0.0091954,-0.17205,-0.0021729
1278,0.15503,0.39182,0.055318,-0.16847,-0.010618,-0.17789,0.0026992
1279,0.13262,0.40741,0.080978,-0.084999,-0.010293,-0.16588,0.012119
1280,0.11216,0.38597,0.084226,0.013093,0.015042,-0.14249,0.023162
1281,0.094295,0.334,0.061814,0.096569,0.066686,-0.1178,0.030308
1282,0.078055,0.26222,0.016341,0.14399,0.15081,-0.099615,0.031282
1283,0.065062,0.18329,-0.044723,0.14984,0.2606,-0.086623,0.026735
1284,0.059541,0.11248,-0.10806,0.1219,0.37363,-0.07428,0.019264
1285,0.063763,0.06831,-0.16263,0.07708,0.44444,-0.059989,0.0095202
1286,0.071883,0.059216,-0.2029,0.024461,0.42495,-0.046671,-0.0015233
1287,0.062139,0.06896,-0.23279,-0.03238,0.30607,-0.046022,-0.017114
1288,0.017316,0.067661,-0.25292,-0.088572,0.12158,-0.061613,-0.039526
1289,-0.059989,0.036804,-0.26592,-0.13047,-0.065835,-0.086298,-0.063886
1290,-0.15191,-0.023285,-0.26884,-0.14184,-0.19543,-0.11066,-0.084349
1291,-0.23441,-0.089221,-0.25195,-0.11228,-0.23538,-0.12268,-0.094093
1292,-0.29093,-0.13794,-0.21037,-0.035953,-0.18796,-0.11715,-0.086298
1293,-0.31399,-0.16003,-0.14736,0.07773,-0.071682,-0.095068,-0.063886
1294,-0.30587,-0.161,-0.069733,0.19921,0.10209,-0.059339,-0.037577
1295,-0.27274,-0.14736,0.0065969,0.28626,0.30445,-0.017114,-0.016464
1296,-0.22304,-0.12657,0.065712,0.3012,0.49901,0.017316,-0.0060706
1297,-0.15808,-0.10546,0.098842,0.24078,0.6731,0.038428,-0.0041217
1298,-0.077853,-0.082725,0.11118,0.14107,0.82641,0.044599,-0.0015233
1299,0.012119,-0.04862,0.11736,0.059541,0.94237,0.040377,0.0026992
1300,0.11054,0.0049729,0.12937,0.029333,0.98849,0.030957,0.010819
1301,0.2057,0.075456,0.15601,0.044924,0.94886,0.022837,0.020239
1302,0.27814,0.15179,0.19271,0.0865,0.84135,0.018615,0.023487
1303,0.31224,0.21642,0.22357,0.13002,0.70298,0.012443,0.016341
1304,0.30282,0.24858,0.23071,0.15958,0.56721,0.00010078,0.0023744
1305,0.2554,0.23364,0.2096,0.17095,0.45028,-0.020687,-0.014191
1306,0.18199,0.17225,0.16478,0.15958,0.347,-0.044073,-0.03238
1307,0.097868,0.07773,0.10599,0.11866,0.24111,-0.064211,-0.048945
1308,0.013743,-0.031081,0.047523,0.053694,0.11703,-0.077203,-0.060963
1309,-0.061613,-0.1334,-0.0054209,-0.018738,-0.035628,-0.08305,-0.065835
1310,-0.11651,-0.212,-0.044398,-0.082725,-0.22044,-0.084999,-0.062912
1311,-0.14022,-0.2552,-0.064536,-0.13437,-0.42345,-0.085973,-0.053817
1312,-0.1334,-0.26429,-0.062912,-0.16977,-0.61833,-0.081101,-0.035303
1313,-0.10676,-0.24838,-0.043099,-0.18244,-0.78301,-0.070058,-0.012242
1314,-0.076554,-0.22109,-0.008669,-0.16782,-0.91001,-0.055441,0.0075714
1315,-0.060963,-0.19641,0.034206,-0.123,-1.0136,-0.04115,0.01894
1316,-0.065186,-0.18309,0.0852,-0.046671,-1.1273,-0.026858,0.021863
1317,-0.08305,-0.17237,0.13977,0.049147,-1.2676,-0.011592,0.020239
1318,-0.097991,-0.14996,0.18849,0.14464,-1.3979,0.0062721,0.022512
1319,-0.087272,-0.10286,0.22519,0.22389,-1.4674,0.024137,0.029333
1320,-0.040175,-0.026533,0.2476,0.27456,-1.4407,0.035505,0.041351
1321,0.031282,0.067011,0.25345,0.29178,-1.3053,0.036479,0.054668
1322,0.10794,0.15276,0.24436,0.28106,-1.0584,0.033231,0.06896
1323,0.17647,0.20895,0.22194,0.25313,-0.71155,0.032582,0.082602
1324,0.22714,0.23494,0.18492,0.22227,-0.29547,0.039727,0.093645
1325,0.25637,0.24468,0.1336,0.19369,0.13847,0.054668,0.096893
1326,0.26709,0.25832,0.06961,0.16965,0.53863,0.073182,0.094945
1327,0.27164,0.28853,0.0043233,0.15698,0.87513,0.093645,0.091372
1328,0.28236,0.32686,-0.051544,0.15536,1.1366,0.11216,0.090072
1329,0.3012,0.35154,-0.086623,0.15731,1.3159,0.1284,0.094295
1330,0.31711,0.34147,-0.10221,0.15926,1.4003,0.13977,0.099492
1331,0.31744,0.29048,-0.10838,0.15244,1.3679,0.14432,0.095919
1332,0.28918,0.20311,-0.1191,0.12613,1.2298,0.14367,0.082602
1333,0.22844,0.096569,-0.13599,0.080653,1.0385,0.13457,0.061489
1334,0.14399,-0.0028225,-0.14899,0.029009,0.8446,0.11866,0.039078
1335,0.047847,-0.067784,-0.14704,-0.011592,0.66758,0.10371,0.020564
1336,-0.043748,-0.085648,-0.1243,-0.030106,0.48894,0.097543,0.009845
1337,-0.12398,-0.062587,-0.077203,-0.028482,0.28561,0.10274,0.0072465
1338,-0.19219,-0.01484,-0.0083442,-0.017114,0.053369,0.11703,0.012443
1339,-0.24545,0.038428,0.06831,-0.0028225,-0.19413,0.13392,0.025111
1340,-0.28281,0.076755,0.13132,0.0085458,-0.42929,0.15016,0.042651
1341,-0.30749,0.081303,0.15958,0.0091954,-0.60989,0.16185,0.057917
1342,-0.31918,0.042651,0.14172,-0.0063954,-0.69304,0.16575,0.067011
1343,-0.31106,-0.028807,0.089423,-0.038551,-0.65861,0.16283,0.065712
1344,-0.27631,-0.10579,0.02706,-0.070707,-0.50692,0.15471,0.062139
1345,-0.21005,-0.15905,-0.02361,-0.087922,-0.26429,0.14464,0.063438
1346,-0.11131,-0.1636,-0.050244,-0.085648,0.036154,0.13522,0.071883
1347,0.010495,-0.10481,-0.051868,-0.064211,0.34342,0.12905,0.080978
1348,0.14074,0.016016,-0.037252,-0.030106,0.58475,0.12483,0.087799
1349,0.2593,0.18037,-0.017764,0.0036737,0.70331,0.12093,0.093645
1350,0.34472,0.34862,-0.0018481,0.021863,0.70071,0.11573,0.097868
1351,0.38142,0.46977,0.0017248,0.013743,0.64809,0.10664,0.094295
1352,0.35934,0.50485,-0.012242,-0.017764,0.62633,0.091696,0.079029
1353,0.28658,0.44671,-0.041475,-0.056741,0.63413,0.073832,0.053369
1354,0.18622,0.31874,-0.075904,-0.088247,0.61594,0.057267,0.024461
1355,0.088448,0.16445,-0.10059,-0.10026,0.52824,0.042001,0.0010752
1356,0.014068,0.028684,-0.10806,-0.084999,0.36453,0.029658,-0.0076946
1357,-0.021337,-0.05804,-0.10156,-0.04992,0.12678,0.022512,-0.0011985
1358,-0.020687,-0.090845,-0.086623,-0.012242,-0.18699,0.024786,0.013093
1359,-0.0034721,-0.087272,-0.07493,0.0069217,-0.56376,0.030308,0.025761
1360,0.0088706,-0.066485,-0.066485,0.0036737,-0.95743,0.034855,0.032582
1361,0.0043233,-0.034004,-0.059339,-0.01484,-1.2826,0.037129,0.03518
1362,-0.015165,0.020564,-0.048945,-0.033679,-1.456,0.041027,0.036154
1363,-0.045372,0.10404,-0.029457,-0.046671,-1.4485,0.048172,0.038103
1364,-0.087922,0.20018,0.0020496,-0.047321,-1.3206,0.051096,0.039727
1365,-0.14411,0.26904,0.036804,-0.037902,-1.1903,0.043625,0.042326
1366,-0.20745,0.27781,0.059865,-0.029782,-1.1465,0.020564,0.036479
1367,-0.26949,0.21415,0.064088,-0.036278,-1.1809,-0.011267,0.020564
1368,-0.31691,0.088124,0.048822,-0.055441,-1.2105,-0.041799,0.0014
1369,-0.3416,-0.074605,0.024786,-0.074605,-1.1332,-0.060963,-0.01484
1370,-0.34062,-0.23928,0.0036737,-0.083375,-0.88727,-0.068758,-0.025234
1371,-0.31529,-0.37375,-0.0093186,-0.076554,-0.50238,-0.067784,-0.025884
1372,-0.27241,-0.46048,-0.013216,-0.056416,-0.079152,-0.061613,-0.022636
1373,-0.21395,-0.48679,-0.010618,-0.029457,0.27261,-0.052518,-0.019388
1374,-0.13502,-0.4543,-0.0037969,-0.00087364,0.50615,-0.038876,-0.014516
1375,-0.031406,-0.37733,0.0056225,0.027385,0.63932,-0.018413,-0.0031473
1376,0.0852,-0.28703,0.01829,0.064737,0.70526,0.0072465,0.019914
1377,0.19726,-0.21037,0.039727,0.10371,0.71728,0.029333,0.047523
1378,0.28333,-0.16328,0.073507,0.1323,0.677,0.040052,0.066686
1379,0.32751,-0.14509,0.11768,0.14626,0.5958,0.03453,0.067661
1380,0.32426,-0.14671,0.1651,0.14561,0.50193,0.016341,0.050121
1381,0.27976,-0.15223,0.20668,0.13457,0.41845,-0.0096434,0.019264
1382,0.21025,-0.14574,0.22877,0.11703,0.35089,-0.0405,-0.020362
1383,0.13457,-0.11293,0.21675,0.10144,0.29405,-0.076229,-0.059989
1384,0.072858,-0.050569,0.1755,0.10534,0.25767,-0.11228,-0.089546
1385,0.034206,0.028684,0.12255,0.1349,0.24436,-0.14379,-0.10384
1386,0.020564,0.10501,0.071883,0.16705,0.22065,-0.16588,-0.09929
1387,0.024786,0.16023,0.02706,0.1651,0.14269,-0.1714,-0.080451
1388,0.034206,0.18329,-0.016789,0.11086,-0.010943,-0.15516,-0.051219
1389,0.041027,0.17777,-0.059664,0.013743,-0.22304,-0.11391,-0.021661
1390,0.047847,0.1625,-0.092145,-0.093444,-0.44943,-0.057065,0.0072465
1391,0.059216,0.15406,-0.10254,-0.17367,-0.62515,0.0017248,0.03583
1392,0.072208,0.16088,-0.085324,-0.19998,-0.70051,0.049796,0.066037
1393,0.084551,0.17972,-0.040175,-0.16555,-0.64886,0.082927,0.09397
1394,0.092021,0.20213,0.028359,-0.085648,-0.49068,0.10436,0.11378
1395,0.092996,0.21447,0.11703,0.009845,-0.30554,0.11898,0.11508
1396,0.084226,0.20863,0.21512,0.10274,-0.18471,0.12548,0.096893
1397,0.065712,0.18264,0.30769,0.18134,-0.16458,0.12548,0.06896
1398,0.040052,0.14464,0.3798,0.24078,-0.2107,0.12093,0.046223
1399,0.014717,0.10242,0.41488,0.28138,-0.24643,0.11638,0.03583
1400,-0.0063954,0.067986,0.40676,0.30802,-0.19154,0.11216,0.034855
1401,-0.021012,0.045899,0.35966,0.32004,-0.02426,0.10761,0.038753
1402,-0.029132,0.036479,0.28983,0.31062,0.21415,0.10599,0.039727
1403,-0.034329,0.031282,0.2174,0.27976,0.45646,0.10794,0.037129
1404,-0.041799,0.02641,0.15763,0.23136,0.639,0.11346,0.032582
1405,-0.051868,0.019264,0.11476,0.1768,0.71793,0.12028,0.029658
1406,-0.05739,0.012119,0.083901,0.12255,0.67635,0.12645,0.029333
1407,-0.056091,0.0072465,0.062464,0.075781,0.53246,0.12905,0.030633
1408,-0.048296,0.0014,0.046873,0.038753,0.34115,0.1258,0.031607
1409,-0.044073,-0.0083442,0.037454,0.012768,0.16543,0.11606,0.030957
1410,-0.050894,-0.025884,0.029333,0.00042559,0.047198,0.10144,0.024461
1411,-0.071032,-0.045047,0.020564,0.0020496,0.0026992,0.08585,0.010819
1412,-0.098641,-0.060638,0.0088706,0.011469,0.02641,0.072533,-0.0050961
1413,-0.12527,-0.06681,-0.0021729,0.021538,0.096569,0.061165,-0.016464
1414,-0.14314,-0.062912,-0.0080194,0.02706,0.18037,0.053694,-0.022961
1415,-0.15061,-0.052193,-0.011267,0.022512,0.2528,0.047523,-0.027183
1416,-0.15061,-0.039851,-0.010293,0.014392,0.3038,0.040377,-0.030106
1417,-0.14054,-0.030106,-0.0057458,0.0091954,0.34375,0.031932,-0.030431
1418,-0.1204,-0.025559,0.0039985,0.0059473,0.3889,0.017965,-0.023935
1419,-0.092794,-0.025234,0.014392,0.0039985,0.44281,-0.0080194,-0.012242
1420,-0.059014,-0.021986,0.016016,0.0014,0.49446,-0.048945,-0.0011985
1421,-0.01484,-0.010943,-0.0057458,-0.00022403,0.52369,-0.10026,0.0049729
1422,0.043625,0.0049729,-0.059339,0.0020496,0.51102,-0.15223,0.0075714
1423,0.10729,0.019589,-0.14444,0.0026992,0.43989,-0.19836,0.0056225
1424,0.15828,0.026085,-0.2461,0.00010078,0.31744,-0.23344,0.0026992
1425,0.1755,0.016991,-0.33835,-0.0063954,0.16608,-0.25357,0.00042559
1426,0.15276,-0.0047713,-0.40136,-0.018413,0.017316,-0.2552,0.0010752
1427,0.10209,-0.03303,-0.428,-0.034329,-0.098965,-0.23896,0.0010752
1428,0.047198,-0.059339,-0.41728,-0.044398,-0.16295,-0.20713,0.0014
1429,0.010495,-0.072981,-0.37798,-0.039526,-0.17724,-0.16588,0.0026992
1430,-0.00022403,-0.070382,-0.32341,-0.020037,-0.16263,-0.11651,0.0065969
1431,0.0088706,-0.054467,-0.26559,0.0049729,-0.15256,-0.06616,0.014392
1432,0.025436,-0.029132,-0.21232,0.021863,-0.17562,-0.016464,0.022512
1433,0.040052,0.0062721,-0.16782,0.026735,-0.22239,0.027385,0.027709
1434,0.048497,0.044924,-0.1308,0.022837,-0.24545,0.065062,0.028684
1435,0.049472,0.081952,-0.097017,0.022837,-0.20031,0.097218,0.025761
1436,0.043625,0.10794,-0.062912,0.024137,-0.079477,0.12093,0.019589
1437,0.039078,0.12385,-0.023285,0.015042,0.084551,0.1323,0.012768
1438,0.044275,0.13555,0.017965,-0.026209,0.24371,0.1323,0.0039985
1439,0.063763,0.14691,0.057917,-0.10871,0.36389,0.12288,-0.0018481
1440,0.090072,0.15763,0.089098,-0.21882,0.43339,0.10729,-0.0050961
1441,0.11118,0.1651,0.10859,-0.32471,0.4688,0.087474,-0.0063954
1442,0.11866,0.16543,0.11281,-0.39129,0.48764,0.063763,-0.007045
1443,0.10989,0.15438,0.10112,-0.40461,0.50193,0.042326,-0.0089938
1444,0.084551,0.1323,0.075456,-0.36921,0.50453,0.030308,-0.013541
1445,0.046548,0.10501,0.042326,-0.30457,0.48796,0.030957,-0.019712
1446,-0.0011985,0.073507,0.0075714,-0.22304,0.46003,0.042975,-0.027183
1447,-0.049595,0.036804,-0.021012,-0.13469,0.43892,0.063113,-0.027183
1448,-0.085324,0.0036737,-0.039526,-0.051544,0.43404,0.081627,-0.019063
1449,-0.097017,-0.016464,-0.045697,0.013418,0.43827,0.089098,-0.007045
1450,-0.081751,-0.014191,-0.044073,0.056292,0.423,0.081303,0.0056225
1451,-0.04115,0.017965,-0.035628,0.081303,0.36616,0.06019,0.014392
1452,0.019589,0.075131,-0.01614,0.094295,0.2502,0.032582,0.023487
1453,0.091047,0.14107,0.015367,0.10274,0.061814,0.0046481,0.03518
1454,0.15958,0.19791,0.053694,0.11411,-0.19154,-0.019063,0.048822
1455,0.21058,0.23461,0.092671,0.12743,-0.46178,-0.037252,0.058241
1456,0.23234,0.2528,0.1297,0.14237,-0.68102,-0.046996,0.061165
1457,0.22194,0.2502,0.16056,0.16575,-0.79828,-0.043748,0.061165
1458,0.18979,0.20993,0.17939,0.20408,-0.80542,-0.027508,0.065387
1459,0.15179,0.1323,0.17972,0.24013,-0.74436,-0.0018481,0.075456
1460,0.12028,0.048497,0.15114,0.2489,-0.67485,0.026735,0.088124
1461,0.097543,0.00075039,0.088124,0.22065,-0.6336,0.049796,0.095919
1462,0.078379,0.013743,0.003024,0.16023,-0.61833,0.063763,0.093645
1463,0.054344,0.073182,-0.077203,0.080328,-0.61703,0.064413,0.081303
1464,0.020239,0.14302,-0.12592,0.0017248,-0.63587,0.053694,0.065062
1465,-0.019388,0.18849,-0.13502,-0.053168,-0.68719,0.033231,0.055318
1466,-0.054467,0.19239,-0.10676,-0.073306,-0.76515,0.0095202,0.054344
1467,-0.076879,0.15536,-0.051868,-0.063237,-0.83628,-0.012567,0.056942
1468,-0.084674,0.086175,0.016991,-0.033354,-0.86226,-0.03173,0.05207
1469,-0.078827,0.0062721,0.081952,0.0020496,-0.82036,-0.051219,0.039402
1470,-0.070707,-0.068109,0.13327,0.029009,-0.69986,-0.072981,0.025111
1471,-0.070707,-0.13794,0.1625,0.037778,-0.50595,-0.096367,0.014068
1472,-0.086298,-0.21914,0.15893,0.033231,-0.25975,-0.1178,0.009845
1473,-0.11456,-0.32308,0.1258,0.020239,0.0046481,-0.13404,0.011794
1474,-0.14411,-0.44034,0.069285,0.0056225,0.24533,-0.14574,0.019589
1475,-0.16328,-0.5472,0.0036737,-0.0044465,0.44541,-0.15548,0.030957
1476,-0.16198,-0.62093,-0.055116,-0.0047713,0.60619,-0.1597,0.04395
1477,-0.14054,-0.64854,-0.094743,-0.00022403,0.71955,-0.15548,0.05207
1478,-0.10579,-0.63295,-0.11228,0.0020496,0.75398,-0.14411,0.053369
1479,-0.064861,-0.58488,-0.11196,-0.0047713,0.65816,-0.12755,0.050771
1480,-0.015815,-0.5079,-0.096692,-0.022311,0.40254,-0.10774,0.046223
1481,0.048497,-0.40039,-0.072006,-0.044073,0.037778,-0.087272,0.042326
1482,0.1258,-0.26559,-0.040175,-0.059014,-0.32276,-0.06681,0.038753
1483,0.20376,-0.11943,-0.0034721,-0.056416,-0.57318,-0.046347,0.032582
1484,0.27099,0.022188,0.036154,-0.03238,-0.66575,-0.026858,0.024786
1485,0.32166,0.14724,0.069934,0.01017,-0.61866,-0.013216,0.017965
1486,0.35317,0.25313,0.094295,0.060515,-0.47152,-0.0060706,0.012443
1487,0.36811,0.3418,0.11248,0.10826,-0.27728,-0.0067202,0.0065969
1488,0.36811,0.41163,0.13035,0.14561,-0.078503,-0.011917,0.0014
1489,0.34797,0.45483,0.15179,0.17485,0.10339,-0.019712,-0.0024977
1490,0.29892,0.46555,0.18167,0.21252,0.27814,-0.030431,-0.0076946
1491,0.22357,0.44119,0.22032,0.27359,0.49056,-0.045372,-0.017764
1492,0.14009,0.39117,0.2606,0.34537,0.76665,-0.057715,-0.026533
1493,0.067336,0.32653,0.28691,0.39604,1.0837,-0.052193,-0.023285
1494,0.019589,0.26612,0.28658,0.39572,1.3669,-0.022636,-0.0096434
1495,0.0023744,0.22779,0.25767,0.34082,1.5384,0.025761,0.010495
1496,0.01017,0.21902,0.21285,0.25767,1.5569,0.079354,0.032257
1497,0.038428,0.23786,0.1716,0.18719,1.4286,0.11833,0.048497
1498,0.077405,0.27976,0.14691,0.15568,1.1941,0.12645,0.057267
1499,0.12223,0.34147,0.14821,0.16413,0.91184,0.10339,0.056617
1500,0.1729,0.41358,0.17517,0.19596,0.63802,0.058566,0.049472
1501,0.21935,0.47789,0.21415,0.22714,0.40091,0.012119,0.040702
1502,0.24793,0.51362,0.24598,0.23331,0.20311,-0.019712,0.03583
1503,0.24923,0.50875,0.2554,0.2057,0.029009,-0.028157,0.036804
1504,0.22519,0.46685,0.23461,0.15828,-0.14119,-0.018413,0.040052
1505,0.18167,0.39831,0.18881,0.10989,-0.30359,0.0052977,0.042651
1506,0.12483,0.31322,0.13067,0.078379,-0.44034,0.031282,0.041676
1507,0.062139,0.22227,0.069285,0.064413,-0.53811,0.05142,0.037129
1508,-0.0034721,0.13197,0.013743,0.057917,-0.59495,0.064413,0.027385
1509,-0.071357,0.041351,-0.034004,0.049472,-0.61086,0.073507,0.012443
1510,-0.14379,-0.050244,-0.078827,0.033556,-0.60014,0.074157,-0.0060706
1511,-0.22044,-0.14671,-0.12105,0.011144,-0.57611,0.066037,-0.019712
1512,-0.29028,-0.23896,-0.16425,-0.012242,-0.5472,0.056617,-0.02361
1513,-0.34387,-0.31918,-0.20713,-0.025884,-0.51309,0.05142,-0.020037
1514,-0.3757,-0.38057,-0.23831,-0.030756,-0.46113,0.057592,-0.010943
1515,-0.38739,-0.42312,-0.24903,-0.033679,-0.38187,0.073507,0.0020496
1516,-0.38122,-0.44618,-0.23831,-0.045697,-0.26689,0.098842,0.01829
1517,-0.35914,-0.45106,-0.2107,-0.07428,-0.12495,0.13555,0.037454
1518,-0.32471,-0.43027,-0.17205,-0.11586,0.026085,0.17647,0.054993
1519,-0.27404,-0.3705,-0.12203,-0.15548,0.1716,0.21447,0.069934
1520,-0.19933,-0.26364,-0.053817,-0.18114,0.2934,0.24078,0.079029
1521,-0.095068,-0.12008,0.027709,-0.19283,0.3733,0.24923,0.083251
1522,0.026735,0.032257,0.10371,-0.18764,0.41066,0.24306,0.083576
1523,0.14432,0.15926,0.15179,-0.16977,0.41293,0.22877,0.084551
1524,0.24111,0.24078,0.15958,-0.14509,0.39279,0.2135,0.087799
1525,0.30899,0.27716,0.13035,-0.1178,0.34245,0.20116,0.091047
1526,0.34635,0.28138,0.076755,-0.096692,0.22552,0.18784,0.085525
1527,0.35317,0.26384,0.013743,-0.087922,0.022512,0.16185,0.065712
1528,0.32848,0.23006,-0.046022,-0.092794,-0.24188,0.11346,0.03518
1529,0.27489,0.18654,-0.093119,-0.10514,-0.50433,0.042651,0.00075039
1530,0.20798,0.14334,-0.12138,-0.11488,-0.68232,-0.034329,-0.027833
1531,0.14432,0.11086,-0.13047,-0.11521,-0.70278,-0.095393,-0.044398
1532,0.094945,0.092021,-0.123,-0.10709,-0.52934,-0.123,-0.046347
1533,0.063763,0.08585,-0.10351,-0.094743,-0.18407,-0.11196,-0.036602
1534,0.047847,0.0852,-0.076879,-0.076879,0.25832,-0.072006,-0.018738
1535,0.039078,0.0852,-0.052193,-0.04862,0.69941,-0.023935,0.0046481
1536,0.033231,0.079679,-0.032055,-0.011267,1.0489,0.015692,0.023162
1537,0.029983,0.067011,-0.013216,0.026735,1.2578,0.03518,0.031282
1538,0.023162,0.048172,0.0065969,0.053694,1.3269,0.03453,0.027709
1539,0.0039985,0.020888,0.023487,0.066037,1.2896,0.019914,0.014392
1540,-0.030431,-0.012567,0.032906,0.073182,1.1808,0.00075039,0.0010752
1541,-0.076554,-0.044073,0.030308,0.088448,1.0232,-0.018738,-0.0037969
1542,-0.12463,-0.06616,0.016991,0.11995,0.8485,-0.027833,-0.0018481
1543,-0.16458,-0.072006,0.0017248,0.15114,0.6744,-0.026533,0.003024
1544,-0.19478,-0.067134,-0.013541,0.14269,0.46977,-0.022636,0.003024
1545,-0.21492,-0.064861,-0.031406,0.067011,0.19304,-0.023935,-0.0044465
1546,-0.22597,-0.076554,-0.055116,-0.06616,-0.14541,-0.03173,-0.017764
1547,-0.22921,-0.10286,-0.075255,-0.20648,-0.48549,-0.0405,-0.034329
1548,-0.22207,-0.13242,-0.084999,-0.30165,-0.76774,-0.042124,-0.046022
1549,-0.19673,-0.14639,-0.077528,-0.32211,-0.99251,-0.031406,-0.046022
1550,-0.14639,-0.12722,-0.056091,-0.27371,-1.2075,-0.0060706,-0.033679
1551,-0.071682,-0.069408,-0.027508,-0.18374,-1.4456,0.031282,-0.011267
1552,0.014392,0.011794,0.0036737,-0.077853,-1.6905,0.07708,0.011144
1553,0.090722,0.090397,0.03453,0.019914,-1.8815,0.1232,0.032582
1554,0.13977,0.14496,0.061489,0.093645,-1.9419,0.16023,0.049147
1555,0.14919,0.15926,0.079354,0.13327,-1.8227,0.18459,0.061814
1556,0.1245,0.1336,0.085525,0.13912,-1.5252,0.18784,0.066362
1557,0.081627,0.079029,0.083251,0.12418,-1.1166,0.1703,0.062464
1558,0.037129,0.010495,0.077405,0.10924,-0.7109,0.13847,0.051745
1559,0.0017248,-0.051544,0.073507,0.10436,-0.4215,0.099492,0.037778
1560,-0.020362,-0.094418,0.072858,0.11248,-0.2945,0.062139,0.025436
1561,-0.031081,-0.11618,0.072208,0.13002,-0.32081,0.029009,0.017316
1562,-0.033354,-0.12268,0.070259,0.14789,-0.44618,0.0039985,0.012119
1563,-0.032705,-0.12235,0.067011,0.15341,-0.59949,-0.012242,0.012119
1564,-0.037252,-0.123,0.060515,0.13749,-0.70473,-0.022961,0.014717
1565,-0.052518,-0.1256,0.051096,0.10631,-0.70278,-0.031406,0.014068
1566,-0.078503,-0.13275,0.037129,0.077405,-0.56766,-0.044073,0.0043233
1567,-0.10968,-0.14769,0.023162,0.057267,-0.31431,-0.063237,-0.010943
1568,-0.14054,-0.16977,0.014717,0.039727,0.0014,-0.084674,-0.024585
1569,-0.1662,-0.19121,0.014068,0.019914,0.32816,-0.10579,-0.033679
1570,-0.18049,-0.20096,0.024137,-0.0041217,0.62893,-0.1256,-0.034654
1571,-0.17789,-0.18796,0.042326,-0.031406,0.86994,-0.13892,-0.027833
1572,-0.15321,-0.15191,0.065712,-0.051544,1.0161,-0.14054,-0.01484
1573,-0.10709,-0.10514,0.088448,-0.049595,1.0564,-0.13112,-0.0011985
1574,-0.046996,-0.069733,0.10242,-0.028807,1.0174,-0.11553,0.013093
1575,0.013743,-0.05739,0.10436,0.0043233,0.94821,-0.094743,0.029658
1576,0.054019,-0.065835,0.097868,0.037454,0.87806,-0.074605,0.041351
1577,0.060515,-0.089546,0.083251,0.055318,0.80562,-0.061937,0.045574
1578,0.034855,-0.12398,0.056617,0.065712,0.71955,-0.059664,0.037778
1579,-0.012567,-0.161,0.01894,0.087149,0.60976,-0.067459,0.021863
1580,-0.06616,-0.19154,-0.027183,0.1284,0.4584,-0.0837,0.0062721
1581,-0.10903,-0.20583,-0.069083,0.18037,0.25702,-0.098965,-0.00054884
1582,-0.12722,-0.19154,-0.087272,0.22454,0.021213,-0.10676,0.0039985
1583,-0.11521,-0.13567,-0.065186,0.24663,-0.20713,-0.10286,0.015042
1584,-0.077853,-0.035628,-0.0057458,0.24533,-0.39259,-0.094743,0.026735
1585,-0.026209,0.092021,0.070259,0.22844,-0.5066,-0.086948,0.037129
1586,0.026735,0.20863,0.13587,0.20213,-0.51082,-0.080127,0.047198
1587,0.072533,0.26807,0.16998,0.16998,-0.38025,-0.067134,0.054668
1588,0.10501,0.2489,0.16673,0.13782,-0.12073,-0.045372,0.059541
1589,0.1284,0.16835,0.13425,0.11151,0.2187,-0.016789,0.063763
1590,0.14529,0.074157,0.087149,0.098193,0.53831,0.016991,0.073832
1591,0.15828,0.0091954,0.037454,0.095269,0.72929,0.051096,0.090072
1592,0.15991,-0.0044465,-0.012892,0.094295,0.72442,0.076755,0.10566
1593,0.14594,0.031932,-0.058689,0.090072,0.52629,0.089748,0.10956
1594,0.11638,0.095269,-0.094743,0.077405,0.207,0.081303,0.094945
1595,0.076431,0.15049,-0.12008,0.056292,-0.1282,0.049472,0.071234
1596,0.036479,0.1729,-0.13242,0.02641,-0.39259,0.0046481,0.048172
1597,0.0078962,0.16056,-0.1256,-0.0044465,-0.54785,-0.038227,0.031932
1598,0.00075039,0.131,-0.097991,-0.036278,-0.59235,-0.064211,0.025436
1599,0.013743,0.10956,-0.05739,-0.066485,-0.53161,-0.069083,0.026085
1600,0.045899,0.11736,-0.011267,-0.087597,-0.35394,-0.053817,0.032582
1601,0.09462,0.16413,0.02706,-0.096042,-0.059339,-0.025234,0.0433
1602,0.15211,0.23754,0.047847,-0.090845,0.2934,0.0078962,0.054668
1603,0.2096,0.31971,0.050771,-0.079477,0.5945,0.041351,0.064088
1604,0.26319,0.39084,0.042975,-0.06616,0.77801,0.070909,0.06961
1605,0.29957,0.43145,0.028684,-0.055116,0.86961,0.09397,0.067986
1606,0.3025,0.42462,0.0078962,-0.047646,0.94627,0.11021,0.061814
1607,0.26644,0.36324,-0.020687,-0.038876,1.0411,0.11833,0.057592
1608,0.20505,0.26092,-0.052843,-0.029132,1.1074,0.12223,0.058891
1609,0.14302,0.14724,-0.08305,-0.017764,1.0677,0.12418,0.059541
1610,0.10339,0.05207,-0.10838,0.0014,0.88812,0.12613,0.057267
1611,0.10079,-0.0099683,-0.13762,0.03583,0.61496,0.12775,0.051096
1612,0.131,-0.042124,-0.18277,0.079679,0.33628,0.12678,0.041676
1613,0.16478,-0.060638,-0.24383,0.11995,0.12288,0.11768,0.027709
1614,0.1768,-0.080451,-0.31334,0.14237,-0.0080194,0.095594,0.010819
1615,0.16348,-0.10416,-0.3757,0.14302,-0.080451,0.059541,-0.0057458
1616,0.13944,-0.11228,-0.40656,0.12775,-0.12268,0.019914,-0.01484
1617,0.12288,-0.081751,-0.38577,0.10501,-0.14671,-0.012242,-0.011267
1618,0.12678,-0.00054884,-0.31042,0.078704,-0.15483,-0.027833,0.0033489
1619,0.15341,0.11995,-0.19511,0.056292,-0.14996,-0.025559,0.020888
1620,0.19304,0.25118,-0.061937,0.039402,-0.13729,-0.0037969,0.033556
1621,0.23169,0.36648,0.071883,0.020564,-0.11845,0.033231,0.041351
1622,0.25507,0.44931,0.18881,-0.0057458,-0.089221,0.076755,0.044599
1623,0.2554,0.49218,0.28008,-0.039201,-0.048296,0.11703,0.041676
1624,0.23234,0.49251,0.347,-0.069408,-0.0057458,0.14009,0.031282
1625,0.19466,0.45775,0.40091,-0.093769,0.015042,0.13684,0.014068
1626,0.14951,0.39864,0.45061,-0.12268,-0.010618,0.10794,-0.0047713
1627,0.10501,0.32458,0.48926,-0.1662,-0.088896,0.059865,-0.020037
1628,0.063763,0.24468,0.50095,-0.22304,-0.20485,0.0062721,-0.033679
1629,0.024786,0.1703,0.47562,-0.26429,-0.32146,-0.041475,-0.044073
1630,-0.011267,0.11281,0.42008,-0.25162,-0.40591,-0.077853,-0.053492
1631,-0.043099,0.071234,0.36096,-0.17302,-0.45366,-0.10319,-0.059339
1632,-0.069083,0.048172,0.31354,-0.053168,-0.48614,-0.11878,-0.059339
1633,-0.086623,0.041351,0.28203,0.064737,-0.53616,-0.12463,-0.055116
1634,-0.094093,0.046873,0.25702,0.14789,-0.62126,-0.123,-0.048945
1635,-0.090196,0.057592,0.22617,0.18524,-0.74143,-0.10741,-0.041475
1636,-0.075579,0.065387,0.17777,0.18784,-0.87038,-0.075904,-0.029457
1637,-0.052193,0.063763,0.11248,0.18004,-0.95483,-0.030756,-0.0096434
1638,-0.028807,0.043625,0.037778,0.18654,-0.93599,0.020239,0.016016
1639,-0.012892,0.003024,-0.030756,0.20765,-0.77651,0.070584,0.042001
1640,-0.011917,-0.048945,-0.084024,0.22974,-0.50433,0.11216,0.056942
1641,-0.024585,-0.10286,-0.12008,0.23006,-0.2042,0.13847,0.056292
1642,-0.044723,-0.14704,-0.14346,0.19596,0.025111,0.14951,0.0433
1643,-0.066485,-0.17562,-0.15646,0.12678,0.13035,0.14951,0.026735
1644,-0.086623,-0.19283,-0.15646,0.033881,0.12548,0.14464,0.014068
1645,-0.10189,-0.20485,-0.14541,-0.059339,0.0865,0.13912,0.0091954
1646,-0.10676,-0.2068,-0.1178,-0.1243,0.097543,0.13749,0.011794
1647,-0.10384,-0.19641,-0.061288,-0.14444,0.20863,0.13814,0.01829
1648,-0.10221,-0.17335,0.033231,-0.11943,0.41423,0.13944,0.027709
1649,-0.10644,-0.14769,0.15893,-0.060638,0.66271,0.13814,0.032906
1650,-0.11683,-0.123,0.30282,0.013743,0.87383,0.13002,0.029009
1651,-0.13047,-0.097991,0.44184,0.083901,0.98849,0.11411,0.020239
1652,-0.14249,-0.070707,0.55032,0.13197,1.0132,0.092021,0.012119
1653,-0.14671,-0.044723,0.60619,0.15601,0.99206,0.070584,0.0069217
1654,-0.14216,-0.025559,0.59677,0.1638,0.95893,0.054993,0.0065969
1655,-0.13015,-0.025559,0.52531,0.16673,0.90014,0.047198,0.0049729
1656,-0.11293,-0.04927,0.40481,0.16478,0.76827,0.042001,-0.0021729
1657,-0.093444,-0.085648,0.26384,0.15276,0.51849,0.036804,-0.010293
1658,-0.076554,-0.12008,0.1284,0.12385,0.16121,0.028684,-0.012567
1659,-0.069083,-0.14216,0.014392,0.080653,-0.22304,0.020888,-0.014191
1660,-0.065835,-0.14541,-0.067784,0.03518,-0.51764,0.01764,-0.011917
1661,-0.059014,-0.12365,-0.11878,0.00075039,-0.65211,0.018615,-0.0037969
1662,-0.0405,-0.081101,-0.14704,-0.019388,-0.631,0.021863,0.011469
1663,-0.0096434,-0.027183,-0.161,-0.030106,-0.51309,0.023162,0.031282
1664,0.029009,0.023162,-0.16523,-0.035303,-0.36823,0.019589,0.045574
1665,0.062139,0.055318,-0.16003,-0.039851,-0.24675,0.0059473,0.048172
1666,0.078704,0.058566,-0.14704,-0.046022,-0.17237,-0.017439,0.039402
1667,0.074806,0.03518,-0.12463,-0.046671,-0.14931,-0.046022,0.029658
1668,0.055643,-0.0018481,-0.095068,-0.036278,-0.1753,-0.072981,0.024461
1669,0.036154,-0.036602,-0.071032,-0.020687,-0.2552,-0.097017,0.024461
1670,0.025111,-0.05804,-0.059989,-0.015165,-0.38934,-0.11715,0.026735
1671,0.025761,-0.06616,-0.065835,-0.022311,-0.55597,-0.12787,0.025761
1672,0.030957,-0.068758,-0.089546,-0.026533,-0.69044,-0.12755,0.019914
1673,0.030308,-0.075904,-0.12495,-0.0063954,-0.72195,-0.1191,0.011144
1674,0.015692,-0.093444,-0.161,0.039727,-0.61508,-0.11098,0.0010752
1675,-0.011592,-0.11943,-0.19511,0.0865,-0.39616,-0.10514,-0.0080194
1676,-0.045697,-0.14476,-0.22597,0.10566,-0.13307,-0.10351,-0.01484
1677,-0.076229,-0.16035,-0.24675,0.093645,0.089423,-0.10156,-0.020037
1678,-0.092145,-0.15841,-0.25552,0.059216,0.20895,-0.096367,-0.020687
1679,-0.086623,-0.14119,-0.25585,0.027385,0.22097,-0.082725,-0.012242
1680,-0.06551,-0.11683,-0.25065,0.012119,0.16445,-0.063237,0.0056225
1681,-0.037902,-0.095393,-0.2474,0.015367,0.089423,-0.043099,0.028034
1682,-0.011267,-0.082725,-0.25292,0.023487,0.0059473,-0.019063,0.046873
1683,0.0072465,-0.075904,-0.26754,0.01829,-0.097666,0.0033489,0.056292
1684,0.016341,-0.071357,-0.2867,-0.0044465,-0.22597,0.01764,0.058566
1685,0.019589,-0.062912,-0.29742,-0.037577,-0.36791,0.021538,0.054993
1686,0.022188,-0.049595,-0.29255,-0.06681,-0.48679,0.01894,0.047523
1687,0.026085,-0.022636,-0.27014,-0.085648,-0.54525,0.014717,0.041676
1688,0.032257,0.022188,-0.23863,-0.096367,-0.52089,0.01017,0.040052
1689,0.039727,0.082277,-0.21005,-0.10644,-0.42897,0.0043233,0.044599
1690,0.047847,0.14237,-0.19154,-0.12268,-0.32373,-0.0031473,0.053694
1691,0.053044,0.18394,-0.18471,-0.14541,-0.24968,-0.012892,0.058566
1692,0.053369,0.19596,-0.18244,-0.16263,-0.2055,-0.02426,0.054344
1693,0.049796,0.1742,-0.17692,-0.15938,-0.13502,-0.035303,0.040052
1694,0.042975,0.1258,-0.16425,-0.13047,0.041027,-0.045697,0.020564
1695,0.037129,0.063113,-0.13989,-0.080776,0.36453,-0.050894,0.0043233
1696,0.032906,0.0014,-0.10579,-0.018413,0.78256,-0.048296,-0.0018481
1697,0.03518,-0.04862,-0.068758,0.045249,1.1473,-0.040175,0.0046481
1698,0.042975,-0.084674,-0.035303,0.095269,1.3165,-0.034329,0.016666
1699,0.044275,-0.10838,-0.0083442,0.12613,1.26,-0.03173,0.026735
1700,0.033556,-0.12235,0.008221,0.14107,1.0499,-0.026533,0.035505
1701,0.0085458,-0.13469,0.011794,0.14659,0.7621,-0.019712,0.047523
1702,-0.021012,-0.15386,0.0069217,0.14237,0.43534,-0.012892,0.058241
1703,-0.046022,-0.18374,0.00042559,0.1284,0.11313,-0.014191,0.063113
1704,-0.05804,-0.22077,-0.0063954,0.10956,-0.15516,-0.027183,0.058241
1705,-0.056091,-0.25422,-0.013541,0.086824,-0.33283,-0.04927,0.048497
1706,-0.046347,-0.26592,-0.018413,0.062139,-0.39779,-0.072981,0.039402
1707,-0.030106,-0.24318,-0.012242,0.041027,-0.33672,-0.089546,0.031282
1708,-0.007045,-0.18342,0.0062721,0.029009,-0.15126,-0.094418,0.028359
1709,0.021863,-0.096367,0.031932,0.026735,0.12937,-0.083375,0.029658
1710,0.05272,-0.0021729,0.054668,0.033556,0.44704,-0.056741,0.032582
1711,0.080653,0.082277,0.06896,0.049796,0.72929,-0.019063,0.032257
1712,0.10826,0.15049,0.071558,0.06896,0.91411,0.023812,0.029333
1713,0.13847,0.20473,0.068635,0.080328,0.97322,0.062139,0.029983
1714,0.17257,0.2489,0.066362,0.076106,0.91833,0.089748,0.032906
1715,0.20473,0.28268,0.067986,0.062139,0.79361,0.10631,0.03518
1716,0.22519,0.30769,0.07708,0.051745,0.65166,0.11541,0.03583
1717,0.23364,0.32783,0.09397,0.04395,0.52272,0.12028,0.032906
1718,0.22909,0.34667,0.11541,0.031932,0.40481,0.11703,0.027385
1719,0.21382,0.36648,0.13717,0.013418,0.26612,0.10794,0.020239
1720,0.19271,0.38207,0.15828,-0.0050961,0.080003,0.09462,0.013743
1721,0.16868,0.38272,0.17907,-0.019712,-0.15288,0.079679,0.011469
1722,0.14496,0.36811,0.20213,-0.026209,-0.39681,0.072208,0.012768
1723,0.12905,0.34375,0.22747,-0.022311,-0.59462,0.072858,0.013418
1724,0.12028,0.31386,0.25605,-0.0099683,-0.70213,0.082927,0.01017
1725,0.11508,0.28301,0.28366,0.017316,-0.69953,0.10144,0.0049729
1726,0.11054,0.25767,0.30639,0.064088,-0.60079,0.12255,0.003024
1727,0.10339,0.23721,0.32101,0.12028,-0.45106,0.14334,0.0069217
1728,0.091372,0.2135,0.32848,0.16705,-0.29482,0.16315,0.01764
1729,0.06896,0.1768,0.32816,0.19011,-0.1714,0.18232,0.036154
1730,0.036804,0.12223,0.32751,0.18459,-0.09929,0.19206,0.053044
1731,-0.00087364,0.055643,0.32621,0.16283,-0.077853,0.18784,0.06019
1732,-0.037902,-0.008669,0.31776,0.13749,-0.090845,0.16803,0.056942
1733,-0.062912,-0.054792,0.29697,0.11541,-0.11358,0.14074,0.044924
1734,-0.072006,-0.078503,0.26417,0.098842,-0.12073,0.11313,0.030308
1735,-0.067134,-0.082076,0.22162,0.088773,-0.09182,0.089098,0.017965
1736,-0.055766,-0.075255,0.16835,0.083576,-0.023285,0.066037,0.009845
1737,-0.047321,-0.065186,0.10729,0.086175,0.063113,0.038103,0.0046481
1738,-0.04927,-0.058689,0.044924,0.10079,0.13944,0.0017248,-0.0024977
1739,-0.060313,-0.053492,-0.013541,0.12255,0.19076,-0.0405,-0.010943
1740,-0.078503,-0.046347,-0.064861,0.14074,0.2161,-0.088247,-0.015815
1741,-0.09929,-0.037577,-0.10644,0.14496,0.22649,-0.13697,-0.017114
1742,-0.1217,-0.029782,-0.13112,0.13262,0.23364,-0.17692,-0.017764
1743,-0.14899,-0.029457,-0.12625,0.10209,0.23201,-0.19901,-0.01614
1744,-0.18179,-0.044398,-0.090196,0.059541,0.20635,-0.19966,-0.011592
1745,-0.2172,-0.076554,-0.034654,0.016666,0.12905,-0.18179,-0.0041217
1746,-0.24935,-0.12268,0.025436,-0.014516,-0.036602,-0.15158,0.0056225
1747,-0.26722,-0.17594,0.074806,-0.026209,-0.31886,-0.11618,0.014068
1748,-0.26104,-0.21882,0.10566,-0.022961,-0.68167,-0.081426,0.019589
1749,-0.22369,-0.22564,0.12353,-0.011592,-1.0139,-0.045372,0.021213
1750,-0.15548,-0.17562,0.13652,0.0062721,-1.1841,-0.0037969,0.027385
1751,-0.051219,-0.062912,0.14984,0.028359,-1.127,0.052395,0.049472
1752,0.089423,0.10501,0.1677,0.058891,-0.89702,0.11963,0.081627
1753,0.25507,0.2999,0.18751,0.097543,-0.62645,0.18654,0.11183
1754,0.41748,0.47984,0.20278,0.13717,-0.41695,0.23981,0.13132
1755,0.54155,0.61691,0.20246,0.17517,-0.2945,0.27359,0.13652
1756,0.60067,0.69616,0.17972,0.2044,-0.23993,0.28756,0.12353
1757,0.58151,0.71045,0.1284,0.21577,-0.21232,0.28983,0.091047
1758,0.48699,0.65134,0.048497,0.20311,-0.17789,0.28138,0.044275
1759,0.3405,0.52207,-0.050894,0.17582,-0.12592,0.2593,-0.0034721
1760,0.18264,0.34927,-0.15256,0.15049,-0.055766,0.22617,-0.042449
1761,0.054668,0.1716,-0.23246,0.13912,0.022188,0.19174,-0.059989
1762,-0.018738,0.027385,-0.27696,0.13782,0.084551,0.16088,-0.055766
1763,-0.036278,-0.065835,-0.2893,0.12158,0.10079,0.13749,-0.0405
1764,-0.019712,-0.11066,-0.28086,0.066362,0.067986,0.1258,-0.026858
1765,0.0069217,-0.11813,-0.25975,-0.033354,0.009845,0.1258,-0.019388
1766,0.033881,-0.10319,-0.22402,-0.15711,-0.035953,0.13847,-0.01549
1767,0.059541,-0.074605,-0.17335,-0.27761,-0.054142,0.16056,-0.0073698
1768,0.093321,-0.036927,-0.11196,-0.36823,-0.044073,0.18394,0.008221
1769,0.13944,0.0088706,-0.046996,-0.40526,-0.0037969,0.19661,0.02706
1770,0.19044,0.065712,0.016666,-0.3757,0.088448,0.19044,0.044275
1771,0.23071,0.12937,0.076431,-0.28053,0.23721,0.16673,0.056942
1772,0.24566,0.18946,0.12093,-0.15938,0.38662,0.12288,0.058891
1773,0.22909,0.23364,0.13977,-0.06616,0.44574,0.059216,0.045249
1774,0.19011,0.25443,0.13457,-0.035953,0.39052,-0.015815,0.020888
1775,0.14237,0.25215,0.11216,-0.057065,0.29568,-0.085973,0.00075039
1776,0.094295,0.23461,0.0865,-0.09929,0.23786,-0.13794,-0.008669
1777,0.046223,0.20993,0.06896,-0.13112,0.24436,-0.16977,-0.007045
1778,0.0020496,0.18687,0.070259,-0.13632,0.32231,-0.18634,-0.00087364
1779,-0.030106,0.17712,0.0865,-0.11001,0.45353,-0.18829,0.0059473
1780,-0.042449,0.19044,0.10761,-0.056091,0.59547,-0.1753,0.020239
1781,-0.033354,0.2135,0.12158,0.016991,0.69032,-0.14996,0.042651
1782,-0.0063954,0.22292,0.11833,0.091696,0.6783,-0.12105,0.067986
1783,0.023162,0.20148,0.096569,0.14561,0.54578,-0.097341,0.089423
1784,0.036479,0.14821,0.057917,0.1677,0.36259,-0.086948,0.10112
1785,0.019914,0.070909,0.0075714,0.16121,0.23624,-0.086298,0.10079
1786,-0.022961,-0.016464,-0.043748,0.13652,0.21512,-0.089546,0.088773
1787,-0.077528,-0.098316,-0.087272,0.11086,0.25995,-0.093444,0.072208
1788,-0.13177,-0.17042,-0.11423,0.097218,0.29438,-0.10189,0.059216
1789,-0.17984,-0.23993,-0.12105,0.091696,0.26449,-0.11813,0.053044
1790,-0.21849,-0.30457,-0.11001,0.072533,0.1677,-0.14834,0.05207
1791,-0.2474,-0.35296,-0.087922,0.025436,0.038753,-0.18861,0.048497
1792,-0.26397,-0.36433,-0.057715,-0.046996,-0.080451,-0.22856,0.036154
1793,-0.26202,-0.32341,-0.019388,-0.1178,-0.15841,-0.25487,0.01764
1794,-0.23246,-0.23084,0.028034,-0.15516,-0.18439,-0.26267,-0.0011985
1795,-0.17822,-0.11651,0.07708,-0.14281,-0.16523,-0.25422,-0.012567
1796,-0.10644,-0.021337,0.11963,-0.09182,-0.11196,-0.23214,-0.017114
1797,-0.042124,0.01764,0.14561,-0.025234,-0.044073,-0.20031,-0.020037
