,channel_1,channel_2,channel_3,channel_4,channel_5,channel_6,channel_7
0,0.00042559,0.031932,0.3038,0.070584,-1.4359,-0.32016,0.023812
1,0.0036737,0.021213,0.2502,-0.023285,-1.2286,-0.33283,0.011469
2,0.021213,0.024137,0.19369,-0.087597,-0.84732,-0.35979,-0.0037969
3,0.046873,0.037129,0.14237,-0.11163,-0.37115,-0.40169,-0.021337
4,0.073507,0.062139,0.10079,-0.10481,0.11476,-0.44424,-0.0405
5,0.094295,0.097868,0.065062,-0.0824,0.52921,-0.46925,-0.058365
6,0.098842,0.13425,0.031282,-0.064861,0.8079,-0.47087,-0.072006
7,0.080328,0.15373,-0.0031473,-0.062912,0.91671,-0.45073,-0.085973
8,0.039402,0.15049,-0.036927,-0.07428,0.85987,-0.41435,-0.10189
9,-0.01484,0.13522,-0.062912,-0.084999,0.67473,-0.37018,-0.1178
10,-0.068758,0.1219,-0.074605,-0.081751,0.40871,-0.3286,-0.13015
11,-0.10741,0.11866,-0.072331,-0.059664,0.12483,-0.29417,-0.13599
12,-0.12625,0.12515,-0.059339,-0.021986,-0.12527,-0.27241,-0.13275
13,-0.12398,0.11898,-0.04115,0.022837,-0.33478,-0.27599,-0.1204
14,-0.10806,0.082277,-0.021337,0.062139,-0.52414,-0.31756,-0.10156
15,-0.093769,0.010819,-0.010943,0.087799,-0.70213,-0.39844,-0.080451
16,-0.087922,-0.075904,-0.013866,0.098517,-0.86161,-0.49231,-0.054467
17,-0.088572,-0.14834,-0.025884,0.099167,-1.0036,-0.56539,-0.02361
18,-0.093444,-0.19316,-0.039201,0.097218,-1.1387,-0.60502,0.0078962
19,-0.10709,-0.21557,-0.047646,0.092996,-1.2436,-0.61443,0.033881
20,-0.12755,-0.22272,-0.053168,0.083251,-1.2608,-0.60696,0.055643
21,-0.14509,-0.21102,-0.057715,0.071883,-1.1276,-0.59754,0.068635
22,-0.14931,-0.17984,-0.061288,0.062139,-0.82718,-0.59267,0.074482
23,-0.13534,-0.13015,-0.065835,0.052395,-0.40818,-0.58325,0.074157
24,-0.10416,-0.071357,-0.072331,0.03583,0.023487,-0.56409,0.063113
25,-0.061613,-0.017114,-0.083375,0.0095202,0.35966,-0.53193,0.045574
26,-0.017764,0.019264,-0.10124,-0.021986,0.54968,-0.47932,0.025436
27,0.01829,0.031932,-0.12917,-0.053492,0.61464,-0.39779,0.013418
28,0.040377,0.022188,-0.1623,-0.073955,0.61918,-0.27306,0.01829
29,0.053044,-0.0011985,-0.19608,-0.07428,0.6338,-0.085973,0.041676
30,0.065712,-0.025884,-0.22337,-0.039851,0.69779,0.17842,0.081303
31,0.082277,-0.047321,-0.23993,0.038428,0.77477,0.51167,0.13555
32,0.098193,-0.057715,-0.23961,0.15146,0.76827,0.87643,0.19693
33,0.10956,-0.050244,-0.22239,0.26839,0.61399,1.2133,0.2567
34,0.11963,-0.017439,-0.19608,0.35187,0.32166,1.4588,0.3038
35,0.12743,0.036479,-0.16653,0.3733,-0.030106,1.5722,0.32848
36,0.1336,0.10209,-0.13892,0.3327,-0.3403,1.5452,0.32588
37,0.13587,0.16543,-0.12138,0.25118,-0.54103,1.399,0.296
38,0.13295,0.2122,-0.11618,0.15958,-0.60826,1.172,0.24598
39,0.1219,0.23883,-0.11683,0.08585,-0.54395,0.91638,0.18394
40,0.10209,0.25183,-0.10871,0.05272,-0.36758,0.6809,0.12223
41,0.079354,0.25995,-0.077528,0.070584,-0.10481,0.50875,0.073507
42,0.058891,0.26482,-0.015815,0.1271,0.21285,0.42332,0.051745
43,0.045899,0.26417,0.073832,0.18914,0.53116,0.41488,0.058891
44,0.048822,0.2554,0.17485,0.21805,0.77477,0.44671,0.088773
45,0.078379,0.24176,0.26449,0.18492,0.88098,0.46425,0.12548
46,0.13067,0.23234,0.32069,0.095594,0.83973,0.42397,0.14984
47,0.19726,0.22812,0.3431,-0.016789,0.70461,0.31711,0.15926
48,0.26157,0.22357,0.34992,-0.10806,0.56267,0.16673,0.15796
49,0.30445,0.20765,0.35674,-0.15061,0.47822,0.015367,0.15503
50,0.30607,0.16543,0.35836,-0.15093,0.45678,-0.10416,0.15309
51,0.24825,0.087799,0.3418,-0.14736,0.4584,-0.18504,0.14172
52,0.12353,-0.017764,0.29633,-0.1688,0.43339,-0.24058,0.10534
53,-0.047971,-0.1321,0.22194,-0.21752,0.35739,-0.28281,0.039402
54,-0.22239,-0.23701,0.1323,-0.26819,0.23786,-0.31464,-0.0405
55,-0.35329,-0.32308,0.049796,-0.29742,0.088773,-0.33315,-0.11293
56,-0.42052,-0.38285,-0.0083442,-0.29547,-0.078503,-0.34062,-0.16263
57,-0.42442,-0.41435,-0.038876,-0.26592,-0.24805,-0.34062,-0.18601
58,-0.3861,-0.42702,-0.052843,-0.21687,-0.40266,-0.34355,-0.18731
59,-0.33283,-0.43449,-0.060638,-0.16328,-0.53193,-0.34907,-0.17692
60,-0.28183,-0.43741,-0.06551,-0.11845,-0.63262,-0.35004,-0.16425
61,-0.23538,-0.42994,-0.067459,-0.082076,-0.69661,-0.33348,-0.14931
62,-0.18277,-0.40786,-0.062912,-0.041475,-0.69791,-0.29288,-0.12755
63,-0.11651,-0.36758,-0.051219,0.014068,-0.60859,-0.22564,-0.093444
64,-0.037252,-0.30977,-0.034978,0.080328,-0.43579,-0.13924,-0.046671
65,0.04395,-0.23441,-0.022636,0.13425,-0.21752,-0.043423,0.0062721
66,0.10664,-0.14476,-0.016789,0.16088,0.0085458,0.045574,0.058566
67,0.14139,-0.043099,-0.011917,0.16185,0.22,0.11248,0.099167
68,0.15406,0.065712,-0.0034721,0.14626,0.41131,0.15211,0.11866
69,0.15763,0.17517,0.01017,0.11995,0.59287,0.17062,0.11476
70,0.16153,0.27294,0.025111,0.090397,0.77282,0.17485,0.089423
71,0.1664,0.34894,0.037454,0.061165,0.94204,0.16705,0.046548
72,0.16835,0.39637,0.040702,0.030308,1.0697,0.14529,-0.0060706
73,0.16315,0.40643,0.030633,-0.0024977,1.1207,0.10696,-0.059664
74,0.15081,0.3785,0.0056225,-0.033679,1.0755,0.061489,-0.10416
75,0.1336,0.31939,-0.03238,-0.05804,0.94107,0.021538,-0.12885
76,0.12255,0.24923,-0.068758,-0.070707,0.73417,-0.00022403,-0.12917
77,0.12385,0.19434,-0.089871,-0.07428,0.47789,-0.0041217,-0.11228
78,0.13652,0.1703,-0.087922,-0.075255,0.19726,-0.0041217,-0.086623
79,0.15081,0.18134,-0.064861,-0.077528,-0.076879,-0.016789,-0.060638
80,0.15796,0.2161,-0.027183,-0.084674,-0.29612,-0.04862,-0.042449
81,0.15179,0.25085,0.011469,-0.094418,-0.41208,-0.089546,-0.031406
82,0.1323,0.26774,0.039078,-0.10286,-0.39811,-0.12755,-0.023935
83,0.10209,0.2619,0.046548,-0.10449,-0.27696,-0.15386,-0.019388
84,0.064737,0.23169,0.038103,-0.096367,-0.10059,-0.16782,-0.021661
85,0.02641,0.18427,0.022837,-0.077528,0.085525,-0.17205,-0.029782
86,-0.007045,0.13262,0.0072465,-0.04927,0.2463,-0.1675,-0.040825
87,-0.036278,0.086824,-0.0076946,-0.022636,0.35999,-0.14899,-0.044398
88,-0.059339,0.053369,-0.020687,-0.0057458,0.41358,-0.11651,-0.037902
89,-0.078503,0.031607,-0.03173,0.00042559,0.38825,-0.077203,-0.02361
90,-0.093444,0.020564,-0.042774,-0.0015233,0.2515,-0.042774,-0.0060706
91,-0.099615,0.021538,-0.057065,-0.0034721,-0.0089938,-0.019063,0.010495
92,-0.088572,0.033231,-0.071357,0.00075039,-0.33607,-0.0037969,0.02706
93,-0.062912,0.050121,-0.078503,0.016016,-0.60859,0.0062721,0.039402
94,-0.033679,0.065387,-0.079477,0.045899,-0.72974,0.010819,0.047523
95,-0.01614,0.075131,-0.078178,0.086824,-0.69596,0.0062721,0.05142
96,-0.017439,0.077405,-0.079477,0.12353,-0.56571,-0.0060706,0.047847
97,-0.037577,0.066362,-0.085973,0.14464,-0.40916,-0.018413,0.032906
98,-0.071357,0.041676,-0.096692,0.14984,-0.27371,-0.030106,0.0069217
99,-0.10579,0.0095202,-0.10741,0.14172,-0.1623,-0.037902,-0.024909
100,-0.12463,-0.015165,-0.11358,0.1323,-0.062912,-0.044723,-0.055441
101,-0.12138,-0.022961,-0.11586,0.14042,0.026085,-0.059989,-0.077528
102,-0.098965,-0.014516,-0.11715,0.18037,0.088773,-0.093444,-0.090196
103,-0.067784,0.0020496,-0.11391,0.24306,0.10371,-0.14931,-0.090845
104,-0.039201,0.011794,-0.10481,0.30282,0.062139,-0.21914,-0.082725
105,-0.023935,0.0046481,-0.094093,0.334,-0.034329,-0.28703,-0.071357
106,-0.020037,-0.02361,-0.085324,0.33173,-0.1636,-0.33965,-0.059014
107,-0.017764,-0.067459,-0.076229,0.30217,-0.29158,-0.36823,-0.044073
108,-0.0037969,-0.10774,-0.062912,0.25995,-0.38869,-0.37375,-0.021986
109,0.025436,-0.1295,-0.047321,0.21382,-0.44359,-0.36433,0.0095202
110,0.069934,-0.123,-0.032705,0.16543,-0.46827,-0.3429,0.044599
111,0.13035,-0.084999,-0.015815,0.11281,-0.48224,-0.30912,0.075781
112,0.20538,-0.016789,0.0039985,0.06084,-0.49978,-0.26592,0.098842
113,0.2895,0.076106,0.028684,0.014717,-0.51602,-0.2172,0.11346
114,0.36811,0.1768,0.056292,-0.019063,-0.50855,-0.16523,0.1219
115,0.42722,0.26547,0.081952,-0.040175,-0.43352,-0.10644,0.12775
116,0.45028,0.32296,0.10371,-0.056091,-0.25552,-0.04115,0.1258
117,0.4282,0.3314,0.11411,-0.07428,0.010819,0.033231,0.11281
118,0.35901,0.28918,0.10859,-0.093444,0.30315,0.11801,0.088773
119,0.2593,0.2135,0.086175,-0.10579,0.54383,0.21123,0.063113
120,0.15341,0.12515,0.054344,-0.10124,0.67343,0.29925,0.044275
121,0.062789,0.036479,0.022512,-0.068434,0.66303,0.36681,0.039727
122,-0.00054884,-0.044723,-0.0015233,-0.0089938,0.52531,0.40676,0.0433
123,-0.034329,-0.11521,-0.017439,0.064088,0.32653,0.41975,0.046548
124,-0.048945,-0.17042,-0.029132,0.131,0.15958,0.41813,0.048822
125,-0.054792,-0.20453,-0.039851,0.1716,0.092346,0.41748,0.051745
126,-0.052193,-0.2146,-0.046022,0.17745,0.13684,0.42755,0.055643
127,-0.0405,-0.19868,-0.041475,0.14951,0.2567,0.44834,0.060515
128,-0.020362,-0.16003,-0.021986,0.099817,0.40286,0.47367,0.067011
129,0.00075039,-0.10806,0.0091954,0.047198,0.5422,0.48861,0.076106
130,0.010819,-0.06681,0.045249,0.0017248,0.64907,0.48471,0.081303
131,-0.00022403,-0.062912,0.073832,-0.03173,0.70558,0.45191,0.075131
132,-0.036927,-0.11163,0.083251,-0.059664,0.70233,0.38954,0.05142
133,-0.093444,-0.20323,0.06831,-0.082076,0.64874,0.30704,0.012119
134,-0.15288,-0.30327,0.037778,-0.097666,0.57144,0.22259,-0.028807
135,-0.19673,-0.36823,0.016016,-0.10286,0.49965,0.14821,-0.060963
136,-0.2133,-0.36953,0.025111,-0.097991,0.44801,0.091696,-0.07428
137,-0.20453,-0.31106,0.067986,-0.087272,0.41293,0.055968,-0.069083
138,-0.17952,-0.21882,0.12028,-0.076879,0.3798,0.033556,-0.051219
139,-0.14931,-0.12787,0.15438,-0.066485,0.32946,0.014392,-0.029132
140,-0.11618,-0.06616,0.15633,-0.062912,0.2528,-0.010943,-0.013216
141,-0.085648,-0.044073,0.13262,-0.070058,0.15568,-0.046022,-0.0063954
142,-0.064211,-0.054142,0.096569,-0.083375,0.054019,-0.085324,-0.0044465
143,-0.058689,-0.087272,0.064737,-0.095717,-0.045372,-0.12203,-0.00087364
144,-0.069408,-0.1334,0.046548,-0.095717,-0.14184,-0.15321,0.0091954
145,-0.088247,-0.18179,0.042326,-0.072656,-0.23733,-0.18439,0.027385
146,-0.11358,-0.22564,0.046223,-0.022636,-0.3325,-0.21979,0.050771
147,-0.14216,-0.2591,0.05142,0.041676,-0.4254,-0.26234,0.072208
148,-0.17042,-0.28378,0.054019,0.10274,-0.51342,-0.2997,0.089098
149,-0.19836,-0.30197,0.05272,0.14464,-0.59137,-0.31789,0.096244
150,-0.22954,-0.31886,0.051096,0.16348,-0.65016,-0.30684,0.09397
151,-0.26364,-0.33218,0.049796,0.15926,-0.67745,-0.26949,0.0852
152,-0.29028,-0.33802,0.049472,0.13555,-0.66251,-0.22337,0.072858
153,-0.30165,-0.33478,0.046548,0.10047,-0.60859,-0.18309,0.056942
154,-0.2906,-0.31918,0.038428,0.061165,-0.52544,-0.15353,0.042326
155,-0.2565,-0.28183,0.025111,0.023487,-0.4254,-0.1295,0.031607
156,-0.2042,-0.22337,0.0091954,-0.0099683,-0.31918,-0.10514,0.025436
157,-0.13892,-0.14801,-0.00054884,-0.037902,-0.21752,-0.078503,0.017965
158,-0.063561,-0.054792,0.0056225,-0.05804,-0.12755,-0.04992,0.0078962
159,0.023812,0.058241,0.022837,-0.07493,-0.058365,-0.021986,-0.0060706
160,0.12125,0.19206,0.045574,-0.091495,-0.016789,0.0023744,-0.016464
161,0.22,0.33823,0.065062,-0.11001,-0.0011985,0.019264,-0.021012
162,0.31549,0.47562,0.075456,-0.12657,0.0023744,0.026085,-0.020037
163,0.40221,0.59158,0.073832,-0.13502,0.015367,0.02706,-0.015815
164,0.47464,0.677,0.059541,-0.1295,0.058566,0.032257,-0.008669
165,0.52824,0.72767,0.038103,-0.10871,0.1336,0.049147,0.0039985
166,0.56299,0.74521,0.017316,-0.075579,0.21252,0.073182,0.022188
167,0.57566,0.74391,0.0052977,-0.03238,0.24825,0.094945,0.042326
168,0.56786,0.73546,0.013093,0.019264,0.2057,0.10534,0.059216
169,0.54058,0.72507,0.045249,0.068635,0.080003,0.099167,0.072858
170,0.49543,0.71273,0.096569,0.10079,-0.10026,0.076431,0.082927
171,0.43242,0.69227,0.14724,0.10924,-0.2984,0.047847,0.087474
172,0.35609,0.65621,0.17387,0.093321,-0.47639,0.024786,0.086175
173,0.27261,0.59905,0.15926,0.056942,-0.58228,0.020239,0.080653
174,0.18946,0.51654,0.11021,0.015692,-0.57091,0.040377,0.071883
175,0.11736,0.41001,0.046223,-0.011917,-0.42377,0.080328,0.062789
176,0.070909,0.28821,-0.0080194,-0.0057458,-0.1675,0.13165,0.053694
177,0.05142,0.16088,-0.037252,0.029009,0.12483,0.18329,0.04395
178,0.054019,0.044924,-0.045047,0.06961,0.36583,0.22487,0.033231
179,0.064413,-0.04927,-0.045047,0.092671,0.48731,0.25507,0.020888
180,0.070584,-0.11326,-0.04862,0.087149,0.4701,0.28366,0.0072465
181,0.064413,-0.14671,-0.056416,0.063763,0.35187,0.31646,-0.0041217
182,0.045899,-0.15223,-0.061613,0.044599,0.20213,0.3379,-0.0073698
183,0.025436,-0.13729,-0.054792,0.049796,0.079679,0.32816,0.0036737
184,0.0075714,-0.11261,-0.033354,0.08585,0.012768,0.27099,0.02641
185,-0.0047713,-0.089221,-0.00054884,0.14107,-0.0050961,0.15763,0.05142
186,-0.016464,-0.075904,0.031607,0.20246,0.0072465,-0.0044465,0.064737
187,-0.03173,-0.076554,0.054019,0.2476,0.026085,-0.18796,0.058566
188,-0.056416,-0.09117,0.061165,0.26027,0.040052,-0.36044,0.030957
189,-0.089871,-0.11261,0.053694,0.23721,0.04395,-0.49101,-0.0099683
190,-0.12333,-0.13177,0.038753,0.18687,0.044275,-0.55532,-0.052193
191,-0.14281,-0.13892,0.025761,0.12255,0.046873,-0.5407,-0.082076
192,-0.14639,-0.13177,0.01764,0.067011,0.054993,-0.45236,-0.089221
193,-0.13827,-0.11033,0.014717,0.030308,0.061165,-0.32048,-0.080451
194,-0.12365,-0.083375,0.013743,0.0062721,0.045574,-0.18277,-0.062262
195,-0.10903,-0.060963,0.014717,-0.011267,0.0010752,-0.075904,-0.042124
196,-0.098316,-0.047971,0.01829,-0.026533,-0.059014,-0.025234,-0.023935
197,-0.09182,-0.042124,0.022837,-0.043099,-0.11683,-0.028482,-0.010618
198,-0.084999,-0.037577,0.024461,-0.055766,-0.17465,-0.062262,-0.0024977
199,-0.075579,-0.034654,0.022837,-0.061288,-0.24318,-0.095068,0.0056225
200,-0.060963,-0.035628,0.016341,-0.055766,-0.32406,-0.10546,0.020564
201,-0.047646,-0.042774,0.0078962,-0.046022,-0.40201,-0.0824,0.039402
202,-0.044398,-0.059664,-0.0044465,-0.044723,-0.45171,-0.02426,0.055968
203,-0.053817,-0.0837,-0.019063,-0.060638,-0.44683,0.037129,0.061165
204,-0.077528,-0.11196,-0.034654,-0.095717,-0.38415,0.051096,0.053369
205,-0.10936,-0.14022,-0.046347,-0.14216,-0.29288,-0.01484,0.03518
206,-0.14184,-0.1662,-0.053168,-0.19089,-0.21752,-0.15256,0.012768
207,-0.1662,-0.18504,-0.056091,-0.23668,-0.18764,-0.32406,-0.010293
208,-0.18082,-0.19576,-0.057065,-0.27339,-0.19478,-0.48419,-0.03303
209,-0.18504,-0.19933,-0.054142,-0.2984,-0.19348,-0.58163,-0.049595
210,-0.18179,-0.19413,-0.042774,-0.31171,-0.11878,-0.5813,-0.057065
211,-0.17465,-0.17854,-0.022961,-0.31496,0.037778,-0.47379,-0.053168
212,-0.16295,-0.15386,0.0010752,-0.29905,0.18589,-0.28313,-0.037252
213,-0.14281,-0.123,0.024461,-0.2552,0.18134,-0.04862,-0.014516
214,-0.11326,-0.086623,0.046548,-0.17075,-0.060638,0.19434,0.011794
215,-0.072006,-0.038551,0.069285,-0.0405,-0.47867,0.4256,0.042001
216,-0.018413,0.024461,0.099492,0.12678,-0.90481,0.63445,0.076106
217,0.042651,0.094945,0.13555,0.29665,-1.179,0.81017,0.11346
218,0.097218,0.1625,0.1716,0.41358,-1.2247,0.94497,0.15114
219,0.13522,0.2122,0.19596,0.43892,-1.0604,1.0382,0.19076
220,0.15536,0.23331,0.19986,0.37071,-0.74955,1.0989,0.22812
221,0.16348,0.23169,0.18492,0.24468,-0.34647,1.1402,0.25897
222,0.1651,0.2135,0.16478,0.11866,0.12872,1.174,0.28301
223,0.16348,0.18687,0.14886,0.044924,0.66498,1.1957,0.30087
224,0.15731,0.15373,0.14951,0.047523,1.2331,1.1827,0.31159
225,0.14496,0.11898,0.15991,0.11151,1.7446,1.1129,0.31289
226,0.13392,0.088124,0.17322,0.2044,2.0993,0.98492,0.30542
227,0.13425,0.063438,0.17907,0.2908,2.2426,0.82154,0.2908
228,0.14691,0.049147,0.16868,0.34375,2.1903,0.65426,0.26742
229,0.16218,0.048822,0.14107,0.35804,2.0224,0.5133,0.23429
230,0.16673,0.061489,0.10274,0.34862,1.8096,0.40903,0.19693
231,0.15568,0.079354,0.062464,0.32751,1.5572,0.33303,0.16088
232,0.12807,0.090397,0.029009,0.29568,1.2334,0.26969,0.13197
233,0.091372,0.090072,0.0059473,0.24923,0.83031,0.20603,0.10859
234,0.058566,0.081303,-0.010943,0.18589,0.38305,0.13295,0.089098
235,0.035505,0.065712,-0.026858,0.10924,-0.058365,0.046223,0.071558
236,0.022512,0.045574,-0.047646,0.023162,-0.44781,-0.054467,0.05207
237,0.023487,0.027709,-0.078503,-0.06616,-0.75638,-0.174,0.025761
238,0.042326,0.024461,-0.11456,-0.15483,-0.97595,-0.32081,-0.008669
239,0.073182,0.045574,-0.14541,-0.22467,-1.1224,-0.49393,-0.052518
240,0.10209,0.092671,-0.16068,-0.25877,-1.2273,-0.67128,-0.095717
241,0.11248,0.15373,-0.15288,-0.24643,-1.3001,-0.81549,-0.12592
242,0.094295,0.21025,-0.1217,-0.18569,-1.3079,-0.8915,-0.13697
243,0.055968,0.24598,-0.076554,-0.091495,-1.203,-0.88695,-0.13275
244,0.013743,0.25345,-0.038227,-0.0031473,-0.95841,-0.81517,-0.12398
245,-0.016789,0.23656,-0.026858,0.042975,-0.59332,-0.70668,-0.123
246,-0.030431,0.20116,-0.051868,0.033881,-0.15093,-0.59722,-0.13632
247,-0.029132,0.15731,-0.10416,-0.018413,0.32458,-0.51147,-0.16198
248,-0.022961,0.11671,-0.16685,-0.093444,0.78289,-0.45885,-0.18764
249,-0.023935,0.080003,-0.21785,-0.16977,1.1824,-0.43059,-0.20778
250,-0.036602,0.048172,-0.2435,-0.22726,1.5082,-0.40591,-0.21849
251,-0.052843,0.021213,-0.23896,-0.2552,1.769,-0.36011,-0.21362
252,-0.062912,0.0049729,-0.20323,-0.25227,1.9889,-0.27501,-0.19771
253,-0.06616,0.0059473,-0.14476,-0.22499,2.1867,-0.15093,-0.17984
254,-0.070058,0.017965,-0.069408,-0.18634,2.3511,-0.0011985,-0.16458
255,-0.075579,0.021213,0.016991,-0.14249,2.392,0.15081,-0.15093
256,-0.083375,0.00010078,0.10274,-0.096042,2.1429,0.27424,-0.13275
257,-0.084024,-0.045697,0.16738,-0.04992,1.4673,0.34115,-0.11001
258,-0.072981,-0.10351,0.19693,-0.0031473,0.3798,0.33335,-0.090845
259,-0.056741,-0.16328,0.19823,0.045574,-0.9243,0.25183,-0.079802
260,-0.04927,-0.21492,0.18264,0.095919,-2.1349,0.11508,-0.080451
261,-0.060313,-0.25487,0.15828,0.14626,-3.0047,-0.040825,-0.088896
262,-0.091495,-0.28118,0.12937,0.18037,-3.3743,-0.18471,-0.098641
263,-0.13502,-0.29417,0.10047,0.18654,-3.2087,-0.29872,-0.11033
264,-0.17757,-0.29353,0.071883,0.16056,-2.6282,-0.39064,-0.12365
265,-0.2081,-0.27761,0.041676,0.11573,-1.8662,-0.46957,-0.13502
266,-0.22109,-0.24318,0.01017,0.073507,-1.1556,-0.54817,-0.14216
267,-0.22272,-0.19348,-0.017439,0.053694,-0.65114,-0.61833,-0.14639
268,-0.21752,-0.13989,-0.028482,0.062464,-0.39616,-0.66738,-0.14411
269,-0.20485,-0.097341,-0.026209,0.09462,-0.32471,-0.69109,-0.13437
270,-0.18114,-0.071032,-0.019712,0.13262,-0.31691,-0.68589,-0.11293
271,-0.13664,-0.053817,-0.02361,0.15438,-0.26787,-0.64074,-0.080127
272,-0.069083,-0.03303,-0.042774,0.15568,-0.13437,-0.53713,-0.038227
273,0.011144,0.00075039,-0.070058,0.14367,0.064413,-0.3718,0.0065969
274,0.092671,0.044599,-0.088896,0.13132,0.28008,-0.16653,0.050446
275,0.15991,0.092996,-0.083375,0.131,0.4571,0.037454,0.086824
276,0.19856,0.1349,-0.050894,0.14432,0.53961,0.18979,0.11346
277,0.20278,0.16348,-0.0031473,0.15666,0.5055,0.2619,0.12288
278,0.18329,0.18004,0.040377,0.15309,0.3889,0.2489,0.11313
279,0.15406,0.18816,0.067336,0.13327,0.25248,0.1742,0.084226
280,0.12223,0.19174,0.074482,0.11183,0.14139,0.06831,0.047847
281,0.091372,0.18946,0.070259,0.10112,0.07708,-0.037577,0.016991
282,0.067011,0.16998,0.06019,0.10534,0.070259,-0.11878,-0.0031473
283,0.050121,0.12905,0.049472,0.10079,0.10826,-0.1636,-0.013866
284,0.044275,0.067011,0.03518,0.066037,0.14724,-0.17172,-0.015165
285,0.050446,-0.0044465,0.016991,0.013418,0.14042,-0.15743,-0.0050961
286,0.059216,-0.075255,-0.00022403,-0.026533,0.065387,-0.12722,0.01017
287,0.057267,-0.13827,-0.013541,-0.025234,-0.062912,-0.087597,0.025436
288,0.046223,-0.19576,-0.028807,0.016016,-0.21297,-0.047646,0.038428
289,0.028034,-0.25033,-0.050894,0.073182,-0.36628,-0.018413,0.048497
290,0.0020496,-0.30262,-0.072656,0.11768,-0.49361,-0.0057458,0.050446
291,-0.028807,-0.34744,-0.089871,0.14009,-0.53518,-0.0076946,0.044599
292,-0.062262,-0.37992,-0.093119,0.14302,-0.44196,-0.011917,0.033881
293,-0.090521,-0.3835,-0.078503,0.13814,-0.22402,-0.0096434,0.023812
294,-0.10384,-0.34744,-0.045047,0.13132,0.032582,0.0010752,0.01829
295,-0.10254,-0.27761,-0.0050961,0.11118,0.2096,0.011794,0.014068
296,-0.090521,-0.18926,0.026085,0.061489,0.22877,0.019264,0.009845
297,-0.071357,-0.094093,0.042975,-0.026533,0.07708,0.02706,0.0056225
298,-0.043099,-0.00054884,0.047523,-0.13112,-0.20063,0.041027,0.0043233
299,-0.00022403,0.092996,0.045899,-0.2068,-0.52609,0.065387,0.013418
300,0.054993,0.18654,0.038428,-0.2133,-0.82459,0.08585,0.031607
301,0.11378,0.26872,0.021213,-0.13794,-1.0597,0.084226,0.048822
302,0.15991,0.32426,-0.0054209,-0.0083442,-1.2309,0.045249,0.051745
303,0.18264,0.3457,-0.03238,0.12158,-1.3339,-0.02426,0.034855
304,0.17777,0.3327,-0.046022,0.20376,-1.3462,-0.10091,0.0065969
305,0.15081,0.29892,-0.039201,0.21707,-1.2299,-0.16035,-0.021337
306,0.11476,0.26092,-0.014191,0.17192,-0.94704,-0.19348,-0.04115
307,0.081627,0.23201,0.019914,0.092346,-0.5053,-0.20323,-0.054142
308,0.059865,0.20733,0.053369,0.0033489,0.025111,-0.19738,-0.059339
309,0.048822,0.17387,0.0852,-0.070382,0.54383,-0.18471,-0.052193
310,0.044275,0.1245,0.11508,-0.11228,0.96933,-0.17465,-0.034654
311,0.040052,0.067661,0.13782,-0.12105,1.2457,-0.16653,-0.011592
312,0.031932,0.022188,0.14626,-0.10774,1.3575,-0.15353,0.01017
313,0.020888,-0.0011985,0.14074,-0.0837,1.3334,-0.12398,0.023812
314,0.008221,-0.0073698,0.1219,-0.057715,1.2373,-0.068758,0.031282
315,-0.0050961,-0.0067202,0.09462,-0.029457,1.1389,0.011469,0.041676
316,-0.012242,0.0010752,0.066686,0.0049729,1.0746,0.10826,0.061814
317,-0.012242,0.023487,0.041351,0.047847,1.0382,0.20798,0.092346
318,-0.008669,0.056617,0.019264,0.09397,1.009,0.29697,0.12223
319,-0.007045,0.090072,0.00075039,0.13067,0.97225,0.35901,0.1362
320,-0.012242,0.11151,-0.019063,0.14367,0.9284,0.37883,0.12678
321,-0.020687,0.11768,-0.041475,0.12158,0.87318,0.35089,0.099167
322,-0.026858,0.11216,-0.067134,0.06961,0.78386,0.28106,0.065062
323,-0.022636,0.093645,-0.090196,0.0069217,0.6416,0.18914,0.033556
324,-0.0037969,0.058566,-0.10384,-0.047646,0.44704,0.10469,0.013093
325,0.028034,0.012119,-0.10059,-0.078827,0.22454,0.055643,0.011469
326,0.072208,-0.032055,-0.080776,-0.076879,0.009845,0.053694,0.031282
327,0.1232,-0.04992,-0.044723,-0.046996,-0.15873,0.097868,0.069934
328,0.17225,-0.029457,-0.0011985,-0.0096434,-0.25682,0.18492,0.11995
329,0.20798,0.020564,0.038103,0.015692,-0.29645,0.30055,0.17257
330,0.22552,0.080003,0.059216,0.016666,-0.30814,0.4152,0.21285
331,0.22779,0.1271,0.059216,-0.00054884,-0.31886,0.49543,0.22844
332,0.21707,0.15406,0.048822,-0.017114,-0.33218,0.52044,0.22032
333,0.19499,0.16673,0.04395,-0.020037,-0.34679,0.48861,0.19596
334,0.16348,0.1703,0.054344,-0.0050961,-0.38934,0.41845,0.16315
335,0.12093,0.15698,0.07773,0.022188,-0.49848,0.3405,0.12548
336,0.06961,0.12255,0.097868,0.05272,-0.66575,0.28073,0.087474
337,0.014392,0.06961,0.10112,0.081303,-0.81809,0.25313,0.057917
338,-0.038876,0.0075714,0.092996,0.10404,-0.85252,0.2606,0.043625
339,-0.080127,-0.044398,0.080653,0.1206,-0.69759,0.2934,0.040052
340,-0.10189,-0.073631,0.067011,0.1297,-0.35199,0.33498,0.045574
341,-0.095717,-0.071032,0.053044,0.13067,0.10924,0.37395,0.06084
342,-0.059664,-0.034329,0.042975,0.12125,0.56592,0.40026,0.086175
343,-0.0021729,0.021213,0.039078,0.10404,0.90826,0.41488,0.11411
344,0.061165,0.079354,0.042651,0.081952,1.0817,0.41293,0.13392
345,0.11151,0.1219,0.049796,0.056942,1.1038,0.38597,0.14074
346,0.13717,0.13912,0.055318,0.031282,1.0375,0.32361,0.13197
347,0.1284,0.13197,0.054019,0.0026992,0.94139,0.22714,0.10956
348,0.092996,0.11248,0.040052,-0.040175,0.8485,0.10566,0.079029
349,0.054344,0.096244,0.013093,-0.10254,0.76048,-0.019388,0.050446
350,0.037778,0.097543,-0.021661,-0.17465,0.66661,-0.1243,0.031282
351,0.051096,0.11963,-0.052843,-0.23668,0.55,-0.19543,0.021538
352,0.0852,0.15698,-0.070382,-0.26851,0.39344,-0.23441,0.013418
353,0.11995,0.19563,-0.073631,-0.26072,0.19011,-0.24448,-0.0011985
354,0.13652,0.22227,-0.066485,-0.21525,-0.047971,-0.23961,-0.024909
355,0.12515,0.22162,-0.056741,-0.14216,-0.28086,-0.22824,-0.050569
356,0.084876,0.18784,-0.045047,-0.049595,-0.4634,-0.21427,-0.071357
357,0.026085,0.1245,-0.030756,0.058241,-0.59072,-0.20063,-0.082076
358,-0.042449,0.043625,-0.018413,0.1742,-0.70668,-0.18959,-0.084999
359,-0.11163,-0.039201,-0.008669,0.28723,-0.85707,-0.18082,-0.080776
360,-0.17367,-0.11423,-0.0028225,0.37168,-1.0578,-0.17237,-0.071357
361,-0.22434,-0.17335,0.0014,0.40189,-1.2829,-0.16458,-0.059339
362,-0.25552,-0.21232,0.0043233,0.37493,-1.4755,-0.15321,-0.04115
363,-0.26007,-0.22824,0.0088706,0.3051,-1.5694,-0.13047,-0.016464
364,-0.23409,-0.21979,0.014392,0.21155,-1.5155,-0.086298,0.011794
365,-0.18147,-0.19121,0.018615,0.11021,-1.2998,-0.015165,0.039727
366,-0.11618,-0.15711,0.018615,0.01894,-0.94866,0.079029,0.062789
367,-0.052193,-0.1295,0.016341,-0.047321,-0.50822,0.17939,0.079679
368,0.0010752,-0.11521,0.019264,-0.078827,-0.035953,0.25962,0.087799
369,0.038103,-0.10774,0.033556,-0.068758,0.41098,0.30217,0.089423
370,0.06084,-0.098316,0.06084,-0.025559,0.76924,0.29762,0.081303
371,0.072533,-0.075255,0.092346,0.014717,0.99986,0.2489,0.061489
372,0.081627,-0.040175,0.11963,0.024137,1.1334,0.17062,0.031282
373,0.10209,-0.0021729,0.13587,0.0052977,1.2565,0.082927,0.00042559
374,0.14399,0.036804,0.13912,-0.021337,1.4523,0.0059473,-0.015815
375,0.20928,0.082927,0.13132,-0.038876,1.6878,-0.044723,-0.010943
376,0.28398,0.14334,0.12548,-0.032705,1.8249,-0.058689,0.011144
377,0.3444,0.21285,0.1323,-0.0034721,1.7502,-0.039851,0.039078
378,0.36973,0.28333,0.15503,0.037778,1.4728,-0.00087364,0.059216
379,0.35057,0.34505,0.19011,0.076755,1.0879,0.038753,0.06084
380,0.29438,0.39019,0.22552,0.10306,0.70786,0.057917,0.0433
381,0.22097,0.40968,0.24208,0.11378,0.39929,0.050771,0.014068
382,0.15146,0.40189,0.23429,0.10891,0.1729,0.024137,-0.01484
383,0.10144,0.37168,0.20928,0.090397,0.01894,-0.0047713,-0.03303
384,0.076755,0.33043,0.17712,0.061814,-0.0824,-0.020362,-0.03238
385,0.074482,0.29535,0.14854,0.028034,-0.16653,-0.020362,-0.018413
386,0.083901,0.27521,0.13035,-0.0089938,-0.25227,-0.016789,0.0017248
387,0.086824,0.26742,0.11931,-0.046347,-0.32828,-0.020362,0.01894
388,0.071883,0.25767,0.10794,-0.080451,-0.35946,-0.031081,0.024786
389,0.038428,0.22682,0.090072,-0.10286,-0.3312,-0.045697,0.021213
390,-0.0044465,0.1651,0.061165,-0.11131,-0.26104,-0.061288,0.012119
391,-0.049595,0.075456,0.024137,-0.10676,-0.19154,-0.074605,0.0033489
392,-0.098965,-0.030431,-0.014516,-0.10124,-0.15938,-0.082076,-0.0031473
393,-0.15386,-0.1334,-0.048945,-0.10741,-0.17724,-0.084999,-0.0060706
394,-0.20843,-0.21687,-0.075255,-0.1243,-0.23149,-0.084999,-0.0044465
395,-0.25357,-0.26689,-0.094093,-0.14184,-0.30359,-0.082076,-0.00087364
396,-0.27728,-0.28216,-0.10676,-0.15646,-0.38869,-0.081751,-0.0011985
397,-0.27371,-0.27176,-0.11358,-0.1675,-0.49588,-0.09117,-0.011267
398,-0.2474,-0.25422,-0.1178,-0.17724,-0.62483,-0.11326,-0.034004
399,-0.20648,-0.23798,-0.12495,-0.18439,-0.75865,-0.14736,-0.064536
400,-0.16198,-0.22304,-0.13275,-0.18569,-0.86259,-0.18244,-0.087922
401,-0.1191,-0.20843,-0.13924,-0.18179,-0.90611,-0.20388,-0.091495
402,-0.080776,-0.19251,-0.14801,-0.17659,-0.87558,-0.20583,-0.072981
403,-0.050894,-0.17562,-0.161,-0.17465,-0.77911,-0.18829,-0.042124
404,-0.030106,-0.15321,-0.17367,-0.17659,-0.64172,-0.15938,-0.011267
405,-0.020687,-0.12625,-0.17887,-0.17724,-0.49653,-0.12885,0.014392
406,-0.023285,-0.098316,-0.17659,-0.17952,-0.3705,-0.10156,0.032257
407,-0.034329,-0.075904,-0.1753,-0.18699,-0.28313,-0.078503,0.041027
408,-0.043099,-0.067784,-0.18212,-0.20096,-0.24415,-0.060638,0.037454
409,-0.042449,-0.076229,-0.19478,-0.21525,-0.24773,-0.047321,0.02706
410,-0.030431,-0.096367,-0.20713,-0.22499,-0.28313,-0.034654,0.01764
411,-0.01484,-0.11715,-0.21232,-0.21817,-0.33283,-0.021661,0.018615
412,-0.0073698,-0.12917,-0.2055,-0.18601,-0.36921,-0.010943,0.031282
413,-0.010293,-0.12495,-0.18114,-0.13112,-0.36563,-0.0054209,0.047847
414,-0.01484,-0.10514,-0.14216,-0.066485,-0.30197,-0.0041217,0.057917
415,-0.020362,-0.072981,-0.095068,-0.0015233,-0.17887,-0.0018481,0.056942
416,-0.034004,-0.040825,-0.050894,0.057917,-0.011917,0.013418,0.047523
417,-0.053168,-0.013216,-0.010943,0.11638,0.1677,0.043625,0.038103
418,-0.065186,0.016341,0.023487,0.18459,0.3314,0.084226,0.033881
419,-0.062587,0.054993,0.046223,0.26547,0.45126,0.11281,0.029658
420,-0.046347,0.096244,0.054668,0.3457,0.50648,0.11703,0.023812
421,-0.021337,0.12645,0.050771,0.40254,0.49056,0.09397,0.011794
422,0.0062721,0.13067,0.040702,0.42625,0.42527,0.052395,-0.007045
423,0.026085,0.10631,0.029983,0.4282,0.33725,0.0043233,-0.027833
424,0.033231,0.071883,0.022837,0.42917,0.24468,-0.034978,-0.042124
425,0.036804,0.055968,0.021863,0.44314,0.15309,-0.059339,-0.042449
426,0.05207,0.06961,0.023162,0.46945,0.065062,-0.061288,-0.021337
427,0.087149,0.098517,0.025761,0.49543,-0.0096434,-0.042774,0.015367
428,0.13262,0.1206,0.02641,0.50648,-0.052193,-0.013866,0.055643
429,0.17225,0.12483,0.024461,0.49478,-0.053817,0.016666,0.086824
430,0.19661,0.11411,0.022188,0.45743,-0.023935,0.0433,0.10599
431,0.20246,0.088124,0.022188,0.39312,0.0039985,0.06961,0.11541
432,0.19758,0.053044,0.028359,0.31322,0.0085458,0.095919,0.11768
433,0.19206,0.018615,0.04395,0.23818,-0.017439,0.11476,0.11541
434,0.19109,0.003024,0.068635,0.19174,-0.059989,0.11768,0.10631
435,0.19726,0.013743,0.090722,0.18816,-0.10059,0.096569,0.090722
436,0.20473,0.047847,0.10404,0.21675,-0.1269,0.047198,0.067986
437,0.20408,0.089748,0.10729,0.24793,-0.13989,-0.02361,0.039727
438,0.18394,0.11995,0.10242,0.25475,-0.15321,-0.095717,0.0046481
439,0.14139,0.13652,0.095594,0.23169,-0.18439,-0.14996,-0.035628
440,0.080978,0.14886,0.092021,0.18297,-0.24253,-0.17562,-0.072981
441,0.01829,0.1664,0.098193,0.11866,-0.31594,-0.17237,-0.098965
442,-0.022311,0.19369,0.11508,0.047523,-0.38739,-0.15516,-0.11196
443,-0.028482,0.22487,0.13814,-0.026858,-0.44521,-0.14087,-0.11196
444,-0.0063954,0.2489,0.16153,-0.096367,-0.48516,-0.13892,-0.10221
445,0.026735,0.25085,0.17842,-0.15808,-0.49978,-0.15158,-0.086623
446,0.05142,0.22032,0.18329,-0.2107,-0.48451,-0.16782,-0.070058
447,0.056942,0.16283,0.1742,-0.24805,-0.44748,-0.17724,-0.059339
448,0.044275,0.090072,0.15731,-0.26787,-0.39844,-0.16912,-0.05804
449,0.022837,0.024137,0.1362,-0.26722,-0.3377,-0.13859,-0.060963
450,0.0033489,-0.020037,0.11573,-0.24643,-0.25487,-0.084999,-0.063561
451,-0.0028225,-0.042124,0.096244,-0.20615,-0.13145,-0.0076946,-0.059014
452,0.0062721,-0.046022,0.079029,-0.14996,0.061814,0.093321,-0.044723
453,0.02706,-0.038227,0.06961,-0.079802,0.35057,0.2122,-0.021337
454,0.048822,-0.021337,0.06896,-0.0067202,0.71013,0.33628,0.0069217
455,0.070909,-0.00022403,0.074157,0.057592,1.0635,0.44671,0.034855
456,0.094295,0.02641,0.081303,0.10826,1.3328,0.52272,0.058891
457,0.11703,0.058566,0.089748,0.15081,1.4721,0.55455,0.075131
458,0.13522,0.093321,0.094295,0.19141,1.4757,0.54838,0.081952
459,0.14139,0.11833,0.089748,0.22584,1.376,0.52207,0.081303
460,0.13327,0.11995,0.073182,0.24176,1.2097,0.49836,0.082602
461,0.11183,0.089748,0.045574,0.22812,1.0002,0.48699,0.087474
462,0.074806,0.031282,0.011794,0.18297,0.74846,0.48406,0.091372
463,0.022512,-0.044398,-0.017114,0.11898,0.4675,0.4701,0.092346
464,-0.043099,-0.13437,-0.030431,0.057592,0.20083,0.42787,0.092346
465,-0.11521,-0.23733,-0.022636,0.015042,0.028034,0.35219,0.092671
466,-0.18179,-0.34452,0.00042559,-0.00087364,-0.015815,0.25702,0.093321
467,-0.23019,-0.43547,0.02706,0.0049729,0.03518,0.15861,0.095594
468,-0.24773,-0.48679,0.046223,0.020239,0.10436,0.062789,0.098842
469,-0.24091,-0.48679,0.053369,0.03583,0.12158,-0.031406,0.10112
470,-0.22791,-0.44846,0.046873,0.044275,0.053044,-0.1256,0.10047
471,-0.22077,-0.38707,0.031607,0.040702,-0.09182,-0.21557,0.095919
472,-0.22012,-0.31496,0.012119,0.023812,-0.27404,-0.28865,0.083901
473,-0.21395,-0.24253,-0.0057458,-0.0060706,-0.44001,-0.32633,0.066037
474,-0.19543,-0.17659,-0.014516,-0.047971,-0.53778,-0.31821,0.047198
475,-0.16912,-0.1269,-0.013866,-0.094093,-0.5459,-0.26851,0.033881
476,-0.13989,-0.09929,-0.0093186,-0.13112,-0.47834,-0.18861,0.030957
477,-0.11391,-0.09182,-0.010618,-0.14801,-0.37473,-0.10059,0.038428
478,-0.094093,-0.093444,-0.025234,-0.15061,-0.27241,-0.021986,0.050121
479,-0.085973,-0.094418,-0.050569,-0.14866,-0.19511,0.034206,0.055968
480,-0.088896,-0.088572,-0.079802,-0.15483,-0.14671,0.061489,0.050771
481,-0.095068,-0.07428,-0.10579,-0.1727,-0.11683,0.061489,0.032582
482,-0.097991,-0.053817,-0.12625,-0.19933,-0.09929,0.042326,0.0059473
483,-0.087922,-0.028807,-0.14281,-0.22986,-0.093769,0.01764,-0.023285
484,-0.064861,-0.00054884,-0.15158,-0.25845,-0.097017,0.00042559,-0.04927
485,-0.039851,0.034855,-0.14931,-0.27891,-0.10026,-0.0054209,-0.068758
486,-0.026209,0.074157,-0.13599,-0.28573,-0.09182,-0.0018481,-0.081751
487,-0.028807,0.11151,-0.10936,-0.27858,-0.057065,0.0026992,-0.09117
488,-0.037902,0.14756,-0.069733,-0.25585,0.017965,-0.007045,-0.09994
489,-0.039851,0.18134,-0.025234,-0.22207,0.12937,-0.040825,-0.10871
490,-0.025884,0.2135,0.015367,-0.19154,0.24825,-0.10189,-0.11943
491,0.00075039,0.24566,0.042001,-0.1714,0.32848,-0.18569,-0.12625
492,0.038428,0.27749,0.053694,-0.161,0.3327,-0.27404,-0.1282
493,0.084876,0.30672,0.057267,-0.14866,0.25605,-0.34549,-0.12365
494,0.13327,0.32913,0.062139,-0.1269,0.13782,-0.38512,-0.11033
495,0.1768,0.3405,0.067661,-0.092469,0.038753,-0.38512,-0.082076
496,0.20928,0.33693,0.062464,-0.046671,0.0023744,-0.34907,-0.037902
497,0.22974,0.31744,0.037454,-0.011917,0.035505,-0.28995,0.01829
498,0.23818,0.28918,-0.0060706,-0.0041217,0.10534,-0.22694,0.074806
499,0.23591,0.25378,-0.055116,-0.026209,0.15633,-0.18504,0.1219
500,0.21935,0.20473,-0.087597,-0.060638,0.14821,-0.18439,0.15146
501,0.18946,0.12937,-0.090196,-0.074605,0.076755,-0.23149,0.1651
502,0.14854,0.021863,-0.070058,-0.059339,-0.03238,-0.31594,0.16185
503,0.10079,-0.11391,-0.050244,-0.031081,-0.14314,-0.42085,0.14334
504,0.053044,-0.25487,-0.046347,-0.018088,-0.22337,-0.52544,0.11281
505,0.0072465,-0.36856,-0.055116,-0.03238,-0.26202,-0.60567,0.073182
506,-0.033354,-0.42735,-0.063237,-0.060963,-0.27664,-0.63912,0.032582
507,-0.064211,-0.42475,-0.058365,-0.077528,-0.31171,-0.61606,-0.0034721
508,-0.077528,-0.3757,-0.042774,-0.058689,-0.40234,-0.54395,-0.030106
509,-0.076229,-0.30067,-0.021986,-0.0031473,-0.52998,-0.44034,-0.047321
510,-0.061613,-0.21232,0.00042559,0.06961,-0.62126,-0.32503,-0.050244
511,-0.0405,-0.11813,0.024137,0.13587,-0.61119,-0.21427,-0.039201
512,-0.022961,-0.025234,0.049147,0.18394,-0.4962,-0.12105,-0.017764
513,-0.01484,0.057592,0.069285,0.21577,-0.32438,-0.046671,0.008221
514,-0.01484,0.12353,0.081303,0.23136,-0.18082,0.011144,0.032906
515,-0.021661,0.15991,0.080978,0.22714,-0.15353,0.060515,0.047523
516,-0.028482,0.16185,0.064413,0.19499,-0.28378,0.099492,0.040702
517,-0.037252,0.13749,0.033556,0.13262,-0.53973,0.11086,0.0088706
518,-0.046671,0.099167,-0.0047713,0.049472,-0.84212,0.084551,-0.0405
519,-0.05804,0.057592,-0.037252,-0.035628,-1.0994,0.033881,-0.088896
520,-0.069733,0.019589,-0.053168,-0.10221,-1.2338,-0.013216,-0.1217
521,-0.078178,-0.0096434,-0.048296,-0.13567,-1.201,-0.035628,-0.13404
522,-0.079802,-0.025559,-0.029132,-0.13599,-1.0081,-0.02361,-0.1308
523,-0.073955,-0.031081,-0.0018481,-0.11715,-0.71772,0.020239,-0.11586
524,-0.057715,-0.025884,0.029333,-0.090521,-0.41468,0.078379,-0.089871
525,-0.030431,-0.0073698,0.063438,-0.063886,-0.16198,0.13457,-0.055116
526,0.0065969,0.030633,0.097868,-0.043099,0.021538,0.17745,-0.016464
527,0.045574,0.091372,0.13262,-0.026533,0.14691,0.20408,0.01764
528,0.076755,0.1638,0.16283,-0.0080194,0.23883,0.21675,0.041351
529,0.092346,0.22682,0.18102,0.015367,0.31289,0.22552,0.050121
530,0.087799,0.25767,0.17939,0.057267,0.36876,0.24403,0.046548
531,0.069285,0.2515,0.15861,0.11898,0.39149,0.27326,0.036804
532,0.052395,0.22519,0.12255,0.18719,0.36518,0.31419,0.027709
533,0.048497,0.2044,0.079029,0.24923,0.28658,0.36194,0.022837
534,0.061489,0.20311,0.033556,0.29243,0.1781,0.41196,0.022188
535,0.0865,0.21837,-0.0096434,0.30477,0.076431,0.45775,0.027709
536,0.11508,0.23981,-0.0405,0.28333,0.0088706,0.48439,0.038753
537,0.13944,0.2502,-0.055116,0.24013,-0.026209,0.47205,0.054344
538,0.15633,0.24111,-0.053168,0.19466,-0.053168,0.4178,0.072858
539,0.16705,0.21805,-0.03238,0.16218,-0.10124,0.34017,0.091372
540,0.17192,0.19044,0.0059473,0.15341,-0.17172,0.27099,0.11118
541,0.17452,0.16933,0.056942,0.1677,-0.22597,0.23948,0.12548
542,0.17485,0.15893,0.11346,0.19888,-0.19641,0.26774,0.13067
543,0.16445,0.15698,0.15633,0.23039,-0.022311,0.34927,0.12645
544,0.13944,0.15049,0.1638,0.24825,0.31322,0.45743,0.11898
545,0.10339,0.12255,0.13295,0.24663,0.74196,0.55487,0.11411
546,0.070584,0.072208,0.075131,0.22519,1.1353,0.61691,0.11281
547,0.05272,0.016991,0.0091954,0.19011,1.3727,0.6364,0.11086
548,0.05272,-0.023285,-0.045047,0.14886,1.4176,0.62438,0.10242
549,0.067011,-0.036602,-0.072656,0.11313,1.3091,0.59287,0.089098
550,0.086175,-0.026533,-0.068758,0.086824,1.1191,0.54805,0.074806
551,0.10306,-0.0041217,-0.042124,0.066686,0.93132,0.48861,0.061814
552,0.10209,0.0085458,-0.0063954,0.050446,0.79166,0.4191,0.054019
553,0.074482,-0.0060706,0.029333,0.037454,0.68837,0.35154,0.05272
554,0.024461,-0.046022,0.063763,0.031607,0.62341,0.29697,0.055318
555,-0.03173,-0.089871,0.09462,0.040377,0.64777,0.26287,0.061489
556,-0.075904,-0.11553,0.12288,0.065387,0.79718,0.25215,0.06896
557,-0.094418,-0.11326,0.15114,0.10047,1.034,0.24923,0.075131
558,-0.087597,-0.087272,0.17322,0.12678,1.2698,0.22649,0.072858
559,-0.069408,-0.059339,0.17777,0.12645,1.4354,0.16088,0.055318
560,-0.054142,-0.043423,0.1638,0.091696,1.5001,0.046873,0.019589
561,-0.04862,-0.042449,0.1349,0.030957,1.4523,-0.10059,-0.025559
562,-0.050569,-0.045697,0.098842,-0.03173,1.2863,-0.2487,-0.06551
563,-0.052843,-0.042774,0.065712,-0.069733,1.0099,-0.36401,-0.086948
564,-0.046671,-0.03238,0.042975,-0.070382,0.66791,-0.42345,-0.079152
565,-0.020362,-0.014191,0.032257,-0.036602,0.3379,-0.4228,-0.046996
566,0.023812,0.017965,0.030633,0.011794,0.072533,-0.37927,-0.0044465
567,0.080003,0.071558,0.029983,0.055318,-0.13469,-0.32633,0.034855
568,0.13847,0.15438,0.023812,0.083251,-0.31204,-0.29872,0.058566
569,0.19271,0.26482,0.016016,0.092996,-0.48808,-0.31139,0.062789
570,0.23396,0.38435,0.012119,0.091372,-0.67258,-0.35199,0.055643
571,0.26027,0.48699,0.014717,0.089098,-0.85122,-0.39194,0.047523
572,0.27132,0.54805,0.022837,0.094295,-0.99738,-0.40721,0.045574
573,0.27521,0.55715,0.032257,0.10404,-1.0948,-0.39162,0.051096
574,0.27456,0.51784,0.03583,0.10794,-1.1341,-0.35296,0.057917
575,0.26677,0.43697,0.026085,0.095594,-1.0935,-0.30782,0.061165
576,0.2463,0.32946,-0.0044465,0.055643,-0.93989,-0.26949,0.053044
577,0.21415,0.2122,-0.051544,-0.012567,-0.63035,-0.24448,0.034855
578,0.1755,0.10599,-0.09929,-0.10059,-0.15386,-0.22499,0.015042
579,0.13684,0.029009,-0.13372,-0.18147,0.4191,-0.20096,0.0043233
580,0.10274,-0.010618,-0.14444,-0.22499,0.94464,-0.16523,0.0088706
581,0.076106,-0.010943,-0.12917,-0.21102,1.2792,-0.12333,0.031607
582,0.056292,0.01894,-0.09929,-0.15191,1.3474,-0.089546,0.067011
583,0.04395,0.063438,-0.070707,-0.078827,1.1678,-0.077203,0.10371
584,0.040702,0.10274,-0.057065,-0.024909,0.82284,-0.089546,0.13132
585,0.047847,0.12353,-0.059989,-0.00087364,0.39604,-0.12527,0.14042
586,0.065387,0.12288,-0.076229,0.014068,-0.058365,-0.17919,0.13165
587,0.087474,0.11054,-0.095717,0.044599,-0.49296,-0.23831,0.10664
588,0.11248,0.10014,-0.11358,0.10729,-0.87785,-0.28053,0.070259
589,0.13944,0.10306,-0.13047,0.19563,-1.203,-0.28443,0.034206
590,0.16315,0.1206,-0.14671,0.29178,-1.4521,-0.23344,0.010495
591,0.18069,0.14561,-0.15776,0.36811,-1.5859,-0.1243,0.01017
592,0.18719,0.1677,-0.16328,0.39896,-1.5664,0.022512,0.028684
593,0.17452,0.1781,-0.16263,0.36616,-1.407,0.17907,0.05142
594,0.13522,0.16543,-0.14964,0.27846,-1.1673,0.31289,0.064737
595,0.069285,0.11995,-0.11196,0.17745,-0.93762,0.39539,0.061489
596,-0.010293,0.042975,-0.041799,0.10501,-0.78626,0.41261,0.044599
597,-0.081101,-0.051544,0.049796,0.082277,-0.70863,0.37363,0.029009
598,-0.12495,-0.14411,0.13425,0.10404,-0.64594,0.3038,0.024137
599,-0.14314,-0.23506,0.17582,0.14107,-0.53681,0.22844,0.034855
600,-0.15841,-0.33705,0.15666,0.15991,-0.34647,0.16121,0.046548
601,-0.19089,-0.45073,0.087799,0.14919,-0.090845,0.097218,0.041027
602,-0.24513,-0.56247,0.0052977,0.11963,0.15958,0.027385,0.012119
603,-0.30717,-0.64919,-0.056416,0.090722,0.33823,-0.049595,-0.034978
604,-0.35784,-0.69304,-0.080127,0.080328,0.43307,-0.1256,-0.088247
605,-0.38122,-0.68232,-0.067459,0.086175,0.46328,-0.18666,-0.13275
606,-0.37213,-0.62288,-0.032705,0.087474,0.45678,-0.22532,-0.1597
607,-0.33802,-0.53583,0.0065969,0.068635,0.44249,-0.23831,-0.16425
608,-0.29255,-0.44878,0.037454,0.026085,0.43339,-0.23149,-0.15029
609,-0.2474,-0.3796,0.057592,-0.033354,0.41391,-0.21395,-0.12463
610,-0.20485,-0.33315,0.066362,-0.097017,0.35447,-0.19283,-0.097017
611,-0.1662,-0.30002,0.066362,-0.15191,0.24241,-0.174,-0.075904
612,-0.13307,-0.27144,0.062139,-0.19024,0.095269,-0.161,-0.065186
613,-0.10741,-0.23896,0.059865,-0.2094,-0.052193,-0.15418,-0.063561
614,-0.087272,-0.19316,0.063763,-0.21102,-0.16718,-0.15061,-0.06681
615,-0.069733,-0.13177,0.073507,-0.20031,-0.22661,-0.14671,-0.067459
616,-0.050894,-0.055116,0.084551,-0.18569,-0.23376,-0.13827,-0.060638
617,-0.025559,0.032582,0.095269,-0.17562,-0.21037,-0.12105,-0.043748
618,0.0069217,0.12418,0.10274,-0.17172,-0.18212,-0.096367,-0.020362
619,0.041676,0.2044,0.10079,-0.16847,-0.1623,-0.068109,0.00010078
620,0.067986,0.25832,0.09397,-0.16035,-0.15548,-0.039201,0.0069217
621,0.078379,0.27944,0.08585,-0.14996,-0.14476,-0.011917,-0.0015233
622,0.070584,0.26514,0.078055,-0.13827,-0.1295,0.016341,-0.01614
623,0.051096,0.22097,0.072208,-0.1308,-0.16133,0.047198,-0.028157
624,0.025111,0.15341,0.065062,-0.12495,-0.26234,0.078379,-0.032705
625,-0.0034721,0.075781,0.054668,-0.11683,-0.38187,0.099817,-0.03173
626,-0.032055,0.0062721,0.042326,-0.10709,-0.45528,0.10599,-0.03303
627,-0.058689,-0.040825,0.03583,-0.095717,-0.44683,0.093645,-0.040825
628,-0.072981,-0.053817,0.037454,-0.081751,-0.36044,0.072533,-0.051544
629,-0.068434,-0.027508,0.041676,-0.060963,-0.23863,0.05142,-0.058689
630,-0.044723,0.029983,0.047198,-0.0405,-0.14087,0.033881,-0.05804
631,-0.011592,0.093645,0.049472,-0.028807,-0.095393,0.01764,-0.051219
632,0.013093,0.13879,0.045574,-0.03173,-0.098965,-0.00022403,-0.038551
633,0.019589,0.16218,0.038428,-0.043099,-0.12657,-0.014191,-0.024585
634,0.015692,0.17387,0.030957,-0.051544,-0.14736,-0.01484,-0.011592
635,0.014068,0.19109,0.030308,-0.044398,-0.13762,-0.0018481,0.0026992
636,0.020564,0.22454,0.042326,-0.026858,-0.10026,0.019589,0.020564
637,0.033881,0.27326,0.062464,-0.017439,-0.048945,0.045899,0.039727
638,0.049472,0.32361,0.0852,-0.038227,0.010819,0.073182,0.061814
639,0.064737,0.35869,0.10339,-0.085973,0.065062,0.099167,0.086824
640,0.081952,0.37006,0.11541,-0.13534,0.094945,0.1219,0.12093
641,0.10306,0.36129,0.12223,-0.15743,0.091372,0.13879,0.169
642,0.12093,0.33011,0.11963,-0.14606,0.051096,0.13912,0.21512
643,0.12418,0.27229,0.10274,-0.12105,-0.010293,0.10534,0.23818
644,0.10696,0.19076,0.071558,-0.09929,-0.064536,0.027385,0.22
645,0.076431,0.096569,0.030957,-0.084674,-0.087922,-0.088572,0.15731
646,0.045574,0.009845,-0.0096434,-0.075255,-0.079802,-0.21752,0.066686
647,0.020888,-0.058365,-0.042449,-0.071032,-0.055116,-0.32925,-0.025884
648,-0.00054884,-0.10286,-0.065186,-0.071357,-0.03238,-0.40006,-0.10254
649,-0.026209,-0.12625,-0.080776,-0.069733,-0.019063,-0.41825,-0.15516
650,-0.060963,-0.13307,-0.086298,-0.055441,0.0043233,-0.38674,-0.18504
651,-0.097341,-0.12787,-0.080451,-0.021661,0.070909,-0.30847,-0.19121
652,-0.12722,-0.11293,-0.064861,0.019914,0.20863,-0.18666,-0.16782
653,-0.14087,-0.091495,-0.050244,0.048822,0.40871,-0.023935,-0.11228
654,-0.13112,-0.071357,-0.044398,0.057267,0.61951,0.16056,-0.036278
655,-0.10221,-0.064536,-0.050244,0.057592,0.7621,0.33205,0.038103
656,-0.06681,-0.078503,-0.062912,0.061814,0.76502,0.44931,0.092021
657,-0.040825,-0.10676,-0.073631,0.071234,0.59742,0.48634,0.11638
658,-0.034978,-0.13892,-0.076229,0.079679,0.28756,0.44541,0.11768
659,-0.048296,-0.16165,-0.075255,0.084876,-0.073631,0.35609,0.10599
660,-0.06616,-0.1662,-0.076879,0.093645,-0.37213,0.26384,0.091696
661,-0.069408,-0.14639,-0.084024,0.10631,-0.52869,0.19661,0.083576
662,-0.048296,-0.097341,-0.09182,0.12353,-0.52154,0.15438,0.091372
663,-0.0050961,-0.019063,-0.088572,0.15114,-0.37343,0.11086,0.11151
664,0.054344,0.07708,-0.069083,0.18394,-0.14314,0.036154,0.13555
665,0.11995,0.1729,-0.035628,0.20538,0.078704,-0.071032,0.15536
666,0.17939,0.2502,-0.0041217,0.18589,0.207,-0.18049,0.17225
667,0.22357,0.29697,0.016666,0.11443,0.20083,-0.25812,0.18687
668,0.24338,0.30769,0.021538,0.0062721,0.064737,-0.28735,0.19628
669,0.23754,0.28463,0.012119,-0.10449,-0.1727,-0.27274,0.19271
670,0.2083,0.23786,-0.0073698,-0.18504,-0.46178,-0.23474,0.1703
671,0.15991,0.17387,-0.02426,-0.22597,-0.72389,-0.19283,0.13262
672,0.10274,0.096569,-0.025884,-0.23766,-0.86941,-0.14801,0.0865
673,0.04395,0.0056225,-0.011592,-0.23441,-0.83888,-0.095393,0.043625
674,-0.0050961,-0.09182,0.0085458,-0.21265,-0.64854,-0.030106,0.013418
675,-0.039526,-0.18147,0.021863,-0.16133,-0.39616,0.041676,-0.00087364
676,-0.064211,-0.24708,0.019914,-0.065835,-0.19738,0.11378,-0.0015233
677,-0.084349,-0.28118,0.0065969,0.077405,-0.12203,0.18037,0.0059473
678,-0.097991,-0.28053,-0.0083442,0.24208,-0.17075,0.23656,0.015367
679,-0.097666,-0.24838,-0.016464,0.38045,-0.27988,0.28301,0.023812
680,-0.077853,-0.18861,-0.013216,0.45905,-0.34192,0.3327,0.032257
681,-0.040175,-0.11326,0.0010752,0.47659,-0.25195,0.39799,0.037454
682,0.0065969,-0.037902,0.022188,0.45256,0.031932,0.48601,0.039727
683,0.055643,0.017316,0.045899,0.40351,0.4597,0.5932,0.041027
684,0.098193,0.047198,0.064737,0.34602,0.9336,0.70688,0.046873
685,0.12223,0.054993,0.075456,0.29373,1.3523,0.80173,0.062464
686,0.12645,0.049472,0.078704,0.25378,1.6485,0.85012,0.079679
687,0.11216,0.037129,0.081303,0.22779,1.8034,0.83128,0.0865
688,0.085525,0.020239,0.08585,0.20635,1.8346,0.73741,0.071234
689,0.055968,0.0026992,0.092996,0.18199,1.7658,0.57923,0.036479
690,0.033881,-0.010293,0.096244,0.15114,1.6254,0.3863,-0.0063954
691,0.024786,-0.014191,0.090072,0.11541,1.4565,0.20603,-0.045697
692,0.030957,-0.015165,0.076755,0.0865,1.3026,0.076431,-0.068109
693,0.045899,-0.017114,0.065062,0.074806,1.1853,0.014717,-0.065186
694,0.065712,-0.019712,0.06084,0.083576,1.0889,0.016991,-0.037902
695,0.089423,-0.021012,0.065712,0.10014,0.94756,0.049147,0.0065969
696,0.11021,-0.019388,0.075456,0.11086,0.66498,0.073182,0.054668
697,0.13035,-0.010618,0.089748,0.11346,0.15731,0.06896,0.094945
698,0.14724,0.0059473,0.11151,0.12028,-0.54233,0.033881,0.12223
699,0.15568,0.028684,0.13912,0.13912,-1.2228,-0.020687,0.13035
700,0.15341,0.05272,0.16705,0.16868,-1.6447,-0.079152,0.1245
701,0.13717,0.071883,0.18589,0.19304,-1.6831,-0.13502,0.10859
702,0.11054,0.083576,0.18751,0.19401,-1.3401,-0.18049,0.087474
703,0.079029,0.091047,0.17095,0.17095,-0.71545,-0.20778,0.064088
704,0.055968,0.097543,0.14432,0.13684,0.021538,-0.212,0.042326
705,0.048822,0.10339,0.11963,0.10599,0.67895,-0.19966,0.023812
706,0.05142,0.10696,0.10177,0.081627,1.1061,-0.18407,0.0088706
707,0.054668,0.10989,0.088773,0.060515,1.2357,-0.17627,-0.008669
708,0.047847,0.11021,0.079029,0.03518,1.0921,-0.17887,-0.030431
709,0.030633,0.10924,0.071234,0.0014,0.78711,-0.19413,-0.053168
710,0.009845,0.10534,0.060515,-0.038227,0.4636,-0.21395,-0.070707
711,-0.0050961,0.10339,0.049472,-0.074605,0.23461,-0.22629,-0.079802
712,-0.0047713,0.10891,0.038103,-0.10319,0.14724,-0.22077,-0.078178
713,0.012443,0.1245,0.025436,-0.12495,0.18167,-0.20128,-0.06551
714,0.039727,0.14886,0.011794,-0.14152,0.26287,-0.17659,-0.047646
715,0.067986,0.17745,-0.00054884,-0.14964,0.30672,-0.15613,-0.030431
716,0.093645,0.20278,-0.0080194,-0.14152,0.25637,-0.14444,-0.01549
717,0.11313,0.2174,-0.007045,-0.11521,0.090072,-0.13924,0.0020496
718,0.12158,0.22,0.0020496,-0.077528,-0.16133,-0.13794,0.019589
719,0.11054,0.2122,0.016991,-0.040825,-0.43352,-0.13762,0.025436
720,0.074482,0.19628,0.029009,-0.010943,-0.6651,-0.14087,0.015042
721,0.01829,0.16965,0.028359,0.0056225,-0.82848,-0.14834,-0.012892
722,-0.045697,0.1297,0.011794,0.0046481,-0.94314,-0.1623,-0.051219
723,-0.097991,0.080003,-0.019712,-0.013541,-1.0442,-0.17854,-0.087597
724,-0.12787,0.025436,-0.058365,-0.034978,-1.1439,-0.19121,-0.10968
725,-0.1282,-0.022961,-0.092145,-0.04862,-1.2137,-0.19511,-0.11098
726,-0.10059,-0.05804,-0.11326,-0.048296,-1.2176,-0.18666,-0.095393
727,-0.052193,-0.071357,-0.12333,-0.037577,-1.1487,-0.16393,-0.07493
728,-0.00054884,-0.065835,-0.12527,-0.021661,-1.0224,-0.13242,-0.057715
729,0.038428,-0.039201,-0.11618,-0.0050961,-0.86161,-0.097666,-0.0405
730,0.055643,0.010819,-0.097991,0.0091954,-0.69239,-0.068109,-0.019063
731,0.049796,0.078704,-0.075255,0.022188,-0.55597,-0.055766,0.0023744
732,0.022188,0.14984,-0.052193,0.032582,-0.50497,-0.073631,0.013418
733,-0.017439,0.20051,-0.03173,0.033881,-0.57936,-0.12527,0.0078962
734,-0.054792,0.21447,-0.020037,0.030308,-0.7632,-0.19868,-0.018738
735,-0.077853,0.18232,-0.01549,0.031282,-0.97822,-0.27079,-0.056091
736,-0.079152,0.11248,-0.0080194,0.049796,-1.1215,-0.32048,-0.087272
737,-0.05804,0.032906,0.0023744,0.080978,-1.1484,-0.3312,-0.094093
738,-0.020687,-0.026533,0.0078962,0.09462,-1.0971,-0.30392,-0.077203
739,0.022837,-0.053168,-0.00087364,0.06084,-1.0552,-0.25617,-0.048296
740,0.061489,-0.051868,-0.027508,-0.026533,-1.0773,-0.20615,-0.022636
741,0.085525,-0.028482,-0.065835,-0.13957,-1.1533,-0.16718,-0.0099683
742,0.090722,0.0059473,-0.098965,-0.24123,-1.2283,-0.13794,-0.011267
743,0.075456,0.037129,-0.11521,-0.29937,-1.2426,-0.10871,-0.023935
744,0.040702,0.05142,-0.10806,-0.30262,-1.1565,-0.069083,-0.037577
745,-0.0063954,0.038103,-0.079802,-0.25747,-0.94899,-0.0073698,-0.041799
746,-0.055116,-0.0080194,-0.042449,-0.18569,-0.61314,0.077405,-0.03303
747,-0.090196,-0.084349,-0.010618,-0.11066,-0.14509,0.17355,-0.012892
748,-0.10124,-0.1714,0.0010752,-0.047321,0.43957,0.27261,0.0069217
749,-0.087922,-0.25,-0.0096434,-0.0021729,1.0681,0.36421,0.016666
750,-0.061288,-0.30554,-0.037252,0.024461,1.6342,0.43307,0.013418
751,-0.032705,-0.33445,-0.072006,0.036804,2.0493,0.46425,-0.0034721
752,-0.011917,-0.33835,-0.10709,0.038428,2.302,0.45223,-0.026209
753,0.003024,-0.31983,-0.13047,0.032582,2.4261,0.40773,-0.042124
754,0.016991,-0.27371,-0.13177,0.029658,2.4332,0.34082,-0.043423
755,0.031282,-0.19836,-0.10936,0.039402,2.3098,0.26807,-0.028482
756,0.049796,-0.099615,-0.073306,0.06084,2.0626,0.19661,0.0033489
757,0.067661,0.0069217,-0.04115,0.076431,1.7294,0.1297,0.045574
758,0.073507,0.10209,-0.022961,0.062464,1.3861,0.070259,0.084551
759,0.065712,0.16965,-0.018413,0.017316,1.1207,0.028684,0.11086
760,0.049472,0.20928,-0.020687,-0.046996,0.97842,0.013418,0.11995
761,0.033231,0.22941,-0.01614,-0.10774,0.93912,0.016666,0.11671
762,0.022188,0.23786,-0.00022403,-0.14736,0.93457,0.023487,0.10144
763,0.01894,0.22682,0.025436,-0.15711,0.89949,0.020239,0.080003
764,0.016991,0.18719,0.057592,-0.14249,0.78743,0.0065969,0.058241
765,0.010495,0.11541,0.089423,-0.11131,0.5919,-0.0080194,0.042326
766,-0.0083442,0.022188,0.11606,-0.070058,0.34082,-0.020037,0.033556
767,-0.037252,-0.068758,0.13035,-0.023285,0.084226,-0.035628,0.028684
768,-0.069083,-0.14606,0.13295,0.017316,-0.13599,-0.05804,0.024461
769,-0.091495,-0.20258,0.12483,0.042651,-0.31431,-0.087922,0.017316
770,-0.096692,-0.23896,0.11541,0.053694,-0.46178,-0.12625,0.0085458
771,-0.086623,-0.25455,0.10794,0.044275,-0.58358,-0.16523,0.0023744
772,-0.068758,-0.24545,0.10306,0.016666,-0.68005,-0.19998,0.00075039
773,-0.052518,-0.2107,0.10079,-0.021012,-0.74208,-0.22986,-0.0028225
774,-0.046671,-0.15483,0.099492,-0.05739,-0.75865,-0.25325,-0.015815
775,-0.049595,-0.089871,0.093321,-0.078503,-0.72454,-0.27339,-0.038551
776,-0.051219,-0.027833,0.07773,-0.079477,-0.64789,-0.2919,-0.064536
777,-0.043099,0.020564,0.05207,-0.06681,-0.54558,-0.30424,-0.077203
778,-0.019712,0.052395,0.024137,-0.051219,-0.43806,-0.30489,-0.071682
779,0.01894,0.07708,0.0043233,-0.038227,-0.35361,-0.2919,-0.052843
780,0.067336,0.10177,-0.00087364,-0.028157,-0.32146,-0.27014,-0.026858
781,0.11768,0.1284,0.0088706,-0.014516,-0.35491,-0.24221,-0.0011985
782,0.16023,0.14854,0.028359,0.0043233,-0.43644,-0.20875,0.023812
783,0.18816,0.16218,0.054019,0.025436,-0.52186,-0.16912,0.046548
784,0.19953,0.169,0.085525,0.048822,-0.55889,-0.1178,0.071558
785,0.19726,0.17127,0.11995,0.087474,-0.51017,-0.056416,0.097543
786,0.18589,0.1703,0.15471,0.16315,-0.37213,0.015367,0.12125
787,0.16835,0.1625,0.18557,0.28138,-0.17854,0.09397,0.13262
788,0.13847,0.14626,0.20993,0.42105,0.038753,0.17582,0.12613
789,0.094945,0.12158,0.22617,0.53928,0.2567,0.25995,0.11054
790,0.042975,0.090722,0.23169,0.58768,0.44379,0.3431,0.098517
791,-0.0093186,0.063113,0.22617,0.55065,0.56299,0.41975,0.092996
792,-0.053492,0.048172,0.2148,0.45353,0.58768,0.48439,0.091047
793,-0.083375,0.048822,0.20473,0.34602,0.51557,0.52239,0.090072
794,-0.095393,0.066686,0.19986,0.26612,0.36811,0.51297,0.088448
795,-0.084349,0.092996,0.19271,0.22065,0.18589,0.44574,0.085525
796,-0.051219,0.12125,0.18004,0.19304,0.014717,0.32946,0.087474
797,-0.0031473,0.14367,0.15568,0.16868,-0.10221,0.19661,0.097543
798,0.051096,0.15568,0.12158,0.14302,-0.14379,0.0852,0.11866
799,0.10859,0.16121,0.082927,0.1258,-0.11748,0.015367,0.14204
800,0.16283,0.16348,0.05207,0.1284,-0.051544,-0.019063,0.15666
801,0.20473,0.16835,0.030957,0.15471,0.01017,-0.03303,0.15373
802,0.22941,0.17907,0.019914,0.19044,0.036804,-0.0405,0.1349
803,0.23981,0.20051,0.013093,0.21285,0.022837,-0.048945,0.10631
804,0.24143,0.23331,0.0036737,0.207,-0.0096434,-0.058365,0.078055
805,0.23948,0.26807,-0.0096434,0.17062,-0.030756,-0.056741,0.056617
806,0.23591,0.28691,-0.027508,0.11768,-0.029782,-0.039201,0.043625
807,0.22065,0.27749,-0.048296,0.064413,-0.020037,-0.0096434,0.035505
808,0.18297,0.22877,-0.070382,0.019914,-0.027183,0.019914,0.027385
809,0.12515,0.14594,-0.093769,-0.020687,-0.069083,0.041676,0.01894
810,0.051096,0.04395,-0.12203,-0.064536,-0.14444,0.05272,0.010495
811,-0.026209,-0.056416,-0.15905,-0.11001,-0.24058,0.053369,0.003024
812,-0.095393,-0.14087,-0.2042,-0.14801,-0.35134,0.044275,0.0010752
813,-0.14899,-0.20258,-0.24513,-0.17594,-0.47737,0.026085,0.0056225
814,-0.18017,-0.23928,-0.26592,-0.19381,-0.60826,0.0043233,0.012443
815,-0.18796,-0.24643,-0.25357,-0.20225,-0.71285,-0.010943,0.014068
816,-0.17237,-0.21914,-0.21005,-0.20128,-0.74728,-0.0093186,0.010819
817,-0.13632,-0.15678,-0.14801,-0.18731,-0.68752,0.013093,0.0046481
818,-0.092469,-0.07428,-0.081426,-0.16588,-0.54687,0.05142,-0.00054884
819,-0.051868,0.01017,-0.023285,-0.14866,-0.35556,0.096893,-0.0044465
820,-0.022311,0.073832,0.016991,-0.14119,-0.15808,0.14302,-0.007045
821,0.0023744,0.10729,0.030633,-0.14249,0.018615,0.18589,-0.0080194
822,0.036804,0.12125,0.021538,-0.14411,0.17062,0.22422,0.0017248
823,0.0852,0.12937,0.00010078,-0.14704,0.31581,0.25735,0.023162
824,0.14237,0.13977,-0.025884,-0.14866,0.48341,0.28138,0.047523
825,0.19336,0.14886,-0.052518,-0.15191,0.68609,0.28398,0.06019
826,0.22747,0.14561,-0.078503,-0.15158,0.88877,0.25443,0.05272
827,0.24208,0.13035,-0.10091,-0.14379,1.0232,0.19044,0.027709
828,0.23559,0.10794,-0.12008,-0.13145,1.0288,0.10501,-0.0028225
829,0.20993,0.086824,-0.13404,-0.11943,0.90534,0.010495,-0.029457
830,0.16575,0.073507,-0.14476,-0.10871,0.7124,-0.079477,-0.047321
831,0.11183,0.073832,-0.14931,-0.097666,0.53636,-0.14964,-0.050894
832,0.060515,0.092346,-0.14281,-0.081101,0.45158,-0.19089,-0.041475
833,0.023162,0.1271,-0.12235,-0.057715,0.49608,-0.19803,-0.026858
834,0.0039985,0.169,-0.089546,-0.036602,0.64354,-0.174,-0.012567
835,-0.0011985,0.20473,-0.054142,-0.027183,0.80952,-0.12917,-0.0067202
836,-0.0011985,0.22324,-0.023935,-0.035303,0.90112,-0.079477,-0.010943
837,-0.0073698,0.2187,-0.0028225,-0.064861,0.85499,-0.045047,-0.020687
838,-0.030106,0.19109,0.014068,-0.11098,0.66628,-0.038551,-0.034004
839,-0.068434,0.14724,0.030308,-0.1597,0.38207,-0.059989,-0.044398
840,-0.10936,0.10014,0.049796,-0.19478,0.070584,-0.096042,-0.046996
841,-0.13924,0.056617,0.067661,-0.2016,-0.21005,-0.1308,-0.039526
842,-0.15743,0.019914,0.078055,-0.17205,-0.44359,-0.14639,-0.02426
843,-0.15905,-0.016464,0.078379,-0.10611,-0.66543,-0.13664,-0.0080194
844,-0.15126,-0.055766,0.071883,-0.0083442,-0.91196,-0.10351,0.0014
845,-0.14087,-0.095393,0.064413,0.10306,-1.1754,-0.057715,0.00075039
846,-0.13112,-0.13275,0.06019,0.19758,-1.3936,-0.014191,-0.0044465
847,-0.1191,-0.1636,0.057267,0.25053,-1.4882,0.021538,-0.010618
848,-0.10416,-0.18114,0.052395,0.2554,-1.4183,0.05272,-0.011917
849,-0.085648,-0.18082,0.045574,0.23039,-1.2059,0.084876,-0.008669
850,-0.066485,-0.16295,0.039078,0.20408,-0.9217,0.11703,-0.0021729
851,-0.049595,-0.13762,0.036154,0.19628,-0.64399,0.14204,0.0039985
852,-0.042124,-0.12333,0.041351,0.21577,-0.43157,0.14789,0.0085458
853,-0.047971,-0.12917,0.054993,0.2554,-0.31594,0.13165,0.011144
854,-0.067784,-0.15711,0.070259,0.29145,-0.29223,0.099167,0.0088706
855,-0.098316,-0.19608,0.078055,0.30542,-0.32536,0.064413,0.0020496
856,-0.12885,-0.21914,0.075131,0.28918,-0.36141,0.036154,-0.013541
857,-0.14996,-0.2094,0.066362,0.24825,-0.36076,0.01894,-0.037252
858,-0.16003,-0.17172,0.060515,0.20311,-0.31691,0.01017,-0.060638
859,-0.15451,-0.12463,0.063763,0.17485,-0.24513,0.00075039,-0.077528
860,-0.13599,-0.087597,0.078055,0.1742,-0.15386,-0.014191,-0.0837
861,-0.11066,-0.065835,0.095594,0.19499,-0.026858,-0.03173,-0.077853
862,-0.084999,-0.05804,0.10761,0.22682,0.1297,-0.052843,-0.066485
863,-0.064536,-0.059664,0.10404,0.25735,0.27261,-0.081751,-0.055441
864,-0.052843,-0.061613,0.08585,0.27456,0.35641,-0.1191,-0.050569
865,-0.044398,-0.057065,0.062464,0.27489,0.35349,-0.1623,-0.04927
866,-0.027833,-0.037577,0.05272,0.26677,0.27099,-0.19608,-0.044723
867,0.0033489,-0.00022403,0.063763,0.26157,0.14139,-0.21427,-0.027183
868,0.050771,0.056292,0.092021,0.2541,0.0091954,-0.21849,0.0036737
869,0.10436,0.12093,0.12645,0.23916,-0.086948,-0.21492,0.045574
870,0.15309,0.1716,0.15406,0.21317,-0.13275,-0.212,0.094295
871,0.18557,0.19466,0.1716,0.17907,-0.13957,-0.21427,0.14334
872,0.19499,0.18979,0.17907,0.13457,-0.1269,-0.22467,0.18329
873,0.17939,0.17062,0.19109,0.086175,-0.11586,-0.24578,0.20733
874,0.14237,0.15244,0.2135,0.048497,-0.1178,-0.28021,0.207
875,0.087474,0.14659,0.24533,0.036479,-0.13599,-0.32601,0.18199
876,0.030957,0.15016,0.27781,0.050121,-0.18471,-0.37408,0.14042
877,-0.013866,0.15276,0.30347,0.075456,-0.26202,-0.40721,0.10014
878,-0.043748,0.13944,0.31257,0.097868,-0.34127,-0.40363,0.078055
879,-0.059664,0.095919,0.2973,0.11411,-0.37245,-0.35004,0.080978
880,-0.064536,0.02641,0.25443,0.11995,-0.32016,-0.25325,0.10501
881,-0.064211,-0.059014,0.19076,0.10826,-0.18959,-0.13859,0.13749
882,-0.061288,-0.15126,0.11638,0.078704,-0.022961,-0.037252,0.1638
883,-0.06551,-0.24675,0.039402,0.039078,0.14399,0.029658,0.17485
884,-0.079802,-0.33867,-0.032705,-0.0037969,0.31159,0.05272,0.16933
885,-0.094093,-0.40818,-0.09182,-0.039201,0.48471,0.041676,0.14854
886,-0.098641,-0.43124,-0.1308,-0.060313,0.63575,0.016016,0.11995
887,-0.086623,-0.39487,-0.14801,-0.064861,0.7228,-0.0060706,0.089098
888,-0.059989,-0.30684,-0.15126,-0.059664,0.7202,-0.010618,0.064088
889,-0.025559,-0.18764,-0.14834,-0.061288,0.6338,0.0072465,0.045899
890,0.0091954,-0.064536,-0.14899,-0.079802,0.49771,0.04395,0.034855
891,0.039402,0.040702,-0.1636,-0.1178,0.35836,0.092671,0.032906
892,0.064088,0.11606,-0.19251,-0.1701,0.25085,0.14561,0.038753
893,0.081952,0.15828,-0.22726,-0.22499,0.18264,0.18914,0.046548
894,0.086824,0.17387,-0.25292,-0.27046,0.14561,0.2044,0.048497
895,0.080003,0.169,-0.25975,-0.30067,0.12158,0.19044,0.044924
896,0.063438,0.15373,-0.24773,-0.31204,0.095269,0.1625,0.038103
897,0.039727,0.12775,-0.22109,-0.30457,0.051745,0.14659,0.034206
898,0.015042,0.091696,-0.18114,-0.28638,-0.0015233,0.16705,0.036154
899,-0.0067202,0.045249,-0.13177,-0.26429,-0.038227,0.22714,0.045574
900,-0.025884,-0.0080194,-0.084024,-0.24286,-0.030756,0.30217,0.054668
901,-0.043099,-0.059664,-0.055441,-0.23181,0.030308,0.35934,0.058566
902,-0.053492,-0.095393,-0.060313,-0.24448,0.12353,0.3772,0.047847
903,-0.048296,-0.11391,-0.098965,-0.29158,0.20993,0.35382,0.01829
904,-0.025559,-0.11293,-0.15353,-0.36758,0.258,0.30477,-0.022311
905,0.011144,-0.094093,-0.19738,-0.45008,0.2554,0.25637,-0.062262
906,0.050771,-0.06616,-0.21817,-0.5118,0.2122,0.22941,-0.086298
907,0.084226,-0.04115,-0.212,-0.52869,0.15114,0.23169,-0.089546
908,0.10501,-0.029782,-0.19283,-0.48971,0.096244,0.25378,-0.075904
909,0.10924,-0.043099,-0.1753,-0.40591,0.058891,0.27651,-0.055441
910,0.098193,-0.083375,-0.16425,-0.30522,0.050121,0.28398,-0.041475
911,0.071234,-0.14314,-0.15061,-0.20485,0.088448,0.28073,-0.040175
912,0.03518,-0.20778,-0.1282,-0.11423,0.20083,0.27911,-0.050569
913,-0.0021729,-0.26397,-0.091495,-0.039201,0.37201,0.28983,-0.070058
914,-0.033354,-0.29677,-0.039201,0.013093,0.52109,0.3051,-0.089221
915,-0.050569,-0.29515,0.023162,0.037778,0.56397,0.30445,-0.099615
916,-0.053817,-0.2591,0.081627,0.042651,0.48212,0.27294,-0.097666
917,-0.043423,-0.19576,0.12093,0.036479,0.34992,0.21447,-0.086948
918,-0.028807,-0.11521,0.13684,0.026735,0.28041,0.14756,-0.072006
919,-0.014191,-0.018738,0.14042,0.023812,0.34017,0.086175,-0.059014
920,0.0010752,0.089423,0.14594,0.037778,0.50713,0.029333,-0.050244
921,0.012443,0.20278,0.1651,0.066362,0.68252,-0.025884,-0.04992
922,0.019264,0.30574,0.20051,0.10177,0.7569,-0.0837,-0.059014
923,0.022837,0.3785,0.24241,0.13555,0.66628,-0.14411,-0.076554
924,0.028034,0.40579,0.27716,0.16218,0.42268,-0.19966,-0.093444
925,0.040052,0.39507,0.29762,0.18199,0.099167,-0.23896,-0.099615
926,0.065712,0.36583,0.2986,0.19758,-0.21687,-0.25292,-0.089221
927,0.10534,0.34017,0.27651,0.20635,-0.47119,-0.23571,-0.065835
928,0.15568,0.32816,0.23526,0.20181,-0.64951,-0.18796,-0.036278
929,0.20018,0.32718,0.18069,0.18557,-0.74306,-0.11358,-0.0057458
930,0.22941,0.33011,0.12775,0.16478,-0.74208,-0.011592,0.023487
931,0.24501,0.33205,0.083251,0.14107,-0.64399,0.11638,0.050771
932,0.24793,0.33043,0.05142,0.11801,-0.46827,0.26514,0.073182
933,0.23981,0.32426,0.031607,0.10047,-0.26169,0.42073,0.088773
934,0.22194,0.31322,0.02641,0.10079,-0.077853,0.55844,0.09397
935,0.19921,0.30574,0.037778,0.13652,0.024137,0.65037,0.089098
936,0.17745,0.30672,0.065062,0.20343,0.003024,0.67245,0.078704
937,0.15861,0.31484,0.099167,0.27164,-0.14964,0.61691,0.067661
938,0.14042,0.32393,0.13002,0.31094,-0.40461,0.48796,0.051745
939,0.11736,0.32361,0.15114,0.30867,-0.67842,0.30802,0.027385
940,0.090722,0.30087,0.15796,0.27099,-0.87655,0.10696,-0.0028225
941,0.059216,0.24858,0.14789,0.21188,-0.9321,-0.084024,-0.03173
942,0.02706,0.17387,0.12613,0.14009,-0.83238,-0.23798,-0.050894
943,-0.00087364,0.09397,0.098842,0.064413,-0.62743,-0.3325,-0.046022
944,-0.020687,0.017965,0.075131,-0.0050961,-0.39454,-0.36141,-0.013866
945,-0.031406,-0.045372,0.054019,-0.054792,-0.18959,-0.33867,0.033556
946,-0.036278,-0.096692,0.030957,-0.071682,-0.032055,-0.29612,0.079354
947,-0.0405,-0.14281,0.00042559,-0.040825,0.092996,-0.27371,0.10599
948,-0.042449,-0.18699,-0.03303,0.039402,0.20408,-0.29385,0.10566
949,-0.034978,-0.22954,-0.063561,0.15536,0.31029,-0.35232,0.084226
950,-0.016464,-0.26267,-0.084349,0.27651,0.41488,-0.42085,0.050771
951,0.0078962,-0.27793,-0.092794,0.36194,0.51362,-0.46567,0.021213
952,0.028034,-0.26527,-0.095717,0.3772,0.59222,-0.46275,0.0026992
953,0.038103,-0.22239,-0.097017,0.31744,0.6364,-0.40428,-0.0011985
954,0.041676,-0.15158,-0.097666,0.21252,0.63737,-0.30587,0.0046481
955,0.039727,-0.061613,-0.098965,0.10924,0.58963,-0.19608,0.013418
956,0.04395,0.037129,-0.095393,0.040377,0.48829,-0.09994,0.021538
957,0.062789,0.13782,-0.087272,0.021863,0.32881,-0.025884,0.031932
958,0.090722,0.22227,-0.077853,0.045249,0.11768,0.033881,0.0433
959,0.11118,0.27099,-0.073631,0.082927,-0.10384,0.082277,0.055643
960,0.11248,0.27749,-0.079477,0.10989,-0.27728,0.11801,0.06896
961,0.10371,0.2528,-0.098965,0.11541,-0.36044,0.14302,0.080653
962,0.10404,0.22194,-0.12235,0.10989,-0.33672,0.16023,0.092996
963,0.12515,0.20765,-0.13957,0.10664,-0.21557,0.16933,0.10631
964,0.16445,0.22584,-0.13827,0.10989,-0.020037,0.17062,0.1206
965,0.20993,0.26937,-0.12138,0.11411,0.2148,0.16998,0.13035
966,0.2502,0.31841,-0.096367,0.11866,0.44346,0.17387,0.13165
967,0.27879,0.35154,-0.069733,0.12385,0.61886,0.17712,0.12613
968,0.2947,0.35739,-0.037252,0.13457,0.70753,0.1742,0.12223
969,0.2986,0.34764,0.0075714,0.15471,0.71013,0.15861,0.12385
970,0.29275,0.3392,0.073182,0.18622,0.65004,0.12028,0.12613
971,0.27651,0.3353,0.15568,0.22194,0.56754,0.055318,0.12353
972,0.24111,0.31841,0.22974,0.23754,0.48212,-0.03303,0.11054
973,0.1768,0.25962,0.26644,0.207,0.3863,-0.14411,0.080653
974,0.081952,0.14399,0.2502,0.11703,0.2593,-0.27046,0.033881
975,-0.030756,-0.012892,0.19141,-0.012242,0.087474,-0.40071,-0.023285
976,-0.14054,-0.17822,0.11508,-0.13892,-0.12917,-0.51504,-0.078503
977,-0.22467,-0.31236,0.041676,-0.22921,-0.36921,-0.5904,-0.12365
978,-0.27274,-0.39292,-0.014191,-0.27306,-0.58163,-0.61541,-0.15029
979,-0.28605,-0.41923,-0.049595,-0.27923,-0.70051,-0.5878,-0.15841
980,-0.26981,-0.41046,-0.066485,-0.25455,-0.67647,-0.50465,-0.14899
981,-0.22954,-0.3822,-0.065186,-0.2029,-0.49978,-0.36953,-0.12073
982,-0.17562,-0.34225,-0.050894,-0.13469,-0.22759,-0.19608,-0.072981
983,-0.11975,-0.29547,-0.032055,-0.076229,0.040377,-0.018088,-0.014191
984,-0.076554,-0.25,-0.019712,-0.054142,0.23039,0.1245,0.034855
985,-0.057715,-0.20875,-0.020362,-0.075255,0.31224,0.20213,0.057592
986,-0.064861,-0.17562,-0.034329,-0.12268,0.29503,0.20213,0.053044
987,-0.084349,-0.14509,-0.051544,-0.1662,0.2096,0.13847,0.024461
988,-0.099615,-0.11553,-0.063561,-0.17692,0.084876,0.041351,-0.015815
989,-0.09994,-0.087272,-0.063561,-0.14087,-0.0824,-0.054142,-0.051219
990,-0.086948,-0.067134,-0.055116,-0.071682,-0.30002,-0.12365,-0.073306
991,-0.072331,-0.057065,-0.042124,0.00075039,-0.54038,-0.16068,-0.079152
992,-0.059339,-0.051868,-0.023935,0.059541,-0.73137,-0.17042,-0.07428
993,-0.049595,-0.046022,-0.0011985,0.097868,-0.79828,-0.16003,-0.063237
994,-0.044073,-0.041799,0.019264,0.10729,-0.72584,-0.14249,-0.056091
995,-0.045697,-0.043423,0.028684,0.069285,-0.56636,-0.1308,-0.057715
996,-0.060638,-0.048945,0.015692,-0.011917,-0.40428,-0.1295,-0.070058
997,-0.085973,-0.057715,-0.016789,-0.10481,-0.30847,-0.13047,-0.089221
998,-0.11098,-0.069083,-0.053492,-0.16977,-0.29547,-0.1204,-0.10676
999,-0.12495,-0.076554,-0.076229,-0.17887,-0.3325,-0.086623,-0.11098
1000,-0.12365,-0.073955,-0.079802,-0.12722,-0.36238,-0.027508,-0.090196
1001,-0.10709,-0.059664,-0.06551,-0.03238,-0.32795,0.047847,-0.042774
1002,-0.082076,-0.037252,-0.040175,0.068635,-0.20583,0.12483,0.017965
1003,-0.059014,-0.010943,-0.011917,0.14009,-0.039526,0.18459,0.069934
1004,-0.045697,0.0075714,0.011469,0.1651,0.11606,0.2135,0.097218
1005,-0.047321,0.0075714,0.028684,0.15244,0.23364,0.2083,0.095269
1006,-0.060638,-0.012892,0.042001,0.11995,0.31257,0.17485,0.075456
1007,-0.080776,-0.044398,0.056617,0.081952,0.35576,0.13002,0.05272
1008,-0.09929,-0.069408,0.074482,0.050771,0.36648,0.091696,0.040052
1009,-0.11066,-0.08305,0.089748,0.027385,0.34797,0.076755,0.047198
1010,-0.11391,-0.092794,0.092021,0.008221,0.30834,0.095594,0.065712
1011,-0.10838,-0.10838,0.074482,-0.0099683,0.2567,0.14756,0.087474
1012,-0.098316,-0.13664,0.039727,-0.029457,0.19563,0.21545,0.10144
1013,-0.0837,-0.1688,0.00042559,-0.042774,0.11638,0.27196,0.098842
1014,-0.064861,-0.19121,-0.03303,-0.042774,0.008221,0.2895,0.074482
1015,-0.045697,-0.19121,-0.049595,-0.029132,-0.12755,0.25865,0.029983
1016,-0.03303,-0.17075,-0.046671,-0.0076946,-0.28183,0.18751,-0.023935
1017,-0.032705,-0.13664,-0.028482,0.011469,-0.44196,0.098517,-0.072981
1018,-0.045372,-0.10156,-0.0034721,0.019914,-0.59495,0.012768,-0.10481
1019,-0.067784,-0.071032,0.016341,0.010495,-0.72162,-0.050894,-0.11878
1020,-0.097017,-0.053492,0.021538,-0.020362,-0.78398,-0.085973,-0.12203
1021,-0.1282,-0.048296,0.0091954,-0.068758,-0.76352,-0.094743,-0.11748
1022,-0.15418,-0.047646,-0.01484,-0.13047,-0.6781,-0.091495,-0.10871
1023,-0.1662,-0.042774,-0.036278,-0.19478,-0.5511,-0.090196,-0.09929
1024,-0.15905,-0.028157,-0.040825,-0.25942,-0.40006,-0.098641,-0.088896
1025,-0.13242,-0.00087364,-0.015815,-0.31659,-0.23798,-0.1191,-0.079152
1026,-0.093444,0.036804,0.033231,-0.3442,-0.089871,-0.14281,-0.069408
1027,-0.04862,0.080978,0.092996,-0.31269,0.01894,-0.15711,-0.059014
1028,0.0023744,0.13067,0.14919,-0.19933,0.088124,-0.15353,-0.044723
1029,0.059541,0.18622,0.19369,-0.0015233,0.17842,-0.1217,-0.017439
1030,0.12028,0.24533,0.22941,0.25118,0.38337,-0.045047,0.028034
1031,0.17582,0.30445,0.26092,0.50875,0.76145,0.07708,0.089098
1032,0.21837,0.35609,0.28918,0.71793,1.2759,0.2161,0.15633
1033,0.24241,0.38662,0.30769,0.83323,1.7833,0.31906,0.21415
1034,0.2502,0.38142,0.30607,0.83063,2.0997,0.32978,0.24988
1035,0.25313,0.3418,0.27944,0.72085,2.098,0.23006,0.26027
1036,0.2567,0.28203,0.23201,0.5448,1.7771,0.049147,0.25053
1037,0.2593,0.22162,0.1742,0.35739,1.2623,-0.14931,0.23071
1038,0.25865,0.17452,0.12158,0.20798,0.74131,-0.28735,0.20603
1039,0.24955,0.14984,0.086824,0.1245,0.38662,-0.30262,0.18524
1040,0.22974,0.14269,0.075781,0.10404,0.27814,-0.17627,0.17745
1041,0.20505,0.1336,0.076755,0.12418,0.35999,0.049147,0.18427
1042,0.18394,0.098517,0.078379,0.15601,0.49998,0.28593,0.20116
1043,0.17452,0.038103,0.072208,0.17615,0.56169,0.44444,0.22065
1044,0.18199,-0.030431,0.057917,0.17485,0.4714,0.47594,0.23526
1045,0.2044,-0.075904,0.041027,0.15601,0.23754,0.38727,0.24371
1046,0.23624,-0.077203,0.032257,0.13132,-0.081751,0.22032,0.24988
1047,0.26774,-0.025234,0.037778,0.10891,-0.40851,0.036804,0.2593
1048,0.28788,0.067011,0.056617,0.085525,-0.6794,-0.11391,0.26319
1049,0.28918,0.17257,0.078055,0.049147,-0.84765,-0.20648,0.25378
1050,0.26969,0.26287,0.087799,-0.0018481,-0.87818,-0.23376,0.23883
1051,0.23624,0.31581,0.079354,-0.057065,-0.76872,-0.19576,0.22454
1052,0.19953,0.32523,0.054993,-0.10189,-0.56474,-0.098316,0.21188
1053,0.16868,0.30055,0.026735,-0.13112,-0.3377,0.038753,0.19888
1054,0.14529,0.25605,0.0039985,-0.14899,-0.15841,0.17972,0.17874
1055,0.11963,0.20376,-0.010943,-0.15905,-0.075904,0.29113,0.14107
1056,0.084551,0.15341,-0.013541,-0.15873,-0.10351,0.35317,0.087474
1057,0.039727,0.10794,-0.0057458,-0.13567,-0.22532,0.36259,0.029658
1058,-0.0057458,0.064737,0.0043233,-0.0824,-0.39519,0.31549,-0.020687
1059,-0.041799,0.021863,0.0062721,-0.0024977,-0.55759,0.20278,-0.059014
1060,-0.064211,-0.017439,-0.0047713,0.079354,-0.66705,0.021538,-0.085973
1061,-0.072006,-0.046996,-0.025884,0.12613,-0.70311,-0.21005,-0.10806
1062,-0.072981,-0.060963,-0.050894,0.11248,-0.66283,-0.44456,-0.12527
1063,-0.071357,-0.058365,-0.071682,0.045899,-0.55824,-0.62775,-0.13924
1064,-0.070382,-0.048945,-0.089871,-0.036278,-0.40428,-0.72,-0.15288
1065,-0.071032,-0.041799,-0.10741,-0.10091,-0.22272,-0.70376,-0.1688
1066,-0.07493,-0.039526,-0.12398,-0.13892,-0.034654,-0.5878,-0.18244
1067,-0.080451,-0.0405,-0.13567,-0.15743,0.14237,-0.40039,-0.19219
1068,-0.088896,-0.046022,-0.14509,-0.17205,0.28756,-0.18407,-0.19868
1069,-0.10026,-0.053817,-0.14899,-0.19348,0.38045,0.021213,-0.20453
1070,-0.10871,-0.060963,-0.14346,-0.21362,0.39961,0.19239,-0.20843
1071,-0.11001,-0.065835,-0.12787,-0.22174,0.33823,0.32231,-0.20485
1072,-0.09994,-0.064861,-0.10644,-0.21492,0.19401,0.4152,-0.18114
1073,-0.073955,-0.052193,-0.084674,-0.19413,-0.027833,0.48439,-0.13729
1074,-0.034329,-0.025559,-0.064536,-0.15678,-0.31886,0.54155,-0.079152
1075,0.0078962,0.0056225,-0.04862,-0.10968,-0.66023,0.59352,-0.013866
1076,0.041676,0.028034,-0.034329,-0.070058,-1.011,0.64549,0.051096
1077,0.054344,0.032582,-0.021012,-0.04992,-1.3017,0.69064,0.10339
1078,0.043625,0.017965,-0.010943,-0.048945,-1.4599,0.71013,0.13132
1079,0.011794,-0.011592,-0.007045,-0.065186,-1.4417,0.69356,0.1323
1080,-0.03303,-0.046671,-0.010943,-0.096692,-1.2504,0.64777,0.11671
1081,-0.079802,-0.078178,-0.019388,-0.1282,-0.91975,0.58963,0.092346
1082,-0.11391,-0.097666,-0.025234,-0.14216,-0.50465,0.53343,0.062789
1083,-0.12365,-0.10221,-0.021986,-0.1243,-0.059989,0.48114,0.031932
1084,-0.10936,-0.085648,-0.0089938,-0.069083,0.3733,0.42332,0.0033489
1085,-0.0824,-0.052193,0.0088706,0.015367,0.7582,0.34635,-0.021661
1086,-0.056416,-0.015165,0.023812,0.10404,1.0382,0.24013,-0.044723
1087,-0.036278,0.011469,0.032906,0.17582,1.1613,0.11313,-0.062912
1088,-0.020362,0.021863,0.038428,0.22487,1.1174,-0.016789,-0.071032
1089,-0.0047713,0.017316,0.046873,0.25962,0.94269,-0.12787,-0.073306
1090,0.01017,0.0065969,0.058566,0.28885,0.70104,-0.20908,-0.081101
1091,0.01829,0.0014,0.066037,0.30574,0.46198,-0.26429,-0.095717
1092,0.01894,0.0062721,0.064413,0.3012,0.27846,-0.2997,-0.11001
1093,0.013093,0.013743,0.055318,0.27359,0.17452,-0.32958,-0.12235
1094,0.0023744,0.016991,0.044275,0.23071,0.14139,-0.36791,-0.13047
1095,-0.008669,0.01764,0.031932,0.17939,0.14984,-0.41078,-0.13307
1096,-0.020037,0.022837,0.01829,0.12548,0.16445,-0.44424,-0.13015
1097,-0.029782,0.038103,0.0026992,0.070584,0.15568,-0.45918,-0.12755
1098,-0.038227,0.063438,-0.014516,0.022512,0.10404,-0.4569,-0.12787
1099,-0.043423,0.096244,-0.032705,-0.010943,0.019914,-0.44001,-0.12852
1100,-0.045372,0.13067,-0.048945,-0.030106,-0.076554,-0.40656,-0.1243
1101,-0.045697,0.16023,-0.065835,-0.036927,-0.15776,-0.35556,-0.11163
1102,-0.044073,0.18134,-0.077528,-0.029457,-0.19738,-0.28605,-0.092145
1103,-0.034654,0.19531,-0.076554,-0.010618,-0.18569,-0.20225,-0.070382
1104,-0.011592,0.19401,-0.060313,0.012443,-0.15418,-0.11358,-0.040825
1105,0.023487,0.17062,-0.033679,0.033556,-0.16198,-0.034654,0.00010078
1106,0.063438,0.12743,-0.010943,0.051096,-0.25325,0.024137,0.046223
1107,0.095919,0.076106,-0.00022403,0.055318,-0.43059,0.060515,0.082602
1108,0.10859,0.033231,0.0075714,0.042326,-0.65309,0.078704,0.095919
1109,0.096569,0.003024,0.026085,0.019589,-0.85512,0.090072,0.083901
1110,0.069934,-0.017764,0.064088,0.0023744,-0.96555,0.11054,0.058241
1111,0.047198,-0.0405,0.11931,-0.0018481,-0.93697,0.14691,0.036479
1112,0.039402,-0.079152,0.18232,0.01017,-0.76287,0.19401,0.031607
1113,0.038103,-0.14541,0.23916,0.030633,-0.48321,0.23494,0.041351
1114,0.028034,-0.24091,0.27294,0.049472,-0.15516,0.25313,0.055318
1115,-0.0060706,-0.35037,0.26904,0.061489,0.1729,0.23981,0.065062
1116,-0.072656,-0.45463,0.22487,0.059865,0.47562,0.19791,0.06019
1117,-0.16588,-0.53063,0.15341,0.038103,0.7163,0.13684,0.037129
1118,-0.26657,-0.56149,0.075781,-0.00054884,0.87286,0.072208,0.0010752
1119,-0.34907,-0.53875,0.0088706,-0.042774,0.97355,0.028684,-0.035303
1120,-0.39259,-0.46795,-0.037252,-0.080776,1.071,0.024786,-0.058365
1121,-0.38739,-0.36531,-0.063237,-0.12235,1.1749,0.062789,-0.062587
1122,-0.33575,-0.25552,-0.077853,-0.17302,1.2227,0.12125,-0.055441
1123,-0.25552,-0.15873,-0.092794,-0.23051,1.136,0.17095,-0.043423
1124,-0.16035,-0.078827,-0.11423,-0.29125,0.87481,0.19823,-0.02426
1125,-0.061613,-0.0067202,-0.13729,-0.34452,0.45775,0.20246,0.00010078
1126,0.036804,0.066037,-0.15581,-0.38317,-0.041799,0.18849,0.028034
1127,0.12613,0.14367,-0.15646,-0.40169,-0.51602,0.15991,0.056942
1128,0.19726,0.22747,-0.12917,-0.39779,-0.86194,0.12385,0.089098
1129,0.24533,0.30899,-0.07428,-0.36303,-1.0172,0.08585,0.12515
1130,0.26579,0.3811,-0.0041217,-0.29417,-0.96588,0.05207,0.16056
1131,0.258,0.43664,0.062789,-0.19966,-0.74696,0.022837,0.18459
1132,0.2174,0.46717,0.10566,-0.09929,-0.42735,-0.00022403,0.18914
1133,0.15114,0.46685,0.11638,-0.011267,-0.080451,-0.019388,0.1742
1134,0.078704,0.43892,0.10079,0.06019,0.23071,-0.038227,0.14561
1135,0.024461,0.39961,0.074806,0.11573,0.48666,-0.066485,0.10761
1136,0.011144,0.36226,0.054344,0.15244,0.70331,-0.11033,0.064088
1137,0.039078,0.33043,0.042001,0.16575,0.93002,-0.17465,0.014068
1138,0.097868,0.2895,0.024137,0.15536,1.199,-0.2552,-0.047321
1139,0.15926,0.22,-0.008669,0.1297,1.4721,-0.3442,-0.12203
1140,0.19596,0.11248,-0.058365,0.09397,1.6381,-0.43189,-0.19901
1141,0.19466,-0.016464,-0.11423,0.056292,1.5738,-0.50303,-0.25747
1142,0.15503,-0.1321,-0.16198,0.026735,1.2412,-0.53908,-0.27826
1143,0.096893,-0.20485,-0.18504,0.016991,0.74164,-0.53128,-0.25325
1144,0.044599,-0.21979,-0.17562,0.028684,0.26027,-0.48711,-0.19413
1145,0.01829,-0.18342,-0.14184,0.055318,-0.053817,-0.42605,-0.12008
1146,0.017965,-0.11748,-0.097017,0.083251,-0.17659,-0.36238,-0.046671
1147,0.032906,-0.050244,-0.056091,0.10112,-0.18991,-0.31074,0.010819
1148,0.050771,-0.00022403,-0.029457,0.10599,-0.20323,-0.27209,0.045899
1149,0.066037,0.028684,-0.021986,0.099492,-0.28118,-0.23928,0.059541
1150,0.073832,0.03583,-0.026209,0.088448,-0.43449,-0.20323,0.064088
1151,0.070584,0.02706,-0.031406,0.076755,-0.64757,-0.16003,0.06896
1152,0.061165,0.015042,-0.025884,0.065387,-0.89962,-0.10644,0.081627
1153,0.059865,0.012119,-0.012242,0.057592,-1.1322,-0.0405,0.098842
1154,0.076431,0.030633,0.003024,0.052395,-1.2507,0.034855,0.11281
1155,0.10891,0.072533,0.013093,0.052395,-1.1796,0.10859,0.12288
1156,0.15244,0.13425,0.013743,0.059541,-0.91683,0.17225,0.1297
1157,0.19401,0.19888,0.0059473,0.071558,-0.53518,0.21123,0.13392
1158,0.22812,0.2528,-0.011592,0.078055,-0.14769,0.21188,0.13327
1159,0.25475,0.28821,-0.039526,0.083251,0.14042,0.17225,0.13002
1160,0.27456,0.30477,-0.071682,0.090072,0.28008,0.10696,0.12905
1161,0.28593,0.30769,-0.095717,0.096244,0.29145,0.038103,0.1271
1162,0.28593,0.30282,-0.10026,0.092346,0.23136,-0.020687,0.12158
1163,0.27099,0.2921,-0.081751,0.070909,0.16056,-0.060638,0.11151
1164,0.24111,0.28333,-0.047971,0.032906,0.11054,-0.081751,0.096893
1165,0.20116,0.28106,-0.0047713,-0.010293,0.078704,-0.088247,0.078055
1166,0.16023,0.28658,0.038753,-0.046996,0.045574,-0.087272,0.062464
1167,0.12613,0.28918,0.076755,-0.070707,0.009845,-0.079152,0.06019
1168,0.098517,0.27326,0.11021,-0.07493,-0.033354,-0.060963,0.076106
1169,0.06896,0.22682,0.14334,-0.064861,-0.11651,-0.036927,0.10566
1170,0.03453,0.14237,0.17127,-0.044723,-0.25162,-0.016464,0.13977
1171,0.0026992,0.028684,0.18719,-0.014191,-0.39909,-0.0024977,0.1677
1172,-0.01614,-0.087922,0.18751,0.023812,-0.49815,0.0039985,0.18557
1173,-0.021986,-0.17919,0.17615,0.063113,-0.51374,0.0026992,0.19206
1174,-0.026209,-0.23474,0.15666,0.098193,-0.4582,-0.0050961,0.19304
1175,-0.036602,-0.25877,0.13132,0.12807,-0.3731,-0.021012,0.19336
1176,-0.051544,-0.25682,0.10469,0.14919,-0.29223,-0.0405,0.19239
1177,-0.072006,-0.23636,0.080978,0.16315,-0.21557,-0.05804,0.18394
1178,-0.095068,-0.2055,0.062464,0.17355,-0.12982,-0.062262,0.15991
1179,-0.12235,-0.16977,0.055318,0.18979,-0.034654,-0.04992,0.1219
1180,-0.14964,-0.13794,0.062139,0.22097,0.049472,-0.028157,0.078704
1181,-0.16782,-0.11196,0.075781,0.27196,0.10534,-0.007045,0.045249
1182,-0.15938,-0.084999,0.089098,0.3379,0.13912,0.012119,0.032582
1183,-0.11586,-0.045047,0.097218,0.39572,0.1638,0.030633,0.036154
1184,-0.048296,0.0085458,0.097868,0.4165,0.17647,0.050446,0.045574
1185,0.01894,0.064088,0.091696,0.3876,0.16413,0.073507,0.049472
1186,0.058241,0.10079,0.080003,0.32166,0.12743,0.095594,0.042651
1187,0.059865,0.10859,0.069934,0.23948,0.084876,0.11411,0.029658
1188,0.032906,0.091696,0.064413,0.16575,0.06961,0.13132,0.019914
1189,-0.0041217,0.056942,0.063763,0.11476,0.096893,0.15179,0.015692
1190,-0.038227,0.010819,0.062789,0.0852,0.15893,0.16803,0.014717
1191,-0.067134,-0.041799,0.055318,0.063763,0.22422,0.16933,0.0091954
1192,-0.093444,-0.097991,0.038753,0.035505,0.25215,0.14724,-0.0037969
1193,-0.12722,-0.15678,0.014068,-0.0096434,0.21317,0.10274,-0.029132
1194,-0.17757,-0.22304,-0.013541,-0.06551,0.10599,0.042975,-0.060638
1195,-0.23441,-0.29547,-0.036602,-0.11878,-0.038551,-0.011267,-0.088572
1196,-0.27599,-0.36238,-0.050569,-0.15126,-0.1753,-0.040175,-0.10384
1197,-0.27858,-0.40234,-0.048296,-0.15061,-0.26039,-0.030756,-0.09994
1198,-0.23766,-0.39779,-0.027508,-0.11423,-0.25682,0.014392,-0.073955
1199,-0.16912,-0.35199,0.0049729,-0.054467,-0.14736,0.082602,-0.035303
1200,-0.10286,-0.28476,0.034855,0.0072465,0.040702,0.15114,0.0023744
1201,-0.061613,-0.22077,0.047523,0.043625,0.25345,0.20246,0.025761
1202,-0.058365,-0.17757,0.038753,0.041676,0.42722,0.23234,0.029983
1203,-0.085324,-0.15678,0.013743,0.0052977,0.51167,0.24533,0.022512
1204,-0.12495,-0.14769,-0.01484,-0.048296,0.47984,0.2502,0.014068
1205,-0.15678,-0.13437,-0.029457,-0.095393,0.34115,0.2567,0.015692
1206,-0.16718,-0.10546,-0.020687,-0.11813,0.14042,0.27521,0.028034
1207,-0.14996,-0.060963,0.014068,-0.10871,-0.062912,0.30834,0.045899
1208,-0.11488,-0.017764,0.059216,-0.072006,-0.22012,0.35024,0.068635
1209,-0.073955,0.0039985,0.092021,-0.023285,-0.30392,0.38597,0.092671
1210,-0.040825,-0.010293,0.097543,0.019264,-0.32081,0.40221,0.11248
1211,-0.021986,-0.04992,0.074482,0.048822,-0.30489,0.39247,0.12223
1212,-0.019388,-0.092794,0.036479,0.067661,-0.28313,0.35999,0.11768
1213,-0.028482,-0.1191,0.00042559,0.084551,-0.26559,0.31257,0.099492
1214,-0.036278,-0.11975,-0.024585,0.10956,-0.24643,0.25767,0.067336
1215,-0.026858,-0.093769,-0.034654,0.14724,-0.20778,0.20343,0.025761
1216,0.008221,-0.036278,-0.031406,0.19953,-0.12592,0.15471,-0.019388
1217,0.065062,0.05207,-0.014516,0.26287,0.024786,0.11313,-0.058365
1218,0.13425,0.16315,0.010819,0.31094,0.23461,0.075131,-0.086623
1219,0.20408,0.27976,0.038103,0.32328,0.44054,0.036154,-0.10254
1220,0.25767,0.38175,0.061814,0.28918,0.56949,-0.0037969,-0.10936
1221,0.28561,0.45548,0.084226,0.21545,0.58475,-0.036278,-0.10514
1222,0.28853,0.50095,0.11021,0.1271,0.49673,-0.052843,-0.087922
1223,0.27781,0.52369,0.13262,0.046873,0.35414,-0.04862,-0.059339
1224,0.26384,0.52661,0.14237,-0.016789,0.22065,-0.029132,-0.029782
1225,0.25183,0.51687,0.13262,-0.062587,0.13944,-0.0041217,-0.013541
1226,0.24533,0.49933,0.10599,-0.09182,0.11703,0.016016,-0.014191
1227,0.23818,0.47302,0.068635,-0.11196,0.13035,0.025111,-0.027833
1228,0.22844,0.44086,0.034206,-0.11975,0.15406,0.031282,-0.043099
1229,0.2174,0.40903,0.014717,-0.11033,0.1651,0.047523,-0.045697
1230,0.20863,0.38337,0.015692,-0.080127,0.15081,0.07708,-0.028157
1231,0.20246,0.36031,0.030633,-0.045047,0.10274,0.10794,0.0023744
1232,0.19011,0.3353,0.049472,-0.019063,0.022188,0.12093,0.030633
1233,0.16933,0.29957,0.06084,-0.0089938,-0.082725,0.10501,0.043625
1234,0.14399,0.25183,0.054344,-0.018088,-0.19608,0.064088,0.039078
1235,0.12028,0.20018,0.028684,-0.038876,-0.31009,0.013093,0.029333
1236,0.10306,0.15081,-0.0067202,-0.061937,-0.41013,-0.033354,0.022512
1237,0.095269,0.10761,-0.036602,-0.080776,-0.46762,-0.070382,0.020888
1238,0.090397,0.075131,-0.054792,-0.094743,-0.44911,-0.09929,0.016666
1239,0.083901,0.054019,-0.057715,-0.10579,-0.33965,-0.1217,0.0033489
1240,0.064413,0.036154,-0.051544,-0.11391,-0.16718,-0.14119,-0.013541
1241,0.026735,0.015367,-0.043099,-0.11358,0.017316,-0.16945,-0.027833
1242,-0.025559,-0.0060706,-0.035953,-0.10254,0.1638,-0.21914,-0.041799
1243,-0.078827,-0.032055,-0.030756,-0.079802,0.24306,-0.29353,-0.058689
1244,-0.11813,-0.064536,-0.029457,-0.039851,0.26287,-0.37862,-0.077528
1245,-0.13437,-0.10481,-0.035953,0.018615,0.25475,-0.45723,-0.089871
1246,-0.13307,-0.14866,-0.048945,0.081303,0.23981,-0.50595,-0.088896
1247,-0.12333,-0.19413,-0.066485,0.12515,0.2187,-0.51374,-0.075579
1248,-0.12008,-0.24156,-0.089546,0.1323,0.18329,-0.47444,-0.055441
1249,-0.12722,-0.28638,-0.11066,0.10469,0.12743,-0.39584,-0.033679
1250,-0.14444,-0.32341,-0.1256,0.06019,0.05272,-0.29742,-0.013866
1251,-0.16003,-0.34192,-0.1269,0.024461,-0.035953,-0.20225,0.0049729
1252,-0.15873,-0.33607,-0.10968,0.020564,-0.12592,-0.13307,0.023812
1253,-0.13307,-0.30587,-0.072331,0.05142,-0.19673,-0.096692,0.045574
1254,-0.089221,-0.25227,-0.019712,0.10242,-0.23149,-0.085973,0.070909
1255,-0.038876,-0.18017,0.039727,0.14009,-0.24286,-0.091495,0.091372
1256,0.0020496,-0.10221,0.09462,0.14172,-0.25877,-0.10091,0.097218
1257,0.025111,-0.038227,0.13587,0.11313,-0.28865,-0.10741,0.079679
1258,0.032257,-0.00022403,0.15666,0.073182,-0.31854,-0.10449,0.042651
1259,0.024461,0.021863,0.16218,0.039078,-0.3338,-0.090521,-0.0015233
1260,0.0095202,0.042975,0.15991,0.020239,-0.3351,-0.061613,-0.037577
1261,-0.0063954,0.072858,0.15503,0.014068,-0.33478,-0.02426,-0.056091
1262,-0.017114,0.11216,0.15081,0.023812,-0.33867,0.00042559,-0.056741
1263,-0.016789,0.15633,0.14951,0.054668,-0.339,-0.013541,-0.047971
1264,-0.0041217,0.19531,0.15568,0.098842,-0.31951,-0.078178,-0.037902
1265,0.020239,0.21772,0.16413,0.12353,-0.27728,-0.17432,-0.030756
1266,0.054668,0.21902,0.16543,0.10112,-0.22109,-0.2578,-0.026858
1267,0.090722,0.19986,0.15536,0.033881,-0.15548,-0.2919,-0.020687
1268,0.11346,0.16413,0.13327,-0.055766,-0.084024,-0.27176,-0.012242
1269,0.11768,0.12353,0.098517,-0.14184,-0.0099683,-0.22272,-0.0073698
1270,0.10209,0.086824,0.054019,-0.20518,0.074482,-0.17562,-0.008669
1271,0.070259,0.05207,0.0062721,-0.24968,0.17225,-0.14834,-0.018738
1272,0.029983,0.010819,-0.034978,-0.28216,0.27814,-0.13729,-0.025884
1273,-0.0041217,-0.038227,-0.061937,-0.30262,0.38142,-0.1256,-0.021337
1274,-0.023285,-0.094093,-0.073631,-0.30717,0.46652,-0.081426,0.0010752
1275,-0.019712,-0.14834,-0.073306,-0.29093,0.52109,0.015042,0.041676
1276,0.0023744,-0.19348,-0.072656,-0.25747,0.55195,0.16348,0.089748
1277,0.03453,-0.21947,-0.075904,-0.21167,0.58508,0.347,0.13814
1278,0.066362,-0.22109,-0.079802,-0.1623,0.65686,0.53993,0.18037
1279,0.089423,-0.20323,-0.083375,-0.1178,0.78808,0.72085,0.21252
1280,0.099167,-0.17497,-0.081101,-0.080451,0.96803,0.88065,0.22877
1281,0.095919,-0.14801,-0.073955,-0.046347,1.1467,1.0125,0.23006
1282,0.082927,-0.12852,-0.062587,-0.016464,1.25,1.1009,0.22032
1283,0.064413,-0.11098,-0.051544,0.0078962,1.2194,1.1278,0.20473
1284,0.045574,-0.091495,-0.042774,0.020888,1.0567,1.0837,0.18589
1285,0.033231,-0.069083,-0.033679,0.017965,0.81699,0.9716,0.16348
1286,0.032906,-0.041799,-0.025884,0.0049729,0.58021,0.81537,0.13814
1287,0.0433,-0.010293,-0.020687,-0.0096434,0.40189,0.64322,0.11021
1288,0.055968,0.020888,-0.017764,-0.017439,0.29405,0.47757,0.083251
1289,0.057917,0.046223,-0.014191,-0.018088,0.24436,0.33465,0.06019
1290,0.043625,0.063438,-0.010943,-0.0083442,0.23006,0.21707,0.037129
1291,0.012768,0.069285,-0.010943,0.012443,0.24176,0.12028,0.013093
1292,-0.027833,0.061165,-0.018413,0.048497,0.26287,0.036804,-0.01614
1293,-0.062912,0.043625,-0.034978,0.098517,0.26157,-0.045047,-0.047321
1294,-0.077528,0.027709,-0.05804,0.14984,0.2096,-0.12722,-0.074605
1295,-0.068109,0.023812,-0.080776,0.18394,0.074157,-0.2081,-0.090521
1296,-0.037902,0.036479,-0.097341,0.19434,-0.1688,-0.28281,-0.09117
1297,-0.0021729,0.062139,-0.10676,0.19206,-0.50952,-0.34257,-0.076879
1298,0.020239,0.087474,-0.11423,0.18784,-0.89182,-0.37733,-0.053817
1299,0.01829,0.096569,-0.12625,0.18199,-1.2329,-0.3822,-0.030431
1300,-0.0041217,0.082602,-0.14411,0.16543,-1.4554,-0.35979,-0.010293
1301,-0.03303,0.05207,-0.16523,0.12937,-1.5077,-0.31821,0.0078962
1302,-0.050894,0.020888,-0.17887,0.064737,-1.3998,-0.27404,0.021213
1303,-0.042124,0.0056225,-0.17594,-0.022311,-1.1783,-0.24578,0.028359
1304,-0.0034721,0.021538,-0.14574,-0.10384,-0.89604,-0.23668,0.034206
1305,0.055968,0.068635,-0.084674,-0.14346,-0.59527,-0.23636,0.042651
1306,0.11443,0.13132,0.0033489,-0.1178,-0.32341,-0.21914,0.049147
1307,0.14789,0.18946,0.10079,-0.036927,-0.13015,-0.1675,0.048172
1308,0.14269,0.23169,0.18622,0.068635,-0.036602,-0.082725,0.036479
1309,0.10339,0.2541,0.24208,0.16283,-0.029132,0.0088706,0.014717
1310,0.044599,0.2567,0.26255,0.22617,-0.073955,0.074806,-0.010293
1311,-0.01614,0.23689,0.2528,0.25897,-0.13534,0.090072,-0.036602
1312,-0.068434,0.18459,0.22584,0.27164,-0.18894,0.050771,-0.061613
1313,-0.10838,0.10306,0.19271,0.27164,-0.19836,-0.028807,-0.079152
1314,-0.12625,0.01017,0.15828,0.26287,-0.13469,-0.12365,-0.088572
1315,-0.11845,-0.06681,0.12743,0.24533,0.0023744,-0.21037,-0.092145
1316,-0.094093,-0.11228,0.10079,0.22487,0.18037,-0.26949,-0.088896
1317,-0.070707,-0.12138,0.079679,0.2096,0.35869,-0.28963,-0.07428
1318,-0.057065,-0.10124,0.072858,0.19986,0.50453,-0.26592,-0.047971
1319,-0.046347,-0.070382,0.075131,0.18037,0.57663,-0.20485,-0.0080194
1320,-0.031406,-0.045697,0.079029,0.1362,0.51654,-0.12495,0.041027
1321,-0.0099683,-0.034004,0.075781,0.067011,0.28788,-0.051868,0.087149
1322,0.012443,-0.031081,0.06084,-0.0054209,-0.063237,-0.016464,0.11508
1323,0.030308,-0.034004,0.029983,-0.056416,-0.40656,-0.031406,0.11963
1324,0.039402,-0.042449,-0.011592,-0.077203,-0.62808,-0.089546,0.10209
1325,0.041351,-0.054792,-0.050894,-0.069408,-0.67972,-0.1649,0.070909
1326,0.036154,-0.064211,-0.079152,-0.049595,-0.58163,-0.23019,0.033556
1327,0.030957,-0.058689,-0.090521,-0.034978,-0.40461,-0.26169,-0.00054884
1328,0.035505,-0.027183,-0.092145,-0.035628,-0.23279,-0.25455,-0.029782
1329,0.054019,0.029658,-0.086298,-0.045697,-0.13112,-0.22467,-0.053492
1330,0.080978,0.097868,-0.077528,-0.060313,-0.12235,-0.19316,-0.068109
1331,0.10664,0.15601,-0.070058,-0.076554,-0.18309,-0.17887,-0.067459
1332,0.1258,0.18914,-0.061937,-0.088572,-0.26754,-0.18829,-0.052843
1333,0.13587,0.19239,-0.050569,-0.090196,-0.34225,-0.21752,-0.029457
1334,0.13392,0.17062,-0.034329,-0.078178,-0.41273,-0.26397,-0.007045
1335,0.11995,0.131,-0.016789,-0.050894,-0.48484,-0.32698,0.010495
1336,0.096244,0.076106,0.0017248,-0.011592,-0.51764,-0.39259,0.020564
1337,0.064737,0.014392,0.027385,0.034855,-0.46243,-0.43741,0.023162
1338,0.02706,-0.037252,0.069934,0.091696,-0.33088,-0.43904,0.023162
1339,-0.01549,-0.069733,0.13002,0.15309,-0.20355,-0.38545,0.029983
1340,-0.060638,-0.078178,0.19791,0.20798,-0.14671,-0.28443,0.041351
1341,-0.10774,-0.064861,0.25897,0.24338,-0.1308,-0.15905,0.049796
1342,-0.15256,-0.037252,0.29827,0.24436,-0.064861,-0.030756,0.046873
1343,-0.18796,-0.0057458,0.30315,0.21642,0.11736,0.087474,0.030957
1344,-0.20778,0.022188,0.27067,0.17647,0.41228,0.19336,0.00042559
1345,-0.20908,0.044599,0.20635,0.14659,0.7556,0.29178,-0.030756
1346,-0.18861,0.060515,0.12678,0.13522,1.0677,0.3889,-0.052193
1347,-0.14574,0.070259,0.049472,0.13067,1.2883,0.48471,-0.060313
1348,-0.089871,0.069934,-0.016789,0.11801,1.4055,0.56462,-0.059989
1349,-0.037577,0.061814,-0.066485,0.092671,1.4435,0.60652,-0.053492
1350,-0.00054884,0.047198,-0.096367,0.059541,1.4202,0.60197,-0.046671
1351,0.01764,0.030308,-0.10286,0.019264,1.3227,0.56364,-0.045697
1352,0.022837,0.017316,-0.09182,-0.022961,1.123,0.50875,-0.054467
1353,0.025761,0.013093,-0.074605,-0.056416,0.79101,0.44931,-0.063237
1354,0.031607,0.013093,-0.060963,-0.068758,0.32296,0.39182,-0.062262
1355,0.040377,0.0078962,-0.056416,-0.061937,-0.24156,0.33855,-0.048296
1356,0.045574,-0.0057458,-0.061613,-0.050569,-0.8051,0.28561,-0.025234
1357,0.042001,-0.027183,-0.070382,-0.052193,-1.2611,0.22519,-0.0011985
1358,0.032257,-0.056741,-0.080451,-0.078827,-1.5538,0.15114,0.014392
1359,0.021538,-0.085973,-0.086948,-0.12268,-1.6779,0.063763,0.019914
1360,0.017316,-0.10449,-0.091495,-0.16718,-1.6528,-0.035953,0.013743
1361,0.019589,-0.10351,-0.097017,-0.19446,-1.4956,-0.13729,-0.0037969
1362,0.020239,-0.0837,-0.10611,-0.19933,-1.2234,-0.22791,-0.030106
1363,0.016991,-0.054792,-0.11878,-0.18764,-0.85057,-0.2997,-0.059014
1364,0.010495,-0.022636,-0.13112,-0.16165,-0.38252,-0.34874,-0.079802
1365,0.0036737,0.0072465,-0.13892,-0.12657,0.17355,-0.37538,-0.0837
1366,0.0026992,0.037454,-0.13567,-0.088572,0.78191,-0.3809,-0.069083
1367,0.016666,0.074482,-0.11423,-0.053817,1.3623,-0.36238,-0.038551
1368,0.050446,0.1271,-0.075255,-0.024585,1.8138,-0.32893,-0.0047713
1369,0.096244,0.19596,-0.021986,0.0049729,2.0392,-0.2984,0.022837
1370,0.1349,0.26709,0.036479,0.040052,1.9908,-0.28898,0.041351
1371,0.15016,0.32263,0.092996,0.07708,1.6897,-0.30457,0.053694
1372,0.1349,0.3444,0.13749,0.10859,1.2337,-0.33575,0.059541
1373,0.097868,0.32263,0.17322,0.13035,0.74683,-0.35881,0.059216
1374,0.053369,0.2606,0.20278,0.14334,0.33498,-0.34907,0.054993
1375,0.012768,0.17322,0.22129,0.15146,0.042651,-0.29353,0.049796
1376,-0.016464,0.0852,0.22389,0.15633,-0.13892,-0.19608,0.046548
1377,-0.03173,0.0033489,0.2109,0.15893,-0.23701,-0.070058,0.050121
1378,-0.035953,-0.067459,0.19011,0.15796,-0.2997,0.075131,0.062464
1379,-0.031406,-0.12495,0.1677,0.15114,-0.40039,0.22389,0.080328
1380,-0.025234,-0.1636,0.14496,0.12937,-0.60534,0.35706,0.10404
1381,-0.019388,-0.17757,0.12223,0.094945,-0.91618,0.46263,0.12807
1382,-0.014191,-0.1623,0.10209,0.057592,-1.2442,0.54383,0.15081
1383,-0.0034721,-0.11943,0.090072,0.030633,-1.4641,0.62113,0.17192
1384,0.015692,-0.062262,0.09397,0.019589,-1.5021,0.71273,0.19369
1385,0.045574,-0.007045,0.10631,0.019589,-1.3459,0.81212,0.20895
1386,0.084876,0.036804,0.11281,0.021538,-1.0149,0.89332,0.20863
1387,0.13132,0.067336,0.10014,0.016016,-0.57708,0.92645,0.19271
1388,0.17225,0.090072,0.067661,-0.0050961,-0.16165,0.89105,0.1677
1389,0.19888,0.10924,0.026735,-0.054142,0.10404,0.77639,0.14496
1390,0.2109,0.1271,-0.0083442,-0.13437,0.18069,0.59807,0.13717
1391,0.21252,0.14886,-0.027833,-0.22661,0.12483,0.38922,0.14854
1392,0.21545,0.17127,-0.03173,-0.30165,0.026085,0.18784,0.17387
1393,0.22194,0.18557,-0.021661,-0.32925,-0.060313,0.019264,0.19628
1394,0.22194,0.18329,-0.011267,-0.28443,-0.13275,-0.11131,0.19791
1395,0.2057,0.15926,-0.0076946,-0.15808,-0.20518,-0.20875,0.17127
1396,0.17387,0.11476,-0.013541,0.027385,-0.25585,-0.28021,0.1206
1397,0.12937,0.052395,-0.02426,0.22194,-0.24091,-0.33218,0.06084
1398,0.074157,-0.01614,-0.03173,0.37655,-0.16425,-0.37018,0.0043233
1399,0.017316,-0.080127,-0.029782,0.45548,-0.073306,-0.39519,-0.041799
1400,-0.03173,-0.12755,-0.017114,0.45483,-0.014191,-0.39941,-0.076879
1401,-0.06551,-0.15126,0.0056225,0.40026,0.0036737,-0.37505,-0.097341
1402,-0.084674,-0.14704,0.03453,0.33563,-0.00054884,-0.32503,-0.10351
1403,-0.087922,-0.11683,0.063438,0.28788,-0.0060706,-0.26332,-0.10286
1404,-0.080127,-0.069408,0.087149,0.25378,-0.0057458,-0.20972,-0.10059
1405,-0.067459,-0.017764,0.10014,0.21317,-0.0067202,-0.17789,-0.09994
1406,-0.054792,0.02641,0.097543,0.15828,-0.020037,-0.17042,-0.10156
1407,-0.051219,0.05142,0.077405,0.092996,-0.044723,-0.17887,-0.10156
1408,-0.060313,0.055643,0.042975,0.02706,-0.068109,-0.18796,-0.097017
1409,-0.076229,0.0433,0.0020496,-0.026209,-0.072331,-0.18407,-0.088896
1410,-0.09117,0.019914,-0.033354,-0.061288,-0.051219,-0.1623,-0.079802
1411,-0.094743,-0.0047713,-0.055766,-0.079802,-0.0050961,-0.12852,-0.066485
1412,-0.0837,-0.025234,-0.059014,-0.09117,0.058241,-0.097666,-0.04862
1413,-0.062587,-0.035628,-0.046671,-0.098316,0.13652,-0.075579,-0.023935
1414,-0.034329,-0.034978,-0.033354,-0.10189,0.22552,-0.061937,0.0036737
1415,-0.0024977,-0.028157,-0.030106,-0.10449,0.31289,-0.04927,0.030633
1416,0.029333,-0.026858,-0.037902,-0.10611,0.38045,-0.034329,0.050121
1417,0.058891,-0.038876,-0.051544,-0.10676,0.41228,-0.015165,0.061814
1418,0.080003,-0.064861,-0.067784,-0.10546,0.40124,0.0078962,0.066686
1419,0.093321,-0.097666,-0.084674,-0.10384,0.33887,0.022512,0.073507
1420,0.095594,-0.1282,-0.10384,-0.10416,0.23624,0.014392,0.080328
1421,0.078055,-0.15451,-0.1217,-0.10741,0.11736,-0.02361,0.082602
1422,0.036804,-0.17789,-0.13892,-0.11456,0.009845,-0.085648,0.074806
1423,-0.020687,-0.19576,-0.15353,-0.11553,-0.069408,-0.15353,0.054019
1424,-0.072331,-0.20648,-0.15938,-0.095393,-0.11001,-0.20193,0.022512
1425,-0.093769,-0.19966,-0.15483,-0.048296,-0.10936,-0.21525,-0.0080194
1426,-0.072656,-0.1675,-0.13762,0.01894,-0.07493,-0.19446,-0.025884
1427,-0.011267,-0.10709,-0.10936,0.088448,-0.021337,-0.15776,-0.026533
1428,0.070584,-0.021012,-0.071682,0.13847,0.034206,-0.12365,-0.014191
1429,0.14821,0.077405,-0.034004,0.15471,0.080328,-0.098641,0.003024
1430,0.19758,0.16933,-0.0024977,0.13425,0.11151,-0.077853,0.016991
1431,0.20668,0.23396,0.016341,0.087149,0.14107,-0.055766,0.024461
1432,0.18134,0.258,0.022188,0.034206,0.21382,-0.027833,0.021863
1433,0.14302,0.24533,0.01829,0.003024,0.36713,0.0049729,0.016666
1434,0.10826,0.2083,0.0056225,-0.0011985,0.57761,0.036804,0.013418
1435,0.087149,0.16153,-0.013541,-0.0083442,0.75106,0.050771,0.009845
1436,0.081303,0.11931,-0.036602,-0.048945,0.78581,0.033231,0.00075039
1437,0.084226,0.092671,-0.054142,-0.123,0.63867,-0.018413,-0.012892
1438,0.090072,0.090397,-0.056091,-0.20843,0.36843,-0.084024,-0.025234
1439,0.097868,0.10989,-0.03238,-0.26559,0.094945,-0.13502,-0.029457
1440,0.10631,0.14399,0.015692,-0.26169,-0.062587,-0.15483,-0.02426
1441,0.11216,0.17777,0.072858,-0.19381,-0.059014,-0.14996,-0.012892
1442,0.10924,0.19758,0.11833,-0.097991,0.056292,-0.13599,-0.0037969
1443,0.09397,0.19174,0.13652,-0.020362,0.18264,-0.12917,-0.0067202
1444,0.066362,0.16608,0.12613,0.0072465,0.24046,-0.13729,-0.024585
1445,0.028034,0.13392,0.090722,-0.018088,0.20668,-0.15678,-0.050569
1446,-0.010293,0.11118,0.039402,-0.076554,0.11021,-0.17497,-0.072981
1447,-0.037577,0.11411,-0.0080194,-0.12885,0.0039985,-0.16945,-0.079802
1448,-0.047971,0.13717,-0.038876,-0.15158,-0.06616,-0.12105,-0.062262
1449,-0.044073,0.1638,-0.050894,-0.13892,-0.0837,-0.022636,-0.023935
1450,-0.03173,0.17777,-0.046671,-0.10319,-0.054467,0.11476,0.01894
1451,-0.020037,0.17874,-0.030756,-0.055766,-0.012242,0.25897,0.054993
1452,-0.0089938,0.17777,-0.0041217,-0.013216,0.0069217,0.3759,0.079354
1453,0.00075039,0.18297,0.028684,0.013743,-0.019388,0.43404,0.091372
1454,0.0026992,0.18589,0.061489,0.026735,-0.089221,0.41585,0.092671
1455,-0.0099683,0.16185,0.091047,0.037778,-0.16555,0.32134,0.083251
1456,-0.040825,0.090397,0.11378,0.059216,-0.18666,0.18297,0.072858
1457,-0.081751,-0.025234,0.12515,0.09462,-0.09994,0.055318,0.067011
1458,-0.11878,-0.15321,0.11898,0.12515,0.10339,-0.0093186,0.065062
1459,-0.14411,-0.26137,0.090397,0.13392,0.37623,0.012443,0.061489
1460,-0.161,-0.33348,0.042001,0.11638,0.64972,0.11086,0.053044
1461,-0.18147,-0.37505,-0.01484,0.080978,0.86376,0.25215,0.038428
1462,-0.20648,-0.39714,-0.06551,0.046873,0.98979,0.39734,0.019264
1463,-0.23051,-0.39844,-0.098641,0.026735,1.0171,0.51265,-0.0034721
1464,-0.24026,-0.37375,-0.10968,0.020239,0.95276,0.57046,-0.03173
1465,-0.22597,-0.31561,-0.10416,0.021538,0.81634,0.55877,-0.063561
1466,-0.18764,-0.23051,-0.090521,0.025111,0.63315,0.49381,-0.089871
1467,-0.13859,-0.13437,-0.075255,0.031932,0.43534,0.40319,-0.10221
1468,-0.089221,-0.042124,-0.05804,0.041351,0.24923,0.31159,-0.09117
1469,-0.046671,0.0433,-0.032055,0.051745,0.087474,0.23883,-0.061613
1470,-0.013216,0.12385,0.00042559,0.058891,-0.066485,0.19076,-0.018088
1471,0.017316,0.19726,0.03453,0.063763,-0.24383,0.16185,0.02641
1472,0.045574,0.26449,0.06831,0.057267,-0.46795,0.14237,0.059541
1473,0.072208,0.32588,0.10144,0.038753,-0.71253,0.12353,0.076106
1474,0.10112,0.38565,0.13522,0.022512,-0.89344,0.10501,0.080328
1475,0.13392,0.43729,0.1664,0.023487,-0.93112,0.086824,0.083901
1476,0.16608,0.46717,0.19271,0.045574,-0.81322,0.070909,0.097218
1477,0.18816,0.45418,0.21285,0.080328,-0.59754,0.054993,0.11898
1478,0.19434,0.39182,0.22389,0.11541,-0.36336,0.037129,0.14464
1479,0.18102,0.28463,0.21772,0.14172,-0.16815,0.019264,0.1625
1480,0.14659,0.14691,0.18914,0.15568,-0.035303,0.0059473,0.16673
1481,0.093321,-0.00054884,0.14204,0.15633,0.033231,0.00010078,0.15731
1482,0.029333,-0.14152,0.082602,0.14756,0.039727,0.00075039,0.13847
1483,-0.035303,-0.25942,0.021213,0.1336,0.00075039,0.0033489,0.11508
1484,-0.091495,-0.34257,-0.034329,0.11573,-0.052843,0.0036737,0.090397
1485,-0.13567,-0.39097,-0.0824,0.090722,-0.087922,-0.0057458,0.062464
1486,-0.1649,-0.41013,-0.12073,0.058891,-0.075579,-0.029132,0.029983
1487,-0.17562,-0.41208,-0.14704,0.028359,-0.0080194,-0.062912,-0.0057458
1488,-0.1649,-0.40169,-0.15776,0.0069217,0.094945,-0.097666,-0.03303
1489,-0.13697,-0.3809,-0.15483,-0.0015233,0.19109,-0.12625,-0.046022
1490,-0.10026,-0.35037,-0.14216,0.0014,0.23136,-0.14639,-0.040825
1491,-0.061288,-0.30749,-0.1269,0.011469,0.19076,-0.15743,-0.025559
1492,-0.022311,-0.24935,-0.11423,0.023487,0.078704,-0.15873,-0.0089938
1493,0.016666,-0.1727,-0.10384,0.040052,-0.059989,-0.15808,0.0036737
1494,0.055318,-0.077203,-0.090845,0.063113,-0.18666,-0.161,0.0075714
1495,0.094295,0.024461,-0.070707,0.091696,-0.27858,-0.16912,0.0010752
1496,0.13295,0.12028,-0.042124,0.12255,-0.34062,-0.17692,-0.012242
1497,0.16835,0.20311,-0.00087364,0.15114,-0.39551,-0.17692,-0.022636
1498,0.19531,0.27359,0.054344,0.17355,-0.49068,-0.17107,-0.02426
1499,0.20668,0.32978,0.11866,0.19044,-0.64757,-0.1623,-0.017439
1500,0.20538,0.36811,0.18102,0.20051,-0.82523,-0.15288,-0.0083442
1501,0.207,0.38337,0.23396,0.20765,-0.95191,-0.14736,-0.00054884
1502,0.22097,0.3772,0.27067,0.21675,-0.98212,-0.14964,0.0020496
1503,0.23786,0.34959,0.28918,0.22714,-0.92235,-0.16425,-0.0037969
1504,0.23754,0.29697,0.28366,0.22259,-0.82296,-0.18829,-0.021337
1505,0.20376,0.22162,0.25118,0.18232,-0.73299,-0.20713,-0.044723
1506,0.13912,0.13684,0.20148,0.10079,-0.66023,-0.20648,-0.062262
1507,0.061814,0.072858,0.15991,-0.0011985,-0.56182,-0.18049,-0.068109
1508,-0.0024977,0.054668,0.14269,-0.088247,-0.39129,-0.13242,-0.062262
1509,-0.030756,0.088448,0.15146,-0.13534,-0.15256,-0.069733,-0.045047
1510,-0.021986,0.14659,0.1703,-0.14769,0.086824,-0.0050961,-0.026209
1511,0.0085458,0.18719,0.17387,-0.14574,0.24728,0.040702,-0.017439
1512,0.03518,0.17777,0.14302,-0.14769,0.29762,0.051745,-0.023935
1513,0.042326,0.11541,0.079679,-0.15418,0.25443,0.026085,-0.035953
1514,0.031607,0.025436,0.01017,-0.15386,0.13977,-0.027833,-0.040175
1515,0.016666,-0.057065,-0.03303,-0.13307,-0.042124,-0.098316,-0.033354
1516,0.008221,-0.10026,-0.033354,-0.093119,-0.25422,-0.16653,-0.012892
1517,0.012443,-0.084024,-0.0024977,-0.051544,-0.4254,-0.20875,0.01764
1518,0.029333,-0.011267,0.041351,-0.022311,-0.49036,-0.20453,0.047198
1519,0.056942,0.10014,0.07708,0.0043233,-0.41013,-0.14899,0.068635
1520,0.089748,0.21772,0.096244,0.047523,-0.19316,-0.064211,0.081952
1521,0.11638,0.30769,0.094945,0.11833,0.1245,0.015692,0.084551
1522,0.131,0.34212,0.076106,0.21025,0.5055,0.06831,0.079679
1523,0.13035,0.31516,0.053694,0.29827,0.89462,0.090397,0.072858
1524,0.11866,0.24371,0.036479,0.35544,1.2084,0.092996,0.066686
1525,0.099167,0.15114,0.024137,0.36908,1.3714,0.090722,0.057917
1526,0.074806,0.063113,0.015042,0.33465,1.3562,0.091696,0.042651
1527,0.047523,-0.0031473,0.0026992,0.26514,1.1772,0.096893,0.022837
1528,0.023162,-0.038227,-0.020687,0.18946,0.88683,0.095269,0.0091954
1529,0.0091954,-0.050244,-0.054792,0.13457,0.56754,0.070584,0.009845
1530,0.0049729,-0.052193,-0.092469,0.10729,0.3038,0.034206,0.023162
1531,0.0023744,-0.056741,-0.1282,0.09462,0.14139,0.012443,0.045574
1532,-0.0060706,-0.071682,-0.15451,0.081303,0.074806,0.026735,0.071883
1533,-0.022636,-0.097017,-0.1636,0.062139,0.070909,0.079354,0.097868
1534,-0.0405,-0.12235,-0.15321,0.045249,0.084876,0.15503,0.12353
1535,-0.051544,-0.13404,-0.123,0.039727,0.078379,0.22519,0.14237
1536,-0.04992,-0.12138,-0.078827,0.049472,0.022512,0.27067,0.14854
1537,-0.037252,-0.089546,-0.034978,0.063113,-0.087922,0.28691,0.13814
1538,-0.017764,-0.050894,-0.0063954,0.064737,-0.21947,0.28398,0.11508
1539,0.0033489,-0.017439,-0.0018481,0.047523,-0.31626,0.26937,0.089423
1540,0.022188,0.0049729,-0.019063,0.016991,-0.32536,0.2528,0.067336
1541,0.038103,0.022512,-0.049595,-0.01614,-0.22532,0.2463,0.053694
1542,0.057267,0.040702,-0.076554,-0.04862,-0.041475,0.25735,0.050446
1543,0.07708,0.062139,-0.090521,-0.075579,0.15471,0.28008,0.06019
1544,0.090397,0.083251,-0.089221,-0.088896,0.28658,0.30704,0.075456
1545,0.088448,0.10501,-0.076229,-0.089221,0.32491,0.32718,0.088124
1546,0.074806,0.12288,-0.056741,-0.076554,0.28431,0.33238,0.097218
1547,0.061489,0.1258,-0.037577,-0.052518,0.2109,0.31679,0.10501
1548,0.054344,0.10599,-0.021337,-0.021337,0.15503,0.28041,0.11118
1549,0.05142,0.067661,-0.0067202,0.01017,0.15958,0.22812,0.11118
1550,0.046548,0.027385,0.011144,0.038428,0.23396,0.16543,0.10339
1551,0.035505,0.0049729,0.033881,0.06019,0.34894,0.098193,0.086824
1552,0.012119,0.0046481,0.058891,0.06896,0.47042,0.032257,0.063763
1553,-0.027183,0.0052977,0.083251,0.055318,0.59515,-0.027183,0.039402
1554,-0.079152,-0.020037,0.095269,0.019589,0.74359,-0.08305,0.0095202
1555,-0.13469,-0.081751,0.090072,-0.028482,0.91086,-0.13794,-0.027508
1556,-0.18277,-0.1649,0.06831,-0.077853,1.0505,-0.20096,-0.067784
1557,-0.22174,-0.24058,0.03518,-0.11553,1.1135,-0.28183,-0.10644
1558,-0.2539,-0.2893,0.00075039,-0.13697,1.0694,-0.3757,-0.13404
1559,-0.28151,-0.30782,-0.025559,-0.14931,0.91346,-0.46957,-0.14411
1560,-0.30294,-0.30619,-0.035303,-0.16133,0.65491,-0.54233,-0.13567
1561,-0.31204,-0.29872,-0.029132,-0.17887,0.30087,-0.57578,-0.11293
1562,-0.30327,-0.2971,-0.012892,-0.19186,-0.11845,-0.56084,-0.082725
1563,-0.27501,-0.30424,0.0052977,-0.18926,-0.53096,-0.50108,-0.057065
1564,-0.22986,-0.31009,0.015692,-0.16523,-0.84537,-0.41111,-0.043748
1565,-0.17692,-0.30294,0.012443,-0.1217,-1.0006,-0.31626,-0.045697
1566,-0.12592,-0.27761,-0.0047713,-0.06551,-1.0113,-0.22986,-0.060638
1567,-0.085324,-0.23831,-0.02426,0.0046481,-0.94801,-0.15581,-0.079802
1568,-0.057715,-0.19219,-0.03303,0.099492,-0.87623,-0.093769,-0.095068
1569,-0.033354,-0.14087,-0.024909,0.21512,-0.82361,-0.039526,-0.098965
1570,-0.0041217,-0.073955,-0.00087364,0.31841,-0.78788,0.010819,-0.089546
1571,0.033881,0.014392,0.028034,0.35122,-0.77392,0.06019,-0.071032
1572,0.080653,0.12093,0.047198,0.28268,-0.7973,0.10631,-0.04992
1573,0.13035,0.22844,0.051096,0.12872,-0.85219,0.15568,-0.026209
1574,0.17387,0.32231,0.041351,-0.054792,-0.89572,0.21577,0.00010078
1575,0.20603,0.39084,0.029983,-0.20323,-0.8837,0.28496,0.025436
1576,0.22487,0.42852,0.031282,-0.27404,-0.80022,0.34472,0.048497
1577,0.23429,0.42885,0.051096,-0.26332,-0.66835,0.37168,0.067011
1578,0.23461,0.38013,0.076106,-0.20096,-0.53323,0.34797,0.074482
1579,0.22129,0.27716,0.090072,-0.12625,-0.41013,0.28236,0.062464
1580,0.18069,0.12807,0.082927,-0.06681,-0.26072,0.19823,0.031932
1581,0.10534,-0.04927,0.055643,-0.034329,-0.067784,0.12353,-0.007045
1582,0.0052977,-0.23506,0.015692,-0.024909,0.12645,0.071558,-0.045047
1583,-0.10189,-0.40363,-0.021661,-0.031081,0.26384,0.0433,-0.071682
1584,-0.19803,-0.53161,-0.046022,-0.037902,0.31354,0.033881,-0.078827
1585,-0.27404,-0.59852,-0.059014,-0.039526,0.28723,0.032582,-0.069083
1586,-0.32568,-0.59787,-0.065186,-0.036602,0.21415,0.029009,-0.054792
1587,-0.35361,-0.54428,-0.064536,-0.028157,0.11768,0.016016,-0.04862
1588,-0.35751,-0.46307,-0.059014,-0.014191,-0.0011985,-0.0063954,-0.05739
1589,-0.34095,-0.37343,-0.048296,-0.00054884,-0.15256,-0.034004,-0.072981
1590,-0.30847,-0.28638,-0.033354,0.0078962,-0.32308,-0.060313,-0.0837
1591,-0.2591,-0.21037,-0.019063,0.009845,-0.44878,-0.083375,-0.084674
1592,-0.19024,-0.14411,-0.008669,0.008221,-0.45106,-0.10481,-0.080127
1593,-0.10676,-0.080776,-0.0031473,0.00010078,-0.28216,-0.12398,-0.076879
1594,-0.017764,-0.012892,0.0026992,-0.016464,0.041027,-0.13892,-0.073631
1595,0.066037,0.061814,0.014392,-0.038227,0.41715,-0.15061,-0.062262
1596,0.14237,0.14659,0.041351,-0.057715,0.72085,-0.1662,-0.037902
1597,0.2135,0.24695,0.079679,-0.067134,0.86831,-0.18666,-0.0060706
1598,0.28008,0.35901,0.12255,-0.065186,0.85434,-0.20908,0.024137
1599,0.33335,0.46945,0.1625,-0.052843,0.73254,-0.22726,0.046873
1600,0.36194,0.55877,0.19563,-0.034329,0.57046,-0.23928,0.062139
1601,0.36356,0.60717,0.22162,-0.0089938,0.40838,-0.24221,0.072208
1602,0.34862,0.60976,0.23689,0.020888,0.2541,-0.23376,0.076755
1603,0.32881,0.57728,0.23526,0.049147,0.095594,-0.21297,0.081303
1604,0.31224,0.52694,0.2122,0.070584,-0.070058,-0.18764,0.085525
1605,0.3038,0.4727,0.16868,0.086824,-0.22629,-0.17237,0.090072
1606,0.30445,0.42755,0.11378,0.10631,-0.34614,-0.17367,0.092021
1607,0.31029,0.40026,0.061165,0.13067,-0.4137,-0.17692,0.094295
1608,0.30997,0.39052,0.019914,0.15666,-0.41955,-0.16003,0.099167
1609,0.2947,0.3863,-0.0063954,0.17485,-0.3757,-0.10644,0.10404
1610,0.2619,0.37883,-0.019063,0.17322,-0.30749,-0.019063,0.10761
1611,0.22097,0.36616,-0.017764,0.15276,-0.24578,0.0852,0.11183
1612,0.18654,0.35252,-0.0083442,0.13067,-0.20778,0.18459,0.11963
1613,0.1716,0.33985,0.0039985,0.12418,-0.19446,0.25572,0.13262
1614,0.1703,0.32491,0.012443,0.14042,-0.20096,0.28431,0.14789
1615,0.17387,0.30055,0.013418,0.17485,-0.21492,0.27391,0.15926
1616,0.16803,0.26449,0.01017,0.21772,-0.2146,0.23721,0.16445
1617,0.14756,0.21545,0.0026992,0.24955,-0.18536,0.19206,0.1625
1618,0.11313,0.15438,-0.0034721,0.25572,-0.1282,0.15601,0.15926
1619,0.070909,0.089748,-0.007045,0.23461,-0.058689,0.14269,0.15731
1620,0.032906,0.035505,-0.0089938,0.19239,0.0046481,0.15016,0.15309
1621,0.0088706,0.0020496,-0.008669,0.13977,0.046873,0.16673,0.14984
1622,0.00075039,-0.0054209,-0.007045,0.090397,0.075131,0.18004,0.14789
1623,0.0059473,0.014392,-0.0021729,0.058241,0.13392,0.18297,0.14172
1624,0.020564,0.049796,0.0056225,0.046873,0.27164,0.17095,0.1297
1625,0.04395,0.083901,0.013093,0.047847,0.48991,0.14302,0.10729
1626,0.066362,0.10112,0.012443,0.053044,0.71987,0.10209,0.076431
1627,0.079029,0.097218,-0.00054884,0.064737,0.87383,0.049472,0.042001
1628,0.072858,0.076431,-0.021012,0.083251,0.90436,0.0010752,0.016666
1629,0.047523,0.042001,-0.039526,0.10599,0.82316,-0.028157,0.0075714
1630,0.0065969,-0.0011985,-0.051868,0.12255,0.68967,-0.033679,0.013418
1631,-0.037252,-0.047321,-0.056741,0.12483,0.55487,-0.020362,0.028684
1632,-0.067459,-0.092794,-0.055766,0.11281,0.43469,0.0059473,0.049796
1633,-0.073631,-0.13469,-0.055441,0.092346,0.32328,0.039402,0.076431
1634,-0.061613,-0.1753,-0.059339,0.062789,0.23071,0.072533,0.10047
1635,-0.046671,-0.21362,-0.065186,0.022512,0.18037,0.097543,0.11541
1636,-0.040175,-0.24286,-0.069733,-0.027183,0.18719,0.11248,0.11703
1637,-0.044398,-0.25065,-0.06681,-0.070707,0.23851,0.12288,0.10469
1638,-0.054792,-0.23538,-0.055766,-0.088572,0.29015,0.1258,0.081627
1639,-0.068109,-0.20908,-0.039851,-0.070058,0.28528,0.10826,0.048497
1640,-0.086623,-0.18829,-0.028482,-0.02426,0.16445,0.061814,0.0020496
1641,-0.11066,-0.18407,-0.028157,0.023162,-0.098965,-0.014516,-0.05739
1642,-0.13567,-0.19803,-0.042124,0.044924,-0.47217,-0.10384,-0.11878
1643,-0.15321,-0.21785,-0.061937,0.026735,-0.84732,-0.18634,-0.16847
1644,-0.15516,-0.23214,-0.076554,-0.020687,-1.0929,-0.24513,-0.19641
1645,-0.13989,-0.23246,-0.079152,-0.07493,-1.1341,-0.27501,-0.20096
1646,-0.11326,-0.21622,-0.06551,-0.11391,-0.99121,-0.28313,-0.18569
1647,-0.082076,-0.18504,-0.036927,-0.12592,-0.75053,-0.28346,-0.15776
1648,-0.053817,-0.14314,0.00075039,-0.11228,-0.5118,-0.2932,-0.1295
1649,-0.030756,-0.091495,0.040052,-0.081101,-0.34842,-0.31756,-0.10871
1650,-0.0073698,-0.035628,0.067986,-0.046671,-0.28768,-0.35004,-0.097666
1651,0.01894,0.020888,0.078704,-0.018088,-0.30847,-0.37603,-0.093444
1652,0.044599,0.073832,0.075131,-0.0057458,-0.36466,-0.38447,-0.085648
1653,0.066362,0.12158,0.064737,-0.0047713,-0.40818,-0.36888,-0.073955
1654,0.075456,0.1625,0.056942,-0.0044465,-0.41695,-0.32763,-0.054792
1655,0.066362,0.19531,0.053694,-0.0041217,-0.39129,-0.26527,-0.036278
1656,0.03453,0.21415,0.049147,-0.011267,-0.35979,-0.19413,-0.026209
1657,-0.013216,0.20538,0.033556,-0.032705,-0.36206,-0.13632,-0.031081
1658,-0.061613,0.15893,-0.0011985,-0.069733,-0.40721,-0.10774,-0.050894
1659,-0.092794,0.084551,-0.046996,-0.11683,-0.44521,-0.10676,-0.078503
1660,-0.095393,0.0072465,-0.090521,-0.16263,-0.40136,-0.11228,-0.10026
1661,-0.07493,-0.046996,-0.11683,-0.19283,-0.23084,-0.094418,-0.10806
1662,-0.042124,-0.059664,-0.1204,-0.19381,0.06084,-0.037252,-0.096692
1663,-0.0099683,-0.02426,-0.10189,-0.15776,0.41326,0.067986,-0.062912
1664,0.013418,0.047847,-0.074605,-0.085324,0.74326,0.21252,-0.012892
1665,0.024786,0.13522,-0.055441,0.00075039,0.96803,0.37785,0.042975
1666,0.025111,0.20538,-0.055441,0.072208,1.0382,0.54155,0.089098
1667,0.019914,0.22519,-0.070058,0.10047,0.94919,0.67667,0.1232
1668,0.014068,0.18622,-0.087272,0.081952,0.74846,0.76242,0.14432
1669,0.013743,0.10761,-0.098641,0.028684,0.5146,0.7962,0.15601
1670,0.028684,0.024461,-0.10384,-0.044398,0.30639,0.78549,0.16153
1671,0.053694,-0.040825,-0.10481,-0.1217,0.15016,0.74423,0.16835
1672,0.080653,-0.087272,-0.10189,-0.18861,0.053044,0.68934,0.1742
1673,0.095269,-0.12982,-0.09182,-0.22824,0.015367,0.62568,0.17225
1674,0.0852,-0.18082,-0.071357,-0.22239,0.031932,0.54578,0.15406
1675,0.048822,-0.23506,-0.036927,-0.1701,0.090072,0.43177,0.11898
1676,-0.0067202,-0.28151,0.0059473,-0.087922,0.18362,0.28106,0.071234
1677,-0.06616,-0.30359,0.053044,-0.0060706,0.30737,0.10924,0.019589
1678,-0.11521,-0.2867,0.098517,0.05207,0.44541,-0.054142,-0.027833
1679,-0.14346,-0.23344,0.14334,0.07773,0.58963,-0.17789,-0.061937
1680,-0.14346,-0.16165,0.17972,0.074806,0.73027,-0.24026,-0.07428
1681,-0.1178,-0.09117,0.19661,0.058566,0.83258,-0.23571,-0.064536
1682,-0.075579,-0.03303,0.19109,0.039727,0.85012,-0.17497,-0.039201
1683,-0.026209,0.015692,0.16575,0.019264,0.75073,-0.080127,-0.007045
1684,0.024461,0.06084,0.1323,-0.0037969,0.53376,0.017316,0.022512
1685,0.073182,0.10371,0.10209,-0.027508,0.23559,0.093321,0.045574
1686,0.11541,0.14107,0.081303,-0.050569,-0.082076,0.13944,0.064737
1687,0.14919,0.17647,0.072208,-0.061937,-0.34939,0.15796,0.078055
1688,0.16835,0.21123,0.070259,-0.056741,-0.52024,0.15146,0.082602
1689,0.1716,0.24371,0.072533,-0.038227,-0.58618,0.12515,0.07708
1690,0.16445,0.26839,0.075131,-0.0024977,-0.56961,0.085525,0.06831
1691,0.15666,0.28138,0.074157,0.054344,-0.51537,0.04395,0.063763
1692,0.15536,0.28333,0.06831,0.13587,-0.45918,0.0039985,0.06896
1693,0.16218,0.28268,0.062139,0.24078,-0.41435,-0.034654,0.082927
1694,0.17485,0.28366,0.064088,0.35252,-0.36076,-0.078827,0.10047
1695,0.18687,0.28366,0.078055,0.45353,-0.26819,-0.13275,0.11443
1696,0.18784,0.26742,0.098193,0.52142,-0.12592,-0.19543,0.11833
1697,0.16965,0.22032,0.11378,0.53863,0.038753,-0.25325,0.10891
1698,0.131,0.14009,0.11378,0.49933,0.18589,-0.28735,0.091696
1699,0.078704,0.039727,0.097218,0.41001,0.28723,-0.28378,0.073182
1700,0.029658,-0.05804,0.072208,0.296,0.33498,-0.24188,0.059216
1701,-0.0067202,-0.12787,0.050771,0.19628,0.34992,-0.17594,0.050446
1702,-0.025884,-0.16133,0.039727,0.13814,0.35252,-0.10644,0.042001
1703,-0.038227,-0.1675,0.042651,0.11346,0.34115,-0.057065,0.026085
1704,-0.053492,-0.16035,0.05272,0.09462,0.29892,-0.046671,0.0049729
1705,-0.076879,-0.15321,0.061814,0.059865,0.22357,-0.067459,-0.01614
1706,-0.09929,-0.14476,0.06961,0.0072465,0.14107,-0.093444,-0.03173
1707,-0.11683,-0.13567,0.072533,-0.038876,0.085525,-0.097666,-0.042449
1708,-0.12982,-0.12722,0.072208,-0.062587,0.064088,-0.05804,-0.050244
1709,-0.14249,-0.1256,0.066686,-0.059339,0.062139,0.032582,-0.050569
1710,-0.15451,-0.13762,0.056942,-0.035628,0.071883,0.16998,-0.036602
1711,-0.16653,-0.16328,0.04395,-0.0037969,0.083251,0.33108,-0.010943
1712,-0.17984,-0.19771,0.025111,0.024137,0.093645,0.48147,0.01894
1713,-0.19089,-0.22986,0.0046481,0.046548,0.10339,0.58475,0.042326
1714,-0.19836,-0.25422,-0.014191,0.062464,0.11151,0.61756,0.049472
1715,-0.20096,-0.26754,-0.032705,0.069934,0.10924,0.57598,0.038753
1716,-0.19576,-0.27176,-0.04927,0.06961,0.096569,0.47367,0.016016
1717,-0.18569,-0.26559,-0.059989,0.065387,0.096893,0.3366,-0.0083442
1718,-0.1688,-0.24968,-0.064211,0.05272,0.1362,0.19693,-0.024909
1719,-0.14411,-0.22629,-0.063561,0.03518,0.21285,0.080653,-0.031081
1720,-0.11228,-0.18959,-0.059014,0.016666,0.28626,0.0014,-0.023285
1721,-0.075904,-0.13794,-0.051544,-0.0063954,0.31322,-0.038551,-0.0050961
1722,-0.042774,-0.06681,-0.037252,-0.033354,0.28398,-0.04992,0.012119
1723,-0.017439,0.019914,-0.021012,-0.054792,0.2083,-0.046671,0.01829
1724,-0.0031473,0.10859,-0.012242,-0.067784,0.09462,-0.042124,0.011144
1725,0.0088706,0.18232,-0.018738,-0.075579,-0.050894,-0.044398,-0.0018481
1726,0.030308,0.23396,-0.041475,-0.082725,-0.21849,-0.058365,-0.016789
1727,0.067011,0.26417,-0.077203,-0.086948,-0.38772,-0.088572,-0.025234
1728,0.11963,0.27619,-0.11715,-0.081426,-0.53193,-0.13697,-0.026858
1729,0.17712,0.28138,-0.14704,-0.056416,-0.63262,-0.19348,-0.018738
1730,0.23104,0.29308,-0.15321,-0.010618,-0.69369,-0.24058,-0.0047713
1731,0.27359,0.31614,-0.13437,0.046548,-0.74501,-0.26202,0.01017
1732,0.29925,0.3444,-0.094093,0.092671,-0.80964,-0.2513,0.020564
1733,0.30867,0.36941,-0.041799,0.11346,-0.87526,-0.2133,0.030633
1734,0.30412,0.385,0.015042,0.11151,-0.89799,-0.1636,0.044599
1735,0.28658,0.38532,0.071558,0.098842,-0.84407,-0.11748,0.061814
1736,0.25605,0.36713,0.1258,0.084226,-0.71902,-0.086298,0.076431
1737,0.2135,0.32946,0.18427,0.068635,-0.56376,-0.076229,0.082602
1738,0.16315,0.28301,0.25443,0.053369,-0.43059,-0.093119,0.080003
1739,0.11118,0.24208,0.3327,0.041351,-0.35524,-0.14346,0.064737
1740,0.065387,0.21512,0.41163,0.038753,-0.33932,-0.22467,0.037778
1741,0.031932,0.20278,0.4727,0.044275,-0.35849,-0.32211,0.008221
1742,0.012443,0.19758,0.49641,0.047198,-0.38025,-0.41435,-0.013541
1743,0.0049729,0.18914,0.47172,0.041676,-0.37668,-0.48126,-0.02426
1744,0.0088706,0.16965,0.40091,0.034855,-0.34647,-0.51504,-0.026533
1745,0.019589,0.14172,0.2986,0.030308,-0.30197,-0.52544,-0.027833
1746,0.031932,0.11054,0.19271,0.032257,-0.26039,-0.52186,-0.034004
1747,0.041676,0.080653,0.10469,0.041027,-0.23084,-0.5066,-0.043748
1748,0.041027,0.057267,0.044924,0.054019,-0.21492,-0.48094,-0.05739
1749,0.028359,0.036804,0.012119,0.062789,-0.21297,-0.44359,-0.07428
1750,0.0049729,0.016341,-0.0041217,0.05272,-0.21557,-0.39746,-0.096692
1751,-0.025234,-0.0050961,-0.01484,0.01017,-0.21005,-0.34712,-0.12203
1752,-0.056741,-0.020362,-0.026858,-0.058365,-0.17854,-0.2893,-0.14444
1753,-0.080776,-0.020362,-0.043099,-0.13664,-0.11586,-0.22142,-0.15743
1754,-0.089546,-0.00054884,-0.061288,-0.2068,-0.032705,-0.13664,-0.15743
1755,-0.082076,0.035505,-0.072981,-0.26104,0.064737,-0.035303,-0.14281
1756,-0.067784,0.073182,-0.073306,-0.29612,0.17842,0.064088,-0.11618
1757,-0.058689,0.096569,-0.059664,-0.30392,0.30704,0.14626,-0.081101
1758,-0.058365,0.095269,-0.034654,-0.25747,0.44379,0.21415,-0.039851
1759,-0.063886,0.073507,-0.0041217,-0.13372,0.58443,0.27164,0.0023744
1760,-0.071032,0.038753,0.021863,0.062139,0.72507,0.31614,0.041351
1761,-0.07428,-0.00054884,0.036804,0.28301,0.85305,0.34472,0.068635
1762,-0.067134,-0.035303,0.038753,0.45873,0.93652,0.35382,0.086175
1763,-0.051868,-0.058689,0.031932,0.53733,0.93977,0.33758,0.092996
1764,-0.029457,-0.071032,0.01829,0.50518,0.8511,0.29568,0.092021
1765,0.0036737,-0.077853,-0.0011985,0.385,0.69129,0.23331,0.081303
1766,0.0433,-0.089221,-0.025884,0.22227,0.51525,0.16185,0.065712
1767,0.082277,-0.11131,-0.053817,0.068635,0.3876,0.094295,0.046548
1768,0.10566,-0.14736,-0.084999,-0.0405,0.33985,0.037454,0.024786
1769,0.10242,-0.19348,-0.11293,-0.092794,0.35804,-0.0093186,0.0026992
1770,0.074482,-0.23603,-0.12852,-0.097991,0.40806,-0.047971,-0.010293
1771,0.032906,-0.25422,-0.13177,-0.080776,0.461,-0.076554,-0.0080194
1772,-0.0054209,-0.22954,-0.11813,-0.061613,0.49153,-0.088247,0.012119
1773,-0.025559,-0.15451,-0.095393,-0.047971,0.49186,-0.07493,0.046548
1774,-0.019063,-0.038876,-0.072981,-0.037252,0.46263,-0.025884,0.089423
1775,0.012119,0.089098,-0.062587,-0.022961,0.41683,0.055968,0.13295
1776,0.060515,0.19076,-0.062587,-0.00054884,0.37623,0.15828,0.16835
1777,0.10859,0.23689,-0.071032,0.030308,0.35284,0.25865,0.18751
1778,0.14334,0.22259,-0.085324,0.059541,0.33303,0.32946,0.18297
1779,0.15471,0.16868,-0.098641,0.079029,0.29178,0.35219,0.15731
1780,0.14042,0.10242,-0.10546,0.09462,0.21155,0.32848,0.11443
1781,0.10761,0.041351,-0.10091,0.11443,0.099817,0.28593,0.066362
1782,0.069934,-0.015165,-0.080451,0.13652,-0.010943,0.25962,0.025761
1783,0.03518,-0.073955,-0.052518,0.15244,-0.095393,0.26092,0.0085458
1784,0.0046481,-0.13794,-0.033679,0.14691,-0.15451,0.27456,0.020564
1785,-0.021337,-0.20583,-0.030756,0.10924,-0.21135,0.27944,0.054993
1786,-0.047321,-0.26949,-0.045047,0.042001,-0.2984,0.2593,0.09397
1787,-0.076229,-0.32081,-0.067459,-0.027508,-0.41955,0.21123,0.12158
1788,-0.10449,-0.34809,-0.090521,-0.073955,-0.54005,0.14172,0.12775
1789,-0.12885,-0.35102,-0.11131,-0.089871,-0.60664,0.065712,0.10924
1790,-0.14606,-0.33478,-0.13112,-0.088896,-0.57351,-0.00054884,0.072208
1791,-0.15288,-0.30782,-0.14964,-0.089546,-0.42994,-0.048945,0.030957
1792,-0.14899,-0.28053,-0.16588,-0.10806,-0.21525,-0.078178,-0.0015233
1793,-0.13632,-0.2565,-0.17627,-0.14801,0.010495,-0.088896,-0.011917
1794,-0.1204,-0.23051,-0.18049,-0.19901,0.19401,-0.092469,-0.0034721
1795,-0.10449,-0.19511,-0.17822,-0.24221,0.30347,-0.098965,0.011469
1796,-0.089546,-0.15613,-0.16977,-0.26462,0.3392,-0.11423,0.01829
1797,-0.072006,-0.11748,-0.15711,-0.26234,0.33465,-0.13859,0.009845
1798,-0.055766,-0.088572,-0.14314,-0.23831,0.31354,-0.1649,-0.012242
