,channel_1,channel_2,channel_3,channel_4,channel_5,channel_6,channel_7
0,-0.0037969,-0.03238,0.021863,0.015042,0.11346,-0.17497,-0.17757
1,-0.0015233,-0.017439,0.021213,0.046873,0.15893,-0.12333,-0.16068
2,-0.0024977,-0.0024977,0.015692,0.065712,0.20181,-0.06681,-0.15288
3,-0.0021729,0.010819,0.0072465,0.062139,0.23494,-0.0050961,-0.15191
4,0.0069217,0.020239,-0.00087364,0.042651,0.2541,0.06019,-0.15029
5,0.024786,0.024786,-0.0044465,0.025436,0.25345,0.1297,-0.14087
6,0.050446,0.024786,-0.00022403,0.025761,0.23461,0.20148,-0.12268
7,0.074157,0.024137,0.0085458,0.042001,0.20148,0.27099,-0.099615
8,0.088773,0.023487,0.015692,0.070259,0.16738,0.33465,-0.076554
9,0.091696,0.020888,0.01764,0.093645,0.14204,0.38662,-0.060638
10,0.085525,0.01764,0.016016,0.096893,0.12385,0.42625,-0.052193
11,0.074157,0.016991,0.016666,0.078055,0.11476,0.45093,-0.052518
12,0.063113,0.020888,0.023162,0.043625,0.11248,0.45646,-0.060638
13,0.057592,0.028684,0.03583,0.012119,0.11248,0.43307,-0.075904
14,0.055318,0.040052,0.048822,-0.0018481,0.10989,0.38272,-0.092469
15,0.05272,0.048497,0.057592,0.0039985,0.096893,0.31192,-0.10254
16,0.048497,0.051096,0.058891,0.025436,0.066037,0.23461,-0.10449
17,0.045899,0.046548,0.054344,0.060515,0.017965,0.16413,-0.10189
18,0.048172,0.040377,0.049472,0.10501,-0.037577,0.10989,-0.10059
19,0.05272,0.036154,0.05272,0.15309,-0.089871,0.075131,-0.10026
20,0.055643,0.036804,0.061814,0.19888,-0.12592,0.054993,-0.098641
21,0.057917,0.045249,0.070909,0.23299,-0.13762,0.042975,-0.09117
22,0.058891,0.06019,0.079029,0.24306,-0.12755,0.033881,-0.078178
23,0.057267,0.078055,0.0865,0.22129,-0.10611,0.025111,-0.064211
24,0.051745,0.095269,0.097868,0.17582,-0.081751,0.013743,-0.054467
25,0.047523,0.11086,0.10729,0.12515,-0.06616,-0.00022403,-0.051219
26,0.047198,0.11995,0.11054,0.082277,-0.058689,-0.016464,-0.047971
27,0.05207,0.12418,0.10436,0.053044,-0.056741,-0.027508,-0.043099
28,0.061165,0.12158,0.091372,0.042975,-0.055116,-0.027508,-0.034978
29,0.069285,0.11378,0.072858,0.046873,-0.040825,-0.012567,-0.02426
30,0.072533,0.10047,0.054019,0.056942,0.0020496,0.012443,-0.01614
31,0.071883,0.083901,0.040702,0.066362,0.09462,0.040052,-0.011917
32,0.067986,0.065712,0.031932,0.067661,0.25313,0.066362,-0.007045
33,0.06019,0.047847,0.01829,0.055968,0.47302,0.090072,0.0017248
34,0.049472,0.032257,-0.0037969,0.038103,0.70818,0.10501,0.010819
35,0.041027,0.016016,-0.028157,0.022512,0.89495,0.10404,0.017965
36,0.040052,0.0033489,-0.046996,0.009845,0.98524,0.074157,0.020239
37,0.045899,-0.0067202,-0.055766,0.00042559,0.97225,0.012443,0.017316
38,0.050446,-0.017439,-0.055766,-0.0096434,0.88293,-0.073631,0.0095202
39,0.048497,-0.024909,-0.055116,-0.023935,0.75593,-0.1623,-0.00054884
40,0.040052,-0.027508,-0.060313,-0.041475,0.62146,-0.23376,-0.011917
41,0.028359,-0.023285,-0.072006,-0.062587,0.49218,-0.27566,-0.020687
42,0.01829,-0.012567,-0.086298,-0.085973,0.37525,-0.28865,-0.023935
43,0.012443,0.0020496,-0.10319,-0.10319,0.26904,-0.28378,-0.022636
44,0.010819,0.017316,-0.1191,-0.10546,0.1625,-0.27566,-0.019063
45,0.0091954,0.030633,-0.13567,-0.093119,0.044599,-0.27956,-0.020362
46,0.0085458,0.041351,-0.15223,-0.072006,-0.085648,-0.29775,-0.025559
47,0.0085458,0.050121,-0.16295,-0.053492,-0.22499,-0.32178,-0.035303
48,0.010819,0.058241,-0.16295,-0.044398,-0.35979,-0.32731,-0.043099
49,0.014717,0.067011,-0.14996,-0.04862,-0.47607,-0.2997,-0.046022
50,0.020888,0.075456,-0.1243,-0.068109,-0.56376,-0.23733,-0.039526
51,0.027385,0.079679,-0.089221,-0.094093,-0.61898,-0.15288,-0.025559
52,0.031932,0.083576,-0.04862,-0.11715,-0.64204,-0.055116,-0.0083442
53,0.03518,0.090397,-0.0093186,-0.12138,-0.62678,0.051096,0.014068
54,0.038428,0.098193,0.027709,-0.095393,-0.56539,0.15958,0.0433
55,0.042326,0.10112,0.060515,-0.039526,-0.44846,0.2619,0.078055
56,0.042326,0.095269,0.083901,0.03583,-0.2867,0.35479,0.11151
57,0.032257,0.082927,0.096893,0.11248,-0.11845,0.43729,0.13425
58,0.015042,0.068635,0.10274,0.1755,0.012768,0.50453,0.14139
59,-0.0054209,0.054993,0.10664,0.21675,0.082277,0.53896,0.1349
60,-0.019712,0.041676,0.11216,0.23494,0.092996,0.52921,0.11801
61,-0.027183,0.034206,0.11898,0.23624,0.062139,0.48179,0.098517
62,-0.027508,0.033881,0.12515,0.22227,0.01017,0.41196,0.083576
63,-0.022311,0.039078,0.13197,0.19628,-0.045697,0.34245,0.07708
64,-0.01484,0.046223,0.13749,0.15926,-0.088896,0.29275,0.076431
65,-0.0089938,0.05272,0.13977,0.11703,-0.10579,0.27132,0.078704
66,-0.0083442,0.055968,0.13717,0.074806,-0.10384,0.27229,0.081303
67,-0.013541,0.055318,0.13165,0.038428,-0.10351,0.27554,0.080003
68,-0.021661,0.050771,0.13035,0.013743,-0.12495,0.25345,0.072208
69,-0.031081,0.04395,0.1349,0.0052977,-0.17107,0.19174,0.061814
70,-0.039851,0.040377,0.13879,0.015367,-0.23019,0.095919,0.051745
71,-0.043748,0.037778,0.13587,0.033881,-0.28248,-0.012892,0.044924
72,-0.043099,0.029983,0.12418,0.045899,-0.31171,-0.11066,0.036154
73,-0.037577,0.016991,0.10339,0.04395,-0.31464,-0.18277,0.023487
74,-0.03238,0.0017248,0.072208,0.031282,-0.30035,-0.23051,0.0095202
75,-0.029457,-0.012242,0.033231,0.014392,-0.28216,-0.26137,-0.0044465
76,-0.029132,-0.026209,-0.011267,-0.0044465,-0.26332,-0.28281,-0.015165
77,-0.034329,-0.038551,-0.052843,-0.025884,-0.24545,-0.29612,-0.018088
78,-0.042774,-0.047971,-0.084999,-0.042449,-0.22824,-0.30132,-0.010293
79,-0.050569,-0.052193,-0.10351,-0.049595,-0.2081,-0.29807,0.0059473
80,-0.050244,-0.051544,-0.10741,-0.046671,-0.17854,-0.28898,0.020888
81,-0.04115,-0.045697,-0.10286,-0.034654,-0.13502,-0.27923,0.027709
82,-0.028482,-0.038876,-0.094418,-0.017114,-0.086948,-0.26981,0.024137
83,-0.019388,-0.034978,-0.085324,-0.0024977,-0.042774,-0.26072,0.017965
84,-0.015815,-0.034654,-0.075904,0.0023744,-0.011917,-0.25325,0.011469
85,-0.017764,-0.034329,-0.069083,-0.0047713,-0.00087364,-0.25162,0.0062721
86,-0.024909,-0.034329,-0.062912,-0.017439,-0.010618,-0.2552,0.0043233
87,-0.031406,-0.034329,-0.056416,-0.029457,-0.028807,-0.26169,0.0065969
88,-0.030756,-0.029132,-0.044073,-0.035303,-0.044723,-0.26364,0.010819
89,-0.021661,-0.01549,-0.027183,-0.028482,-0.044723,-0.25812,0.013418
90,-0.0083442,0.0052977,-0.0063954,-0.0057458,-0.019712,-0.24578,0.01764
91,0.0056225,0.031607,0.023812,0.034206,0.030308,-0.23214,0.024137
92,0.020888,0.059541,0.069285,0.081627,0.089098,-0.22077,0.032582
93,0.033881,0.083251,0.12937,0.12028,0.1336,-0.21492,0.043625
94,0.043625,0.099492,0.19823,0.13522,0.14237,-0.212,0.054019
95,0.048497,0.10599,0.258,0.12418,0.11216,-0.2081,0.06084
96,0.047523,0.10177,0.28885,0.098842,0.053694,-0.20355,0.060515
97,0.041027,0.0852,0.27359,0.06961,-0.013866,-0.20096,0.053694
98,0.028359,0.059216,0.20928,0.037778,-0.072006,-0.19966,0.045899
99,0.0091954,0.029009,0.11411,0.011469,-0.10903,-0.19836,0.0433
100,-0.0073698,-0.0041217,0.01764,-0.00054884,-0.12495,-0.19673,0.046223
101,-0.016789,-0.035303,-0.055441,0.0091954,-0.13015,-0.19836,0.05207
102,-0.017439,-0.061613,-0.093119,0.039402,-0.1334,-0.20031,0.055643
103,-0.010293,-0.078503,-0.095393,0.074806,-0.13762,-0.19478,0.056292
104,0.00010078,-0.080451,-0.067134,0.099492,-0.14314,-0.17919,0.061165
105,0.012443,-0.064536,-0.018738,0.10696,-0.14769,-0.15386,0.073507
106,0.022188,-0.034654,0.033881,0.098842,-0.14769,-0.1256,0.090722
107,0.028684,0.00042559,0.073182,0.079679,-0.14346,-0.10384,0.10664
108,0.032582,0.033881,0.0865,0.046223,-0.14119,-0.092794,0.11736
109,0.038753,0.058241,0.076106,-0.0050961,-0.14866,-0.088572,0.12385
110,0.047847,0.070584,0.053369,-0.078503,-0.1649,-0.090196,0.13035
111,0.057592,0.073507,0.028684,-0.1727,-0.18049,-0.092469,0.13652
112,0.063763,0.072858,0.01017,-0.28313,-0.19056,-0.09182,0.13977
113,0.068635,0.071883,0.0026992,-0.40104,-0.19478,-0.089546,0.14009
114,0.069285,0.072533,0.0075714,-0.50627,-0.19089,-0.085973,0.13652
115,0.066362,0.073182,0.023812,-0.57546,-0.17335,-0.080127,0.12743
116,0.057917,0.073507,0.042326,-0.58748,-0.13404,-0.06681,0.11183
117,0.049796,0.071234,0.046873,-0.52998,-0.065835,-0.041799,0.089423
118,0.043625,0.066037,0.022837,-0.415,0.028359,-0.0050961,0.062789
119,0.037778,0.059865,-0.025884,-0.27664,0.13652,0.034855,0.037778
120,0.032906,0.055968,-0.088572,-0.15483,0.23429,0.071558,0.017965
121,0.029333,0.055318,-0.14964,-0.066485,0.296,0.096244,0.0043233
122,0.025111,0.056617,-0.19673,-0.007045,0.30834,0.10599,-0.0050961
123,0.016991,0.059541,-0.22369,0.032257,0.27781,0.10436,-0.012242
124,0.0088706,0.067011,-0.23181,0.057592,0.21935,0.09462,-0.018088
125,0.0078962,0.083901,-0.22564,0.071558,0.15244,0.084226,-0.019063
126,0.01894,0.10696,-0.21167,0.073507,0.096569,0.078379,-0.012892
127,0.035505,0.13197,-0.19381,0.074482,0.063113,0.078379,-0.00054884
128,0.047523,0.15471,-0.17562,0.086175,0.05142,0.081627,0.015692
129,0.048822,0.16998,-0.16295,0.10794,0.056617,0.086175,0.030308
130,0.042651,0.1755,-0.15191,0.1323,0.071558,0.088124,0.040052
131,0.035505,0.1703,-0.13859,0.15081,0.097218,0.089423,0.046873
132,0.033231,0.15666,-0.11196,0.15633,0.13327,0.092021,0.056617
133,0.039402,0.13717,-0.060313,0.15309,0.1716,0.096893,0.071558
134,0.05272,0.1206,0.021863,0.15016,0.19823,0.10566,0.0865
135,0.069934,0.11086,0.12418,0.16478,0.20473,0.11606,0.095269
136,0.08585,0.10599,0.22779,0.19953,0.18427,0.12158,0.095594
137,0.09462,0.098517,0.30672,0.24273,0.13814,0.11995,0.092996
138,0.092671,0.081303,0.33725,0.27164,0.073832,0.11021,0.091696
139,0.083251,0.054019,0.31354,0.27586,0.0039985,0.096893,0.089423
140,0.072533,0.020888,0.24111,0.25475,-0.057065,0.088124,0.080003
141,0.061814,-0.011267,0.14237,0.2174,-0.098965,0.089098,0.061165
142,0.052395,-0.042774,0.045574,0.17257,-0.12365,0.099492,0.034855
143,0.045899,-0.077853,-0.030431,0.12645,-0.14411,0.11313,0.008221
144,0.040052,-0.1191,-0.073631,0.084226,-0.17627,0.11963,-0.012242
145,0.033881,-0.16003,-0.085648,0.051745,-0.21817,0.11606,-0.025559
146,0.024461,-0.18991,-0.069733,0.03453,-0.2565,0.10436,-0.03173
147,0.016016,-0.19836,-0.028482,0.03453,-0.27761,0.089748,-0.034329
148,0.0091954,-0.18634,0.029333,0.047198,-0.28053,0.073507,-0.031081
149,0.0078962,-0.1636,0.089098,0.069934,-0.27404,0.063438,-0.02426
150,0.010495,-0.13664,0.1349,0.092346,-0.26039,0.067986,-0.015165
151,0.016666,-0.11066,0.1677,0.11118,-0.23441,0.092996,-0.0024977
152,0.027709,-0.088572,0.19434,0.12223,-0.19251,0.13879,0.011469
153,0.044599,-0.070707,0.22,0.12743,-0.13469,0.20181,0.022188
154,0.063763,-0.052843,0.24208,0.13132,-0.056741,0.27034,0.022512
155,0.076431,-0.033679,0.25767,0.13977,0.043625,0.32751,0.016666
156,0.076755,-0.01549,0.26319,0.15763,0.15796,0.36259,0.0065969
157,0.064413,-0.0011985,0.25735,0.18167,0.28203,0.37168,-0.0031473
158,0.047847,0.0052977,0.23818,0.20083,0.41131,0.36064,-0.010293
159,0.032906,0.0033489,0.20668,0.2096,0.55162,0.3418,-0.010943
160,0.024137,-0.0054209,0.16185,0.20993,0.71143,0.32946,-0.0057458
161,0.021863,-0.017439,0.099167,0.2096,0.88358,0.33011,0.00075039
162,0.024786,-0.027508,0.026085,0.2148,1.0466,0.34342,0.0085458
163,0.027385,-0.035303,-0.044723,0.22487,1.1675,0.36324,0.019589
164,0.026085,-0.048296,-0.092469,0.23786,1.212,0.37655,0.034855
165,0.01764,-0.077203,-0.10384,0.25248,1.1561,0.37428,0.05207
166,0.0036737,-0.11813,-0.084999,0.26774,0.99661,0.35479,0.063438
167,-0.014191,-0.15288,-0.050244,0.27716,0.75755,0.32426,0.065387
168,-0.030431,-0.16035,-0.01614,0.27749,0.49056,0.28658,0.061814
169,-0.046022,-0.13015,0.003024,0.27196,0.25183,0.24501,0.057592
170,-0.059989,-0.06681,0.0033489,0.2619,0.080003,0.20343,0.054668
171,-0.077203,0.0069217,-0.0076946,0.24143,-0.0044465,0.15763,0.052395
172,-0.09929,0.071883,-0.020687,0.20863,0.003024,0.10631,0.049472
173,-0.12365,0.1206,-0.028807,0.17095,0.072208,0.053044,0.046548
174,-0.14216,0.15406,-0.03173,0.1362,0.15568,0.0010752,0.044275
175,-0.15321,0.17322,-0.030431,0.10761,0.21317,-0.04927,0.042326
176,-0.15321,0.17842,-0.029457,0.084226,0.22844,-0.098641,0.041027
177,-0.14184,0.17257,-0.033354,0.061489,0.20538,-0.14346,0.042975
178,-0.12333,0.15861,-0.048296,0.031932,0.14951,-0.17789,0.047847
179,-0.098965,0.14009,-0.073631,-0.0050961,0.076755,-0.19348,0.050121
180,-0.070382,0.11768,-0.11033,-0.047321,-0.0021729,-0.18504,0.046223
181,-0.036602,0.092671,-0.14899,-0.087922,-0.0824,-0.15711,0.03583
182,-0.0011985,0.069934,-0.17757,-0.12008,-0.16035,-0.11975,0.023812
183,0.030308,0.049472,-0.18634,-0.13859,-0.23149,-0.086623,0.019589
184,0.051096,0.03583,-0.17659,-0.14639,-0.29482,-0.067134,0.016666
185,0.061489,0.025761,-0.15905,-0.15093,-0.34842,-0.068109,0.0065969
186,0.062464,0.013743,-0.13827,-0.15938,-0.39032,-0.089221,-0.016789
187,0.055643,-0.0073698,-0.1191,-0.16718,-0.41695,-0.12625,-0.049595
188,0.045574,-0.037252,-0.10514,-0.17075,-0.42994,-0.16393,-0.084674
189,0.03453,-0.069408,-0.098641,-0.16588,-0.428,-0.19316,-0.11521
190,0.023812,-0.094093,-0.094418,-0.15223,-0.41468,-0.20972,-0.14022
191,0.016016,-0.10611,-0.086623,-0.13827,-0.39616,-0.2107,-0.1597
192,0.008221,-0.10449,-0.073631,-0.1308,-0.37473,-0.19803,-0.17205
193,0.00075039,-0.09117,-0.058689,-0.13177,-0.35264,-0.17302,-0.174
194,-0.0054209,-0.07493,-0.047321,-0.13437,-0.3351,-0.14346,-0.1649
195,-0.0099683,-0.057715,-0.04862,-0.13469,-0.32341,-0.11586,-0.15158
196,-0.011267,-0.039526,-0.06551,-0.12885,-0.31431,-0.10124,-0.14476
197,-0.014516,-0.021337,-0.088247,-0.11683,-0.30197,-0.09929,-0.14801
198,-0.020362,-0.0073698,-0.11196,-0.10221,-0.28768,-0.10384,-0.15321
199,-0.025559,0.0056225,-0.1308,-0.087922,-0.27501,-0.11131,-0.15256
200,-0.027833,0.025111,-0.14379,-0.076879,-0.26657,-0.11813,-0.14444
201,-0.027508,0.056617,-0.14152,-0.072006,-0.25715,-0.12592,-0.13534
202,-0.029132,0.096569,-0.12625,-0.069733,-0.24935,-0.13404,-0.13047
203,-0.035628,0.13425,-0.098965,-0.067459,-0.24318,-0.14152,-0.1282
204,-0.043423,0.15633,-0.070382,-0.061937,-0.23636,-0.14476,-0.12755
205,-0.04992,0.15796,-0.043099,-0.055441,-0.22726,-0.14346,-0.12527
206,-0.050894,0.14107,-0.021012,-0.052843,-0.21882,-0.13762,-0.12203
207,-0.045372,0.10826,-0.0044465,-0.056741,-0.20972,-0.12787,-0.11586
208,-0.036602,0.06961,0.0095202,-0.069083,-0.19738,-0.11586,-0.10449
209,-0.026209,0.033556,0.026085,-0.082076,-0.18666,-0.10384,-0.082725
210,-0.012242,0.0052977,0.047523,-0.089871,-0.18374,-0.097017,-0.05739
211,0.0033489,-0.011917,0.075781,-0.094093,-0.19154,-0.10319,-0.035303
212,0.016666,-0.017439,0.10014,-0.098641,-0.2068,-0.1308,-0.01614
213,0.023812,-0.017439,0.11671,-0.10449,-0.22077,-0.17659,0.0023744
214,0.027385,-0.017439,0.1284,-0.10416,-0.22597,-0.22304,0.01894
215,0.032257,-0.020362,0.13977,-0.09182,-0.21102,-0.25455,0.029333
216,0.03518,-0.026209,0.15341,-0.067784,-0.17237,-0.26657,0.032582
217,0.039727,-0.03303,0.16575,-0.038551,-0.11553,-0.26722,0.030308
218,0.048497,-0.035953,0.17257,-0.01614,-0.052518,-0.26429,0.02706
219,0.061814,-0.031406,0.16608,-0.0089938,0.0033489,-0.25812,0.023812
220,0.079679,-0.026533,0.14659,-0.013866,0.046873,-0.24091,0.023162
221,0.097868,-0.031081,0.11476,-0.021337,0.078055,-0.20518,0.028034
222,0.11443,-0.045372,0.075456,-0.019712,0.10664,-0.14671,0.039078
223,0.1271,-0.059664,0.038753,-0.007045,0.13587,-0.072006,0.055643
224,0.13522,-0.061613,0.009845,0.011794,0.15926,0.0078962,0.071883
225,0.13912,-0.043423,-0.0054209,0.029333,0.16218,0.080653,0.088773
226,0.14269,-0.0060706,-0.0044465,0.039402,0.13814,0.14302,0.11086
227,0.15244,0.042326,0.009845,0.038428,0.091372,0.19986,0.13749
228,0.1638,0.090397,0.030633,0.029009,0.033231,0.25345,0.16315
229,0.16933,0.12872,0.058566,0.018615,-0.024585,0.31029,0.18687
230,0.1625,0.15244,0.087149,0.016991,-0.068109,0.37298,0.2044
231,0.14691,0.16121,0.11086,0.022837,-0.09117,0.44314,0.21415
232,0.131,0.16088,0.1258,0.028359,-0.096692,0.52012,0.21772
233,0.12093,0.15926,0.13717,0.025761,-0.09182,0.59742,0.21902
234,0.11866,0.16413,0.15244,0.011469,-0.075904,0.65816,0.22097
235,0.1245,0.18264,0.17517,-0.0021729,-0.046671,0.68739,0.22487
236,0.13749,0.2122,0.2057,0.0023744,-0.0057458,0.6835,0.23299
237,0.15471,0.24533,0.24078,0.029658,0.035505,0.65978,0.24111
238,0.16738,0.26807,0.27424,0.067986,0.064088,0.62471,0.2489
239,0.1716,0.27164,0.29438,0.096569,0.074482,0.57988,0.25605
240,0.16673,0.25085,0.2921,0.10339,0.06831,0.51752,0.26547
241,0.15406,0.20993,0.26579,0.0852,0.052395,0.43307,0.27424
242,0.13749,0.1638,0.22877,0.048172,0.030633,0.32881,0.26807
243,0.11995,0.12125,0.19304,0.010819,0.00075039,0.2135,0.24436
244,0.10371,0.088773,0.16575,-0.011592,-0.024909,0.099817,0.20928
245,0.085525,0.070259,0.14496,-0.012892,-0.033679,-0.0031473,0.17355
246,0.066362,0.059865,0.1271,0.00042559,-0.022636,-0.090521,0.14302
247,0.045574,0.048822,0.10631,0.015367,0.0026992,-0.16068,0.11638
248,0.025436,0.036154,0.0852,0.029009,0.033231,-0.20875,0.090397
249,0.011794,0.022837,0.066362,0.041351,0.062139,-0.23668,0.06896
250,0.0059473,0.014392,0.05142,0.053369,0.089098,-0.24643,0.058241
251,0.0069217,0.016016,0.037454,0.066037,0.11183,-0.2448,0.059216
252,0.013743,0.025761,0.016016,0.075456,0.1271,-0.23733,0.064737
253,0.026735,0.033881,-0.013541,0.075456,0.13132,-0.22921,0.067661
254,0.040052,0.032906,-0.046996,0.065387,0.12158,-0.22402,0.061165
255,0.049472,0.01764,-0.079152,0.049147,0.10014,-0.22272,0.046223
256,0.053694,-0.0037969,-0.10514,0.029983,0.075456,-0.22337,0.029333
257,0.049796,-0.019388,-0.12203,0.0072465,0.057267,-0.22597,0.016666
258,0.038753,-0.018738,-0.13015,-0.016464,0.049472,-0.22921,0.008221
259,0.023487,0.003024,-0.13145,-0.034004,0.041351,-0.23084,0.0020496
260,0.01017,0.040377,-0.13242,-0.039526,0.021213,-0.22986,-0.0041217
261,0.0072465,0.080328,-0.1334,-0.027833,-0.007045,-0.22239,-0.0093186
262,0.01764,0.11248,-0.1321,0.0059473,-0.028157,-0.20453,-0.011917
263,0.03583,0.12645,-0.12885,0.058891,-0.014516,-0.17465,-0.054142
264,0.051745,0.11638,-0.13697,0.11833,0.056292,-0.14119,-0.21037
265,0.061489,0.089423,-0.15158,0.16868,0.17387,-0.10774,-0.43059
266,0.061489,0.057917,-0.15061,0.20408,0.2934,-0.076879,-0.55435
267,0.051745,0.033556,-0.12073,0.22227,0.37785,-0.050569,-0.49815
268,0.032582,0.015692,-0.075579,0.22097,0.41618,-0.036278,-0.31236
269,0.0069217,-0.0015233,-0.040175,0.20018,0.41358,-0.037252,-0.10286
270,-0.020037,-0.020687,-0.029132,0.16413,0.38142,-0.050894,0.048822
271,-0.041475,-0.038876,-0.037252,0.12548,0.32848,-0.071682,0.11476
272,-0.054467,-0.052518,-0.051219,0.10242,0.26839,-0.092145,0.10826
273,-0.061937,-0.061937,-0.059339,0.10469,0.21382,-0.10449,0.071234
274,-0.064211,-0.06616,-0.05804,0.12678,0.1742,-0.10644,0.039727
275,-0.063561,-0.064861,-0.053492,0.15049,0.15731,-0.095393,0.031932
276,-0.062912,-0.056741,-0.050569,0.15406,0.16608,-0.067784,0.045574
277,-0.062587,-0.042774,-0.050894,0.12678,0.18979,-0.026209,0.069934
278,-0.060638,-0.029457,-0.051544,0.076755,0.21155,0.021863,0.092021
279,-0.055441,-0.023935,-0.050569,0.028684,0.22162,0.067336,0.10599
280,-0.046996,-0.027833,-0.045697,0.0014,0.21902,0.098193,0.11021
281,-0.037902,-0.036278,-0.043423,-0.007045,0.20863,0.10826,0.090397
282,-0.033679,-0.046671,-0.060638,-0.011267,0.2148,0.10177,-0.024585
283,-0.034004,-0.056741,-0.10806,-0.021012,0.2515,0.084226,-0.24773
284,-0.034654,-0.061937,-0.161,-0.026209,0.29957,0.061814,-0.44326
285,-0.026858,-0.057715,-0.18601,-0.011592,0.32556,0.040052,-0.46405
286,-0.013541,-0.044723,-0.1753,0.019264,0.31354,0.020564,-0.30652
287,-0.0021729,-0.028807,-0.14184,0.051096,0.25962,0.003024,-0.071032
288,0.00042559,-0.012567,-0.10644,0.072208,0.17939,-0.012242,0.1323
289,-0.0037969,0.0020496,-0.084024,0.074157,0.09397,-0.024909,0.24825
290,-0.011592,0.012119,-0.076229,0.061489,0.021213,-0.034654,0.28008
291,-0.017114,0.01764,-0.073306,0.045249,-0.026533,-0.041475,0.26287
292,-0.01484,0.021863,-0.062912,0.033231,-0.044073,-0.044723,0.23526
293,-0.0076946,0.022837,-0.036927,0.025761,-0.042774,-0.041799,0.2187
294,-0.0011985,0.025111,-0.0011985,0.023162,-0.042124,-0.029782,0.22162
295,0.0033489,0.02641,0.033881,0.025111,-0.050569,-0.012892,0.23754
296,0.008221,0.028684,0.062464,0.024461,-0.060313,0.0026992,0.2554
297,0.011144,0.034206,0.0852,0.01829,-0.054792,0.009845,0.26937
298,0.0088706,0.037454,0.10371,0.010819,-0.027833,0.0056225,0.28073
299,0.003024,0.041351,0.11801,0.012119,0.01017,-0.010618,0.28723
300,-0.00022403,0.047847,0.1206,0.01894,0.048172,-0.032055,0.2476
301,0.0046481,0.053044,0.10079,0.014392,0.0852,-0.050244,0.095919
302,0.015042,0.05272,0.069285,-0.00022403,0.11118,-0.059664,-0.11813
303,0.027709,0.050121,0.056617,-0.0024977,0.10306,-0.056091,-0.2461
304,0.040052,0.047523,0.080978,0.014068,0.056292,-0.042124,-0.22044
305,0.048497,0.042975,0.13165,0.042651,-0.0060706,-0.025884,-0.084674
306,0.050446,0.037454,0.18719,0.076106,-0.060313,-0.012242,0.078055
307,0.047198,0.030957,0.22617,0.10859,-0.096692,-0.0060706,0.20051
308,0.0433,0.025761,0.24273,0.13912,-0.12235,-0.0063954,0.25832
309,0.042001,0.018615,0.23786,0.15828,-0.14866,-0.013541,0.26482
310,0.04395,0.012119,0.21837,0.16023,-0.17594,-0.024909,0.24663
311,0.045899,0.0091954,0.19563,0.14334,-0.19316,-0.038551,0.22194
312,0.044924,0.0091954,0.17517,0.11346,-0.18601,-0.053168,0.20051
313,0.037454,0.009845,0.15926,0.081627,-0.15223,-0.070058,0.19141
314,0.026085,0.009845,0.14789,0.065387,-0.094743,-0.082076,0.19336
315,0.015042,0.008221,0.14172,0.06961,-0.021337,-0.080451,0.20181
316,0.0062721,0.0014,0.13749,0.081303,0.055968,-0.064861,0.21577
317,0.003024,-0.011267,0.1336,0.088773,0.13587,-0.038227,0.23299
318,0.0026992,-0.025559,0.1219,0.083251,0.22389,-0.0041217,0.22682
319,0.0062721,-0.039201,0.08585,0.057267,0.34017,0.028359,0.11768
320,0.011144,-0.052518,0.024461,0.015367,0.48179,0.048822,-0.10579
321,0.015692,-0.05804,-0.030756,-0.019712,0.60847,0.060515,-0.30067
322,0.01829,-0.051544,-0.045047,-0.027508,0.67862,0.070909,-0.33088
323,0.015692,-0.034978,-0.012242,-0.0096434,0.67505,0.083251,-0.19738
324,0.0059473,-0.019063,0.046223,0.016991,0.61334,0.096244,0.0085458
325,-0.0076946,-0.016464,0.099817,0.039727,0.52531,0.10112,0.18849
326,-0.021661,-0.034654,0.12807,0.053694,0.43859,0.087149,0.29048
327,-0.030431,-0.071682,0.12515,0.057267,0.35414,0.055318,0.30997
328,-0.034004,-0.11715,0.09397,0.047198,0.26482,0.015692,0.27554
329,-0.033354,-0.15581,0.04395,0.026085,0.16056,-0.021661,0.21837
330,-0.034004,-0.17562,-0.012892,0.0056225,0.045899,-0.050894,0.1677
331,-0.036602,-0.1753,-0.065186,-0.0073698,-0.06551,-0.072656,0.13977
332,-0.039851,-0.16198,-0.10254,-0.013866,-0.15483,-0.085324,0.13587
333,-0.041799,-0.14736,-0.11943,-0.017114,-0.20843,-0.084999,0.14691
334,-0.041799,-0.13307,-0.1204,-0.020687,-0.23441,-0.073955,0.16445
335,-0.039526,-0.11618,-0.11326,-0.023285,-0.2526,-0.054467,0.18167
336,-0.036927,-0.090196,-0.10481,-0.026533,-0.27469,-0.032055,0.19791
337,-0.035628,-0.053817,-0.095068,-0.030431,-0.30847,-0.012567,0.21382
338,-0.033679,-0.008669,-0.083375,-0.034654,-0.35426,0.00010078,0.22779
339,-0.030756,0.041027,-0.072331,-0.03303,-0.40461,0.0069217,0.23786
340,-0.025884,0.095919,-0.059989,-0.021337,-0.44846,0.014717,0.24793
341,-0.017764,0.15796,-0.038227,-0.00054884,-0.46567,0.022188,0.25832
342,-0.0028225,0.22259,0.0056225,0.02641,-0.45073,0.028684,0.2619
343,0.015692,0.28301,0.073182,0.050121,-0.41176,0.036154,0.25507
344,0.032257,0.32069,0.15666,0.069285,-0.35361,0.040377,0.23851
345,0.037778,0.32361,0.23689,0.08585,-0.28605,0.034855,0.22
346,0.031932,0.28983,0.29665,0.10112,-0.21914,0.024461,0.2044
347,0.014392,0.22974,0.32653,0.11248,-0.16523,0.016016,0.19336
348,-0.0080194,0.15893,0.32361,0.11606,-0.12463,0.014717,0.18167
349,-0.03173,0.090722,0.29048,0.10534,-0.090196,0.020888,0.16673
350,-0.048945,0.039727,0.23071,0.072858,-0.051219,0.036154,0.14984
351,-0.054142,0.012443,0.15471,0.023162,-0.0034721,0.056942,0.13457
352,-0.045697,0.0078962,0.079029,-0.030106,0.04395,0.081303,0.1206
353,-0.029132,0.01764,0.015042,-0.075904,0.074806,0.11118,0.10696
354,-0.011917,0.031607,-0.026858,-0.10384,0.077405,0.13847,0.094945
355,0.0020496,0.045899,-0.045372,-0.11715,0.057267,0.14984,0.080328
356,0.008221,0.055318,-0.047321,-0.12203,0.029983,0.14334,0.063763
357,0.0039985,0.053694,-0.045372,-0.123,0.012768,0.12775,0.047198
358,-0.007045,0.044275,-0.053168,-0.12203,0.021213,0.11573,0.032257
359,-0.014516,0.031607,-0.073306,-0.11813,0.06084,0.11443,0.021538
360,-0.014191,0.020564,-0.10124,-0.11845,0.11995,0.11963,0.014392
361,-0.011267,0.014068,-0.12398,-0.13047,0.17647,0.11995,0.0056225
362,-0.0093186,0.015692,-0.1321,-0.14801,0.21252,0.11313,-0.012567
363,-0.010618,0.021538,-0.12592,-0.15743,0.21675,0.097218,-0.038551
364,-0.011917,0.029333,-0.11358,-0.15158,0.18881,0.079679,-0.063886
365,-0.01549,0.03583,-0.10059,-0.13827,0.13717,0.065062,-0.08305
366,-0.019388,0.039078,-0.090521,-0.12463,0.075131,0.057592,-0.092145
367,-0.024585,0.042001,-0.084999,-0.11228,0.0059473,0.05207,-0.093769
368,-0.029457,0.046548,-0.080451,-0.10644,-0.069733,0.041027,-0.093769
369,-0.030106,0.051096,-0.072006,-0.10903,-0.14379,0.021863,-0.09929
370,-0.02361,0.05207,-0.056741,-0.11651,-0.20128,-0.0028225,-0.11293
371,-0.013541,0.047847,-0.030431,-0.12073,-0.23441,-0.027183,-0.12495
372,-0.0011985,0.039402,0.0072465,-0.11098,-0.24188,-0.041799,-0.12755
373,0.012768,0.032906,0.051096,-0.085648,-0.23344,-0.038876,-0.1178
374,0.028359,0.030633,0.094295,-0.047646,-0.22272,-0.017439,-0.10319
375,0.044924,0.031282,0.12807,-0.0028225,-0.21979,0.014392,-0.090521
376,0.057267,0.032257,0.14302,0.034855,-0.22694,0.048172,-0.08305
377,0.066362,0.031282,0.1336,0.056617,-0.23863,0.075131,-0.083375
378,0.071883,0.029983,0.10371,0.062789,-0.24903,0.088773,-0.092145
379,0.075456,0.029658,0.062464,0.061165,-0.2513,0.090722,-0.10741
380,0.07773,0.03518,0.016666,0.058241,-0.24448,0.086824,-0.11845
381,0.074806,0.048822,-0.025559,0.058566,-0.22564,0.083251,-0.12268
382,0.065387,0.065387,-0.053168,0.065387,-0.20031,0.080653,-0.12235
383,0.054019,0.07708,-0.063561,0.087474,-0.17659,0.070259,-0.123
384,0.044275,0.078379,-0.058689,0.12905,-0.16945,0.040702,-0.13145
385,0.036804,0.065712,-0.047646,0.18069,-0.18536,-0.0057458,-0.14834
386,0.026085,0.042326,-0.0405,0.22194,-0.2159,-0.059989,-0.17172
387,0.012443,0.012443,-0.043099,0.23851,-0.23961,-0.11001,-0.19413
388,-0.0024977,-0.016789,-0.055116,0.23234,-0.23993,-0.14184,-0.2081
389,-0.017439,-0.038876,-0.069733,0.22162,-0.21427,-0.15093,-0.21102
390,-0.032055,-0.051544,-0.079477,0.2148,-0.16588,-0.14184,-0.20745
391,-0.042124,-0.05804,-0.081101,0.2057,-0.10644,-0.12105,-0.20355
392,-0.046996,-0.064211,-0.076879,0.18524,-0.04862,-0.096367,-0.2042
393,-0.043099,-0.071357,-0.069408,0.15114,0.0020496,-0.075904,-0.20453
394,-0.026209,-0.075255,-0.063237,0.10956,0.054668,-0.064211,-0.2016
395,0.0020496,-0.073631,-0.059339,0.071234,0.11216,-0.067459,-0.18926
396,0.031282,-0.067784,-0.056416,0.0433,0.16056,-0.084999,-0.16782
397,0.050121,-0.061288,-0.048945,0.02641,0.18492,-0.10903,-0.14411
398,0.053044,-0.052193,-0.039526,0.016991,0.1755,-0.12755,-0.12527
399,0.042975,-0.0405,-0.034654,0.012119,0.1219,-0.1334,-0.11358
400,0.026735,-0.027183,-0.035303,0.011144,0.029009,-0.12235,-0.10871
401,0.010819,-0.015815,-0.036927,0.016016,-0.0837,-0.089221,-0.10903
402,0.0036737,-0.0083442,-0.037252,0.015042,-0.18829,-0.030431,-0.10644
403,0.0056225,-0.0047713,-0.034004,0.0026992,-0.26234,0.047198,-0.097991
404,0.016666,-0.0024977,-0.028157,-0.01484,-0.2971,0.13392,-0.089871
405,0.032582,-0.00022403,-0.020362,-0.021986,-0.2958,0.21382,-0.083375
406,0.05142,0.0014,-0.013216,-0.0093186,-0.26657,0.27781,-0.078178
407,0.06961,0.0020496,-0.0076946,0.023487,-0.21752,0.32621,-0.069083
408,0.083251,-0.00022403,-0.0018481,0.066362,-0.16003,0.35934,-0.055116
409,0.088124,-0.0041217,0.00042559,0.10371,-0.10059,0.37655,-0.039526
410,0.083576,-0.0080194,0.003024,0.12223,-0.046996,0.37915,-0.029782
411,0.073507,-0.0083442,0.0072465,0.11151,-0.012892,0.36908,-0.029132
412,0.063113,-0.007045,0.013418,0.067661,-0.010293,0.34732,-0.035628
413,0.055318,-0.0050961,0.018615,0.00042559,-0.039851,0.32361,-0.043099
414,0.05142,-0.0015233,0.014717,-0.070382,-0.09182,0.30607,-0.047646
415,0.05142,0.0062721,0.00042559,-0.12203,-0.14736,0.30087,-0.047646
416,0.053369,0.016666,-0.021337,-0.13697,-0.18601,0.30217,-0.045697
417,0.054019,0.025436,-0.045047,-0.11066,-0.19381,0.29373,-0.041475
418,0.050771,0.026085,-0.067784,-0.050894,-0.16068,0.26742,-0.037252
419,0.047523,0.019264,-0.083375,0.020564,-0.086298,0.22065,-0.03303
420,0.047198,0.01017,-0.085324,0.086824,0.015692,0.15926,-0.033679
421,0.048172,0.0075714,-0.068758,0.13684,0.12678,0.096244,-0.043423
422,0.048822,0.018615,-0.036602,0.16608,0.22779,0.040052,-0.063237
423,0.051745,0.042001,0.0046481,0.17127,0.30412,-0.0047713,-0.086298
424,0.058891,0.069285,0.048497,0.15503,0.35382,-0.040175,-0.10351
425,0.070259,0.095594,0.084551,0.1323,0.37785,-0.075255,-0.11098
426,0.083251,0.11638,0.10436,0.11378,0.3772,-0.11456,-0.11521
427,0.09397,0.12937,0.10826,0.10501,0.35187,-0.15678,-0.12235
428,0.10339,0.13555,0.10566,0.10534,0.30574,-0.19738,-0.13664
429,0.10859,0.13912,0.11541,0.11183,0.24436,-0.23181,-0.14801
430,0.10859,0.14302,0.15114,0.11866,0.17322,-0.25292,-0.14704
431,0.10274,0.14334,0.207,0.11541,0.10047,-0.2578,-0.13502
432,0.093321,0.13944,0.27164,0.10112,0.039078,-0.25098,-0.12138
433,0.082277,0.12937,0.32881,0.080328,-0.0024977,-0.24123,-0.11293
434,0.074806,0.11086,0.36778,0.057592,-0.020037,-0.23409,-0.11813
435,0.067661,0.082927,0.37753,0.034206,-0.021986,-0.23116,-0.13307
436,0.061814,0.048172,0.35122,0.01894,-0.021337,-0.22791,-0.14541
437,0.058566,0.0075714,0.29275,0.027385,-0.033679,-0.22142,-0.14476
438,0.056942,-0.034978,0.21058,0.060515,-0.062587,-0.20518,-0.12722
439,0.055643,-0.07493,0.1206,0.099492,-0.10416,-0.18082,-0.10026
440,0.047847,-0.11098,0.034206,0.12613,-0.14996,-0.15613,-0.076554
441,0.030633,-0.13502,-0.041799,0.12807,-0.18829,-0.13534,-0.061613
442,0.009845,-0.13924,-0.098965,0.10826,-0.20972,-0.11715,-0.050569
443,-0.0041217,-0.12787,-0.13502,0.072533,-0.20453,-0.097991,-0.041799
444,-0.0044465,-0.10449,-0.15256,0.032257,-0.1688,-0.076879,-0.030756
445,0.0052977,-0.074605,-0.15581,-0.0057458,-0.093769,-0.057065,-0.019063
446,0.01829,-0.047971,-0.14964,-0.045372,0.018615,-0.041475,-0.0050961
447,0.032257,-0.038876,-0.14281,-0.090196,0.14756,-0.035628,0.008221
448,0.042651,-0.048296,-0.13859,-0.14054,0.26157,-0.035953,0.015692
449,0.045249,-0.060638,-0.13697,-0.19543,0.34082,-0.038551,0.020564
450,0.038753,-0.057715,-0.13599,-0.2539,0.37363,-0.034978,0.02706
451,0.024786,-0.026209,-0.1308,-0.30749,0.36161,-0.02426,0.034206
452,0.015042,0.029658,-0.11943,-0.3442,0.31614,-0.0073698,0.039727
453,0.016016,0.096244,-0.10221,-0.35784,0.25637,0.0091954,0.043625
454,0.024137,0.16023,-0.0824,-0.35004,0.20116,0.019914,0.04395
455,0.033881,0.21415,-0.061288,-0.32146,0.15633,0.023487,0.047198
456,0.041027,0.2567,-0.034329,-0.27209,0.11736,0.021538,0.055643
457,0.040702,0.28398,-0.0063954,-0.20096,0.08585,0.015367,0.067011
458,0.034206,0.2895,0.019589,-0.11293,0.059865,0.003024,0.074482
459,0.024137,0.27002,0.041351,-0.015165,0.037454,-0.012567,0.076106
460,0.013093,0.23104,0.054993,0.076431,0.012768,-0.029457,0.073507
461,0.0036737,0.18134,0.063113,0.14529,-0.017114,-0.04927,0.067011
462,-0.0041217,0.13132,0.064737,0.18069,-0.0405,-0.070382,0.054019
463,-0.011917,0.087799,0.059541,0.18524,-0.039201,-0.089871,0.036479
464,-0.019063,0.054344,0.049796,0.16998,0.0043233,-0.10091,0.017965
465,-0.02426,0.031282,0.03583,0.14691,0.080978,-0.10189,0.0010752
466,-0.028482,0.013093,0.01829,0.11833,0.16218,-0.094418,-0.011592
467,-0.026533,-0.008669,0.0023744,0.083901,0.21545,-0.087272,-0.02426
468,-0.018088,-0.035628,-0.0093186,0.046223,0.22389,-0.079477,-0.034978
469,-0.0041217,-0.063561,-0.012892,0.0091954,0.19271,-0.070382,-0.038876
470,0.013093,-0.081751,-0.0044465,-0.017114,0.14107,-0.059989,-0.034654
471,0.03583,-0.081426,0.014068,-0.021337,0.092346,-0.052193,-0.022311
472,0.059865,-0.065186,0.042651,-0.0037969,0.061489,-0.049595,-0.0011985
473,0.081952,-0.039851,0.076106,0.023162,0.045899,-0.05739,0.029009
474,0.092346,-0.014516,0.10924,0.04395,0.026085,-0.073955,0.059216
475,0.086175,0.0043233,0.13425,0.053694,-0.013866,-0.092469,0.081627
476,0.065062,0.012768,0.14139,0.053044,-0.072981,-0.10741,0.090072
477,0.036154,0.012443,0.12613,0.050771,-0.14087,-0.11553,0.090722
478,0.0088706,0.0091954,0.090072,0.054344,-0.19998,-0.11683,0.086824
479,-0.0073698,0.0085458,0.046223,0.062139,-0.23798,-0.11618,0.080978
480,-0.011592,0.0091954,0.014068,0.067336,-0.25,-0.11326,0.074806
481,-0.010618,0.0072465,-0.0011985,0.065712,-0.24221,-0.10936,0.063763
482,-0.013541,0.0033489,-0.0024977,0.05207,-0.22337,-0.10709,0.046223
483,-0.022636,0.0023744,0.0033489,0.031607,-0.20225,-0.10286,0.026735
484,-0.035953,0.0046481,0.0095202,0.014068,-0.18407,-0.097341,0.0065969
485,-0.050894,0.0078962,0.012119,0.0026992,-0.1636,-0.09929,-0.013541
486,-0.066485,0.01017,0.013418,-0.0067202,-0.14216,-0.11618,-0.035303
487,-0.079802,0.010819,0.015367,-0.018088,-0.11553,-0.14379,-0.05804
488,-0.091495,0.015692,0.01894,-0.028157,-0.085324,-0.16718,-0.073955
489,-0.10091,0.025436,0.026085,-0.035628,-0.055116,-0.16847,-0.081101
490,-0.10644,0.038428,0.03583,-0.033354,-0.029782,-0.14509,-0.077528
491,-0.11163,0.046873,0.04395,-0.014516,-0.0099683,-0.10254,-0.068109
492,-0.11618,0.043625,0.04395,0.020239,0.0062721,-0.051219,-0.062912
493,-0.12008,0.029983,0.033881,0.059865,0.021863,-0.0083442,-0.065835
494,-0.1243,0.012768,0.015692,0.087799,0.031607,0.011469,-0.073306
495,-0.13145,0.00010078,-0.0044465,0.093321,0.025436,0.0017248,-0.079152
496,-0.14087,-0.0044465,-0.02361,0.079029,0.00075039,-0.029132,-0.081751
497,-0.14899,-0.0015233,-0.037577,0.054668,-0.036602,-0.061288,-0.076879
498,-0.15126,0.0056225,-0.046022,0.030957,-0.076554,-0.077853,-0.060313
499,-0.14574,0.014717,-0.050244,0.014717,-0.11033,-0.067784,-0.033354
500,-0.13047,0.023487,-0.051868,0.010495,-0.13437,-0.034329,-0.0011985
501,-0.10514,0.032257,-0.053492,0.011794,-0.15483,0.009845,0.028359
502,-0.07493,0.040702,-0.058365,0.015042,-0.17692,0.058241,0.050446
503,-0.044398,0.049796,-0.064211,0.023162,-0.20063,0.11151,0.063113
504,-0.015815,0.047847,-0.073306,0.038428,-0.21817,0.1742,0.070259
505,0.0065969,0.02641,-0.0837,0.054019,-0.22207,0.2502,0.072533
506,0.021213,-0.011592,-0.089221,0.064413,-0.21362,0.33368,0.075781
507,0.028034,-0.052193,-0.088572,0.069934,-0.19348,0.41196,0.081952
508,0.030633,-0.081426,-0.082076,0.071883,-0.16328,0.47075,0.09462
509,0.030957,-0.089221,-0.073306,0.063113,-0.12625,0.50388,0.10794
510,0.035505,-0.073955,-0.065186,0.039727,-0.086948,0.51037,0.11995
511,0.044599,-0.042774,-0.059014,0.012768,-0.046671,0.49738,0.131
512,0.05142,-0.0044465,-0.054142,-0.007045,-0.0096434,0.48049,0.14399
513,0.052395,0.033556,-0.047646,-0.01484,0.020564,0.47302,0.15471
514,0.049796,0.067661,-0.039201,-0.008669,0.039727,0.47887,0.16315
515,0.045574,0.092996,-0.031406,0.013093,0.052395,0.50063,0.1703
516,0.042651,0.10859,-0.025234,0.040052,0.069285,0.53084,0.1755
517,0.041676,0.11541,-0.016789,0.063113,0.087474,0.55162,0.17907
518,0.045574,0.1245,-0.0018481,0.081303,0.097868,0.53831,0.17874
519,0.054668,0.13977,0.020888,0.090072,0.10566,0.47822,0.1729
520,0.063113,0.16348,0.052395,0.090722,0.12255,0.37753,0.1651
521,0.069285,0.18751,0.084226,0.086175,0.16608,0.26352,0.15471
522,0.075131,0.20863,0.10794,0.082602,0.23851,0.16413,0.14204
523,0.081303,0.21577,0.11931,0.081303,0.32296,0.095919,0.13132
524,0.086824,0.20278,0.11346,0.086175,0.38467,0.06019,0.1271
525,0.090722,0.17095,0.091372,0.094945,0.39182,0.049796,0.131
526,0.091696,0.13295,0.062789,0.099817,0.3314,0.055318,0.13782
527,0.089098,0.10306,0.033231,0.096244,0.2161,0.061489,0.14074
528,0.083901,0.086175,0.0075714,0.081952,0.07773,0.057917,0.13879
529,0.076755,0.080978,-0.010293,0.063113,-0.047971,0.040377,0.13555
530,0.067986,0.081952,-0.016464,0.053369,-0.1308,0.011469,0.13002
531,0.06084,0.084876,-0.0093186,0.055968,-0.15873,-0.021337,0.1232
532,0.058241,0.087149,0.013418,0.064413,-0.13632,-0.051219,0.11606
533,0.061489,0.086175,0.040377,0.069285,-0.080127,-0.070058,0.11313
534,0.066686,0.079679,0.061814,0.069285,-0.013866,-0.081426,0.11638
535,0.06961,0.06831,0.070584,0.065062,0.039078,-0.087922,0.12158
536,0.06831,0.049796,0.067336,0.054344,0.065387,-0.094743,0.12255
537,0.063438,0.024461,0.054344,0.038428,0.060515,-0.10871,0.11248
538,0.057267,-0.0060706,0.039402,0.023487,0.02706,-0.13112,0.093645
539,0.05207,-0.037577,0.027709,0.0065969,-0.026533,-0.15743,0.072858
540,0.047847,-0.064861,0.022188,-0.0093186,-0.087597,-0.17627,0.062464
541,0.046548,-0.084674,0.023487,-0.029132,-0.14476,-0.17854,0.065712
542,0.047198,-0.097341,0.02706,-0.05804,-0.18569,-0.16847,0.078379
543,0.046873,-0.10709,0.028359,-0.085324,-0.20193,-0.15451,0.092996
544,0.044599,-0.11553,0.027709,-0.10189,-0.18309,-0.14346,0.10339
545,0.043625,-0.1191,0.023487,-0.10221,-0.12885,-0.14281,0.10696
546,0.040702,-0.11326,0.019914,-0.09182,-0.042449,-0.15158,0.10696
547,0.037454,-0.098316,0.019589,-0.077853,0.065062,-0.1623,0.10306
548,0.035505,-0.08305,0.019264,-0.063886,0.1742,-0.16685,0.092996
549,0.033556,-0.073631,0.019589,-0.04992,0.26904,-0.16523,0.078379
550,0.029983,-0.072981,0.025111,-0.037577,0.33758,-0.1636,0.061814
551,0.030308,-0.079152,0.03518,-0.022311,0.3772,-0.16393,0.045574
552,0.039727,-0.087597,0.044275,-0.0041217,0.39734,-0.16165,0.032582
553,0.059216,-0.09117,0.053369,0.019264,0.40189,-0.15223,0.022188
554,0.080653,-0.087272,0.060515,0.046548,0.39214,-0.13469,0.010819
555,0.099492,-0.079477,0.06896,0.081952,0.36778,-0.11488,-0.0018481
556,0.11118,-0.070382,0.082277,0.13262,0.32946,-0.10481,-0.010293
557,0.11443,-0.060313,0.10501,0.20473,0.28593,-0.11521,-0.01484
558,0.11118,-0.046347,0.13522,0.28853,0.24273,-0.15256,-0.021986
559,0.10599,-0.026533,0.16738,0.36551,0.20213,-0.21362,-0.035303
560,0.10112,0.0020496,0.19271,0.41293,0.16348,-0.28313,-0.050894
561,0.094295,0.036154,0.20798,0.41228,0.12807,-0.33932,-0.063886
562,0.088773,0.070259,0.2135,0.35999,0.092671,-0.37018,-0.069733
563,0.090072,0.095919,0.2109,0.26839,0.057267,-0.37375,-0.072006
564,0.097868,0.10826,0.20408,0.1638,0.021538,-0.35589,-0.07493
565,0.10566,0.10729,0.19661,0.070259,-0.010618,-0.32341,-0.082725
566,0.10794,0.096569,0.18881,0.0043233,-0.035628,-0.27956,-0.093119
567,0.10566,0.084551,0.17874,-0.024909,-0.052193,-0.22759,-0.095393
568,0.10371,0.07773,0.16315,-0.021337,-0.062262,-0.16977,-0.085973
569,0.10404,0.078704,0.14107,0.0010752,-0.070707,-0.11033,-0.071032
570,0.099817,0.0865,0.11443,0.026085,-0.089221,-0.061288,-0.057715
571,0.090722,0.10112,0.087799,0.037454,-0.13015,-0.030756,-0.04115
572,0.075456,0.12093,0.06961,0.032257,-0.20355,-0.022311,-0.015165
573,0.063438,0.14009,0.061165,0.019589,-0.31334,-0.027508,0.016016
574,0.05207,0.15471,0.06084,0.0085458,-0.44521,-0.03173,0.042975
575,0.040052,0.15731,0.064737,0.0026992,-0.57156,-0.016789,0.056617
576,0.029658,0.14659,0.067011,0.0023744,-0.65374,0.021538,0.057267
577,0.022512,0.1206,0.057592,0.0056225,-0.66153,0.078055,0.050771
578,0.019914,0.078379,0.037129,0.011144,-0.58845,0.14302,0.039078
579,0.01894,0.028684,0.013093,0.020239,-0.46405,0.20473,0.022188
580,0.014392,-0.021012,-0.012892,0.028034,-0.32503,0.2489,0.0023744
581,0.0085458,-0.062587,-0.039526,0.030957,-0.20713,0.26807,-0.019063
582,0.0014,-0.094743,-0.067784,0.024137,-0.1243,0.2619,-0.042449
583,-0.0073698,-0.11683,-0.094418,0.0091954,-0.067459,0.23883,-0.066485
584,-0.012567,-0.12885,-0.11521,-0.011917,-0.0067202,0.20993,-0.084999
585,-0.013541,-0.13275,-0.12755,-0.030106,0.092671,0.17874,-0.095068
586,-0.011592,-0.13307,-0.1321,-0.039526,0.24273,0.14756,-0.098641
587,-0.0083442,-0.13469,-0.13047,-0.038551,0.41618,0.12223,-0.10221
588,-0.0083442,-0.14216,-0.12787,-0.031081,0.55974,0.10956,-0.10676
589,-0.017114,-0.14704,-0.12787,-0.026533,0.63802,0.11183,-0.11131
590,-0.035628,-0.14606,-0.13697,-0.030431,0.65784,0.1297,-0.10871
591,-0.059014,-0.13924,-0.15581,-0.037902,0.65686,0.16283,-0.095717
592,-0.080776,-0.13242,-0.17594,-0.036602,0.66401,0.20246,-0.07428
593,-0.096692,-0.12495,-0.19024,-0.022311,0.67862,0.24371,-0.052193
594,-0.10806,-0.11423,-0.19024,0.0010752,0.67732,0.27781,-0.036278
595,-0.11715,-0.098641,-0.17075,0.018615,0.63835,0.30022,-0.02426
596,-0.1269,-0.077528,-0.12722,0.025761,0.55162,0.30445,-0.012242
597,-0.14119,-0.050569,-0.063886,0.024137,0.42332,0.28626,0.0049729
598,-0.15581,-0.020362,0.0062721,0.017316,0.27586,0.25313,0.024461
599,-0.1675,0.013418,0.073182,0.0088706,0.14691,0.2174,0.036479
600,-0.1727,0.049147,0.12937,-0.0034721,0.066037,0.19044,0.037454
601,-0.1714,0.088124,0.1716,-0.020362,0.042651,0.17517,0.031932
602,-0.16555,0.1258,0.19791,-0.041799,0.065712,0.16738,0.029009
603,-0.15613,0.15406,0.20116,-0.06616,0.11281,0.15763,0.030633
604,-0.14639,0.16023,0.17452,-0.092469,0.16023,0.13912,0.02706
605,-0.13534,0.14399,0.12353,-0.12008,0.18816,0.10989,0.009845
606,-0.12787,0.11736,0.064088,-0.14606,0.18622,0.069285,-0.018738
607,-0.12527,0.093321,0.010819,-0.16555,0.15244,0.016341,-0.04992
608,-0.12592,0.078379,-0.030431,-0.17497,0.083251,-0.047321,-0.076554
609,-0.12852,0.073832,-0.060313,-0.1727,-0.017114,-0.12138,-0.093444
610,-0.1295,0.075781,-0.072331,-0.15776,-0.13047,-0.19576,-0.099615
611,-0.12755,0.082277,-0.067459,-0.13437,-0.23798,-0.2578,-0.095068
612,-0.12235,0.094945,-0.051868,-0.10546,-0.31886,-0.29223,-0.085648
613,-0.11196,0.11183,-0.034654,-0.077853,-0.35979,-0.28898,-0.072656
614,-0.097991,0.12613,-0.027508,-0.055766,-0.35524,-0.2539,-0.056741
615,-0.08305,0.13522,-0.035628,-0.042124,-0.30814,-0.19836,-0.041475
616,-0.067784,0.1323,-0.052193,-0.037902,-0.24091,-0.14087,-0.034004
617,-0.049595,0.11541,-0.06681,-0.040825,-0.17822,-0.094743,-0.033679
618,-0.029457,0.091047,-0.071032,-0.045047,-0.13502,-0.065835,-0.034329
619,-0.013541,0.061489,-0.069733,-0.046022,-0.12268,-0.052843,-0.032705
620,-0.0037969,0.031607,-0.070058,-0.042124,-0.14736,-0.055766,-0.030106
621,0.0033489,0.0075714,-0.075904,-0.036602,-0.20388,-0.071682,-0.034978
622,0.0091954,-0.0080194,-0.086298,-0.030106,-0.27858,-0.096367,-0.046347
623,0.020239,-0.016464,-0.097341,-0.022636,-0.35556,-0.1256,-0.058365
624,0.033881,-0.022311,-0.10546,-0.011267,-0.42182,-0.15613,-0.061937
625,0.048172,-0.025559,-0.10676,0.0043233,-0.46762,-0.17952,-0.056091
626,0.058241,-0.028157,-0.10319,0.01764,-0.48549,-0.18666,-0.042449
627,0.062139,-0.026209,-0.09929,0.026735,-0.46957,-0.17367,-0.025234
628,0.062464,-0.019063,-0.098316,0.032582,-0.41435,-0.14346,-0.0034721
629,0.063763,-0.011917,-0.098316,0.029983,-0.31301,-0.10384,0.023812
630,0.065062,-0.0054209,-0.097666,0.01764,-0.17692,-0.060638,0.054019
631,0.068635,-0.00054884,-0.096367,0.0017248,-0.030756,-0.021986,0.078379
632,0.073832,0.0039985,-0.096367,-0.0067202,0.091047,0.01017,0.090072
633,0.081627,0.0085458,-0.09929,-0.0093186,0.15893,0.037454,0.093321
634,0.091372,0.012119,-0.097991,-0.0063954,0.16283,0.063438,0.09462
635,0.10177,0.013743,-0.084349,0.0020496,0.11931,0.092671,0.09397
636,0.11638,0.016341,-0.04992,0.023162,0.057592,0.11866,0.092346
637,0.13035,0.019264,0.0026992,0.05142,0.0043233,0.1349,0.090722
638,0.13652,0.022837,0.064737,0.081952,-0.040175,0.13522,0.090397
639,0.13555,0.029009,0.12223,0.10924,-0.088247,0.11768,0.0865
640,0.131,0.036804,0.16868,0.1297,-0.14249,0.081303,0.079029
641,0.1258,0.045899,0.20051,0.14172,-0.19186,0.03453,0.062139
642,0.12028,0.05207,0.21642,0.14626,-0.22337,-0.011917,0.038103
643,0.11183,0.052395,0.22357,0.14626,-0.23051,-0.043423,0.016666
644,0.097218,0.047847,0.22422,0.13944,-0.21947,-0.05739,0.0052977
645,0.079354,0.0433,0.21967,0.1284,-0.19836,-0.055116,0.013743
646,0.068635,0.043625,0.21317,0.12158,-0.17302,-0.045372,0.039078
647,0.068635,0.047198,0.21058,0.12775,-0.15061,-0.035303,0.072208
648,0.075456,0.056292,0.20928,0.14074,-0.15126,-0.029132,0.10306
649,0.084226,0.065712,0.20376,0.14237,-0.18959,-0.029457,0.12775
650,0.087799,0.06896,0.18816,0.12515,-0.26851,-0.036927,0.14172
651,0.0852,0.064088,0.16283,0.088773,-0.37018,-0.049595,0.14432
652,0.078704,0.052395,0.13197,0.044599,-0.46665,-0.064861,0.13912
653,0.074157,0.035505,0.10274,0.0023744,-0.52674,-0.078178,0.13035
654,0.072858,0.022188,0.078704,-0.03303,-0.53551,-0.085324,0.12288
655,0.073182,0.017965,0.059541,-0.060313,-0.49945,-0.081426,0.11573
656,0.076755,0.023812,0.041676,-0.078503,-0.43514,-0.065186,0.10696
657,0.0852,0.038428,0.023162,-0.086948,-0.35946,-0.044398,0.098193
658,0.097543,0.054993,0.0026992,-0.084349,-0.27436,-0.022311,0.093321
659,0.10664,0.067336,-0.013541,-0.072006,-0.17172,-0.00054884,0.090072
660,0.10534,0.075456,-0.026533,-0.048945,-0.047646,0.016341,0.087799
661,0.095594,0.083576,-0.037577,-0.013216,0.091696,0.027385,0.084876
662,0.089748,0.088773,-0.048296,0.040052,0.22779,0.03583,0.081952
663,0.092021,0.091372,-0.054792,0.11378,0.34017,0.045899,0.078704
664,0.10177,0.090722,-0.056416,0.20538,0.41033,0.059216,0.07773
665,0.11281,0.085525,-0.058365,0.296,0.43599,0.071558,0.081303
666,0.12158,0.075781,-0.063237,0.35382,0.42527,0.082277,0.090072
667,0.12418,0.065062,-0.073306,0.35706,0.38695,0.088448,0.10047
668,0.12093,0.054668,-0.087597,0.30347,0.32458,0.090072,0.10891
669,0.11346,0.047523,-0.10286,0.21058,0.24078,0.089423,0.11216
670,0.10794,0.0433,-0.11228,0.11216,0.14724,0.089423,0.10956
671,0.10599,0.041676,-0.11261,0.039402,0.065387,0.09462,0.10079
672,0.10469,0.042001,-0.10449,0.011144,0.022188,0.11021,0.091696
673,0.10014,0.043625,-0.095068,0.020888,0.048497,0.14139,0.083901
674,0.092671,0.047847,-0.090196,0.042326,0.16348,0.18427,0.085525
675,0.084551,0.053044,-0.090521,0.050446,0.34862,0.22844,0.094295
676,0.080328,0.055318,-0.096692,0.038103,0.5435,0.2606,0.10242
677,0.076755,0.051096,-0.10968,0.013093,0.67765,0.27359,0.10404
678,0.073832,0.041027,-0.12463,-0.0099683,0.70916,0.26677,0.096244
679,0.070584,0.030633,-0.13145,-0.026858,0.6416,0.24825,0.082277
680,0.064737,0.030308,-0.123,-0.0405,0.51849,0.22584,0.067336
681,0.055968,0.042975,-0.098641,-0.047971,0.39896,0.20635,0.054993
682,0.048497,0.061814,-0.061937,-0.044723,0.32198,0.19206,0.048822
683,0.045574,0.077405,-0.018738,-0.031081,0.2947,0.18167,0.045574
684,0.044599,0.083576,0.025761,-0.010618,0.30152,0.16868,0.0433
685,0.040377,0.078055,0.06896,0.0091954,0.31711,0.14626,0.034855
686,0.031607,0.062789,0.10436,0.021863,0.31192,0.11476,0.016666
687,0.019264,0.043625,0.13035,0.018615,0.26839,0.076755,-0.0083442
688,0.0052977,0.030957,0.14659,0.0062721,0.19401,0.038103,-0.030756
689,-0.010943,0.024137,0.15536,-0.0028225,0.10761,0.0033489,-0.044073
690,-0.027183,0.023812,0.15731,-0.0024977,0.024461,-0.027508,-0.046347
691,-0.042124,0.023487,0.15211,0.0023744,-0.045697,-0.058365,-0.042124
692,-0.049595,0.017965,0.13944,0.0043233,-0.097017,-0.087272,-0.035303
693,-0.046996,0.0043233,0.12353,0.0043233,-0.1282,-0.11423,-0.029457
694,-0.039526,-0.0089938,0.10761,0.0078962,-0.14411,-0.13275,-0.022961
695,-0.03303,-0.01484,0.091047,0.011794,-0.14834,-0.13794,-0.015815
696,-0.031406,-0.012242,0.072533,0.019914,-0.14444,-0.13145,-0.010293
697,-0.034654,-0.0021729,0.058241,0.027385,-0.13599,-0.1217,-0.0099683
698,-0.039851,0.0065969,0.048497,0.027709,-0.12787,-0.11423,-0.016464
699,-0.045047,0.0052977,0.039727,0.022512,-0.1191,-0.10709,-0.027508
700,-0.04992,-0.0050961,0.029658,0.021213,-0.11293,-0.097666,-0.043748
701,-0.054467,-0.018738,0.016666,0.029009,-0.10546,-0.088896,-0.059014
702,-0.059989,-0.029457,0.0039985,0.044275,-0.098965,-0.083375,-0.066485
703,-0.06551,-0.029782,-0.0034721,0.061489,-0.10124,-0.079152,-0.064536
704,-0.067459,-0.019063,-0.00022403,0.076755,-0.11748,-0.07493,-0.055116
705,-0.061288,-0.0015233,0.010495,0.089098,-0.14541,-0.070707,-0.045372
706,-0.046347,0.01829,0.022837,0.095919,-0.17172,-0.064861,-0.038551
707,-0.030431,0.033881,0.028684,0.095594,-0.18407,-0.055766,-0.033354
708,-0.021337,0.039402,0.025436,0.084551,-0.17757,-0.044073,-0.024909
709,-0.018738,0.033556,0.015367,0.065387,-0.15873,-0.031081,-0.013216
710,-0.021661,0.022512,0.0069217,0.0433,-0.13794,-0.019388,-0.0063954
711,-0.026858,0.012443,0.0023744,0.014068,-0.12495,-0.010943,-0.012892
712,-0.031406,0.0036737,-0.0021729,-0.021337,-0.12203,-0.0054209,-0.033679
713,-0.035303,-0.00054884,-0.0076946,-0.057715,-0.12365,-0.0011985,-0.059339
714,-0.038876,0.00010078,-0.0083442,-0.083375,-0.12268,0.0017248,-0.075255
715,-0.038876,0.0043233,-0.0028225,-0.086948,-0.11618,0.0014,-0.077203
716,-0.031406,0.01017,0.0095202,-0.064211,-0.11066,-0.0028225,-0.070058
717,-0.019712,0.01017,0.028034,-0.024909,-0.11488,-0.0080194,-0.061288
718,-0.0096434,-0.0031473,0.053044,0.0065969,-0.1321,-0.012567,-0.054792
719,-0.0041217,-0.024585,0.081627,0.014068,-0.15613,-0.017439,-0.049595
720,-0.00087364,-0.048296,0.10989,-0.007045,-0.17335,-0.022311,-0.0405
721,0.0033489,-0.067459,0.13197,-0.040175,-0.17237,-0.02426,-0.025884
722,0.0091954,-0.076554,0.15049,-0.056741,-0.15288,-0.018088,-0.0093186
723,0.019264,-0.069733,0.17127,-0.043423,-0.11683,-0.0015233,0.0052977
724,0.031607,-0.046022,0.20018,-0.0083442,-0.073306,0.019264,0.017965
725,0.049472,-0.0099683,0.23364,0.031282,-0.034978,0.017965,0.029009
726,0.06831,0.025111,0.2619,0.061489,-0.015165,-0.028807,0.039727
727,0.083901,0.045574,0.27359,0.074482,-0.012242,-0.11943,0.049796
728,0.092671,0.047847,0.26319,0.071558,-0.010943,-0.22694,0.054668
729,0.09397,0.041351,0.23169,0.059865,0.0039985,-0.31594,0.054993
730,0.088124,0.033231,0.18946,0.041676,0.037129,-0.35979,0.05272
731,0.076755,0.02641,0.14789,0.01894,0.076755,-0.35426,0.048822
732,0.061165,0.018615,0.11346,-0.0073698,0.10274,-0.31236,0.043625
733,0.042975,0.012443,0.082277,-0.037577,0.097868,-0.2487,0.037129
734,0.022512,0.012443,0.047523,-0.072981,0.054019,-0.17172,0.030957
735,0.0056225,0.015367,-0.00022403,-0.11098,-0.011267,-0.085973,0.025436
736,-0.0057458,0.018615,-0.058365,-0.14379,-0.072981,-0.00087364,0.023162
737,-0.0073698,0.019914,-0.11715,-0.15905,-0.11748,0.074482,0.024461
738,-0.0047713,0.013093,-0.1688,-0.15061,-0.13859,0.13035,0.029658
739,-0.0028225,-0.0096434,-0.20745,-0.12203,-0.1334,0.16673,0.037454
740,-0.0067202,-0.045697,-0.23181,-0.08305,-0.10546,0.19369,0.045899
741,-0.013541,-0.080127,-0.24026,-0.047646,-0.06681,0.22194,0.053369
742,-0.022311,-0.09929,-0.23441,-0.026209,-0.024909,0.26125,0.06019
743,-0.034978,-0.094418,-0.21687,-0.022311,0.014392,0.31354,0.067986
744,-0.052193,-0.068434,-0.19251,-0.022961,0.047198,0.37623,0.076106
745,-0.070058,-0.028807,-0.1636,-0.012242,0.071558,0.44281,0.079354
746,-0.08305,0.015692,-0.13632,0.019914,0.092021,0.5107,0.070909
747,-0.090196,0.06084,-0.11196,0.067011,0.11248,0.56462,0.049147
748,-0.09182,0.10599,-0.084999,0.11801,0.13684,0.58475,0.016666
749,-0.085324,0.14464,-0.044723,0.16413,0.16218,0.55942,-0.01549
750,-0.077853,0.16543,0.015042,0.19661,0.18199,0.48959,-0.040175
751,-0.068434,0.16056,0.087474,0.20733,0.19726,0.3889,-0.05804
752,-0.054467,0.13392,0.15731,0.19239,0.20733,0.27684,-0.068758
753,-0.040825,0.10014,0.2109,0.15763,0.20798,0.17387,-0.076879
754,-0.033679,0.072208,0.23786,0.11573,0.19726,0.094295,-0.088247
755,-0.035303,0.059216,0.23136,0.083576,0.17907,0.042651,-0.10189
756,-0.042774,0.059865,0.19271,0.073832,0.16023,0.016016,-0.11391
757,-0.046022,0.072208,0.13132,0.089098,0.14561,0.0020496,-0.12268
758,-0.041475,0.093645,0.065712,0.11541,0.14139,-0.0073698,-0.12365
759,-0.032055,0.11833,0.01017,0.13717,0.14951,-0.018413,-0.11553
760,-0.023285,0.1349,-0.027183,0.13717,0.16738,-0.032705,-0.096367
761,-0.0093186,0.13652,-0.045372,0.10014,0.18069,-0.047646,-0.071682
762,0.011794,0.1219,-0.046347,0.034206,0.1781,-0.062912,-0.047646
763,0.03583,0.098517,-0.032705,-0.035303,0.15731,-0.077203,-0.030431
764,0.05272,0.07773,-0.0063954,-0.082725,0.12775,-0.093444,-0.02426
765,0.057592,0.063763,0.024461,-0.092145,0.097868,-0.11228,-0.022636
766,0.051096,0.054344,0.054019,-0.067784,0.075456,-0.13242,-0.020687
767,0.038103,0.045249,0.070259,-0.025234,0.062789,-0.15353,-0.011267
768,0.020564,0.033556,0.067336,0.016341,0.058566,-0.17172,0.0020496
769,0.0033489,0.014068,0.048497,0.042326,0.062139,-0.18471,0.013743
770,-0.015815,-0.01549,0.016016,0.05207,0.066362,-0.19186,0.016666
771,-0.034004,-0.052843,-0.025884,0.050771,0.063763,-0.19706,0.017316
772,-0.047971,-0.096042,-0.075904,0.049147,0.047847,-0.20031,0.016016
773,-0.052193,-0.14866,-0.12917,0.046223,0.0085458,-0.20485,0.009845
774,-0.04927,-0.2055,-0.17854,0.040377,-0.05739,-0.21232,0.0010752
775,-0.042774,-0.25877,-0.21005,0.031607,-0.14671,-0.22272,-0.0041217
776,-0.036602,-0.2984,-0.21492,0.028034,-0.24123,-0.23246,-0.00087364
777,-0.03173,-0.31594,-0.19738,0.033881,-0.32601,-0.23441,0.009845
778,-0.029132,-0.30489,-0.16718,0.04395,-0.38934,-0.22629,0.024461
779,-0.02361,-0.26657,-0.13307,0.05142,-0.42605,-0.2081,0.03583
780,-0.013866,-0.21102,-0.10124,0.050121,-0.43352,-0.18342,0.041351
781,-0.0015233,-0.15418,-0.075255,0.040052,-0.4137,-0.15126,0.042326
782,0.011144,-0.10644,-0.05739,0.028684,-0.36921,-0.10838,0.044275
783,0.024461,-0.068434,-0.044398,0.019914,-0.301,-0.055116,0.052395
784,0.038753,-0.035953,-0.030431,0.014392,-0.2042,0.003024,0.064088
785,0.052395,-0.0031473,-0.011917,0.011144,-0.066485,0.058891,0.081952
786,0.061489,0.034206,0.01017,0.011144,0.10112,0.10631,0.10306
787,0.065712,0.08585,0.037778,0.016666,0.26352,0.13977,0.12483
788,0.069934,0.15341,0.073507,0.028684,0.39474,0.15146,0.13814
789,0.077405,0.23039,0.11443,0.04395,0.48894,0.13555,0.14009
790,0.088124,0.30282,0.15276,0.054993,0.55455,0.092346,0.13327
791,0.097868,0.35641,0.17582,0.06019,0.60132,0.028359,0.12028
792,0.10242,0.38078,0.1742,0.065062,0.63542,-0.041799,0.10761
793,0.10177,0.36811,0.14854,0.073832,0.65231,-0.10319,0.095269
794,0.095919,0.32393,0.10794,0.087474,0.64907,-0.14541,0.082927
795,0.087799,0.2619,0.06084,0.10339,0.61659,-0.16782,0.070259
796,0.082602,0.19888,0.013093,0.11183,0.54675,-0.17757,0.055968
797,0.079029,0.14951,-0.027833,0.10404,0.44119,-0.18601,0.038428
798,0.07708,0.11801,-0.056416,0.079679,0.30997,-0.19413,0.015367
799,0.075456,0.10047,-0.069083,0.045249,0.16998,-0.19446,-0.010618
800,0.071558,0.092021,-0.061613,0.01764,0.043625,-0.18601,-0.034978
801,0.066362,0.084876,-0.035628,0.003024,-0.054792,-0.16653,-0.050244
802,0.06084,0.078055,-0.0024977,0.00042559,-0.1256,-0.13404,-0.047321
803,0.056942,0.073507,0.027709,0.0010752,-0.17302,-0.088572,-0.026533
804,0.054344,0.073507,0.047523,0.0020496,-0.19511,-0.036927,0.0036737
805,0.05207,0.074482,0.055318,0.0020496,-0.18471,0.012443,0.034855
806,0.047523,0.069934,0.051745,-0.0011985,-0.13469,0.055318,0.058891
807,0.040052,0.058566,0.042326,-0.0050961,-0.053817,0.099817,0.075456
808,0.037778,0.041351,0.037129,-0.0034721,0.037129,0.15503,0.088773
809,0.0433,0.021863,0.045899,0.0085458,0.11541,0.22,0.10371
810,0.054344,0.003024,0.070584,0.026735,0.1703,0.29145,0.12255
811,0.067661,-0.008669,0.10956,0.046223,0.20051,0.36064,0.14172
812,0.075781,-0.013866,0.15471,0.06084,0.2083,0.41163,0.15601
813,0.079679,-0.012567,0.19401,0.065712,0.19661,0.42657,0.15926
814,0.080653,-0.010293,0.21252,0.06019,0.17485,0.39896,0.15049
815,0.079679,-0.011592,0.20116,0.043625,0.15081,0.33628,0.131
816,0.073832,-0.021012,0.16153,0.016016,0.12613,0.25345,0.10371
817,0.062464,-0.034004,0.10566,-0.014191,0.098193,0.17225,0.070584
818,0.047847,-0.045697,0.048822,-0.038227,0.067661,0.11054,0.034855
819,0.037778,-0.055441,0.0026992,-0.053168,0.050121,0.074806,0.0036737
820,0.038103,-0.062587,-0.029132,-0.059664,0.066362,0.066037,-0.016464
821,0.048172,-0.064211,-0.044398,-0.057065,0.11541,0.081627,-0.022636
822,0.060515,-0.060313,-0.045047,-0.046347,0.1768,0.11118,-0.01484
823,0.069285,-0.055441,-0.040175,-0.028807,0.22357,0.13912,-0.0018481
824,0.066686,-0.050244,-0.035303,-0.012892,0.23136,0.15146,0.0052977
825,0.050771,-0.044398,-0.032055,-0.0037969,0.18849,0.14334,0.0049729
826,0.029009,-0.037902,-0.027833,0.00042559,0.094945,0.11573,-0.0028225
827,0.011794,-0.029457,-0.021012,0.0052977,-0.037902,0.076431,-0.011267
828,0.0065969,-0.016464,-0.0057458,0.011144,-0.18407,0.029658,-0.015815
829,0.010819,-0.0015233,0.014392,0.01829,-0.31464,-0.019712,-0.01484
830,0.017965,0.014068,0.038103,0.029658,-0.40818,-0.064211,-0.01614
831,0.024786,0.02641,0.065712,0.042975,-0.45333,-0.098316,-0.023285
832,0.026085,0.03518,0.094295,0.054993,-0.44781,-0.12138,-0.035953
833,0.020564,0.040702,0.11411,0.065062,-0.39909,-0.12885,-0.047321
834,0.010495,0.044924,0.11703,0.072208,-0.32503,-0.123,-0.054142
835,-0.00087364,0.048822,0.094295,0.06831,-0.25162,-0.11001,-0.058365
836,-0.011917,0.05207,0.049472,0.054019,-0.20745,-0.097341,-0.063886
837,-0.02361,0.048497,-0.007045,0.033231,-0.21037,-0.090845,-0.069733
838,-0.035303,0.039078,-0.059339,0.009845,-0.2552,-0.094418,-0.07493
839,-0.045047,0.025436,-0.09994,-0.0099683,-0.31366,-0.10806,-0.075579
840,-0.047321,0.0088706,-0.1269,-0.022311,-0.36303,-0.12787,-0.070058
841,-0.048296,-0.007045,-0.14184,-0.027183,-0.39519,-0.15029,-0.059664
842,-0.051219,-0.021012,-0.14444,-0.031406,-0.41273,-0.17302,-0.050894
843,-0.060638,-0.03238,-0.13924,-0.044073,-0.41955,-0.19219,-0.048945
844,-0.072331,-0.045047,-0.13047,-0.060638,-0.4215,-0.20518,-0.051868
845,-0.083375,-0.057065,-0.12235,-0.068109,-0.41955,-0.2146,-0.055116
846,-0.087922,-0.069408,-0.11813,-0.059014,-0.41468,-0.22239,-0.056741
847,-0.084349,-0.076554,-0.11683,-0.034978,-0.40136,-0.22629,-0.053817
848,-0.075255,-0.072656,-0.11488,0.00042559,-0.38187,-0.22467,-0.04862
849,-0.061937,-0.059989,-0.10644,0.033881,-0.36466,-0.21752,-0.039851
850,-0.047971,-0.04115,-0.090845,0.053694,-0.36726,-0.20615,-0.029457
851,-0.036602,-0.020362,-0.068758,0.055318,-0.39746,-0.18861,-0.019712
852,-0.027833,0.0017248,-0.042774,0.045574,-0.44001,-0.1636,-0.011592
853,-0.022311,0.026085,-0.015815,0.032906,-0.46048,-0.13404,-0.0018481
854,-0.020037,0.046873,0.011144,0.02706,-0.43644,-0.10091,0.013743
855,-0.023285,0.058566,0.034206,0.031282,-0.36368,-0.065835,0.031282
856,-0.027183,0.061165,0.050121,0.04395,-0.25845,-0.033679,0.049472
857,-0.025234,0.056942,0.058891,0.058891,-0.14704,-0.0063954,0.06019
858,-0.016789,0.049472,0.062464,0.069934,-0.051219,0.015367,0.057917
859,-0.0054209,0.041027,0.061489,0.071234,0.019264,0.028359,0.045574
860,0.0056225,0.030633,0.053694,0.059216,0.071558,0.028359,0.031607
861,0.019264,0.020564,0.038753,0.037454,0.12872,0.020239,0.024461
862,0.03453,0.017316,0.016666,0.013743,0.21317,0.009845,0.025111
863,0.049472,0.024786,-0.010293,-0.0024977,0.32426,0.010819,0.031607
864,0.061814,0.044275,-0.034654,-0.008669,0.43729,0.025761,0.040702
865,0.070584,0.068635,-0.050244,-0.011592,0.52272,0.051745,0.048822
866,0.075781,0.089423,-0.057715,-0.018413,0.56592,0.079029,0.05272
867,0.074482,0.10144,-0.056741,-0.031406,0.56267,0.095919,0.047198
868,0.066686,0.10404,-0.050244,-0.048296,0.52239,0.097868,0.03453
869,0.053369,0.099492,-0.044723,-0.07493,0.45905,0.086175,0.022837
870,0.041027,0.092021,-0.0405,-0.11326,0.38467,0.061489,0.01764
871,0.031932,0.08585,-0.037902,-0.15093,0.30899,0.029333,0.018615
872,0.027385,0.078379,-0.036602,-0.1623,0.24793,-0.0050961,0.019914
873,0.029333,0.067986,-0.038227,-0.13145,0.2096,-0.035303,0.015692
874,0.032906,0.055318,-0.04862,-0.062587,0.19076,-0.056741,0.0072465
875,0.03453,0.042001,-0.068758,0.015367,0.17842,-0.068109,-0.00054884
876,0.031607,0.033881,-0.092145,0.075781,0.15276,-0.067459,-0.0037969
877,0.027709,0.034206,-0.11163,0.10599,0.10014,-0.055441,0.0056225
878,0.029009,0.041027,-0.11845,0.11606,0.018615,-0.035953,0.026085
879,0.037454,0.05207,-0.10838,0.12223,-0.077203,-0.011267,0.055643
880,0.053369,0.063763,-0.076554,0.14107,-0.16555,0.020564,0.08585
881,0.069285,0.071883,-0.019712,0.18232,-0.23051,0.059216,0.10761
882,0.07773,0.075456,0.056292,0.2502,-0.26754,0.10306,0.11411
883,0.084551,0.079354,0.14302,0.3379,-0.2854,0.14724,0.10826
884,0.091372,0.085525,0.23201,0.42657,-0.29645,0.18719,0.099492
885,0.098842,0.096569,0.31192,0.49998,-0.31431,0.2135,0.097543
886,0.099167,0.11378,0.3746,0.54123,-0.34874,0.22227,0.10144
887,0.092021,0.12937,0.41358,0.53343,-0.38642,0.21642,0.10404
888,0.081952,0.13555,0.42592,0.46523,-0.39616,0.19921,0.097543
889,0.074482,0.1271,0.40936,0.34862,-0.35004,0.1768,0.081952
890,0.069285,0.10306,0.36713,0.19953,-0.25617,0.15373,0.053694
891,0.063113,0.071558,0.30639,0.026085,-0.13924,0.13587,-0.035628
892,0.055968,0.042975,0.23234,-0.16165,-0.029132,0.12385,-0.22012
893,0.054344,0.021538,0.16056,-0.32308,0.053044,0.1219,-0.41728
894,0.062464,0.0085458,0.10631,-0.40623,0.10112,0.1284,-0.49198
895,0.079354,0.0014,0.078379,-0.39779,0.14074,0.14237,-0.40526
896,0.097543,-0.0034721,0.06896,-0.32081,0.20278,0.16835,-0.21817
897,0.11216,-0.0083442,0.06961,-0.22402,0.29308,0.2044,-0.019388
898,0.1206,-0.015165,0.073182,-0.14476,0.3876,0.24046,0.12158
899,0.12353,-0.021986,0.072858,-0.09929,0.45126,0.2619,0.18751
900,0.1219,-0.024585,0.069934,-0.085324,0.45808,0.2606,0.19791
901,0.11931,-0.019712,0.06831,-0.087272,0.40611,0.23559,0.18427
902,0.11508,-0.010293,0.071558,-0.085973,0.31484,0.19044,0.17225
903,0.10729,0.0017248,0.074806,-0.073306,0.21902,0.13165,0.1742
904,0.097218,0.013093,0.074806,-0.047321,0.14789,0.06831,0.18816
905,0.083576,0.020888,0.06961,-0.012892,0.11248,0.01017,0.20311
906,0.067986,0.023162,0.053694,0.022837,0.096893,-0.035953,0.20928
907,0.05207,0.014392,0.02706,0.054668,0.078704,-0.071357,0.20473
908,0.038103,-0.0047713,-0.0054209,0.079354,0.041027,-0.094743,0.19011
909,0.025436,-0.030431,-0.042449,0.087799,-0.013866,-0.11098,0.13555
910,0.01017,-0.052518,-0.081101,0.062139,-0.059339,-0.12527,-0.029132
911,-0.0060706,-0.063561,-0.11553,0.0056225,-0.084349,-0.14639,-0.27079
912,-0.022961,-0.062587,-0.13372,-0.042449,-0.10091,-0.16912,-0.44001
913,-0.039851,-0.055441,-0.12982,-0.046671,-0.12138,-0.18147,-0.43871
914,-0.053492,-0.046671,-0.10774,-0.010293,-0.14671,-0.174,-0.29612
915,-0.063886,-0.036927,-0.080451,0.041676,-0.16198,-0.14184,-0.09929
916,-0.071682,-0.029457,-0.057065,0.080003,-0.15418,-0.087922,0.071883
917,-0.075255,-0.025234,-0.04115,0.095594,-0.11943,-0.02426,0.17874
918,-0.075579,-0.021012,-0.033354,0.094945,-0.059989,0.036154,0.22487
919,-0.075255,-0.018738,-0.031081,0.085525,0.01894,0.083901,0.22941
920,-0.073631,-0.021986,-0.03238,0.071883,0.11313,0.11995,0.2174
921,-0.067459,-0.027183,-0.036278,0.06831,0.21155,0.14659,0.207
922,-0.061288,-0.03173,-0.0405,0.078379,0.29892,0.16283,0.20148
923,-0.059339,-0.03173,-0.044398,0.098842,0.35576,0.15373,0.20213
924,-0.063237,-0.024909,-0.049595,0.11995,0.36681,0.11151,0.20635
925,-0.070382,-0.01549,-0.05804,0.12872,0.32946,0.044599,0.21512
926,-0.07428,-0.0054209,-0.070058,0.12678,0.26027,-0.023935,0.22129
927,-0.073631,0.0036737,-0.088572,0.11313,0.18394,-0.081101,0.21123
928,-0.070058,0.015042,-0.11683,0.067661,0.13717,-0.12235,0.11573
929,-0.06616,0.026735,-0.15288,-0.013541,0.13587,-0.14834,-0.10091
930,-0.05739,0.038103,-0.18894,-0.095717,0.16965,-0.16393,-0.33348
931,-0.043748,0.044275,-0.20778,-0.13145,0.20928,-0.17205,-0.42085
932,-0.03238,0.044599,-0.20258,-0.11715,0.23786,-0.1727,-0.32503
933,-0.027183,0.039727,-0.18147,-0.076229,0.25443,-0.16068,-0.11715
934,-0.024909,0.035505,-0.15126,-0.038551,0.26709,-0.13502,0.098517
935,-0.020362,0.033231,-0.11813,-0.025559,0.27944,-0.10124,0.24988
936,-0.0099683,0.033556,-0.085324,-0.04862,0.29275,-0.068758,0.31419
937,0.0072465,0.034855,-0.054792,-0.089221,0.30672,-0.0405,0.31484
938,0.025436,0.029658,-0.026209,-0.1243,0.32263,-0.013866,0.29113
939,0.040052,0.020888,-0.0044465,-0.14119,0.32913,0.016016,0.26904
940,0.047523,0.011794,0.0056225,-0.14216,0.32198,0.054993,0.25995
941,0.048822,0.008221,0.0023744,-0.12722,0.2999,0.10404,0.26449
942,0.045899,0.0069217,-0.015815,-0.10254,0.26774,0.15893,0.27164
943,0.044599,0.0043233,-0.043748,-0.080776,0.23136,0.21675,0.27391
944,0.050771,0.00075039,-0.068758,-0.073306,0.19076,0.27456,0.27229
945,0.066686,-0.0031473,-0.080127,-0.079152,0.14237,0.32816,0.26807
946,0.082927,-0.0096434,-0.079152,-0.09994,0.086175,0.36908,0.22877
947,0.091696,-0.016789,-0.073955,-0.14379,0.033231,0.38272,0.081952
948,0.088124,-0.019063,-0.067459,-0.18601,-0.014191,0.36941,-0.13632
949,0.079354,-0.011917,-0.051544,-0.174,-0.062587,0.33855,-0.27696
950,0.074157,0.0062721,-0.027183,-0.086948,-0.11456,0.30639,-0.24643
951,0.075456,0.030308,0.0056225,0.044924,-0.161,0.27911,-0.076229
952,0.081627,0.055318,0.040377,0.17192,-0.18731,0.25637,0.1336
953,0.090072,0.072208,0.078055,0.25767,-0.18017,0.23461,0.2986
954,0.09397,0.079354,0.11671,0.29373,-0.13729,0.21155,0.38272
955,0.090397,0.07773,0.15601,0.29827,-0.072981,0.18687,0.39799
956,0.081952,0.074806,0.19726,0.28918,-0.0089938,0.16315,0.37558
957,0.074157,0.075781,0.24306,0.27879,0.044599,0.13944,0.34602
958,0.068635,0.076106,0.29405,0.26904,0.093321,0.11476,0.32263
959,0.067011,0.075456,0.34277,0.26449,0.13912,0.08585,0.30867
960,0.065712,0.075781,0.37948,0.2554,0.16933,0.045249,0.30055
961,0.059865,0.075131,0.39539,0.23266,0.17907,-0.010293,0.29438
962,0.049796,0.071234,0.3889,0.19856,0.17874,-0.086623,0.28496
963,0.037454,0.061814,0.36161,0.16153,0.18784,-0.17919,0.26839
964,0.024786,0.046223,0.31679,0.12385,0.21902,-0.27144,0.25053
965,0.013418,0.026735,0.26255,0.090722,0.26449,-0.34517,0.23331
966,0.0010752,0.0095202,0.20798,0.065062,0.30704,-0.38707,0.21805
967,-0.011592,-0.0024977,0.16575,0.044924,0.33238,-0.39422,0.20765
968,-0.022961,-0.0089938,0.14269,0.030957,0.33205,-0.3731,0.19888
969,-0.03238,-0.013866,0.13295,0.024461,0.3038,-0.33543,0.18784
970,-0.038876,-0.01484,0.1232,0.023487,0.26027,-0.28995,0.17485
971,-0.041475,-0.013216,0.10371,0.02706,0.2174,-0.24058,0.1625
972,-0.044073,-0.0093186,0.073832,0.038103,0.18914,-0.18926,0.15373
973,-0.045047,-0.00087364,0.038103,0.053369,0.18232,-0.13827,0.15016
974,-0.042449,0.014068,-0.00022403,0.062139,0.18622,-0.092794,0.15114
975,-0.037252,0.033231,-0.040175,0.064413,0.18687,-0.058365,0.15958
976,-0.030106,0.05207,-0.077528,0.065387,0.17062,-0.035628,0.16835
977,-0.022311,0.070259,-0.11228,0.069285,0.13652,-0.013216,0.17355
978,-0.013216,0.089748,-0.13892,0.073182,0.087474,0.016666,0.1742
979,0.00075039,0.11216,-0.15191,0.079354,0.033556,0.056617,0.17127
980,0.016991,0.13652,-0.15061,0.092346,-0.026533,0.10599,0.16803
981,0.033881,0.15601,-0.13957,0.11378,-0.094743,0.15601,0.16705
982,0.046873,0.16673,-0.12625,0.13684,-0.17205,0.20083,0.16543
983,0.053369,0.1716,-0.11163,0.14951,-0.2552,0.23169,0.15958
984,0.054993,0.16738,-0.09117,0.15211,-0.33835,0.24208,0.14659
985,0.054019,0.15309,-0.056416,0.14854,-0.40916,0.23071,0.12613
986,0.052395,0.12937,-0.0083442,0.14139,-0.45788,0.19953,0.099492
987,0.048822,0.099817,0.042975,0.12743,-0.47282,0.15601,0.073832
988,0.046223,0.071558,0.083576,0.10794,-0.46015,0.11216,0.056942
989,0.044275,0.049472,0.10696,0.091696,-0.42832,0.07708,0.049796
990,0.042651,0.037129,0.11703,0.081303,-0.38772,0.053369,0.053694
991,0.044275,0.030633,0.11736,0.073507,-0.35264,0.041351,0.065712
992,0.050446,0.023162,0.11541,0.059541,-0.32795,0.039402,0.078704
993,0.056292,0.01017,0.11703,0.037129,-0.31009,0.041676,0.085525
994,0.059865,-0.0073698,0.12288,0.015042,-0.29288,0.039727,0.083901
995,0.059216,-0.021012,0.1349,0.0017248,-0.27436,0.029009,0.072208
996,0.056292,-0.02361,0.14919,-0.0021729,-0.2578,0.0085458,0.053044
997,0.050446,-0.016789,0.16315,0.0023744,-0.24708,-0.017764,0.029333
998,0.041027,-0.0080194,0.17095,0.012119,-0.24415,-0.044723,0.0046481
999,0.02706,-0.0057458,0.16445,0.02641,-0.24578,-0.069408,-0.013216
1000,0.009845,-0.012567,0.13749,0.03518,-0.2435,-0.094418,-0.025559
1001,-0.0080194,-0.022311,0.091047,0.030957,-0.23116,-0.11878,-0.034004
1002,-0.021986,-0.029457,0.03453,0.013418,-0.20453,-0.13697,-0.042449
1003,-0.030756,-0.03303,-0.021012,-0.012242,-0.1636,-0.14736,-0.054142
1004,-0.033354,-0.034329,-0.070058,-0.036278,-0.11748,-0.15256,-0.068758
1005,-0.032055,-0.033679,-0.10806,-0.054142,-0.076879,-0.16133,-0.087272
1006,-0.03303,-0.03303,-0.13404,-0.061288,-0.039851,-0.17432,-0.11228
1007,-0.037902,-0.03173,-0.15516,-0.060638,-0.0021729,-0.19056,-0.13957
1008,-0.045372,-0.032705,-0.17594,-0.056091,0.02641,-0.20485,-0.1649
1009,-0.052843,-0.03173,-0.19316,-0.051868,0.033881,-0.21102,-0.18342
1010,-0.054142,-0.028482,-0.20225,-0.053492,0.014717,-0.2042,-0.19413
1011,-0.046996,-0.022636,-0.19868,-0.058365,-0.024585,-0.18309,-0.19186
1012,-0.033679,-0.013541,-0.18569,-0.067134,-0.071032,-0.15548,-0.18049
1013,-0.01614,-0.0018481,-0.16977,-0.080776,-0.11521,-0.13047,-0.1636
1014,0.0010752,0.012443,-0.15548,-0.10059,-0.15256,-0.11715,-0.14769
1015,0.016666,0.026085,-0.14606,-0.11715,-0.18699,-0.11715,-0.14541
1016,0.027385,0.032257,-0.13957,-0.12138,-0.22532,-0.1308,-0.1597
1017,0.036154,0.029983,-0.12365,-0.11131,-0.27176,-0.15711,-0.19186
1018,0.045574,0.027709,-0.084349,-0.088896,-0.31854,-0.18634,-0.23668
1019,0.055318,0.031607,-0.018413,-0.058365,-0.34842,-0.21135,-0.28346
1020,0.060515,0.041351,0.063763,-0.026533,-0.34744,-0.22369,-0.31691
1021,0.061814,0.054019,0.14172,-0.0018481,-0.31594,-0.21947,-0.32925
1022,0.061489,0.061165,0.20246,0.0085458,-0.26462,-0.19933,-0.32016
1023,0.056292,0.058891,0.23039,0.003024,-0.21135,-0.16653,-0.30132
1024,0.045899,0.050121,0.22162,-0.013216,-0.16328,-0.1243,-0.28313
1025,0.030633,0.039727,0.1768,-0.034329,-0.11845,-0.0824,-0.26819
1026,0.016341,0.031932,0.11086,-0.059014,-0.076879,-0.047971,-0.25357
1027,0.0052977,0.028034,0.038753,-0.088896,-0.044398,-0.031081,-0.23896
1028,-0.0024977,0.02706,-0.022636,-0.11391,-0.027833,-0.032055,-0.23149
1029,-0.0083442,0.029983,-0.060313,-0.12527,-0.029132,-0.043099,-0.23441
1030,-0.013866,0.034855,-0.07493,-0.1191,-0.043423,-0.050894,-0.24156
1031,-0.021012,0.042326,-0.072656,-0.10059,-0.059339,-0.051868,-0.24578
1032,-0.028482,0.051096,-0.063886,-0.078827,-0.064211,-0.047971,-0.23961
1033,-0.032705,0.057267,-0.053168,-0.065835,-0.043099,-0.037577,-0.22597
1034,-0.03173,0.056942,-0.038227,-0.064211,0.008221,-0.020362,-0.21135
1035,-0.032705,0.049147,-0.013541,-0.061288,0.08585,0.0056225,-0.20518
1036,-0.036602,0.037778,0.024461,-0.045697,0.18329,0.042326,-0.2068
1037,-0.044398,0.024461,0.067986,-0.01549,0.29405,0.091047,-0.21135
1038,-0.053168,0.010819,0.10761,0.021538,0.41131,0.15146,-0.21037
1039,-0.061937,0.00042559,0.14042,0.048822,0.53116,0.21415,-0.19933
1040,-0.068434,-0.0044465,0.16218,0.055968,0.64419,0.26872,-0.18277
1041,-0.069733,-0.0018481,0.16705,0.041676,0.73092,0.30445,-0.17237
1042,-0.070058,0.0095202,0.15698,0.014068,0.7634,0.31419,-0.17367
1043,-0.071032,0.024461,0.13652,-0.010618,0.72929,0.29568,-0.18439
1044,-0.07428,0.038428,0.11183,-0.011917,0.63023,0.25345,-0.19966
1045,-0.07428,0.042001,0.087474,0.015042,0.48147,0.19271,-0.21037
1046,-0.062587,0.030957,0.06961,0.054668,0.29438,0.12645,-0.21135
1047,-0.042774,0.0091954,0.053044,0.08585,0.083576,0.066037,-0.20388
1048,-0.021012,-0.010618,0.037778,0.09397,-0.13177,0.020564,-0.19251
1049,-0.0034721,-0.020362,0.024137,0.079354,-0.32731,-0.012242,-0.17952
1050,0.0046481,-0.017764,0.013743,0.054019,-0.48126,-0.037902,-0.16912
1051,0.0059473,-0.0063954,0.0088706,0.036479,-0.57448,-0.063237,-0.1649
1052,0.0046481,0.0088706,0.013418,0.045574,-0.58748,-0.086623,-0.16945
1053,0.0039985,0.025111,0.031607,0.10306,-0.49653,-0.10059,-0.17302
1054,0.01017,0.042001,0.061165,0.2096,-0.30814,-0.10514,-0.16815
1055,0.023812,0.055968,0.084551,0.32751,-0.085324,-0.10871,-0.15321
1056,0.034855,0.059541,0.080653,0.3824,0.078055,-0.12235,-0.13762
1057,0.031607,0.046223,0.039402,0.31679,0.1206,-0.15061,-0.1308
1058,0.016666,0.020564,-0.032705,0.13879,0.047847,-0.19056,-0.13632
1059,-0.0041217,-0.010943,-0.11553,-0.094418,-0.088247,-0.22726,-0.14639
1060,-0.016464,-0.038227,-0.18731,-0.30522,-0.22532,-0.24091,-0.15353
1061,-0.012892,-0.056741,-0.23474,-0.43644,-0.32146,-0.22174,-0.14996
1062,0.0069217,-0.059339,-0.2526,-0.47119,-0.35719,-0.17335,-0.13242
1063,0.037129,-0.047321,-0.24643,-0.42605,-0.3429,-0.10644,-0.10384
1064,0.067011,-0.023285,-0.22661,-0.33705,-0.30067,-0.036927,-0.067784
1065,0.088448,0.0062721,-0.20323,-0.23603,-0.24708,0.025436,-0.024909
1066,0.098842,0.032257,-0.18829,-0.14476,-0.18926,0.071883,0.017965
1067,0.099492,0.046548,-0.18277,-0.077528,-0.1334,0.099167,0.05272
1068,0.091047,0.048172,-0.18309,-0.037902,-0.081426,0.11216,0.07773
1069,0.078379,0.040377,-0.18309,-0.021986,-0.039201,0.11833,0.09462
1070,0.067661,0.029983,-0.17919,-0.020362,-0.011267,0.12743,0.10371
1071,0.061489,0.020888,-0.1714,-0.023285,-0.0034721,0.14464,0.10631
1072,0.059216,0.015692,-0.16425,-0.025884,-0.011917,0.1716,0.10599
1073,0.061489,0.015042,-0.16328,-0.023935,-0.02426,0.2083,0.10566
1074,0.063438,0.014068,-0.16782,-0.01549,-0.032055,0.25897,0.10696
1075,0.062139,0.0062721,-0.17432,0.0039985,-0.034654,0.32101,0.10761
1076,0.06084,-0.008669,-0.18439,0.032906,-0.039851,0.3824,0.10501
1077,0.058566,-0.027183,-0.19836,0.063113,-0.053492,0.42462,0.10177
1078,0.056617,-0.043748,-0.2068,0.08585,-0.077203,0.43502,0.097868
1079,0.05207,-0.056741,-0.20518,0.098193,-0.10611,0.40481,0.092346
1080,0.043625,-0.072981,-0.19381,0.10534,-0.13632,0.33758,0.084226
1081,0.030308,-0.093444,-0.1753,0.11281,-0.16588,0.24695,0.071234
1082,0.01829,-0.11326,-0.15093,0.11866,-0.19446,0.14984,0.053694
1083,0.010819,-0.12398,-0.12755,0.12483,-0.21622,0.057917,0.03518
1084,0.0085458,-0.11651,-0.10903,0.12678,-0.22597,-0.019388,0.017316
1085,0.0091954,-0.09117,-0.093769,0.1219,-0.22467,-0.07493,-0.0015233
1086,0.013093,-0.051544,-0.079152,0.11508,-0.2094,-0.10579,-0.019712
1087,0.021213,-0.0047713,-0.062912,0.10826,-0.18147,-0.11391,-0.029457
1088,0.031607,0.045249,-0.043748,0.10079,-0.14606,-0.10579,-0.024585
1089,0.042001,0.096244,-0.020037,0.094295,-0.11423,-0.092145,-0.007045
1090,0.05142,0.14302,0.0088706,0.090072,-0.087272,-0.082725,0.01764
1091,0.058891,0.1781,0.037778,0.087799,-0.061937,-0.080776,0.044599
1092,0.060515,0.20083,0.063113,0.082927,-0.03173,-0.083375,0.064413
1093,0.057592,0.20765,0.07708,0.072533,0.009845,-0.086948,0.075456
1094,0.057917,0.20148,0.081627,0.055643,0.070259,-0.087922,0.075131
1095,0.062464,0.18394,0.081303,0.037454,0.15016,-0.078178,0.069934
1096,0.067011,0.15893,0.084226,0.022512,0.24306,-0.050894,0.067986
1097,0.067011,0.13425,0.097543,0.017965,0.33043,-0.0093186,0.073182
1098,0.063763,0.11508,0.1219,0.029983,0.38597,0.040052,0.086175
1099,0.059216,0.099817,0.15958,0.054993,0.38727,0.083576,0.10371
1100,0.055318,0.083576,0.20051,0.080978,0.33498,0.11411,0.12223
1101,0.051745,0.063438,0.23364,0.098517,0.24598,0.13002,0.13847
1102,0.050121,0.041351,0.25313,0.10242,0.14886,0.13165,0.15146
1103,0.05272,0.017965,0.25962,0.09397,0.071234,0.11833,0.15828
1104,0.059216,-0.00087364,0.25605,0.082602,0.025761,0.093321,0.15828
1105,0.062789,-0.010618,0.24468,0.076106,0.017316,0.064737,0.15568
1106,0.062139,-0.008669,0.22617,0.078379,0.042651,0.036479,0.15341
1107,0.061165,0.0046481,0.20311,0.0865,0.098517,0.0078962,0.14626
1108,0.06019,0.024137,0.18069,0.095269,0.17615,-0.023935,0.1349
1109,0.057592,0.045574,0.17485,0.10664,0.26677,-0.063561,0.12158
1110,0.053369,0.062464,0.19531,0.11768,0.35641,-0.11553,0.10826
1111,0.048172,0.06896,0.23006,0.1245,0.44379,-0.17984,0.095269
1112,0.044599,0.063113,0.26125,0.1245,0.53149,-0.24903,0.084551
1113,0.0433,0.047523,0.28073,0.11801,0.61529,-0.31269,0.079679
1114,0.044924,0.032582,0.29145,0.10761,0.6757,-0.35621,0.080978
1115,0.046223,0.021213,0.2999,0.092996,0.69876,-0.36791,0.081627
1116,0.047198,0.01017,0.30737,0.080653,0.67667,-0.34225,0.081952
1117,0.046223,-0.0047713,0.31094,0.075781,0.61594,-0.28508,0.081952
1118,0.041676,-0.025559,0.31549,0.082277,0.53246,-0.20193,0.081952
1119,0.033231,-0.047971,0.31679,0.10469,0.44704,-0.10286,0.081303
1120,0.022512,-0.063561,0.31062,0.14399,0.38175,0.0036737,0.082277
1121,0.011469,-0.067134,0.29275,0.19531,0.34082,0.10664,0.088773
1122,0.0020496,-0.063561,0.25475,0.24371,0.31127,0.19628,0.10047
1123,-0.0073698,-0.056091,0.19921,0.27586,0.27976,0.26514,0.11508
1124,-0.017114,-0.042449,0.14139,0.28626,0.23721,0.31516,0.13067
1125,-0.026209,-0.021661,0.093645,0.27749,0.18004,0.34732,0.14237
1126,-0.03238,0.0033489,0.058566,0.25995,0.10891,0.36941,0.14594
1127,-0.037252,0.031607,0.03518,0.23526,0.029009,0.38662,0.14269
1128,-0.040175,0.060515,0.022188,0.20311,-0.043748,0.40838,0.13749
1129,-0.038876,0.084876,0.019589,0.1716,-0.098965,0.44281,0.13425
1130,-0.03303,0.10306,0.021863,0.14529,-0.13762,0.49283,0.13262
1131,-0.018738,0.11541,0.021213,0.12093,-0.16263,0.55162,0.13684
1132,0.0039985,0.12515,0.016666,0.097218,-0.18049,0.60847,0.14691
1133,0.029983,0.13392,0.01017,0.071234,-0.19283,0.63965,0.15698
1134,0.050446,0.14009,0.0033489,0.04395,-0.19933,0.61788,0.16088
1135,0.06084,0.13749,-0.0015233,0.019589,-0.19641,0.53376,0.15503
1136,0.063113,0.12807,-0.0060706,-0.0034721,-0.19056,0.40286,0.13944
1137,0.061165,0.11866,-0.013541,-0.027183,-0.19186,0.25313,0.11443
1138,0.053044,0.11573,-0.026858,-0.051544,-0.20355,0.11573,0.083576
1139,0.040377,0.11963,-0.042774,-0.080776,-0.22532,0.012768,0.05142
1140,0.02641,0.12645,-0.059339,-0.10709,-0.25325,-0.04927,0.01894
1141,0.008221,0.131,-0.07428,-0.1191,-0.27858,-0.077203,-0.014191
1142,-0.010943,0.12548,-0.087922,-0.11618,-0.2893,-0.085648,-0.044398
1143,-0.028482,0.10469,-0.10416,-0.10774,-0.27436,-0.080776,-0.071032
1144,-0.042774,0.067336,-0.1217,-0.096042,-0.22759,-0.069733,-0.093769
1145,-0.04992,0.019589,-0.14184,-0.088572,-0.15548,-0.059014,-0.10709
1146,-0.048296,-0.041475,-0.1649,-0.093769,-0.07493,-0.055116,-0.11391
1147,-0.039851,-0.11553,-0.18666,-0.11358,0.0017248,-0.064861,-0.1191
1148,-0.034329,-0.2029,-0.2029,-0.14184,0.061165,-0.087922,-0.12495
1149,-0.039851,-0.28898,-0.2081,-0.17172,0.097543,-0.1204,-0.12755
1150,-0.052193,-0.35361,-0.19543,-0.19641,0.11671,-0.15613,-0.12852
1151,-0.06681,-0.38025,-0.16165,-0.20908,0.1297,-0.19154,-0.12722
1152,-0.073955,-0.36303,-0.11261,-0.20453,0.14464,-0.22532,-0.12722
1153,-0.069408,-0.30749,-0.060638,-0.18407,0.15893,-0.2513,-0.12592
1154,-0.054467,-0.23441,-0.014516,-0.14574,0.16608,-0.26851,-0.12138
1155,-0.035628,-0.1636,0.020888,-0.093119,0.16185,-0.27534,-0.11326
1156,-0.015815,-0.10091,0.042975,-0.026533,0.15471,-0.27566,-0.09929
1157,0.0014,-0.043423,0.060515,0.059541,0.15049,-0.27079,-0.078178
1158,0.01764,0.012443,0.080653,0.16608,0.14724,-0.26332,-0.04992
1159,0.035505,0.067336,0.10696,0.27749,0.14074,-0.25292,-0.022961
1160,0.05142,0.12807,0.13652,0.36713,0.11995,-0.24091,-0.0041217
1161,0.06084,0.20051,0.17127,0.40643,0.089748,-0.23149,0.0052977
1162,0.062464,0.28528,0.21252,0.38662,0.065387,-0.22467,0.0075714
1163,0.057267,0.36973,0.25248,0.32621,0.054019,-0.22044,0.0059473
1164,0.046873,0.43339,0.27229,0.25085,0.049796,-0.21232,0.0062721
1165,0.033556,0.4571,0.25475,0.1742,0.034855,-0.20128,0.012768
1166,0.016016,0.43047,0.19369,0.10306,-0.0047713,-0.19251,0.025111
1167,-0.0063954,0.35901,0.10079,0.03583,-0.073955,-0.18699,0.038753
1168,-0.029132,0.26417,0.00042559,-0.026533,-0.16165,-0.18699,0.048172
1169,-0.050569,0.169,-0.085324,-0.082076,-0.25325,-0.19154,0.051096
1170,-0.066485,0.091047,-0.14281,-0.12755,-0.33185,-0.2016,0.049796
1171,-0.073955,0.03583,-0.1688,-0.15483,-0.38252,-0.21622,0.046548
1172,-0.073955,0.00042559,-0.16977,-0.15126,-0.40201,-0.23084,0.047847
1173,-0.068109,-0.018413,-0.15646,-0.12527,-0.39616,-0.23863,0.056617
1174,-0.057715,-0.022961,-0.14087,-0.092145,-0.37635,-0.23051,0.071558
1175,-0.042774,-0.016464,-0.13047,-0.064211,-0.34809,-0.2029,0.087799
1176,-0.024585,-0.0031473,-0.12982,-0.042449,-0.31269,-0.15613,0.10274
1177,-0.007045,0.010819,-0.12787,-0.027508,-0.27371,-0.10319,0.10891
1178,0.0052977,0.01894,-0.11553,-0.027183,-0.24058,-0.05739,0.10436
1179,0.011469,0.022837,-0.089546,-0.047646,-0.21525,-0.028157,0.089748
1180,0.010495,0.023162,-0.054792,-0.083375,-0.19511,-0.014191,0.069934
1181,0.0075714,0.01894,-0.019712,-0.12625,-0.17984,-0.0080194,0.049472
1182,0.0049729,0.0088706,0.0065969,-0.1701,-0.17205,0.0014,0.026735
1183,0.0039985,-0.0057458,0.01764,-0.21037,-0.17302,0.018615,0.0010752
1184,0.0020496,-0.024585,0.015692,-0.24318,-0.17237,0.047523,-0.022636
1185,-0.0028225,-0.046022,0.003024,-0.26722,-0.15061,0.087474,-0.042774
1186,-0.0034721,-0.067459,-0.013216,-0.28476,-0.097666,0.12905,-0.052518
1187,-0.0011985,-0.0837,-0.023285,-0.29158,-0.014516,0.15926,-0.051868
1188,0.0062721,-0.093119,-0.02426,-0.27793,0.084226,0.17095,-0.043423
1189,0.015367,-0.09929,-0.016464,-0.24058,0.17192,0.16835,-0.028482
1190,0.019589,-0.10221,-0.0050961,-0.18504,0.22487,0.15666,-0.012892
1191,0.020888,-0.10156,0.0049729,-0.1243,0.23624,0.14204,-0.00022403
1192,0.022188,-0.097341,0.0088706,-0.065835,0.2083,0.12678,0.0085458
1193,0.024461,-0.09117,0.0056225,-0.015815,0.14984,0.10924,0.016341
1194,0.02641,-0.08305,-0.0041217,0.023812,0.078379,0.08585,0.024461
1195,0.023162,-0.075579,-0.018738,0.04395,0.0049729,0.047847,0.03583
1196,0.015367,-0.067134,-0.034978,0.042326,-0.059664,-0.01614,0.047847
1197,0.010495,-0.056741,-0.052843,0.022188,-0.10968,-0.10741,0.057267
1198,0.014392,-0.046996,-0.069408,-0.00087364,-0.13859,-0.20908,0.061165
1199,0.030308,-0.0405,-0.080451,-0.010943,-0.14606,-0.2958,0.062789
1200,0.053694,-0.034978,-0.086623,-0.0047713,-0.13437,-0.34842,0.06961
1201,0.081952,-0.030106,-0.092145,0.010495,-0.11488,-0.36498,0.078379
1202,0.10826,-0.026209,-0.098641,0.02641,-0.097666,-0.36433,0.082277
1203,0.1258,-0.02361,-0.10546,0.037454,-0.098641,-0.35946,0.081952
1204,0.13067,-0.023935,-0.10741,0.043625,-0.11683,-0.35361,0.082277
1205,0.1271,-0.024909,-0.10416,0.048497,-0.14346,-0.34225,0.085525
1206,0.1258,-0.027183,-0.094418,0.05207,-0.16653,-0.31236,0.087149
1207,0.12645,-0.03173,-0.079152,0.06019,-0.17952,-0.26104,0.086175
1208,0.12678,-0.037252,-0.055766,0.073507,-0.18179,-0.19186,0.084551
1209,0.12483,-0.04115,-0.028482,0.091047,-0.1753,-0.11391,0.081627
1210,0.11931,-0.039526,0.00075039,0.11378,-0.15776,-0.03238,0.076106
1211,0.10826,-0.024909,0.033881,0.13652,-0.12527,0.050121,0.064088
1212,0.092021,0.0043233,0.073507,0.15633,-0.076879,0.13295,0.047523
1213,0.075456,0.042975,0.12288,0.17095,-0.019388,0.21285,0.026085
1214,0.063113,0.083251,0.18037,0.18069,0.036154,0.29048,0.0010752
1215,0.053694,0.11476,0.24176,0.18362,0.073182,0.36746,-0.025559
1216,0.039727,0.13295,0.30152,0.18264,0.07773,0.44444,-0.050569
1217,0.022188,0.14139,0.34927,0.18004,0.047847,0.52272,-0.06681
1218,0.0043233,0.14464,0.37623,0.1755,-0.0076946,0.588,-0.06681
1219,-0.0076946,0.14367,0.37395,0.16673,-0.073306,0.62568,-0.050244
1220,-0.0076946,0.14139,0.34212,0.14854,-0.13469,0.63315,-0.023935
1221,0.0056225,0.13522,0.28333,0.1206,-0.17335,0.61788,0.00010078
1222,0.026085,0.12353,0.20928,0.088448,-0.17822,0.59482,0.013743
1223,0.044924,0.10761,0.13522,0.056617,-0.15126,0.57404,0.015692
1224,0.055643,0.090722,0.072858,0.022837,-0.099615,0.54935,0.012768
1225,0.055968,0.073832,0.02641,-0.01549,-0.032705,0.51752,0.016341
1226,0.047847,0.055968,-0.007045,-0.052843,0.045574,0.47594,0.029333
1227,0.033231,0.03453,-0.029132,-0.07428,0.13392,0.42527,0.047198
1228,0.017316,0.0088706,-0.046996,-0.069733,0.22194,0.37006,0.063438
1229,0.0085458,-0.017439,-0.068758,-0.041799,0.29178,0.31451,0.074157
1230,0.0059473,-0.038551,-0.10449,-0.010293,0.33043,0.26027,0.076431
1231,0.0069217,-0.053168,-0.15905,0.010819,0.3327,0.20408,0.06961
1232,0.0078962,-0.062912,-0.22986,0.022512,0.30574,0.14691,0.057267
1233,0.0059473,-0.068434,-0.30327,0.030633,0.26514,0.089423,0.045249
1234,-0.0028225,-0.070058,-0.36758,0.048497,0.22389,0.034855,0.033881
1235,-0.01484,-0.065186,-0.41208,0.07773,0.19076,-0.018738,0.026085
1236,-0.027183,-0.055116,-0.42897,0.10794,0.17225,-0.068434,0.017965
1237,-0.039526,-0.043423,-0.42052,0.12483,0.16283,-0.10871,0.0075714
1238,-0.048296,-0.033354,-0.39454,0.12743,0.15471,-0.13469,-0.008669
1239,-0.054467,-0.027833,-0.36109,0.12255,0.14139,-0.15029,-0.027183
1240,-0.054792,-0.030106,-0.32795,0.11541,0.12288,-0.15905,-0.040825
1241,-0.046347,-0.038551,-0.29288,0.10696,0.10469,-0.16263,-0.043423
1242,-0.029132,-0.045372,-0.25098,0.091696,0.090722,-0.16035,-0.034654
1243,-0.010943,-0.046996,-0.19543,0.073507,0.080003,-0.15516,-0.016464
1244,0.0026992,-0.039851,-0.12008,0.057917,0.06896,-0.14606,0.0046481
1245,0.01017,-0.023935,-0.019388,0.055318,0.053694,-0.13534,0.025761
1246,0.011794,-0.0034721,0.099167,0.067661,0.032906,-0.12463,0.042975
1247,0.0065969,0.018615,0.22357,0.090072,0.014068,-0.11748,0.053369
1248,-0.0041217,0.039402,0.33433,0.11248,0.0069217,-0.10968,0.057267
1249,-0.013541,0.056292,0.41196,0.12775,0.014068,-0.10156,0.056942
1250,-0.019063,0.06896,0.44606,0.12775,0.032582,-0.095068,0.056617
1251,-0.021012,0.083576,0.43339,0.11216,0.049147,-0.094418,0.055968
1252,-0.019712,0.10014,0.38337,0.082277,0.049147,-0.10189,0.054019
1253,-0.013216,0.11768,0.31549,0.044599,0.032257,-0.11813,0.050446
1254,-0.0054209,0.13132,0.24468,0.0065969,0.0078962,-0.13729,0.040377
1255,-0.0028225,0.13782,0.18232,-0.022636,-0.014191,-0.15353,0.024461
1256,-0.010293,0.13067,0.13457,-0.035303,-0.032055,-0.16068,0.0069217
1257,-0.024585,0.10761,0.10144,-0.03173,-0.047321,-0.15646,-0.0073698
1258,-0.039851,0.074482,0.07773,-0.015815,-0.056091,-0.14379,-0.021986
1259,-0.052518,0.042651,0.059541,0.0059473,-0.053492,-0.12885,-0.039851
1260,-0.062262,0.023812,0.045899,0.030308,-0.039851,-0.11813,-0.061937
1261,-0.06551,0.020239,0.040052,0.048822,-0.018413,-0.11066,-0.082076
1262,-0.063886,0.025761,0.044275,0.059216,0.008221,-0.096042,-0.094093
1263,-0.056416,0.028359,0.056292,0.065062,0.039078,-0.067459,-0.09182
1264,-0.046996,0.019264,0.066037,0.070259,0.075456,-0.027833,-0.077203
1265,-0.036278,0.003024,0.064737,0.066686,0.11378,0.012443,-0.059664
1266,-0.022311,-0.014191,0.05207,0.048172,0.14594,0.038753,-0.036278
1267,-0.010293,-0.029457,0.036804,0.015692,0.17127,0.04395,-0.012242
1268,-0.007045,-0.044723,0.025761,-0.019063,0.19953,0.028359,0.0039985
1269,-0.01549,-0.058689,0.019589,-0.044723,0.23006,-0.0021729,0.0056225
1270,-0.029132,-0.06681,0.019914,-0.055766,0.25345,-0.036278,-0.0076946
1271,-0.042449,-0.068434,0.024461,-0.053817,0.25378,-0.06616,-0.029457
1272,-0.053168,-0.063886,0.029658,-0.04115,0.22389,-0.0824,-0.053817
1273,-0.060313,-0.055766,0.030308,-0.018088,0.17062,-0.088247,-0.075255
1274,-0.059989,-0.042124,0.019914,0.012443,0.11118,-0.090521,-0.090521
1275,-0.052843,-0.023285,-0.00022403,0.037778,0.062139,-0.095068,-0.10254
1276,-0.041799,0.00042559,-0.024909,0.050771,0.033231,-0.10091,-0.11131
1277,-0.030756,0.028034,-0.044398,0.051096,0.014392,-0.10741,-0.11391
1278,-0.022311,0.055643,-0.051868,0.047847,-0.018738,-0.11391,-0.10871
1279,-0.01614,0.080978,-0.051219,0.045574,-0.080451,-0.12268,-0.09994
1280,-0.0089938,0.099817,-0.04992,0.04395,-0.16198,-0.13275,-0.092469
1281,0.0023744,0.10924,-0.04862,0.0433,-0.24253,-0.14119,-0.084999
1282,0.019589,0.10826,-0.045372,0.053369,-0.30977,-0.14346,-0.072006
1283,0.040702,0.10306,-0.038227,0.07708,-0.35686,-0.13534,-0.057065
1284,0.06019,0.095594,-0.02361,0.10924,-0.38155,-0.11456,-0.044073
1285,0.073507,0.087799,-0.0018481,0.14204,-0.38317,-0.081426,-0.034329
1286,0.07773,0.076106,0.022512,0.16153,-0.36791,-0.038227,-0.029782
1287,0.076431,0.064088,0.043625,0.15763,-0.34062,0.0056225,-0.025884
1288,0.078055,0.056617,0.062464,0.12905,-0.30847,0.038103,-0.016789
1289,0.084551,0.055318,0.079354,0.082602,-0.27956,0.05207,-0.0031473
1290,0.095919,0.055643,0.091696,0.022188,-0.24708,0.050771,0.011144
1291,0.10859,0.054019,0.10047,-0.045697,-0.19576,0.039078,0.023162
1292,0.11606,0.047847,0.10534,-0.11196,-0.11326,0.017965,0.031282
1293,0.11216,0.033231,0.11118,-0.15743,-0.015815,-0.0083442,0.032257
1294,0.098193,0.01017,0.11866,-0.1701,0.058566,-0.030106,0.022512
1295,0.080653,-0.015815,0.12807,-0.14541,0.081627,-0.045697,0.0014
1296,0.065712,-0.040825,0.13327,-0.091495,0.041351,-0.054792,-0.020687
1297,0.057592,-0.056741,0.13035,-0.025559,-0.051219,-0.055441,-0.034329
1298,0.055968,-0.062587,0.11151,0.032582,-0.1688,-0.048296,-0.032705
1299,0.059865,-0.065186,0.076755,0.072208,-0.28313,-0.037577,-0.020362
1300,0.066362,-0.071682,0.032906,0.090397,-0.36109,-0.02426,-0.0021729
1301,0.072533,-0.077853,-0.007045,0.093645,-0.35426,-0.0073698,0.01764
1302,0.074806,-0.076229,-0.03238,0.082277,-0.22174,0.017316,0.037129
1303,0.076755,-0.058689,-0.039851,0.059541,0.031282,0.047198,0.055643
1304,0.083901,-0.02361,-0.031406,0.034855,0.34894,0.079029,0.073832
1305,0.097868,0.011794,-0.015165,0.015692,0.64387,0.11118,0.092346
1306,0.11346,0.032582,-0.0011985,0.0039985,0.84168,0.14074,0.11216
1307,0.12905,0.039078,0.003024,-0.0024977,0.91768,0.1729,0.13035
1308,0.14237,0.04395,-0.0021729,-0.0021729,0.88715,0.20895,0.14464
1309,0.15309,0.064088,-0.008669,0.0052977,0.80725,0.24403,0.15698
1310,0.15633,0.10664,-0.0080194,0.019914,0.74034,0.27067,0.16413
1311,0.15114,0.15958,0.003024,0.042326,0.72605,0.28138,0.1625
1312,0.13425,0.2109,0.017965,0.06961,0.75398,0.27261,0.15276
1313,0.11183,0.2541,0.030957,0.091696,0.78484,0.24176,0.13847
1314,0.090072,0.28821,0.034206,0.10112,0.77184,0.19693,0.12093
1315,0.07708,0.30639,0.026085,0.10209,0.68415,0.15114,0.10501
1316,0.073507,0.30445,0.0088706,0.099492,0.51784,0.11216,0.094295
1317,0.075456,0.28236,-0.010618,0.096569,0.29925,0.08585,0.089098
1318,0.080978,0.24176,-0.025884,0.088448,0.06961,0.071883,0.090397
1319,0.089423,0.18654,-0.032055,0.074806,-0.13242,0.066362,0.095269
1320,0.099492,0.1284,-0.028807,0.055643,-0.28313,0.067661,0.099167
1321,0.10989,0.076431,-0.019388,0.032257,-0.37115,0.073507,0.10047
1322,0.11281,0.035505,-0.0057458,0.01017,-0.40461,0.079679,0.10047
1323,0.10631,0.0036737,0.0062721,-0.0080194,-0.39681,0.082277,0.10501
1324,0.09397,-0.017764,0.012119,-0.023935,-0.36271,0.079679,0.11963
1325,0.083251,-0.033354,0.012443,-0.036602,-0.31789,0.06961,0.14302
1326,0.079354,-0.043099,0.011469,-0.045697,-0.27696,0.054993,0.16965
1327,0.080978,-0.044723,0.011144,-0.051219,-0.2461,0.042001,0.18849
1328,0.08585,-0.034978,0.010819,-0.053168,-0.22109,0.034206,0.18849
1329,0.093321,-0.0099683,0.016666,-0.04992,-0.2016,0.028359,0.17322
1330,0.10436,0.028684,0.032582,-0.042124,-0.18991,0.01829,0.15731
1331,0.11931,0.073832,0.059865,-0.03173,-0.18829,0.0072465,0.15114
1332,0.1349,0.11541,0.097218,-0.022636,-0.19738,-0.0018481,0.15341
1333,0.14561,0.14691,0.13749,-0.015165,-0.21395,-0.0080194,0.16283
1334,0.14886,0.16803,0.16575,-0.012242,-0.23474,-0.008669,0.17062
1335,0.14172,0.18134,0.17225,-0.020687,-0.26007,-0.0015233,0.17355
1336,0.1284,0.18589,0.14951,-0.043423,-0.28443,0.01764,0.1742
1337,0.11118,0.18297,0.10339,-0.070058,-0.29417,0.044275,0.17387
1338,0.09397,0.17355,0.050121,-0.084024,-0.27956,0.067336,0.17387
1339,0.07773,0.15666,0.0020496,-0.072981,-0.24708,0.072858,0.17485
1340,0.062789,0.13879,-0.033679,-0.044073,-0.2081,0.057267,0.17387
1341,0.05142,0.12093,-0.055766,-0.018738,-0.17205,0.033556,0.16835
1342,0.041351,0.10566,-0.064861,-0.0083442,-0.13534,0.014717,0.15698
1343,0.031932,0.091372,-0.064861,-0.010618,-0.089221,0.010495,0.14172
1344,0.020888,0.07773,-0.064536,-0.019388,-0.034329,0.022188,0.12255
1345,0.012768,0.062464,-0.068758,-0.028157,0.020564,0.045574,0.098842
1346,0.0062721,0.044924,-0.07428,-0.032705,0.06961,0.075781,0.075131
1347,-0.0011985,0.025761,-0.075255,-0.035303,0.11248,0.10599,0.054993
1348,-0.0099683,0.0062721,-0.067459,-0.035628,0.14659,0.12775,0.039078
1349,-0.018413,-0.011592,-0.051868,-0.03238,0.16185,0.13684,0.026735
1350,-0.02426,-0.028157,-0.034329,-0.026209,0.15309,0.13392,0.014717
1351,-0.029132,-0.044073,-0.014516,-0.016789,0.11573,0.12353,0.0020496
1352,-0.034329,-0.056091,0.017316,-0.0011985,0.054668,0.11216,-0.0093186
1353,-0.039526,-0.060313,0.063113,0.025761,-0.015165,0.10599,-0.018088
1354,-0.041475,-0.051868,0.11995,0.063763,-0.078178,0.10404,-0.021986
1355,-0.036927,-0.033354,0.17874,0.11151,-0.1217,0.10306,-0.023285
1356,-0.026858,-0.017114,0.22812,0.15666,-0.13859,0.10339,-0.021986
1357,-0.018088,-0.012567,0.25897,0.19369,-0.13697,0.10209,-0.020362
1358,-0.015815,-0.018413,0.26807,0.21545,-0.13404,0.094295,-0.017114
1359,-0.023285,-0.030756,0.2554,0.21545,-0.14704,0.079354,-0.012892
1360,-0.037902,-0.045047,0.22227,0.18557,-0.18439,0.058241,-0.010943
1361,-0.053168,-0.055766,0.17322,0.131,-0.24253,0.028684,-0.010943
1362,-0.06551,-0.059664,0.11898,0.063763,-0.30165,-0.013541,-0.011267
1363,-0.073306,-0.053817,0.072858,0.0056225,-0.34257,-0.073306,-0.011592
1364,-0.077853,-0.043099,0.042326,-0.023935,-0.34972,-0.14671,-0.013216
1365,-0.079802,-0.035303,0.02706,-0.015165,-0.32536,-0.22597,-0.021986
1366,-0.077853,-0.034654,0.016666,0.019264,-0.28248,-0.30327,-0.042774
1367,-0.076554,-0.041799,0.0043233,0.059216,-0.23961,-0.37245,-0.073631
1368,-0.08305,-0.04992,-0.016789,0.088773,-0.21557,-0.42929,-0.11163
1369,-0.09994,-0.055116,-0.049595,0.10242,-0.21655,-0.46795,-0.15483
1370,-0.1204,-0.056091,-0.090521,0.10242,-0.23214,-0.48419,-0.19868
1371,-0.13469,-0.052843,-0.13047,0.10209,-0.24708,-0.47834,-0.23733
1372,-0.13957,-0.047321,-0.15418,0.10501,-0.2474,-0.45625,-0.26559
1373,-0.13924,-0.042449,-0.15483,0.10242,-0.21492,-0.42052,-0.28086
1374,-0.13599,-0.03238,-0.1295,0.084551,-0.13989,-0.37668,-0.27793
1375,-0.13275,-0.021661,-0.080451,0.058891,-0.021661,-0.33575,-0.26592
1376,-0.13145,-0.013541,-0.01614,0.037454,0.131,-0.31886,-0.25877
1377,-0.12982,-0.010618,0.046548,0.020564,0.29113,-0.33543,-0.26429
1378,-0.12755,-0.01614,0.092021,-0.0057458,0.42365,-0.37505,-0.27728
1379,-0.12527,-0.029132,0.10956,-0.053168,0.50388,-0.40981,-0.28313
1380,-0.1243,-0.044398,0.091047,-0.11683,0.52791,-0.41793,-0.27144
1381,-0.12203,-0.060638,0.039727,-0.17952,0.51037,-0.39454,-0.24513
1382,-0.11748,-0.073306,-0.026209,-0.22109,0.47107,-0.34225,-0.20972
1383,-0.11228,-0.076554,-0.086948,-0.23538,0.43502,-0.26559,-0.16815
1384,-0.10774,-0.071357,-0.12527,-0.22467,0.4178,-0.1662,-0.12657
1385,-0.10676,-0.061937,-0.13632,-0.19738,0.42722,-0.052843,-0.088572
1386,-0.11001,-0.052843,-0.12268,-0.16815,0.45191,0.066686,-0.057065
1387,-0.11521,-0.047321,-0.098316,-0.14996,0.4662,0.18004,-0.036927
1388,-0.11845,-0.04992,-0.081101,-0.14704,0.45126,0.28041,-0.027508
1389,-0.11845,-0.064211,-0.076229,-0.14996,0.40449,0.36291,-0.022961
1390,-0.11358,-0.079802,-0.0824,-0.14184,0.34342,0.42885,-0.019063
1391,-0.10579,-0.087272,-0.093119,-0.10481,0.28885,0.48212,-0.015815
1392,-0.097017,-0.082076,-0.098316,-0.029782,0.25378,0.52921,-0.0080194
1393,-0.083375,-0.06681,-0.091495,0.081627,0.24403,0.57663,0.0059473
1394,-0.065835,-0.047971,-0.07428,0.21577,0.24988,0.6325,0.02641
1395,-0.04927,-0.032705,-0.057715,0.34115,0.25248,0.69779,0.047523
1396,-0.036278,-0.02361,-0.051219,0.41845,0.23851,0.76989,0.064413
1397,-0.024909,-0.018088,-0.062587,0.4243,0.20051,0.83388,0.074806
1398,-0.011267,-0.0096434,-0.088896,0.36453,0.13944,0.86864,0.082277
1399,0.011469,0.0023744,-0.1243,0.27099,0.057917,0.86117,0.090397
1400,0.042975,0.014392,-0.16393,0.1755,-0.030106,0.81212,0.10501
1401,0.080003,0.023812,-0.20031,0.097868,-0.10871,0.74001,0.12515
1402,0.11638,0.032906,-0.23344,0.042651,-0.16815,0.66336,0.14594
1403,0.14172,0.040377,-0.26267,0.0023744,-0.2068,0.58963,0.16218
1404,0.15244,0.042326,-0.28573,-0.028157,-0.22467,0.5094,0.17127
1405,0.15373,0.037454,-0.29353,-0.049595,-0.22629,0.40773,0.1716
1406,0.14854,0.026735,-0.27469,-0.058689,-0.2172,0.28268,0.16835
1407,0.13749,0.013418,-0.22304,-0.05804,-0.20485,0.14561,0.16088
1408,0.12418,0.0049729,-0.14216,-0.050894,-0.19998,0.015367,0.14789
1409,0.11378,0.0036737,-0.043748,-0.043423,-0.2094,-0.090521,0.13165
1410,0.10469,0.0078962,0.052395,-0.035303,-0.23311,-0.16685,0.11443
1411,0.096244,0.020564,0.1297,-0.026533,-0.26039,-0.21655,0.098193
1412,0.091047,0.042326,0.17745,-0.012242,-0.26916,-0.24675,0.086824
1413,0.087799,0.067661,0.19499,0.011794,-0.24903,-0.26104,0.080653
1414,0.092346,0.09397,0.19076,0.045249,-0.2016,-0.26397,0.077405
1415,0.10371,0.11736,0.17452,0.079679,-0.14444,-0.26202,0.06896
1416,0.11866,0.13197,0.15536,0.10339,-0.097991,-0.26364,0.054993
1417,0.13067,0.1284,0.14074,0.11216,-0.079152,-0.27144,0.034206
1418,0.13879,0.10501,0.13684,0.10534,-0.085648,-0.28216,0.013743
1419,0.14464,0.066362,0.14464,0.0865,-0.10449,-0.28833,0.0036737
1420,0.14854,0.026085,0.16023,0.072858,-0.12365,-0.28638,0.009845
1421,0.15146,-0.0021729,0.1768,0.074806,-0.13534,-0.27469,0.024461
1422,0.15114,-0.0034721,0.19109,0.090072,-0.14476,-0.2578,0.039727
1423,0.14789,0.021863,0.20148,0.10436,-0.16133,-0.24415,0.044275
1424,0.14107,0.062789,0.20246,0.10989,-0.19641,-0.23474,0.038103
1425,0.12807,0.10209,0.19596,0.10599,-0.2513,-0.22856,0.024137
1426,0.10891,0.1297,0.18979,0.098517,-0.31301,-0.22661,0.01017
1427,0.087474,0.14042,0.19239,0.092996,-0.36433,-0.22824,-0.0050961
1428,0.065712,0.13782,0.21188,0.091047,-0.39876,-0.22791,-0.021337
1429,0.042326,0.12483,0.24533,0.089098,-0.41046,-0.22597,-0.035953
1430,0.016341,0.10859,0.27944,0.084226,-0.39487,-0.22142,-0.046671
1431,-0.010618,0.09462,0.30672,0.082927,-0.35134,-0.21525,-0.050569
1432,-0.031406,0.088124,0.32523,0.092021,-0.28865,-0.21102,-0.04992
1433,-0.039201,0.092996,0.33075,0.11054,-0.21362,-0.2107,-0.042774
1434,-0.03238,0.10566,0.32296,0.12678,-0.13827,-0.21525,-0.035953
1435,-0.019388,0.11866,0.29762,0.13262,-0.072006,-0.22207,-0.030106
1436,-0.010943,0.12418,0.25605,0.12288,-0.015165,-0.22921,-0.027833
1437,-0.013541,0.11151,0.20051,0.090072,0.041351,-0.23181,-0.025559
1438,-0.029132,0.083251,0.13717,0.031932,0.10274,-0.22694,-0.021986
1439,-0.053817,0.048172,0.071883,-0.046671,0.16998,-0.21005,-0.021986
1440,-0.081751,0.012443,0.01017,-0.13242,0.24241,-0.17854,-0.026858
1441,-0.10741,-0.015815,-0.042124,-0.20908,0.33075,-0.13469,-0.031081
1442,-0.12625,-0.035628,-0.079477,-0.26494,0.44054,-0.081751,-0.026858
1443,-0.13697,-0.047971,-0.10221,-0.30067,0.56104,-0.026533,-0.011592
1444,-0.13827,-0.052518,-0.11553,-0.32178,0.66271,0.018615,0.009845
1445,-0.1334,-0.051544,-0.1217,-0.32341,0.70818,0.044924,0.027709
1446,-0.1243,-0.045697,-0.12073,-0.30132,0.6757,0.049796,0.038428
1447,-0.11293,-0.037577,-0.1178,-0.25682,0.56754,0.032906,0.040702
1448,-0.10221,-0.03173,-0.11878,-0.19413,0.41098,0.00010078,0.037129
1449,-0.091495,-0.03238,-0.11943,-0.1256,0.24371,-0.034004,0.029333
1450,-0.0837,-0.037252,-0.11618,-0.059989,0.10177,-0.061613,0.015042
1451,-0.078827,-0.042449,-0.10774,-0.0044465,0.0072465,-0.073631,-0.0057458
1452,-0.072656,-0.047646,-0.094093,0.038753,-0.037252,-0.070707,-0.030431
1453,-0.059989,-0.050244,-0.083375,0.064737,-0.042124,-0.061613,-0.055441
1454,-0.043423,-0.050244,-0.077528,0.066686,-0.027508,-0.055116,-0.078827
1455,-0.026533,-0.047321,-0.074605,0.046548,-0.013541,-0.052843,-0.10026
1456,-0.011267,-0.044398,-0.072656,0.019264,-0.014191,-0.055441,-0.11975
1457,0.0010752,-0.046671,-0.077203,-0.0037969,-0.033679,-0.059014,-0.13242
1458,0.0091954,-0.052843,-0.084349,-0.021661,-0.06551,-0.059014,-0.13762
1459,0.011144,-0.059664,-0.094418,-0.034004,-0.096042,-0.053492,-0.13275
1460,0.009845,-0.062262,-0.10416,-0.042124,-0.11748,-0.044723,-0.12203
1461,0.008221,-0.059989,-0.10838,-0.04927,-0.1217,-0.037252,-0.10254
1462,0.013743,-0.054142,-0.10774,-0.05804,-0.11261,-0.033679,-0.076229
1463,0.02641,-0.04862,-0.10319,-0.06551,-0.09994,-0.034978,-0.04992
1464,0.042975,-0.044398,-0.098965,-0.067134,-0.092145,-0.038551,-0.03238
1465,0.061489,-0.0405,-0.097017,-0.061288,-0.084349,-0.043099,-0.023935
1466,0.07708,-0.034329,-0.096042,-0.04992,-0.067134,-0.046996,-0.013541
1467,0.088448,-0.028157,-0.096692,-0.043099,-0.027833,-0.046022,0.0039985
1468,0.095919,-0.028157,-0.10254,-0.043423,0.03518,-0.036602,0.031282
1469,0.10209,-0.043423,-0.11293,-0.0405,0.11086,-0.018413,0.059865
1470,0.10729,-0.075579,-0.12755,-0.031081,0.18069,0.003024,0.084551
1471,0.10859,-0.11521,-0.14379,-0.020037,0.23039,0.021213,0.10079
1472,0.10306,-0.15126,-0.15548,-0.0099683,0.25605,0.032906,0.10729
1473,0.092671,-0.17075,-0.15841,0.0020496,0.25865,0.036154,0.10729
1474,0.082602,-0.17335,-0.15353,0.020239,0.23396,0.029658,0.10404
1475,0.080653,-0.16393,-0.15029,0.041027,0.18264,0.013418,0.10371
1476,0.087474,-0.14541,-0.14931,0.06019,0.11573,-0.0089938,0.10826
1477,0.10047,-0.12073,-0.14899,0.078055,0.04395,-0.035628,0.11508
1478,0.11248,-0.094743,-0.14411,0.092671,-0.021986,-0.064861,0.11703
1479,0.11898,-0.067784,-0.1321,0.10242,-0.07493,-0.092145,0.11313
1480,0.11736,-0.033354,-0.11488,0.10924,-0.10676,-0.11196,0.10436
1481,0.10599,0.012443,-0.096367,0.11671,-0.11618,-0.11488,0.097218
1482,0.088124,0.072533,-0.073306,0.12483,-0.11521,-0.098316,0.097543
1483,0.072858,0.14626,-0.037252,0.1323,-0.11553,-0.067134,0.10729
1484,0.066037,0.23234,0.013093,0.13782,-0.12235,-0.033679,0.12353
1485,0.067011,0.31906,0.069934,0.14172,-0.13567,-0.0080194,0.14237
1486,0.068635,0.39052,0.11866,0.14561,-0.15711,0.0020496,0.15828
1487,0.062464,0.42852,0.14724,0.14659,-0.18666,-0.0050961,0.16673
1488,0.044924,0.42657,0.15341,0.14496,-0.22856,-0.028482,0.16445
1489,0.022188,0.38792,0.14074,0.14302,-0.27956,-0.064861,0.15341
1490,0.0026992,0.32686,0.12028,0.14334,-0.33835,-0.10676,0.13684
1491,-0.0089938,0.25897,0.097543,0.14496,-0.39292,-0.14541,0.11833
1492,-0.010618,0.19888,0.079354,0.14984,-0.42507,-0.16815,0.099492
1493,-0.0021729,0.15991,0.070909,0.16478,-0.41305,-0.16685,0.0852
1494,0.012443,0.14139,0.074806,0.19369,-0.3416,-0.13404,0.074806
1495,0.029983,0.1297,0.093645,0.23461,-0.20518,-0.067459,0.067661
1496,0.045249,0.11281,0.11898,0.27749,-0.019063,0.024137,0.061814
1497,0.053694,0.083901,0.14626,0.31192,0.18427,0.12093,0.058566
1498,0.051745,0.045249,0.1638,0.3314,0.36259,0.2083,0.06084
1499,0.039402,0.0010752,0.16153,0.33595,0.48147,0.27911,0.06896
1500,0.022512,-0.042449,0.13814,0.32881,0.52272,0.33335,0.076106
1501,0.003024,-0.079802,0.096893,0.31354,0.49251,0.37201,0.076106
1502,-0.015815,-0.10449,0.045249,0.296,0.40806,0.38825,0.060515
1503,-0.032705,-0.11196,-0.008669,0.27781,0.29015,0.3772,0.027709
1504,-0.046347,-0.10156,-0.057065,0.24988,0.15601,0.34245,-0.014516
1505,-0.052518,-0.075579,-0.095068,0.21025,0.028034,0.29697,-0.051868
1506,-0.053492,-0.043099,-0.11423,0.1664,-0.072656,0.26709,-0.070707
1507,-0.054467,-0.015165,-0.11228,0.12807,-0.12333,0.27619,-0.067784
1508,-0.057715,0.00042559,-0.095393,0.10371,-0.11748,0.32653,-0.045697
1509,-0.05804,0.0056225,-0.071032,0.093645,-0.060313,0.40156,-0.013541
1510,-0.052193,0.0033489,-0.041475,0.088448,0.033881,0.47724,0.021213
1511,-0.038227,-0.0011985,-0.0067202,0.084551,0.15926,0.54026,0.05142
1512,-0.019712,-0.0024977,0.034855,0.087474,0.31224,0.58768,0.072208
1513,-0.00022403,0.0039985,0.092021,0.10274,0.47854,0.61464,0.085525
1514,0.016341,0.019264,0.16998,0.12125,0.62146,0.61756,0.094295
1515,0.022512,0.034855,0.25475,0.11931,0.68674,0.5932,0.096569
1516,0.01829,0.042975,0.32686,0.076106,0.64484,0.54318,0.0865
1517,0.0095202,0.041676,0.37655,-0.0031473,0.5133,0.47497,0.064737
1518,0.0026992,0.032257,0.40416,-0.089871,0.33595,0.40026,0.039078
1519,0.0046481,0.021863,0.41423,-0.14996,0.16315,0.32978,0.021538
1520,0.015692,0.015367,0.40903,-0.16977,0.031282,0.27261,0.012768
1521,0.032257,0.012443,0.39214,-0.1649,-0.041475,0.23526,0.013418
1522,0.054019,0.012119,0.37168,-0.15288,-0.054792,0.21545,0.021213
1523,0.078055,0.009845,0.34732,-0.14834,-0.03238,0.20343,0.027709
1524,0.10014,0.008221,0.31581,-0.15223,0.00042559,0.19044,0.029333
1525,0.11573,0.0075714,0.28171,-0.15418,0.021213,0.1703,0.027385
1526,0.12353,0.0033489,0.24695,-0.14216,0.013743,0.13522,0.024137
1527,0.12353,-0.0057458,0.21415,-0.11423,-0.030756,0.083251,0.01894
1528,0.11508,-0.01484,0.18264,-0.075579,-0.12105,0.01764,0.016341
1529,0.10339,-0.014191,0.14984,-0.033354,-0.2565,-0.056741,0.017965
1530,0.094945,0.0010752,0.11736,0.0065969,-0.42085,-0.12917,0.021538
1531,0.092671,0.030308,0.092996,0.039078,-0.57871,-0.18699,0.022837
1532,0.097543,0.066362,0.077405,0.058241,-0.68557,-0.22207,0.023812
1533,0.10631,0.10306,0.067986,0.061165,-0.70928,-0.22954,0.029333
1534,0.11801,0.13522,0.062139,0.049796,-0.64757,-0.21265,0.041676
1535,0.1297,0.15276,0.053044,0.030308,-0.53356,-0.18439,0.058566
1536,0.13652,0.15666,0.031932,0.009845,-0.41403,-0.15743,0.073507
1537,0.13782,0.15016,-0.0063954,-0.011917,-0.32536,-0.13957,0.082927
1538,0.13197,0.1362,-0.056416,-0.040175,-0.27144,-0.12982,0.083901
1539,0.11671,0.11801,-0.10806,-0.080776,-0.22726,-0.12463,0.072533
1540,0.09397,0.097868,-0.15191,-0.13632,-0.16458,-0.12495,0.047523
1541,0.069285,0.079029,-0.18017,-0.20063,-0.081426,-0.13242,0.010819
1542,0.046873,0.06019,-0.19283,-0.25975,-0.0041217,-0.14606,-0.025234
1543,0.029333,0.042326,-0.19543,-0.29905,0.038103,-0.16068,-0.051544
1544,0.017965,0.028034,-0.19641,-0.30424,0.029333,-0.1714,-0.062262
1545,0.0088706,0.017316,-0.19868,-0.27111,-0.019063,-0.17107,-0.059014
1546,0.003024,0.010495,-0.2042,-0.20388,-0.075255,-0.1623,-0.048296
1547,-0.0034721,0.0059473,-0.21005,-0.11066,-0.10449,-0.15029,-0.035953
1548,-0.014191,0.0010752,-0.21102,0.00042559,-0.089221,-0.14249,-0.027833
1549,-0.029457,-0.0054209,-0.20258,0.11768,-0.045697,-0.14119,-0.026858
1550,-0.044398,-0.018413,-0.18699,0.21675,-0.0041217,-0.14671,-0.031081
1551,-0.059339,-0.036927,-0.17659,0.26774,0.0059473,-0.15776,-0.035303
1552,-0.070382,-0.057065,-0.17822,0.2541,-0.016464,-0.16912,-0.034329
1553,-0.076554,-0.072331,-0.19251,0.18427,-0.053168,-0.18017,-0.026209
1554,-0.080451,-0.077528,-0.2133,0.087474,-0.086948,-0.18926,-0.013216
1555,-0.087922,-0.073631,-0.23149,-0.0034721,-0.10774,-0.19641,-0.00087364
1556,-0.098641,-0.058689,-0.24156,-0.067459,-0.11358,-0.20388,0.0052977
1557,-0.10416,-0.033354,-0.23863,-0.092794,-0.11228,-0.21232,-0.0011985
1558,-0.096042,-0.0047713,-0.22044,-0.081101,-0.11553,-0.21947,-0.019712
1559,-0.07428,0.01829,-0.18796,-0.050569,-0.1256,-0.22467,-0.038227
1560,-0.046022,0.036154,-0.14541,-0.024585,-0.14801,-0.22272,-0.044723
1561,-0.017439,0.049147,-0.095717,-0.012567,-0.1753,-0.21167,-0.036927
1562,0.0026992,0.057267,-0.043423,-0.0083442,-0.18796,-0.19381,-0.021012
1563,0.013418,0.065062,0.0052977,-0.0083442,-0.16295,-0.17107,-0.0044465
1564,0.016016,0.075456,0.045249,-0.014191,-0.09182,-0.14639,0.009845
1565,0.01764,0.088448,0.072533,-0.025559,0.0078962,-0.12495,0.01764
1566,0.024786,0.10599,0.0865,-0.044723,0.11086,-0.10644,0.01829
1567,0.040052,0.12775,0.087474,-0.071032,0.20603,-0.089221,0.010495
1568,0.059865,0.14237,0.078704,-0.10481,0.29308,-0.072331,-0.0060706
1569,0.074806,0.12807,0.063113,-0.14119,0.37265,-0.052518,-0.02426
1570,0.076106,0.078055,0.046548,-0.16653,0.44866,-0.037252,-0.039201
1571,0.06896,0.0078962,0.03518,-0.16555,0.52499,-0.029457,-0.04927
1572,0.056292,-0.05804,0.031282,-0.1295,0.59287,-0.028807,-0.054467
1573,0.042975,-0.097991,0.03453,-0.063886,0.63185,-0.03238,-0.054792
1574,0.031282,-0.10676,0.042651,0.013418,0.62178,-0.0405,-0.050244
1575,0.021213,-0.088572,0.050771,0.082927,0.56299,-0.052518,-0.0405
1576,0.014068,-0.052518,0.056617,0.12483,0.46782,-0.065186,-0.026858
1577,0.0078962,-0.0021729,0.063763,0.13262,0.35544,-0.07428,-0.015165
1578,0.0017248,0.055318,0.070584,0.11541,0.24176,-0.088572,-0.0060706
1579,-0.0037969,0.10761,0.073832,0.086824,0.13944,-0.123,0.0036737
1580,-0.0080194,0.14464,0.072858,0.050121,0.058891,-0.19608,0.011144
1581,-0.010943,0.15568,0.067661,0.011144,0.0062721,-0.30197,0.016991
1582,-0.010618,0.14269,0.063113,-0.020687,-0.017439,-0.41111,0.025436
1583,-0.0041217,0.11898,0.06831,-0.042774,-0.017114,-0.48776,0.039078
1584,0.012119,0.095594,0.086175,-0.053817,-0.0034721,-0.5105,0.056292
1585,0.037129,0.07773,0.10826,-0.04992,0.0078962,-0.47834,0.076431
1586,0.063763,0.062139,0.12158,-0.03173,0.00042559,-0.40396,0.094295
1587,0.082602,0.042001,0.11866,-0.0080194,-0.036927,-0.30684,0.10469
1588,0.092346,0.014392,0.10274,0.01829,-0.10189,-0.20388,0.10566
1589,0.094945,-0.018413,0.084876,0.048497,-0.17919,-0.10514,0.10144
1590,0.090397,-0.04927,0.070584,0.080653,-0.24221,-0.015815,0.097543
1591,0.081303,-0.073631,0.062464,0.10696,-0.27079,0.064413,0.096893
1592,0.070909,-0.089546,0.062789,0.11931,-0.2526,0.14367,0.098193
1593,0.062464,-0.092794,0.072858,0.12483,-0.19836,0.22389,0.099492
1594,0.056942,-0.079152,0.08585,0.13555,-0.1334,0.3051,0.10014
1595,0.054668,-0.050569,0.10047,0.14919,-0.077528,0.38402,0.098842
1596,0.054019,-0.010618,0.11963,0.15114,-0.043099,0.46328,0.098193
1597,0.055643,0.036479,0.14464,0.13652,-0.034329,0.54903,0.10339
1598,0.065387,0.082927,0.16998,0.11443,-0.045697,0.64419,0.11346
1599,0.081952,0.11995,0.18849,0.099492,-0.067134,0.74099,0.1232
1600,0.10371,0.14496,0.19499,0.10306,-0.086623,0.82349,0.12905
1601,0.12093,0.16023,0.18264,0.12872,-0.09182,0.87383,0.12645
1602,0.1245,0.16835,0.15568,0.17355,-0.079802,0.86929,0.11313
1603,0.11346,0.16803,0.11606,0.21707,-0.05804,0.8014,0.089748
1604,0.10047,0.15601,0.072858,0.23656,-0.035953,0.68122,0.06084
1605,0.091372,0.13197,0.031282,0.22162,-0.022311,0.53473,0.033231
1606,0.086824,0.096569,-0.0093186,0.17939,-0.018413,0.39214,0.010495
1607,0.080978,0.058891,-0.046671,0.13197,-0.018738,0.27391,-0.0073698
1608,0.069934,0.02641,-0.0824,0.093321,-0.019712,0.19109,-0.018738
1609,0.056292,0.0014,-0.11066,0.064088,-0.020362,0.13977,-0.024909
1610,0.046548,-0.012892,-0.1243,0.042651,-0.021661,0.10696,-0.026858
1611,0.045574,-0.015165,-0.12203,0.024137,-0.029132,0.080978,-0.023285
1612,0.049472,-0.0093186,-0.10806,0.0056225,-0.041475,0.051096,-0.016464
1613,0.047847,0.0020496,-0.090521,-0.012567,-0.050569,0.011144,-0.010293
1614,0.038753,0.010495,-0.073631,-0.033354,-0.034004,-0.034978,-0.0096434
1615,0.024137,0.016666,-0.061937,-0.050244,0.022188,-0.077528,-0.011917
1616,0.012119,0.022837,-0.055766,-0.057715,0.11443,-0.10806,-0.010943
1617,0.0052977,0.031932,-0.050244,-0.055441,0.21772,-0.12755,-0.0073698
1618,-0.0024977,0.041027,-0.044073,-0.04862,0.296,-0.13892,-0.0031473
1619,-0.012242,0.0433,-0.037902,-0.039526,0.33011,-0.14152,-0.0021729
1620,-0.023285,0.039402,-0.032705,-0.026209,0.32751,-0.13404,-0.0018481
1621,-0.035303,0.033556,-0.029457,-0.01484,0.31386,-0.12008,-0.0024977
1622,-0.04115,0.029333,-0.026533,-0.0099683,0.31159,-0.10546,0.00042559
1623,-0.044073,0.028034,-0.015815,-0.0080194,0.32523,-0.096692,0.0062721
1624,-0.050569,0.028684,0.013418,-0.0037969,0.33887,-0.094743,0.01017
1625,-0.061288,0.029009,0.06019,0.0078962,0.34115,-0.10026,0.008221
1626,-0.068758,0.027385,0.11054,0.022837,0.32881,-0.11196,0.00010078
1627,-0.071357,0.025436,0.14367,0.038428,0.30964,-0.12527,-0.011592
1628,-0.071682,0.022512,0.14432,0.045249,0.29308,-0.13697,-0.024585
1629,-0.073955,0.017316,0.11378,0.037129,0.27944,-0.14314,-0.040175
1630,-0.079802,0.011794,0.061165,0.016341,0.26352,-0.14574,-0.057065
1631,-0.084999,0.0085458,0.0026992,-0.013216,0.23754,-0.14379,-0.072981
1632,-0.09117,0.01017,-0.045372,-0.043099,0.19791,-0.14444,-0.084349
1633,-0.098316,0.016341,-0.066485,-0.06616,0.14789,-0.14769,-0.09182
1634,-0.10806,0.021213,-0.059989,-0.082076,0.092021,-0.15321,-0.095068
1635,-0.11651,0.01894,-0.038227,-0.095393,0.038103,-0.16295,-0.092794
1636,-0.12105,0.0072465,-0.017439,-0.10481,-0.0076946,-0.17887,-0.09117
1637,-0.11878,-0.010293,-0.0073698,-0.10221,-0.046022,-0.19543,-0.091495
1638,-0.11521,-0.028482,-0.012567,-0.086623,-0.084999,-0.20972,-0.090521
1639,-0.11228,-0.044398,-0.03238,-0.062587,-0.12722,-0.21687,-0.085973
1640,-0.10871,-0.05739,-0.063237,-0.039201,-0.16718,-0.2172,-0.079802
1641,-0.10189,-0.06551,-0.094093,-0.026209,-0.19413,-0.21135,-0.072006
1642,-0.090196,-0.072656,-0.11813,-0.030106,-0.19933,-0.19998,-0.067459
1643,-0.081751,-0.080451,-0.13469,-0.048296,-0.17724,-0.17952,-0.063237
1644,-0.081751,-0.090521,-0.14379,-0.075904,-0.12268,-0.14606,-0.056741
1645,-0.088572,-0.10091,-0.14704,-0.10644,-0.035953,-0.097341,-0.04862
1646,-0.097017,-0.10903,-0.14444,-0.12917,0.072858,-0.042124,-0.042774
1647,-0.10384,-0.11098,-0.13664,-0.14022,0.17452,0.010819,-0.038227
1648,-0.10611,-0.10838,-0.12268,-0.13859,0.24371,0.046873,-0.034978
1649,-0.10221,-0.10449,-0.10254,-0.1269,0.26157,0.059865,-0.033354
1650,-0.09182,-0.096367,-0.077528,-0.10968,0.22422,0.048172,-0.030756
1651,-0.072656,-0.082076,-0.050244,-0.091495,0.14139,0.020564,-0.027833
1652,-0.048296,-0.063561,-0.021012,-0.070707,0.031932,-0.011267,-0.022311
1653,-0.024585,-0.044398,0.0072465,-0.046022,-0.076554,-0.037252,-0.012892
1654,-0.0067202,-0.026533,0.037454,-0.019712,-0.16523,-0.051868,-0.00054884
1655,0.0046481,-0.014191,0.067011,0.0059473,-0.22694,-0.059014,0.013093
1656,0.015367,-0.0076946,0.088773,0.025436,-0.26234,-0.061937,0.028359
1657,0.025111,-0.0073698,0.10242,0.0433,-0.27761,-0.065835,0.042001
1658,0.036479,-0.013866,0.10371,0.072858,-0.28411,-0.071357,0.048497
1659,0.050121,-0.020037,0.095919,0.12905,-0.29125,-0.075255,0.050446
1660,0.062139,-0.021986,0.082602,0.20765,-0.30717,-0.075255,0.05142
1661,0.065712,-0.021661,0.065712,0.28463,-0.33705,-0.070058,0.054668
1662,0.061814,-0.018738,0.045249,0.32816,-0.3822,-0.060313,0.06084
1663,0.054019,-0.01614,0.01764,0.32004,-0.44456,-0.051219,0.067986
1664,0.046548,-0.014191,-0.012892,0.27067,-0.52024,-0.044398,0.073832
1665,0.043625,-0.013866,-0.039526,0.20116,-0.60404,-0.044073,0.079029
1666,0.04395,-0.013541,-0.052193,0.13392,-0.67972,-0.045697,0.084551
1667,0.049147,-0.011592,-0.043423,0.087474,-0.72422,-0.047646,0.090722
1668,0.059865,-0.0067202,-0.01484,0.067661,-0.72487,-0.044723,0.097868
1669,0.071883,0.0046481,0.024461,0.066362,-0.68297,-0.042449,0.10177
1670,0.080328,0.01829,0.065062,0.071234,-0.60826,-0.044073,0.096569
1671,0.083576,0.030633,0.10047,0.072208,-0.51439,-0.051219,0.083901
1672,0.080978,0.041351,0.13067,0.06896,-0.41793,-0.060638,0.066686
1673,0.079679,0.047847,0.16088,0.064737,-0.32243,-0.068434,0.047198
1674,0.082277,0.047198,0.19109,0.066362,-0.22304,-0.068434,0.029009
1675,0.091372,0.037778,0.21902,0.072533,-0.12138,-0.061937,0.013093
1676,0.10144,0.024137,0.23818,0.076755,-0.024585,-0.04927,0.0043233
1677,0.10664,0.013743,0.2476,0.071558,0.059216,-0.034329,0.0056225
1678,0.10631,0.010495,0.2476,0.06019,0.12678,-0.020037,0.012768
1679,0.10177,0.016666,0.24078,0.05272,0.17972,-0.0073698,0.019264
1680,0.096569,0.029658,0.23299,0.056292,0.22,0.0075714,0.024461
1681,0.091047,0.050121,0.22649,0.069285,0.2541,0.030957,0.028034
1682,0.084876,0.075456,0.22032,0.085525,0.28853,0.058241,0.030308
1683,0.075456,0.099492,0.2122,0.099817,0.32946,0.084876,0.031932
1684,0.059216,0.11313,0.19791,0.10729,0.37883,0.10794,0.030633
1685,0.036804,0.11573,0.17387,0.10404,0.43242,0.12158,0.023487
1686,0.011794,0.10859,0.13879,0.089423,0.48341,0.12158,0.0085458
1687,-0.010943,0.09397,0.092346,0.070909,0.52694,0.11021,-0.0076946
1688,-0.029782,0.07773,0.042326,0.057267,0.54935,0.096244,-0.020037
1689,-0.043099,0.061489,-0.0037969,0.053694,0.53733,0.090072,-0.034329
1690,-0.049595,0.047198,-0.046022,0.057917,0.48894,0.097218,-0.052843
1691,-0.050569,0.032906,-0.085973,0.06019,0.4178,0.12028,-0.068109
1692,-0.052518,0.01829,-0.12527,0.054344,0.35122,0.15568,-0.077203
1693,-0.053168,0.0036737,-0.16263,0.044275,0.31614,0.20181,-0.081426
1694,-0.053817,-0.0093186,-0.19446,0.039727,0.31906,0.2515,-0.08305
1695,-0.055766,-0.020037,-0.22044,0.048822,0.34862,0.28301,-0.089221
1696,-0.059989,-0.03238,-0.24643,0.074482,0.3772,0.28171,-0.10254
1697,-0.059989,-0.052518,-0.27079,0.10794,0.38175,0.24825,-0.11715
1698,-0.056416,-0.079477,-0.29093,0.13684,0.35024,0.19888,-0.12365
1699,-0.04927,-0.10806,-0.30457,0.14789,0.2895,0.15244,-0.11456
1700,-0.0405,-0.12722,-0.30749,0.13944,0.20538,0.11995,-0.087597
1701,-0.036278,-0.12657,-0.29158,0.11671,0.11281,0.10501,-0.048945
1702,-0.033679,-0.10416,-0.25747,0.091047,0.027385,0.10274,-0.008669
1703,-0.027508,-0.063886,-0.20355,0.072208,-0.038876,0.10794,0.025761
1704,-0.016789,-0.013866,-0.12625,0.070259,-0.079477,0.11183,0.048822
1705,-0.0031473,0.036804,-0.022961,0.082602,-0.097991,0.11151,0.062789
1706,0.012119,0.078704,0.091372,0.10209,-0.09929,0.10891,0.072208
1707,0.026735,0.11086,0.19531,0.11508,-0.093444,0.10761,0.084551
1708,0.039078,0.1349,0.27002,0.10566,-0.085324,0.10989,0.10079
1709,0.049472,0.15568,0.30639,0.069285,-0.07493,0.11476,0.11736
1710,0.062139,0.1742,0.3051,0.009845,-0.060313,0.12093,0.131
1711,0.07773,0.19336,0.28041,-0.064211,-0.04992,0.12775,0.14302
1712,0.099492,0.21382,0.2502,-0.13859,-0.056416,0.13425,0.15309
1713,0.12483,0.23656,0.23331,-0.20908,-0.087597,0.14139,0.15828
1714,0.14789,0.25702,0.23299,-0.26949,-0.13372,0.15211,0.15828
1715,0.16023,0.27456,0.24273,-0.30457,-0.18439,0.17095,0.15536
1716,0.16283,0.27976,0.25085,-0.30489,-0.22564,0.20343,0.14984
1717,0.16088,0.26807,0.24306,-0.26527,-0.24935,0.24111,0.14269
1718,0.15958,0.24046,0.21577,-0.19868,-0.25812,0.26872,0.13717
1719,0.16153,0.20473,0.16835,-0.12495,-0.25747,0.26904,0.1323
1720,0.1651,0.16705,0.10631,-0.066485,-0.25682,0.23461,0.12385
1721,0.16705,0.1323,0.040702,-0.037902,-0.26234,0.17582,0.11476
1722,0.16543,0.10436,-0.017439,-0.037252,-0.27534,0.11021,0.10989
1723,0.16023,0.085525,-0.060963,-0.051219,-0.2958,0.05207,0.11281
1724,0.15406,0.076431,-0.085324,-0.063237,-0.31886,0.0075714,0.12028
1725,0.14919,0.076755,-0.093119,-0.064861,-0.3338,-0.025559,0.13165
1726,0.14724,0.082927,-0.091495,-0.055116,-0.3364,-0.051544,0.14269
1727,0.14594,0.089423,-0.089871,-0.038876,-0.32568,-0.071357,0.15503
1728,0.14659,0.095594,-0.093444,-0.023285,-0.30165,-0.0824,0.169
1729,0.14756,0.099492,-0.098965,-0.013541,-0.26981,-0.084674,0.18297
1730,0.14854,0.096893,-0.10189,-0.0099683,-0.22694,-0.081426,0.19141
1731,0.14496,0.087149,-0.098641,-0.0096434,-0.16458,-0.072331,0.19044
1732,0.13814,0.072533,-0.090521,-0.0083442,-0.080451,-0.061613,0.17939
1733,0.1297,0.057917,-0.081751,0.00075039,0.025761,-0.04927,0.16445
1734,0.12385,0.049472,-0.07428,0.01829,0.14886,-0.030756,0.15406
1735,0.11963,0.047523,-0.070382,0.039402,0.26774,-0.0015233,0.15016
1736,0.11281,0.049796,-0.067459,0.056617,0.35869,0.036154,0.15438
1737,0.098517,0.05142,-0.059014,0.070909,0.40254,0.070259,0.16315
1738,0.074806,0.048497,-0.047321,0.07708,0.39247,0.089098,0.1716
1739,0.049796,0.040377,-0.034654,0.080978,0.33075,0.08585,0.17062
1740,0.031282,0.029983,-0.025559,0.089748,0.23786,0.059541,0.15309
1741,0.019589,0.01829,-0.021661,0.10274,0.14074,0.017316,0.12353
1742,0.010495,0.0088706,-0.023285,0.11508,0.061814,-0.029782,0.084551
1743,0.00075039,-0.00054884,-0.028157,0.12353,0.015042,-0.072981,0.045574
1744,-0.0067202,-0.0080194,-0.037577,0.1219,-0.0018481,-0.10838,0.0088706
1745,-0.012242,-0.015165,-0.046022,0.10826,-0.0028225,-0.13567,-0.02361
1746,-0.018738,-0.026209,-0.047646,0.087149,-0.00022403,-0.1597,-0.054792
1747,-0.028482,-0.042449,-0.0405,0.067011,-0.0024977,-0.17887,-0.088247
1748,-0.044723,-0.062262,-0.026858,0.053044,-0.0063954,-0.19316,-0.12203
1749,-0.066485,-0.077853,-0.011267,0.046873,-0.012242,-0.20615,-0.15126
1750,-0.093444,-0.087922,0.0039985,0.050121,-0.021661,-0.22304,-0.16685
1751,-0.11683,-0.089546,0.015367,0.062789,-0.036602,-0.2435,-0.16393
1752,-0.12885,-0.0837,0.025111,0.083576,-0.054142,-0.26299,-0.14736
1753,-0.1269,-0.075579,0.035505,0.10566,-0.073955,-0.27046,-0.123
1754,-0.11553,-0.06551,0.046223,0.12158,-0.086298,-0.25812,-0.09182
1755,-0.10156,-0.051219,0.053369,0.1271,-0.085648,-0.23344,-0.05739
1756,-0.092794,-0.034978,0.059216,0.1206,-0.073306,-0.20713,-0.025884
1757,-0.094743,-0.022636,0.063113,0.10501,-0.059989,-0.18861,-0.0067202
1758,-0.10644,-0.020362,0.058891,0.090397,-0.052843,-0.17594,-0.0047713
1759,-0.12235,-0.029457,0.045249,0.083901,-0.053492,-0.16977,-0.018088
1760,-0.13502,-0.046347,0.027709,0.082602,-0.062912,-0.17107,-0.043748
1761,-0.14509,-0.06681,0.012443,0.080003,-0.076879,-0.17659,-0.077528
1762,-0.15288,-0.084674,0.003024,0.073832,-0.085324,-0.18179,-0.10774
1763,-0.15841,-0.095393,-0.0015233,0.070584,-0.078827,-0.18114,-0.12625
1764,-0.16263,-0.094093,-0.0054209,0.068635,-0.056741,-0.17237,-0.1321
1765,-0.1649,-0.084999,-0.010943,0.065712,-0.021337,-0.15873,-0.12787
1766,-0.16523,-0.073306,-0.01614,0.064413,0.020888,-0.14834,-0.11683
1767,-0.16523,-0.061937,-0.016789,0.061165,0.065387,-0.14216,-0.10449
1768,-0.16198,-0.051544,-0.010943,0.054668,0.11021,-0.13762,-0.094743
1769,-0.15321,-0.045372,-0.0018481,0.044599,0.15244,-0.1269,-0.088247
1770,-0.13859,-0.042449,0.0026992,0.033231,0.18719,-0.10644,-0.090196
1771,-0.1243,-0.0405,0.003024,0.024137,0.20798,-0.077853,-0.098316
1772,-0.11391,-0.038227,0.00010078,0.012119,0.20733,-0.052518,-0.10611
1773,-0.10351,-0.034654,-0.0037969,-0.00087364,0.18524,-0.037902,-0.10871
1774,-0.088247,-0.027508,-0.0041217,-0.010943,0.14561,-0.037252,-0.10611
