,channel_1,channel_2,channel_3,channel_4,channel_5,channel_6,channel_7
0,-0.069733,-0.0076946,-0.032055,-0.62483,0.31094,-0.37148,-0.35069
1,-0.088247,-0.0044465,-0.018738,-0.50855,0.26579,-0.48256,-0.4634
2,-0.095068,0.0017248,-0.0011985,-0.36953,0.22129,-0.51732,-0.55435
3,-0.093769,0.0078962,0.012443,-0.24221,0.18849,-0.4699,-0.62093
4,-0.093444,0.0072465,0.01894,-0.14346,0.16543,-0.35361,-0.66283
5,-0.097017,0.0014,0.019914,-0.069408,0.14886,-0.18991,-0.6755
6,-0.099615,-0.0015233,0.01764,-0.0044465,0.12418,0.0033489,-0.65211
7,-0.093444,0.0059473,0.013743,0.057917,0.079354,0.20798,-0.5852
8,-0.07428,0.023812,0.012119,0.11768,0.01829,0.40351,-0.47899
9,-0.043423,0.045899,0.009845,0.16933,-0.045697,0.56754,-0.35459
10,-0.0047713,0.064413,0.0072465,0.2083,-0.096042,0.68447,-0.23733
11,0.03583,0.076106,0.0039985,0.23754,-0.12203,0.75658,-0.14087
12,0.070584,0.080978,0.00042559,0.26352,-0.11813,0.804,-0.064211
13,0.095269,0.081303,-0.0018481,0.29633,-0.081426,0.84557,-0.0031473
14,0.11378,0.075131,-0.0015233,0.33628,-0.02361,0.88195,0.055643
15,0.12645,0.062139,0.00042559,0.36908,0.03518,0.89787,0.11736
16,0.13457,0.041351,-0.00087364,0.38045,0.06896,0.87643,0.1742
17,0.13555,0.018615,-0.0031473,0.36843,0.063113,0.81017,0.21382
18,0.12905,0.0059473,-0.0021729,0.35349,0.025761,0.70786,0.23136
19,0.12093,0.010819,0.0026992,0.35187,-0.017764,0.58573,0.23331
20,0.11573,0.032582,0.0062721,0.37071,-0.046347,0.45938,0.23006
21,0.11151,0.061165,0.0052977,0.40384,-0.04862,0.3327,0.22974
22,0.10242,0.080328,-0.0050961,0.4256,-0.026533,0.19986,0.22649
23,0.084876,0.080003,-0.025234,0.41391,0.011794,0.053369,0.21317
24,0.061814,0.057592,-0.052843,0.36551,0.057592,-0.11001,0.18362
25,0.03518,0.019264,-0.080127,0.29568,0.10404,-0.29385,0.14009
26,0.012768,-0.02361,-0.09994,0.22617,0.14302,-0.5053,0.084226
27,-0.0024977,-0.063561,-0.10968,0.1703,0.16413,-0.73721,0.017965
28,-0.010943,-0.095068,-0.11423,0.13425,0.16153,-0.96653,-0.052843
29,-0.019063,-0.11748,-0.11715,0.11281,0.13652,-1.165,-0.12268
30,-0.026533,-0.1269,-0.11845,0.098193,0.093321,-1.3027,-0.18407
31,-0.029132,-0.12138,-0.11358,0.084876,0.04395,-1.3576,-0.23246
32,-0.028807,-0.10449,-0.098965,0.067336,0.003024,-1.3225,-0.26819
33,-0.031406,-0.080127,-0.079477,0.045574,-0.021012,-1.2147,-0.29417
34,-0.037902,-0.052843,-0.059014,0.023162,-0.026858,-1.074,-0.30197
35,-0.044073,-0.025234,-0.043748,0.0072465,-0.01549,-0.93859,-0.28021
36,-0.041799,0.0014,-0.035303,0.0020496,0.0078962,-0.8353,-0.23149
37,-0.027508,0.024461,-0.035953,0.0059473,0.029658,-0.76709,-0.16588
38,-0.007045,0.038428,-0.038876,0.0069217,0.033231,-0.7174,-0.10156
39,0.015042,0.038103,-0.040825,-0.0057458,0.013743,-0.65828,-0.054792
40,0.032257,0.028359,-0.040175,-0.034978,-0.026209,-0.56214,-0.024585
41,0.042326,0.015367,-0.034978,-0.072331,-0.077203,-0.4137,-0.00087364
42,0.044924,0.0059473,-0.025884,-0.10579,-0.13275,-0.21817,0.02706
43,0.047198,-0.00022403,-0.017439,-0.13307,-0.17919,-0.0096434,0.057592
44,0.048822,-0.0031473,-0.013866,-0.14931,-0.19641,0.1742,0.0865
45,0.049796,-0.007045,-0.018088,-0.14834,-0.16523,0.31192,0.11151
46,0.046548,-0.0089938,-0.027833,-0.1243,-0.085973,0.40059,0.1245
47,0.040377,-0.0080194,-0.0405,-0.085324,0.012119,0.44671,0.11768
48,0.029983,-0.0031473,-0.054792,-0.047971,0.092996,0.45938,0.095919
49,0.014392,0.0026992,-0.067784,-0.029132,0.1349,0.45548,0.075131
50,-0.0011985,0.0059473,-0.077853,-0.036927,0.1362,0.44281,0.06831
51,-0.0080194,0.0046481,-0.079802,-0.06681,0.10664,0.42203,0.07773
52,-0.0015233,0.0010752,-0.070058,-0.11033,0.067011,0.37623,0.096893
53,0.014068,-0.0011985,-0.053168,-0.15483,0.033231,0.30152,0.11768
54,0.031932,-0.00054884,-0.035628,-0.18342,0.0056225,0.22097,0.1349
55,0.047523,0.00010078,-0.021337,-0.18082,-0.021012,0.1651,0.14919
56,0.054019,-0.0011985,-0.013216,-0.14509,-0.054792,0.15666,0.15926
57,0.052395,-0.0021729,-0.013216,-0.085324,-0.098316,0.20083,0.16933
58,0.047847,-0.0021729,-0.017114,-0.020362,-0.15061,0.28301,0.17874
59,0.0433,-0.0018481,-0.020037,0.034855,-0.20355,0.3746,0.19109
60,0.041027,-0.0018481,-0.020037,0.074806,-0.24188,0.45483,0.21285
61,0.042001,-0.0015233,-0.017114,0.0865,-0.25617,0.50355,0.23948
62,0.044924,-0.0018481,-0.013541,0.063763,-0.25162,0.50388,0.26222
63,0.049147,-0.0060706,-0.012242,0.01829,-0.2461,0.43664,0.27554
64,0.05142,-0.019063,-0.015165,-0.026858,-0.25617,0.29762,0.26904
65,0.047523,-0.036602,-0.020687,-0.055116,-0.28411,0.10664,0.23559
66,0.036479,-0.051544,-0.02361,-0.063237,-0.32081,-0.087272,0.18004
67,0.01894,-0.055766,-0.021986,-0.059339,-0.35849,-0.23928,0.11443
68,-0.0031473,-0.048945,-0.011592,-0.054142,-0.39487,-0.32471,0.048497
69,-0.027183,-0.039526,0.0043233,-0.052518,-0.42832,-0.34517,-0.0041217
70,-0.046022,-0.035953,0.020888,-0.048296,-0.44878,-0.31626,-0.03238
71,-0.056091,-0.032705,0.031607,-0.043099,-0.44261,-0.2513,-0.034978
72,-0.056741,-0.023935,0.03583,-0.044398,-0.40104,-0.1701,-0.018413
73,-0.047321,-0.0093186,0.038428,-0.057715,-0.32893,-0.090521,0.008221
74,-0.028157,0.013093,0.045249,-0.077203,-0.23506,-0.027833,0.036154
75,-0.0018481,0.042651,0.062139,-0.089546,-0.13729,0.0095202,0.057917
76,0.024461,0.072208,0.0865,-0.0837,-0.051219,0.017316,0.063763
77,0.041676,0.09462,0.10891,-0.056741,0.013743,-0.0031473,0.044924
78,0.04395,0.10924,0.1284,-0.020687,0.064737,-0.041799,0.0039985
79,0.03583,0.11963,0.14561,0.0069217,0.11963,-0.078503,-0.041799
80,0.022512,0.12548,0.15893,0.019589,0.19921,-0.084999,-0.073955
81,0.010819,0.12743,0.16803,0.02641,0.31127,-0.038227,-0.080451
82,0.0069217,0.1284,0.17582,0.040052,0.44736,0.067986,-0.057065
83,0.0095202,0.13132,0.18687,0.059541,0.5919,0.21837,-0.0063954
84,0.019264,0.1349,0.2057,0.082927,0.73254,0.38467,0.063113
85,0.033231,0.14432,0.23786,0.10209,0.8524,0.53701,0.13782
86,0.048497,0.16315,0.28106,0.11638,0.93685,0.65264,0.20311
87,0.061489,0.18849,0.32458,0.13587,0.97387,0.71565,0.25215
88,0.071558,0.21025,0.35576,0.16185,0.95926,0.72182,0.28496
89,0.079354,0.2187,0.36843,0.19986,0.89917,0.6848,0.30769
90,0.088448,0.21252,0.36226,0.2593,0.82154,0.62081,0.32426
91,0.098193,0.20018,0.34375,0.3379,0.75983,0.54805,0.3353
92,0.10501,0.19174,0.31711,0.42203,0.72572,0.48147,0.34277
93,0.10794,0.19466,0.28788,0.49413,0.70363,0.42332,0.34407
94,0.10956,0.20603,0.25605,0.54285,0.66823,0.37688,0.3405
95,0.11248,0.22227,0.22422,0.56364,0.61334,0.3431,0.33498
96,0.11411,0.23916,0.19369,0.56072,0.53701,0.31841,0.3314
97,0.11346,0.2476,0.16575,0.54285,0.44249,0.28561,0.32621
98,0.11054,0.24338,0.13977,0.51654,0.3405,0.22194,0.31614
99,0.10404,0.22422,0.11346,0.48212,0.24111,0.11054,0.29178
100,0.09397,0.19304,0.084876,0.43339,0.14172,-0.038551,0.25118
101,0.076106,0.15146,0.055968,0.37493,0.039402,-0.18407,0.19888
102,0.050446,0.10729,0.029983,0.30802,-0.059989,-0.28281,0.14009
103,0.021538,0.067011,0.0075714,0.23591,-0.13177,-0.32113,0.075131
104,-0.0057458,0.034855,-0.010293,0.16088,-0.14119,-0.32146,-0.0021729
105,-0.028807,0.013418,-0.025234,0.089423,-0.075579,-0.32828,-0.10319
106,-0.048945,0.0033489,-0.035953,0.027709,0.025761,-0.38739,-0.23733
107,-0.066485,-0.00054884,-0.040175,-0.020687,0.099167,-0.51374,-0.39422
108,-0.079802,-0.0031473,-0.04115,-0.056416,0.088448,-0.67647,-0.54623
109,-0.088247,-0.0060706,-0.043423,-0.084349,-0.031406,-0.82264,-0.65893
110,-0.093444,-0.007045,-0.052518,-0.11358,-0.23019,-0.90351,-0.71642
111,-0.094093,-0.0041217,-0.067134,-0.14541,-0.43287,-0.90059,-0.71188
112,-0.092469,-0.0041217,-0.084024,-0.17692,-0.56571,-0.82329,-0.65016
113,-0.089871,-0.012567,-0.10774,-0.20355,-0.59105,-0.69824,-0.5498
114,-0.089221,-0.030431,-0.13242,-0.22077,-0.52576,-0.55759,-0.43384
115,-0.09182,-0.059664,-0.15126,-0.22954,-0.41565,-0.42637,-0.32341
116,-0.093769,-0.097017,-0.16393,-0.22629,-0.31464,-0.31074,-0.23084
117,-0.090196,-0.13502,-0.16945,-0.21297,-0.2539,-0.2055,-0.15256
118,-0.078827,-0.1623,-0.17205,-0.19966,-0.23733,-0.10903,-0.082725
119,-0.059339,-0.17042,-0.17237,-0.19219,-0.24805,-0.031081,-0.018738
120,-0.038551,-0.161,-0.17237,-0.19511,-0.26137,0.021213,0.036479
121,-0.020037,-0.14216,-0.17335,-0.20388,-0.26299,0.048172,0.07708
122,-0.0050961,-0.11878,-0.17659,-0.21037,-0.25585,0.059865,0.10339
123,0.0039985,-0.097666,-0.18277,-0.20453,-0.24838,0.070909,0.12028
124,0.008221,-0.089221,-0.18991,-0.18829,-0.25715,0.091372,0.1297
125,0.0078962,-0.096692,-0.19901,-0.17107,-0.28508,0.12645,0.13425
126,0.0023744,-0.11293,-0.20518,-0.15418,-0.31854,0.17322,0.13555
127,-0.0080194,-0.12592,-0.20583,-0.13275,-0.33413,0.2148,0.13555
128,-0.017764,-0.1282,-0.2016,-0.10968,-0.32146,0.23364,0.14237
129,-0.018413,-0.123,-0.19576,-0.094093,-0.29482,0.22162,0.15536
130,-0.0080194,-0.11586,-0.18894,-0.093444,-0.27209,0.18751,0.17192
131,0.009845,-0.11261,-0.18082,-0.10838,-0.25812,0.14432,0.18589
132,0.028684,-0.11293,-0.17172,-0.13469,-0.2474,0.10014,0.18816
133,0.038753,-0.11651,-0.16068,-0.1623,-0.23084,0.055968,0.1768
134,0.034855,-0.1269,-0.15029,-0.18504,-0.2029,0.015692,0.14821
135,0.014717,-0.14346,-0.14184,-0.19933,-0.16263,-0.02361,0.10534
136,-0.018413,-0.16165,-0.13892,-0.20323,-0.11651,-0.062262,0.053694
137,-0.05804,-0.17854,-0.14379,-0.19543,-0.072656,-0.095717,0.008221
138,-0.092794,-0.19413,-0.15711,-0.18179,-0.0405,-0.11715,-0.018738
139,-0.11586,-0.20355,-0.17107,-0.16945,-0.019712,-0.12333,-0.021661
140,-0.12268,-0.20258,-0.17724,-0.16393,-0.0041217,-0.11163,-0.0060706
141,-0.11066,-0.19316,-0.1714,-0.16425,0.012119,-0.081101,0.021538
142,-0.086298,-0.17465,-0.15223,-0.16588,0.031607,-0.033679,0.04395
143,-0.059339,-0.14606,-0.12268,-0.16653,0.050121,0.022188,0.043625
144,-0.0405,-0.11618,-0.090521,-0.161,0.065712,0.080978,0.015367
145,-0.03303,-0.094093,-0.05739,-0.14216,0.080328,0.13912,-0.028482
146,-0.031081,-0.084674,-0.027183,-0.10481,0.10177,0.19174,-0.069083
147,-0.029132,-0.083375,0.00010078,-0.04927,0.13067,0.23006,-0.094093
148,-0.028482,-0.087597,0.024786,0.01829,0.15731,0.2489,-0.10416
149,-0.028482,-0.089871,0.045899,0.0865,0.17095,0.24176,-0.11748
150,-0.032705,-0.085324,0.061814,0.14529,0.16185,0.19921,-0.15158
151,-0.041799,-0.075579,0.067986,0.18264,0.1258,0.12515,-0.20323
152,-0.051868,-0.063237,0.065712,0.19239,0.075131,0.036804,-0.25455
153,-0.05739,-0.051219,0.061489,0.17939,0.027709,-0.035953,-0.27891
154,-0.053817,-0.039851,0.057917,0.15373,-0.0041217,-0.064861,-0.25715
155,-0.034978,-0.031081,0.054668,0.12158,-0.022961,-0.035303,-0.18731
156,-0.0044465,-0.025234,0.055643,0.084226,-0.038876,0.041351,-0.086298
157,0.030308,-0.019712,0.065062,0.049796,-0.060963,0.13847,0.028034
158,0.057267,-0.011267,0.080653,0.029333,-0.096042,0.22,0.12807
159,0.073507,0.0039985,0.097543,0.02641,-0.14184,0.25832,0.20083
160,0.080003,0.02641,0.11378,0.037778,-0.19154,0.25053,0.24371
161,0.083251,0.052395,0.1297,0.051745,-0.23766,0.22097,0.26482
162,0.088124,0.081303,0.14724,0.05272,-0.27339,0.20733,0.27586
163,0.10079,0.10664,0.17192,0.037454,-0.2958,0.23461,0.29015
164,0.11703,0.12515,0.20376,0.010819,-0.2958,0.30639,0.31386
165,0.13652,0.13717,0.23721,-0.023285,-0.26137,0.40156,0.34245
166,0.15049,0.14302,0.26255,-0.06551,-0.18601,0.49381,0.35966
167,0.15049,0.14172,0.27229,-0.11001,-0.076879,0.56494,0.34959
168,0.13165,0.12807,0.26547,-0.15093,0.044599,0.60035,0.3025
169,0.10047,0.10306,0.24111,-0.18504,0.15341,0.5893,0.22779
170,0.065387,0.074482,0.2057,-0.2081,0.23559,0.52824,0.14204
171,0.036804,0.050771,0.1703,-0.20713,0.29957,0.43697,0.067011
172,0.025436,0.039727,0.14139,-0.17205,0.36389,0.34342,0.020239
173,0.029333,0.04395,0.12125,-0.10156,0.44281,0.26969,0.0026992
174,0.043625,0.06019,0.10794,0.0026992,0.52921,0.2161,-0.0011985
175,0.057267,0.081627,0.099817,0.13165,0.60327,0.1651,-0.016464
176,0.06019,0.10631,0.096893,0.27067,0.64907,0.096244,-0.056741
177,0.054668,0.1323,0.098193,0.39767,0.64549,0.0033489,-0.11618
178,0.042326,0.15536,0.10664,0.48764,0.57436,-0.10741,-0.17432
179,0.029009,0.16738,0.12223,0.52012,0.43209,-0.22791,-0.2094
180,0.01894,0.16705,0.13717,0.48179,0.23526,-0.34809,-0.20908
181,0.013418,0.16218,0.14561,0.36973,0.0072465,-0.4608,-0.17302
182,0.011794,0.15568,0.14854,0.2148,-0.22077,-0.56571,-0.11488
183,0.012119,0.15146,0.14399,0.054993,-0.41663,-0.67712,-0.054792
184,0.013743,0.14919,0.1349,-0.07428,-0.55207,-0.79373,-0.015165
185,0.012768,0.14886,0.1258,-0.15678,-0.61638,-0.89247,-0.0060706
186,0.009845,0.15601,0.12223,-0.18894,-0.61346,-0.93469,-0.029457
187,0.0065969,0.16803,0.1271,-0.17335,-0.56409,-0.89897,-0.0824
188,0.008221,0.18134,0.1349,-0.12398,-0.49458,-0.80087,-0.16133
189,0.014717,0.18784,0.13847,-0.059664,-0.42605,-0.68199,-0.25227
190,0.024137,0.18589,0.13425,0.0033489,-0.36953,-0.57741,-0.33315
191,0.032906,0.17647,0.1206,0.06019,-0.32276,-0.4988,-0.38415
192,0.039727,0.16413,0.099167,0.11573,-0.27956,-0.43514,-0.39681
193,0.047523,0.15049,0.07708,0.17582,-0.2461,-0.36368,-0.3744
194,0.058566,0.13944,0.056617,0.23234,-0.23441,-0.26559,-0.3299
195,0.076106,0.13165,0.037129,0.27456,-0.2539,-0.13502,-0.27404
196,0.099817,0.13327,0.022188,0.29892,-0.29775,0.019589,-0.21557
197,0.12418,0.14399,0.013093,0.30445,-0.34192,0.17712,-0.15613
198,0.14074,0.15601,0.008221,0.29438,-0.35426,0.31646,-0.098965
199,0.14302,0.15763,0.0023744,0.27911,-0.32113,0.423,-0.047646
200,0.12872,0.14594,-0.0054209,0.27229,-0.24903,0.48699,-0.007045
201,0.099492,0.12743,-0.018088,0.27326,-0.15776,0.5107,0.026085
202,0.067011,0.10859,-0.032705,0.27619,-0.064211,0.50875,0.058241
203,0.04395,0.096893,-0.043748,0.27132,0.022188,0.49933,0.098517
204,0.039078,0.088124,-0.052193,0.24988,0.10859,0.49543,0.14724
205,0.048497,0.079354,-0.05739,0.20733,0.20278,0.50193,0.20246
206,0.06084,0.066037,-0.063237,0.15633,0.30607,0.5107,0.25085
207,0.066037,0.045574,-0.067784,0.11443,0.41553,0.51362,0.28333
208,0.062139,0.021863,-0.07428,0.088124,0.52856,0.50713,0.2986
209,0.05142,0.00010078,-0.081751,0.070584,0.65199,0.49901,0.30055
210,0.038428,-0.019712,-0.090521,0.049472,0.79166,0.49446,0.29535
211,0.027709,-0.039851,-0.10254,0.01829,0.93165,0.49316,0.29015
212,0.022512,-0.059664,-0.11586,-0.027508,1.0424,0.49251,0.29373
213,0.021538,-0.071682,-0.13047,-0.082076,1.0931,0.49348,0.30802
214,0.022512,-0.070707,-0.14119,-0.1308,1.0726,0.49024,0.32069
215,0.024786,-0.053492,-0.14216,-0.15516,0.98427,0.47205,0.31614
216,0.02706,-0.033354,-0.13437,-0.14509,0.84103,0.42982,0.28626
217,0.029333,-0.017114,-0.12755,-0.098965,0.66173,0.35804,0.23201
218,0.02641,-0.010618,-0.12852,-0.02426,0.46328,0.258,0.16121
219,0.014068,-0.010943,-0.13632,0.057267,0.26677,0.12905,0.087474
220,-0.0037969,-0.019388,-0.14671,0.11931,0.086824,-0.024585,0.020888
221,-0.022636,-0.034004,-0.1623,0.14269,-0.067784,-0.19673,-0.030431
222,-0.034978,-0.050894,-0.18147,0.11995,-0.19836,-0.37375,-0.05804
223,-0.038227,-0.061613,-0.19933,0.065062,-0.31561,-0.53518,-0.062587
224,-0.031406,-0.060963,-0.20745,0.0026992,-0.42962,-0.65731,-0.046996
225,-0.020362,-0.050894,-0.19998,-0.045697,-0.53875,-0.72552,-0.01549
226,-0.0067202,-0.03173,-0.17367,-0.076229,-0.63457,-0.73461,0.026085
227,0.01017,-0.0076946,-0.13112,-0.092794,-0.71058,-0.68557,0.06896
228,0.029009,0.016991,-0.082725,-0.10254,-0.75345,-0.5891,0.10501
229,0.042651,0.034855,-0.039851,-0.11098,-0.74988,-0.466,0.13197
230,0.045899,0.041027,-0.0057458,-0.1204,-0.69271,-0.34127,0.14724
231,0.041027,0.037129,0.017965,-0.12852,-0.57838,-0.22726,0.14854
232,0.03583,0.031282,0.033556,-0.13632,-0.41468,-0.13145,0.13327
233,0.034855,0.02706,0.040702,-0.14346,-0.21947,-0.058365,0.10242
234,0.032257,0.024786,0.0433,-0.15158,-0.017439,-0.0089938,0.054344
235,0.024137,0.023162,0.042651,-0.15613,0.16868,0.021213,-0.011917
236,0.0075714,0.02641,0.044275,-0.15548,0.31939,0.038428,-0.0824
237,-0.012892,0.029009,0.046548,-0.14346,0.4204,0.06084,-0.13859
238,-0.030756,0.029983,0.047198,-0.11651,0.47854,0.10891,-0.15841
239,-0.039851,0.025111,0.0433,-0.079802,0.51687,0.18719,-0.13015
240,-0.037577,0.013743,0.032582,-0.047646,0.54968,0.28561,-0.059989
241,-0.027833,0.0010752,0.015042,-0.03238,0.56169,0.38337,0.032582
242,-0.017439,-0.010293,-0.00054884,-0.04115,0.53116,0.45288,0.12743
243,-0.008669,-0.017764,-0.0044465,-0.070058,0.44476,0.47335,0.20473
244,0.0046481,-0.015815,0.0069217,-0.10741,0.31224,0.44314,0.25378
245,0.025111,-0.0031473,0.028034,-0.13827,0.17257,0.37688,0.26937
246,0.049147,0.020564,0.055318,-0.14931,0.081303,0.28626,0.25767
247,0.069934,0.050446,0.081627,-0.13112,0.065712,0.18557,0.22097
248,0.078379,0.075781,0.10274,-0.082076,0.10566,0.081952,0.16218
249,0.072533,0.093321,0.11671,-0.0034721,0.15114,-0.022636,0.091047
250,0.062139,0.10274,0.12548,0.091047,0.1664,-0.11975,0.014717
251,0.054344,0.10306,0.1297,0.16998,0.15049,-0.20063,-0.05804
252,0.049147,0.092671,0.1232,0.19628,0.11378,-0.26884,-0.12463
253,0.04395,0.069285,0.10209,0.15309,0.063763,-0.33802,-0.18114
254,0.03518,0.040702,0.06896,0.065062,0.0056225,-0.41728,-0.22597
255,0.018615,0.01764,0.038753,-0.012567,-0.053168,-0.50368,-0.2565
256,0.00010078,0.0065969,0.029333,-0.03173,-0.095068,-0.57481,-0.26787
257,-0.014191,0.0078962,0.048822,0.0078962,-0.10709,-0.60079,-0.25487
258,-0.021012,0.016341,0.087149,0.065387,-0.087922,-0.57091,-0.22661
259,-0.020362,0.025436,0.12645,0.092021,-0.045047,-0.49913,-0.19998
260,-0.013866,0.032582,0.15471,0.069285,0.0014,-0.4176,-0.18699
261,-0.007045,0.038753,0.17355,0.0078962,0.030633,-0.34939,-0.18277
262,-0.0028225,0.045899,0.19141,-0.062587,0.016016,-0.2932,-0.17042
263,0.0014,0.057592,0.21447,-0.11326,-0.049595,-0.23538,-0.13827
264,0.0043233,0.078055,0.24111,-0.12625,-0.14866,-0.16458,-0.088572
265,0.01017,0.10566,0.26287,-0.10774,-0.24935,-0.087272,-0.033354
266,0.016341,0.1323,0.27099,-0.072006,-0.33185,-0.020037,0.012119
267,0.019264,0.14432,0.26255,-0.021012,-0.39032,0.023162,0.038753
268,0.019589,0.13782,0.23818,0.051745,-0.43741,0.032582,0.045574
269,0.016341,0.11346,0.19986,0.13944,-0.48873,0.012768,0.036804
270,0.0069217,0.081303,0.15146,0.21837,-0.53746,-0.023285,0.023162
271,-0.0060706,0.054019,0.099492,0.27294,-0.55922,-0.061937,0.014068
272,-0.019712,0.039727,0.049472,0.30315,-0.53453,-0.090521,0.015367
273,-0.025234,0.037129,0.0056225,0.32166,-0.46957,-0.10254,0.025761
274,-0.021661,0.038103,-0.032055,0.33433,-0.38382,-0.09929,0.04395
275,-0.011267,0.032906,-0.06551,0.32848,-0.29385,-0.087272,0.066686
276,0.0023744,0.017965,-0.094093,0.29827,-0.21395,-0.07428,0.091047
277,0.014717,-0.0060706,-0.11748,0.24273,-0.15776,-0.070058,0.11248
278,0.024461,-0.034329,-0.13145,0.1742,-0.1217,-0.067784,0.13067
279,0.031607,-0.063561,-0.13827,0.10501,-0.089871,-0.048945,0.14724
280,0.03518,-0.094093,-0.14606,0.043625,-0.048296,0.0049729,0.16088
281,0.032257,-0.12463,-0.16263,-0.0076946,0.0062721,0.095919,0.1651
282,0.020239,-0.15158,-0.18699,-0.050569,0.067661,0.20798,0.15633
283,-0.00022403,-0.1675,-0.21167,-0.085973,0.12743,0.31939,0.13977
284,-0.022636,-0.17107,-0.22791,-0.11033,0.16835,0.40351,0.12125
285,-0.039201,-0.16555,-0.23214,-0.1243,0.18329,0.44931,0.11086
286,-0.048945,-0.15256,-0.22759,-0.123,0.17095,0.46133,0.11573
287,-0.051219,-0.13242,-0.21622,-0.10676,0.14139,0.44801,0.13262
288,-0.048296,-0.11326,-0.20355,-0.086623,0.11054,0.41228,0.15601
289,-0.043099,-0.10059,-0.19283,-0.072006,0.093321,0.36648,0.17485
290,-0.036927,-0.095068,-0.18439,-0.063886,0.096893,0.32946,0.18557
291,-0.028482,-0.093444,-0.17367,-0.067134,0.12385,0.31386,0.18427
292,-0.018738,-0.092145,-0.15581,-0.076229,0.16153,0.32328,0.17062
293,-0.0080194,-0.086948,-0.13404,-0.085648,0.19239,0.34959,0.14432
294,0.0010752,-0.071357,-0.10936,-0.09117,0.20116,0.37363,0.10469
295,0.0036737,-0.047971,-0.081751,-0.09117,0.19044,0.3837,0.055968
296,-0.0067202,-0.027508,-0.053817,-0.081101,0.1664,0.37006,0.0062721
297,-0.026858,-0.015815,-0.026858,-0.064861,0.13327,0.33595,-0.032705
298,-0.045372,-0.0083442,0.0020496,-0.048296,0.092671,0.29892,-0.04992
299,-0.052843,0.0023744,0.039078,-0.035953,0.048172,0.27294,-0.044398
300,-0.046347,0.022188,0.081303,-0.021661,0.012768,0.25767,-0.021337
301,-0.026209,0.049147,0.12353,-0.0031473,-0.013541,0.24208,0.0023744
302,-0.0018481,0.075781,0.15114,0.01764,-0.0405,0.22097,0.017965
303,0.018615,0.09397,0.16088,0.033881,-0.084999,0.20083,0.030308
304,0.034206,0.10144,0.15991,0.046223,-0.14574,0.19758,0.049796
305,0.044924,0.097543,0.15211,0.062139,-0.19803,0.21188,0.078704
306,0.055643,0.0865,0.14074,0.0852,-0.22207,0.22357,0.10566
307,0.063763,0.07708,0.12678,0.11118,-0.21525,0.20668,0.11833
308,0.06896,0.072858,0.11671,0.13295,-0.19056,0.14756,0.11541
309,0.070584,0.07773,0.11086,0.14756,-0.16165,0.046548,0.095594
310,0.06831,0.092021,0.10794,0.15244,-0.14087,-0.079477,0.060515
311,0.066686,0.10956,0.10404,0.14951,-0.12787,-0.20972,0.014717
312,0.065387,0.1245,0.098193,0.13847,-0.10903,-0.32373,-0.030756
313,0.062789,0.12807,0.090722,0.11931,-0.068434,-0.41208,-0.06551
314,0.055318,0.11833,0.083901,0.093645,0.0065969,-0.47184,-0.08305
315,0.045249,0.10306,0.076106,0.064088,0.10826,-0.50952,-0.079477
316,0.037454,0.087149,0.069934,0.033556,0.21155,-0.53811,-0.059989
317,0.036479,0.076431,0.067986,0.013093,0.28041,-0.56799,-0.034004
318,0.039078,0.072208,0.076755,0.0078962,0.28821,-0.59852,-0.01484
319,0.042326,0.071234,0.096569,0.021538,0.24111,-0.61931,-0.012892
320,0.042001,0.072858,0.12385,0.055643,0.17355,-0.61379,-0.029782
321,0.035505,0.073182,0.15244,0.098517,0.1284,-0.57253,-0.064211
322,0.020239,0.066037,0.17192,0.11898,0.12353,-0.48711,-0.11131
323,-0.00022403,0.049796,0.169,0.084876,0.14334,-0.36011,-0.15678
324,-0.021337,0.024786,0.13555,-0.0076946,0.15926,-0.20713,-0.19413
325,-0.040825,-0.0031473,0.078704,-0.1282,0.15373,-0.060313,-0.21849
326,-0.053817,-0.027183,0.014392,-0.23279,0.1271,0.05207,-0.23181
327,-0.062587,-0.046671,-0.045372,-0.29093,0.089098,0.11833,-0.23928
328,-0.063237,-0.064211,-0.094743,-0.28865,0.05207,0.14302,-0.24253
329,-0.056091,-0.079802,-0.12917,-0.23766,0.024786,0.14269,-0.23928
330,-0.044073,-0.092145,-0.14834,-0.1597,0.016341,0.14334,-0.23084
331,-0.029132,-0.098641,-0.15029,-0.079152,0.030633,0.16348,-0.21427
332,-0.015815,-0.096367,-0.13664,-0.012892,0.063763,0.20635,-0.19056
333,-0.0054209,-0.090521,-0.11813,0.030633,0.10242,0.26287,-0.16685
334,0.003024,-0.084674,-0.10254,0.048172,0.12905,0.32296,-0.15191
335,0.0085458,-0.084349,-0.090196,0.042651,0.13782,0.3824,-0.15061
336,0.011144,-0.090196,-0.080127,0.02706,0.13684,0.44379,-0.14996
337,0.012768,-0.090521,-0.071032,0.018615,0.13197,0.5055,-0.13242
338,0.01764,-0.080776,-0.063237,0.023812,0.12125,0.55487,-0.097666
339,0.024786,-0.064861,-0.059664,0.036804,0.081303,0.57696,-0.059014
340,0.030957,-0.048945,-0.060963,0.04395,-0.016789,0.56202,-0.033679
341,0.031607,-0.036278,-0.071357,0.036479,-0.18374,0.5003,-0.028482
342,0.024461,-0.030431,-0.092794,0.010495,-0.38285,0.38435,-0.044723
343,0.013743,-0.028807,-0.12073,-0.025559,-0.54785,0.21382,-0.077203
344,0.0023744,-0.031406,-0.14346,-0.064536,-0.61606,0.0020496,-0.11683
345,-0.0076946,-0.037577,-0.15483,-0.097017,-0.56182,-0.21622,-0.15061
346,-0.014516,-0.045372,-0.15451,-0.11066,-0.40948,-0.39746,-0.1636
347,-0.017439,-0.04927,-0.14346,-0.10124,-0.21557,-0.51569,-0.14671
348,-0.018088,-0.041475,-0.12008,-0.067459,-0.044723,-0.58553,-0.10709
349,-0.014191,-0.018088,-0.081101,-0.013866,0.059865,-0.6362,-0.055116
350,-0.0037969,0.018615,-0.030106,0.053369,0.094945,-0.69531,-0.0096434
351,0.013743,0.063438,0.025111,0.12807,0.086175,-0.76937,0.01894
352,0.033231,0.10242,0.074806,0.20278,0.06961,-0.84732,0.031607
353,0.048822,0.12905,0.10924,0.26709,0.063438,-0.90839,0.03583
354,0.06019,0.13977,0.12937,0.31516,0.059865,-0.93599,0.040377
355,0.066686,0.1362,0.14074,0.3379,0.038428,-0.91716,0.05272
356,0.072858,0.12743,0.14984,0.32231,-0.012242,-0.85187,0.071234
357,0.082602,0.12515,0.16056,0.25085,-0.0837,-0.74858,0.09462
358,0.097543,0.1349,0.17225,0.13132,-0.15548,-0.62028,0.11995
359,0.11313,0.15601,0.17972,-0.0080194,-0.20843,-0.47769,0.14951
360,0.12678,0.18069,0.18134,-0.1295,-0.23506,-0.32795,0.18134
361,0.13555,0.20083,0.1755,-0.20355,-0.23863,-0.17432,0.20505
362,0.13879,0.21123,0.16673,-0.21979,-0.23376,-0.022636,0.21123
363,0.13392,0.21285,0.15991,-0.18796,-0.23246,0.11703,0.19823
364,0.11833,0.2083,0.16348,-0.13632,-0.23733,0.23429,0.17095
365,0.097218,0.20116,0.18622,-0.087597,-0.2435,0.32556,0.13944
366,0.075131,0.19011,0.22877,-0.038227,-0.2487,0.39117,0.11541
367,0.055968,0.17582,0.27911,0.032906,-0.25162,0.44216,0.10956
368,0.0433,0.16056,0.32881,0.13944,-0.24643,0.48861,0.12515
369,0.041027,0.14984,0.37233,0.27879,-0.21655,0.53441,0.15731
370,0.048497,0.14854,0.40449,0.43209,-0.13469,0.57306,0.18979
371,0.060515,0.15309,0.4204,0.56527,0.012768,0.5958,0.20993
372,0.068635,0.15666,0.41261,0.63023,0.20116,0.5919,0.21285
373,0.070584,0.15309,0.3811,0.59385,0.3837,0.56267,0.2057
374,0.067986,0.13912,0.33368,0.47172,0.52012,0.52174,0.20083
375,0.066037,0.11801,0.28106,0.32263,0.60554,0.48796,0.20733
376,0.069285,0.10047,0.22909,0.20278,0.66011,0.46977,0.23039
377,0.075781,0.08585,0.18037,0.14204,0.70753,0.46328,0.2619
378,0.079679,0.071558,0.13587,0.1362,0.75495,0.45548,0.27944
379,0.075131,0.055968,0.099167,0.16445,0.79783,0.43664,0.27067
380,0.058891,0.039402,0.069934,0.19758,0.82739,0.40481,0.23266
381,0.038103,0.022512,0.043625,0.21025,0.83388,0.36356,0.1755
382,0.021213,0.0085458,0.018615,0.19726,0.80595,0.32686,0.11736
383,0.0095202,-0.0024977,-0.0057458,0.1651,0.73546,0.3038,0.073832
384,0.0036737,-0.011917,-0.030106,0.11866,0.6273,0.2973,0.057917
385,0.003024,-0.022636,-0.053168,0.066037,0.49446,0.30477,0.063113
386,0.0049729,-0.03303,-0.071682,0.013093,0.36096,0.31354,0.077405
387,0.0059473,-0.039201,-0.084349,-0.036278,0.24793,0.30867,0.089423
388,0.0033489,-0.038227,-0.09117,-0.077203,0.16315,0.28463,0.09462
389,-0.0034721,-0.03173,-0.096367,-0.10514,0.096893,0.24436,0.091696
390,-0.013216,-0.025559,-0.10319,-0.12105,0.026085,0.19434,0.082927
391,-0.024585,-0.022961,-0.10903,-0.12235,-0.065186,0.14042,0.06831
392,-0.034654,-0.026533,-0.11066,-0.11066,-0.17984,0.087799,0.048822
393,-0.045372,-0.032705,-0.10449,-0.084024,-0.30359,0.041676,0.026735
394,-0.050244,-0.03238,-0.092794,-0.038551,-0.40851,0.0039985,0.01017
395,-0.048296,-0.018413,-0.077853,0.028359,-0.46048,-0.021986,0.0036737
396,-0.036927,0.0059473,-0.062587,0.11346,-0.43677,-0.032705,0.0095202
397,-0.021012,0.031607,-0.050569,0.18979,-0.36433,-0.027183,0.022837
398,-0.0073698,0.046548,-0.048945,0.22552,-0.30684,-0.015165,0.040052
399,-0.0034721,0.042326,-0.066485,0.20083,-0.31789,-0.0073698,0.055643
400,-0.008669,0.019589,-0.09929,0.12028,-0.40136,-0.0076946,0.064737
401,-0.018738,-0.0089938,-0.13697,0.0062721,-0.51115,-0.015165,0.063113
402,-0.028157,-0.03238,-0.17205,-0.11521,-0.58553,-0.02426,0.053044
403,-0.029132,-0.046347,-0.19706,-0.21265,-0.57968,-0.030431,0.038428
404,-0.022636,-0.051219,-0.2042,-0.26267,-0.47119,-0.034004,0.024461
405,-0.012242,-0.04992,-0.19413,-0.25877,-0.26592,-0.03238,0.014392
406,0.0017248,-0.043748,-0.17107,-0.21979,-0.00087364,-0.020687,0.011794
407,0.016666,-0.033679,-0.14216,-0.174,0.25345,0.0033489,0.028034
408,0.032257,-0.023285,-0.1191,-0.13534,0.4191,0.036479,0.069934
409,0.046548,-0.01549,-0.10579,-0.10384,0.45743,0.073832,0.13652
410,0.055643,-0.013866,-0.098316,-0.077528,0.37623,0.11443,0.21447
411,0.055643,-0.018738,-0.090845,-0.047321,0.21058,0.16348,0.28528
412,0.048172,-0.029457,-0.084999,-0.017764,0.014068,0.21642,0.334
413,0.036479,-0.0405,-0.086623,-0.0057458,-0.1649,0.26482,0.34992
414,0.025111,-0.050894,-0.093444,-0.028807,-0.29385,0.29892,0.32913
415,0.013743,-0.060313,-0.10546,-0.082725,-0.36173,0.32166,0.28008
416,0.00042559,-0.063886,-0.11456,-0.14769,-0.36498,0.3431,0.21772
417,-0.011917,-0.063561,-0.12073,-0.20615,-0.31529,0.36259,0.16185
418,-0.018088,-0.060638,-0.1243,-0.24903,-0.23603,0.36551,0.12158
419,-0.01484,-0.059664,-0.1243,-0.27144,-0.15288,0.3431,0.088124
420,-0.0054209,-0.063886,-0.1217,-0.26722,-0.081751,0.29405,0.047847
421,0.0014,-0.070707,-0.12073,-0.23246,-0.039526,0.22617,-0.016789
422,-0.0028225,-0.076554,-0.12398,-0.17659,-0.04115,0.14789,-0.10871
423,-0.021337,-0.082076,-0.12982,-0.11261,-0.092794,0.068635,-0.21622
424,-0.047646,-0.088572,-0.13632,-0.051868,-0.18634,-0.018738,-0.32503
425,-0.075579,-0.098316,-0.14411,-0.0018481,-0.29742,-0.13177,-0.42962
426,-0.10059,-0.10903,-0.14964,0.038428,-0.39584,-0.28573,-0.53518
427,-0.11975,-0.11456,-0.15126,0.071558,-0.45073,-0.47574,-0.64367
428,-0.1295,-0.11066,-0.14476,0.099492,-0.43417,-0.66186,-0.73851
429,-0.12917,-0.10091,-0.13372,0.11931,-0.3429,-0.80347,-0.79275
430,-0.12105,-0.089221,-0.12073,0.1219,-0.19446,-0.8798,-0.78723
431,-0.10806,-0.085648,-0.10774,0.10371,-0.020037,-0.89734,-0.72682
432,-0.097666,-0.092469,-0.096367,0.063763,0.14594,-0.88013,-0.6336
433,-0.094418,-0.10709,-0.084999,0.0059473,0.28918,-0.85252,-0.53551
434,-0.093444,-0.1191,-0.069733,-0.052843,0.40481,-0.82296,-0.44943
435,-0.088572,-0.12235,-0.051219,-0.10481,0.49673,-0.77879,-0.3757
436,-0.081101,-0.11066,-0.032705,-0.14281,0.56884,-0.70213,-0.30554
437,-0.069408,-0.084674,-0.01614,-0.14899,0.6351,-0.59365,-0.22694
438,-0.04992,-0.051868,-0.0018481,-0.11553,0.70688,-0.47217,-0.13664
439,-0.025234,-0.018738,0.011469,-0.052843,0.77347,-0.36531,-0.042449
440,0.0023744,0.0085458,0.024786,0.008221,0.79945,-0.29547,0.042326
441,0.027385,0.02706,0.037778,0.041351,0.75073,-0.26884,0.11216
442,0.046223,0.038753,0.04395,0.03453,0.62633,-0.26657,0.16185
443,0.054019,0.045574,0.0433,-0.0028225,0.46165,-0.2552,0.19434
444,0.055643,0.053369,0.037454,-0.053168,0.31127,-0.21232,0.21772
445,0.057917,0.062789,0.028684,-0.097991,0.19888,-0.14087,0.23169
446,0.066037,0.072208,0.017965,-0.13015,0.11801,-0.059664,0.23299
447,0.081627,0.077405,0.009845,-0.14184,0.042651,0.015042,0.22584
448,0.099492,0.085525,0.0049729,-0.12722,-0.046347,0.070909,0.2187
449,0.11573,0.10501,0.0036737,-0.087597,-0.15483,0.10599,0.2148
450,0.12515,0.13425,0.0049729,-0.03303,-0.27664,0.1206,0.2122
451,0.1271,0.16445,0.0072465,0.027385,-0.38382,0.1206,0.20928
452,0.12613,0.18589,0.0085458,0.088448,-0.43254,0.11898,0.20246
453,0.12223,0.19531,0.0056225,0.15471,-0.39129,0.12613,0.18849
454,0.11573,0.19271,-0.0018481,0.22292,-0.26657,0.14367,0.16608
455,0.10469,0.18232,-0.0083442,0.28236,-0.094093,0.1703,0.13067
456,0.090072,0.16835,-0.0067202,0.31679,0.084551,0.20538,0.081627
457,0.071883,0.15471,0.0049729,0.31614,0.24078,0.24403,0.029333
458,0.056942,0.14561,0.025761,0.27229,0.36811,0.2934,-0.0044465
459,0.049796,0.14334,0.05272,0.19986,0.46847,0.35739,-0.0054209
460,0.050771,0.14594,0.084226,0.11638,0.53538,0.43307,0.02706
461,0.056942,0.14919,0.11118,0.032582,0.5578,0.49738,0.076106
462,0.066362,0.14951,0.1297,-0.042449,0.52499,0.52077,0.11768
463,0.076431,0.14626,0.14172,-0.10124,0.43274,0.47854,0.14042
464,0.08585,0.13912,0.15049,-0.13794,0.27391,0.36941,0.14756
465,0.090397,0.12775,0.16218,-0.15711,0.052395,0.22259,0.14789
466,0.089098,0.11443,0.17939,-0.1623,-0.212,0.078055,0.14626
467,0.082602,0.10242,0.20181,-0.15808,-0.48289,-0.03173,0.14399
468,0.075781,0.097218,0.22259,-0.14736,-0.71545,-0.092794,0.13847
469,0.06831,0.10209,0.24176,-0.13047,-0.87461,-0.10611,0.13002
470,0.06084,0.11508,0.25832,-0.10449,-0.94282,-0.085648,0.11995
471,0.053369,0.1297,0.27034,-0.066485,-0.91553,-0.052518,0.10729
472,0.0433,0.13652,0.27391,-0.016789,-0.7921,-0.029457,0.089423
473,0.028359,0.1258,0.2619,0.039402,-0.59462,-0.026209,0.065062
474,0.011469,0.10014,0.23234,0.096244,-0.37992,-0.039851,0.039078
475,-0.00022403,0.071883,0.18946,0.14496,-0.22629,-0.053168,0.019264
476,-0.0028225,0.049796,0.13814,0.17647,-0.18179,-0.046671,0.008221
477,0.0023744,0.038103,0.087799,0.17939,-0.24188,-0.010293,0.008221
478,0.0088706,0.033231,0.046223,0.15666,-0.35329,0.059865,0.016016
479,0.015367,0.035505,0.020888,0.13555,-0.43059,0.15341,0.034855
480,0.028684,0.04395,0.01894,0.15666,-0.39454,0.2541,0.064737
481,0.05142,0.057267,0.03583,0.22097,-0.23993,0.33952,0.10144
482,0.078055,0.067986,0.056292,0.27554,-0.056741,0.38857,0.1336
483,0.10047,0.068635,0.063438,0.25475,0.038103,0.39831,0.15114
484,0.11151,0.056292,0.053044,0.13782,-0.0034721,0.3811,0.15081
485,0.11248,0.03518,0.031932,-0.04115,-0.13827,0.34635,0.14042
486,0.10014,0.009845,0.011469,-0.21557,-0.29677,0.2921,0.1258
487,0.077405,-0.015165,-0.0031473,-0.31918,-0.42117,0.21382,0.11378
488,0.046873,-0.039201,-0.0080194,-0.31724,-0.48808,0.11671,0.10664
489,0.014717,-0.062587,-0.0031473,-0.22207,-0.49945,0.011144,0.10144
490,-0.016464,-0.084349,0.009845,-0.081101,-0.47184,-0.086298,0.093645
491,-0.038551,-0.098965,0.024137,0.046873,-0.41111,-0.15646,0.08585
492,-0.049595,-0.10254,0.038103,0.1284,-0.31594,-0.18634,0.078379
493,-0.046022,-0.088896,0.055318,0.15926,-0.18212,-0.17692,0.07708
494,-0.031406,-0.062587,0.080328,0.15601,-0.013541,-0.13989,0.086175
495,-0.0083442,-0.026209,0.11443,0.13912,0.16608,-0.097341,0.10924
496,0.020239,0.009845,0.15341,0.1206,0.31906,-0.05804,0.14496
497,0.048822,0.039727,0.18589,0.10794,0.41033,-0.017114,0.18946
498,0.069934,0.06019,0.2057,0.10566,0.4243,0.031282,0.23754
499,0.083251,0.070909,0.2148,0.11281,0.36843,0.088773,0.28333
500,0.090072,0.071883,0.21577,0.12743,0.27359,0.15244,0.31776
501,0.090072,0.062789,0.21317,0.14594,0.18102,0.20895,0.33595
502,0.08585,0.047523,0.20863,0.16185,0.11183,0.24663,0.33855
503,0.078055,0.033556,0.19369,0.17062,0.069934,0.27067,0.32848
504,0.066362,0.023812,0.16445,0.17387,0.057267,0.29665,0.30769
505,0.055318,0.015367,0.12353,0.1703,0.07773,0.34147,0.27099
506,0.045249,0.0095202,0.079679,0.15763,0.1271,0.40871,0.20928
507,0.031282,0.0039985,0.03583,0.1323,0.18719,0.48276,0.11151
508,0.0078962,0.00010078,-0.0057458,0.10242,0.24013,0.52954,-0.019388
509,-0.024585,-0.0011985,-0.040825,0.073182,0.27619,0.51557,-0.1714
510,-0.061288,-0.0011985,-0.069408,0.042001,0.2895,0.41748,-0.32666
511,-0.093769,-0.0037969,-0.090196,0.012443,0.28138,0.23494,-0.47152
512,-0.1191,-0.011267,-0.10124,-0.012892,0.26255,-0.0034721,-0.59267
513,-0.13924,-0.019712,-0.10611,-0.032705,0.24825,-0.24903,-0.68005
514,-0.15223,-0.027833,-0.10514,-0.043423,0.2554,-0.45106,-0.72487
515,-0.15646,-0.034654,-0.10351,-0.043423,0.29892,-0.57708,-0.72032
516,-0.15158,-0.039201,-0.10221,-0.037902,0.37655,-0.62126,-0.66575
517,-0.13567,-0.038227,-0.10319,-0.031406,0.46945,-0.60079,-0.57221
518,-0.11326,-0.03238,-0.10254,-0.021337,0.5526,-0.53973,-0.45495
519,-0.088247,-0.022636,-0.09994,-0.0018481,0.60522,-0.46048,-0.33932
520,-0.061288,-0.0096434,-0.096367,0.028359,0.61951,-0.3796,-0.24838
521,-0.034329,0.0023744,-0.093769,0.061165,0.58963,-0.30879,-0.19706
522,-0.012242,0.012443,-0.089871,0.092346,0.52856,-0.25975,-0.17984
523,0.0036737,0.018615,-0.084674,0.11476,0.46685,-0.24286,-0.17659
524,0.012119,0.01894,-0.081426,0.12288,0.43404,-0.25942,-0.16588
525,0.010819,0.013093,-0.086948,0.11736,0.43177,-0.29807,-0.13177
526,0.0056225,0.0039985,-0.10189,0.10177,0.43859,-0.33088,-0.072006
527,-0.00087364,-0.007045,-0.11845,0.079354,0.42203,-0.32438,0.00010078
528,-0.0044465,-0.015165,-0.12495,0.057592,0.35674,-0.26039,0.068635
529,-0.0024977,-0.021661,-0.12008,0.045574,0.24111,-0.14931,0.11833
530,0.0014,-0.024909,-0.10968,0.039402,0.095919,-0.020687,0.14399
531,0.0056225,-0.02426,-0.098316,0.033881,-0.04992,0.09462,0.15211
532,0.012119,-0.021337,-0.088572,0.030633,-0.1727,0.1703,0.14561
533,0.023487,-0.016789,-0.080776,0.027385,-0.2578,0.19109,0.13327
534,0.037778,-0.015165,-0.073631,0.025111,-0.30132,0.15179,0.1232
535,0.051745,-0.016789,-0.062262,0.020888,-0.31431,0.063438,0.11833
536,0.063113,-0.023935,-0.04992,0.0085458,-0.31529,-0.049595,0.11931
537,0.06831,-0.03303,-0.039851,-0.017439,-0.31854,-0.15905,0.12385
538,0.067011,-0.039851,-0.0405,-0.059014,-0.32828,-0.2448,0.1297
539,0.059865,-0.04115,-0.04862,-0.11261,-0.33283,-0.30067,0.1362
540,0.051745,-0.043748,-0.059014,-0.16425,-0.32081,-0.33055,0.13879
541,0.0433,-0.049595,-0.064861,-0.19608,-0.28735,-0.33478,0.13392
542,0.031282,-0.055441,-0.06551,-0.19056,-0.24383,-0.31269,0.11995
543,0.015692,-0.059989,-0.059989,-0.14899,-0.20583,-0.26754,0.10306
544,0.0010752,-0.063237,-0.053168,-0.090521,-0.17822,-0.2094,0.091047
545,-0.0060706,-0.062587,-0.044073,-0.037252,-0.15808,-0.15938,0.089748
546,-0.0047713,-0.057715,-0.029782,-0.0031473,-0.13567,-0.14281,0.098842
547,0.0059473,-0.047646,-0.0083442,0.008221,-0.095717,-0.1727,0.11736
548,0.021213,-0.034654,0.016991,0.0069217,-0.045372,-0.23863,0.14724
549,0.036804,-0.019712,0.038428,0.01017,-0.0067202,-0.30424,0.18816
550,0.049147,-0.0054209,0.05207,0.033231,-0.0021729,-0.33023,0.23396
551,0.058566,0.0075714,0.061489,0.088124,-0.031406,-0.2971,0.27196
552,0.064413,0.017316,0.06896,0.1716,-0.083375,-0.21882,0.29275
553,0.064413,0.019264,0.080978,0.27132,-0.14574,-0.10838,0.296
554,0.058241,0.015692,0.097543,0.37103,-0.20485,0.021863,0.28301
555,0.046223,0.011794,0.11573,0.44996,-0.25292,0.16023,0.25378
556,0.031607,0.012768,0.12905,0.49316,-0.2906,0.28236,0.20635
557,0.020239,0.01829,0.1349,0.49965,-0.32406,0.36811,0.14464
558,0.014392,0.027385,0.13652,0.47205,-0.36206,0.40838,0.076755
559,0.008221,0.03583,0.14334,0.41228,-0.40981,0.40676,0.01017
560,-0.0031473,0.0433,0.15698,0.31354,-0.45918,0.36876,-0.04992
561,-0.017764,0.055318,0.1716,0.18102,-0.48873,0.30282,-0.096692
562,-0.029782,0.068635,0.18394,0.036804,-0.47672,0.22032,-0.1334
563,-0.034978,0.077405,0.18459,-0.090845,-0.41013,0.13717,-0.161
564,-0.034654,0.073507,0.16965,-0.17887,-0.2919,0.067986,-0.18764
565,-0.032055,0.054344,0.14626,-0.22337,-0.14119,0.020239,-0.22012
566,-0.031081,0.02641,0.12028,-0.24091,0.0043233,-0.0047713,-0.25325
567,-0.030431,-0.0047713,0.09397,-0.2461,0.10956,-0.007045,-0.27111
568,-0.027183,-0.032055,0.067986,-0.24253,0.1664,0.014392,-0.26039
569,-0.018738,-0.044073,0.045574,-0.22694,0.18622,0.062789,-0.21785
570,-0.0024977,-0.036602,0.029658,-0.19283,0.18264,0.1323,-0.15386
571,0.01829,-0.014516,0.01764,-0.14444,0.16543,0.20311,-0.082076
572,0.038753,0.010819,0.0065969,-0.093769,0.1362,0.25507,-0.018738
573,0.051745,0.030308,-0.0044465,-0.054467,0.093645,0.27944,0.027385
574,0.053044,0.041351,-0.017439,-0.032055,0.036804,0.28496,0.051096
575,0.048172,0.048172,-0.034329,-0.022961,-0.025559,0.28885,0.053694
576,0.049147,0.056942,-0.04992,-0.017439,-0.077528,0.30964,0.049796
577,0.060515,0.072533,-0.05739,-0.0089938,-0.098641,0.35447,0.05142
578,0.080328,0.094295,-0.057715,-0.0011985,-0.076229,0.41813,0.067661
579,0.10047,0.11541,-0.057715,0.0088706,-0.017764,0.48796,0.098517
580,0.11443,0.13425,-0.057065,0.021538,0.057267,0.54643,0.13749
581,0.12418,0.14789,-0.053817,0.029333,0.13425,0.57501,0.17192
582,0.12645,0.15796,-0.052843,0.023812,0.19434,0.55877,0.19466
583,0.12288,0.16543,-0.053168,0.0036737,0.22714,0.50095,0.20408
584,0.11963,0.1729,-0.048296,-0.018413,0.23916,0.4256,0.20928
585,0.12125,0.18199,-0.030431,-0.019063,0.24241,0.35836,0.22065
586,0.12807,0.19628,0.0026992,0.019264,0.25085,0.31906,0.23948
587,0.13782,0.21545,0.051096,0.096244,0.28333,0.30769,0.25897
588,0.14464,0.24176,0.11118,0.19466,0.36421,0.30964,0.27391
589,0.13977,0.26742,0.1755,0.28008,0.49933,0.30055,0.28333
590,0.12223,0.28431,0.22844,0.31127,0.64549,0.26612,0.28561
591,0.097218,0.28333,0.25443,0.25832,0.73839,0.2044,0.27976
592,0.071234,0.26742,0.25183,0.1284,0.74229,0.12353,0.26384
593,0.046548,0.24501,0.23559,-0.038227,0.66368,0.038753,0.23754
594,0.025111,0.21935,0.21707,-0.18504,0.53863,-0.034654,0.20278
595,0.0091954,0.19304,0.20148,-0.26624,0.41228,-0.090196,0.15698
596,-0.00054884,0.16413,0.18589,-0.27664,0.31874,-0.13145,0.10047
597,-0.0076946,0.13522,0.16315,-0.23831,0.26742,-0.1662,0.034855
598,-0.01549,0.10501,0.12937,-0.17757,0.25378,-0.19966,-0.038227
599,-0.025884,0.075781,0.085525,-0.11715,0.25378,-0.23961,-0.11975
600,-0.038551,0.05207,0.032906,-0.069733,0.23948,-0.2893,-0.21232
601,-0.055441,0.032257,-0.022311,-0.040175,0.19141,-0.34062,-0.31074
602,-0.075255,0.012119,-0.075579,-0.024909,0.11833,-0.37895,-0.39649
603,-0.090845,-0.0060706,-0.11748,-0.012567,0.041027,-0.39032,-0.44391
604,-0.096692,-0.017764,-0.14476,0.0049729,-0.021661,-0.36985,-0.428
605,-0.087922,-0.022311,-0.15905,0.028684,-0.07428,-0.32925,-0.35037
606,-0.071032,-0.023935,-0.1649,0.054019,-0.14249,-0.28216,-0.24123
607,-0.054142,-0.028807,-0.17075,0.07708,-0.24545,-0.23636,-0.14444
608,-0.044723,-0.033679,-0.17822,0.096569,-0.3731,-0.19933,-0.088896
609,-0.042449,-0.037577,-0.18471,0.10599,-0.49978,-0.16945,-0.080127
610,-0.044398,-0.037577,-0.18829,0.098193,-0.58942,-0.13567,-0.10059
611,-0.047321,-0.035953,-0.18666,0.074806,-0.60924,-0.094743,-0.1217
612,-0.047646,-0.033679,-0.17984,0.046873,-0.55142,-0.053168,-0.11845
613,-0.042449,-0.03173,-0.1714,0.019914,-0.44359,-0.020687,-0.082076
614,-0.028807,-0.033679,-0.16458,-0.0018481,-0.32925,0.0014,-0.018088
615,-0.0080194,-0.040175,-0.15873,-0.022311,-0.23993,0.014392,0.06084
616,0.015367,-0.050894,-0.15451,-0.045372,-0.16718,0.024461,0.13847
617,0.034206,-0.062262,-0.14801,-0.066485,-0.089221,0.034206,0.19953
618,0.046223,-0.072981,-0.13859,-0.0837,0.012768,0.041676,0.23689
619,0.050121,-0.080451,-0.12917,-0.098316,0.1362,0.041676,0.24695
620,0.044924,-0.086623,-0.123,-0.11326,0.26319,0.025761,0.22389
621,0.028684,-0.092145,-0.12527,-0.12722,0.3837,-0.011592,0.16543
622,0.0017248,-0.10189,-0.13534,-0.13957,0.49088,-0.069408,0.081952
623,-0.027183,-0.11196,-0.15061,-0.15451,0.56819,-0.13924,-0.0093186
624,-0.048945,-0.11618,-0.16523,-0.16198,0.57793,-0.20583,-0.088572
625,-0.060638,-0.11163,-0.16685,-0.14411,0.49283,-0.25162,-0.13827
626,-0.059664,-0.10124,-0.14931,-0.086623,0.31354,-0.26299,-0.14996
627,-0.04992,-0.090521,-0.11196,0.016666,0.084876,-0.24026,-0.12722
628,-0.034654,-0.079802,-0.059664,0.14854,-0.11066,-0.19056,-0.085973
629,-0.01614,-0.070058,-0.0037969,0.27911,-0.21525,-0.12917,-0.051868
630,0.0017248,-0.055766,0.046548,0.37395,-0.23636,-0.076554,-0.037577
631,0.01764,-0.038227,0.089748,0.40708,-0.22661,-0.045047,-0.034329
632,0.02706,-0.019712,0.13035,0.37525,-0.24318,-0.039201,-0.027183
633,0.029333,-0.0024977,0.17095,0.28853,-0.30294,-0.048945,-0.0057458
634,0.024786,0.013093,0.20733,0.17582,-0.39064,-0.056741,0.030633
635,0.017316,0.022512,0.23559,0.069285,-0.48094,-0.04862,0.074482
636,0.009845,0.021863,0.24501,-0.0093186,-0.55532,-0.02426,0.11898
637,0.0039985,0.015692,0.23461,-0.054142,-0.61216,0.009845,0.15341
638,0.00010078,0.0056225,0.21155,-0.070382,-0.65244,0.044599,0.1703
639,-0.0063954,-0.010293,0.18589,-0.067784,-0.6664,0.075781,0.16965
640,-0.014516,-0.029457,0.15958,-0.060313,-0.64042,0.098517,0.15471
641,-0.019388,-0.052518,0.13002,-0.062262,-0.56474,0.11118,0.12743
642,-0.021337,-0.07428,0.094945,-0.076554,-0.44131,0.11638,0.08585
643,-0.024909,-0.092145,0.054019,-0.097991,-0.2932,0.11703,0.029333
644,-0.036278,-0.10514,0.011144,-0.12463,-0.15905,0.10761,-0.042124
645,-0.053492,-0.11098,-0.027833,-0.15353,-0.061613,0.079354,-0.123
646,-0.069408,-0.11066,-0.059339,-0.18407,0.0010752,0.025111,-0.19966
647,-0.075579,-0.10286,-0.080451,-0.21655,0.054019,-0.047321,-0.2565
648,-0.06616,-0.087272,-0.093119,-0.24773,0.11346,-0.11943,-0.28508
649,-0.045047,-0.068109,-0.098641,-0.26754,0.17874,-0.1714,-0.28346
650,-0.020037,-0.048945,-0.098316,-0.26981,0.23201,-0.19056,-0.25487
651,0.0056225,-0.031081,-0.098316,-0.25552,0.25443,-0.17789,-0.20355
652,0.030308,-0.017439,-0.09994,-0.23214,0.23624,-0.14541,-0.1334
653,0.053694,-0.0067202,-0.10221,-0.20778,0.18199,-0.11196,-0.053492
654,0.070909,-0.0015233,-0.10124,-0.18244,0.10631,-0.098316,0.016341
655,0.080003,-0.0011985,-0.092794,-0.15061,0.026085,-0.11196,0.062789
656,0.082277,0.00010078,-0.071682,-0.097991,-0.034004,-0.14216,0.0865
657,0.081952,0.0072465,-0.036602,-0.023285,-0.047971,-0.1649,0.090072
658,0.081303,0.020239,0.01017,0.058241,0.0026992,-0.16068,0.086175
659,0.080003,0.03518,0.062464,0.12158,0.10242,-0.12463,0.0852
660,0.078704,0.044924,0.11054,0.15016,0.21155,-0.057065,0.092671
661,0.079354,0.048497,0.14886,0.14399,0.28885,0.039402,0.10664
662,0.082602,0.05207,0.18134,0.11833,0.31939,0.16153,0.12515
663,0.090072,0.06084,0.21252,0.09397,0.31549,0.296,0.14854
664,0.10144,0.07773,0.2489,0.08585,0.30347,0.41456,0.17907
665,0.11573,0.10144,0.29113,0.10209,0.2999,0.49056,0.21935
666,0.13002,0.12483,0.32816,0.14789,0.30574,0.5016,0.26807
667,0.13912,0.14367,0.34635,0.22487,0.30964,0.44281,0.32004
668,0.14399,0.16023,0.34017,0.32036,0.29762,0.33205,0.36713
669,0.14626,0.17972,0.31744,0.41423,0.2554,0.20765,0.39961
670,0.14496,0.20473,0.28821,0.48244,0.16153,0.11183,0.40806
671,0.13944,0.22844,0.25995,0.5081,0.0036737,0.072533,0.38792
672,0.13197,0.24371,0.23039,0.49316,-0.19738,0.091047,0.34602
673,0.12255,0.24273,0.19271,0.44898,-0.39357,0.15049,0.29275
674,0.11086,0.22422,0.14529,0.39474,-0.54038,0.22779,0.23656
675,0.098517,0.19369,0.09397,0.34375,-0.60599,0.30964,0.18784
676,0.090072,0.15926,0.048172,0.3012,-0.58163,0.3811,0.15309
677,0.086175,0.13165,0.01764,0.26969,-0.48224,0.4243,0.13165
678,0.084226,0.11541,0.0036737,0.24566,-0.34192,0.42268,0.11411
679,0.081627,0.10599,0.0014,0.22454,-0.20096,0.36421,0.080003
680,0.075131,0.098517,0.0023744,0.21025,-0.092794,0.25735,0.009845
681,0.063113,0.091696,-0.0037969,0.19499,-0.033679,0.12775,-0.098965
682,0.048822,0.089748,-0.021661,0.169,-0.017114,0.0020496,-0.23181
683,0.033881,0.091047,-0.046671,0.12483,-0.026209,-0.098641,-0.36044
684,0.014717,0.091696,-0.071682,0.062139,-0.043099,-0.16068,-0.4543
685,-0.0089938,0.086824,-0.092794,-0.0083442,-0.053492,-0.18147,-0.49653
686,-0.033354,0.07773,-0.10968,-0.070382,-0.046671,-0.17237,-0.48906
687,-0.051868,0.065712,-0.1217,-0.11293,-0.010943,-0.15353,-0.44813
688,-0.061613,0.05207,-0.12755,-0.12885,0.049796,-0.14216,-0.39616
689,-0.067134,0.03453,-0.1295,-0.12268,0.11508,-0.15093,-0.34387
690,-0.073306,0.0085458,-0.13664,-0.10156,0.16705,-0.18796,-0.29515
691,-0.081751,-0.023935,-0.15158,-0.085648,0.19921,-0.2513,-0.25357
692,-0.089546,-0.05739,-0.1688,-0.089546,0.21447,-0.32601,-0.21557
693,-0.093119,-0.084999,-0.18049,-0.11293,0.22032,-0.39097,-0.17432
694,-0.088572,-0.095717,-0.17822,-0.13957,0.22812,-0.4267,-0.12787
695,-0.080451,-0.089871,-0.16263,-0.15711,0.25313,-0.42215,-0.0824
696,-0.071357,-0.076554,-0.14022,-0.15483,0.29925,-0.37798,-0.051219
697,-0.065186,-0.061937,-0.11813,-0.13015,0.35739,-0.30424,-0.036602
698,-0.057715,-0.050894,-0.10416,-0.086948,0.41391,-0.22239,-0.032055
699,-0.047646,-0.048296,-0.097341,-0.030431,0.44704,-0.14931,-0.029457
700,-0.034329,-0.056091,-0.094093,0.01894,0.44411,-0.094743,-0.020362
701,-0.022311,-0.067459,-0.093119,0.046548,0.39767,-0.056741,0.0046481
702,-0.01484,-0.07493,-0.092145,0.040702,0.31744,-0.024585,0.04395
703,-0.013866,-0.072981,-0.087272,0.0078962,0.22259,0.011794,0.084226
704,-0.017114,-0.061937,-0.078503,-0.032055,0.13132,0.06019,0.11866
705,-0.022961,-0.04927,-0.068758,-0.060638,0.050121,0.11801,0.14367
706,-0.028157,-0.043099,-0.058365,-0.071682,-0.020687,0.17647,0.16121
707,-0.029457,-0.047971,-0.051544,-0.076229,-0.076879,0.22162,0.17517
708,-0.028807,-0.055766,-0.051219,-0.090845,-0.11358,0.24858,0.18589
709,-0.026209,-0.063886,-0.05804,-0.12138,-0.11813,0.25735,0.19076
710,-0.022961,-0.069083,-0.06616,-0.15548,-0.086298,0.24858,0.18979
711,-0.018738,-0.068109,-0.06616,-0.17335,-0.024909,0.22389,0.17745
712,-0.014191,-0.063237,-0.056416,-0.1701,0.049796,0.18134,0.14691
713,-0.011592,-0.054142,-0.0405,-0.15126,0.11768,0.1219,0.10501
714,-0.013866,-0.046022,-0.019712,-0.11618,0.169,0.056617,0.064737
715,-0.020362,-0.039851,0.0010752,-0.064861,0.20018,0.0020496,0.041676
716,-0.027508,-0.036278,0.020888,-0.0031473,0.21058,-0.034004,0.041027
717,-0.029782,-0.030431,0.03518,0.056617,0.20343,-0.04992,0.058241
718,-0.022636,-0.020037,0.046223,0.10242,0.17874,-0.056416,0.081627
719,-0.008669,-0.0057458,0.054668,0.13587,0.13002,-0.069083,0.10371
720,0.010495,0.008221,0.061165,0.16445,0.057917,-0.098641,0.11963
721,0.02706,0.017316,0.070584,0.19239,-0.013866,-0.14541,0.13002
722,0.038103,0.019914,0.081303,0.21675,-0.048945,-0.19511,0.13262
723,0.041676,0.014717,0.086824,0.2135,-0.045697,-0.22759,0.13132
724,0.038753,0.0014,0.077405,0.15341,-0.0405,-0.22629,0.13295
725,0.031282,-0.018088,0.050446,0.036479,-0.076229,-0.18407,0.1362
726,0.023487,-0.040175,0.015692,-0.097666,-0.16295,-0.10481,0.14107
727,0.016666,-0.059014,-0.012567,-0.19154,-0.27144,-0.0021729,0.14724
728,0.014068,-0.063561,-0.020687,-0.19901,-0.35914,0.10924,0.15796
729,0.01829,-0.047646,-0.0050961,-0.10806,-0.38934,0.21058,0.17485
730,0.033231,-0.013216,0.030633,0.051096,-0.34095,0.28528,0.19499
731,0.056292,0.025761,0.072858,0.23071,-0.22434,0.31679,0.21123
732,0.078704,0.053369,0.10859,0.39214,-0.076879,0.29373,0.2161
733,0.093645,0.063438,0.13132,0.5094,0.053694,0.21188,0.20765
734,0.097868,0.062464,0.14561,0.56234,0.13165,0.07773,0.18557
735,0.089748,0.062139,0.15763,0.52402,0.14821,-0.086298,0.15276
736,0.069285,0.06896,0.16315,0.37948,0.11833,-0.24935,0.11054
737,0.04395,0.079679,0.15861,0.15503,0.064088,-0.38512,0.062789
738,0.019589,0.087799,0.14529,-0.0837,-0.00054884,-0.47932,0.009845
739,0.0026992,0.088773,0.1297,-0.26299,-0.068434,-0.53128,-0.054142
740,-0.0041217,0.087149,0.12125,-0.33478,-0.14476,-0.55759,-0.12625
741,0.00075039,0.088124,0.1232,-0.28963,-0.23084,-0.56604,-0.19511
742,0.013743,0.092021,0.1323,-0.15711,-0.31626,-0.55824,-0.24578
743,0.029333,0.098517,0.14172,0.0036737,-0.37603,-0.52609,-0.26657
744,0.0433,0.10534,0.14691,0.12613,-0.3848,-0.47217,-0.25162
745,0.053044,0.10729,0.13977,0.1651,-0.34192,-0.41825,-0.20778
746,0.058566,0.098193,0.11313,0.10761,-0.26884,-0.38674,-0.15418
747,0.056617,0.075781,0.067661,-0.021337,-0.19446,-0.37927,-0.11001
748,0.042975,0.044275,0.014068,-0.16295,-0.13404,-0.37992,-0.084999
749,0.016991,0.015042,-0.035628,-0.25715,-0.09117,-0.36271,-0.081426
750,-0.010293,-0.0054209,-0.073306,-0.27534,-0.068109,-0.30262,-0.090196
751,-0.030106,-0.019388,-0.094418,-0.22434,-0.061613,-0.18244,-0.097017
752,-0.034329,-0.03238,-0.10156,-0.13794,-0.078503,-0.0050961,-0.088896
753,-0.025234,-0.045372,-0.097017,-0.056741,-0.12625,0.19986,-0.058689
754,-0.0096434,-0.053817,-0.085324,-0.0096434,-0.20323,0.38435,-0.013216
755,0.0017248,-0.055441,-0.067784,0.0065969,-0.2854,0.51232,0.034855
756,0.0088706,-0.045697,-0.049595,0.015042,-0.33997,0.57371,0.073507
757,0.013743,-0.026858,-0.035303,0.039078,-0.34095,0.57826,0.099492
758,0.015692,-0.0054209,-0.028157,0.080978,-0.28865,0.54805,0.11313
759,0.013743,0.011794,-0.030431,0.11541,-0.21817,0.50777,0.11443
760,0.0078962,0.020888,-0.039526,0.11183,-0.16847,0.47529,0.10566
761,-0.0011985,0.020564,-0.052193,0.057917,-0.15256,0.45516,0.090722
762,-0.0047713,0.013093,-0.065186,-0.028157,-0.15223,0.44898,0.078055
763,0.00010078,0.0072465,-0.07493,-0.11326,-0.13469,0.4584,0.075456
764,0.0062721,0.0075714,-0.080127,-0.16912,-0.081426,0.47692,0.082602
765,0.0075714,0.016991,-0.079477,-0.19024,0.0075714,0.48049,0.089423
766,0.0026992,0.032582,-0.069733,-0.17984,0.11833,0.44574,0.083576
767,-0.0050961,0.049147,-0.050244,-0.15061,0.24013,0.3733,0.057592
768,-0.012892,0.058891,-0.024585,-0.11423,0.3798,0.29243,0.01894
769,-0.016464,0.065387,0.0033489,-0.083375,0.53733,0.23039,-0.018413
770,-0.015815,0.076755,0.028359,-0.065186,0.69324,0.20181,-0.043748
771,-0.010943,0.097543,0.05272,-0.054467,0.81212,0.20181,-0.060313
772,-0.0057458,0.1219,0.080328,-0.042449,0.86441,0.21382,-0.072981
773,-0.00022403,0.14042,0.11054,-0.023935,0.83226,0.22194,-0.078827
774,0.0091954,0.15016,0.14204,0.0014,0.72637,0.21967,-0.070707
775,0.026735,0.15081,0.1729,0.029983,0.57469,0.21188,-0.043099
776,0.049796,0.14919,0.20181,0.059216,0.42105,0.2057,0.0020496
777,0.072858,0.14594,0.22357,0.082602,0.3038,0.20928,0.056942
778,0.093645,0.14367,0.23039,0.10047,0.23916,0.22519,0.11443
779,0.11021,0.14789,0.22292,0.11248,0.22129,0.24955,0.1651
780,0.11638,0.16121,0.20668,0.11736,0.22649,0.26904,0.20213
781,0.11021,0.1781,0.18719,0.11541,0.22747,0.27067,0.22194
782,0.093645,0.19109,0.169,0.10761,0.21252,0.25053,0.22584
783,0.077405,0.19271,0.15244,0.096893,0.17745,0.2109,0.21447
784,0.069285,0.18102,0.1362,0.088773,0.1297,0.16348,0.19531
785,0.069934,0.16023,0.11606,0.083251,0.087799,0.11995,0.17842
786,0.073182,0.13295,0.087799,0.071558,0.075131,0.088773,0.16543
787,0.073182,0.10047,0.055968,0.048172,0.10112,0.069285,0.15211
788,0.067336,0.069285,0.025761,0.012119,0.16088,0.05272,0.13327
789,0.056942,0.047523,0.0046481,-0.034329,0.23396,0.026085,0.10339
790,0.045249,0.038428,-0.0050961,-0.07493,0.28626,-0.013866,0.061814
791,0.037454,0.038103,-0.010618,-0.097341,0.28268,-0.068434,0.0049729
792,0.034206,0.039402,-0.013541,-0.093444,0.20928,-0.13469,-0.067784
793,0.034206,0.039078,-0.013216,-0.060963,0.084876,-0.21362,-0.15678
794,0.029658,0.03518,-0.008669,-0.0099683,-0.051544,-0.30457,-0.25422
795,0.018615,0.031932,-0.0018481,0.0433,-0.16035,-0.40201,-0.34809
796,-0.00087364,0.030308,0.0023744,0.087474,-0.21979,-0.4962,-0.42475
797,-0.019063,0.028359,-0.00087364,0.11378,-0.23181,-0.57189,-0.46827
798,-0.027183,0.022837,-0.0063954,0.11931,-0.20485,-0.60826,-0.46502
799,-0.020037,0.014068,-0.011592,0.10404,-0.15029,-0.59527,-0.41695
800,0.0010752,0.0049729,-0.014191,0.071234,-0.094743,-0.53875,-0.33543
801,0.029333,-0.0024977,-0.01614,0.022837,-0.085648,-0.4582,-0.24026
802,0.057917,-0.0067202,-0.019063,-0.02426,-0.15353,-0.37148,-0.14801
803,0.080653,-0.007045,-0.018738,-0.054467,-0.28605,-0.28865,-0.065835
804,0.091696,-0.0073698,-0.013541,-0.059664,-0.43547,-0.20843,0.0036737
805,0.094295,-0.01614,-0.007045,-0.045047,-0.55077,-0.13015,0.059541
806,0.088124,-0.037577,-0.0028225,-0.020037,-0.60014,-0.050244,0.099817
807,0.074482,-0.069408,-0.0041217,0.012119,-0.57221,0.024461,0.1232
808,0.056617,-0.10026,-0.0099683,0.050771,-0.47996,0.084876,0.1336
809,0.037778,-0.11943,-0.018738,0.096244,-0.35329,0.12483,0.13814
810,0.022837,-0.12203,-0.027508,0.14204,-0.21752,0.14139,0.14659
811,0.012443,-0.11098,-0.036602,0.17745,-0.081426,0.14432,0.15991
812,0.008221,-0.090196,-0.042774,0.19856,0.059541,0.14302,0.16738
813,0.0085458,-0.073306,-0.046671,0.21382,0.2057,0.14821,0.16673
814,0.009845,-0.069408,-0.049595,0.22812,0.33368,0.16445,0.15406
815,0.009845,-0.075255,-0.052843,0.24111,0.41553,0.18751,0.12743
816,0.0062721,-0.080776,-0.053492,0.25475,0.43015,0.21285,0.090072
817,-0.00054884,-0.079152,-0.048296,0.27261,0.37785,0.23039,0.054993
818,-0.007045,-0.072981,-0.034329,0.2947,0.28496,0.23266,0.038428
819,-0.011267,-0.065835,-0.015165,0.31257,0.18394,0.22,0.048822
820,-0.011917,-0.058689,-0.0011985,0.32718,0.10436,0.19693,0.072533
821,-0.0093186,-0.051868,0.0033489,0.34115,0.06084,0.17355,0.091047
822,-0.0015233,-0.047321,-0.0015233,0.34959,0.042651,0.15211,0.087149
823,0.0069217,-0.043099,-0.0093186,0.33985,0.032257,0.13295,0.064737
824,0.012768,-0.036278,-0.012567,0.30704,0.018615,0.11346,0.038753
825,0.012443,-0.026533,-0.008669,0.25572,0.00010078,0.097543,0.026085
826,0.0069217,-0.013216,0.0049729,0.19628,-0.020687,0.088124,0.032582
827,0.00010078,0.0039985,0.025436,0.1336,-0.038227,0.091047,0.058241
828,0.00010078,0.024137,0.04395,0.06961,-0.048945,0.10469,0.093321
829,0.0085458,0.042975,0.054344,0.0069217,-0.05804,0.12093,0.12743
830,0.022188,0.058241,0.053694,-0.053168,-0.067784,0.12743,0.15763
831,0.037129,0.068635,0.049796,-0.10579,-0.078827,0.11313,0.17745
832,0.046873,0.076755,0.053044,-0.14087,-0.090845,0.073507,0.17874
833,0.045574,0.088124,0.064088,-0.15321,-0.10319,0.011144,0.16153
834,0.040702,0.10209,0.079679,-0.14379,-0.11521,-0.071032,0.12548
835,0.034855,0.11346,0.087474,-0.12138,-0.1295,-0.16393,0.06961
836,0.027709,0.11573,0.080978,-0.097666,-0.14769,-0.24708,0.008221
837,0.016666,0.10534,0.059541,-0.081101,-0.16945,-0.30035,-0.038227
838,0.0026992,0.084226,0.02706,-0.075904,-0.18926,-0.31236,-0.05804
839,-0.010293,0.053369,-0.0089938,-0.084349,-0.20063,-0.28281,-0.04992
840,-0.019712,0.019914,-0.034329,-0.10189,-0.19966,-0.22499,-0.024909
841,-0.027508,-0.0063954,-0.047646,-0.12268,-0.18147,-0.15353,0.0026992
842,-0.033679,-0.019712,-0.050894,-0.14444,-0.14671,-0.088247,0.021213
843,-0.039201,-0.018088,-0.046671,-0.1649,-0.096367,-0.045047,0.029658
844,-0.041799,-0.0050961,-0.037902,-0.1753,-0.038227,-0.026209,0.027385
845,-0.041475,0.01017,-0.031081,-0.17302,0.017316,-0.022311,0.016666
846,-0.030756,0.015692,-0.028157,-0.16068,0.061165,-0.015165,0.0049729
847,-0.013866,0.009845,-0.030106,-0.14022,0.081303,0.011794,-0.0024977
848,0.0072465,-0.00087364,-0.035303,-0.11521,0.070909,0.062139,-0.0057458
849,0.02641,-0.0057458,-0.045047,-0.096692,0.031282,0.11898,-0.0080194
850,0.037778,-0.00054884,-0.060313,-0.093769,-0.022636,0.16413,-0.0099683
851,0.043625,0.016341,-0.075255,-0.10903,-0.073306,0.18329,-0.011267
852,0.047847,0.040702,-0.085648,-0.13112,-0.11131,0.17322,-0.012242
853,0.053044,0.064413,-0.09117,-0.14964,-0.13372,0.14009,-0.011267
854,0.057592,0.078055,-0.096042,-0.16003,-0.14346,0.092021,-0.010618
855,0.059865,0.080978,-0.10059,-0.16685,-0.14411,0.040377,-0.010618
856,0.06084,0.078704,-0.10026,-0.17497,-0.13599,-0.0018481,-0.011267
857,0.062464,0.078704,-0.092145,-0.17952,-0.12105,-0.029457,-0.011917
858,0.062789,0.080978,-0.072006,-0.1688,-0.10644,-0.047321,-0.022311
859,0.058891,0.082277,-0.037252,-0.14054,-0.094093,-0.059989,-0.048945
860,0.047523,0.081627,0.01017,-0.10319,-0.080451,-0.06616,-0.079152
861,0.027385,0.082277,0.061489,-0.067459,-0.065835,-0.06551,-0.096042
862,0.0059473,0.086824,0.11021,-0.041799,-0.050244,-0.060313,-0.087272
863,-0.007045,0.094945,0.14724,-0.021986,-0.036602,-0.050569,-0.051219
864,-0.0041217,0.10794,0.17257,0.0017248,-0.0405,-0.043099,0.0046481
865,0.012768,0.1219,0.18362,0.03583,-0.0824,-0.044398,0.061165
866,0.032906,0.13587,0.18362,0.076755,-0.1727,-0.05804,0.099817
867,0.045574,0.14626,0.17777,0.10761,-0.2932,-0.088572,0.11541
868,0.048497,0.15146,0.16965,0.11281,-0.41143,-0.13729,0.11476
869,0.044599,0.15373,0.15698,0.092021,-0.49198,-0.19478,0.11118
870,0.041676,0.15276,0.14204,0.061165,-0.50725,-0.2552,0.10761
871,0.042651,0.14724,0.12418,0.039402,-0.45366,-0.31983,0.091047
872,0.047523,0.13782,0.10501,0.035505,-0.35556,-0.39909,0.044599
873,0.047847,0.12255,0.088124,0.044599,-0.2448,-0.50075,-0.032055
874,0.035505,0.10306,0.076431,0.051745,-0.14574,-0.60859,-0.12073
875,0.011469,0.076431,0.063438,0.041676,-0.065186,-0.6807,-0.18861
876,-0.013216,0.042326,0.045574,0.01017,0.0078962,-0.66673,-0.20843
877,-0.029457,0.0072465,0.022188,-0.029132,0.092021,-0.53843,-0.1727
878,-0.034004,-0.018413,0.0010752,-0.057065,0.19531,-0.31009,-0.094418
879,-0.028807,-0.032705,-0.008669,-0.056416,0.31971,-0.027833,-0.0041217
880,-0.018088,-0.035628,-0.0050961,-0.013216,0.46977,0.24695,0.066037
881,-0.0041217,-0.031406,0.0052977,0.080328,0.64647,0.46555,0.096569
882,0.009845,-0.025559,0.016666,0.21967,0.82414,0.60002,0.088448
883,0.01764,-0.027833,0.022188,0.36876,0.95016,0.64257,0.053369
884,0.014392,-0.043748,0.013093,0.47042,0.95633,0.60359,0.012119
885,-0.00022403,-0.069408,-0.011592,0.47854,0.81017,0.50745,-0.012242
886,-0.021986,-0.094743,-0.052518,0.39994,0.54253,0.39117,-0.011917
887,-0.047321,-0.11326,-0.096692,0.28691,0.23364,0.29178,0.0069217
888,-0.070058,-0.1217,-0.13015,0.19434,-0.020687,0.22259,0.025761
889,-0.084999,-0.12333,-0.14249,0.14724,-0.15256,0.1755,0.024137
890,-0.089871,-0.12105,-0.13794,0.13814,-0.15613,0.13782,-0.0080194
891,-0.089221,-0.11586,-0.12787,0.14886,-0.075904,0.095919,-0.063561
892,-0.089546,-0.11326,-0.12203,0.15991,0.026735,0.043625,-0.12625
893,-0.096692,-0.11878,-0.12365,0.1664,0.098193,-0.025234,-0.18244
894,-0.10936,-0.13307,-0.1308,0.17225,0.11801,-0.11228,-0.22142
895,-0.12008,-0.15223,-0.13372,0.18069,0.092346,-0.21427,-0.24156
896,-0.12333,-0.1636,-0.13145,0.19758,0.041676,-0.32341,-0.24578
897,-0.11813,-0.16035,-0.123,0.22584,-0.0044465,-0.41923,-0.23896
898,-0.10481,-0.13859,-0.10676,0.26579,-0.019063,-0.47932,-0.21817
899,-0.0837,-0.10189,-0.081751,0.30867,0.016666,-0.49426,-0.18342
900,-0.056741,-0.062262,-0.050894,0.33563,0.097218,-0.46372,-0.13404
901,-0.023935,-0.03238,-0.021337,0.33303,0.19791,-0.39097,-0.07493
902,0.0056225,-0.017439,0.003024,0.29925,0.27846,-0.2867,-0.013216
903,0.027385,-0.015815,0.020239,0.24695,0.29957,-0.1675,0.0433
904,0.038428,-0.021661,0.031282,0.18362,0.23948,-0.051544,0.090397
905,0.040702,-0.029132,0.036479,0.11736,0.10306,0.042975,0.12255
906,0.037454,-0.032705,0.034855,0.05142,-0.077528,0.10371,0.14432
907,0.034855,-0.026533,0.034855,-0.016789,-0.25292,0.1232,0.16445
908,0.03518,-0.013541,0.041676,-0.086623,-0.38447,0.10242,0.18459
909,0.038428,0.0026992,0.053694,-0.14866,-0.45203,0.05272,0.19953
910,0.04395,0.01829,0.065712,-0.19966,-0.45366,-0.0099683,0.20246
911,0.05207,0.031607,0.073507,-0.23474,-0.40623,-0.06681,0.19628
912,0.062464,0.041676,0.080003,-0.24773,-0.33185,-0.10156,0.17972
913,0.072208,0.048172,0.088773,-0.24123,-0.2552,-0.10156,0.15114
914,0.076431,0.050771,0.094295,-0.22207,-0.19413,-0.062262,0.10924
915,0.072858,0.054668,0.09462,-0.19478,-0.15938,0.011144,0.066686
916,0.064088,0.060515,0.088448,-0.16718,-0.14704,0.11346,0.039078
917,0.058891,0.065712,0.078704,-0.14379,-0.13242,0.23071,0.032906
918,0.060515,0.069285,0.070909,-0.12495,-0.083375,0.3418,0.045249
919,0.067011,0.069934,0.061489,-0.10741,0.0046481,0.42268,0.068635
920,0.072533,0.070584,0.047198,-0.093769,0.10794,0.45353,0.094945
921,0.071883,0.075131,0.024137,-0.085973,0.19401,0.43145,0.11606
922,0.066686,0.083901,-0.0015233,-0.087597,0.24825,0.37623,0.1271
923,0.056292,0.095269,-0.024585,-0.095068,0.27521,0.31516,0.1336
924,0.047847,0.10469,-0.042449,-0.10319,0.28983,0.27651,0.14269
925,0.042975,0.10631,-0.052193,-0.10774,0.30055,0.27976,0.15763
926,0.044599,0.095919,-0.056741,-0.11618,0.30574,0.32686,0.17257
927,0.051745,0.074482,-0.060313,-0.13469,0.30055,0.40254,0.17972
928,0.061165,0.049796,-0.065835,-0.17075,0.28723,0.48212,0.17615
929,0.072208,0.025111,-0.076229,-0.22694,0.27554,0.54026,0.15991
930,0.081952,0.0072465,-0.091495,-0.28963,0.27261,0.54805,0.13782
931,0.084876,-0.0044465,-0.10644,-0.3416,0.27879,0.48439,0.11313
932,0.081627,-0.012242,-0.11196,-0.36401,0.29113,0.34147,0.089098
933,0.069934,-0.020037,-0.10774,-0.35167,0.2999,0.14269,0.059216
934,0.051745,-0.031406,-0.10254,-0.31529,0.28593,-0.07428,0.017316
935,0.031282,-0.046022,-0.10319,-0.27566,0.23786,-0.25292,-0.029782
936,0.01017,-0.060313,-0.11098,-0.23993,0.15666,-0.35524,-0.065186
937,-0.0067202,-0.070382,-0.12105,-0.19966,0.051096,-0.37668,-0.080451
938,-0.016464,-0.075255,-0.12463,-0.14606,-0.085973,-0.34907,-0.077528
939,-0.020037,-0.075255,-0.11618,-0.075904,-0.2578,-0.31399,-0.064536
940,-0.020037,-0.071032,-0.095068,0.011469,-0.4595,-0.2945,-0.050569
941,-0.017439,-0.061288,-0.063886,0.10566,-0.66153,-0.28865,-0.035953
942,-0.012567,-0.04862,-0.026858,0.18134,-0.81841,-0.26657,-0.019063
943,-0.0080194,-0.034004,0.010495,0.20343,-0.89832,-0.20258,0.003024
944,-0.0057458,-0.023285,0.039402,0.15666,-0.90156,-0.096692,0.031607
945,-0.007045,-0.016464,0.057267,0.059541,-0.85544,0.037454,0.06896
946,-0.010943,-0.012567,0.067986,-0.050894,-0.79308,0.18816,0.11021
947,-0.013541,-0.011267,0.072208,-0.13794,-0.73624,0.34764,0.14821
948,-0.011917,-0.0099683,0.075131,-0.18342,-0.68264,0.50355,0.1768
949,-0.0044465,-0.0073698,0.081303,-0.18504,-0.60502,0.6416,0.19434
950,0.010495,-0.00022403,0.091047,-0.15581,-0.47574,0.74911,0.20116
951,0.028034,0.013093,0.099492,-0.11618,-0.28346,0.81634,0.2044
952,0.042975,0.031607,0.10371,-0.076554,-0.043423,0.83973,0.20538
953,0.051745,0.048822,0.10469,-0.046347,0.20635,0.82251,0.20148
954,0.054344,0.064413,0.10501,-0.027508,0.4178,0.77054,0.19044
955,0.05207,0.076106,0.10859,-0.017764,0.56234,0.68707,0.1664
956,0.046548,0.081303,0.11573,-0.012567,0.64549,0.57566,0.11801
957,0.039402,0.078379,0.12093,-0.011592,0.69584,0.44021,0.046223
958,0.032906,0.070909,0.11541,-0.012892,0.73611,0.28918,-0.034329
959,0.025111,0.062139,0.098842,-0.019712,0.77672,0.14107,-0.10579
960,0.016991,0.054668,0.074806,-0.029132,0.82576,0.00042559,-0.15548
961,0.012443,0.049796,0.053369,-0.022311,0.88488,-0.13697,-0.18504
962,0.015692,0.050121,0.041676,0.016341,0.93717,-0.27956,-0.21135
963,0.023162,0.056617,0.041351,0.090397,0.94821,-0.42247,-0.2435
964,0.028684,0.068635,0.049147,0.18784,0.89982,-0.55694,-0.27956
965,0.028034,0.079354,0.062464,0.2908,0.80108,-0.6768,-0.31366
966,0.019589,0.086824,0.078055,0.38597,0.67213,-0.76904,-0.33315
967,0.0059473,0.088124,0.092996,0.46295,0.52109,-0.81582,-0.33478
968,-0.0037969,0.089423,0.10729,0.51232,0.34927,-0.79795,-0.32308
969,-0.0057458,0.098517,0.12028,0.52402,0.15796,-0.71967,-0.30035
970,-0.00054884,0.11671,0.1336,0.49446,-0.044073,-0.60891,-0.26559
971,0.013093,0.13977,0.14399,0.4295,-0.24578,-0.49296,-0.21687
972,0.033231,0.16283,0.15146,0.36129,-0.43157,-0.3861,-0.15223
973,0.057267,0.18329,0.15244,0.31549,-0.58195,-0.2984,-0.07428
974,0.076106,0.19888,0.14172,0.29827,-0.6742,-0.23376,0.008221
975,0.08585,0.20148,0.11995,0.29308,-0.68979,-0.19511,0.082277
976,0.086824,0.19109,0.095594,0.28821,-0.62483,-0.18082,0.1336
977,0.080328,0.17322,0.082927,0.28171,-0.504,-0.17822,0.15666
978,0.070909,0.15666,0.083251,0.27651,-0.36141,-0.17302,0.16088
979,0.063763,0.14496,0.093645,0.27976,-0.22824,-0.16263,0.15081
980,0.062464,0.14334,0.11054,0.28431,-0.11975,-0.14866,0.1323
981,0.065712,0.15536,0.13002,0.28138,-0.037577,-0.13729,0.11216
982,0.068635,0.17615,0.14659,0.26319,0.014392,-0.13697,0.094945
983,0.068635,0.19304,0.15244,0.22129,0.033556,-0.14574,0.082277
984,0.066037,0.19531,0.14854,0.16185,0.023812,-0.15743,0.073832
985,0.060515,0.18492,0.14009,0.09462,-0.0018481,-0.1636,0.070584
986,0.053044,0.1651,0.13392,0.031932,-0.028157,-0.16165,0.074157
987,0.045249,0.14074,0.13392,-0.018088,-0.04862,-0.15711,0.0852
988,0.045574,0.11671,0.13684,-0.048945,-0.060963,-0.15841,0.10209
989,0.054019,0.097868,0.1349,-0.060638,-0.073306,-0.1662,0.11931
990,0.066037,0.081952,0.12385,-0.059989,-0.090196,-0.17594,0.12775
991,0.074157,0.067011,0.098842,-0.058689,-0.10871,-0.18277,0.1245
992,0.076431,0.054668,0.065387,-0.060638,-0.12592,-0.17919,0.11508
993,0.073507,0.044924,0.029983,-0.062587,-0.14119,-0.1675,0.11054
994,0.064413,0.03583,-0.0031473,-0.064536,-0.15483,-0.14964,0.11541
995,0.049147,0.027385,-0.027833,-0.070707,-0.17075,-0.12625,0.1232
996,0.031607,0.019264,-0.042449,-0.081101,-0.19316,-0.093119,0.1245
997,0.015367,0.010495,-0.04927,-0.092794,-0.22759,-0.053168,0.11671
998,0.0043233,-0.00054884,-0.054792,-0.10124,-0.27469,-0.012242,0.10534
999,0.00075039,-0.0093186,-0.060313,-0.10579,-0.31886,0.02706,0.098193
1000,0.0036737,-0.012242,-0.065835,-0.10384,-0.34647,0.062139,0.098842
1001,0.0085458,-0.012242,-0.065835,-0.097341,-0.34809,0.091047,0.10599
1002,0.011469,-0.013216,-0.059014,-0.087597,-0.32308,0.11703,0.11118
1003,0.012768,-0.018088,-0.046347,-0.073955,-0.27274,0.14107,0.11378
1004,0.010819,-0.025234,-0.035628,-0.059339,-0.2029,0.16121,0.11216
1005,0.0046481,-0.034978,-0.035953,-0.051544,-0.11748,0.17874,0.10599
1006,-0.0060706,-0.045372,-0.047971,-0.058365,-0.026209,0.19758,0.095919
1007,-0.019063,-0.057065,-0.064861,-0.075904,0.049796,0.21285,0.083251
1008,-0.035953,-0.068758,-0.084024,-0.092469,0.090072,0.21447,0.06961
1009,-0.052843,-0.074605,-0.10059,-0.095068,0.090722,0.19628,0.045574
1010,-0.068758,-0.073955,-0.10774,-0.084999,0.066686,0.16023,0.0065969
1011,-0.079152,-0.072981,-0.10416,-0.06551,0.040702,0.11541,-0.041799
1012,-0.080451,-0.076554,-0.089546,-0.042449,0.031607,0.075456,-0.088896
1013,-0.07493,-0.085648,-0.072981,-0.020362,0.046873,0.05272,-0.1178
1014,-0.06681,-0.095068,-0.063886,-0.0093186,0.087149,0.057267,-0.1217
1015,-0.056091,-0.10514,-0.063886,-0.013541,0.14237,0.080653,-0.10676
1016,-0.047971,-0.11326,-0.067459,-0.030756,0.20148,0.10079,-0.0824
1017,-0.045047,-0.11683,-0.068434,-0.047971,0.25443,0.10112,-0.061937
1018,-0.048945,-0.11488,-0.069083,-0.057715,0.2999,0.081303,-0.054142
1019,-0.05739,-0.10709,-0.072006,-0.056416,0.3379,0.054668,-0.061288
1020,-0.067459,-0.096367,-0.075579,-0.047971,0.36421,0.045574,-0.081101
1021,-0.077528,-0.086623,-0.077853,-0.036278,0.37136,0.074482,-0.10838
1022,-0.08305,-0.078827,-0.073955,-0.021661,0.36746,0.14724,-0.12495
1023,-0.079802,-0.075579,-0.063561,-0.0041217,0.36324,0.25475,-0.11521
1024,-0.068109,-0.077528,-0.052518,0.013093,0.37071,0.37785,-0.072981
1025,-0.053492,-0.082076,-0.045372,0.025761,0.38857,0.48244,-0.013216
1026,-0.037902,-0.08305,-0.047646,0.032582,0.39994,0.53798,0.041676
1027,-0.026858,-0.078827,-0.056091,0.038103,0.38695,0.53084,0.078379
1028,-0.021337,-0.071032,-0.059339,0.044275,0.34407,0.4675,0.090397
1029,-0.017439,-0.062587,-0.054467,0.051096,0.28106,0.36876,0.08585
1030,-0.0080194,-0.052843,-0.044398,0.056942,0.20895,0.26384,0.076431
1031,0.0065969,-0.042124,-0.03173,0.061489,0.13782,0.17257,0.063113
1032,0.020239,-0.03303,-0.018413,0.064088,0.076431,0.10242,0.042651
1033,0.028359,-0.029132,-0.0067202,0.065387,0.032582,0.044599,0.009845
1034,0.029009,-0.030431,0.0036737,0.062464,0.012119,-0.012242,-0.034978
1035,0.024461,-0.035953,0.016991,0.056617,0.01764,-0.075904,-0.085324
1036,0.01764,-0.044723,0.035505,0.05207,0.048497,-0.14574,-0.1269
1037,0.01017,-0.050894,0.052395,0.05207,0.092671,-0.22467,-0.15288
1038,0.0036737,-0.049595,0.067986,0.056617,0.13425,-0.31009,-0.16523
1039,-0.0021729,-0.038227,0.079354,0.062464,0.15179,-0.38934,-0.16782
1040,-0.0096434,-0.019388,0.089423,0.066037,0.13262,-0.45236,-0.16653
1041,-0.021337,-0.0011985,0.097543,0.065712,0.082602,-0.48419,-0.16815
1042,-0.031406,0.013418,0.10209,0.06019,0.01829,-0.48159,-0.17172
1043,-0.033354,0.026735,0.10047,0.053044,-0.043099,-0.44748,-0.1727
1044,-0.030431,0.039078,0.093645,0.044924,-0.096367,-0.39779,-0.16782
1045,-0.025234,0.046548,0.082927,0.036154,-0.14671,-0.34257,-0.15873
1046,-0.012892,0.049147,0.071883,0.031607,-0.19933,-0.29093,-0.14444
1047,0.0046481,0.050446,0.062139,0.033881,-0.25812,-0.24253,-0.12398
1048,0.022188,0.057592,0.054668,0.042001,-0.32341,-0.19836,-0.10189
1049,0.036479,0.072533,0.049796,0.053694,-0.39357,-0.16003,-0.076554
1050,0.049147,0.091696,0.048172,0.067661,-0.46243,-0.12592,-0.046347
1051,0.062464,0.11183,0.051745,0.082927,-0.51504,-0.094093,-0.011592
1052,0.07708,0.13132,0.06084,0.094295,-0.53681,-0.064861,0.024137
1053,0.095269,0.14724,0.076431,0.10209,-0.51537,-0.034654,0.057592
1054,0.11476,0.15601,0.09397,0.10664,-0.44586,-0.008669,0.088773
1055,0.12905,0.15633,0.10664,0.11378,-0.33607,0.012119,0.11151
1056,0.13457,0.14659,0.11346,0.12645,-0.20908,0.028034,0.12255
1057,0.1336,0.12905,0.11054,0.13782,-0.090521,0.045574,0.12613
1058,0.1284,0.10794,0.092671,0.13977,-0.0063954,0.073182,0.13295
1059,0.1219,0.088124,0.061165,0.12775,0.03518,0.10664,0.14399
1060,0.11606,0.072858,0.024137,0.10339,0.036804,0.14334,0.15373
1061,0.11086,0.061814,-0.0063954,0.072208,0.01017,0.17972,0.15503
1062,0.10404,0.053694,-0.025234,0.041027,-0.03238,0.21642,0.15081
1063,0.092996,0.047523,-0.034978,0.017965,-0.075255,0.2554,0.14432
1064,0.081627,0.044924,-0.040825,0.0062721,-0.10611,0.29373,0.13684
1065,0.076431,0.048822,-0.048945,0.003024,-0.12592,0.32751,0.1271
1066,0.078055,0.059865,-0.059664,-0.00022403,-0.13762,0.35836,0.11703
1067,0.083251,0.075781,-0.069408,-0.010618,-0.14022,0.38207,0.10891
1068,0.0865,0.088448,-0.076554,-0.031081,-0.13404,0.39539,0.10501
1069,0.081303,0.092346,-0.080127,-0.059339,-0.11293,0.39572,0.10177
1070,0.066037,0.089423,-0.081751,-0.087597,-0.071682,0.38435,0.095594
1071,0.042651,0.085525,-0.076229,-0.10806,-0.016464,0.36259,0.082927
1072,0.019264,0.089748,-0.05804,-0.11131,0.044924,0.334,0.070259
1073,0.0033489,0.10534,-0.028807,-0.093444,0.10826,0.30477,0.064088
1074,-0.0015233,0.13197,0.0049729,-0.061613,0.1716,0.27846,0.064088
1075,0.0072465,0.16283,0.040052,-0.028157,0.22909,0.25767,0.073507
1076,0.029333,0.19044,0.074806,-0.0021729,0.27781,0.23786,0.086175
1077,0.06084,0.21188,0.10599,0.020564,0.30639,0.20863,0.096893
1078,0.087149,0.22649,0.13132,0.044599,0.29113,0.15731,0.10436
1079,0.10404,0.23396,0.15309,0.070909,0.21837,0.072858,0.11183
1080,0.10956,0.23299,0.17777,0.095269,0.097218,-0.035953,0.11736
1081,0.10891,0.22357,0.2148,0.10566,-0.034329,-0.14574,0.12223
1082,0.10696,0.207,0.26417,0.095594,-0.12527,-0.22759,0.1284
1083,0.10144,0.18557,0.31159,0.063763,-0.14087,-0.25585,0.14204
1084,0.094295,0.15893,0.33823,0.011794,-0.082725,-0.22564,0.1638
1085,0.081952,0.1297,0.33563,-0.053168,0.014068,-0.15353,0.18459
1086,0.064088,0.10079,0.30639,-0.11845,0.10209,-0.069083,0.19434
1087,0.043625,0.070909,0.25865,-0.1701,0.14172,-0.0083442,0.18784
1088,0.023162,0.037454,0.20018,-0.19771,0.12028,0.0091954,0.16803
1089,-0.00022403,0.0014,0.1349,-0.19186,0.049147,-0.0037969,0.13847
1090,-0.022961,-0.033354,0.068635,-0.14866,-0.040825,-0.018738,0.10956
1091,-0.041799,-0.059989,0.0026992,-0.077203,-0.11975,-0.0067202,0.0865
1092,-0.051868,-0.074605,-0.059014,0.0033489,-0.17237,0.049147,0.071558
1093,-0.056416,-0.084999,-0.11196,0.083901,-0.19966,0.14724,0.061814
1094,-0.056416,-0.094743,-0.14736,0.16705,-0.2055,0.26547,0.049472
1095,-0.053492,-0.10514,-0.16328,0.25735,-0.17692,0.37233,0.032906
1096,-0.051219,-0.11423,-0.16295,0.34537,-0.094093,0.43827,0.016991
1097,-0.050894,-0.12105,-0.15353,0.41261,0.041027,0.44963,0.0069217
1098,-0.053168,-0.12463,-0.14444,0.44704,0.20278,0.41066,0.0020496
1099,-0.05739,-0.12722,-0.13989,0.44379,0.347,0.33595,-0.0011985
1100,-0.063886,-0.12917,-0.13957,0.40773,0.42852,0.24078,-0.0063954
1101,-0.06681,-0.1308,-0.14444,0.34764,0.43047,0.13555,-0.01614
1102,-0.063561,-0.13275,-0.15256,0.27261,0.36421,0.032906,-0.025884
1103,-0.053492,-0.12917,-0.15905,0.19174,0.2593,-0.049595,-0.029132
1104,-0.039526,-0.1191,-0.16458,0.11216,0.14464,-0.098641,-0.018413
1105,-0.022961,-0.11033,-0.17075,0.041351,0.040702,-0.10806,0.010495
1106,-0.0073698,-0.11033,-0.17659,-0.015165,-0.0405,-0.0837,0.05142
1107,0.0043233,-0.11683,-0.17854,-0.059989,-0.095393,-0.045697,0.097543
1108,0.0075714,-0.1217,-0.17335,-0.095717,-0.11975,-0.018413,0.14269
1109,0.0056225,-0.11813,-0.161,-0.12592,-0.11748,-0.015815,0.17874
1110,0.0023744,-0.10611,-0.14574,-0.15353,-0.098965,-0.038876,0.19726
1111,0.0052977,-0.089221,-0.1334,-0.17627,-0.082076,-0.080127,0.19758
1112,0.011794,-0.071357,-0.123,-0.19154,-0.084024,-0.12852,0.18492
1113,0.013418,-0.05804,-0.10968,-0.20063,-0.10741,-0.1753,0.16056
1114,0.0049729,-0.047971,-0.090845,-0.20355,-0.14249,-0.2133,0.12678
1115,-0.0083442,-0.041475,-0.064536,-0.20063,-0.16393,-0.23993,0.089748
1116,-0.018413,-0.032055,-0.033354,-0.19738,-0.14541,-0.25715,0.054344
1117,-0.022311,-0.019712,-0.00087364,-0.19413,-0.071357,-0.26787,0.015367
1118,-0.019712,-0.0047713,0.029658,-0.19381,0.058566,-0.27728,-0.036278
1119,-0.014516,0.013093,0.054019,-0.19738,0.21675,-0.29223,-0.10903
1120,-0.017114,0.029333,0.072858,-0.20063,0.35999,-0.31139,-0.19511
1121,-0.027508,0.037778,0.084551,-0.19901,0.45256,-0.33218,-0.28151
1122,-0.041799,0.042651,0.086175,-0.18244,0.47594,-0.34939,-0.35037
1123,-0.04862,0.047847,0.083576,-0.14541,0.43632,-0.36044,-0.39097
1124,-0.048945,0.053694,0.078704,-0.089221,0.36064,-0.35751,-0.40201
1125,-0.047646,0.059541,0.076106,-0.021012,0.27554,-0.3403,-0.39357
1126,-0.046671,0.061165,0.071883,0.042975,0.2083,-0.30782,-0.37148
1127,-0.045697,0.057917,0.062139,0.092346,0.16803,-0.26819,-0.33932
1128,-0.04115,0.049796,0.044924,0.11866,0.14172,-0.22759,-0.30229
1129,-0.032705,0.037778,0.022188,0.11768,0.10274,-0.18731,-0.26819
1130,-0.022636,0.022512,0.0014,0.092671,0.030957,-0.14152,-0.24058
1131,-0.015815,0.0078962,-0.014191,0.056292,-0.069083,-0.087922,-0.21817
1132,-0.014516,-0.0028225,-0.025559,0.019589,-0.17432,-0.03238,-0.19641
1133,-0.016464,-0.0089938,-0.030431,-0.010293,-0.2539,0.014392,-0.17335
1134,-0.016464,-0.011267,-0.03173,-0.036278,-0.29158,0.042975,-0.14346
1135,-0.0096434,-0.012242,-0.031406,-0.060638,-0.2893,0.047198,-0.10221
1136,0.0010752,-0.0080194,-0.032705,-0.078178,-0.2565,0.028034,-0.050244
1137,0.012119,0.0026992,-0.032055,-0.087272,-0.2016,0.00075039,0.0033489
1138,0.024137,0.015692,-0.028482,-0.085973,-0.13534,-0.017114,0.051745
1139,0.03583,0.02706,-0.027183,-0.077203,-0.068758,-0.014191,0.090722
1140,0.043625,0.032582,-0.028157,-0.061288,-0.010293,0.0020496,0.11378
1141,0.046548,0.031607,-0.032705,-0.040825,0.032582,0.011469,0.1245
1142,0.044924,0.024786,-0.0405,-0.025234,0.05272,-0.00022403,0.11931
1143,0.040052,0.01764,-0.04927,-0.015165,0.051745,-0.033354,0.097868
1144,0.033556,0.013093,-0.052843,-0.0083442,0.058241,-0.072331,0.063763
1145,0.027709,0.011794,-0.04862,-0.0018481,0.10826,-0.094093,0.023487
1146,0.026085,0.015692,-0.038876,0.0078962,0.21707,-0.093769,-0.010293
1147,0.032906,0.021538,-0.028157,0.019264,0.35641,-0.08305,-0.025234
1148,0.045574,0.029983,-0.018738,0.028359,0.4688,-0.078178,-0.016464
1149,0.061489,0.036804,-0.010618,0.033556,0.50713,-0.084349,0.012768
1150,0.075781,0.041027,-0.0011985,0.036804,0.45678,-0.10156,0.044924
1151,0.083901,0.039727,0.014068,0.037778,0.3444,-0.11618,0.067661
1152,0.082927,0.033881,0.034855,0.043625,0.21123,-0.11196,0.072858
1153,0.078055,0.027385,0.055643,0.056292,0.097543,-0.082725,0.064413
1154,0.076755,0.021863,0.06961,0.079354,0.022188,-0.046022,0.053694
1155,0.083251,0.021538,0.072208,0.11411,-0.026209,-0.016464,0.057592
1156,0.097543,0.024786,0.067986,0.15666,-0.064536,0.011144,0.085525
1157,0.11346,0.030633,0.066362,0.19466,-0.11033,0.039078,0.12678
1158,0.11963,0.034206,0.068635,0.20246,-0.18049,0.071558,0.15991
1159,0.11313,0.035505,0.067986,0.16283,-0.27599,0.11183,0.16998
1160,0.095594,0.03453,0.061489,0.084551,-0.37927,0.15796,0.16153
1161,0.073182,0.030633,0.05142,-0.0041217,-0.46437,0.19369,0.14561
1162,0.054993,0.024461,0.039078,-0.073306,-0.504,0.18881,0.12775
1163,0.043625,0.017965,0.023812,-0.10514,-0.48029,0.1219,0.10631
1164,0.039078,0.01017,0.0056225,-0.10124,-0.40201,-0.011267,0.076755
1165,0.034855,0.0020496,-0.014516,-0.076554,-0.29937,-0.18309,0.03583
1166,0.025111,-0.0044465,-0.031081,-0.046022,-0.20063,-0.34582,-0.012242
1167,0.0085458,-0.0096434,-0.039201,-0.019388,-0.12625,-0.45301,-0.053492
1168,-0.010943,-0.014516,-0.036278,0.00075039,-0.084674,-0.47996,-0.070382
1169,-0.025884,-0.018738,-0.027833,0.013743,-0.069408,-0.42962,-0.057715
1170,-0.033679,-0.020687,-0.015165,0.021863,-0.050244,-0.3312,-0.027183
1171,-0.036927,-0.019063,0.00042559,0.028684,-0.0044465,-0.21687,-0.0011985
1172,-0.035628,-0.013541,0.021863,0.039402,0.070259,-0.11293,0.0072465
1173,-0.034654,-0.00054884,0.044924,0.055968,0.15893,-0.029457,-0.0063954
1174,-0.033679,0.016991,0.064413,0.080003,0.24858,0.024786,-0.039526
1175,-0.03173,0.03518,0.078379,0.11248,0.3366,0.049796,-0.077203
1176,-0.026858,0.048822,0.085525,0.14821,0.41683,0.057917,-0.10091
1177,-0.016789,0.058566,0.092346,0.17745,0.46847,0.078704,-0.094093
1178,-0.0031473,0.063438,0.092671,0.19141,0.4675,0.12905,-0.060963
1179,0.0095202,0.064413,0.0852,0.18492,0.40319,0.20311,-0.021986
1180,0.013093,0.06019,0.074482,0.16153,0.30087,0.28268,-0.0037969
1181,0.0039985,0.054344,0.066037,0.13067,0.21382,0.34342,-0.017764
1182,-0.015815,0.049472,0.065712,0.10404,0.18069,0.3746,-0.059664
1183,-0.037252,0.046873,0.072858,0.088773,0.18816,0.37655,-0.11163
1184,-0.056741,0.041676,0.084226,0.082927,0.19336,0.36421,-0.15223
1185,-0.072331,0.031607,0.093321,0.083576,0.15828,0.3444,-0.1714
1186,-0.08305,0.017965,0.093645,0.081952,0.070909,0.31809,-0.16977
1187,-0.086623,0.0072465,0.08585,0.077405,-0.055116,0.28106,-0.15061
1188,-0.080451,0.0020496,0.072208,0.069285,-0.19511,0.24403,-0.10838
1189,-0.063886,0.0059473,0.058241,0.059865,-0.32438,0.22162,-0.044073
1190,-0.038227,0.015367,0.049472,0.053369,-0.42637,0.22194,0.037129
1191,-0.0089938,0.025436,0.045574,0.047847,-0.48451,0.23818,0.12483
1192,0.019589,0.034855,0.0433,0.043625,-0.48679,0.26157,0.2044
1193,0.038428,0.04395,0.041676,0.042326,-0.44066,0.28658,0.25832
1194,0.042651,0.049796,0.038428,0.046548,-0.36791,0.30932,0.27879
1195,0.03453,0.046223,0.035505,0.051096,-0.29807,0.32978,0.27261
1196,0.023162,0.034855,0.034855,0.05207,-0.2539,0.34862,0.26027
1197,0.015692,0.023487,0.03583,0.048172,-0.23733,0.36583,0.26092
1198,0.016666,0.016341,0.037778,0.040702,-0.23896,0.3785,0.27619
1199,0.028034,0.015367,0.041676,0.029333,-0.24773,0.37363,0.29535
1200,0.045249,0.024137,0.049147,0.016341,-0.2539,0.34764,0.30867
1201,0.063113,0.039078,0.059216,0.0036737,-0.24513,0.30055,0.31062
1202,0.076755,0.057267,0.06831,-0.0060706,-0.21362,0.23818,0.29665
1203,0.083901,0.07773,0.072858,-0.013216,-0.16068,0.1664,0.26514
1204,0.083901,0.098517,0.071234,-0.017764,-0.09182,0.091372,0.22552
1205,0.080328,0.11476,0.066362,-0.018738,-0.018088,0.012119,0.18492
1206,0.075781,0.12288,0.066362,-0.016464,0.047523,-0.063886,0.14886
1207,0.078379,0.12418,0.072208,-0.016464,0.097868,-0.12885,0.12093
1208,0.089098,0.12255,0.082277,-0.016464,0.13262,-0.17887,0.097218
1209,0.10631,0.1271,0.093645,-0.015815,0.15114,-0.22044,0.06896
1210,0.11931,0.13814,0.098517,-0.013216,0.15666,-0.2565,0.02641
1211,0.12385,0.15244,0.093321,-0.0057458,0.15698,-0.29223,-0.029132
1212,0.12223,0.1638,0.080978,0.0056225,0.15536,-0.33088,-0.086623
1213,0.11898,0.16835,0.070259,0.019914,0.15698,-0.37148,-0.12852
1214,0.11833,0.1638,0.064413,0.036154,0.1625,-0.40169,-0.14249
1215,0.11801,0.15211,0.065387,0.048172,0.16738,-0.40428,-0.1282
1216,0.11606,0.13555,0.066686,0.055318,0.16705,-0.3718,-0.096692
1217,0.11281,0.11573,0.06831,0.062464,0.15666,-0.31204,-0.061613
1218,0.10859,0.096893,0.065712,0.068635,0.13555,-0.24188,-0.032055
1219,0.10306,0.082602,0.058891,0.070909,0.088448,-0.18114,-0.011267
1220,0.093645,0.074157,0.046548,0.060515,-0.0018481,-0.13567,0.0036737
1221,0.082277,0.06961,0.030308,0.035505,-0.13145,-0.098641,0.017965
1222,0.067661,0.066037,0.017316,0.00010078,-0.27988,-0.052843,0.03453
1223,0.046223,0.058891,0.009845,-0.031406,-0.42735,0.010495,0.041676
1224,0.016991,0.047523,0.0056225,-0.044723,-0.55662,0.088124,0.029658
1225,-0.015815,0.031607,0.0023744,-0.03303,-0.64789,0.17095,-0.00054884
1226,-0.044398,0.012768,-0.0047713,-0.00087364,-0.6807,0.24923,-0.035628
1227,-0.066485,-0.0034721,-0.01484,0.046548,-0.64562,0.32101,-0.057715
1228,-0.076879,-0.016789,-0.025559,0.099492,-0.55337,0.385,-0.058365
1229,-0.073631,-0.025559,-0.034004,0.15536,-0.42345,0.43437,-0.0405
1230,-0.059339,-0.029782,-0.038876,0.20765,-0.27696,0.461,-0.01549
1231,-0.038227,-0.028157,-0.036602,0.24533,-0.12787,0.46003,0.0091954
1232,-0.017114,-0.022636,-0.026209,0.2463,0.027709,0.43794,0.029658
1233,-0.0024977,-0.01614,-0.010943,0.19109,0.18914,0.40156,0.044275
1234,0.0036737,-0.014516,0.0020496,0.088124,0.35024,0.35804,0.057592
1235,-0.00022403,-0.019388,0.0075714,-0.035628,0.50453,0.31581,0.074482
1236,-0.0054209,-0.028482,0.0056225,-0.14444,0.63607,0.28528,0.094945
1237,-0.0037969,-0.035953,-0.0018481,-0.20485,0.71045,0.26482,0.11931
1238,0.0065969,-0.037577,-0.0083442,-0.19576,0.69259,0.2541,0.14172
1239,0.018615,-0.033354,-0.016789,-0.12527,0.56494,0.24111,0.15276
1240,0.024137,-0.025559,-0.030756,-0.025559,0.35057,0.2057,0.14821
1241,0.01829,-0.018413,-0.047646,0.064088,0.11346,0.13425,0.1258
1242,0.0062721,-0.016789,-0.064861,0.12093,-0.073306,0.033881,0.089748
1243,-0.0047713,-0.023285,-0.079152,0.13652,-0.16035,-0.080451,0.049147
1244,-0.0099683,-0.032705,-0.088896,0.11833,-0.14801,-0.19543,0.01017
1245,-0.0080194,-0.0405,-0.093119,0.082277,-0.072656,-0.30165,-0.021986
1246,-0.0034721,-0.046022,-0.092469,0.043625,0.024137,-0.38739,-0.042774
1247,0.0020496,-0.045047,-0.086623,0.015042,0.11411,-0.44781,-0.054467
1248,0.0065969,-0.034004,-0.076229,-0.0047713,0.18232,-0.48938,-0.063886
1249,0.0088706,-0.013541,-0.060638,-0.02361,0.22941,-0.52836,-0.077203
1250,0.0075714,0.011794,-0.040175,-0.044073,0.26579,-0.57481,-0.096042
1251,0.0023744,0.032582,-0.015815,-0.062587,0.29892,-0.62938,-0.11618
1252,-0.0037969,0.043625,0.008221,-0.079152,0.32328,-0.68524,-0.13307
1253,-0.012242,0.049147,0.032257,-0.090196,0.33465,-0.74208,-0.13632
1254,-0.019063,0.05142,0.057917,-0.096692,0.3379,-0.79373,-0.11845
1255,-0.017764,0.053044,0.083901,-0.10546,0.34342,-0.82848,-0.078178
1256,-0.0047713,0.055318,0.10794,-0.12333,0.3444,-0.82231,-0.021337
1257,0.018615,0.058566,0.12548,-0.14281,0.32913,-0.75443,0.040702
1258,0.044599,0.059865,0.1323,-0.14541,0.29048,-0.61866,0.10274
1259,0.065387,0.055318,0.12937,-0.11521,0.23006,-0.43709,0.15276
1260,0.075131,0.048822,0.12093,-0.059664,0.14724,-0.24968,0.17907
1261,0.073832,0.040702,0.10956,-0.0034721,0.042651,-0.10156,0.17615
1262,0.059865,0.033881,0.09462,0.021538,-0.073306,-0.026533,0.14302
1263,0.039078,0.027709,0.080978,0.0065969,-0.1714,-0.031406,0.092996
1264,0.017316,0.024786,0.073832,-0.03303,-0.22856,-0.084674,0.040052
1265,0.0033489,0.029009,0.072208,-0.073631,-0.23116,-0.13794,-0.00054884
1266,-0.0015233,0.036804,0.075131,-0.089221,-0.17594,-0.14346,-0.019712
1267,0.0017248,0.04395,0.080003,-0.064536,-0.08305,-0.076879,-0.020687
1268,0.0075714,0.048822,0.084226,-0.0037969,0.011144,0.053369,-0.018088
1269,0.011144,0.047523,0.08585,0.074157,0.069285,0.22097,-0.027833
1270,0.0062721,0.0433,0.089098,0.14269,0.073182,0.38597,-0.061288
1271,-0.0073698,0.036154,0.093645,0.18167,0.026085,0.51525,-0.11521
1272,-0.024909,0.030957,0.095269,0.18427,-0.051219,0.5997,-0.16977
1273,-0.041799,0.029333,0.090722,0.16153,-0.13502,0.64614,-0.19966
1274,-0.050569,0.032582,0.07773,0.13457,-0.19901,0.67505,-0.19381
1275,-0.04862,0.037129,0.06019,0.11801,-0.21979,0.70721,-0.15743
1276,-0.035303,0.042975,0.039078,0.11638,-0.17692,0.74683,-0.11358
1277,-0.016464,0.047847,0.016016,0.12937,-0.068434,0.77672,-0.080776
1278,0.0039985,0.049472,-0.00022403,0.14984,0.070584,0.77282,-0.073306
1279,0.015692,0.045574,-0.0076946,0.16575,0.19174,0.72182,-0.093769
1280,0.013743,0.037454,-0.0076946,0.16835,0.25378,0.63088,-0.13015
1281,0.0010752,0.030308,-0.0041217,0.15731,0.23754,0.51719,-0.15938
1282,-0.010293,0.02706,0.0023744,0.13555,0.15828,0.40384,-0.16393
1283,-0.014516,0.022837,0.0065969,0.10989,0.047198,0.30899,-0.13729
1284,-0.010943,0.017316,0.0059473,0.078704,-0.062912,0.23916,-0.087272
1285,-0.00087364,0.010495,-0.0015233,0.042651,-0.14834,0.19596,-0.027833
1286,0.013418,0.0075714,-0.01614,0.0043233,-0.20323,0.17225,0.028034
1287,0.024461,0.010495,-0.035628,-0.03238,-0.23084,0.15536,0.06831
1288,0.031932,0.014068,-0.055766,-0.060963,-0.24156,0.1336,0.09397
1289,0.035505,0.013093,-0.070707,-0.076554,-0.24838,0.10469,0.11054
1290,0.040052,0.0052977,-0.081101,-0.080127,-0.26007,0.070259,0.12483
1291,0.044924,-0.0057458,-0.090845,-0.080451,-0.27274,0.036804,0.1362
1292,0.050771,-0.01614,-0.10026,-0.081751,-0.28118,0.0091954,0.14074
1293,0.057917,-0.021012,-0.10676,-0.085324,-0.28476,-0.011267,0.14269
1294,0.067986,-0.018413,-0.10514,-0.089221,-0.28378,-0.026533,0.14886
1295,0.079679,-0.011267,-0.09994,-0.094093,-0.27176,-0.0405,0.16185
1296,0.090072,-0.0037969,-0.093769,-0.093769,-0.23603,-0.053492,0.1742
1297,0.092996,-0.00054884,-0.088896,-0.085648,-0.17237,-0.068758,0.1729
1298,0.08585,-0.00087364,-0.0837,-0.075255,-0.093119,-0.088247,0.14951
1299,0.071558,-0.0076946,-0.079477,-0.071682,-0.026858,-0.11293,0.10859
1300,0.053369,-0.020037,-0.076879,-0.080127,0.0043233,-0.13762,0.066362
1301,0.036154,-0.034329,-0.076229,-0.094418,-0.00054884,-0.15743,0.035505
1302,0.023812,-0.046347,-0.081101,-0.10384,-0.029457,-0.16458,0.01894
1303,0.016016,-0.056091,-0.088247,-0.098965,-0.060313,-0.15743,0.013418
1304,0.011794,-0.063237,-0.096042,-0.073955,-0.075904,-0.13762,0.018615
1305,0.0078962,-0.068109,-0.10091,-0.024909,-0.069408,-0.11098,0.031607
1306,0.0046481,-0.071682,-0.10026,0.042975,-0.040825,-0.082076,0.048822
1307,0.0036737,-0.071032,-0.096367,0.1232,0.0095202,-0.054467,0.06896
1308,0.0069217,-0.067784,-0.088572,0.19921,0.079029,-0.034004,0.089748
1309,0.014717,-0.063561,-0.081426,0.25637,0.15471,-0.026209,0.11248
1310,0.024137,-0.057065,-0.077203,0.28593,0.22032,-0.033354,0.13684
1311,0.033556,-0.04927,-0.073631,0.2895,0.2619,-0.046671,0.16023
1312,0.03583,-0.037577,-0.065186,0.26969,0.27911,-0.049595,0.1729
1313,0.031282,-0.02426,-0.054792,0.23624,0.27716,-0.029457,0.1703
1314,0.024461,-0.011267,-0.043748,0.19856,0.26514,0.01894,0.15601
1315,0.01894,-0.0021729,-0.038876,0.16218,0.24825,0.083901,0.13262
1316,0.013093,0.0020496,-0.04115,0.12548,0.22519,0.14854,0.10306
1317,0.0065969,0.00010078,-0.048945,0.089748,0.19109,0.18232,0.068635
1318,-0.00022403,-0.0093186,-0.057065,0.055968,0.14594,0.16965,0.036804
1319,-0.0060706,-0.021012,-0.062912,0.025436,0.09397,0.11606,0.011469
1320,-0.0083442,-0.03238,-0.063561,0.003024,0.047198,0.0433,-0.0063954
1321,-0.007045,-0.038227,-0.064211,-0.0034721,0.014068,-0.025559,-0.017439
1322,-0.0011985,-0.037902,-0.064211,0.0065969,-0.00087364,-0.081101,-0.024585
1323,0.003024,-0.035303,-0.066485,0.021213,0.0052977,-0.12073,-0.031081
1324,0.00042559,-0.03303,-0.066485,0.037129,0.035505,-0.13567,-0.035953
1325,-0.0041217,-0.028157,-0.062262,0.057592,0.089748,-0.11748,-0.036602
1326,-0.0044465,-0.022636,-0.056091,0.077405,0.16056,-0.070058,-0.028482
1327,-0.0028225,-0.018088,-0.049595,0.083251,0.23169,-0.019063,-0.01549
1328,-0.0021729,-0.018738,-0.045047,0.068635,0.28561,0.0039985,-0.0050961
1329,-0.0096434,-0.025559,-0.042774,0.041027,0.30867,-0.022636,-0.012892
1330,-0.024585,-0.040825,-0.043423,0.013093,0.3012,-0.097991,-0.047321
1331,-0.042449,-0.057715,-0.046996,-0.0096434,0.27489,-0.20713,-0.10124
1332,-0.058689,-0.066485,-0.04992,-0.027833,0.24468,-0.32925,-0.15646
1333,-0.069733,-0.062912,-0.046996,-0.037902,0.22032,-0.43969,-0.20453
1334,-0.073631,-0.050569,-0.036927,-0.028807,0.20668,-0.51602,-0.24156
1335,-0.072331,-0.038227,-0.024585,-0.0011985,0.20083,-0.54687,-0.26527
1336,-0.067134,-0.031081,-0.013541,0.033881,0.19888,-0.53713,-0.27209
1337,-0.05804,-0.029457,-0.0083442,0.063763,0.19174,-0.49556,-0.25715
1338,-0.046671,-0.030106,-0.011917,0.076431,0.17355,-0.42735,-0.22369
1339,-0.034004,-0.032705,-0.020687,0.068635,0.14042,-0.3351,-0.17952
1340,-0.019388,-0.030106,-0.028157,0.046223,0.091696,-0.22402,-0.13242
1341,-0.0041217,-0.020362,-0.02361,0.027709,0.042651,-0.10774,-0.096367
1342,0.01017,-0.0050961,-0.00054884,0.027385,0.011469,-0.0063954,-0.080127
1343,0.019264,0.016991,0.037454,0.046873,0.0046481,0.064088,-0.079152
1344,0.019914,0.043625,0.080978,0.080653,0.014392,0.10177,-0.080451
1345,0.011794,0.070909,0.12158,0.11703,0.021538,0.10924,-0.076229
1346,-0.0015233,0.091696,0.15309,0.14172,0.0059473,0.09462,-0.068109
1347,-0.012892,0.10371,0.17745,0.14399,-0.044723,0.06831,-0.060963
1348,-0.019388,0.10989,0.20116,0.12418,-0.1269,0.042975,-0.055441
1349,-0.020687,0.11573,0.23006,0.089423,-0.22499,0.024786,-0.045697
1350,-0.013541,0.12775,0.26807,0.047523,-0.31236,0.013093,-0.023935
1351,0.00075039,0.15211,0.31971,0.0075714,-0.36011,0.0069217,0.013743
1352,0.020564,0.18979,0.38662,-0.02361,-0.35654,0.009845,0.060515
1353,0.040702,0.23396,0.45905,-0.04115,-0.31171,0.024786,0.11021
1354,0.057917,0.27359,0.52174,-0.047646,-0.25033,0.039402,0.15211
1355,0.072208,0.29892,0.56169,-0.051219,-0.19641,0.038428,0.17939
1356,0.084226,0.30997,0.57144,-0.063561,-0.15711,0.019264,0.19271
1357,0.092346,0.30899,0.5474,-0.088247,-0.12625,-0.019712,0.19596
1358,0.094295,0.29957,0.49706,-0.12398,-0.097991,-0.086623,0.19076
1359,0.091372,0.28463,0.4308,-0.16328,-0.070707,-0.18082,0.17517
1360,0.088448,0.26514,0.35479,-0.20096,-0.052843,-0.27956,0.15211
1361,0.089748,0.24241,0.27781,-0.22272,-0.054792,-0.35199,0.12905
1362,0.092346,0.21415,0.20635,-0.2159,-0.07493,-0.37148,0.11346
1363,0.095919,0.17972,0.14691,-0.17984,-0.10546,-0.32633,0.10599
1364,0.097543,0.14172,0.098517,-0.13015,-0.1321,-0.23149,0.10112
1365,0.095594,0.10924,0.06084,-0.0837,-0.13827,-0.1178,0.0865
1366,0.087474,0.087799,0.03453,-0.047971,-0.10449,-0.014191,0.059216
1367,0.07708,0.074157,0.019589,-0.016464,-0.017764,0.065387,0.019589
1368,0.06831,0.065387,0.0072465,0.027709,0.11183,0.11898,-0.022636
1369,0.059216,0.058891,-0.008669,0.096893,0.24566,0.15536,-0.059339
1370,0.046223,0.048822,-0.029457,0.18492,0.33725,0.18979,-0.08305
1371,0.032257,0.028684,-0.055441,0.25865,0.34375,0.22974,-0.089221
1372,0.020564,-0.00087364,-0.087922,0.28496,0.24371,0.26709,-0.079802
1373,0.010495,-0.034978,-0.12235,0.25475,0.048822,0.2921,-0.059014
1374,-0.0021729,-0.067459,-0.15158,0.18849,-0.19056,0.30477,-0.032055
1375,-0.017114,-0.085973,-0.16847,0.12255,-0.41305,0.31094,-0.011267
1376,-0.028482,-0.086298,-0.1701,0.082602,-0.56896,0.30769,-0.0047713
1377,-0.032705,-0.073955,-0.16295,0.079354,-0.63815,0.28561,-0.015815
1378,-0.030431,-0.059339,-0.15321,0.11183,-0.62678,0.23234,-0.040175
1379,-0.022636,-0.048945,-0.14314,0.16056,-0.55207,0.14789,-0.06681
1380,-0.013541,-0.048945,-0.1308,0.20798,-0.43547,0.047198,-0.0837
1381,-0.0034721,-0.054467,-0.11586,0.24273,-0.29677,-0.044398,-0.0837
1382,0.0033489,-0.061288,-0.10091,0.24695,-0.16653,-0.094418,-0.062262
1383,0.008221,-0.066485,-0.090196,0.19563,-0.075904,-0.082725,-0.021986
1384,0.0091954,-0.062912,-0.09117,0.07708,-0.0405,-0.011592,0.030633
1385,0.0052977,-0.044723,-0.10254,-0.087272,-0.039201,0.099492,0.0865
1386,0.0036737,-0.01484,-0.10903,-0.23863,-0.023935,0.22974,0.14237
1387,0.010819,0.018615,-0.10254,-0.3338,0.042326,0.35576,0.19726
1388,0.02641,0.043625,-0.087597,-0.37083,0.14561,0.45386,0.24566
1389,0.041676,0.056292,-0.07428,-0.3757,0.24306,0.50518,0.27489
1390,0.048497,0.057592,-0.06616,-0.36401,0.2947,0.49933,0.27619
1391,0.042651,0.053369,-0.060313,-0.34614,0.28691,0.44184,0.2515
1392,0.030308,0.047198,-0.052843,-0.31659,0.23396,0.35479,0.21382
1393,0.014717,0.044599,-0.043748,-0.26722,0.15893,0.27099,0.18102
1394,0.0056225,0.046873,-0.034654,-0.19511,0.089423,0.21155,0.16348
1395,0.0075714,0.053694,-0.031406,-0.11163,0.038753,0.18199,0.1651
1396,0.020888,0.067011,-0.034654,-0.037577,0.0039985,0.17225,0.17322
1397,0.04395,0.084876,-0.043748,0.01017,-0.026533,0.17225,0.17355
1398,0.067661,0.10242,-0.054467,0.031932,-0.057065,0.16575,0.16185
1399,0.087149,0.11248,-0.061288,0.03518,-0.081751,0.1336,0.13717
1400,0.10209,0.10761,-0.06616,0.029333,-0.088896,0.06896,0.11086
1401,0.10859,0.090072,-0.072981,0.019264,-0.073631,-0.017764,0.087474
1402,0.10339,0.066362,-0.0837,0.011469,-0.03238,-0.11456,0.067661
1403,0.090722,0.046873,-0.098641,0.0069217,0.033231,-0.20972,0.049796
1404,0.07773,0.037778,-0.11553,0.0014,0.11736,-0.29482,0.02641
1405,0.06961,0.037778,-0.12657,-0.0093186,0.20018,-0.36596,-0.00054884
1406,0.063438,0.03518,-0.12852,-0.019388,0.25313,-0.41273,-0.021337
1407,0.055318,0.021863,-0.12333,-0.012242,0.25378,-0.415,-0.024585
1408,0.041676,-0.0018481,-0.11813,0.02641,0.19888,-0.36953,-0.0073698
1409,0.023162,-0.027833,-0.11845,0.091047,0.10989,-0.2893,0.016341
1410,0.0046481,-0.050569,-0.12203,0.16023,0.014717,-0.20518,0.023487
1411,-0.013866,-0.067459,-0.12203,0.20376,-0.067134,-0.16003,-0.0083442
1412,-0.036927,-0.072981,-0.11456,0.20376,-0.12787,-0.18926,-0.094093
1413,-0.063886,-0.070058,-0.10514,0.16803,-0.16425,-0.27956,-0.21297
1414,-0.087272,-0.067784,-0.097341,0.11508,-0.1727,-0.37668,-0.31918
1415,-0.10351,-0.075255,-0.089221,0.065062,-0.15776,-0.42312,-0.37408
1416,-0.10838,-0.090196,-0.0837,0.028684,-0.12722,-0.39259,-0.36044
1417,-0.10384,-0.10741,-0.079152,0.0078962,-0.089221,-0.2958,-0.28865
1418,-0.093119,-0.12008,-0.077203,0.00010078,-0.048296,-0.1701,-0.18959
1419,-0.076879,-0.12203,-0.068109,0.00075039,-0.0054209,-0.056416,-0.092145
1420,-0.059014,-0.11456,-0.047321,0.0075714,0.041351,0.019264,-0.015165
1421,-0.041475,-0.10254,-0.017439,0.016341,0.088773,0.051096,0.040377
1422,-0.028482,-0.090196,0.012768,0.025111,0.13035,0.052395,0.078055
1423,-0.017439,-0.078503,0.041676,0.032906,0.16153,0.037454,0.10566
1424,-0.0054209,-0.066485,0.067011,0.042326,0.18394,0.022837,0.12905
1425,0.008221,-0.053168,0.086175,0.057267,0.19986,0.018615,0.14594
1426,0.021538,-0.039201,0.097218,0.07708,0.21058,0.034206,0.15893
1427,0.03453,-0.025234,0.10469,0.099492,0.21545,0.075781,0.16998
1428,0.046223,-0.011592,0.11346,0.12255,0.21252,0.1362,0.17842
1429,0.055643,-0.00054884,0.12255,0.14237,0.19563,0.19791,0.1768
1430,0.062789,0.0091954,0.13132,0.15601,0.15731,0.24078,0.15926
1431,0.066037,0.016991,0.13392,0.16348,0.089423,0.25183,0.12937
1432,0.063438,0.021213,0.13002,0.17095,-0.010293,0.23754,0.092346
1433,0.059865,0.020564,0.12223,0.18297,-0.1282,0.21252,0.059216
1434,0.059541,0.016991,0.10989,0.20181,-0.23766,0.19141,0.038753
1435,0.060515,0.0069217,0.094295,0.22227,-0.30879,0.18199,0.03453
1436,0.062464,-0.0083442,0.075781,0.23786,-0.32243,0.18329,0.036479
1437,0.058241,-0.026858,0.055643,0.24663,-0.26916,0.19304,0.030308
1438,0.045574,-0.047321,0.033231,0.24955,-0.15061,0.20278,0.013743
1439,0.028684,-0.062587,0.011794,0.24306,0.014717,0.20538,-0.0060706
1440,0.013418,-0.072656,-0.0083442,0.22032,0.19206,0.20083,-0.017764
1441,0.0020496,-0.076879,-0.022311,0.18654,0.3418,0.19466,-0.015165
1442,0.00010078,-0.07493,-0.029782,0.15146,0.44249,0.20181,-0.00022403
1443,0.010819,-0.064861,-0.027833,0.12223,0.49186,0.23136,0.022512
1444,0.028034,-0.045047,-0.014516,0.10339,0.50453,0.28691,0.044924
1445,0.049796,-0.019388,0.010819,0.095269,0.51297,0.34829,0.059216
1446,0.06961,0.0056225,0.040702,0.089748,0.5461,0.39084,0.063113
1447,0.083251,0.026085,0.065712,0.077405,0.60197,0.39799,0.058241
1448,0.08585,0.040377,0.079029,0.05207,0.63737,0.36843,0.05142
1449,0.076106,0.052395,0.083576,0.014068,0.59937,0.31289,0.047198
1450,0.057917,0.061489,0.081952,-0.028482,0.45451,0.24566,0.048822
1451,0.041676,0.066686,0.076755,-0.07428,0.2122,0.18264,0.054668
1452,0.032582,0.066362,0.068635,-0.11845,-0.086623,0.13555,0.064737
1453,0.032906,0.061489,0.06084,-0.15223,-0.3783,0.096893,0.080978
1454,0.037778,0.054019,0.055318,-0.16945,-0.60696,0.047198,0.10209
1455,0.042326,0.051096,0.055968,-0.1714,-0.74955,-0.029782,0.12385
1456,0.044275,0.059216,0.064737,-0.16295,-0.81517,-0.13372,0.13684
1457,0.042975,0.081627,0.083901,-0.13892,-0.82881,-0.24383,0.14139
1458,0.041676,0.11086,0.11021,-0.092469,-0.81906,-0.32828,0.14724
1459,0.042975,0.14009,0.13814,-0.021661,-0.8051,-0.36336,0.15438
1460,0.047523,0.16673,0.15926,0.060515,-0.7921,-0.3403,0.16185
1461,0.054344,0.18914,0.17355,0.13067,-0.77067,-0.25975,0.17127
1462,0.063438,0.20181,0.18297,0.16575,-0.72747,-0.13047,0.18037
1463,0.073832,0.207,0.19239,0.14951,-0.65374,0.034206,0.18362
1464,0.080003,0.2044,0.20116,0.081627,-0.54428,0.207,0.17257
1465,0.076106,0.19239,0.20505,-0.014191,-0.39454,0.3457,0.14107
1466,0.058241,0.169,0.20181,-0.10384,-0.18699,0.41391,0.093321
1467,0.030957,0.13782,0.18719,-0.15743,0.096244,0.39604,0.03453
1468,-0.0018481,0.10404,0.16121,-0.16977,0.44704,0.29892,-0.029132
1469,-0.034004,0.070584,0.1271,-0.15288,0.82933,0.15179,-0.093444
1470,-0.058365,0.040702,0.090722,-0.123,1.1805,-0.0047713,-0.15029
1471,-0.071682,0.015692,0.053694,-0.097991,1.4247,-0.13892,-0.19511
1472,-0.076229,-0.0031473,0.017316,-0.088247,1.5062,-0.23896,-0.22824
1473,-0.081426,-0.014191,-0.011592,-0.094743,1.4068,-0.30165,-0.2539
1474,-0.085648,-0.018088,-0.034329,-0.10644,1.1567,-0.32276,-0.27436
1475,-0.09182,-0.015815,-0.051219,-0.11163,0.83486,-0.30652,-0.28865
1476,-0.097991,-0.011267,-0.063237,-0.10546,0.53571,-0.26007,-0.29515
1477,-0.10221,-0.0050961,-0.075904,-0.088572,0.32783,-0.18699,-0.28476
1478,-0.10091,0.0026992,-0.086623,-0.069083,0.23689,-0.090196,-0.25325
1479,-0.09182,0.01017,-0.09182,-0.052193,0.24046,0.016991,-0.19966
1480,-0.074605,0.018615,-0.086298,-0.037252,0.27651,0.11248,-0.13242
1481,-0.048296,0.02706,-0.073955,-0.019712,0.27586,0.1768,-0.064536
1482,-0.017439,0.029009,-0.061288,-0.0037969,0.20148,0.19726,-0.013866
1483,0.0069217,0.021213,-0.053492,0.0026992,0.066037,0.17387,0.0059473
1484,0.016666,0.0059473,-0.051219,-0.0011985,-0.0837,0.11768,-0.00087364
1485,0.013418,-0.0093186,-0.056416,-0.00087364,-0.19413,0.046223,-0.026858
1486,0.0059473,-0.015815,-0.059014,0.021538,-0.22759,-0.024909,-0.05739
1487,-0.0021729,-0.013866,-0.053168,0.070259,-0.18601,-0.085324,-0.078503
1488,-0.008669,-0.0067202,-0.039526,0.10761,-0.13015,-0.13469,-0.085648
1489,-0.01614,-0.0047713,-0.029132,0.087799,-0.13275,-0.17594,-0.08305
1490,-0.024909,-0.012242,-0.027833,-0.007045,-0.22239,-0.21232,-0.07493
1491,-0.03303,-0.028807,-0.035953,-0.14152,-0.36466,-0.23668,-0.059664
1492,-0.0405,-0.048945,-0.046347,-0.25422,-0.50075,-0.24286,-0.035628
1493,-0.04862,-0.06681,-0.050244,-0.29742,-0.57643,-0.22597,-0.0028225
1494,-0.053492,-0.077528,-0.044398,-0.2591,-0.57156,-0.17919,0.033231
1495,-0.048945,-0.075255,-0.030756,-0.161,-0.49263,-0.10903,0.071883
1496,-0.03173,-0.058365,-0.010618,-0.04115,-0.36303,-0.040175,0.11346
1497,-0.007045,-0.030106,0.011794,0.065387,-0.21427,0.0059473,0.15601
1498,0.016666,0.003024,0.033556,0.14367,-0.080451,0.023487,0.18459
1499,0.028684,0.033231,0.049147,0.18232,0.016016,0.015042,0.18167
1500,0.024461,0.050446,0.054019,0.18914,0.06831,-0.014516,0.12807
1501,0.0062721,0.05272,0.04395,0.17907,0.080653,-0.052193,0.035505
1502,-0.017114,0.046548,0.017965,0.1677,0.067336,-0.076879,-0.067459
1503,-0.033354,0.04395,-0.01614,0.16023,0.034206,-0.072331,-0.14606
1504,-0.034654,0.046223,-0.048296,0.15049,-0.010943,-0.038551,-0.17984
1505,-0.021661,0.050771,-0.068758,0.131,-0.055116,0.01017,-0.17627
1506,-0.0021729,0.054019,-0.074605,0.10794,-0.089221,0.052395,-0.15581
1507,0.016666,0.053369,-0.068109,0.092021,-0.11001,0.076431,-0.13534
1508,0.031282,0.049796,-0.057065,0.086175,-0.11878,0.091696,-0.12008
1509,0.044599,0.045899,-0.044723,0.087799,-0.11748,0.10826,-0.10838
1510,0.060515,0.048172,-0.028482,0.089748,-0.11521,0.11508,-0.095393
1511,0.076431,0.058566,-0.0080194,0.089748,-0.1243,0.0865,-0.085648
1512,0.086175,0.075131,0.010819,0.088773,-0.15223,0.00042559,-0.086298
1513,0.083576,0.092996,0.024137,0.083901,-0.19738,-0.14964,-0.10481
1514,0.071558,0.10664,0.029333,0.072208,-0.2487,-0.33705,-0.13892
1515,0.059541,0.11086,0.025111,0.054019,-0.29385,-0.51472,-0.17887
1516,0.053369,0.10339,0.019914,0.033231,-0.32438,-0.63392,-0.20713
1517,0.05272,0.087474,0.01829,0.01764,-0.3325,-0.67745,-0.2055
1518,0.05207,0.068635,0.026085,0.015692,-0.31659,-0.65114,-0.17335
1519,0.052395,0.058241,0.044599,0.026735,-0.28313,-0.5813,-0.11066
1520,0.059541,0.059541,0.068635,0.041676,-0.24253,-0.48971,-0.028157
1521,0.073507,0.06961,0.092671,0.055968,-0.2055,-0.39454,0.057267
1522,0.087799,0.081303,0.10664,0.067011,-0.18147,-0.30294,0.12613
1523,0.09462,0.087474,0.11086,0.075131,-0.17302,-0.212,0.1729
1524,0.091696,0.084551,0.11021,0.084551,-0.17432,-0.11878,0.19953
1525,0.078704,0.070259,0.10891,0.096244,-0.1753,-0.027833,0.20928
1526,0.06019,0.048822,0.11054,0.10826,-0.16263,0.050771,0.20668
1527,0.040377,0.029983,0.11118,0.11801,-0.12787,0.10729,0.19304
1528,0.022188,0.014717,0.10891,0.12125,-0.074605,0.14464,0.17095
1529,0.0078962,0.0033489,0.10177,0.11703,-0.018738,0.16543,0.15016
1530,-0.00022403,-0.0037969,0.087799,0.10599,0.025111,0.17745,0.13912
1531,-0.0011985,-0.0063954,0.073507,0.091047,0.050446,0.18362,0.13587
1532,0.0036737,-0.0047713,0.064737,0.073507,0.062464,0.18816,0.14204
1533,0.011469,0.0017248,0.065712,0.053369,0.073507,0.19499,0.15698
1534,0.020239,0.010819,0.076431,0.036479,0.090722,0.20505,0.1755
1535,0.031607,0.017316,0.089748,0.026085,0.10989,0.22194,0.19109
1536,0.043625,0.019914,0.099167,0.020564,0.12937,0.24598,0.20538
1537,0.055643,0.016341,0.10047,0.018615,0.14042,0.2606,0.22162
1538,0.067986,0.01017,0.091696,0.027385,0.13684,0.24955,0.23883
1539,0.079679,0.0056225,0.074806,0.051096,0.1232,0.21317,0.25215
1540,0.089098,0.0069217,0.049147,0.089098,0.11183,0.1664,0.25897
1541,0.090722,0.012768,0.01894,0.13067,0.11768,0.1284,0.25637
1542,0.085525,0.01894,-0.0050961,0.16803,0.14789,0.11021,0.24078
1543,0.074806,0.020564,-0.017114,0.19726,0.19921,0.11541,0.21447
1544,0.064088,0.016991,-0.019063,0.2148,0.258,0.13782,0.18622
1545,0.053369,0.0062721,-0.016789,0.20863,0.30542,0.15991,0.16478
1546,0.045574,-0.0067202,-0.019388,0.17615,0.32491,0.15731,0.15309
1547,0.0433,-0.017439,-0.030431,0.12125,0.31159,0.10566,0.14561
1548,0.045249,-0.027183,-0.047321,0.049147,0.26449,0.0026992,0.13782
1549,0.046548,-0.03303,-0.064861,-0.029457,0.18816,-0.12527,0.12743
1550,0.045574,-0.036278,-0.077528,-0.10124,0.091372,-0.23863,0.11703
1551,0.042975,-0.034329,-0.084674,-0.15548,-0.011592,-0.31464,0.10859
1552,0.038753,-0.029782,-0.087272,-0.18666,-0.10189,-0.34679,0.10469
1553,0.036154,-0.024585,-0.089221,-0.19413,-0.15938,-0.33867,0.10469
1554,0.037778,-0.019712,-0.092145,-0.18277,-0.17789,-0.29028,0.10696
1555,0.041676,-0.012567,-0.097666,-0.15873,-0.1688,-0.19998,0.10664
1556,0.044924,-0.0044465,-0.10351,-0.12365,-0.14541,-0.078178,0.10339
1557,0.048172,-0.00022403,-0.10741,-0.084349,-0.12333,0.057267,0.099167
1558,0.045249,-0.0037969,-0.10774,-0.047646,-0.11001,0.19434,0.09462
1559,0.039078,-0.01549,-0.10579,-0.015165,-0.10611,0.33368,0.093645
1560,0.030633,-0.031081,-0.10676,0.014717,-0.10091,0.49024,0.10177
1561,0.021538,-0.042774,-0.11163,0.038753,-0.072656,0.67018,0.12223
1562,0.014717,-0.045372,-0.11358,0.050121,-0.00054884,0.85337,0.14496
1563,0.011794,-0.040175,-0.11521,0.045899,0.11118,1.0099,0.14919
1564,0.010819,-0.03303,-0.11715,0.030957,0.22649,1.1093,0.11768
1565,0.0085458,-0.026209,-0.11878,0.013418,0.30607,1.1288,0.048172
1566,0.0010752,-0.021337,-0.11878,-0.0024977,0.33043,1.0726,-0.038551
1567,-0.011592,-0.021012,-0.11228,-0.019712,0.30639,0.9677,-0.11586
1568,-0.030106,-0.021337,-0.10091,-0.0405,0.25735,0.84557,-0.16588
1569,-0.052518,-0.021986,-0.084999,-0.061613,0.20765,0.72572,-0.18471
1570,-0.073631,-0.024909,-0.069083,-0.078178,0.1703,0.61269,-0.17952
1571,-0.083375,-0.028157,-0.061288,-0.086298,0.14302,0.49868,-0.16165
1572,-0.080776,-0.029132,-0.061613,-0.081101,0.11671,0.37363,-0.13989
1573,-0.071357,-0.025559,-0.062912,-0.058689,0.082927,0.23331,-0.12755
1574,-0.061288,-0.021012,-0.060963,-0.021661,0.044599,0.075131,-0.14184
1575,-0.057065,-0.015815,-0.04992,0.022512,0.0046481,-0.10968,-0.19121
1576,-0.062912,-0.010943,-0.030756,0.059216,-0.033354,-0.32536,-0.27111
1577,-0.077203,-0.0080194,-0.0080194,0.081303,-0.062912,-0.56052,-0.36076
1578,-0.092145,-0.007045,0.014392,0.096244,-0.078827,-0.78496,-0.43287
1579,-0.10124,-0.0060706,0.033556,0.12028,-0.077203,-0.95971,-0.46015
1580,-0.10091,-0.0034721,0.051745,0.16868,-0.055116,-1.0529,-0.43449
1581,-0.090521,0.0062721,0.077405,0.23981,-0.022311,-1.0552,-0.36401
1582,-0.068758,0.024137,0.11703,0.31354,0.0065969,-0.97952,-0.27046
1583,-0.036602,0.053694,0.16965,0.37006,0.008221,-0.85966,-0.17335
1584,-0.0018481,0.090397,0.22649,0.39312,-0.038227,-0.73396,-0.088247
1585,0.026085,0.13067,0.27651,0.3772,-0.13567,-0.63262,-0.027508
1586,0.042326,0.16575,0.31029,0.32881,-0.26819,-0.56864,-0.0021729
1587,0.044599,0.18492,0.32426,0.25637,-0.40331,-0.53518,-0.0096434
1588,0.039078,0.18329,0.31646,0.17192,-0.5027,-0.5092,-0.029782
1589,0.038753,0.16608,0.29048,0.092021,-0.54395,-0.46307,-0.040825
1590,0.048172,0.14302,0.25118,0.029983,-0.52316,-0.3848,-0.03303
1591,0.062464,0.11768,0.20603,-0.0076946,-0.45041,-0.27923,-0.010943
1592,0.075456,0.09397,0.1651,-0.028482,-0.3442,-0.1675,0.010495
1593,0.080003,0.074806,0.1336,-0.045697,-0.22597,-0.06681,0.01829
1594,0.070584,0.062139,0.11216,-0.061613,-0.11813,0.009845,0.0072465
1595,0.049147,0.054344,0.10014,-0.077853,-0.034004,0.058241,-0.014516
1596,0.028359,0.049796,0.094295,-0.096692,0.016016,0.0865,-0.03303
1597,0.019914,0.050446,0.092996,-0.11488,0.036479,0.10469,-0.035628
1598,0.027709,0.059216,0.095919,-0.12625,0.042975,0.11866,-0.011917
1599,0.046223,0.074482,0.10177,-0.12203,0.056617,0.1323,0.037129
1600,0.065712,0.094295,0.10729,-0.097991,0.089748,0.14919,0.10144
1601,0.080653,0.11541,0.11443,-0.059664,0.14204,0.169,0.16218
1602,0.0865,0.13132,0.12743,-0.01614,0.19953,0.19109,0.20213
1603,0.087149,0.13977,0.14951,0.021213,0.24403,0.21317,0.2161
1604,0.0852,0.14107,0.17257,0.048497,0.26612,0.22877,0.20863
1605,0.083576,0.13977,0.18524,0.058566,0.27034,0.23006,0.19661
1606,0.082602,0.13684,0.18102,0.042001,0.26904,0.2096,0.18751
1607,0.079679,0.12807,0.15796,-0.0037969,0.26839,0.16478,0.18362
1608,0.076106,0.10956,0.11476,-0.068434,0.27067,0.099492,0.17647
1609,0.070584,0.080003,0.055318,-0.13794,0.27619,0.031282,0.15958
1610,0.066686,0.047847,-0.011917,-0.19933,0.28301,-0.024909,0.1362
1611,0.064413,0.024461,-0.076879,-0.24448,0.28788,-0.061613,0.11086
1612,0.062789,0.014392,-0.12657,-0.27176,0.28983,-0.078178,0.092021
1613,0.062789,0.014068,-0.16035,-0.28021,0.28528,-0.077853,0.0852
1614,0.06019,0.023487,-0.17562,-0.27404,0.27749,-0.066485,0.088773
1615,0.055643,0.039727,-0.17432,-0.2526,0.27132,-0.04992,0.092996
1616,0.049796,0.057267,-0.15873,-0.21102,0.26352,-0.029782,0.092996
1617,0.042975,0.071883,-0.13534,-0.14119,0.2502,-0.007045,0.087474
1618,0.036804,0.078704,-0.11228,-0.052193,0.22422,0.01829,0.076755
1619,0.031607,0.071558,-0.098965,0.029983,0.18427,0.041351,0.061165
1620,0.025761,0.05272,-0.097991,0.077405,0.12385,0.057592,0.044599
1621,0.016666,0.025111,-0.10676,0.076755,0.042001,0.059865,0.034855
1622,0.0065969,-0.0037969,-0.12073,0.037129,-0.057065,0.0433,0.037778
1623,-0.00022403,-0.024585,-0.13177,-0.020362,-0.16523,0.011469,0.053044
1624,-0.00087364,-0.034329,-0.13697,-0.072656,-0.27404,-0.026209,0.072858
1625,0.0039985,-0.030756,-0.13307,-0.096692,-0.36661,-0.055766,0.085525
1626,0.014068,-0.01614,-0.11715,-0.08305,-0.42215,-0.061937,0.076106
1627,0.022512,0.003024,-0.095717,-0.033679,-0.42377,-0.039526,0.049147
1628,0.025436,0.019914,-0.075255,0.042651,-0.36368,0.0095202,0.025111
1629,0.023162,0.029333,-0.056091,0.1323,-0.2448,0.076755,0.020564
1630,0.020564,0.036154,-0.036278,0.22941,-0.081426,0.15211,0.038428
1631,0.019914,0.042001,-0.011917,0.32718,0.099167,0.21902,0.066362
1632,0.018615,0.049147,0.013418,0.41748,0.26969,0.26709,0.091047
1633,0.015692,0.059541,0.037778,0.47107,0.41683,0.29113,0.10306
1634,0.013743,0.079354,0.059865,0.44639,0.54253,0.296,0.097543
1635,0.011794,0.10826,0.074157,0.32393,0.64842,0.28983,0.080328
1636,0.008221,0.13067,0.080653,0.12937,0.72345,0.27619,0.056617
1637,0.0039985,0.13847,0.082927,-0.079477,0.74359,0.25118,0.032257
1638,0.00042559,0.12743,0.083576,-0.23636,0.69779,0.21058,0.013743
1639,-0.0024977,0.10209,0.0852,-0.30197,0.5932,0.15309,0.0052977
1640,-0.0047713,0.066686,0.087474,-0.27923,0.44931,0.081952,0.0091954
1641,-0.0034721,0.029983,0.0852,-0.19901,0.29633,0.012768,0.022512
1642,0.0017248,-0.0011985,0.075781,-0.10416,0.15406,-0.034004,0.041351
1643,0.008221,-0.019712,0.058566,-0.026858,0.03583,-0.037902,0.06019
1644,0.016016,-0.025884,0.042001,0.017965,-0.046671,0.010819,0.074482
1645,0.025436,-0.024585,0.029658,0.036154,-0.087597,0.092996,0.081952
1646,0.03453,-0.023935,0.020564,0.042326,-0.092794,0.16673,0.079029
1647,0.041351,-0.026209,0.0075714,0.045249,-0.081751,0.19563,0.061165
1648,0.042326,-0.033679,-0.012242,0.051096,-0.077853,0.16445,0.026085
1649,0.035505,-0.046022,-0.036927,0.058241,-0.10416,0.08585,-0.018738
1650,0.025436,-0.062912,-0.059989,0.063763,-0.16782,-0.011917,-0.057715
1651,0.013093,-0.083375,-0.076554,0.061814,-0.26007,-0.096367,-0.079802
1652,-0.0031473,-0.10416,-0.088896,0.036154,-0.36011,-0.14476,-0.079477
1653,-0.018088,-0.12105,-0.10254,-0.019063,-0.44391,-0.15223,-0.06681
1654,-0.031406,-0.13307,-0.1191,-0.087922,-0.4988,-0.13307,-0.04927
1655,-0.043423,-0.14152,-0.13957,-0.15126,-0.52934,-0.11228,-0.035953
1656,-0.055766,-0.14801,-0.15938,-0.19154,-0.54623,-0.10968,-0.031406
1657,-0.072006,-0.15451,-0.17367,-0.19543,-0.55694,-0.12755,-0.034654
1658,-0.088247,-0.1597,-0.17887,-0.16425,-0.56019,-0.15938,-0.039526
1659,-0.097666,-0.16425,-0.17172,-0.10936,-0.5472,-0.18926,-0.040175
1660,-0.095068,-0.16198,-0.15321,-0.049595,-0.51212,-0.20518,-0.033354
1661,-0.077203,-0.15321,-0.12852,-0.0047713,-0.44943,-0.19706,-0.019063
1662,-0.047971,-0.13859,-0.10514,0.009845,-0.35914,-0.16782,0.003024
1663,-0.015165,-0.12463,-0.085973,0.0014,-0.24708,-0.12787,0.023812
1664,0.011794,-0.11261,-0.072006,-0.017114,-0.12073,-0.085324,0.029658
1665,0.019589,-0.10351,-0.060313,-0.032055,0.009845,-0.043748,0.014392
1666,0.0088706,-0.095717,-0.050244,-0.037902,0.12937,-0.0047713,-0.011267
1667,-0.01614,-0.093444,-0.038551,-0.035953,0.22617,0.028034,-0.036602
1668,-0.0405,-0.098965,-0.025884,-0.027183,0.2947,0.050446,-0.056741
1669,-0.056416,-0.10579,-0.011267,-0.0021729,0.32134,0.064737,-0.070058
1670,-0.059989,-0.10579,0.00075039,0.041676,0.29568,0.071558,-0.076554
1671,-0.053492,-0.097017,0.011794,0.098193,0.21967,0.06961,-0.076879
1672,-0.0405,-0.080776,0.027709,0.16218,0.1206,0.059541,-0.071032
1673,-0.02361,-0.059339,0.047198,0.22909,0.040377,0.052395,-0.054467
1674,-0.0060706,-0.0405,0.064088,0.28918,0.003024,0.057592,-0.028157
1675,0.01017,-0.027508,0.072858,0.32458,-0.00087364,0.07708,0.00010078
1676,0.025111,-0.01549,0.073832,0.32198,0.020888,0.10599,0.024786
1677,0.036479,-0.0047713,0.067661,0.28203,0.067011,0.13782,0.044275
1678,0.0433,0.0062721,0.060515,0.22259,0.13847,0.16543,0.062139
1679,0.048822,0.01764,0.055643,0.16153,0.22065,0.17972,0.079029
1680,0.053044,0.027709,0.053694,0.11248,0.28268,0.17355,0.084551
1681,0.053694,0.030957,0.05272,0.074806,0.29633,0.14139,0.073832
1682,0.049147,0.023487,0.048822,0.045899,0.25345,0.074157,0.047198
1683,0.040052,0.0088706,0.041676,0.022837,0.15666,-0.024585,0.01829
1684,0.028684,-0.0093186,0.03453,0.0078962,0.026735,-0.13372,0.00010078
1685,0.021213,-0.021661,0.033556,0.0059473,-0.10968,-0.22012,-0.00087364
1686,0.022837,-0.024585,0.039727,0.017316,-0.22532,-0.25455,0.0078962
1687,0.03453,-0.012242,0.049147,0.044924,-0.30587,-0.21817,0.021213
1688,0.053044,0.017965,0.064413,0.086175,-0.34712,-0.11521,0.036154
1689,0.074482,0.054993,0.082277,0.12288,-0.36109,0.033231,0.053369
1690,0.087799,0.080978,0.090722,0.12905,-0.37115,0.19109,0.075131
1691,0.090397,0.087799,0.077405,0.081627,-0.3822,0.32783,0.10112
1692,0.082277,0.078055,0.045249,-0.015815,-0.38122,0.42332,0.1258
1693,0.066037,0.059865,0.008221,-0.13534,-0.35102,0.47919,0.14107
1694,0.046548,0.0433,-0.020362,-0.23766,-0.28476,0.50518,0.14172
1695,0.029333,0.036479,-0.031081,-0.29223,-0.19771,0.50907,0.12937
1696,0.01894,0.038428,-0.026533,-0.28833,-0.12008,0.49706,0.11313
1697,0.011469,0.044924,-0.012567,-0.23246,-0.076229,0.47854,0.10144
1698,0.0036737,0.057592,0.0075714,-0.14314,-0.070058,0.46263,0.094945
1699,-0.0011985,0.072208,0.028034,-0.045372,-0.077528,0.46165,0.095269
1700,-0.0015233,0.085525,0.044924,0.038103,-0.063561,0.47952,0.10306
1701,0.0017248,0.094945,0.051745,0.093321,-0.0041217,0.50842,0.12158
1702,0.0062721,0.098517,0.049147,0.11638,0.10177,0.53506,0.14756
1703,0.009845,0.095919,0.042326,0.11801,0.24111,0.5448,0.17452
1704,0.012768,0.087799,0.038103,0.11671,0.39831,0.52207,0.19563
1705,0.017965,0.080328,0.040702,0.12483,0.54448,0.44996,0.20408
1706,0.02706,0.078379,0.047523,0.13944,0.65069,0.32458,0.19563
1707,0.040052,0.078704,0.053044,0.15309,0.70169,0.1677,0.16608
1708,0.055643,0.083251,0.057917,0.15601,0.70266,0.020564,0.1232
1709,0.069934,0.093321,0.067986,0.13717,0.66693,-0.084999,0.070909
1710,0.073832,0.10242,0.079029,0.096893,0.5945,-0.14541,0.0085458
1711,0.062464,0.10404,0.087799,0.054993,0.48374,-0.18309,-0.068758
1712,0.033881,0.092671,0.093321,0.040052,0.34017,-0.22207,-0.15418
1713,-0.0054209,0.06896,0.092346,0.068635,0.18232,-0.28053,-0.22986
1714,-0.042124,0.044599,0.087149,0.13684,0.033556,-0.36563,-0.27956
1715,-0.065186,0.028684,0.087799,0.22519,-0.082076,-0.47996,-0.29905
1716,-0.069733,0.024461,0.09397,0.31094,-0.15093,-0.60989,-0.29742
1717,-0.060638,0.02706,0.10274,0.37753,-0.17887,-0.73169,-0.2945
1718,-0.048945,0.034855,0.11313,0.42235,-0.18959,-0.81354,-0.30067
1719,-0.0405,0.044599,0.12385,0.44281,-0.22012,-0.83368,-0.31561
1720,-0.038551,0.057267,0.13457,0.44314,-0.29417,-0.796,-0.33705
1721,-0.039201,0.072208,0.14659,0.43112,-0.4176,-0.72909,-0.35816
1722,-0.038876,0.090722,0.15828,0.41618,-0.56604,-0.67355,-0.36693
1723,-0.031406,0.10891,0.16835,0.40026,-0.70083,-0.66413,-0.34874
1724,-0.013866,0.12353,0.17517,0.37915,-0.78918,-0.70376,-0.29775
1725,0.012768,0.13392,0.17874,0.35122,-0.796,-0.76839,-0.21849
1726,0.045899,0.14432,0.18362,0.31646,-0.69726,-0.82718,-0.12625
1727,0.078055,0.16056,0.19076,0.28106,-0.49491,-0.86908,-0.033679
1728,0.10306,0.18427,0.19661,0.24241,-0.22304,-0.89637,0.040702
1729,0.11768,0.20538,0.19401,0.18622,0.051096,-0.91001,0.079354
1730,0.11833,0.2135,0.1755,0.088124,0.26255,-0.90904,0.073507
1731,0.10924,0.20538,0.14074,-0.061937,0.3785,-0.88987,0.029658
1732,0.092996,0.18362,0.091696,-0.24188,0.40286,-0.84115,-0.029457
1733,0.074806,0.15438,0.038428,-0.41143,0.36259,-0.75443,-0.080127
1734,0.055968,0.12093,-0.0067202,-0.53713,0.28788,-0.63003,-0.10903
1735,0.036154,0.088773,-0.034329,-0.59657,0.20538,-0.47119,-0.11878
1736,0.013093,0.063113,-0.044723,-0.5839,0.13197,-0.29093,-0.11715
1737,-0.013216,0.046873,-0.045047,-0.51472,0.079679,-0.10903,-0.10968
1738,-0.034654,0.036154,-0.042774,-0.41695,0.055968,0.059216,-0.09929
1739,-0.045372,0.029333,-0.037902,-0.32081,0.05207,0.19953,-0.080127
1740,-0.043748,0.023162,-0.028807,-0.24773,0.05207,0.30055,-0.049595
1741,-0.034329,0.015692,-0.017114,-0.20453,0.044924,0.35512,-0.017439
1742,-0.020037,0.010495,-0.0073698,-0.18114,0.029658,0.37201,0.0075714
1743,-0.0034721,0.0065969,-0.00087364,-0.16165,0.0062721,0.38013,0.023162
1744,0.010819,0.0026992,0.0056225,-0.13664,-0.015815,0.4178,0.030308
1745,0.019914,-0.0011985,0.013093,-0.10644,-0.025559,0.5042,0.03453
1746,0.025436,-0.0011985,0.022188,-0.077853,-0.017114,0.62146,0.040377
1747,0.032582,0.0069217,0.03453,-0.062912,0.0017248,0.72312,0.048497
1748,0.038753,0.021538,0.044924,-0.070382,0.0091954,0.76762,0.05272
1749,0.0433,0.036479,0.05142,-0.098965,-0.011592,0.74813,0.05142
1750,0.046223,0.044924,0.050446,-0.13307,-0.057065,0.69162,0.042975
1751,0.052395,0.044599,0.042975,-0.14411,-0.10774,0.6351,0.029983
1752,0.059216,0.039727,0.039078,-0.10579,-0.13827,0.60587,0.018615
1753,0.066686,0.03453,0.045574,-0.013866,-0.15483,0.60782,0.01764
1754,0.073507,0.028684,0.061489,0.10729,-0.17075,0.6286,0.031607
1755,0.079354,0.021538,0.079679,0.22454,-0.18277,0.64192,0.058891
1756,0.081627,0.015367,0.091047,0.30899,-0.17302,0.6273,0.086824
1757,0.079354,0.0088706,0.089098,0.3405,-0.12592,0.57858,0.10534
1758,0.071558,0.0046481,0.073507,0.32556,-0.039851,0.5042,0.10599
1759,0.06019,0.0017248,0.05207,0.29308,0.062789,0.42462,0.087799
1760,0.044275,0.0010752,0.033881,0.26774,0.15341,0.35804,0.058891
1761,0.029658,-0.0021729,0.025436,0.2593,0.21155,0.31094,0.034855
1762,0.019264,-0.007045,0.021863,0.25507,0.22357,0.28138,0.030957
1763,0.021538,-0.010943,0.01764,0.23883,0.19076,0.258,0.05272
1764,0.029009,-0.0096434,0.0091954,0.19953,0.13425,0.21935,0.099167
1765,0.034206,-0.0011985,-0.0024977,0.13587,0.083576,0.13977,0.15536
1766,0.033231,0.010495,-0.016464,0.054993,0.064088,0.020564,0.19856
1767,0.02706,0.019914,-0.03303,-0.027183,0.09397,-0.10741,0.21805
1768,0.021863,0.028034,-0.049595,-0.097991,0.17257,-0.19771,0.2187
1769,0.022512,0.03583,-0.062912,-0.14834,0.27976,-0.21849,0.21805
1770,0.030308,0.045249,-0.068109,-0.18244,0.37688,-0.16718,0.23266
1771,0.041027,0.051745,-0.068434,-0.2055,0.44054,-0.072006,0.26774
1772,0.05272,0.051096,-0.067459,-0.21849,0.46458,0.033231,0.31224
1773,0.062464,0.042651,-0.070382,-0.21947,0.4584,0.12483,0.35544
1774,0.071234,0.033231,-0.078827,-0.20778,0.43534,0.19336,0.3876
1775,0.079029,0.025761,-0.086948,-0.18764,0.40221,0.23851,0.40741
1776,0.0865,0.019264,-0.091495,-0.16133,0.36324,0.26807,0.42268
1777,0.0865,0.012119,-0.090196,-0.13567,0.31516,0.29015,0.43372
1778,0.07773,0.00075039,-0.086948,-0.11488,0.24111,0.30477,0.43274
1779,0.064413,-0.01614,-0.089221,-0.10546,0.12255,0.2986,0.40936
1780,0.045899,-0.034004,-0.10059,-0.10579,-0.059014,0.2593,0.36096
1781,0.025761,-0.047646,-0.11748,-0.10481,-0.30359,0.18524,0.29568
1782,0.0091954,-0.05739,-0.13177,-0.087597,-0.58228,0.091047,0.22974
1783,-0.0024977,-0.063237,-0.13697,-0.04992,-0.84472,0.00075039,0.17874
1784,-0.0067202,-0.069083,-0.1321,0.012443,-1.0377,-0.06551,0.15763
1785,-0.0028225,-0.07428,-0.12105,0.098193,-1.1198,-0.10221,0.16121
1786,0.0043233,-0.082076,-0.11033,0.19693,-1.064,-0.12592,0.1716
1787,0.012443,-0.088572,-0.09929,0.29308,-0.86714,-0.16003,0.17062
1788,0.019914,-0.09117,-0.089221,0.36226,-0.56961,-0.21557,0.15016
