,channel_1,channel_2,channel_3,channel_4,channel_5,channel_6,channel_7
0,0.11313,0.18037,0.22714,0.58605,0.42495,0.20798,0.18881
1,0.10761,0.17745,0.23526,0.36161,0.2096,0.28983,0.19758
2,0.097543,0.16673,0.23071,0.15503,0.0020496,0.3889,0.2109
3,0.082602,0.14789,0.20993,0.019589,-0.14087,0.5003,0.23136
4,0.062789,0.1232,0.16738,-0.020687,-0.18049,0.60229,0.24988
5,0.038428,0.095919,0.10631,0.018615,-0.11391,0.67343,0.25475
6,0.015042,0.065712,0.036479,0.091696,0.032582,0.69746,0.24013
7,0.0020496,0.033881,-0.034654,0.14919,0.22162,0.66985,0.2122
8,0.0023744,0.0036737,-0.097991,0.15536,0.41033,0.59905,0.18492
9,0.011469,-0.018088,-0.14834,0.10696,0.55942,0.49998,0.16705
10,0.023487,-0.028807,-0.18309,0.030633,0.64095,0.39344,0.16283
11,0.038428,-0.026858,-0.20063,-0.039201,0.63542,0.29113,0.16933
12,0.053044,-0.016789,-0.19706,-0.078827,0.53603,0.19076,0.17777
13,0.064737,-0.0096434,-0.17237,-0.084349,0.37103,0.087799,0.16933
14,0.066686,-0.016464,-0.13307,-0.074605,0.17582,-0.030106,0.12905
15,0.050446,-0.038551,-0.093119,-0.075579,-0.0096434,-0.174,0.050121
16,0.013418,-0.07493,-0.063886,-0.10416,-0.15321,-0.35394,-0.064211
17,-0.034329,-0.12138,-0.049595,-0.16523,-0.23246,-0.56474,-0.19511
18,-0.0824,-0.1688,-0.045697,-0.2435,-0.23311,-0.78236,-0.32211
19,-0.11715,-0.2107,-0.048945,-0.31789,-0.13275,-0.96945,-0.42377
20,-0.13632,-0.23571,-0.052843,-0.36758,0.080003,-1.0926,-0.48711
21,-0.13794,-0.23733,-0.050569,-0.38512,0.38792,-1.127,-0.49848
22,-0.12722,-0.21557,-0.036927,-0.37505,0.71013,-1.0734,-0.45853
23,-0.10838,-0.18049,-0.014516,-0.34777,0.9323,-0.96035,-0.37895
24,-0.084999,-0.14184,0.0072465,-0.31594,0.96705,-0.83011,-0.28281
25,-0.05739,-0.10838,0.019264,-0.29288,0.79166,-0.7174,-0.18959
26,-0.033354,-0.081751,0.016991,-0.28703,0.461,-0.64204,-0.12008
27,-0.023285,-0.063237,-0.0024977,-0.30165,0.06896,-0.60372,-0.079802
28,-0.030431,-0.056416,-0.037252,-0.32828,-0.28898,-0.5813,-0.061613
29,-0.051544,-0.057715,-0.087272,-0.34972,-0.54233,-0.54363,-0.04862
30,-0.075255,-0.063237,-0.15061,-0.35361,-0.66056,-0.46925,-0.03303
31,-0.092469,-0.070382,-0.21817,-0.33965,-0.65991,-0.35556,-0.011592
32,-0.098965,-0.074605,-0.27761,-0.30944,-0.57871,-0.21947,0.012768
33,-0.092794,-0.070707,-0.31626,-0.27079,-0.45008,-0.078827,0.038428
34,-0.077203,-0.058689,-0.32048,-0.23019,-0.29385,0.048497,0.064088
35,-0.054792,-0.039526,-0.28995,-0.19186,-0.11878,0.15049,0.088773
36,-0.03173,-0.01614,-0.23084,-0.15646,0.071234,0.23039,0.10989
37,-0.0089938,0.008221,-0.15548,-0.1204,0.25767,0.29503,0.1258
38,0.0088706,0.027385,-0.073631,-0.086948,0.40643,0.34602,0.13782
39,0.018615,0.037454,0.0059473,-0.06616,0.48959,0.3759,0.14561
40,0.021213,0.039078,0.075781,-0.064211,0.49836,0.37623,0.15016
41,0.022512,0.032906,0.13002,-0.085324,0.43437,0.34342,0.15373
42,0.024137,0.019914,0.16445,-0.13112,0.30152,0.28561,0.15373
43,0.025436,0.008221,0.1781,-0.19868,0.10794,0.22324,0.14659
44,0.024786,0.0033489,0.1742,-0.28151,-0.1243,0.18329,0.13425
45,0.01829,0.0069217,0.15503,-0.36238,-0.35914,0.18459,0.1232
46,0.0085458,0.013093,0.12613,-0.4215,-0.57059,0.23006,0.11411
47,0.0020496,0.018615,0.089423,-0.44456,-0.74273,0.30282,0.10404
48,0.0020496,0.014068,0.045574,-0.43449,-0.88175,0.3772,0.096569
49,0.0085458,-0.0063954,-0.0018481,-0.40883,-1.0023,0.43242,0.09397
50,0.01764,-0.042774,-0.050569,-0.38285,-1.1104,0.45386,0.09397
51,0.025761,-0.084024,-0.095068,-0.35979,-1.1871,0.44184,0.090722
52,0.033556,-0.11391,-0.13015,-0.33835,-1.2004,0.40968,0.0865
53,0.041351,-0.12333,-0.14964,-0.31659,-1.1358,0.37265,0.086824
54,0.046873,-0.11845,-0.15223,-0.29288,-0.99478,0.34147,0.09397
55,0.048822,-0.10481,-0.14509,-0.26397,-0.80185,0.31549,0.10566
56,0.046548,-0.095068,-0.13957,-0.23181,-0.60339,0.28918,0.11151
57,0.037129,-0.098316,-0.14216,-0.20063,-0.44554,0.25475,0.10047
58,0.018615,-0.11586,-0.15126,-0.174,-0.35069,0.20668,0.067986
59,-0.0089938,-0.14216,-0.16068,-0.15061,-0.31951,0.13327,0.012768
60,-0.040175,-0.16945,-0.16653,-0.12657,-0.33315,0.019589,-0.061937
61,-0.071682,-0.19543,-0.1701,-0.096367,-0.36303,-0.12398,-0.14606
62,-0.09929,-0.2133,-0.17172,-0.056741,-0.38025,-0.26397,-0.21752
63,-0.11813,-0.21979,-0.17075,-0.0037969,-0.36921,-0.35849,-0.25162
64,-0.12203,-0.21427,-0.1623,0.061814,-0.3286,-0.38512,-0.23149
65,-0.11228,-0.20323,-0.14704,0.13327,-0.25975,-0.3416,-0.16458
66,-0.098316,-0.18796,-0.13015,0.19271,-0.17172,-0.2461,-0.076554
67,-0.086623,-0.17562,-0.1178,0.22941,-0.080776,-0.12527,0.0049729
68,-0.081101,-0.16815,-0.11651,0.24143,-0.01484,0.0014,0.06831
69,-0.078503,-0.16393,-0.12495,0.23299,0.0010752,0.12645,0.11021
70,-0.073955,-0.1597,-0.13697,0.22097,-0.038227,0.2463,0.13262
71,-0.062262,-0.15321,-0.14834,0.21447,-0.11131,0.34959,0.14367
72,-0.041799,-0.14411,-0.15613,0.21837,-0.17692,0.41488,0.15146
73,-0.01614,-0.12917,-0.15743,0.22974,-0.20063,0.42917,0.15471
74,0.011144,-0.10709,-0.14996,0.23851,-0.16523,0.39214,0.15309
75,0.037129,-0.080127,-0.13372,0.22941,-0.074605,0.32263,0.14919
76,0.057917,-0.051868,-0.11066,0.19758,0.048497,0.258,0.14789
77,0.074482,-0.026858,-0.081101,0.14886,0.17939,0.23071,0.15244
78,0.08585,-0.011917,-0.044723,0.10859,0.29568,0.25215,0.15991
79,0.092671,-0.0034721,-0.0054209,0.10112,0.38272,0.31192,0.1677
80,0.094295,0.0043233,0.038753,0.13002,0.42787,0.3837,0.17485
81,0.091047,0.01829,0.087474,0.16738,0.43209,0.44574,0.1781
82,0.0852,0.039727,0.14139,0.18102,0.41066,0.48926,0.1742
83,0.07773,0.067011,0.19888,0.15179,0.39149,0.5081,0.16413
84,0.072533,0.098517,0.26222,0.089098,0.40319,0.49381,0.14334
85,0.072208,0.13262,0.32881,0.016341,0.45386,0.43859,0.10859
86,0.076755,0.1651,0.39117,-0.042774,0.52109,0.34375,0.058241
87,0.078704,0.18979,0.43729,-0.076229,0.56202,0.22324,-0.0018481
88,0.073507,0.20376,0.46068,-0.086623,0.53603,0.10112,-0.067134
89,0.061165,0.2096,0.45613,-0.082076,0.43242,0.011794,-0.12592
90,0.045899,0.2135,0.43015,-0.071357,0.28431,-0.02361,-0.15938
91,0.036804,0.22,0.39279,-0.048296,0.14204,-0.0018481,-0.15418
92,0.038428,0.22941,0.35609,-0.0063954,0.041351,0.055643,-0.11228
93,0.048172,0.23429,0.32296,0.044275,-0.0067202,0.10339,-0.053817
94,0.054993,0.22682,0.28658,0.078704,-0.0073698,0.095269,-0.0089938
95,0.054344,0.2044,0.23916,0.079354,0.023812,0.014717,-0.0011985
96,0.049472,0.17127,0.18427,0.045899,0.066686,-0.12333,-0.034004
97,0.043625,0.13749,0.13197,-0.00054884,0.11378,-0.2893,-0.097666
98,0.036479,0.11021,0.087474,-0.034004,0.16413,-0.45268,-0.174
99,0.02706,0.093321,0.053694,-0.039526,0.21577,-0.58715,-0.25227
100,0.019589,0.085525,0.030308,-0.011592,0.27002,-0.67745,-0.32308
101,0.011144,0.082927,0.016666,0.04395,0.33465,-0.7187,-0.37538
102,-0.0034721,0.081303,0.0095202,0.10404,0.39994,-0.71805,-0.39487
103,-0.019712,0.074806,0.00010078,0.13295,0.44054,-0.69206,-0.37505
104,-0.030431,0.06084,-0.015815,0.11443,0.44281,-0.65796,-0.31918
105,-0.035953,0.041351,-0.035953,0.071234,0.41975,-0.62905,-0.2448
106,-0.035628,0.023487,-0.058689,0.042975,0.39442,-0.61476,-0.18601
107,-0.028807,0.0088706,-0.076879,0.056617,0.3863,-0.61411,-0.17107
108,-0.019063,-0.0057458,-0.084999,0.11768,0.39799,-0.62093,-0.20128
109,-0.011267,-0.018738,-0.08305,0.2083,0.42917,-0.61931,-0.25292
110,-0.0015233,-0.025234,-0.071357,0.29925,0.47237,-0.59982,-0.29385
111,0.0088706,-0.021986,-0.053168,0.35771,0.50453,-0.56506,-0.29547
112,0.016991,-0.0096434,-0.030756,0.36746,0.47789,-0.52739,-0.25227
113,0.022512,0.0085458,-0.011592,0.32978,0.36583,-0.49003,-0.17302
114,0.029009,0.030308,0.0056225,0.26742,0.17777,-0.45203,-0.069408
115,0.040702,0.054019,0.025761,0.22162,-0.029132,-0.40916,0.03583
116,0.054668,0.074806,0.05272,0.22162,-0.17887,-0.35784,0.11768
117,0.066362,0.083901,0.080328,0.27781,-0.23051,-0.30359,0.15244
118,0.070584,0.079679,0.10112,0.38922,-0.20615,-0.25845,0.1284
119,0.062139,0.066686,0.10989,0.5448,-0.17335,-0.23279,0.044924
120,0.042975,0.055318,0.11151,0.74066,-0.18666,-0.23506,-0.085973
121,0.018615,0.054019,0.11541,0.96543,-0.2526,-0.25942,-0.23441
122,-0.0031473,0.063113,0.1271,1.1723,-0.35134,-0.28768,-0.36368
123,-0.020037,0.073507,0.14269,1.2857,-0.46502,-0.30587,-0.44846
124,-0.029782,0.079354,0.15958,1.2568,-0.56604,-0.30652,-0.47737
125,-0.032705,0.078055,0.17387,1.1126,-0.60891,-0.27728,-0.45171
126,-0.024585,0.073182,0.18524,0.92775,-0.56636,-0.2094,-0.38902
127,-0.0093186,0.06831,0.19888,0.76405,-0.44716,-0.11261,-0.30814
128,0.011469,0.069285,0.22357,0.65231,-0.28313,-0.008669,-0.22467
129,0.031607,0.080328,0.26092,0.58703,-0.11293,0.0852,-0.14639
130,0.047523,0.095594,0.30152,0.5487,0.033881,0.16218,-0.07428
131,0.061489,0.11151,0.33465,0.51914,0.13814,0.21675,-0.0080194
132,0.076431,0.13067,0.35284,0.48147,0.19628,0.24046,0.049796
133,0.096244,0.15276,0.34927,0.42235,0.21935,0.23494,0.10371
134,0.1219,0.17257,0.32101,0.33043,0.22,0.21123,0.15503
135,0.14529,0.18037,0.26709,0.2096,0.19466,0.17647,0.19986
136,0.15601,0.16835,0.18881,0.066686,0.12937,0.13522,0.23266
137,0.14984,0.13749,0.095594,-0.094093,0.015042,0.0865,0.2567
138,0.13197,0.095594,-0.0018481,-0.26169,-0.13892,0.037129,0.27749
139,0.11216,0.063113,-0.0837,-0.40948,-0.30262,-0.00022403,0.30282
140,0.10144,0.05272,-0.13307,-0.50627,-0.43579,-0.0063954,0.33498
141,0.10339,0.061489,-0.14379,-0.51992,-0.50692,0.028359,0.36908
142,0.11443,0.07708,-0.12268,-0.43124,-0.5105,0.10501,0.39669
143,0.12645,0.086175,-0.084024,-0.2435,-0.46275,0.20668,0.41488
144,0.13457,0.082602,-0.044723,0.0062721,-0.37473,0.31159,0.4256
145,0.13847,0.070584,-0.018738,0.2476,-0.26332,0.40026,0.43404
146,0.13717,0.057267,-0.013541,0.41066,-0.14379,0.4688,0.44541
147,0.13067,0.047847,-0.026858,0.45418,-0.017439,0.52337,0.45938
148,0.12093,0.045899,-0.050894,0.36421,0.11768,0.56527,0.46652
149,0.10566,0.050446,-0.075579,0.14269,0.25702,0.59287,0.4571
150,0.086824,0.060515,-0.09117,-0.18082,0.37233,0.60099,0.4269
151,0.066362,0.073182,-0.086623,-0.53421,0.42852,0.59775,0.38727
152,0.05207,0.089098,-0.064211,-0.82101,0.4191,0.5932,0.35512
153,0.049472,0.10729,-0.035303,-0.97302,0.37493,0.59775,0.33887
154,0.056292,0.12223,-0.010943,-0.97237,0.35317,0.61626,0.34147
155,0.068635,0.12937,0.0020496,-0.85544,0.40189,0.6364,0.35804
156,0.074482,0.12775,0.0010752,-0.67387,0.52759,0.6312,0.37915
157,0.071234,0.11963,-0.012567,-0.47867,0.67765,0.58605,0.39182
158,0.066362,0.10859,-0.034978,-0.31854,0.77119,0.50225,0.3889
159,0.065712,0.10177,-0.063886,-0.22726,0.75723,0.39377,0.36713
160,0.065712,0.10014,-0.09117,-0.20648,0.64809,0.27326,0.33173
161,0.06084,0.10242,-0.11358,-0.23214,0.49511,0.15503,0.29178
162,0.051096,0.10631,-0.12885,-0.26689,0.36226,0.053044,0.25313
163,0.038428,0.10599,-0.13664,-0.27923,0.30217,-0.025559,0.2161
164,0.02641,0.099817,-0.13632,-0.25325,0.34017,-0.084999,0.1729
165,0.013743,0.085525,-0.1334,-0.19348,0.45646,-0.13145,0.11703
166,-0.0031473,0.062464,-0.13632,-0.14087,0.58833,-0.16977,0.054668
167,-0.025559,0.028684,-0.15418,-0.14801,0.68739,-0.19771,-0.0044465
168,-0.053168,-0.013866,-0.18861,-0.24026,0.75495,-0.21265,-0.04927
169,-0.077853,-0.055441,-0.23149,-0.39584,0.81407,-0.21427,-0.073631
170,-0.095068,-0.086623,-0.26949,-0.57481,0.87253,-0.19706,-0.079802
171,-0.10026,-0.10481,-0.2919,-0.72617,0.91476,-0.16555,-0.078178
172,-0.095393,-0.11228,-0.29385,-0.80737,0.90404,-0.123,-0.080451
173,-0.086298,-0.11196,-0.27339,-0.7947,0.80757,-0.079802,-0.09117
174,-0.078178,-0.10319,-0.23701,-0.68622,0.62795,-0.042124,-0.10838
175,-0.077203,-0.087597,-0.19121,-0.49783,0.41131,-0.00087364,-0.12235
176,-0.078503,-0.068434,-0.14314,-0.26429,0.22747,0.054344,-0.12495
177,-0.076229,-0.04992,-0.097341,-0.030431,0.13165,0.12093,-0.11228
178,-0.068758,-0.035303,-0.05804,0.16608,0.13782,0.18524,-0.094743
179,-0.060638,-0.028807,-0.028157,0.30152,0.20993,0.22682,-0.088896
180,-0.057065,-0.028482,-0.0099683,0.37655,0.28626,0.24306,-0.10384
181,-0.062262,-0.036602,-0.0021729,0.39896,0.31614,0.23364,-0.13957
182,-0.072656,-0.052518,-0.0011985,0.38013,0.27976,0.19628,-0.18569
183,-0.082725,-0.070707,-0.007045,0.334,0.18134,0.14529,-0.2172
184,-0.088896,-0.083375,-0.015165,0.26839,0.046548,0.10501,-0.21622
185,-0.089871,-0.084024,-0.021337,0.19141,-0.088247,0.10014,-0.17724
186,-0.083375,-0.07428,-0.020687,0.10989,-0.19641,0.13717,-0.10903
187,-0.070382,-0.059339,-0.0099683,0.027385,-0.28118,0.20278,-0.025559
188,-0.051544,-0.045047,0.0065969,-0.051219,-0.36303,0.27326,0.055318
189,-0.032705,-0.034654,0.023162,-0.1282,-0.45723,0.31744,0.11638
190,-0.020362,-0.025559,0.03518,-0.20355,-0.56084,0.30704,0.14334
191,-0.017114,-0.017764,0.042001,-0.26267,-0.65796,0.22389,0.1323
192,-0.019712,-0.012892,0.050771,-0.29612,-0.72617,0.075456,0.089098
193,-0.020362,-0.0057458,0.063763,-0.301,-0.75085,-0.11553,0.024137
194,-0.01614,0.0039985,0.079679,-0.28346,-0.73591,-0.31659,-0.044073
195,-0.011917,0.015042,0.092996,-0.25455,-0.69921,-0.49556,-0.096367
196,-0.010293,0.023162,0.095919,-0.21882,-0.65991,-0.62158,-0.12365
197,-0.011267,0.025111,0.087474,-0.17692,-0.62808,-0.68427,-0.13112
198,-0.013866,0.021538,0.071234,-0.1256,-0.60534,-0.68329,-0.1256
199,-0.014191,0.014392,0.054019,-0.062912,-0.59267,-0.62548,-0.11033
200,-0.01484,0.008221,0.04395,0.0078962,-0.59137,-0.52122,-0.086948
201,-0.01549,0.0059473,0.042326,0.069934,-0.59819,-0.38934,-0.059989
202,-0.017764,0.0033489,0.042326,0.10047,-0.60924,-0.26039,-0.042124
203,-0.021337,-0.0034721,0.038428,0.08585,-0.61996,-0.16555,-0.046671
204,-0.024909,-0.01614,0.030308,0.021538,-0.63035,-0.13015,-0.078503
205,-0.031406,-0.034978,0.01829,-0.072656,-0.64367,-0.15353,-0.123
206,-0.035953,-0.056091,0.008221,-0.16133,-0.66446,-0.20031,-0.15451
207,-0.039851,-0.070058,0.0062721,-0.2055,-0.68589,-0.22109,-0.15126
208,-0.036927,-0.073955,0.0075714,-0.19154,-0.69304,-0.18309,-0.11066
209,-0.026209,-0.06616,0.0056225,-0.13632,-0.6768,-0.086623,-0.044398
210,-0.011267,-0.055441,-0.0015233,-0.061288,-0.63295,0.036804,0.028034
211,0.0026992,-0.046347,-0.0099683,0.022188,-0.56409,0.15309,0.092021
212,0.015042,-0.040825,-0.017439,0.10794,-0.48061,0.2502,0.13814
213,0.030633,-0.0405,-0.021986,0.19369,-0.39129,0.33011,0.17127
214,0.046873,-0.044073,-0.021012,0.27911,-0.29353,0.40579,0.19628
215,0.059541,-0.04862,-0.014191,0.35512,-0.19413,0.48082,0.21382
216,0.064088,-0.052193,-0.0099683,0.40189,-0.12203,0.5474,0.21935
217,0.058891,-0.054792,-0.016464,0.39409,-0.10644,0.5854,0.21447
218,0.048172,-0.056091,-0.034978,0.32881,-0.15093,0.57306,0.20538
219,0.03518,-0.054467,-0.061613,0.23006,-0.23311,0.51557,0.19499
220,0.024137,-0.04862,-0.084024,0.13295,-0.31918,0.43469,0.18297
221,0.015692,-0.038876,-0.094093,0.063113,-0.3848,0.34277,0.16153
222,0.009845,-0.029782,-0.090521,0.031607,-0.42052,0.23299,0.11866
223,0.0026992,-0.022636,-0.076554,0.032582,-0.4254,0.097868,0.053369
224,-0.0063954,-0.017439,-0.055116,0.042651,-0.40363,-0.058365,-0.023935
225,-0.01484,-0.010293,-0.032055,0.030308,-0.37083,-0.21979,-0.093119
226,-0.017114,0.0056225,-0.011917,-0.026209,-0.34874,-0.36563,-0.13307
227,-0.0083442,0.036479,0.0046481,-0.1243,-0.35199,-0.47282,-0.13924
228,0.0091954,0.080978,0.020888,-0.23863,-0.38317,-0.52414,-0.11748
229,0.033556,0.13002,0.041027,-0.33705,-0.42377,-0.52479,-0.0837
230,0.059541,0.169,0.065062,-0.39422,-0.45138,-0.49556,-0.059339
231,0.079679,0.18881,0.090722,-0.40136,-0.44359,-0.46048,-0.063237
232,0.088773,0.19076,0.12418,-0.35946,-0.38642,-0.42994,-0.10449
233,0.0865,0.18589,0.1625,-0.27436,-0.2893,-0.40169,-0.18017
234,0.076106,0.17972,0.19758,-0.15061,-0.174,-0.35881,-0.27404
235,0.058891,0.16998,0.21967,0.011144,-0.075904,-0.28735,-0.36401
236,0.041027,0.15633,0.22357,0.20213,-0.020687,-0.19641,-0.4241
237,0.025436,0.13782,0.2122,0.40384,-0.0093186,-0.10774,-0.43124
238,0.016016,0.11801,0.19336,0.59645,-0.020362,-0.042774,-0.38252
239,0.013093,0.095919,0.17322,0.75853,-0.022961,-0.012567,-0.29417
240,0.017965,0.07708,0.15471,0.86994,0.0062721,-0.020037,-0.19316
241,0.029009,0.066686,0.14042,0.92093,0.075781,-0.064861,-0.092794
242,0.042001,0.062139,0.13067,0.91378,0.17939,-0.1282,-0.0011985
243,0.054019,0.060515,0.12807,0.86246,0.31581,-0.17302,0.082602
244,0.070909,0.061814,0.13165,0.78451,0.48894,-0.1675,0.15633
245,0.090722,0.06831,0.13684,0.69519,0.69714,-0.096367,0.2122
246,0.10664,0.080328,0.13749,0.60879,0.9219,0.030957,0.24728
247,0.11703,0.095919,0.1349,0.53798,1.1272,0.18394,0.26287
248,0.12483,0.11054,0.13002,0.48471,1.2782,0.32556,0.25767
249,0.12937,0.11995,0.12385,0.44249,1.3549,0.41845,0.23136
250,0.12613,0.12223,0.11541,0.40741,1.3442,0.44119,0.18914
251,0.11508,0.11638,0.10436,0.37655,1.2454,0.38532,0.13425
252,0.099492,0.10534,0.090072,0.33693,1.0733,0.2567,0.069934
253,0.086175,0.087149,0.072858,0.27521,0.85499,0.072533,0.0023744
254,0.079679,0.065712,0.058241,0.18881,0.61269,-0.1334,-0.059339
255,0.07708,0.049796,0.052395,0.088773,0.34764,-0.31334,-0.10838
256,0.075131,0.04395,0.054019,0.0020496,0.057592,-0.43092,-0.14249
257,0.06961,0.045574,0.061814,-0.052193,-0.24968,-0.47542,-0.16815
258,0.059541,0.045249,0.06831,-0.072006,-0.54752,-0.4647,-0.19543
259,0.044275,0.037454,0.065712,-0.068109,-0.78658,-0.42865,-0.23084
260,0.027709,0.024786,0.053369,-0.045372,-0.91423,-0.38772,-0.26819
261,0.014068,0.014392,0.038753,-0.008669,-0.91878,-0.3364,-0.29158
262,0.0085458,0.012443,0.032257,0.036479,-0.85772,-0.2591,-0.28021
263,0.0091954,0.016666,0.035505,0.081627,-0.83303,-0.15126,-0.22402
264,0.011144,0.021213,0.043625,0.10891,-0.90027,-0.033679,-0.1308
265,0.013093,0.022837,0.049796,0.096893,-1.0338,0.062789,-0.026533
266,0.015692,0.024461,0.047847,0.045574,-1.1478,0.12093,0.063438
267,0.025111,0.030308,0.0433,-0.020687,-1.1494,0.14237,0.11931
268,0.038103,0.038103,0.039078,-0.072656,-0.99186,0.13522,0.13295
269,0.047523,0.0433,0.037454,-0.09117,-0.68394,0.11118,0.10404
270,0.046548,0.041351,0.035505,-0.075904,-0.28833,0.083576,0.044275
271,0.032582,0.031607,0.033881,-0.044723,0.097543,0.062464,-0.033679
272,0.0072465,0.015367,0.024786,-0.022311,0.38078,0.038753,-0.11391
273,-0.02426,-0.0018481,0.0069217,-0.027508,0.5146,0.0065969,-0.17822
274,-0.052193,-0.018088,-0.011267,-0.061937,0.52434,-0.021661,-0.20843
275,-0.067134,-0.033354,-0.020037,-0.11196,0.4727,-0.025234,-0.19381
276,-0.067459,-0.045047,-0.013216,-0.16068,0.4204,0.0072465,-0.13729
277,-0.057065,-0.050569,0.0017248,-0.19771,0.39572,0.069934,-0.053492
278,-0.0405,-0.050569,0.014392,-0.22272,0.39994,0.14334,0.037129
279,-0.023285,-0.048945,0.014068,-0.23733,0.42625,0.21123,0.1232
280,-0.0080194,-0.048296,0.00075039,-0.24578,0.47042,0.26449,0.19726
281,0.0059473,-0.047646,-0.022636,-0.2552,0.52564,0.30217,0.25313
282,0.01764,-0.045047,-0.051219,-0.26397,0.58443,0.32816,0.2895
283,0.02706,-0.037902,-0.077853,-0.27046,0.63867,0.34407,0.30607
284,0.037778,-0.029782,-0.10059,-0.27436,0.67765,0.34894,0.30185
285,0.047523,-0.028157,-0.12008,-0.27793,0.68739,0.34147,0.28301
286,0.054019,-0.034654,-0.13697,-0.28476,0.66953,0.32588,0.26352
287,0.053694,-0.046022,-0.15061,-0.29353,0.63965,0.30347,0.2515
288,0.044924,-0.061613,-0.161,-0.30392,0.60814,0.27781,0.24695
289,0.028034,-0.0824,-0.1727,-0.31496,0.57111,0.2515,0.24013
290,0.0036737,-0.10936,-0.18731,-0.32795,0.51947,0.23104,0.22812
291,-0.022311,-0.13697,-0.20453,-0.34257,0.45288,0.21772,0.21675
292,-0.042124,-0.15776,-0.22109,-0.35946,0.37688,0.20798,0.21285
293,-0.053492,-0.1662,-0.23831,-0.38415,0.29535,0.19661,0.21707
294,-0.05804,-0.16425,-0.25162,-0.42865,0.21967,0.17939,0.22844
295,-0.054142,-0.15678,-0.26007,-0.49491,0.1677,0.15536,0.24143
296,-0.040825,-0.14866,-0.25747,-0.56279,0.14594,0.13002,0.24923
297,-0.021986,-0.14476,-0.24578,-0.60859,0.14756,0.10859,0.2528
298,0.00075039,-0.14087,-0.22791,-0.61996,0.16673,0.097543,0.2528
299,0.019589,-0.12592,-0.21167,-0.593,0.20408,0.096569,0.24695
300,0.032906,-0.10124,-0.19641,-0.53128,0.27002,0.097868,0.22487
301,0.038753,-0.073631,-0.1753,-0.44651,0.35934,0.092346,0.17582
302,0.037129,-0.048945,-0.14249,-0.34907,0.44151,0.071883,0.10014
303,0.031282,-0.027833,-0.098965,-0.23863,0.48309,0.037454,0.0062721
304,0.024786,-0.010618,-0.040825,-0.10384,0.47237,0.0026992,-0.078827
305,0.016016,0.0043233,0.027385,0.057267,0.42105,-0.015815,-0.13307
306,0.0023744,0.016666,0.10144,0.23689,0.35544,-0.0057458,-0.14639
307,-0.012892,0.030633,0.17225,0.42332,0.30022,0.028684,-0.1256
308,-0.025559,0.045899,0.23006,0.59222,0.26807,0.067011,-0.092794
309,-0.032055,0.062139,0.27814,0.70136,0.2528,0.090722,-0.071682
310,-0.031081,0.080653,0.31744,0.71078,0.24338,0.094945,-0.071357
311,-0.02426,0.099492,0.34959,0.61788,0.23234,0.092021,-0.085973
312,-0.013866,0.12093,0.3772,0.46458,0.21967,0.10404,-0.10124
313,-0.0015233,0.14367,0.40124,0.31939,0.20733,0.15633,-0.099615
314,0.011794,0.16835,0.42073,0.24728,0.19563,0.25507,-0.069733
315,0.024461,0.19141,0.43437,0.27391,0.18199,0.38402,-0.011267
316,0.038103,0.21252,0.43989,0.37915,0.16348,0.51297,0.064413
317,0.050121,0.23201,0.43339,0.52466,0.14269,0.61659,0.13717
318,0.062789,0.24923,0.40773,0.67245,0.12743,0.67408,0.18914
319,0.071883,0.25995,0.36194,0.78711,0.11443,0.67278,0.2109
320,0.072533,0.258,0.29535,0.83713,0.087474,0.60554,0.20733
321,0.064413,0.23948,0.21382,0.79848,0.03453,0.48212,0.18589
322,0.050121,0.20895,0.12743,0.67245,-0.045697,0.32296,0.15731
323,0.037778,0.17257,0.044275,0.48504,-0.14541,0.15276,0.13035
324,0.031932,0.13749,-0.025559,0.27067,-0.24675,-0.0067202,0.10859
325,0.036154,0.10826,-0.076879,0.064413,-0.33607,-0.14054,0.095919
326,0.045574,0.087149,-0.11001,-0.092794,-0.40461,-0.24643,0.089748
327,0.05272,0.074157,-0.12657,-0.1636,-0.44521,-0.32828,0.082277
328,0.051745,0.066362,-0.13534,-0.13827,-0.45723,-0.39422,0.063763
329,0.040377,0.058891,-0.14054,-0.050244,-0.44813,-0.45723,0.024461
330,0.021538,0.047523,-0.14119,0.046223,-0.42929,-0.53388,-0.038227
331,0.00042559,0.033556,-0.13827,0.10664,-0.39876,-0.63815,-0.11683
332,-0.018088,0.016341,-0.13534,0.11151,-0.35329,-0.77392,-0.19608
333,-0.03173,0.0033489,-0.13275,0.073507,-0.29223,-0.9308,-0.25845
334,-0.038227,-0.0018481,-0.12657,0.021538,-0.21882,-1.089,-0.29353
335,-0.039851,-0.0011985,-0.11748,-0.019712,-0.13794,-1.2186,-0.30035
336,-0.042774,0.0020496,-0.10579,-0.034978,-0.070382,-1.293,-0.28898
337,-0.043423,0.0043233,-0.093444,-0.023285,-0.046671,-1.2894,-0.26949
338,-0.041475,0.0023744,-0.082076,0.0046481,-0.075579,-1.202,-0.25325
339,-0.036278,-0.0073698,-0.073955,0.028684,-0.11813,-1.0399,-0.24091
340,-0.031081,-0.023935,-0.072006,0.026085,-0.10514,-0.82264,-0.23246
341,-0.029782,-0.042774,-0.073955,-0.011592,0.01764,-0.57578,-0.21817
342,-0.03238,-0.059014,-0.080451,-0.073306,0.23559,-0.32536,-0.19121
343,-0.034004,-0.071032,-0.09117,-0.14054,0.46198,-0.089871,-0.15223
344,-0.034329,-0.081426,-0.10449,-0.20485,0.60424,0.11411,-0.11131
345,-0.037902,-0.088247,-0.11456,-0.25845,0.60847,0.27521,-0.079152
346,-0.045372,-0.093444,-0.11456,-0.29417,0.48569,0.385,-0.059014
347,-0.055766,-0.09994,-0.10871,-0.31399,0.29503,0.44411,-0.051544
348,-0.062262,-0.10644,-0.10059,-0.32308,0.10177,0.46393,-0.055116
349,-0.062587,-0.11098,-0.09182,-0.3325,-0.050894,0.46717,-0.064211
350,-0.054467,-0.10871,-0.080776,-0.35037,-0.15743,0.47107,-0.072981
351,-0.045372,-0.096042,-0.065186,-0.37992,-0.24026,0.48049,-0.075579
352,-0.036927,-0.077853,-0.046996,-0.40396,-0.33315,0.48244,-0.067134
353,-0.027833,-0.058365,-0.029132,-0.40169,-0.45333,0.45808,-0.044398
354,-0.018413,-0.042124,-0.014191,-0.35881,-0.5917,0.39896,-0.0080194
355,-0.0089938,-0.03173,-0.0080194,-0.27176,-0.7174,0.31354,0.028034
356,-0.0024977,-0.029457,-0.010618,-0.15516,-0.80152,0.22194,0.055318
357,0.0059473,-0.033354,-0.017439,-0.034004,-0.834,0.14464,0.071234
358,0.01894,-0.036927,-0.023935,0.073507,-0.82166,0.093321,0.075456
359,0.033556,-0.034978,-0.027833,0.15893,-0.77034,0.06831,0.06896
360,0.0433,-0.033679,-0.029132,0.22357,-0.68362,0.063113,0.058241
361,0.042001,-0.034329,-0.031406,0.27229,-0.55597,0.068635,0.046223
362,0.029983,-0.034329,-0.0405,0.30997,-0.39129,0.081303,0.038428
363,0.016991,-0.030431,-0.055766,0.33823,-0.20193,0.10274,0.041351
364,0.011794,-0.026209,-0.071032,0.35576,-0.0028225,0.13132,0.053044
365,0.01764,-0.019712,-0.07493,0.35771,0.18914,0.16413,0.069934
366,0.033556,-0.014191,-0.061937,0.34472,0.35154,0.19986,0.092021
367,0.056617,-0.008669,-0.028807,0.32686,0.4636,0.23786,0.1219
368,0.079354,0.0023744,0.017965,0.30704,0.5107,0.27879,0.15666
369,0.093645,0.01764,0.065712,0.27944,0.48276,0.31971,0.19369
370,0.098842,0.036479,0.10534,0.24046,0.38857,0.36226,0.22844
371,0.10274,0.055968,0.13327,0.18946,0.2528,0.40351,0.25832
372,0.10989,0.075456,0.15049,0.13522,0.11248,0.43859,0.27944
373,0.11541,0.090722,0.15861,0.089423,-0.0021729,0.45288,0.28756
374,0.11768,0.10274,0.15926,0.061814,-0.07428,0.43697,0.28203
375,0.11411,0.11118,0.15536,0.044599,-0.10124,0.39442,0.26807
376,0.10826,0.11866,0.15211,0.025111,-0.090521,0.33823,0.25053
377,0.10664,0.12678,0.15341,-0.0041217,-0.05804,0.28593,0.23689
378,0.11216,0.14009,0.15828,-0.036278,-0.02426,0.2476,0.22941
379,0.12255,0.15731,0.16998,-0.059339,-0.007045,0.22519,0.22909
380,0.13327,0.17582,0.18557,-0.054792,0.0046481,0.21415,0.23299
381,0.13717,0.19011,0.20116,-0.018088,0.034855,0.20181,0.23201
382,0.13067,0.19369,0.20798,0.029009,0.082602,0.1716,0.20993
383,0.10956,0.17907,0.19499,0.043625,0.11054,0.10956,0.15373
384,0.07773,0.14594,0.15601,-0.0018481,0.069934,0.014068,0.059541
385,0.039727,0.097543,0.097868,-0.10709,-0.046671,-0.10189,-0.072331
386,0.00075039,0.047198,0.034855,-0.24805,-0.20355,-0.21167,-0.22272
387,-0.034329,0.0091954,-0.020037,-0.3822,-0.34777,-0.2893,-0.35361
388,-0.061613,-0.0093186,-0.058365,-0.46957,-0.44424,-0.31983,-0.43417
389,-0.076229,-0.0063954,-0.080127,-0.49198,-0.47867,-0.30652,-0.45203
390,-0.07428,0.0088706,-0.092145,-0.45495,-0.45853,-0.26884,-0.4163
391,-0.05804,0.02641,-0.10416,-0.38317,-0.40948,-0.23311,-0.34744
392,-0.037577,0.037778,-0.12203,-0.30197,-0.35524,-0.21655,-0.26851
393,-0.024585,0.038428,-0.14704,-0.23279,-0.31724,-0.22726,-0.19446
394,-0.021986,0.028034,-0.16912,-0.18277,-0.31301,-0.2591,-0.13242
395,-0.022311,0.012768,-0.17854,-0.14606,-0.3403,-0.30132,-0.0837
396,-0.017764,0.0046481,-0.16977,-0.11293,-0.38382,-0.34387,-0.045372
397,-0.0037969,0.010819,-0.14346,-0.080776,-0.4241,-0.37668,-0.012892
398,0.01764,0.031607,-0.10514,-0.048945,-0.44651,-0.38447,0.017316
399,0.042651,0.06019,-0.060313,-0.022636,-0.44099,-0.35069,0.046223
400,0.067011,0.090072,-0.014516,0.00075039,-0.40299,-0.27956,0.074806
401,0.087149,0.11541,0.026735,0.023812,-0.33055,-0.19316,0.10761
402,0.10209,0.13587,0.063438,0.044599,-0.22629,-0.12138,0.14009
403,0.11281,0.14951,0.092996,0.045899,-0.088896,-0.080127,0.169
404,0.11768,0.15991,0.11216,0.01017,0.0865,-0.064536,0.19466
405,0.11573,0.16575,0.11866,-0.064861,0.2934,-0.059664,0.2174
406,0.10859,0.16445,0.11736,-0.15808,0.51817,-0.053817,0.23136
407,0.099492,0.15666,0.11671,-0.2435,0.73676,-0.042124,0.23104
408,0.089423,0.14074,0.11638,-0.29125,0.92255,-0.025234,0.21935
409,0.079029,0.11931,0.11768,-0.27599,1.046,-0.012567,0.20798
410,0.070259,0.097543,0.12613,-0.18634,1.0697,-0.011592,0.20343
411,0.066686,0.082602,0.14334,-0.045697,0.9664,-0.019712,0.20246
412,0.066037,0.071234,0.15958,0.10404,0.74651,-0.030106,0.20246
413,0.064737,0.060515,0.16835,0.21642,0.45158,-0.035303,0.19628
414,0.056292,0.05142,0.16478,0.27132,0.13684,-0.031406,0.17972
415,0.042326,0.044599,0.15146,0.27132,-0.14996,-0.02361,0.15081
416,0.028359,0.036479,0.1258,0.22519,-0.36985,-0.024585,0.11151
417,0.01764,0.024786,0.090722,0.15016,-0.50855,-0.035953,0.06831
418,0.009845,0.0085458,0.052395,0.070584,-0.56994,-0.047971,0.023812
419,0.00075039,-0.0083442,0.019589,0.0039985,-0.56247,-0.048945,-0.019388
420,-0.012892,-0.021986,-0.0024977,-0.041475,-0.48938,-0.040175,-0.060963
421,-0.027508,-0.027508,-0.012892,-0.060638,-0.35134,-0.024909,-0.098641
422,-0.036278,-0.019063,-0.012242,-0.057715,-0.16198,-0.012892,-0.13015
423,-0.036927,-0.0011985,-0.0067202,-0.036927,0.043625,-0.0083442,-0.15483
424,-0.03303,0.016666,-0.0054209,-0.0050961,0.20376,-0.0060706,-0.174
425,-0.027833,0.022837,-0.012892,0.038753,0.27391,0.0046481,-0.18439
426,-0.022961,0.015367,-0.029782,0.091696,0.24923,0.025436,-0.18407
427,-0.019388,0.00010078,-0.046671,0.15016,0.16315,0.042975,-0.17497
428,-0.01614,-0.019712,-0.060313,0.20993,0.069934,0.029009,-0.15678
429,-0.016789,-0.040175,-0.065186,0.27002,0.01017,-0.04115,-0.12787
430,-0.020037,-0.058689,-0.062912,0.33465,-0.0037969,-0.1675,-0.094418
431,-0.026533,-0.069083,-0.05804,0.40643,0.020888,-0.32406,-0.068758
432,-0.035303,-0.072006,-0.052518,0.47789,0.061814,-0.48906,-0.063237
433,-0.046996,-0.067784,-0.045697,0.53214,0.094945,-0.64821,-0.081426
434,-0.059989,-0.061937,-0.034329,0.55065,0.10696,-0.79535,-0.11618
435,-0.071682,-0.05804,-0.018738,0.52791,0.10339,-0.90904,-0.14639
436,-0.075255,-0.056741,-0.00087364,0.48276,0.095919,-0.961,-0.15256
437,-0.06616,-0.053168,0.019589,0.44281,0.098517,-0.9256,-0.12463
438,-0.042449,-0.043099,0.042975,0.41878,0.11963,-0.79275,-0.068758
439,-0.012567,-0.031406,0.067986,0.41715,0.17485,-0.57806,0.003024
440,0.016341,-0.023285,0.091696,0.44834,0.27132,-0.30814,0.076106
441,0.037129,-0.018738,0.11281,0.50583,0.40286,-0.021661,0.13295
442,0.046223,-0.021661,0.13002,0.5578,0.52986,0.25215,0.16023
443,0.036154,-0.030106,0.13717,0.55682,0.58703,0.5016,0.15179
444,0.0088706,-0.043099,0.12775,0.47724,0.53246,0.7267,0.11606
445,-0.029782,-0.056091,0.10436,0.3327,0.38045,0.92645,0.067986
446,-0.070382,-0.070707,0.076106,0.16413,0.18784,1.1025,0.024137
447,-0.10189,-0.085648,0.052395,0.014068,0.019264,1.2418,-0.0076946
448,-0.11683,-0.094093,0.038753,-0.087597,-0.09182,1.3292,-0.026533
449,-0.11358,-0.093119,0.032906,-0.13567,-0.13957,1.3581,-0.034654
450,-0.095717,-0.085648,0.031282,-0.14249,-0.13372,1.3269,-0.034004
451,-0.06616,-0.07493,0.024461,-0.12917,-0.087597,1.2516,-0.021986
452,-0.029457,-0.062587,0.012768,-0.11683,-0.010618,1.1522,0.0088706
453,0.0075714,-0.04992,0.0023744,-0.11618,0.0865,1.0398,0.058891
454,0.038428,-0.037902,-0.0041217,-0.13047,0.18914,0.90761,0.11313
455,0.055318,-0.026858,-0.010618,-0.15386,0.28528,0.74099,0.15373
456,0.062464,-0.021337,-0.022311,-0.17919,0.37655,0.52954,0.15991
457,0.06019,-0.021661,-0.039851,-0.21265,0.45775,0.28008,0.12028
458,0.051745,-0.028482,-0.065835,-0.27306,0.50323,0.021863,0.041027
459,0.037454,-0.042124,-0.098965,-0.36856,0.48244,-0.19836,-0.054142
460,0.018615,-0.059989,-0.13957,-0.4673,0.38954,-0.34712,-0.13534
461,-0.00054884,-0.074605,-0.17497,-0.52122,0.25507,-0.4215,-0.17789
462,-0.010618,-0.081426,-0.19511,-0.49685,0.11476,-0.44716,-0.17659
463,-0.012242,-0.081101,-0.19738,-0.39681,-0.0047713,-0.45366,-0.14379
464,-0.0050961,-0.075904,-0.18796,-0.26202,-0.096042,-0.45106,-0.096042
465,0.0091954,-0.064536,-0.17789,-0.14444,-0.16782,-0.43124,-0.051544
466,0.024137,-0.048296,-0.16847,-0.074605,-0.23603,-0.38382,-0.019063
467,0.033881,-0.028482,-0.15548,-0.053168,-0.31236,-0.30814,-0.0063954
468,0.037454,-0.0050961,-0.13502,-0.05739,-0.40753,-0.22207,-0.017114
469,0.031282,0.019914,-0.10579,-0.059014,-0.52251,-0.15841,-0.059664
470,0.015692,0.04395,-0.070707,-0.031406,-0.64984,-0.14119,-0.1334
471,-0.0041217,0.067986,-0.035953,0.02706,-0.77489,-0.17172,-0.22044
472,-0.022311,0.094295,-0.0093186,0.10404,-0.87818,-0.22824,-0.29515
473,-0.035628,0.12028,0.0088706,0.18167,-0.92755,-0.27566,-0.33023
474,-0.040825,0.14464,0.022512,0.24533,-0.8902,-0.29125,-0.31074
475,-0.034329,0.16608,0.038753,0.2895,-0.7606,-0.26819,-0.23961
476,-0.018088,0.18459,0.06084,0.31062,-0.55077,-0.2081,-0.13404
477,0.0078962,0.19693,0.087474,0.3025,-0.27111,-0.1243,-0.014191
478,0.039402,0.20246,0.11281,0.26547,0.063113,-0.034004,0.096244
479,0.069285,0.20148,0.131,0.21642,0.40124,0.038103,0.17257
480,0.090397,0.19563,0.1336,0.18069,0.66563,0.076106,0.20733
481,0.099492,0.18427,0.11931,0.1729,0.79231,0.073507,0.2044
482,0.10079,0.169,0.093645,0.18881,0.77119,0.041676,0.17452
483,0.098193,0.15244,0.066362,0.21837,0.63965,-0.0018481,0.13684
484,0.093321,0.13717,0.050121,0.24501,0.46458,-0.040825,0.11118
485,0.090072,0.12645,0.049796,0.2554,0.31614,-0.065835,0.10469
486,0.093645,0.12645,0.069934,0.23754,0.23786,-0.075579,0.11703
487,0.10371,0.13425,0.10144,0.18622,0.22812,-0.076554,0.14789
488,0.11541,0.14756,0.13392,0.10924,0.25183,-0.075579,0.19174
489,0.1219,0.15861,0.15893,0.030308,0.25605,-0.075255,0.23851
490,0.12288,0.16218,0.17387,-0.019712,0.19888,-0.076554,0.27976
491,0.12515,0.15601,0.17582,-0.034654,0.076755,-0.082076,0.30737
492,0.12937,0.14594,0.16413,-0.030106,-0.093769,-0.09182,0.32328
493,0.13197,0.13749,0.13944,-0.042124,-0.28995,-0.10416,0.33075
494,0.1284,0.1323,0.10371,-0.094743,-0.4699,-0.11715,0.33465
495,0.11931,0.12613,0.063113,-0.17822,-0.5878,-0.12073,0.34277
496,0.10729,0.11833,0.021863,-0.25877,-0.61703,-0.099615,0.35836
497,0.09397,0.10501,-0.014516,-0.30132,-0.57026,-0.044073,0.37818
498,0.080328,0.088773,-0.042774,-0.28995,-0.48873,0.032582,0.39182
499,0.064088,0.073182,-0.059339,-0.23084,-0.41923,0.10891,0.38792
500,0.044599,0.061165,-0.068758,-0.14801,-0.39422,0.16153,0.36291
501,0.023162,0.054344,-0.073631,-0.075904,-0.43124,0.18069,0.32198
502,0.0069217,0.05207,-0.07428,-0.037902,-0.52219,0.17095,0.27521
503,-0.0024977,0.05142,-0.067134,-0.0405,-0.64139,0.14237,0.22714
504,-0.0063954,0.046548,-0.054467,-0.082725,-0.75443,0.10339,0.1781
505,-0.012242,0.038753,-0.037577,-0.15256,-0.82231,0.067011,0.1284
506,-0.021661,0.030957,-0.018088,-0.22824,-0.82426,0.050446,0.08585
507,-0.034978,0.025111,0.0014,-0.2893,-0.76352,0.070909,0.054019
508,-0.045372,0.021213,0.012443,-0.32731,-0.66413,0.13392,0.042326
509,-0.04927,0.017316,0.011144,-0.3416,-0.56344,0.22162,0.053694
510,-0.044723,0.0095202,0.0033489,-0.34095,-0.48029,0.30347,0.071883
511,-0.034329,0.00075039,-0.0050961,-0.33478,-0.40623,0.34797,0.075781
512,-0.021337,-0.0050961,-0.010293,-0.32536,-0.31594,0.33075,0.061165
513,-0.0096434,-0.007045,-0.011592,-0.30879,-0.17594,0.25702,0.041027
514,-0.0024977,-0.0083442,-0.0096434,-0.27728,0.023487,0.16056,0.026735
515,-0.0044465,-0.015165,-0.0063954,-0.22434,0.23883,0.06831,0.016016
516,-0.012242,-0.028157,-0.0024977,-0.14476,0.39149,-0.012567,-0.0034721
517,-0.023285,-0.043423,0.0017248,-0.043748,0.42917,-0.081101,-0.047646
518,-0.037252,-0.059014,0.011794,0.070909,0.36713,-0.14119,-0.1191
519,-0.055116,-0.07428,0.031607,0.19141,0.27684,-0.20843,-0.20972
520,-0.074605,-0.087272,0.058891,0.31127,0.23104,-0.29645,-0.30684
521,-0.089546,-0.096367,0.091372,0.42008,0.26125,-0.39746,-0.39097
522,-0.091495,-0.093119,0.12743,0.49868,0.34505,-0.48419,-0.44196
523,-0.076879,-0.084674,0.16445,0.51492,0.42917,-0.53063,-0.45138
524,-0.051219,-0.075904,0.19499,0.44931,0.46847,-0.53096,-0.42605
525,-0.026533,-0.072006,0.21252,0.32393,0.4649,-0.48938,-0.37635
526,-0.0096434,-0.072006,0.21155,0.18881,0.4649,-0.40916,-0.31236
527,-0.0034721,-0.077528,0.19239,0.085525,0.51362,-0.29482,-0.24188
528,-0.0057458,-0.0824,0.15926,0.033881,0.61171,-0.15321,-0.17887
529,-0.0099683,-0.080776,0.12093,0.026085,0.72182,-0.0054209,-0.13177
530,-0.008669,-0.070707,0.080653,0.053694,0.81082,0.11866,-0.10059
531,-0.0034721,-0.056416,0.045574,0.10274,0.87351,0.19304,-0.081426
532,0.0020496,-0.043423,0.021213,0.16121,0.91931,0.2122,-0.069083
533,0.0046481,-0.034978,0.0091954,0.22,0.94951,0.19369,-0.054792
534,0.0062721,-0.027508,0.0078962,0.27034,0.94497,0.15991,-0.03303
535,0.0075714,-0.019388,0.019589,0.30737,0.88228,0.1323,-0.00054884
536,0.013418,-0.011267,0.044924,0.3327,0.7608,0.11866,0.039727
537,0.025111,-0.0021729,0.081303,0.35057,0.60392,0.11801,0.079354
538,0.040377,0.0065969,0.1206,0.36453,0.44963,0.11768,0.10826
539,0.054668,0.012768,0.15016,0.36746,0.33108,0.10761,0.11931
540,0.059216,0.016341,0.16056,0.35901,0.2619,0.078704,0.11248
541,0.050121,0.018615,0.14659,0.33335,0.22974,0.025111,0.088773
542,0.032906,0.020564,0.11346,0.28561,0.22194,-0.049595,0.059865
543,0.016991,0.020888,0.072533,0.21837,0.22292,-0.13112,0.03583
544,0.0078962,0.016666,0.031282,0.13522,0.21805,-0.2068,0.019264
545,0.008221,0.0091954,-0.011592,0.042975,0.19369,-0.26429,0.0033489
546,0.0095202,-0.00022403,-0.056416,-0.050569,0.14724,-0.29872,-0.019063
547,0.0085458,-0.0073698,-0.10286,-0.14606,0.093645,-0.30749,-0.044398
548,0.003024,-0.014191,-0.14411,-0.23831,0.061814,-0.28768,-0.067134
549,-0.0057458,-0.021986,-0.17335,-0.31691,0.079354,-0.24415,-0.082725
550,-0.011917,-0.030756,-0.18764,-0.36726,0.14561,-0.19446,-0.093119
551,-0.013216,-0.037577,-0.18894,-0.38772,0.23006,-0.16458,-0.098965
552,-0.010618,-0.037252,-0.17919,-0.38707,0.29925,-0.17335,-0.096367
553,-0.0041217,-0.030756,-0.15841,-0.38155,0.33465,-0.21979,-0.09117
554,0.0052977,-0.019063,-0.12917,-0.3796,0.32881,-0.27761,-0.080127
555,0.012443,-0.0047713,-0.10156,-0.377,0.27944,-0.31074,-0.062587
556,0.016341,0.0075714,-0.083375,-0.37538,0.19304,-0.29677,-0.035953
557,0.022188,0.013743,-0.07428,-0.36856,0.085525,-0.23214,-0.0028225
558,0.027385,0.015367,-0.072981,-0.3429,-0.015815,-0.12495,0.032906
559,0.027385,0.011794,-0.073631,-0.28021,-0.080451,0.0065969,0.063763
560,0.019264,0.0056225,-0.070382,-0.16523,-0.089221,0.14237,0.082927
561,0.0065969,-0.0024977,-0.059339,0.0095202,-0.037577,0.26774,0.091047
562,-0.0037969,-0.0096434,-0.044723,0.22227,0.05207,0.3733,0.092671
563,-0.0073698,-0.014516,-0.032705,0.42268,0.13977,0.4571,0.09462
564,-0.0041217,-0.01614,-0.028157,0.55682,0.18134,0.52531,0.099492
565,0.0020496,-0.017764,-0.03238,0.5919,0.15211,0.58248,0.10566
566,0.0088706,-0.022636,-0.043748,0.52564,0.055318,0.62665,0.11248
567,0.016666,-0.03238,-0.059989,0.38142,-0.081751,0.65426,0.11703
568,0.024137,-0.042774,-0.077853,0.20213,-0.21687,0.66758,0.11898
569,0.025436,-0.050569,-0.096367,0.031932,-0.32341,0.66855,0.12515
570,0.016341,-0.056741,-0.11553,-0.10124,-0.39259,0.65491,0.14432
571,-0.0028225,-0.061613,-0.13145,-0.18634,-0.43157,0.61659,0.16998
572,-0.024585,-0.068109,-0.14152,-0.22986,-0.46015,0.54675,0.18849
573,-0.039201,-0.077853,-0.14379,-0.25098,-0.49393,0.45093,0.19011
574,-0.038227,-0.088572,-0.14087,-0.26202,-0.5394,0.33887,0.17355
575,-0.021012,-0.093444,-0.13469,-0.26787,-0.59625,0.22714,0.14691
576,0.0033489,-0.087597,-0.1295,-0.26722,-0.65991,0.1245,0.12028
577,0.024137,-0.067784,-0.12138,-0.25065,-0.7226,0.038753,0.097868
578,0.038753,-0.038876,-0.10741,-0.2094,-0.77716,-0.017439,0.08585
579,0.047847,-0.012567,-0.090196,-0.13404,-0.81744,-0.03303,0.082277
580,0.052395,0.0023744,-0.071032,-0.027508,-0.8366,-0.0028225,0.081952
581,0.05142,0.0088706,-0.051868,0.089423,-0.82004,0.073182,0.081627
582,0.046873,0.011469,-0.037252,0.20246,-0.75118,0.18297,0.079029
583,0.042001,0.014392,-0.030756,0.29568,-0.62775,0.30477,0.076106
584,0.042975,0.01894,-0.029132,0.35966,-0.46892,0.41423,0.075131
585,0.046873,0.026735,-0.024585,0.39669,-0.30554,0.49024,0.068635
586,0.05142,0.037129,-0.012242,0.41293,-0.17302,0.51947,0.049472
587,0.050121,0.047523,0.01017,0.39799,-0.088896,0.5016,0.015692
588,0.046548,0.052395,0.034855,0.32621,-0.052518,0.44476,-0.03303
589,0.039402,0.050121,0.058566,0.18329,-0.052843,0.36356,-0.093444
590,0.029333,0.044599,0.080653,-0.0054209,-0.067134,0.27489,-0.15646
591,0.019264,0.04395,0.10826,-0.18731,-0.070707,0.19758,-0.20225
592,0.012443,0.054668,0.14399,-0.31789,-0.046996,0.14237,-0.2146
593,0.011794,0.079354,0.18881,-0.37668,0.0023744,0.10566,-0.19348
594,0.014717,0.11183,0.23851,-0.36888,0.059865,0.06896,-0.14931
595,0.020239,0.14529,0.28496,-0.31886,0.10761,0.013743,-0.09994
596,0.027709,0.17257,0.31874,-0.25682,0.14009,-0.071032,-0.064536
597,0.033231,0.19011,0.3314,-0.20583,0.1651,-0.18699,-0.052193
598,0.03453,0.19531,0.31581,-0.1727,0.17485,-0.32763,-0.067459
599,0.029009,0.18589,0.27229,-0.14736,0.14626,-0.47509,-0.10611
600,0.01894,0.16348,0.21382,-0.11813,0.054019,-0.60989,-0.15223
601,0.0078962,0.13782,0.15309,-0.070707,-0.11456,-0.71772,-0.18601
602,0.0010752,0.11898,0.10047,-0.0028225,-0.34842,-0.7999,-0.19413
603,0.0039985,0.11606,0.063438,0.080328,-0.60372,-0.85999,-0.17367
604,0.020564,0.12905,0.044599,0.1651,-0.81711,-0.89994,-0.1334
605,0.045249,0.15114,0.044924,0.24598,-0.9269,-0.90968,-0.080451
606,0.073507,0.17517,0.057917,0.31614,-0.8915,-0.87006,-0.017764
607,0.096569,0.19109,0.077405,0.37201,-0.69921,-0.76515,0.053044
608,0.11054,0.19661,0.098517,0.40741,-0.3809,-0.60274,0.12223
609,0.11443,0.19141,0.11801,0.4152,-0.0073698,-0.415,0.17842
610,0.11346,0.17972,0.13197,0.39279,0.34017,-0.23311,0.21772
611,0.10664,0.1638,0.13132,0.34602,0.60976,-0.072006,0.24208
612,0.09462,0.14821,0.11638,0.28756,0.78516,0.060515,0.25345
613,0.082927,0.1297,0.092021,0.22454,0.87091,0.1625,0.25605
614,0.07773,0.11086,0.066686,0.16153,0.88455,0.23169,0.25378
615,0.084226,0.096893,0.047847,0.10501,0.85824,0.27261,0.2554
616,0.10242,0.092671,0.038428,0.06019,0.81115,0.29243,0.26352
617,0.1258,0.096893,0.03583,0.036804,0.74326,0.29438,0.27391
618,0.14432,0.10339,0.040052,0.042001,0.64062,0.28203,0.27716
619,0.15309,0.10696,0.044924,0.066037,0.49218,0.25572,0.26514
620,0.14691,0.10079,0.042326,0.090397,0.30542,0.21577,0.23883
621,0.1258,0.087149,0.028034,0.090072,0.092021,0.1703,0.19239
622,0.088124,0.066037,0.0020496,0.047523,-0.12885,0.12125,0.11963
623,0.039078,0.039078,-0.034329,-0.035628,-0.31918,0.063438,0.01017
624,-0.015815,0.011144,-0.077853,-0.13697,-0.43839,-0.016464,-0.13534
625,-0.06681,-0.012892,-0.1217,-0.22824,-0.46762,-0.1217,-0.29677
626,-0.10449,-0.029782,-0.15581,-0.29158,-0.41825,-0.22726,-0.44359
627,-0.12787,-0.038551,-0.17822,-0.32795,-0.33023,-0.2997,-0.54233
628,-0.13437,-0.040175,-0.18829,-0.33705,-0.2435,-0.31821,-0.57351
629,-0.12333,-0.03238,-0.18796,-0.31529,-0.16912,-0.2867,-0.53875
630,-0.10059,-0.018413,-0.17659,-0.26104,-0.10059,-0.23246,-0.4556
631,-0.071357,-0.0037969,-0.15581,-0.18277,-0.030431,-0.18212,-0.34874
632,-0.0405,0.011794,-0.12852,-0.10416,0.030957,-0.15191,-0.23798
633,-0.012567,0.029333,-0.095717,-0.051868,0.064088,-0.13762,-0.13599
634,0.008221,0.044924,-0.063237,-0.038551,0.05207,-0.1243,-0.050244
635,0.020239,0.052395,-0.03303,-0.051868,-0.0031473,-0.10351,0.018615
636,0.023487,0.048822,-0.0015233,-0.074605,-0.087597,-0.079152,0.07773
637,0.024137,0.038103,0.028034,-0.089871,-0.17854,-0.056091,0.12807
638,0.024137,0.023487,0.05207,-0.092469,-0.24903,-0.034978,0.16445
639,0.023812,0.0078962,0.070909,-0.091495,-0.28313,-0.014191,0.18297
640,0.023162,-0.010293,0.080978,-0.10319,-0.27956,0.010495,0.18069
641,0.019914,-0.027183,0.080003,-0.13892,-0.25877,0.038103,0.16056
642,0.013093,-0.036602,0.069285,-0.19121,-0.23831,0.054019,0.13587
643,0.0078962,-0.038551,0.052395,-0.24545,-0.22856,0.032906,0.11476
644,0.0056225,-0.034329,0.030957,-0.27988,-0.22564,-0.042449,0.099492
645,0.003024,-0.025559,0.008221,-0.26137,-0.21557,-0.17692,0.092346
646,-0.0018481,-0.017439,-0.010943,-0.17789,-0.18439,-0.35849,0.091372
647,-0.0076946,-0.016464,-0.022311,-0.055766,-0.13145,-0.55435,0.089098
648,-0.013216,-0.024909,-0.023935,0.061165,-0.064861,-0.70603,0.082602
649,-0.017114,-0.039201,-0.012892,0.14561,0.0056225,-0.76515,0.078055
650,-0.01614,-0.052518,0.0023744,0.19791,0.075131,-0.70765,0.07773
651,-0.014516,-0.05804,0.01829,0.24046,0.14432,-0.54493,0.085525
652,-0.013866,-0.055441,0.029983,0.29048,0.20765,-0.32016,0.097543
653,-0.014516,-0.047971,0.033556,0.35317,0.25183,-0.090845,0.11248
654,-0.015165,-0.039526,0.025436,0.4178,0.26644,0.10501,0.12418
655,-0.013541,-0.03173,0.0065969,0.4675,0.24241,0.2528,0.1245
656,-0.0093186,-0.028482,-0.011592,0.48894,0.18427,0.35024,0.11768
657,-0.0028225,-0.028157,-0.021337,0.47692,0.11768,0.40221,0.11054
658,0.0065969,-0.027833,-0.018088,0.43437,0.065712,0.41683,0.10566
659,0.016016,-0.032055,-0.0031473,0.37525,0.039727,0.40156,0.094295
660,0.01894,-0.043423,0.019589,0.30932,0.042326,0.35804,0.057592
661,0.008221,-0.057065,0.044924,0.24111,0.072208,0.29568,-0.01484
662,-0.013216,-0.06616,0.070584,0.17257,0.1232,0.23104,-0.11131
663,-0.035953,-0.06551,0.092671,0.11054,0.18102,0.18979,-0.19673
664,-0.046347,-0.054792,0.11476,0.067336,0.23591,0.19401,-0.23214
665,-0.038551,-0.031081,0.14172,0.055968,0.27846,0.24176,-0.19576
666,-0.010293,0.0014,0.17225,0.082277,0.30477,0.30574,-0.097341
667,0.031607,0.038103,0.19758,0.1349,0.33563,0.35382,0.02706
668,0.075781,0.069285,0.2083,0.18589,0.41196,0.36908,0.13782
669,0.10989,0.086824,0.20343,0.21577,0.5552,0.35544,0.20863
670,0.12743,0.086175,0.18816,0.21837,0.74066,0.33011,0.23754
671,0.12353,0.073182,0.16868,0.2083,0.91476,0.31029,0.22649
672,0.10144,0.057267,0.14854,0.20505,1.0219,0.29795,0.18199
673,0.067986,0.047198,0.12775,0.21707,1.0307,0.27684,0.10534
674,0.030957,0.042651,0.10436,0.24858,0.95114,0.22519,-0.0037969
675,-0.0024977,0.041676,0.081952,0.28431,0.81472,0.14529,-0.1282
676,-0.027183,0.041676,0.064088,0.3012,0.66628,0.057267,-0.23603
677,-0.04115,0.037454,0.049472,0.27781,0.53181,-0.017764,-0.2997
678,-0.046996,0.028359,0.03583,0.20765,0.42235,-0.07428,-0.30782
679,-0.04992,0.014392,0.020564,0.10501,0.32848,-0.12008,-0.26657
680,-0.052843,-0.00087364,0.0010752,-0.0047713,0.21382,-0.16685,-0.19836
681,-0.056091,-0.015165,-0.023285,-0.10189,0.048497,-0.22272,-0.13404
682,-0.056741,-0.023285,-0.049595,-0.18212,-0.161,-0.28476,-0.095393
683,-0.050894,-0.027508,-0.076554,-0.2513,-0.36044,-0.33088,-0.081426
684,-0.038227,-0.030106,-0.10059,-0.30977,-0.47249,-0.32503,-0.072656
685,-0.018413,-0.025884,-0.1191,-0.35751,-0.43514,-0.2435,-0.048296
686,0.0059473,-0.014516,-0.12787,-0.39259,-0.25,-0.087597,-0.0050961
687,0.031282,-0.0044465,-0.12787,-0.41468,0.0043233,0.10534,0.048497
688,0.051745,-0.0037969,-0.12495,-0.42572,0.22584,0.27716,0.097218
689,0.064088,-0.014516,-0.12333,-0.43027,0.34245,0.38013,0.1258
690,0.064088,-0.031081,-0.12138,-0.42767,0.34147,0.39896,0.12743
691,0.050446,-0.048296,-0.11845,-0.41955,0.25865,0.35089,0.10631
692,0.029983,-0.059664,-0.11683,-0.40136,0.14367,0.27391,0.079679
693,0.0075714,-0.062587,-0.1178,-0.37408,0.024461,0.21058,0.06831
694,-0.011267,-0.060963,-0.12268,-0.34225,-0.097666,0.19206,0.084226
695,-0.022636,-0.058365,-0.12625,-0.31431,-0.24773,0.21935,0.12775
696,-0.017114,-0.050244,-0.123,-0.28963,-0.44748,0.27586,0.18719
697,0.0075714,-0.036927,-0.10806,-0.26267,-0.69239,0.33952,0.24208
698,0.041676,-0.018738,-0.080776,-0.22629,-0.95126,0.39117,0.27944
699,0.070259,0.0023744,-0.045697,-0.18147,-1.1702,0.41618,0.28788
700,0.080978,0.022512,-0.01484,-0.13145,-1.3131,0.40773,0.26644
701,0.075456,0.038103,0.008221,-0.071682,-1.3608,0.36973,0.22389
702,0.063438,0.049796,0.024137,0.0043233,-1.3063,0.31614,0.17517
703,0.053369,0.058241,0.03453,0.091047,-1.1543,0.25702,0.13782
704,0.044924,0.065712,0.038428,0.169,-0.9308,0.19921,0.1206
705,0.038428,0.069285,0.036479,0.22779,-0.68622,0.14821,0.11995
706,0.03518,0.065712,0.030957,0.27586,-0.47282,0.10696,0.12807
707,0.036154,0.059216,0.025761,0.3418,-0.32276,0.075456,0.13652
708,0.041027,0.055318,0.032257,0.44834,-0.23636,0.053694,0.14724
709,0.05207,0.061165,0.059541,0.58216,-0.18601,0.04395,0.16478
710,0.06961,0.080003,0.10729,0.70558,-0.1256,0.048497,0.18751
711,0.089423,0.10534,0.16218,0.76405,-0.011917,0.063438,0.20895
712,0.10599,0.12515,0.20733,0.71663,0.17355,0.080653,0.22487
713,0.11216,0.13262,0.23136,0.5539,0.41326,0.095594,0.23461
714,0.10501,0.12548,0.22422,0.29795,0.64517,0.10664,0.24046
715,0.084551,0.10306,0.18199,-0.0099683,0.78646,0.11606,0.24176
716,0.05272,0.069934,0.11508,-0.29417,0.79685,0.1232,0.23624
717,0.01764,0.03583,0.045249,-0.47314,0.70201,0.12613,0.21772
718,-0.013541,0.01017,-0.0073698,-0.50043,0.56429,0.11833,0.1768
719,-0.036278,-0.0015233,-0.037577,-0.38902,0.44281,0.087474,0.10469
720,-0.04927,0.0046481,-0.045372,-0.19056,0.37428,0.026735,0.0072465
721,-0.052193,0.024137,-0.036278,0.037129,0.36096,-0.053817,-0.094743
722,-0.045047,0.050446,-0.01614,0.23883,0.37038,-0.13372,-0.17789
723,-0.029782,0.076106,0.0049729,0.37038,0.35576,-0.19154,-0.22272
724,-0.008669,0.096569,0.013093,0.40871,0.27781,-0.21622,-0.22109
725,0.013093,0.10566,0.0023744,0.36843,0.1258,-0.20778,-0.17594
726,0.031282,0.10112,-0.023285,0.28268,-0.073306,-0.16782,-0.10416
727,0.042001,0.088124,-0.051544,0.18004,-0.26819,-0.10319,-0.025559
728,0.045574,0.06961,-0.072006,0.080653,-0.40786,-0.030106,0.043625
729,0.043625,0.049472,-0.076554,-0.0063954,-0.45528,0.024786,0.088773
730,0.039727,0.028034,-0.070707,-0.078503,-0.39616,0.0433,0.10339
731,0.037129,0.0078962,-0.056091,-0.12917,-0.23214,0.02706,0.087149
732,0.03453,-0.0067202,-0.03303,-0.15029,0.022512,-0.00054884,0.047198
733,0.033881,-0.012242,-0.0063954,-0.14216,0.334,-0.022311,-0.0028225
734,0.030308,-0.010943,0.014717,-0.11521,0.63153,-0.03173,-0.048945
735,0.021538,-0.0063954,0.029333,-0.084024,0.83226,-0.037252,-0.084999
736,0.0062721,-0.0024977,0.036479,-0.059989,0.88812,-0.053168,-0.10774
737,-0.0083442,0.0017248,0.039402,-0.043099,0.8053,-0.086623,-0.11845
738,-0.01614,0.008221,0.041027,-0.026533,0.63835,-0.12365,-0.12268
739,-0.011267,0.020564,0.044275,-0.010943,0.45321,-0.14671,-0.1243
740,-0.00022403,0.037454,0.048497,0.0014,0.30282,-0.14704,-0.12592
741,0.0095202,0.059541,0.054344,0.011794,0.20051,-0.13502,-0.13372
742,0.013093,0.081952,0.06084,0.016666,0.14172,-0.13827,-0.15451
743,0.010819,0.096244,0.064413,0.011144,0.11248,-0.18114,-0.18829
744,0.0010752,0.092996,0.061814,-0.012567,0.097868,-0.27014,-0.23149
745,-0.014516,0.071558,0.048172,-0.060313,0.082602,-0.38902,-0.27566
746,-0.034329,0.034855,0.020564,-0.12787,0.056617,-0.50985,-0.31074
747,-0.053817,-0.0037969,-0.017764,-0.19966,0.024137,-0.60696,-0.33413
748,-0.06616,-0.033354,-0.058365,-0.26104,-0.013866,-0.67095,-0.34972
749,-0.06616,-0.041799,-0.087272,-0.301,-0.056416,-0.70213,-0.36044
750,-0.050569,-0.030756,-0.097991,-0.32081,-0.098316,-0.69694,-0.35979
751,-0.024585,-0.012242,-0.089871,-0.3338,-0.13957,-0.65244,-0.34127
752,-0.0018481,-0.00087364,-0.073955,-0.35784,-0.19511,-0.57091,-0.30522
753,0.012443,-0.0018481,-0.062912,-0.39357,-0.27079,-0.4673,-0.26234
754,0.014392,-0.01614,-0.059339,-0.4189,-0.36238,-0.36141,-0.22239
755,0.0052977,-0.038227,-0.064211,-0.41176,-0.45528,-0.26851,-0.19251
756,-0.008669,-0.060638,-0.072331,-0.34874,-0.53063,-0.19836,-0.16458
757,-0.018413,-0.072331,-0.079477,-0.2133,-0.57481,-0.14899,-0.12852
758,-0.020687,-0.070382,-0.080776,-0.014516,-0.57708,-0.11196,-0.079477
759,-0.01549,-0.061613,-0.072331,0.21317,-0.53746,-0.081101,-0.01614
760,-0.0080194,-0.04992,-0.051868,0.423,-0.4686,-0.044398,0.054993
761,0.0017248,-0.036927,-0.021012,0.58508,-0.38837,0.0085458,0.12548
762,0.010819,-0.024909,0.013093,0.69714,-0.31171,0.080328,0.18459
763,0.01764,-0.017439,0.04395,0.76242,-0.2513,0.16218,0.22714
764,0.021213,-0.01484,0.066037,0.77801,-0.21265,0.24436,0.25475
765,0.020564,-0.019063,0.080003,0.7228,-0.19219,0.31841,0.27164
766,0.016016,-0.029782,0.087474,0.57339,-0.17075,0.37785,0.28171
767,0.0088706,-0.044723,0.09462,0.34147,-0.1269,0.42268,0.29145
768,0.0014,-0.058689,0.10761,0.085525,-0.054792,0.45223,0.30899
769,0.0010752,-0.06616,0.13002,-0.11196,0.035505,0.4584,0.33628
770,0.0062721,-0.064536,0.15244,-0.20355,0.12223,0.43989,0.36843
771,0.013418,-0.058689,0.16478,-0.20225,0.18622,0.40059,0.39247
772,0.01894,-0.052193,0.16023,-0.1623,0.21317,0.35512,0.39896
773,0.022512,-0.043423,0.1323,-0.13957,0.20635,0.32263,0.38402
774,0.024786,-0.028482,0.084226,-0.1636,0.18037,0.31549,0.35512
775,0.031282,-0.0050961,0.025111,-0.23506,0.14984,0.33011,0.32361
776,0.043625,0.028359,-0.030106,-0.33153,0.12905,0.35057,0.29535
777,0.059541,0.06831,-0.069733,-0.41988,0.12255,0.36064,0.26579
778,0.073182,0.11118,-0.09117,-0.46275,0.1245,0.34505,0.23396
779,0.081303,0.15146,-0.098316,-0.43092,0.1297,0.29892,0.20376
780,0.083901,0.18394,-0.093769,-0.32406,0.13652,0.22357,0.17257
781,0.083901,0.20538,-0.084674,-0.17497,0.13165,0.11671,0.13457
782,0.079029,0.21123,-0.078827,-0.047646,0.075456,-0.01614,0.087799
783,0.066362,0.20213,-0.081751,0.0056225,-0.060313,-0.15581,0.037454
784,0.048822,0.18394,-0.091495,-0.013541,-0.25877,-0.28443,-0.010943
785,0.033231,0.16868,-0.099615,-0.041475,-0.4673,-0.40039,-0.062587
786,0.019264,0.1664,-0.090196,0.00010078,-0.6245,-0.51309,-0.13502
787,0.0039985,0.18297,-0.052843,0.14594,-0.69466,-0.61833,-0.23441
788,-0.0093186,0.21317,0.016666,0.37623,-0.67063,-0.68914,-0.34679
789,-0.015165,0.24501,0.11508,0.63348,-0.57611,-0.69109,-0.43741
790,-0.010618,0.26937,0.23234,0.85857,-0.44294,-0.61963,-0.47867
791,0.0014,0.28691,0.35382,1.0148,-0.30327,-0.49978,-0.45885
792,0.018615,0.2999,0.46165,1.1051,-0.1727,-0.36596,-0.39129
793,0.037778,0.30834,0.54513,1.1515,-0.050244,-0.2461,-0.30652
794,0.054993,0.30997,0.60002,1.1626,0.094295,-0.15743,-0.23441
795,0.066686,0.30152,0.62568,1.1314,0.3025,-0.095393,-0.18926
796,0.071558,0.28301,0.62471,1.0427,0.56981,-0.0405,-0.16458
797,0.071234,0.25572,0.60035,0.90014,0.84233,0.030633,-0.14931
798,0.066362,0.22552,0.55877,0.73482,1.0518,0.12028,-0.13469
799,0.055643,0.19823,0.50388,0.58216,1.1486,0.21805,-0.11748
800,0.042326,0.17192,0.43859,0.4571,1.1171,0.32426,-0.091495
801,0.033881,0.14334,0.36161,0.34862,0.97647,0.44606,-0.047971
802,0.032582,0.11411,0.27684,0.23494,0.77087,0.57858,0.013093
803,0.040377,0.089098,0.19109,0.10989,0.54545,0.69876,0.083576
804,0.053694,0.071883,0.11606,-0.020362,0.3314,0.77834,0.15049
805,0.068635,0.058566,0.058241,-0.14541,0.14009,0.8001,0.20246
806,0.076106,0.045899,0.01764,-0.25455,-0.034329,0.76242,0.23234
807,0.074157,0.027709,-0.017439,-0.34614,-0.19803,0.67667,0.23721
808,0.066686,0.0014,-0.056091,-0.41338,-0.34777,0.55617,0.22129
809,0.056617,-0.028807,-0.10124,-0.45073,-0.46502,0.41358,0.19141
810,0.048497,-0.055766,-0.14834,-0.45138,-0.542,0.26417,0.15633
811,0.041351,-0.077203,-0.19121,-0.4189,-0.58325,0.12288,0.12093
812,0.032582,-0.095717,-0.22304,-0.36823,-0.59884,0.0026992,0.084551
813,0.021213,-0.11748,-0.24708,-0.31561,-0.59072,-0.087922,0.053694
814,0.011144,-0.13794,-0.26364,-0.26884,-0.55272,-0.14671,0.028684
815,0.0017248,-0.15386,-0.27696,-0.23149,-0.48614,-0.18082,0.0078962
816,-0.0080194,-0.16425,-0.288,-0.21102,-0.39876,-0.19901,-0.014516
817,-0.020687,-0.16977,-0.29677,-0.21817,-0.2958,-0.2055,-0.041475
818,-0.034654,-0.17335,-0.30262,-0.25195,-0.18049,-0.2029,-0.068758
819,-0.048945,-0.17984,-0.30229,-0.30132,-0.052193,-0.20453,-0.088572
820,-0.059014,-0.18666,-0.29612,-0.34939,0.085525,-0.22077,-0.089546
821,-0.061937,-0.19089,-0.28411,-0.3796,0.22162,-0.24253,-0.06681
822,-0.055766,-0.18829,-0.27046,-0.38674,0.32263,-0.2435,-0.019063
823,-0.045697,-0.18049,-0.26104,-0.38317,0.35154,-0.2029,0.040377
824,-0.034329,-0.17042,-0.2578,-0.38122,0.29438,-0.123,0.091047
825,-0.025559,-0.15938,-0.25845,-0.38967,0.17615,-0.030106,0.12028
826,-0.019388,-0.15126,-0.25877,-0.40688,0.055968,0.041351,0.1297
827,-0.013216,-0.15029,-0.26007,-0.41793,-0.0073698,0.06896,0.13165
828,-0.0067202,-0.15646,-0.25975,-0.4124,0.02641,0.049472,0.13749
829,0.00075039,-0.161,-0.2578,-0.39194,0.15991,0.0043233,0.15179
830,0.012119,-0.15808,-0.25292,-0.36336,0.35122,-0.039201,0.17095
831,0.025436,-0.14671,-0.24513,-0.33737,0.53084,-0.063237,0.18914
832,0.034855,-0.12982,-0.23603,-0.32243,0.63348,-0.06616,0.20051
833,0.037778,-0.11261,-0.22986,-0.31594,0.61756,-0.056416,0.19758
834,0.034855,-0.099615,-0.22239,-0.31464,0.47464,-0.044398,0.18069
835,0.031607,-0.094743,-0.21265,-0.31009,0.22909,-0.03173,0.15763
836,0.028359,-0.097017,-0.19966,-0.30229,-0.062587,-0.019063,0.13782
837,0.026735,-0.10449,-0.18666,-0.29937,-0.33055,-0.0050961,0.12093
838,0.023812,-0.11553,-0.17757,-0.31204,-0.5079,0.014068,0.10047
839,0.015042,-0.13047,-0.17205,-0.33835,-0.55077,0.033231,0.075456
840,0.0033489,-0.14606,-0.1701,-0.36758,-0.46665,0.047198,0.048822
841,-0.008669,-0.15905,-0.16653,-0.38902,-0.30944,0.047198,0.023812
842,-0.022311,-0.1662,-0.1597,-0.39292,-0.15451,0.03518,0.0059473
843,-0.037252,-0.16588,-0.14866,-0.37798,-0.062587,0.021213,-0.0018481
844,-0.04927,-0.16198,-0.13307,-0.35491,-0.056091,0.023812,-0.0018481
845,-0.057065,-0.15581,-0.11456,-0.32731,-0.10806,0.051745,0.0069217
846,-0.062587,-0.14931,-0.094743,-0.27923,-0.1688,0.096244,0.024786
847,-0.060313,-0.13892,-0.071357,-0.18991,-0.19803,0.14659,0.049796
848,-0.051544,-0.12625,-0.039201,-0.057065,-0.18796,0.19206,0.076106
849,-0.038876,-0.11293,0.00042559,0.096569,-0.15678,0.23201,0.10631
850,-0.024909,-0.097666,0.041027,0.23429,-0.1269,0.27554,0.14107
851,-0.010618,-0.082076,0.072533,0.32198,-0.10806,0.33595,0.17615
852,0.00042559,-0.06681,0.088124,0.34829,-0.086298,0.41391,0.19953
853,0.0069217,-0.053168,0.089423,0.32296,-0.035953,0.49316,0.20181
854,0.010819,-0.041799,0.086824,0.26547,0.052395,0.5487,0.18102
855,0.011469,-0.029782,0.082277,0.19888,0.14886,0.55455,0.13879
856,0.0075714,-0.018413,0.075456,0.14334,0.2044,0.49478,0.084876
857,-0.00087364,-0.0076946,0.065062,0.11054,0.19141,0.36616,0.029983
858,-0.010618,-0.0018481,0.050446,0.098517,0.11086,0.18816,-0.01614
859,-0.020037,0.0023744,0.033556,0.095594,-0.01484,-0.0089938,-0.047646
860,-0.026209,0.01017,0.013743,0.092671,-0.161,-0.19901,-0.061288
861,-0.025884,0.02706,-0.00054884,0.092671,-0.29482,-0.36498,-0.061288
862,-0.021337,0.047847,-0.0031473,0.10177,-0.3822,-0.50205,-0.055766
863,-0.0099683,0.066686,0.0085458,0.11671,-0.40818,-0.60956,-0.051544
864,0.0020496,0.081303,0.029333,0.12483,-0.39454,-0.69661,-0.059014
865,0.0078962,0.095269,0.052395,0.11606,-0.3731,-0.77814,-0.086298
866,0.0078962,0.10794,0.073182,0.0865,-0.35426,-0.86259,-0.1334
867,0.0075714,0.12385,0.092671,0.041676,-0.32211,-0.93762,-0.18601
868,0.016341,0.14659,0.11378,-0.0057458,-0.25455,-0.97172,-0.23019
869,0.033556,0.1742,0.13717,-0.040175,-0.13632,-0.93599,-0.25195
870,0.055643,0.20246,0.15666,-0.043748,0.027709,-0.82134,-0.23831
871,0.076106,0.22747,0.16705,-0.0063954,0.21155,-0.64302,-0.19219
872,0.088773,0.24663,0.16965,0.069934,0.37493,-0.43806,-0.12755
873,0.088448,0.258,0.16023,0.17517,0.48959,-0.24091,-0.063886
874,0.078379,0.2606,0.13652,0.28853,0.5435,-0.070707,-0.016789
875,0.066362,0.25345,0.099492,0.38305,0.52824,0.064737,0.0059473
876,0.056617,0.23559,0.050771,0.43112,0.43827,0.1716,0.0043233
877,0.05142,0.21415,0.0062721,0.41878,0.27879,0.25702,-0.0054209
878,0.049147,0.19531,-0.012567,0.35122,0.079354,0.31744,-0.0037969
879,0.046548,0.18394,-0.0037969,0.25345,-0.10806,0.33368,0.019264
880,0.042001,0.18134,0.026085,0.14886,-0.23376,0.29568,0.062139
881,0.038428,0.18427,0.062789,0.048822,-0.26267,0.22487,0.11541
882,0.040702,0.18946,0.098517,-0.038551,-0.18147,0.15828,0.169
883,0.05142,0.19304,0.1336,-0.10254,-0.013216,0.1336,0.21675
884,0.067661,0.19271,0.16998,-0.12138,0.19661,0.16478,0.25085
885,0.083251,0.19011,0.20635,-0.0837,0.39279,0.23656,0.2567
886,0.091696,0.18557,0.23656,-0.014191,0.51622,0.30639,0.22941
887,0.087474,0.17745,0.24923,0.040377,0.52077,0.33693,0.17225
888,0.070259,0.16673,0.23948,0.058891,0.40546,0.31711,0.10014
889,0.048497,0.14886,0.21025,0.056617,0.207,0.26612,0.039402
890,0.030633,0.12288,0.17095,0.064737,-0.0024977,0.21155,0.0039985
891,0.020564,0.092346,0.13782,0.11248,-0.13404,0.16965,-0.0099683
892,0.020564,0.065712,0.11833,0.2044,-0.13567,0.14009,-0.026209
893,0.028684,0.05142,0.11573,0.31939,-0.020687,0.11963,-0.059339
894,0.039078,0.049796,0.12905,0.42852,0.14919,0.10696,-0.10676
895,0.04395,0.059865,0.14789,0.5094,0.296,0.10631,-0.15613
896,0.038428,0.072208,0.16478,0.55162,0.37298,0.12743,-0.19933
897,0.024786,0.075781,0.17874,0.55715,0.38207,0.16868,-0.23474
898,0.0069217,0.069934,0.19011,0.53668,0.36713,0.22357,-0.25877
899,-0.010943,0.056942,0.19758,0.49998,0.38272,0.28041,-0.27566
900,-0.02426,0.042326,0.20311,0.46198,0.46068,0.32653,-0.28995
901,-0.030431,0.030957,0.2057,0.43404,0.58898,0.34764,-0.30294
902,-0.029782,0.030633,0.20505,0.4204,0.72475,0.33108,-0.31171
903,-0.021986,0.04395,0.20018,0.41585,0.81277,0.27456,-0.30944
904,-0.0057458,0.067986,0.18654,0.40968,0.81179,0.18687,-0.29158
905,0.019914,0.094295,0.1625,0.39539,0.71955,0.095594,-0.25422
906,0.048172,0.11606,0.13035,0.37201,0.57209,0.037129,-0.19283
907,0.071558,0.12515,0.099817,0.34147,0.41683,0.03583,-0.11001
908,0.086175,0.11995,0.079679,0.30574,0.27034,0.090722,-0.019712
909,0.096244,0.10534,0.06961,0.26287,0.11476,0.1755,0.062139
910,0.10112,0.088773,0.06084,0.21058,-0.078503,0.258,0.12288
911,0.099167,0.072858,0.044599,0.14724,-0.32178,0.31029,0.15114
912,0.087799,0.053369,0.023162,0.063763,-0.59592,0.31776,0.13912
913,0.067986,0.029333,0.0020496,-0.031081,-0.85966,0.27651,0.092021
914,0.043625,0.0043233,-0.01549,-0.11553,-1.0614,0.19791,0.029983
915,0.021213,-0.017764,-0.022636,-0.16653,-1.1591,0.10047,-0.024585
916,0.0062721,-0.036602,-0.017764,-0.1714,-1.1364,0.0049729,-0.053492
917,-0.0024977,-0.04862,-0.00087364,-0.12852,-1.0013,-0.073955,-0.048945
918,-0.0050961,-0.053168,0.02641,-0.045697,-0.77684,-0.13275,-0.019388
919,-0.0024977,-0.04992,0.056617,0.062139,-0.49296,-0.17692,0.016991
920,0.0059473,-0.044723,0.081303,0.17257,-0.18731,-0.20583,0.048497
921,0.022837,-0.0405,0.096244,0.26482,0.078379,-0.21849,0.073832
922,0.045249,-0.042124,0.10371,0.31809,0.22812,-0.21362,0.098517
923,0.067011,-0.052843,0.10664,0.31516,0.20376,-0.19771,0.12937
924,0.079354,-0.074605,0.098517,0.24468,-0.0041217,-0.17627,0.16348
925,0.076755,-0.098641,0.077405,0.10989,-0.33932,-0.14899,0.19336
926,0.063113,-0.11813,0.042651,-0.066485,-0.70668,-0.11163,0.21545
927,0.047523,-0.13437,-0.0034721,-0.24286,-1.0019,-0.056416,0.23591
928,0.039402,-0.14574,-0.050894,-0.38447,-1.1387,0.020239,0.26709
929,0.0433,-0.15256,-0.089871,-0.47639,-1.0939,0.12483,0.31874
930,0.054993,-0.15061,-0.11715,-0.52479,-0.91813,0.25378,0.3863
931,0.06831,-0.13794,-0.13924,-0.54915,-0.69921,0.39539,0.46003
932,0.074806,-0.12105,-0.16523,-0.57156,-0.50595,0.53214,0.52174
933,0.067986,-0.10774,-0.20031,-0.60989,-0.37018,0.63575,0.54968
934,0.046873,-0.10449,-0.24026,-0.66088,-0.29905,0.67278,0.52369
935,0.012768,-0.11163,-0.27566,-0.70343,-0.28411,0.6325,0.44704
936,-0.028157,-0.12203,-0.29775,-0.71188,-0.2945,0.52239,0.34277
937,-0.067134,-0.12527,-0.301,-0.66056,-0.28865,0.37428,0.24728
938,-0.086948,-0.11651,-0.28248,-0.52739,-0.23571,0.22812,0.17842
939,-0.079477,-0.09117,-0.24221,-0.31366,-0.13145,0.10599,0.1362
940,-0.04862,-0.051868,-0.18439,-0.051219,0.023162,0.0095202,0.10566
941,-0.013866,-0.0054209,-0.11683,0.20895,0.22747,-0.078178,0.070909
942,0.009845,0.039402,-0.050569,0.41261,0.47075,-0.16588,0.020888
943,0.01894,0.079029,0.0062721,0.52239,0.73676,-0.2591,-0.045697
944,0.016991,0.11248,0.055643,0.52726,1.0167,-0.36109,-0.12495
945,0.011469,0.14561,0.10664,0.44444,1.2746,-0.47769,-0.20972
946,0.0069217,0.18199,0.1664,0.31679,1.4484,-0.61833,-0.29385
947,0.0036737,0.22422,0.23754,0.19693,1.4728,-0.79925,-0.38122
948,0.0023744,0.26449,0.31224,0.11963,1.3071,-1.0273,-0.48354
949,-0.0037969,0.29568,0.37655,0.090722,0.95796,-1.2839,-0.60307
950,-0.017114,0.31094,0.41845,0.086824,0.48731,-1.5158,-0.72162
951,-0.034978,0.30802,0.44021,0.082277,-0.0063954,-1.6597,-0.80737
952,-0.052518,0.2947,0.44541,0.080328,-0.40851,-1.6811,-0.834
953,-0.06681,0.27456,0.43404,0.11086,-0.63522,-1.5804,-0.79113
954,-0.075904,0.25215,0.40351,0.20733,-0.66121,-1.3787,-0.68362
955,-0.079477,0.22714,0.35512,0.36713,-0.51212,-1.1101,-0.52901
956,-0.075904,0.20083,0.29925,0.55,-0.23896,-0.80022,-0.35199
957,-0.062587,0.17517,0.24403,0.69811,0.088448,-0.47249,-0.18407
958,-0.036927,0.15406,0.19076,0.76437,0.38337,-0.15776,-0.04927
959,-0.0080194,0.13717,0.1336,0.72864,0.55455,0.10177,0.03453
960,0.012119,0.11671,0.06896,0.59385,0.55162,0.26417,0.065062
961,0.020239,0.089098,-0.00054884,0.39084,0.41131,0.31906,0.054344
962,0.01894,0.060515,-0.06551,0.16121,0.23461,0.30315,0.031282
963,0.012443,0.03583,-0.12138,-0.050569,0.1258,0.26872,0.020239
964,0.0046481,0.017316,-0.1675,-0.2159,0.12353,0.23754,0.035505
965,-0.0011985,-0.00087364,-0.20225,-0.31821,0.19953,0.20635,0.080653
966,0.00042559,-0.02361,-0.22726,-0.36303,0.2908,0.16738,0.15049
967,0.0091954,-0.048945,-0.2448,-0.36888,0.3366,0.11703,0.22877
968,0.020564,-0.075255,-0.25812,-0.35524,0.31029,0.059541,0.29827
969,0.03453,-0.097017,-0.26787,-0.3377,0.22259,0.0017248,0.34959
970,0.049796,-0.11261,-0.27534,-0.32113,0.11281,-0.058365,0.38045
971,0.062464,-0.1256,-0.28346,-0.29742,0.025436,-0.1243,0.39669
972,0.065062,-0.13697,-0.29515,-0.26169,-0.017439,-0.18666,0.39767
973,0.05272,-0.14899,-0.30912,-0.21395,-0.025884,-0.23279,0.37915
974,0.029009,-0.16588,-0.31854,-0.15061,-0.031081,-0.24935,0.34407
975,0.0033489,-0.18179,-0.31399,-0.074605,-0.067459,-0.22856,0.29665
976,-0.017114,-0.19121,-0.28865,0.0049729,-0.15288,-0.17205,0.24176
977,-0.029782,-0.18991,-0.24708,0.069285,-0.27826,-0.084999,0.18134
978,-0.037252,-0.18082,-0.20745,0.088124,-0.42962,0.025761,0.11898
979,-0.042774,-0.17172,-0.18666,0.042326,-0.59137,0.15406,0.062789
980,-0.044723,-0.1636,-0.18861,-0.055441,-0.74338,0.29405,0.024461
981,-0.040825,-0.14704,-0.20031,-0.17107,-0.86324,0.42982,0.0088706
982,-0.029132,-0.11553,-0.20323,-0.26332,-0.95418,0.54383,0.003024
983,-0.012892,-0.071032,-0.18374,-0.30002,-1.0474,0.61983,-0.0080194
984,0.0020496,-0.02361,-0.14509,-0.27306,-1.164,0.66108,-0.03303
985,0.009845,0.013093,-0.098641,-0.21557,-1.2878,0.68642,-0.059014
986,0.0072465,0.029658,-0.060313,-0.19283,-1.3771,0.71273,-0.05804
987,-0.0037969,0.02641,-0.04115,-0.24448,-1.3933,0.73611,-0.010618
988,-0.013866,0.011469,-0.038227,-0.33802,-1.3066,0.73709,0.081627
989,-0.018088,-0.00087364,-0.035953,-0.40363,-1.1159,0.70526,0.20018
990,-0.0096434,0.0078962,-0.020687,-0.39714,-0.847,0.66466,0.31874
991,0.014717,0.040377,0.010495,-0.32795,-0.52544,0.65199,0.41553
992,0.05142,0.086824,0.051096,-0.23603,-0.14606,0.68869,0.47205
993,0.089098,0.12775,0.092671,-0.16198,0.29503,0.76632,0.47952
994,0.11671,0.15341,0.12483,-0.12203,0.77217,0.85434,0.44476
995,0.12807,0.1625,0.14496,-0.10806,1.2431,0.91703,0.38792
996,0.12872,0.16023,0.15861,-0.10579,1.667,0.93327,0.32069
997,0.12418,0.15276,0.17225,-0.097991,2.025,0.90404,0.2528
998,0.12028,0.14139,0.18719,-0.072331,2.3131,0.8472,0.19109
999,0.11768,0.12515,0.19304,-0.029782,2.5284,0.77964,0.14172
1000,0.11346,0.10144,0.18362,0.017965,2.6548,0.70526,0.092346
1001,0.10209,0.075131,0.15958,0.050771,2.6483,0.60717,0.014392
1002,0.077405,0.050446,0.12515,0.048822,2.4709,0.47075,-0.12105
1003,0.038103,0.027385,0.082602,0.023487,2.1208,0.30217,-0.31074
1004,-0.010943,0.0072465,0.036479,0.0052977,1.6355,0.13587,-0.51017
1005,-0.05804,-0.0080194,-0.0041217,0.020564,1.0937,0.019589,-0.65439
1006,-0.089546,-0.014516,-0.029782,0.069934,0.59255,-0.01484,-0.69434
1007,-0.097666,-0.014191,-0.037577,0.14302,0.21317,0.030308,-0.61703
1008,-0.085324,-0.0067202,-0.032055,0.23526,-0.0080194,0.1245,-0.45171
1009,-0.060313,0.0049729,-0.02361,0.34927,-0.08305,0.21902,-0.25325
1010,-0.031081,0.016341,-0.024909,0.47107,-0.06681,0.27132,-0.072656
1011,-0.0073698,0.023812,-0.038551,0.56754,-0.022961,0.258,0.054344
1012,0.0049729,0.02641,-0.056091,0.60522,0.014392,0.18622,0.11866
1013,0.0052977,0.02706,-0.067784,0.58638,0.034855,0.083901,0.13035
1014,-0.00022403,0.025761,-0.059989,0.54513,0.047847,-0.019388,0.10989
1015,-0.0063954,0.023162,-0.023935,0.52174,0.067661,-0.10546,0.07708
1016,-0.0089938,0.025111,0.032906,0.52369,0.081303,-0.16977,0.050121
1017,-0.0050961,0.02706,0.089423,0.50355,0.053044,-0.20908,0.039727
1018,0.003024,0.025111,0.1232,0.38402,-0.04115,-0.22272,0.054668
1019,0.013743,0.016666,0.12255,0.12743,-0.18764,-0.2133,0.093645
1020,0.028034,0.0039985,0.092996,-0.22239,-0.33348,-0.18829,0.15016
1021,0.046873,-0.0080194,0.052395,-0.55954,-0.42735,-0.15905,0.2148
1022,0.064413,-0.019388,0.019264,-0.78658,-0.44326,-0.13632,0.27456
1023,0.078379,-0.025234,0.0052977,-0.85414,-0.39487,-0.13145,0.31711
1024,0.086175,-0.027183,0.01017,-0.76937,-0.31659,-0.14671,0.3444
1025,0.092346,-0.029132,0.026085,-0.57286,-0.25585,-0.17497,0.35966
1026,0.094945,-0.037252,0.044275,-0.32438,-0.26104,-0.19673,0.36486
1027,0.090722,-0.055116,0.054993,-0.090196,-0.36758,-0.18114,0.36843
1028,0.076431,-0.080127,0.053369,0.073832,-0.57253,-0.095393,0.37623
1029,0.057917,-0.10676,0.041027,0.14529,-0.82329,0.076755,0.39312
1030,0.044275,-0.1243,0.023812,0.1271,-1.0455,0.31971,0.42105
1031,0.038753,-0.13112,0.0059473,0.045574,-1.1689,0.58638,0.45256
1032,0.038103,-0.1295,-0.012892,-0.057715,-1.1604,0.80432,0.46945
1033,0.033556,-0.12787,-0.029782,-0.14801,-1.0266,0.90501,0.44996
1034,0.021863,-0.1295,-0.046022,-0.20972,-0.82361,0.85694,0.38565
1035,0.0026992,-0.13762,-0.064861,-0.24383,-0.61736,0.67895,0.29113
1036,-0.019388,-0.14476,-0.093444,-0.25942,-0.4621,0.42495,0.19044
1037,-0.039526,-0.14411,-0.13242,-0.26072,-0.39129,0.16348,0.10177
1038,-0.055441,-0.13924,-0.17659,-0.2526,-0.40461,-0.064861,0.028359
1039,-0.067134,-0.13047,-0.21687,-0.23863,-0.47379,-0.25455,-0.040175
1040,-0.072331,-0.11748,-0.24221,-0.21849,-0.55435,-0.41825,-0.11456
1041,-0.068109,-0.097991,-0.24578,-0.19641,-0.61508,-0.55532,-0.19738
1042,-0.057715,-0.071357,-0.22467,-0.17562,-0.63945,-0.65276,-0.27079
1043,-0.038227,-0.040825,-0.18147,-0.16165,-0.62385,-0.69336,-0.30522
1044,-0.011267,-0.0054209,-0.12333,-0.16328,-0.57351,-0.67355,-0.27631
1045,0.020888,0.033231,-0.061937,-0.18471,-0.49426,-0.62256,-0.19316
1046,0.055643,0.06961,-0.010618,-0.2094,-0.39389,-0.5956,-0.10254
1047,0.086175,0.095919,0.022512,-0.21395,-0.28508,-0.63262,-0.059989
1048,0.099817,0.11541,0.031932,-0.18536,-0.18796,-0.73754,-0.098965
1049,0.087799,0.1245,0.016666,-0.13372,-0.13015,-0.88208,-0.21427
1050,0.054019,0.1206,-0.020037,-0.089546,-0.12625,-1.0256,-0.37765
1051,0.0059473,0.10404,-0.063237,-0.073631,-0.15483,-1.1374,-0.54687
1052,-0.035953,0.081952,-0.092469,-0.07428,-0.17789,-1.1984,-0.6755
1053,-0.058365,0.062139,-0.093119,-0.056416,-0.15873,-1.2134,-0.72649
1054,-0.053168,0.047198,-0.065186,0.015367,-0.097017,-1.201,-0.70018
1055,-0.035953,0.036154,-0.024909,0.13717,-0.03173,-1.176,-0.62645
1056,-0.018088,0.02706,0.013418,0.27034,-0.012567,-1.1461,-0.54428
1057,-0.0083442,0.018615,0.042001,0.37265,-0.061613,-1.1088,-0.47477
1058,-0.0083442,0.013418,0.063113,0.42625,-0.16653,-1.0529,-0.42215
1059,-0.013541,0.011469,0.086175,0.43372,-0.31431,-0.9662,-0.3744
1060,-0.018738,0.011794,0.11021,0.40189,-0.48841,-0.85057,-0.31821
1061,-0.019063,0.014717,0.1336,0.34667,-0.64854,-0.71025,-0.24643
1062,-0.011267,0.024786,0.14984,0.30022,-0.72682,-0.55337,-0.16328
1063,0.0023744,0.038103,0.15796,0.28788,-0.67095,-0.39194,-0.085648
1064,0.01764,0.055318,0.16056,0.32978,-0.47477,-0.24156,-0.029457
1065,0.030633,0.076106,0.16478,0.42527,-0.19413,-0.12105,-0.010618
1066,0.037129,0.092996,0.17712,0.54448,0.078379,-0.038876,-0.03173
1067,0.037778,0.099817,0.20213,0.64387,0.2593,0.0033489,-0.073631
1068,0.03518,0.09397,0.23818,0.68544,0.31094,0.016341,-0.10741
1069,0.03518,0.079679,0.27684,0.66433,0.24143,0.015692,-0.11098
1070,0.040702,0.062789,0.30639,0.60327,0.090072,0.011144,-0.084999
1071,0.053694,0.055968,0.32036,0.53701,-0.084999,0.0026992,-0.042124
1072,0.066362,0.058566,0.31646,0.48926,-0.23474,-0.020037,-0.0060706
1073,0.072208,0.062139,0.29113,0.4675,-0.32536,-0.066485,0.00042559
1074,0.061489,0.051745,0.23981,0.4675,-0.34484,-0.1321,-0.026533
1075,0.031932,0.020564,0.16153,0.48049,-0.30262,-0.19836,-0.070058
1076,-0.011592,-0.027833,0.064737,0.5042,-0.20583,-0.24805,-0.10319
1077,-0.059014,-0.080451,-0.034978,0.52889,-0.059339,-0.27014,-0.11553
1078,-0.097991,-0.1204,-0.11586,0.54578,0.13944,-0.25812,-0.096367
1079,-0.1204,-0.13372,-0.15711,0.54578,0.3837,-0.21135,-0.046996
1080,-0.12268,-0.11553,-0.15223,0.52499,0.6692,-0.1321,0.025111
1081,-0.10384,-0.072331,-0.10351,0.48179,0.98687,-0.018088,0.10729
1082,-0.067134,-0.018738,-0.027833,0.42105,1.2867,0.13262,0.18914
1083,-0.021661,0.025436,0.046548,0.34992,1.4845,0.31711,0.26709
1084,0.021863,0.049796,0.098517,0.27749,1.5098,0.50258,0.33628
1085,0.054344,0.049796,0.11866,0.21675,1.3575,0.65816,0.39539
1086,0.071558,0.030308,0.10989,0.17745,1.0872,0.76015,0.44411
1087,0.076106,0.0039985,0.081952,0.16315,0.78743,0.80822,0.48212
1088,0.078055,-0.016464,0.049472,0.16185,0.53473,0.80855,0.50875
1089,0.082277,-0.023935,0.02706,0.15568,0.36648,0.77152,0.52012
1090,0.089748,-0.017439,0.019914,0.12515,0.27879,0.71825,0.50583
1091,0.095594,-0.0028225,0.019914,0.064088,0.24566,0.66661,0.45808
1092,0.096893,0.015367,0.022512,-0.026858,0.23396,0.62146,0.38272
1093,0.091047,0.032582,0.029333,-0.12625,0.21512,0.57144,0.30152
1094,0.082602,0.054668,0.047523,-0.20225,0.17192,0.49933,0.23039
1095,0.07708,0.084226,0.083251,-0.22337,0.097868,0.39377,0.17615
1096,0.081627,0.1245,0.13879,-0.19121,-0.0018481,0.26384,0.13912
1097,0.099817,0.1781,0.20603,-0.14801,-0.10611,0.13847,0.11801
1098,0.12937,0.24273,0.28073,-0.14541,-0.17237,0.050446,0.11508
1099,0.16445,0.31127,0.35641,-0.2094,-0.161,0.021863,0.1206
1100,0.19271,0.37233,0.42105,-0.31886,-0.06681,0.054019,0.12613
1101,0.20505,0.4191,0.46555,-0.41728,0.056292,0.12872,0.12613
1102,0.20213,0.44963,0.48244,-0.44716,0.14172,0.22129,0.11346
1103,0.18459,0.46133,0.46782,-0.38447,0.15633,0.30639,0.079679
1104,0.15763,0.45808,0.4243,-0.24935,0.10794,0.36551,0.023812
1105,0.12548,0.44769,0.35999,-0.093119,0.028034,0.38825,-0.050569
1106,0.09462,0.43729,0.28398,0.033231,-0.038551,0.38272,-0.1295
1107,0.06831,0.42592,0.20798,0.10306,-0.062912,0.36746,-0.19511
1108,0.0433,0.41293,0.14432,0.11054,-0.047321,0.36973,-0.23051
1109,0.018615,0.40026,0.10144,0.057267,-0.024585,0.41488,-0.22856
1110,-0.0028225,0.39084,0.080978,-0.049595,-0.037902,0.49803,-0.18894
1111,-0.020362,0.385,0.075131,-0.19608,-0.10676,0.5984,-0.12398
1112,-0.029782,0.38045,0.073832,-0.36466,-0.2081,0.69616,-0.058365
1113,-0.032055,0.37298,0.067986,-0.53161,-0.29028,0.7975,-0.011917
1114,-0.027508,0.36226,0.057917,-0.67485,-0.30749,0.91898,0.0088706
1115,-0.016789,0.34797,0.045899,-0.77846,-0.24318,1.0632,0.015367
1116,0.00075039,0.33043,0.033881,-0.82036,-0.11878,1.2077,0.025436
1117,0.023812,0.31744,0.025761,-0.78041,0.012443,1.3221,0.056942
1118,0.048172,0.31484,0.022837,-0.66381,0.10599,1.3783,0.10859
1119,0.068635,0.31289,0.018615,-0.51407,0.15926,1.3474,0.17192
1120,0.080653,0.29665,-0.0044465,-0.38512,0.2109,1.2123,0.22714
1121,0.081627,0.25897,-0.052518,-0.30749,0.3038,0.98622,0.25995
1122,0.073182,0.20148,-0.1178,-0.27501,0.44898,0.71403,0.26709
1123,0.064737,0.13165,-0.18114,-0.25617,0.61788,0.45353,0.25897
1124,0.06084,0.058891,-0.22142,-0.21752,0.7582,0.2489,0.24208
1125,0.063763,-0.0050961,-0.23344,-0.15418,0.81829,0.10664,0.21967
1126,0.067986,-0.056741,-0.22077,-0.090845,0.77152,-0.0057458,0.18362
1127,0.065712,-0.098641,-0.19219,-0.053168,0.63542,-0.13307,0.12125
1128,0.051745,-0.13372,-0.15905,-0.051868,0.46133,-0.28086,0.037454
1129,0.026735,-0.17075,-0.12852,-0.085324,0.2999,-0.4202,-0.050569
1130,-0.0041217,-0.20972,-0.10838,-0.14249,0.17095,-0.51634,-0.12235
1131,-0.037252,-0.24773,-0.10416,-0.20063,0.074806,-0.55922,-0.1675
1132,-0.071357,-0.28151,-0.11228,-0.23668,-0.007045,-0.57253,-0.18991
1133,-0.10319,-0.30782,-0.12787,-0.23506,-0.090521,-0.59657,-0.19868
1134,-0.12722,-0.31951,-0.14054,-0.19738,-0.17594,-0.65698,-0.19901
1135,-0.14249,-0.31301,-0.14281,-0.13632,-0.23993,-0.74696,-0.18959
1136,-0.13989,-0.28995,-0.13599,-0.067784,-0.26007,-0.83368,-0.16588
1137,-0.12105,-0.2565,-0.12787,0.0052977,-0.22467,-0.87688,-0.1204
1138,-0.09117,-0.22272,-0.13307,0.0865,-0.13794,-0.85154,-0.053168
1139,-0.059339,-0.20063,-0.15808,0.1768,-0.027183,-0.758,0.027385
1140,-0.029132,-0.19413,-0.19933,0.27132,0.065712,-0.61573,0.10859
1141,-0.0041217,-0.19933,-0.24253,0.36583,0.099817,-0.45203,0.18492
1142,0.01829,-0.20908,-0.27046,0.45775,0.053694,-0.30035,0.25345
1143,0.038428,-0.22012,-0.27469,0.53408,-0.072331,-0.18861,0.30867
1144,0.054344,-0.22954,-0.24903,0.58118,-0.26787,-0.13275,0.34017
1145,0.06084,-0.23831,-0.2016,0.58508,-0.51407,-0.13145,0.33985
1146,0.054019,-0.24513,-0.14411,0.53766,-0.78366,-0.1727,0.29665
1147,0.034206,-0.25292,-0.088572,0.44509,-1.0295,-0.23538,0.20928
1148,0.0069217,-0.25747,-0.043099,0.33303,-1.1949,-0.29807,0.095594
1149,-0.022961,-0.25325,-0.015815,0.22649,-1.2335,-0.35004,-0.020362
1150,-0.04992,-0.24026,-0.007045,0.13067,-1.1465,-0.3809,-0.11521
1151,-0.069083,-0.21817,-0.0089938,0.04395,-0.98309,-0.38252,-0.17465
1152,-0.081101,-0.18991,-0.013866,-0.028482,-0.82004,-0.34484,-0.19706
1153,-0.085324,-0.16198,-0.015165,-0.077203,-0.71772,-0.26429,-0.19868
1154,-0.085973,-0.14054,-0.017764,-0.10514,-0.68264,-0.14704,-0.20648
1155,-0.085648,-0.1295,-0.027833,-0.11748,-0.66608,-0.016464,-0.22791
1156,-0.089546,-0.12917,-0.050569,-0.1204,-0.59527,0.10566,-0.25065
1157,-0.097991,-0.14152,-0.084349,-0.11196,-0.41533,0.21155,-0.25715
1158,-0.10968,-0.16393,-0.12625,-0.089221,-0.12722,0.30217,-0.23798
1159,-0.12073,-0.19056,-0.1753,-0.047646,0.21447,0.3785,-0.19966
1160,-0.12625,-0.2159,-0.22434,0.0095202,0.53343,0.44054,-0.15743
1161,-0.12008,-0.23376,-0.26754,0.06961,0.77022,0.46555,-0.12203
1162,-0.10416,-0.24221,-0.29937,0.12158,0.88812,0.42365,-0.093444
1163,-0.084999,-0.24123,-0.31529,0.16575,0.8878,0.30055,-0.062912
1164,-0.068434,-0.23376,-0.31464,0.21155,0.81147,0.10599,-0.028482
1165,-0.05739,-0.22532,-0.30002,0.25995,0.71468,-0.13015,-0.00054884
1166,-0.052193,-0.22077,-0.27988,0.30607,0.63055,-0.36661,0.015042
1167,-0.050894,-0.22077,-0.2578,0.33563,0.56462,-0.56734,0.015042
1168,-0.047321,-0.21557,-0.23409,0.34245,0.51817,-0.707,0.0023744
1169,-0.037902,-0.20193,-0.2081,0.32783,0.48796,-0.77262,-0.010293
1170,-0.022311,-0.18147,-0.17822,0.3012,0.45418,-0.75703,-0.007045
1171,-0.0018481,-0.16295,-0.14801,0.27002,0.3785,-0.66316,0.023162
1172,0.019589,-0.15029,-0.1243,0.23754,0.22259,-0.50497,0.07773
1173,0.037129,-0.14216,-0.11228,0.20733,-0.0099683,-0.30652,0.14334
1174,0.045574,-0.13632,-0.11001,0.17615,-0.26527,-0.10189,0.19856
1175,0.041676,-0.13372,-0.11423,0.13132,-0.4673,0.074157,0.22552
1176,0.028684,-0.1282,-0.11423,0.062139,-0.55402,0.19011,0.21707
1177,0.0095202,-0.11326,-0.10968,-0.029457,-0.50985,0.22065,0.17485
1178,-0.0080194,-0.088247,-0.097666,-0.1321,-0.36466,0.1677,0.10664
1179,-0.018088,-0.05739,-0.079802,-0.23376,-0.18277,0.06084,0.028359
1180,-0.018088,-0.02426,-0.058365,-0.33445,-0.026209,-0.054142,-0.044398
1181,-0.012892,0.0039985,-0.037577,-0.43384,0.06961,-0.13307,-0.098641
1182,-0.0083442,0.025111,-0.018413,-0.52511,0.10436,-0.15841,-0.12463
1183,-0.0034721,0.038428,-0.00054884,-0.58715,0.098193,-0.1295,-0.123
1184,0.003024,0.04395,0.021213,-0.59819,0.075781,-0.067459,-0.097666
1185,0.016341,0.047523,0.047523,-0.54655,0.058891,0.0078962,-0.050569
1186,0.039078,0.056292,0.081303,-0.43222,0.079354,0.084876,0.016666
1187,0.071234,0.082277,0.11931,-0.2552,0.16185,0.16608,0.099817
1188,0.10371,0.11963,0.15763,-0.042449,0.28301,0.24955,0.18362
1189,0.12645,0.15373,0.19109,0.14172,0.38175,0.31224,0.24241
1190,0.131,0.16998,0.21675,0.2463,0.42527,0.32361,0.25605
1191,0.11606,0.16445,0.23656,0.27034,0.44119,0.25962,0.22065
1192,0.089748,0.14529,0.26027,0.24241,0.49316,0.1258,0.14854
1193,0.063763,0.1258,0.29438,0.18719,0.60554,-0.044398,0.067336
1194,0.048822,0.11736,0.33952,0.11801,0.72929,-0.20583,0.0017248
1195,0.047198,0.12385,0.3837,0.038428,0.7686,-0.32243,-0.040175
1196,0.057917,0.14399,0.41066,-0.042449,0.64874,-0.3783,-0.061288
1197,0.073182,0.17095,0.41326,-0.10709,0.37233,-0.37927,-0.067134
1198,0.083576,0.20116,0.39572,-0.13762,0.029009,-0.34322,-0.063237
1199,0.086175,0.22617,0.36421,-0.11878,-0.25942,-0.29612,-0.061937
1200,0.078704,0.24241,0.33075,-0.046022,-0.39876,-0.26592,-0.072981
1201,0.066037,0.24436,0.3025,0.06961,-0.36888,-0.26364,-0.096367
1202,0.05207,0.23396,0.27814,0.20473,-0.22954,-0.28638,-0.12755
1203,0.037778,0.21577,0.25183,0.33335,-0.078178,-0.32308,-0.15711
1204,0.026085,0.19434,0.22389,0.43502,0.0049729,-0.35556,-0.17594
1205,0.019589,0.17582,0.20246,0.50225,0.00042559,-0.36368,-0.17724
1206,0.020239,0.16315,0.19044,0.54513,-0.06616,-0.34452,-0.15841
1207,0.028034,0.15958,0.19141,0.57923,-0.1636,-0.30132,-0.1282
1208,0.038753,0.16575,0.19661,0.60619,-0.27501,-0.24058,-0.10644
1209,0.047847,0.1755,0.19531,0.61951,-0.39714,-0.16782,-0.10156
1210,0.046873,0.17777,0.1781,0.61171,-0.51634,-0.09182,-0.10871
1211,0.034206,0.1664,0.14107,0.57923,-0.60469,-0.022636,-0.11326
1212,0.014717,0.14334,0.089423,0.52174,-0.63717,0.032906,-0.10741
1213,0.0010752,0.11313,0.032257,0.42722,-0.60404,0.075131,-0.085973
1214,-0.0021729,0.086824,-0.014191,0.28561,-0.51732,0.11898,-0.044398
1215,0.0095202,0.071883,-0.039851,0.11054,-0.40331,0.17939,0.016016
1216,0.032582,0.06961,-0.038876,-0.058689,-0.2854,0.2606,0.088773
1217,0.061814,0.078379,-0.017439,-0.17465,-0.17497,0.35771,0.16283
1218,0.097218,0.096893,0.014068,-0.20063,-0.088572,0.45321,0.22682
1219,0.12807,0.11801,0.046223,-0.14834,-0.035303,0.51947,0.26937
1220,0.14789,0.13555,0.069934,-0.070707,-0.018088,0.54155,0.2947
1221,0.15471,0.14107,0.079354,-0.024909,-0.02361,0.52856,0.30932
1222,0.14984,0.13327,0.077405,-0.037252,-0.039201,0.50518,0.32231
1223,0.13944,0.11898,0.063438,-0.10221,-0.055766,0.49478,0.33693
1224,0.13067,0.11443,0.039727,-0.19024,-0.072331,0.5107,0.34927
1225,0.1232,0.12743,0.0085458,-0.26429,-0.097341,0.54091,0.35284
1226,0.11476,0.15114,-0.029457,-0.30619,-0.14087,0.56527,0.33725
1227,0.10469,0.17615,-0.070707,-0.31821,-0.20063,0.56234,0.30055
1228,0.09397,0.18849,-0.10838,-0.31042,-0.26007,0.52012,0.24728
1229,0.082927,0.18134,-0.13729,-0.28995,-0.2958,0.43632,0.18914
1230,0.074482,0.16413,-0.15126,-0.26397,-0.2932,0.31874,0.1336
1231,0.068635,0.15309,-0.14281,-0.24091,-0.25033,0.18654,0.080978
1232,0.061489,0.15276,-0.11228,-0.23441,-0.19056,0.062464,0.025111
1233,0.046223,0.15763,-0.066485,-0.24903,-0.15158,-0.0405,-0.036602
1234,0.021538,0.16185,-0.0099683,-0.27761,-0.15288,-0.12073,-0.10091
1235,-0.007045,0.16413,0.053044,-0.30197,-0.19219,-0.17465,-0.15483
1236,-0.030431,0.1677,0.11898,-0.30165,-0.25065,-0.19283,-0.18731
1237,-0.043099,0.17452,0.18232,-0.27144,-0.30229,-0.18601,-0.19413
1238,-0.043423,0.18524,0.23786,-0.21525,-0.32925,-0.18569,-0.18601
1239,-0.042124,0.19661,0.27944,-0.13957,-0.32503,-0.22564,-0.18569
1240,-0.046671,0.19921,0.30964,-0.04992,-0.29385,-0.31399,-0.21232
1241,-0.055116,0.19044,0.32588,0.053694,-0.24091,-0.42312,-0.26137
1242,-0.062587,0.16998,0.32328,0.16283,-0.16425,-0.50692,-0.30749
1243,-0.06681,0.14009,0.29795,0.24241,-0.077528,-0.52998,-0.3286
1244,-0.069083,0.10696,0.2567,0.2502,-0.015165,-0.49328,-0.31594
1245,-0.072331,0.078055,0.20863,0.16445,-0.0037969,-0.42377,-0.27404
1246,-0.079802,0.056617,0.16185,-0.0089938,-0.038876,-0.35004,-0.21557
1247,-0.085324,0.043625,0.12418,-0.23409,-0.086298,-0.27891,-0.15191
1248,-0.082725,0.039402,0.10112,-0.4582,-0.10838,-0.21037,-0.092469
1249,-0.064211,0.043625,0.097868,-0.63132,-0.086623,-0.14736,-0.047971
1250,-0.036927,0.056942,0.11151,-0.72974,-0.029782,-0.094418,-0.024909
1251,-0.0089938,0.07773,0.131,-0.74078,0.028034,-0.054142,-0.023935
1252,0.013743,0.099817,0.14821,-0.64204,0.060515,-0.020362,-0.037577
1253,0.029983,0.11541,0.16023,-0.42312,0.061489,0.016666,-0.052518
1254,0.044275,0.12093,0.16185,-0.12138,0.062139,0.066686,-0.059339
1255,0.059865,0.11476,0.15211,0.18427,0.10209,0.1336,-0.055116
1256,0.075456,0.10404,0.13262,0.42235,0.19791,0.20505,-0.042774
1257,0.085525,0.0865,0.10371,0.57339,0.34602,0.26449,-0.025884
1258,0.089423,0.06084,0.067661,0.66758,0.52629,0.2947,-0.0054209
1259,0.089748,0.02706,0.028034,0.74196,0.70526,0.27814,0.021213
1260,0.086175,-0.010293,-0.0047713,0.81472,0.8407,0.2057,0.054344
1261,0.075131,-0.044723,-0.029782,0.87546,0.90599,0.092996,0.089098
1262,0.054344,-0.072331,-0.052518,0.89884,0.89592,-0.017439,0.11508
1263,0.02641,-0.090196,-0.075904,0.85499,0.81764,-0.080451,0.12548
1264,-0.0028225,-0.097991,-0.097017,0.74521,0.69097,-0.079802,0.11411
1265,-0.026209,-0.10059,-0.10774,0.60489,0.54545,-0.03173,0.092021
1266,-0.039526,-0.10026,-0.10903,0.48471,0.41228,0.034206,0.075456
1267,-0.042449,-0.10124,-0.10124,0.42138,0.32523,0.10144,0.082277
1268,-0.033679,-0.10189,-0.092145,0.4178,0.31094,0.16673,0.1206
1269,-0.019388,-0.10351,-0.09994,0.44249,0.35122,0.22487,0.18134
1270,-0.0089938,-0.11358,-0.1308,0.45678,0.39019,0.26612,0.23461
1271,-0.0083442,-0.13762,-0.18471,0.42787,0.37558,0.28268,0.24825
1272,-0.01614,-0.17887,-0.25195,0.33855,0.2895,0.28301,0.21252
1273,-0.02426,-0.22629,-0.31886,0.19823,0.16056,0.28073,0.14399
1274,-0.028157,-0.26039,-0.36433,0.029983,0.038103,0.28593,0.065062
1275,-0.026533,-0.27469,-0.37765,-0.12852,-0.04992,0.30055,-0.0011985
1276,-0.019063,-0.26884,-0.35621,-0.2474,-0.11098,0.31646,-0.046347
1277,-0.0080194,-0.24805,-0.31659,-0.31204,-0.16782,0.32816,-0.076879
1278,0.0078962,-0.22142,-0.27599,-0.32146,-0.23181,0.3405,-0.095068
1279,0.023162,-0.19608,-0.24383,-0.28508,-0.29288,0.36389,-0.094418
1280,0.030957,-0.17757,-0.21882,-0.22434,-0.33088,0.38987,-0.06681
1281,0.026735,-0.16653,-0.19511,-0.15483,-0.31951,0.40708,-0.015165
1282,0.016341,-0.16295,-0.17172,-0.091495,-0.24253,0.40351,0.047198
1283,0.0065969,-0.15808,-0.15386,-0.053492,-0.10384,0.385,0.10761
1284,0.0078962,-0.14541,-0.15061,-0.059664,0.078704,0.36648,0.16185
1285,0.028034,-0.11845,-0.16977,-0.11618,0.27456,0.35122,0.20538
1286,0.058891,-0.082725,-0.20745,-0.2107,0.43599,0.33368,0.23006
1287,0.085525,-0.048296,-0.25292,-0.31918,0.52272,0.30639,0.22747
1288,0.09397,-0.028807,-0.2919,-0.40753,0.54448,0.26222,0.19531
1289,0.083251,-0.028157,-0.30944,-0.43936,0.54545,0.20051,0.15081
1290,0.062139,-0.039526,-0.29645,-0.38902,0.56397,0.11833,0.11963
1291,0.042001,-0.049595,-0.25422,-0.25682,0.60782,0.019589,0.11606
1292,0.031607,-0.043099,-0.18277,-0.073955,0.64387,-0.089546,0.13555
1293,0.031282,-0.013866,-0.094093,0.10859,0.62828,-0.18407,0.15926
1294,0.040052,0.033231,-0.0021729,0.25962,0.53701,-0.23506,0.16965
1295,0.054344,0.083901,0.079029,0.36551,0.3798,-0.22597,0.14789
1296,0.067011,0.12418,0.14302,0.42787,0.18946,-0.18277,0.084226
1297,0.071883,0.14854,0.18394,0.45093,-0.0018481,-0.15776,-0.026533
1298,0.06961,0.15601,0.20538,0.43404,-0.17789,-0.17465,-0.16523
1299,0.066037,0.14951,0.21447,0.36746,-0.32828,-0.19998,-0.28703
1300,0.065387,0.13814,0.21805,0.23786,-0.43969,-0.1727,-0.35167
1301,0.070259,0.12483,0.2135,0.055643,-0.51082,-0.061937,-0.34907
1302,0.074157,0.10112,0.19531,-0.14639,-0.5537,0.11606,-0.30067
1303,0.06961,0.058891,0.15698,-0.31756,-0.57903,0.32296,-0.23246
1304,0.051096,-0.0018481,0.099492,-0.40558,-0.59332,0.51882,-0.15158
1305,0.022188,-0.068434,0.03453,-0.38837,-0.60209,0.66953,-0.056091
1306,-0.0057458,-0.12495,-0.02426,-0.27631,-0.60209,0.74878,0.050446
1307,-0.025559,-0.16035,-0.067134,-0.10676,-0.5917,0.74391,0.15114
1308,-0.038227,-0.17075,-0.089221,0.065387,-0.57091,0.64647,0.21707
1309,-0.042124,-0.15776,-0.09182,0.19628,-0.53323,0.45581,0.23494
1310,-0.035953,-0.1295,-0.081426,0.26417,-0.46957,0.19661,0.21545
1311,-0.021337,-0.096692,-0.059664,0.26417,-0.37765,-0.090196,0.18687
1312,-0.0018481,-0.068109,-0.033679,0.2083,-0.27176,-0.35849,0.17257
1313,0.018615,-0.050894,-0.0096434,0.11898,-0.17172,-0.58065,0.18264
1314,0.029983,-0.045697,0.0046481,0.0043233,-0.093769,-0.74338,0.21123
1315,0.032582,-0.051219,-0.00087364,-0.13534,-0.043748,-0.8444,0.25085
1316,0.030957,-0.059339,-0.025559,-0.28833,-0.012242,-0.8876,0.29405
1317,0.031932,-0.061937,-0.058689,-0.42312,0.012443,-0.88305,0.32783
1318,0.03583,-0.054792,-0.085324,-0.50497,0.033556,-0.8457,0.33693
1319,0.037778,-0.042124,-0.097666,-0.52479,0.026085,-0.78593,0.30315
1320,0.030308,-0.027833,-0.098316,-0.50303,-0.059014,-0.72,0.21805
1321,0.010819,-0.012567,-0.090845,-0.47055,-0.2565,-0.65991,0.095919
1322,-0.016789,0.0036737,-0.076229,-0.44489,-0.55402,-0.60859,-0.035953
1323,-0.042449,0.024461,-0.045372,-0.4228,-0.87753,-0.55272,-0.15093
1324,-0.058365,0.057592,0.0078962,-0.39974,-1.128,-0.47964,-0.23019
1325,-0.059339,0.10924,0.0852,-0.37603,-1.2303,-0.38869,-0.27209
1326,-0.043423,0.18134,0.1781,-0.35329,-1.1617,-0.29288,-0.28313
1327,-0.015815,0.26514,0.27132,-0.33835,-0.95808,-0.19706,-0.27534
1328,0.012768,0.3405,0.34472,-0.34322,-0.68914,-0.11456,-0.26949
1329,0.028034,0.39084,0.38435,-0.38285,-0.4176,-0.059339,-0.2919
1330,0.020888,0.40806,0.38987,-0.46113,-0.17692,-0.038551,-0.34679
1331,-0.0037969,0.39182,0.36648,-0.55727,0.022837,-0.037902,-0.4137
1332,-0.031081,0.34764,0.32458,-0.63685,0.18134,-0.024909,-0.45236
1333,-0.050569,0.2934,0.28073,-0.66933,0.32946,0.022188,-0.43709
1334,-0.053492,0.24371,0.24403,-0.6323,0.5081,0.088773,-0.36985
1335,-0.041799,0.2057,0.22065,-0.50595,0.72799,0.14074,-0.27923
1336,-0.022636,0.17907,0.21058,-0.27956,0.95991,0.15958,-0.20258
1337,0.00042559,0.1638,0.20993,0.034855,1.1525,0.15438,-0.15256
1338,0.026735,0.16023,0.21252,0.39149,1.262,0.14951,-0.11488
1339,0.054344,0.169,0.2083,0.72442,1.2746,0.15926,-0.06681
1340,0.083251,0.18134,0.19401,0.97225,1.2077,0.18037,0.0043233
1341,0.10956,0.18979,0.16575,1.0996,1.098,0.19628,0.0865
1342,0.12678,0.18524,0.12418,1.1038,0.98329,0.18492,0.16413
1343,0.12905,0.16413,0.073507,1.0297,0.90924,0.13165,0.2161
1344,0.11573,0.13392,0.027385,0.95471,0.91541,0.048497,0.23494
1345,0.092346,0.099817,-0.0037969,0.93132,1.0044,-0.034329,0.23169
1346,0.065387,0.069934,-0.015815,0.96316,1.1301,-0.085648,0.22292
1347,0.048172,0.048822,-0.011267,1.0122,1.2087,-0.083375,0.21837
1348,0.0433,0.03583,0.0043233,1.0278,1.1629,-0.010943,0.22747
1349,0.05142,0.029333,0.02706,0.9794,0.96965,0.12905,0.258
1350,0.071234,0.02641,0.050771,0.87513,0.66791,0.3051,0.30639
1351,0.092346,0.022837,0.066037,0.74488,0.33465,0.46652,0.35512
1352,0.10274,0.019264,0.066686,0.62081,0.055968,0.56592,0.38532
1353,0.098193,0.012443,0.051096,0.51752,-0.10611,0.57501,0.38532
1354,0.082602,0.0049729,0.028034,0.43469,-0.13502,0.49121,0.35576
1355,0.062789,-0.0034721,0.0043233,0.34862,-0.066485,0.3444,0.30932
1356,0.039402,-0.013541,-0.018738,0.24273,0.020239,0.18654,0.25735
1357,0.015367,-0.02361,-0.0405,0.11638,0.043625,0.056617,0.20181
1358,-0.0089938,-0.034329,-0.063886,-0.020687,-0.046022,-0.027833,0.14334
1359,-0.034329,-0.044723,-0.094093,-0.1701,-0.25098,-0.069733,0.082277
1360,-0.062262,-0.059664,-0.1321,-0.33218,-0.53551,-0.075904,0.019914
1361,-0.086623,-0.080776,-0.16977,-0.49231,-0.84115,-0.056416,-0.038227
1362,-0.10319,-0.10319,-0.19511,-0.6284,-1.1104,-0.027183,-0.082076
1363,-0.11196,-0.12495,-0.2016,-0.71837,-1.2978,-0.0073698,-0.10514
1364,-0.11521,-0.14411,-0.19446,-0.7502,-1.369,-0.0099683,-0.10903
1365,-0.11683,-0.16198,-0.17984,-0.73396,-1.3121,-0.041799,-0.10579
1366,-0.11618,-0.17854,-0.15841,-0.69271,-1.1578,-0.10286,-0.10546
1367,-0.11521,-0.19121,-0.13112,-0.64757,-0.96977,-0.18601,-0.10741
1368,-0.1178,-0.19478,-0.09994,-0.61021,-0.81387,-0.27826,-0.10676
1369,-0.12463,-0.18829,-0.070382,-0.57741,-0.73104,-0.36693,-0.098965
1370,-0.1269,-0.16945,-0.0405,-0.53486,-0.7226,-0.44651,-0.080127
1371,-0.11553,-0.13567,-0.0093186,-0.47607,-0.75735,-0.51667,-0.043099
1372,-0.087597,-0.089871,0.023162,-0.40526,-0.79145,-0.55987,0.012768
1373,-0.04992,-0.037577,0.059541,-0.33478,-0.77781,-0.52284,0.086175
1374,-0.012242,0.014068,0.096893,-0.27599,-0.64042,-0.35556,0.1716
1375,0.021538,0.054668,0.1284,-0.22954,-0.30944,-0.068758,0.25735
1376,0.048497,0.079354,0.14724,-0.18894,0.20603,0.26222,0.32686
1377,0.065062,0.084226,0.14626,-0.15808,0.79198,0.54903,0.37265
1378,0.070909,0.070584,0.12548,-0.14931,1.2883,0.73189,0.39604
1379,0.069934,0.043625,0.088773,-0.16425,1.5705,0.77574,0.40124
1380,0.069285,0.016666,0.043625,-0.19381,1.5982,0.66985,0.39442
1381,0.070259,-0.0031473,-0.0015233,-0.22921,1.4133,0.43242,0.37493
1382,0.067986,-0.014191,-0.045047,-0.2539,1.1087,0.11151,0.34277
1383,0.059541,-0.021986,-0.077853,-0.25227,0.77152,-0.21817,0.29827
1384,0.050446,-0.032055,-0.093769,-0.21817,0.45808,-0.48841,0.24241
1385,0.045899,-0.038227,-0.09182,-0.15581,0.19434,-0.67225,0.1729
1386,0.048172,-0.03303,-0.075255,-0.071032,-0.013866,-0.76677,0.09462
1387,0.054668,-0.014516,-0.0405,0.024461,-0.16425,-0.77489,0.016016
1388,0.062789,0.017316,0.012443,0.12028,-0.2565,-0.70863,-0.054467
1389,0.067336,0.056617,0.082602,0.20278,-0.28703,-0.5904,-0.11845
1390,0.062464,0.094295,0.16185,0.27229,-0.25552,-0.45918,-0.17984
1391,0.05207,0.12158,0.23851,0.34797,-0.16945,-0.34809,-0.24156
1392,0.036479,0.1336,0.29568,0.44184,-0.051219,-0.27274,-0.2984
1393,0.017965,0.1284,0.32069,0.53051,0.067661,-0.22889,-0.3442
1394,-0.0011985,0.10599,0.30899,0.57371,0.14984,-0.2172,-0.37668
1395,-0.018738,0.07773,0.27099,0.53896,0.1729,-0.24448,-0.39064
1396,-0.03238,0.051745,0.23136,0.42755,0.14269,-0.30294,-0.38577
1397,-0.041799,0.037778,0.20733,0.26742,0.087474,-0.36433,-0.36173
1398,-0.04992,0.03583,0.19791,0.099167,0.03518,-0.38415,-0.32341
1399,-0.060313,0.036804,0.18849,-0.042774,-0.0028225,-0.32698,-0.28021
1400,-0.076229,0.029983,0.16738,-0.12917,-0.007045,-0.18471,-0.24578
1401,-0.094743,0.011794,0.13262,-0.13632,0.032582,0.014068,-0.23376
1402,-0.11683,-0.017114,0.089748,-0.037902,0.10274,0.21837,-0.2461
1403,-0.14281,-0.04992,0.044599,0.17387,0.16868,0.38792,-0.27631
1404,-0.16815,-0.073955,0.0023744,0.47919,0.19011,0.50225,-0.31724
1405,-0.18407,-0.085973,-0.029457,0.82056,0.14074,0.55844,-0.35849
1406,-0.18601,-0.084674,-0.040175,1.1288,0.029658,0.57014,-0.38382
1407,-0.16782,-0.067784,-0.026209,1.3438,-0.10124,0.56234,-0.3822
1408,-0.1282,-0.035953,0.0072465,1.4354,-0.18991,0.56202,-0.34549
1409,-0.067459,0.009845,0.051096,1.3971,-0.19511,0.58573,-0.27728
1410,0.0026992,0.063763,0.090397,1.2448,-0.12365,0.62795,-0.18666
1411,0.071558,0.11476,0.10664,1.0125,-0.022311,0.6705,-0.090521
1412,0.13327,0.15666,0.087149,0.74229,0.059541,0.69811,-0.012242
1413,0.17647,0.18589,0.029658,0.47367,0.092346,0.70623,0.039078
1414,0.19401,0.19856,-0.056416,0.23234,0.047523,0.70363,0.071234
1415,0.18557,0.19271,-0.15321,0.036804,-0.10416,0.70526,0.099817
1416,0.16348,0.17192,-0.23409,-0.10806,-0.37245,0.71565,0.13879
1417,0.14334,0.14432,-0.27858,-0.20193,-0.72747,0.72215,0.18816
1418,0.13717,0.11476,-0.28216,-0.25422,-1.101,0.70363,0.23624
1419,0.13977,0.085525,-0.25617,-0.27306,-1.4027,0.64289,0.25767
1420,0.13847,0.063763,-0.22044,-0.27891,-1.5473,0.53441,0.23721
1421,0.12807,0.051096,-0.19154,-0.29742,-1.4937,0.40514,0.18459
1422,0.11281,0.050446,-0.17432,-0.33705,-1.2481,0.29795,0.12775
1423,0.10209,0.056942,-0.16912,-0.39064,-0.87818,0.25085,0.10047
1424,0.099817,0.060515,-0.17497,-0.44066,-0.48256,0.26709,0.11216
1425,0.10339,0.051745,-0.18699,-0.47444,-0.15548,0.30867,0.14756
1426,0.10599,0.031282,-0.20128,-0.47996,0.047523,0.32751,0.17225
1427,0.10566,0.0078962,-0.21427,-0.4556,0.12353,0.2986,0.15796
1428,0.097543,-0.015815,-0.22077,-0.40591,0.10664,0.22487,0.098193
1429,0.078055,-0.036927,-0.22109,-0.34192,0.049472,0.1349,0.0069217
1430,0.048497,-0.059014,-0.22109,-0.29353,0.00042559,0.054019,-0.088896
1431,0.010495,-0.086623,-0.22532,-0.30457,-0.019712,-0.0060706,-0.16588
1432,-0.03173,-0.12008,-0.23084,-0.39292,-0.023285,-0.059014,-0.21265
1433,-0.068434,-0.15386,-0.23636,-0.54005,-0.034978,-0.14671,-0.23214
1434,-0.093769,-0.18082,-0.24545,-0.70018,-0.073306,-0.30749,-0.23636
1435,-0.10319,-0.20193,-0.25845,-0.81387,-0.13307,-0.53518,-0.22824
1436,-0.095393,-0.21785,-0.26819,-0.83693,-0.2029,-0.78366,-0.20063
1437,-0.073631,-0.22239,-0.26592,-0.75118,-0.28411,-1.0006,-0.15223
1438,-0.044723,-0.21102,-0.24383,-0.57221,-0.38934,-1.1536,-0.097017
1439,-0.013216,-0.18634,-0.20388,-0.34614,-0.53031,-1.2377,-0.050569
1440,0.016991,-0.15841,-0.15483,-0.13437,-0.70441,-1.2718,-0.017764
1441,0.042001,-0.13275,-0.11196,0.020564,-0.87493,-1.2809,0.013418
1442,0.058891,-0.11001,-0.079802,0.10209,-0.98731,-1.2744,0.05207
1443,0.067661,-0.09182,-0.055766,0.12288,-0.98829,-1.2361,0.098842
1444,0.068635,-0.079802,-0.034004,0.10761,-0.85739,-1.1396,0.15049
1445,0.067011,-0.069408,-0.007045,0.084226,-0.62223,-0.98342,0.20311
1446,0.067011,-0.055766,0.027385,0.067011,-0.33867,-0.79048,0.25183
1447,0.067986,-0.035303,0.069285,0.065062,-0.068109,-0.59332,0.2895
1448,0.070259,-0.0093186,0.11118,0.078704,0.14139,-0.40916,0.31322
1449,0.074157,0.01764,0.14367,0.10209,0.26839,-0.24415,0.32231
1450,0.078704,0.036804,0.16088,0.12093,0.31322,-0.093119,0.31419
1451,0.078055,0.038753,0.16445,0.1206,0.29762,0.051096,0.28301
1452,0.064088,0.021863,0.15666,0.099817,0.25085,0.19628,0.22779
1453,0.036804,-0.0089938,0.14074,0.069934,0.19921,0.34862,0.16121
1454,0.0059473,-0.042124,0.12418,0.053369,0.169,0.50485,0.097543
1455,-0.019388,-0.065186,0.11541,0.061165,0.18199,0.65556,0.040702
1456,-0.035953,-0.068109,0.11151,0.092346,0.2567,0.78646,-0.011267
1457,-0.044398,-0.04862,0.10729,0.12905,0.39247,0.87546,-0.064536
1458,-0.047971,-0.01484,0.10664,0.13587,0.56169,0.90436,-0.12365
1459,-0.04927,0.022188,0.11768,0.064088,0.7189,0.85369,-0.19543
1460,-0.049595,0.055318,0.14074,-0.1204,0.81829,0.71435,-0.27631
1461,-0.046996,0.080003,0.17095,-0.40104,0.83128,0.50323,-0.35199
1462,-0.040175,0.097868,0.20278,-0.69759,0.76112,0.2567,-0.39909
1463,-0.028807,0.11313,0.22617,-0.90546,0.6377,0.021538,-0.40916
1464,-0.017114,0.13067,0.24013,-0.95483,0.5068,-0.15613,-0.3835
1465,-0.0034721,0.15276,0.24241,-0.8392,0.41228,-0.24123,-0.33088
1466,0.011144,0.1768,0.23656,-0.59657,0.38045,-0.22044,-0.26007
1467,0.030308,0.19823,0.22941,-0.28638,0.41358,-0.10741,-0.17302
1468,0.048822,0.21123,0.22162,0.030633,0.48926,0.064088,-0.072656
1469,0.061814,0.20895,0.20765,0.28463,0.56332,0.24468,0.03453
1470,0.067661,0.18946,0.17874,0.4152,0.59417,0.39539,0.1362
1471,0.067986,0.15373,0.13749,0.40806,0.57501,0.49543,0.22129
1472,0.06896,0.11346,0.096893,0.30087,0.53279,0.55227,0.29048
1473,0.070259,0.080003,0.072208,0.1703,0.5068,0.5841,0.34992
1474,0.073507,0.063113,0.066037,0.078379,0.52402,0.60717,0.39767
1475,0.074157,0.057267,0.06896,0.049796,0.58638,0.62341,0.42982
1476,0.071883,0.055643,0.072858,0.073507,0.6822,0.62698,0.44086
1477,0.064737,0.057592,0.067011,0.12743,0.78873,0.61171,0.43047
1478,0.056617,0.062789,0.054019,0.20116,0.87871,0.57176,0.40254
1479,0.052395,0.06831,0.040702,0.29243,0.92353,0.51232,0.36551
1480,0.055968,0.074157,0.034206,0.39669,0.90729,0.44769,0.32783
1481,0.06019,0.082927,0.041351,0.5068,0.83908,0.39507,0.29665
1482,0.06084,0.090397,0.060515,0.60684,0.73579,0.36064,0.27261
1483,0.06084,0.095919,0.081303,0.6757,0.60879,0.3392,0.25507
1484,0.062139,0.096244,0.091372,0.69227,0.46717,0.31841,0.23948
1485,0.06019,0.089748,0.08585,0.64777,0.31939,0.28918,0.22812
1486,0.053694,0.078704,0.065387,0.5513,0.17257,0.2502,0.22584
1487,0.044599,0.070584,0.040702,0.43047,0.040052,0.20635,0.23364
1488,0.042326,0.074806,0.020564,0.31939,-0.067459,0.1638,0.24858
1489,0.053044,0.092671,0.014717,0.24371,-0.14996,0.12548,0.26742
1490,0.076755,0.11963,0.025436,0.20863,-0.21265,0.095919,0.28171
1491,0.10534,0.14886,0.045249,0.20635,-0.26624,0.072533,0.28983
1492,0.13165,0.16933,0.058566,0.2109,-0.31334,0.04395,0.28398
1493,0.14724,0.17517,0.056617,0.19109,-0.35037,0.00075039,0.26157
1494,0.14789,0.169,0.038103,0.12255,-0.37343,-0.065835,0.22454
1495,0.1336,0.15861,0.0046481,0.0059473,-0.39162,-0.15321,0.18004
1496,0.10664,0.14496,-0.037577,-0.13372,-0.415,-0.24805,0.13717
1497,0.075131,0.13035,-0.072981,-0.25455,-0.43774,-0.3351,0.10339
1498,0.048172,0.1206,-0.088247,-0.31399,-0.43741,-0.40006,0.084226
1499,0.033556,0.12548,-0.075904,-0.28313,-0.39097,-0.43709,0.078379
1500,0.032582,0.14464,-0.036278,-0.16295,-0.28898,-0.44131,0.083576
1501,0.040702,0.16478,0.022837,0.016341,-0.13372,-0.4124,0.096244
1502,0.049796,0.17355,0.089423,0.19986,0.05272,-0.35686,0.10826
1503,0.05142,0.1651,0.14984,0.33108,0.23201,-0.29125,0.11183
1504,0.042651,0.14432,0.19141,0.37623,0.38013,-0.23181,0.10242
1505,0.024461,0.11411,0.20895,0.32783,0.48666,-0.18471,0.07708
1506,-0.00054884,0.079354,0.20083,0.20928,0.55552,-0.14411,0.036479
1507,-0.027508,0.040702,0.17095,0.065062,0.60359,-0.10091,-0.011592
1508,-0.056416,-0.0021729,0.1232,-0.059989,0.65037,-0.054792,-0.057065
1509,-0.087597,-0.043748,0.061489,-0.14281,0.69844,-0.022961,-0.09994
1510,-0.12073,-0.078503,-0.0096434,-0.18212,0.7241,-0.017764,-0.14184
1511,-0.14996,-0.10449,-0.076554,-0.18277,0.70006,-0.036927,-0.18309
1512,-0.16685,-0.12235,-0.12495,-0.15581,0.61561,-0.064536,-0.21914
1513,-0.17205,-0.13469,-0.15093,-0.11098,0.48309,-0.095393,-0.24286
1514,-0.16685,-0.14444,-0.15581,-0.053168,0.32361,-0.13307,-0.25162
1515,-0.15711,-0.15288,-0.15288,0.013093,0.15536,-0.18179,-0.25292
1516,-0.15191,-0.1623,-0.14736,0.078055,-0.0024977,-0.2448,-0.25682
1517,-0.15678,-0.17172,-0.14379,0.12678,-0.14119,-0.31626,-0.26722
1518,-0.17075,-0.17594,-0.13762,0.15406,-0.26072,-0.37018,-0.27988
1519,-0.18147,-0.17075,-0.1217,0.16673,-0.35946,-0.37798,-0.28735
1520,-0.1753,-0.15905,-0.091495,0.17127,-0.43482,-0.32795,-0.28248
1521,-0.15321,-0.14379,-0.047321,0.1703,-0.48354,-0.22889,-0.26559
1522,-0.12008,-0.1256,0.0069217,0.16218,-0.5079,-0.10579,-0.23701
1523,-0.08305,-0.10611,0.06019,0.14367,-0.51569,0.0065969,-0.19316
1524,-0.043748,-0.085324,0.10274,0.11963,-0.50985,0.074806,-0.13437
1525,-0.0028225,-0.06616,0.13392,0.094945,-0.49133,0.081952,-0.069733
1526,0.037454,-0.046996,0.15633,0.071883,-0.46113,0.024786,-0.017764
1527,0.074157,-0.028807,0.17615,0.046548,-0.41858,-0.0824,0.0059473
1528,0.10566,-0.0076946,0.20376,0.015042,-0.36368,-0.20583,0.0062721
1529,0.12743,0.025111,0.24176,-0.020362,-0.30002,-0.31009,-0.0050961
1530,0.13944,0.075131,0.28723,-0.053168,-0.23668,-0.36856,-0.018088
1531,0.14724,0.13912,0.32848,-0.075579,-0.18244,-0.38674,-0.024909
1532,0.15406,0.20408,0.35122,-0.085648,-0.14476,-0.39032,-0.026209
1533,0.16121,0.25605,0.34764,-0.091495,-0.13015,-0.39584,-0.023935
1534,0.16413,0.28236,0.31646,-0.10254,-0.13859,-0.41111,-0.018088
1535,0.16153,0.28463,0.26514,-0.1178,-0.16035,-0.42735,-0.0073698
1536,0.15341,0.27132,0.20051,-0.12657,-0.17042,-0.44261,0.0049729
1537,0.13977,0.24923,0.13262,-0.10838,-0.15223,-0.46178,0.010819
1538,0.1219,0.22552,0.068635,-0.036927,-0.11163,-0.49003,0.0062721
1539,0.10339,0.20213,0.0091954,0.099167,-0.080451,-0.51862,-0.012242
1540,0.091047,0.17842,-0.045047,0.27294,-0.10514,-0.52609,-0.037577
1541,0.083576,0.15179,-0.097341,0.43047,-0.20323,-0.49036,-0.055441
1542,0.079354,0.12353,-0.14509,0.52207,-0.3377,-0.40363,-0.055766
1543,0.075456,0.09397,-0.18634,0.53019,-0.42475,-0.27956,-0.037577
1544,0.074157,0.066037,-0.21525,0.46847,-0.38999,-0.14996,-0.011917
1545,0.07708,0.044599,-0.22791,0.3733,-0.22726,-0.044723,0.0062721
1546,0.082277,0.032906,-0.22726,0.27846,-0.0018481,0.013418,0.00010078
1547,0.082277,0.028034,-0.21882,0.20051,0.18816,0.027709,-0.035303
1548,0.073507,0.023812,-0.21362,0.14237,0.27326,0.021863,-0.089871
1549,0.045249,0.012443,-0.2146,0.09462,0.23818,0.020888,-0.14476
1550,0.0043233,-0.010293,-0.21362,0.054668,0.12158,0.039402,-0.18147
1551,-0.039201,-0.040175,-0.20908,0.025436,-0.022311,0.072208,-0.19121
1552,-0.073955,-0.072006,-0.20031,0.0059473,-0.15029,0.10859,-0.17887
1553,-0.093119,-0.10156,-0.18666,-0.0047713,-0.24091,0.13652,-0.15743
1554,-0.097017,-0.12365,-0.17205,-0.010943,-0.28735,0.15309,-0.13307
1555,-0.085324,-0.13664,-0.15483,-0.011917,-0.2906,0.16185,-0.10644
1556,-0.063886,-0.14022,-0.13015,-0.007045,-0.26234,0.17192,-0.079477
1557,-0.04115,-0.13404,-0.095068,0.0052977,-0.21979,0.18946,-0.054792
1558,-0.022961,-0.11943,-0.050569,0.025111,-0.17952,0.2135,-0.029457
1559,-0.010943,-0.098316,-0.0044465,0.0433,-0.1636,0.23721,-0.0050961
1560,-0.0057458,-0.078178,0.029009,0.035505,-0.19966,0.25605,0.016341
1561,-0.011592,-0.067784,0.041027,-0.018413,-0.30132,0.26547,0.033881
1562,-0.024909,-0.071357,0.031282,-0.11423,-0.44846,0.26222,0.050121
1563,-0.039201,-0.086948,0.0065969,-0.23019,-0.58845,0.24988,0.064737
1564,-0.048296,-0.10676,-0.019063,-0.32795,-0.66835,0.23331,0.073832
1565,-0.04992,-0.12235,-0.03303,-0.37473,-0.65763,0.22812,0.074482
1566,-0.042774,-0.1269,-0.034004,-0.36531,-0.55857,0.24988,0.070909
1567,-0.032705,-0.123,-0.026858,-0.32536,-0.40493,0.30932,0.076106
1568,-0.023935,-0.11651,-0.021337,-0.28346,-0.24838,0.40254,0.095269
1569,-0.023285,-0.11066,-0.026858,-0.25292,-0.13177,0.50875,0.11995
1570,-0.030106,-0.10611,-0.046671,-0.22759,-0.080451,0.5997,0.14334
1571,-0.038876,-0.10351,-0.073955,-0.20745,-0.082076,0.65264,0.15926
1572,-0.047646,-0.10221,-0.097341,-0.19316,-0.11293,0.66531,0.1651
1573,-0.054142,-0.10124,-0.11098,-0.17562,-0.15256,0.64354,0.16121
1574,-0.054467,-0.096692,-0.11293,-0.13567,-0.18991,0.5971,0.15049
1575,-0.047646,-0.088247,-0.098316,-0.063561,-0.21752,0.53993,0.13749
1576,-0.035628,-0.073955,-0.068758,0.03453,-0.22304,0.47952,0.12418
1577,-0.019712,-0.053492,-0.034004,0.13165,-0.19024,0.4165,0.11118
1578,-0.0015233,-0.029457,-0.0037969,0.19011,-0.11033,0.3431,0.092021
1579,0.015692,-0.0099683,0.01764,0.19239,0.014392,0.25378,0.062139
1580,0.02706,-0.0060706,0.023162,0.14074,0.15309,0.14984,0.031282
1581,0.025111,-0.019712,0.011469,0.043625,0.24208,0.025436,0.0095202
1582,0.015692,-0.045372,-0.015165,-0.087922,0.22324,-0.1256,0.0023744
1583,0.0033489,-0.068434,-0.041475,-0.23863,0.10306,-0.29482,0.0088706
1584,-0.0057458,-0.078178,-0.055116,-0.37408,-0.0405,-0.46925,0.023487
1585,-0.0063954,-0.071682,-0.052193,-0.47834,-0.12235,-0.6349,0.038428
1586,-0.0015233,-0.052193,-0.030756,-0.55305,-0.10514,-0.76417,0.050121
1587,0.0049729,-0.02361,0.0014,-0.60599,0.026085,-0.81354,0.055318
1588,0.0088706,0.0088706,0.034855,-0.63587,0.26677,-0.74403,0.055318
1589,0.014068,0.039402,0.063438,-0.62743,0.56689,-0.54785,0.055968
1590,0.020239,0.064737,0.084551,-0.56084,0.82706,-0.25195,0.064413
1591,0.028034,0.083251,0.10014,-0.41858,0.96056,0.091047,0.081627
1592,0.03518,0.092346,0.10989,-0.20648,0.93555,0.41391,0.10404
1593,0.037129,0.090722,0.11411,0.041351,0.78451,0.66498,0.1258
1594,0.034206,0.07708,0.11086,0.27716,0.57923,0.81504,0.13457
1595,0.02641,0.053694,0.097543,0.4584,0.39734,0.86117,0.1245
1596,0.017965,0.028034,0.06896,0.55844,0.28333,0.81991,0.097543
1597,0.0095202,0.0046481,0.026735,0.57891,0.2476,0.72345,0.056942
1598,0.0049729,-0.010293,-0.015165,0.55357,0.27489,0.60554,0.011794
1599,0.011469,-0.01484,-0.041799,0.51622,0.3431,0.49381,-0.030431
1600,0.025111,-0.011592,-0.050894,0.48341,0.42008,0.41391,-0.057715
1601,0.040052,-0.008669,-0.054792,0.45548,0.46393,0.3785,-0.063237
1602,0.049472,-0.0067202,-0.063886,0.4243,0.45158,0.38532,-0.051219
1603,0.046873,-0.0057458,-0.084024,0.39117,0.40903,0.40643,-0.033679
1604,0.03583,0.0049729,-0.10871,0.36096,0.39052,0.40546,-0.018738
1605,0.025761,0.029658,-0.12268,0.33693,0.42365,0.33985,-0.015815
1606,0.022188,0.064088,-0.1178,0.31516,0.48731,0.19856,-0.02426
1607,0.028684,0.10274,-0.088247,0.2921,0.53798,0.011794,-0.040825
1608,0.045249,0.14139,-0.03238,0.26514,0.53993,-0.16685,-0.057065
1609,0.070259,0.18264,0.046873,0.23234,0.47919,-0.28476,-0.065186
1610,0.099492,0.22682,0.14107,0.19531,0.37103,-0.3299,-0.064861
1611,0.13067,0.27586,0.23818,0.15373,0.24436,-0.33218,-0.070058
1612,0.15926,0.32653,0.32946,0.10794,0.1232,-0.33965,-0.092469
1613,0.17777,0.3759,0.40968,0.062464,0.027385,-0.37603,-0.12885
1614,0.18297,0.41845,0.47822,0.026085,-0.021661,-0.42929,-0.1623
1615,0.17225,0.44509,0.53506,0.011794,-0.007045,-0.46567,-0.17692
1616,0.14854,0.45256,0.58151,0.029658,0.062464,-0.45495,-0.1649
1617,0.12093,0.44346,0.61236,0.072533,0.14237,-0.39324,-0.12787
1618,0.096244,0.42462,0.61886,0.11248,0.1664,-0.30229,-0.078178
1619,0.078704,0.39994,0.59158,0.12093,0.081952,-0.20908,-0.029782
1620,0.072858,0.37493,0.53181,0.079029,-0.11488,-0.13242,0.0085458
1621,0.076431,0.35641,0.45548,-0.011917,-0.37343,-0.077203,0.036479
1622,0.0865,0.34797,0.38013,-0.13599,-0.61541,-0.041799,0.062139
1623,0.097543,0.34894,0.31971,-0.27436,-0.75995,-0.023285,0.093645
1624,0.10436,0.35252,0.27781,-0.4189,-0.76774,-0.029782,0.13652
1625,0.10436,0.35122,0.2528,-0.56019,-0.65439,-0.071032,0.18264
1626,0.10274,0.3392,0.24306,-0.67355,-0.47217,-0.14346,0.2174
1627,0.099817,0.31581,0.24176,-0.71577,-0.27469,-0.23376,0.23364
1628,0.098193,0.28236,0.24468,-0.64529,-0.084024,-0.32731,0.22682
1629,0.094295,0.24046,0.25378,-0.43579,0.10696,-0.4189,0.19563
1630,0.086824,0.19661,0.26417,-0.09994,0.29925,-0.50205,0.14237
1631,0.074157,0.15309,0.258,0.28691,0.46717,-0.56701,0.07773
1632,0.054344,0.10989,0.22129,0.60587,0.5841,-0.60859,0.016991
1633,0.031932,0.064413,0.14984,0.77022,0.64095,-0.63262,-0.025884
1634,0.01017,0.016666,0.049147,0.75138,0.61853,-0.66673,-0.044723
1635,-0.0093186,-0.029782,-0.069733,0.56592,0.47367,-0.72974,-0.044398
1636,-0.02361,-0.071682,-0.19283,0.27651,0.19076,-0.81874,-0.042449
1637,-0.038227,-0.10936,-0.30522,-0.024909,-0.19186,-0.91358,-0.070382
1638,-0.056416,-0.14704,-0.39811,-0.2578,-0.58163,-1.0068,-0.161
1639,-0.080451,-0.18634,-0.4647,-0.3796,-0.86421,-1.1,-0.32276
1640,-0.10319,-0.21947,-0.49588,-0.38674,-0.94964,-1.1828,-0.51634
1641,-0.11878,-0.23896,-0.49068,-0.30619,-0.80834,-1.217,-0.66835
1642,-0.11943,-0.24253,-0.4569,-0.18277,-0.5079,-1.1465,-0.70538
1643,-0.10676,-0.23441,-0.41143,-0.056091,-0.18017,-0.93924,-0.60404
1644,-0.086298,-0.22044,-0.37115,0.044924,0.030308,-0.62061,-0.39681
1645,-0.065186,-0.21037,-0.34549,0.11248,0.029333,-0.26202,-0.15256
1646,-0.051544,-0.21167,-0.33705,0.15276,-0.19511,0.067986,0.063438
1647,-0.044723,-0.22726,-0.33997,0.17647,-0.55662,0.34245,0.21317
1648,-0.046022,-0.25033,-0.34549,0.19304,-0.90416,0.58281,0.2921
1649,-0.053817,-0.27404,-0.34842,0.207,-1.1052,0.81407,0.30899
1650,-0.066485,-0.29125,-0.34679,0.21025,-1.0951,1.0411,0.28301
1651,-0.07428,-0.2997,-0.33965,0.19758,-0.90611,1.2415,0.23266
1652,-0.077203,-0.30002,-0.32828,0.16738,-0.65114,1.3913,0.17972
1653,-0.07428,-0.29775,-0.31399,0.12288,-0.46437,1.4802,0.14399
1654,-0.071032,-0.29677,-0.2958,0.081303,-0.4163,1.5189,0.1323
1655,-0.068758,-0.29905,-0.27631,0.058566,-0.49556,1.5202,0.14172
1656,-0.066485,-0.301,-0.2552,0.064413,-0.63457,1.4991,0.16478
1657,-0.05739,-0.29612,-0.23474,0.092996,-0.76612,1.4608,0.18979
1658,-0.037902,-0.28216,-0.2159,0.12775,-0.85479,1.3987,0.20798
1659,-0.0099683,-0.26202,-0.19738,0.15633,-0.89507,1.3097,0.21772
1660,0.019914,-0.23961,-0.17984,0.17192,-0.88273,1.1931,0.22519
1661,0.044599,-0.22272,-0.16425,0.16738,-0.81582,1.0505,0.23526
1662,0.059541,-0.21655,-0.15613,0.14009,-0.707,0.8826,0.24338
1663,0.063763,-0.22304,-0.15873,0.094945,-0.57481,0.69064,0.24208
1664,0.054993,-0.24513,-0.174,0.038753,-0.4202,0.4701,0.22292
1665,0.033881,-0.27891,-0.19868,-0.023935,-0.23279,0.22357,0.18199
1666,0.0023744,-0.31529,-0.22791,-0.096367,-0.012567,-0.024909,0.12515
1667,-0.03238,-0.34582,-0.2565,-0.18666,0.2044,-0.24253,0.067011
1668,-0.06681,-0.36758,-0.28248,-0.27988,0.36713,-0.39876,0.024461
1669,-0.092794,-0.3796,-0.30035,-0.35816,0.43957,-0.48224,0.009845
1670,-0.10709,-0.3783,-0.30392,-0.41013,0.42787,-0.49848,0.022188
1671,-0.10741,-0.35849,-0.2893,-0.428,0.3772,-0.46405,0.051745
1672,-0.097017,-0.32048,-0.2565,-0.4202,0.3431,-0.39584,0.087149
1673,-0.079802,-0.27209,-0.21427,-0.40104,0.35901,-0.31074,0.1258
1674,-0.059339,-0.21687,-0.1675,-0.38415,0.44119,-0.21979,0.16673
1675,-0.039526,-0.16133,-0.11618,-0.38122,0.5971,-0.13047,0.207
1676,-0.024909,-0.10968,-0.059014,-0.38187,0.82544,-0.055441,0.24078
1677,-0.016789,-0.062262,0.0043233,-0.37375,1.1061,-0.0076946,0.26417
1678,-0.012892,-0.01484,0.071558,-0.35134,1.3887,0.0065969,0.27781
1679,-0.0073698,0.039402,0.14724,-0.31334,1.5982,0.00010078,0.28983
1680,0.0072465,0.10534,0.23396,-0.26234,1.6638,-0.0024977,0.30802
1681,0.033231,0.18427,0.32751,-0.20778,1.5537,0.021213,0.32523
1682,0.062464,0.26547,0.41163,-0.16847,1.2932,0.080003,0.32946
1683,0.0852,0.33433,0.46847,-0.15873,0.95763,0.16315,0.30607
1684,0.089423,0.37558,0.48861,-0.17432,0.64354,0.25572,0.24955
1685,0.078055,0.38727,0.47724,-0.19154,0.42787,0.3418,0.16933
1686,0.06084,0.37915,0.45418,-0.18212,0.3392,0.41293,0.090722
1687,0.050771,0.37525,0.43794,-0.12852,0.35024,0.45483,0.029983
1688,0.050771,0.39182,0.43664,-0.038227,0.40221,0.45418,-0.0034721
1689,0.064737,0.43339,0.44574,0.065712,0.4217,0.40286,-0.012567
1690,0.087799,0.49056,0.45256,0.16575,0.36583,0.3038,-0.0031473
1691,0.11183,0.54708,0.44606,0.25378,0.24663,0.17842,0.016341
1692,0.13262,0.58281,0.4178,0.32978,0.12028,0.058566,0.036479
1693,0.14626,0.59028,0.36908,0.40091,0.044924,-0.033679,0.050121
1694,0.15016,0.57014,0.30737,0.46328,0.038753,-0.088572,0.045574
1695,0.14626,0.53181,0.24566,0.50875,0.080978,-0.10903,0.023162
1696,0.13944,0.48666,0.19434,0.54318,0.13035,-0.10709,-0.0076946
1697,0.1323,0.44086,0.16023,0.58443,0.14886,-0.10903,-0.032705
1698,0.12937,0.39604,0.14269,0.63185,0.11216,-0.14704,-0.039851
1699,0.13392,0.34829,0.13035,0.66206,0.017316,-0.23993,-0.027833
1700,0.14464,0.30185,0.11313,0.65329,-0.11326,-0.38447,-0.00054884
1701,0.15309,0.2593,0.0865,0.58995,-0.24903,-0.55564,0.03453
1702,0.15893,0.21707,0.050121,0.4714,-0.36563,-0.7174,0.067336
1703,0.15828,0.1729,0.012443,0.31874,-0.45495,-0.83173,0.091047
1704,0.14886,0.12483,-0.021012,0.1638,-0.51082,-0.86973,0.10436
1705,0.13425,0.076755,-0.042124,0.032906,-0.52641,-0.83303,0.10761
1706,0.11638,0.03518,-0.043423,-0.051544,-0.49848,-0.74631,0.099167
1707,0.099167,0.0052977,-0.028157,-0.075255,-0.42929,-0.64009,0.075781
1708,0.083251,-0.010293,-0.0057458,-0.04115,-0.32731,-0.53973,0.031932
1709,0.062464,-0.017114,0.013743,0.033231,-0.20096,-0.45398,-0.030756
1710,0.030633,-0.029782,0.021863,0.12548,-0.059989,-0.3783,-0.10709
1711,-0.010293,-0.055441,0.013093,0.20798,0.084226,-0.30912,-0.18569
1712,-0.052518,-0.093119,-0.0093186,0.26027,0.2161,-0.24773,-0.25098
1713,-0.090196,-0.13307,-0.040175,0.25735,0.31776,-0.19316,-0.29158
1714,-0.11618,-0.16263,-0.066485,0.17842,0.37201,-0.15223,-0.31366
1715,-0.12787,-0.17172,-0.07493,0.024137,0.36453,-0.12787,-0.3403
1716,-0.12852,-0.16133,-0.060963,-0.1597,0.29633,-0.11975,-0.38967
1717,-0.12203,-0.13632,-0.028157,-0.30229,0.18881,-0.1256,-0.4608
1718,-0.11261,-0.10774,0.0095202,-0.35232,0.072533,-0.13859,-0.53128
1719,-0.10059,-0.084999,0.040377,-0.30522,-0.024909,-0.14801,-0.57221
1720,-0.084349,-0.069408,0.059865,-0.19251,-0.089221,-0.14834,-0.56864
1721,-0.06551,-0.060638,0.064413,-0.058365,-0.12268,-0.14444,-0.51992
1722,-0.046022,-0.054467,0.054019,0.059865,-0.13534,-0.14639,-0.43936
1723,-0.03238,-0.053492,0.036154,0.14107,-0.13957,-0.16165,-0.35004
1724,-0.027833,-0.060313,0.020239,0.17842,-0.14899,-0.18244,-0.26916
1725,-0.030106,-0.073955,0.012768,0.17777,-0.17107,-0.20225,-0.19966
1726,-0.029782,-0.086948,0.015692,0.16218,-0.20063,-0.21005,-0.13502
1727,-0.019388,-0.089546,0.020888,0.15991,-0.2159,-0.19738,-0.067459
1728,0.0014,-0.078503,0.024137,0.17874,-0.19348,-0.17172,0.0010752
1729,0.023162,-0.062587,0.017316,0.19044,-0.13307,-0.15158,0.066037
1730,0.03453,-0.059339,-0.0028225,0.15861,-0.059989,-0.15905,0.12288
1731,0.032906,-0.070058,-0.036602,0.066686,-0.0060706,-0.20453,0.16965
1732,0.01829,-0.092794,-0.079152,-0.063561,0.016991,-0.27046,0.20668
1733,-0.0054209,-0.1178,-0.12365,-0.19446,0.016016,-0.32601,0.22877
1734,-0.03303,-0.14216,-0.1597,-0.28898,-0.0034721,-0.34257,0.23169
1735,-0.059989,-0.1597,-0.17952,-0.32893,-0.037577,-0.30035,0.2187
1736,-0.076879,-0.16685,-0.18342,-0.31594,-0.084674,-0.19089,0.19661
1737,-0.077528,-0.16295,-0.17335,-0.26981,-0.15321,-0.03173,0.17517
1738,-0.06551,-0.14899,-0.15158,-0.21785,-0.24838,0.14269,0.16185
1739,-0.050894,-0.13307,-0.1256,-0.17497,-0.35979,0.29113,0.16121
1740,-0.043099,-0.12365,-0.10676,-0.14899,-0.46307,0.38272,0.16088
1741,-0.048945,-0.12398,-0.096367,-0.13827,-0.52381,0.40643,0.14367
1742,-0.064211,-0.13664,-0.096042,-0.13859,-0.51602,0.36876,0.10242
1743,-0.081101,-0.15516,-0.10351,-0.14704,-0.44878,0.296,0.046223
1744,-0.093769,-0.17205,-0.11456,-0.1649,-0.37343,0.21837,-0.0083442
1745,-0.10026,-0.18277,-0.12625,-0.19251,-0.3416,0.16445,-0.047321
1746,-0.10156,-0.18407,-0.1295,-0.22304,-0.36791,0.14821,-0.068109
1747,-0.098316,-0.17724,-0.12463,-0.2448,-0.4267,0.16803,-0.071032
1748,-0.092469,-0.1675,-0.10838,-0.2435,-0.47119,0.2096,-0.057715
1749,-0.0824,-0.15743,-0.0824,-0.21427,-0.4595,0.26287,-0.035953
1750,-0.069083,-0.14411,-0.047321,-0.161,-0.37733,0.32946,-0.0083442
1751,-0.052193,-0.12657,-0.0060706,-0.088572,-0.23246,0.41683,0.02706
1752,-0.033354,-0.10449,0.037129,-0.0073698,-0.029782,0.51687,0.075456
1753,-0.012242,-0.076554,0.082277,0.072533,0.22584,0.59937,0.1349
1754,0.01017,-0.043099,0.13262,0.13814,0.49283,0.6273,0.19563
1755,0.029009,-0.0034721,0.18297,0.17712,0.70493,0.58703,0.24078
1756,0.044924,0.038428,0.22714,0.18946,0.80497,0.50225,0.2619
1757,0.055968,0.079679,0.26092,0.18394,0.78873,0.41553,0.258
1758,0.066686,0.1206,0.27976,0.16868,0.68999,0.36551,0.24371
1759,0.083251,0.16121,0.28626,0.15179,0.55162,0.37655,0.23656
1760,0.10956,0.20278,0.28333,0.14626,0.40514,0.44281,0.24858
1761,0.14009,0.24468,0.27749,0.1638,0.26969,0.52596,0.27911
1762,0.16478,0.28236,0.27424,0.20668,0.15438,0.57176,0.31029
1763,0.1768,0.31192,0.27229,0.26547,0.064088,0.53896,0.32588
1764,0.17517,0.3314,0.26514,0.32491,0.0020496,0.42105,0.31386
1765,0.16478,0.34212,0.2515,0.37038,-0.036278,0.24988,0.27424
1766,0.14756,0.34375,0.23201,0.39507,-0.060963,0.071558,0.21545
1767,0.12775,0.33563,0.21025,0.40514,-0.084349,-0.076229,0.14691
1768,0.10566,0.31646,0.18687,0.40871,-0.12592,-0.18601,0.072533
1769,0.083901,0.28853,0.16218,0.41358,-0.19576,-0.27209,-0.0060706
1770,0.065387,0.25637,0.13717,0.41715,-0.2945,-0.35102,-0.088572
1771,0.048822,0.22617,0.11671,0.41845,-0.41208,-0.43417,-0.17172
1772,0.038753,0.20765,0.10696,0.42138,-0.53161,-0.53453,-0.2487
1773,0.038428,0.20278,0.11216,0.43924,-0.61996,-0.65309,-0.31594
1774,0.044599,0.20798,0.13067,0.47724,-0.63717,-0.77392,-0.37115
1775,0.051096,0.21577,0.16023,0.52499,-0.56312,-0.86129,-0.40623
1776,0.056942,0.22454,0.18849,0.56592,-0.38999,-0.8798,-0.4124
1777,0.065062,0.23104,0.20181,0.58378,-0.13469,-0.81582,-0.38934
1778,0.074157,0.23364,0.19628,0.56299,0.15536,-0.67907,-0.34842
1779,0.080328,0.23071,0.17095,0.49543,0.4217,-0.50075,-0.30522
1780,0.078055,0.21837,0.12905,0.39702,0.61464,-0.31886,-0.27339
1781,0.070909,0.19758,0.074482,0.29697,0.70851,-0.16425,-0.24968
1782,0.064088,0.1716,0.020239,0.21935,0.71175,-0.050244,-0.21849
1783,0.061489,0.14724,-0.023285,0.1716,0.66758,0.033231,-0.17107
1784,0.067011,0.12613,-0.04927,0.14561,0.63802,0.098517,-0.10449
1785,0.084551,0.11118,-0.055441,0.12483,0.66596,0.15309,-0.021337
1786,0.11411,0.10761,-0.053492,0.085525,0.76177,0.19986,0.074482
1787,0.14821,0.11346,-0.058689,0.016341,0.89787,0.23981,0.17777
1788,0.17647,0.11833,-0.076879,-0.079477,1.0135,0.26937,0.27294
1789,0.18979,0.11541,-0.11066,-0.18601,1.0405,0.27554,0.3431
1790,0.18232,0.099492,-0.14639,-0.28021,0.94107,0.24273,0.37525
1791,0.16023,0.073832,-0.1727,-0.34647,0.71955,0.16315,0.36941
1792,0.13457,0.047198,-0.18244,-0.39292,0.41878,0.052395,0.34082
1793,0.10924,0.023487,-0.17627,-0.44001,0.10826,-0.062262,0.30477
1794,0.081303,0.0059473,-0.15808,-0.49978,-0.13794,-0.15776,0.26482
1795,0.050446,-0.0063954,-0.1321,-0.56312,-0.27793,-0.22207,0.21837
1796,0.024786,-0.010618,-0.10319,-0.60339,-0.30847,-0.2513,0.16218
1797,0.0078962,-0.0063954,-0.073306,-0.58325,-0.26787,-0.24773,0.096893
1798,-0.0021729,-0.0011985,-0.043748,-0.48094,-0.21005,-0.2172,0.028684
1799,-0.0057458,0.00075039,-0.017764,-0.31561,-0.18634,-0.16718,-0.038876
1800,-0.0041217,-0.0021729,0.0043233,-0.14119,-0.21849,-0.10156,-0.10416
1801,-0.0018481,-0.0073698,0.017965,-0.012242,-0.30262,-0.02426,-0.16295
1802,-0.0031473,-0.0089938,0.019589,0.041351,-0.43677,0.064088,-0.21135
1803,-0.007045,-0.0099683,0.0075714,0.02706,-0.61508,0.15828,-0.25
1804,-0.017764,-0.015815,-0.016464,-0.028482,-0.81679,0.24306,-0.27728
1805,-0.034329,-0.034654,-0.04927,-0.089871,-1.001,0.30704,-0.29775
1806,-0.056416,-0.068434,-0.086623,-0.13599,-1.1166,0.35479,-0.31269
1807,-0.081426,-0.10546,-0.12463,-0.15451,-1.1309,0.40189,-0.31756
1808,-0.098641,-0.13567,-0.15613,-0.14184,-1.0302,0.45028,-0.30294
1809,-0.10644,-0.15288,-0.17594,-0.10546,-0.83011,0.48991,-0.26787
1810,-0.10806,-0.15646,-0.18179,-0.054467,-0.55824,0.51654,-0.21947
1811,-0.10481,-0.14801,-0.17562,0.0056225,-0.2513,0.53766,-0.16555
1812,-0.097341,-0.1334,-0.16003,0.064737,0.040377,0.56949,-0.11293
1813,-0.084024,-0.12138,-0.14152,0.10956,0.27749,0.61918,-0.059989
1814,-0.06681,-0.11878,-0.12463,0.11898,0.44736,0.67862,-0.0011985
1815,-0.04992,-0.12365,-0.11228,0.085525,0.54968,0.71305,0.06084
