,channel_1,channel_2,channel_3,channel_4,channel_5,channel_6,channel_7
0,-0.0050961,0.016341,-0.05804,-0.047321,-0.86031,0.13522,-0.038876
1,-0.0054209,0.0088706,-0.059664,-0.045697,-0.85707,0.088124,-0.05739
2,-0.00054884,0.0017248,-0.059989,-0.035953,-0.72552,0.040377,-0.07493
3,0.0052977,-0.0037969,-0.057715,-0.019388,-0.47867,-0.0011985,-0.088896
4,0.0052977,-0.0073698,-0.055116,-0.0021729,-0.17205,-0.029457,-0.093119
5,0.0039985,-0.0080194,-0.052193,0.0059473,0.1206,-0.04115,-0.08305
6,0.0043233,-0.0044465,-0.053492,0.0039985,0.3444,-0.047971,-0.059014
7,0.0091954,0.0023744,-0.055766,-0.0024977,0.48764,-0.060313,-0.031081
8,0.017316,0.014068,-0.055116,-0.0024977,0.58605,-0.081426,-0.0067202
9,0.025436,0.02706,-0.051219,0.0095202,0.70201,-0.10156,0.014717
10,0.031282,0.038428,-0.043423,0.030308,0.86311,-0.10838,0.036479
11,0.032582,0.047523,-0.036927,0.057267,1.0333,-0.096692,0.053694
12,0.030633,0.054344,-0.036602,0.080653,1.1399,-0.068434,0.058241
13,0.029009,0.059541,-0.043748,0.089098,1.1236,-0.03238,0.045249
14,0.030633,0.061814,-0.059014,0.07773,0.97582,0.0026992,0.014717
15,0.031607,0.061814,-0.077203,0.051745,0.74781,0.033556,-0.027833
16,0.02706,0.06019,-0.092469,0.024461,0.5094,0.063438,-0.07428
17,0.015692,0.055643,-0.099615,0.0010752,0.31159,0.092346,-0.10936
18,0.0033489,0.046873,-0.097341,-0.01549,0.16348,0.11183,-0.12625
19,-0.0050961,0.033556,-0.089546,-0.022311,0.042651,0.11833,-0.12073
20,-0.010618,0.023812,-0.075579,-0.019712,-0.086948,0.11248,-0.095068
21,-0.0076946,0.024461,-0.058689,-0.011917,-0.24221,0.10177,-0.061288
22,0.00075039,0.031282,-0.043099,-0.0067202,-0.42312,0.092671,-0.031406
23,0.012119,0.038103,-0.03238,-0.0089938,-0.60924,0.084876,-0.012242
24,0.016341,0.038753,-0.025884,-0.015815,-0.77619,0.075131,-0.0047713
25,0.011144,0.032582,-0.022311,-0.023285,-0.88532,0.061165,-0.0050961
26,-0.0018481,0.023162,-0.018413,-0.025884,-0.89929,0.046223,-0.0073698
27,-0.011592,0.01764,-0.012242,-0.019388,-0.80932,0.03518,-0.0047713
28,-0.01484,0.014717,-0.0047713,-0.0060706,-0.6336,0.029983,0.0026992
29,-0.013541,0.010495,0.0020496,0.003024,-0.39681,0.032257,0.014392
30,-0.010293,0.0043233,0.0056225,0.003024,-0.13015,0.041027,0.024137
31,-0.007045,-0.0015233,0.0062721,-0.0028225,0.13749,0.054993,0.033231
32,-0.0031473,-0.0037969,0.0075714,-0.0083442,0.38695,0.06896,0.045249
33,0.0043233,-0.0021729,0.012119,-0.0096434,0.61171,0.080003,0.06084
34,0.015692,0.0049729,0.021538,-0.0047713,0.8027,0.084226,0.078379
35,0.029658,0.016341,0.031932,0.0059473,0.94659,0.07708,0.089098
36,0.038428,0.027709,0.042326,0.019914,1.0116,0.055968,0.092996
37,0.042326,0.03453,0.05142,0.035505,0.96705,0.024137,0.096893
38,0.044924,0.034206,0.057267,0.047523,0.80465,-0.010943,0.10339
39,0.048497,0.032257,0.063438,0.05142,0.55325,-0.039201,0.11086
40,0.053044,0.031607,0.071558,0.049796,0.26807,-0.053492,0.11508
41,0.05207,0.038428,0.080978,0.048822,0.0075714,-0.050569,0.11443
42,0.042001,0.049796,0.086175,0.056617,-0.2016,-0.038551,0.11054
43,0.026085,0.064088,0.084226,0.072208,-0.36238,-0.025559,0.10566
44,0.0085458,0.076755,0.080653,0.087474,-0.4975,-0.016789,0.10014
45,-0.0015233,0.081627,0.079679,0.095919,-0.61443,-0.01484,0.094945
46,-0.00054884,0.075781,0.079679,0.093321,-0.69694,-0.01484,0.090072
47,0.008221,0.063438,0.083251,0.083901,-0.72097,-0.0076946,0.089098
48,0.017965,0.045899,0.087799,0.073182,-0.69109,0.0072465,0.093321
49,0.02706,0.026735,0.092021,0.067661,-0.64497,0.028359,0.10144
50,0.034855,0.0072465,0.095269,0.067661,-0.62743,0.045249,0.11183
51,0.040377,-0.0080194,0.097543,0.067336,-0.65439,0.052395,0.11833
52,0.042326,-0.020037,0.097218,0.062464,-0.69726,0.047523,0.11411
53,0.0433,-0.027183,0.092671,0.053694,-0.70863,0.03518,0.10242
54,0.044924,-0.030106,0.086175,0.040052,-0.65828,0.022188,0.093321
55,0.043625,-0.028807,0.080328,0.023162,-0.54785,0.011794,0.093321
56,0.036479,-0.025559,0.075131,0.003024,-0.40104,0.0062721,0.10047
57,0.024786,-0.017764,0.073182,-0.011917,-0.24708,0.0043233,0.10599
58,0.015042,-0.0076946,0.072208,-0.015165,-0.11098,0.00075039,0.10242
59,0.008221,0.0020496,0.072208,-0.0060706,-0.013866,-0.0073698,0.090072
60,0.0046481,0.0075714,0.073182,0.008221,0.034855,-0.022311,0.071234
61,0.0014,0.0075714,0.072858,0.020239,0.045574,-0.038227,0.054019
62,-0.0024977,0.0059473,0.069934,0.023487,0.033231,-0.050244,0.041351
63,-0.0067202,0.0036737,0.060515,0.016991,0.014392,-0.058365,0.038103
64,-0.011917,0.00042559,0.046223,0.0039985,0.00010078,-0.063886,0.038103
65,-0.01614,-0.0024977,0.030633,-0.008669,-0.0047713,-0.068434,0.037454
66,-0.015815,-0.0044465,0.01894,-0.01484,-0.0018481,-0.071682,0.033556
67,-0.0063954,-0.0041217,0.010495,-0.010943,0.0056225,-0.071032,0.031607
68,0.01017,-0.00087364,0.0072465,-0.0031473,0.0056225,-0.063237,0.03518
69,0.026085,0.0023744,0.0072465,-0.00054884,-0.0037969,-0.048296,0.04395
70,0.03583,0.0065969,0.008221,-0.0044465,-0.019063,-0.032705,0.053369
71,0.036154,0.01017,0.012443,-0.011917,-0.030756,-0.022961,0.055643
72,0.029333,0.015042,0.016666,-0.017764,-0.033679,-0.02426,0.050121
73,0.019589,0.023487,0.016991,-0.022311,-0.026858,-0.033679,0.045249
74,0.015692,0.034855,0.011469,-0.027183,-0.011917,-0.042774,0.046873
75,0.01829,0.046873,0.0036737,-0.028157,0.0085458,-0.042774,0.055318
76,0.01829,0.059216,-0.0037969,-0.027833,0.038103,-0.031081,0.064413
77,0.012768,0.069934,-0.014191,-0.028807,0.0852,-0.0089938,0.06831
78,0.003024,0.075781,-0.021986,-0.030756,0.14399,0.022512,0.061489
79,-0.0073698,0.072208,-0.026858,-0.036927,0.20408,0.058566,0.044599
80,-0.011917,0.054993,-0.031081,-0.048296,0.24825,0.099167,0.023812
81,-0.010618,0.028034,-0.036602,-0.059014,0.26514,0.13944,0.0091954
82,-0.0044465,0.00075039,-0.042774,-0.060313,0.25962,0.1768,0.0059473
83,-0.0011985,-0.019388,-0.047646,-0.047971,0.2515,0.20765,0.0091954
84,-0.0024977,-0.024909,-0.049595,-0.027833,0.25475,0.22552,0.012768
85,-0.0018481,-0.014516,-0.04862,-0.0050961,0.26937,0.22552,0.014392
86,0.0072465,0.0056225,-0.047646,0.012768,0.28788,0.20505,0.012768
87,0.019914,0.024137,-0.051219,0.021538,0.2973,0.17225,0.0072465
88,0.030633,0.036154,-0.057715,0.021538,0.28983,0.13457,0.0043233
89,0.038103,0.041027,-0.063237,0.022188,0.25637,0.098193,0.0088706
90,0.040702,0.040702,-0.065835,0.030308,0.19758,0.064413,0.020239
91,0.037454,0.036479,-0.065186,0.042326,0.12613,0.032906,0.037778
92,0.029333,0.029333,-0.059989,0.054668,0.047198,-0.00054884,0.055643
93,0.022837,0.02641,-0.054142,0.064737,-0.036927,-0.039851,0.067661
94,0.023162,0.031932,-0.049595,0.071883,-0.1204,-0.087272,0.063113
95,0.029333,0.042651,-0.045047,0.074482,-0.19608,-0.14411,0.040377
96,0.03453,0.047198,-0.042124,0.072533,-0.25747,-0.21037,0.0036737
97,0.03453,0.043625,-0.044398,0.065387,-0.29775,-0.27826,-0.033679
98,0.029333,0.030633,-0.048945,0.054993,-0.31464,-0.33835,-0.064536
99,0.021863,0.014068,-0.056091,0.044924,-0.30392,-0.3848,-0.086298
100,0.012119,0.00042559,-0.067459,0.036804,-0.26397,-0.41695,-0.093444
101,0.00042559,-0.0057458,-0.078503,0.025761,-0.19738,-0.43319,-0.085973
102,-0.0099683,-0.0063954,-0.084999,0.01017,-0.12138,-0.43839,-0.069733
103,-0.015165,-0.0024977,-0.082725,-0.0037969,-0.055766,-0.44131,-0.051219
104,-0.013541,0.0039985,-0.076229,-0.013541,-0.019712,-0.43969,-0.036602
105,-0.0063954,0.011144,-0.071357,-0.019388,-0.019388,-0.43092,-0.027833
106,0.0059473,0.016341,-0.071032,-0.022636,-0.046671,-0.4124,-0.029132
107,0.020239,0.019264,-0.074605,-0.020687,-0.084674,-0.38122,-0.035628
108,0.033231,0.020239,-0.074605,-0.011917,-0.11813,-0.339,-0.046022
109,0.040052,0.024786,-0.068434,0.00042559,-0.13372,-0.28898,-0.052843
110,0.038103,0.03518,-0.055116,0.012768,-0.1282,-0.23506,-0.054142
111,0.027709,0.049147,-0.040175,0.021538,-0.10838,-0.18309,-0.048945
112,0.01829,0.061165,-0.025884,0.026735,-0.085648,-0.13469,-0.039201
113,0.016016,0.065712,-0.012567,0.032582,-0.067134,-0.086298,-0.023935
114,0.021213,0.064413,0.0014,0.042975,-0.050569,-0.032705,-0.0034721
115,0.028684,0.057917,0.013093,0.057592,-0.029457,0.024786,0.017316
116,0.034855,0.047847,0.023812,0.076431,-0.0011985,0.082277,0.035505
117,0.036154,0.038428,0.03518,0.096244,0.036804,0.13944,0.049147
118,0.033556,0.033556,0.044924,0.10599,0.081627,0.18784,0.052395
119,0.02706,0.031282,0.053044,0.10209,0.11281,0.22682,0.040702
120,0.016341,0.027385,0.057917,0.092021,0.11346,0.25702,0.01894
121,0.0023744,0.020564,0.058891,0.083576,0.078379,0.28073,-0.0083442
122,-0.0089938,0.01017,0.055968,0.079354,0.025761,0.3025,-0.035953
123,-0.014191,0.003024,0.056292,0.081627,-0.00087364,0.32913,-0.055441
124,-0.014191,0.0014,0.065062,0.090072,0.042975,0.36194,-0.059664
125,-0.0076946,0.0043233,0.0852,0.10209,0.17452,0.39831,-0.047646
126,0.0036737,0.014068,0.11248,0.11541,0.36356,0.43145,-0.025234
127,0.01829,0.029009,0.14009,0.12385,0.5487,0.45061,0.003024
128,0.034206,0.040702,0.16185,0.12385,0.67635,0.45223,0.031932
129,0.045574,0.046873,0.17452,0.12028,0.73287,0.43242,0.05272
130,0.051096,0.050446,0.17939,0.11768,0.73157,0.39539,0.059541
131,0.050446,0.054019,0.17745,0.11313,0.68609,0.34375,0.056942
132,0.044275,0.053694,0.16933,0.10631,0.5984,0.28301,0.049147
133,0.036479,0.046223,0.15828,0.099492,0.46912,0.22324,0.041027
134,0.030633,0.031607,0.14886,0.09397,0.31581,0.17062,0.037129
135,0.029009,0.013418,0.14042,0.094295,0.16933,0.13262,0.039727
136,0.031282,0.0010752,0.1323,0.098517,0.053694,0.10956,0.045574
137,0.037129,-0.00022403,0.12418,0.10306,-0.022636,0.099167,0.054019
138,0.042975,0.0062721,0.11638,0.10014,-0.059339,0.093321,0.062789
139,0.051096,0.016341,0.11054,0.087149,-0.064536,0.0852,0.065712
140,0.056292,0.025111,0.10436,0.069285,-0.054142,0.072858,0.064737
141,0.054993,0.030957,0.099167,0.054019,-0.039526,0.056942,0.062139
142,0.044275,0.031282,0.091696,0.045249,-0.026209,0.042651,0.057592
143,0.031282,0.029983,0.081952,0.039078,-0.01549,0.030308,0.047847
144,0.021538,0.030308,0.06896,0.03453,-0.011267,0.020888,0.036804
145,0.016666,0.03453,0.057917,0.031607,-0.019388,0.017965,0.030633
146,0.015367,0.039727,0.048822,0.026085,-0.034978,0.024786,0.030633
147,0.015042,0.04395,0.0433,0.015692,-0.050894,0.039727,0.030957
148,0.015367,0.048822,0.039727,0.0049729,-0.062262,0.054344,0.030957
149,0.016341,0.051096,0.036479,0.00075039,-0.067134,0.06019,0.031282
150,0.018615,0.044924,0.028034,0.00042559,-0.062587,0.050121,0.028034
151,0.016666,0.033881,0.013743,0.00042559,-0.049595,0.023487,0.016016
152,0.0088706,0.01829,-0.0047713,-0.0028225,-0.030756,-0.013866,-0.00087364
153,-0.0018481,0.0033489,-0.021986,-0.008669,-0.01484,-0.050894,-0.015815
154,-0.013216,-0.0099683,-0.034654,-0.016464,-0.0076946,-0.0824,-0.024909
155,-0.021012,-0.020687,-0.040825,-0.025559,-0.0096434,-0.10384,-0.028482
156,-0.02426,-0.03173,-0.041475,-0.038227,-0.018738,-0.11618,-0.029782
157,-0.02361,-0.042774,-0.042449,-0.051544,-0.026209,-0.12203,-0.03238
158,-0.022961,-0.049595,-0.043748,-0.063561,-0.028482,-0.12268,-0.038227
159,-0.027183,-0.050569,-0.048945,-0.072331,-0.028157,-0.123,-0.052518
160,-0.036278,-0.046347,-0.057065,-0.078503,-0.03303,-0.12398,-0.075255
161,-0.045372,-0.038551,-0.064211,-0.0824,-0.051219,-0.12463,-0.097341
162,-0.046347,-0.029782,-0.072006,-0.084674,-0.090196,-0.12592,-0.11066
163,-0.0405,-0.022636,-0.077853,-0.084024,-0.15191,-0.12365,-0.10806
164,-0.03173,-0.017114,-0.081426,-0.075904,-0.23928,-0.11586,-0.094093
165,-0.023285,-0.0099683,-0.079802,-0.059014,-0.35264,-0.10059,-0.073631
166,-0.014516,-0.00022403,-0.073306,-0.034654,-0.48321,-0.077203,-0.04927
167,-0.0034721,0.012768,-0.060963,-0.013216,-0.60079,-0.050894,-0.027183
168,0.0075714,0.026085,-0.043748,-0.00087364,-0.67777,-0.030431,-0.011592
169,0.016341,0.034855,-0.023935,-0.00022403,-0.69174,-0.021012,-0.0050961
170,0.023812,0.038103,-0.0083442,-0.0076946,-0.63782,-0.021661,-0.0024977
171,0.031932,0.037778,-0.0015233,-0.01614,-0.53583,-0.029132,-0.0028225
172,0.036804,0.03518,-0.0021729,-0.02426,-0.42182,-0.0405,-0.0015233
173,0.038753,0.034206,-0.0073698,-0.029782,-0.32406,-0.053168,0.0056225
174,0.037454,0.03453,-0.013866,-0.03303,-0.2552,-0.061288,0.018615
175,0.032257,0.03518,-0.022311,-0.036278,-0.21005,-0.063886,0.030633
176,0.022837,0.036804,-0.03238,-0.041475,-0.17432,-0.059339,0.037454
177,0.014392,0.038428,-0.041475,-0.046671,-0.13989,-0.050244,0.039402
178,0.009845,0.040702,-0.046347,-0.049595,-0.10319,-0.035953,0.040377
179,0.009845,0.041676,-0.047321,-0.047321,-0.057065,-0.016789,0.040702
180,0.015042,0.043625,-0.043423,-0.041799,-0.0054209,0.0023744,0.041676
181,0.022837,0.042975,-0.036927,-0.034329,0.044275,0.01894,0.0433
182,0.029983,0.040702,-0.026209,-0.027183,0.087474,0.030308,0.047847
183,0.032257,0.039402,-0.010618,-0.021337,0.12548,0.036154,0.056292
184,0.029983,0.039078,0.0065969,-0.018413,0.16088,0.037129,0.064737
185,0.025761,0.038753,0.019589,-0.021337,0.20376,0.032582,0.069934
186,0.022512,0.03583,0.026735,-0.027183,0.27846,0.024137,0.070584
187,0.020564,0.031607,0.028684,-0.030106,0.39961,0.014717,0.06896
188,0.017965,0.028359,0.026735,-0.02426,0.55292,0.01017,0.066037
189,0.016666,0.024461,0.023812,-0.010618,0.70851,0.014068,0.063113
190,0.015042,0.01829,0.021538,0.003024,0.82998,0.024786,0.058566
191,0.011794,0.013093,0.021213,0.010495,0.89462,0.037129,0.05272
192,0.0043233,0.012119,0.024137,0.011469,0.89949,0.050446,0.046223
193,-0.0047713,0.013743,0.028684,0.013743,0.85759,0.061165,0.040702
194,-0.0080194,0.012768,0.030308,0.017965,0.78711,0.064088,0.034206
195,-0.0063954,0.0056225,0.027709,0.020564,0.69811,0.05207,0.026735
196,-0.0044465,-0.0080194,0.022512,0.019914,0.59125,0.029983,0.01764
197,-0.0067202,-0.025234,0.019914,0.017965,0.47107,0.0091954,0.008221
198,-0.014191,-0.043748,0.019264,0.014392,0.34862,-0.0067202,0.0017248
199,-0.022311,-0.056416,0.021863,0.014392,0.23396,-0.01614,0.0014
200,-0.025884,-0.062262,0.028359,0.022837,0.14042,-0.02361,0.0075714
201,-0.019712,-0.062262,0.03583,0.039402,0.076106,-0.032055,0.016991
202,-0.0018481,-0.051868,0.0433,0.061814,0.040052,-0.042124,0.030308
203,0.025436,-0.028807,0.051096,0.082927,0.014068,-0.054792,0.042975
204,0.054668,0.0010752,0.06084,0.10112,-0.02361,-0.070058,0.05272
205,0.079029,0.026735,0.070259,0.11606,-0.078827,-0.084999,0.057267
206,0.090397,0.036479,0.07708,0.12645,-0.13859,-0.097341,0.057267
207,0.081627,0.032582,0.080328,0.12645,-0.18309,-0.10189,0.052395
208,0.053044,0.025436,0.078379,0.11378,-0.2042,-0.098965,0.042326
209,0.016341,0.020564,0.071234,0.092996,-0.20453,-0.092469,0.023487
210,-0.016789,0.019914,0.060515,0.071558,-0.20388,-0.081751,-0.0024977
211,-0.035953,0.023487,0.05142,0.057592,-0.22402,-0.06616,-0.026209
212,-0.038876,0.025436,0.051096,0.054993,-0.27664,-0.044398,-0.040175
213,-0.029457,0.021213,0.057267,0.060515,-0.35686,-0.021012,-0.044398
214,-0.010943,0.011794,0.064088,0.067661,-0.45301,-0.00022403,-0.0405
215,0.012443,0.0014,0.068635,0.06961,-0.55175,0.013093,-0.031406
216,0.03518,-0.0083442,0.06896,0.069934,-0.64237,0.016341,-0.018413
217,0.05142,-0.011592,0.067011,0.06896,-0.71188,0.012768,-0.0060706
218,0.058891,-0.0067202,0.063438,0.067011,-0.7515,0.012119,0.0069217
219,0.061165,0.0078962,0.062789,0.067661,-0.74988,0.020239,0.01894
220,0.06084,0.029009,0.065062,0.070584,-0.707,0.037454,0.030633
221,0.059216,0.051096,0.070909,0.073182,-0.6297,0.062139,0.038103
222,0.054668,0.070259,0.078704,0.077405,-0.53875,0.086175,0.039727
223,0.048497,0.082602,0.08585,0.082602,-0.4595,0.10209,0.032257
224,0.038428,0.089423,0.088124,0.088773,-0.41111,0.11054,0.014717
225,0.024786,0.090722,0.083901,0.092671,-0.39746,0.11248,-0.0089938
226,0.012119,0.086824,0.070259,0.089423,-0.39551,0.11118,-0.027183
227,0.0036737,0.076755,0.054344,0.079679,-0.35329,0.10696,-0.03238
228,0.00042559,0.067336,0.036154,0.067011,-0.23538,0.10371,-0.027183
229,0.00042559,0.060515,0.01829,0.054344,-0.042774,0.10144,-0.019388
230,0.0033489,0.054993,0.0036737,0.044924,0.19791,0.099817,-0.011592
231,0.0075714,0.0433,-0.0063954,0.037778,0.45678,0.093645,-0.0060706
232,0.0078962,0.026735,-0.012892,0.033881,0.69519,0.076106,-0.0044465
233,0.0043233,0.014068,-0.018088,0.033556,0.86539,0.0433,-0.0031473
234,0.00075039,0.011794,-0.020687,0.032582,0.9271,0.0010752,0.0010752
235,0.0010752,0.017965,-0.022311,0.027385,0.86734,-0.0405,0.008221
236,0.0056225,0.02641,-0.02361,0.016016,0.70428,-0.075579,0.019914
237,0.013743,0.031282,-0.026858,0.0026992,0.47529,-0.09929,0.037778
238,0.023812,0.032257,-0.031406,-0.0073698,0.23429,-0.10806,0.057592
239,0.033556,0.032257,-0.037577,-0.011917,0.031282,-0.10319,0.079029
240,0.0433,0.03518,-0.042774,-0.011267,-0.10319,-0.09182,0.098517
241,0.05207,0.0433,-0.046671,-0.0076946,-0.1623,-0.078178,0.11151
242,0.056292,0.055968,-0.048945,-0.0063954,-0.15418,-0.062587,0.11183
243,0.058241,0.067011,-0.048296,-0.012567,-0.095068,-0.04115,0.098193
244,0.057267,0.074157,-0.045697,-0.025234,-0.0021729,-0.011267,0.078704
245,0.054019,0.075781,-0.039851,-0.037902,0.11151,0.027709,0.060515
246,0.050121,0.071883,-0.033354,-0.04115,0.23786,0.072208,0.049147
247,0.048172,0.064413,-0.028482,-0.036602,0.39019,0.1219,0.046873
248,0.05207,0.054344,-0.030431,-0.02361,0.57176,0.17257,0.047847
249,0.058566,0.044599,-0.038876,-0.0050961,0.74781,0.2161,0.044924
250,0.061489,0.039078,-0.04992,0.015692,0.85467,0.24533,0.041351
251,0.059541,0.038428,-0.05804,0.031932,0.84817,0.25702,0.038103
252,0.057267,0.042651,-0.05804,0.039402,0.7254,0.25345,0.034855
253,0.055643,0.047847,-0.054792,0.042326,0.52531,0.23591,0.031932
254,0.052395,0.048172,-0.053817,0.046223,0.30445,0.20993,0.028359
255,0.044599,0.040377,-0.057065,0.053044,0.10956,0.18037,0.022512
256,0.03518,0.02706,-0.062912,0.058241,-0.028482,0.15016,0.011794
257,0.025436,0.015367,-0.069408,0.058241,-0.10741,0.12158,-0.0050961
258,0.016666,0.009845,-0.075255,0.052395,-0.13892,0.092996,-0.024585
259,0.008221,0.0095202,-0.079152,0.038103,-0.14379,0.062789,-0.043748
260,-0.0028225,0.013093,-0.079802,0.01764,-0.14444,0.033881,-0.059664
261,-0.013216,0.01829,-0.075904,-0.0021729,-0.15873,0.0075714,-0.069083
262,-0.018738,0.024461,-0.064536,-0.011917,-0.18894,-0.014516,-0.070058
263,-0.01549,0.030308,-0.04927,-0.0060706,-0.22434,-0.033679,-0.061937
264,-0.0067202,0.034855,-0.032055,0.0039985,-0.2513,-0.04862,-0.046347
265,0.00010078,0.037778,-0.019063,0.011794,-0.26722,-0.056741,-0.026533
266,0.00042559,0.037778,-0.013541,0.019914,-0.27339,-0.061937,-0.0093186
267,-0.0080194,0.037129,-0.01614,0.031282,-0.27371,-0.065186,0.0017248
268,-0.019712,0.037129,-0.020362,0.044599,-0.27728,-0.070382,0.0062721
269,-0.03173,0.037129,-0.019388,0.048822,-0.29028,-0.076229,0.0078962
270,-0.038876,0.034855,-0.0093186,0.045574,-0.31009,-0.083375,0.010495
271,-0.042124,0.024786,0.0056225,0.038753,-0.32601,-0.092469,0.013093
272,-0.038551,0.010819,0.020888,0.031607,-0.3338,-0.09994,0.010819
273,-0.029457,-0.0018481,0.034855,0.027709,-0.33413,-0.10676,0.003024
274,-0.019063,-0.0041217,0.051745,0.029658,-0.32633,-0.11293,-0.0073698
275,-0.010293,0.0033489,0.070259,0.03583,-0.30717,-0.11586,-0.014516
276,-0.0031473,0.013418,0.083251,0.044924,-0.27956,-0.1191,-0.016789
277,0.0049729,0.023812,0.089748,0.05207,-0.24643,-0.12495,-0.013866
278,0.014717,0.033881,0.087799,0.055643,-0.20843,-0.13145,-0.0093186
279,0.025111,0.042326,0.080653,0.05272,-0.15776,-0.13502,-0.0031473
280,0.03518,0.051096,0.070584,0.0433,-0.097341,-0.13047,0.0052977
281,0.042975,0.057267,0.063113,0.029333,-0.041799,-0.12008,0.012443
282,0.046548,0.058566,0.061165,0.01764,-0.0031473,-0.11261,0.015692
283,0.044599,0.053694,0.064413,0.010819,0.013743,-0.11651,0.014392
284,0.040702,0.043625,0.073832,0.0056225,0.011469,-0.1321,0.010819
285,0.035505,0.033881,0.085525,0.0043233,-0.0057458,-0.14801,0.0072465
286,0.032582,0.029009,0.097868,0.0072465,-0.030756,-0.15158,0.0078962
287,0.033556,0.030957,0.10794,0.016991,-0.058365,-0.13794,0.01764
288,0.036154,0.03518,0.11411,0.033881,-0.082725,-0.11001,0.032906
289,0.040377,0.037129,0.11054,0.055643,-0.097991,-0.077528,0.047523
290,0.045899,0.036479,0.10306,0.075456,-0.097341,-0.048296,0.056617
291,0.049796,0.03453,0.094295,0.0865,-0.073306,-0.027833,0.063763
292,0.047523,0.032257,0.090397,0.088773,-0.03238,-0.017114,0.06896
293,0.038103,0.033231,0.092021,0.082927,-0.00087364,-0.017764,0.074157
294,0.028684,0.036804,0.095594,0.075131,-0.0080194,-0.026209,0.081627
295,0.024461,0.042326,0.097543,0.070909,-0.072006,-0.035628,0.092346
296,0.028359,0.046873,0.094945,0.06831,-0.18861,-0.04115,0.10599
297,0.036804,0.05207,0.086175,0.066037,-0.33445,-0.036927,0.1206
298,0.044924,0.056942,0.073832,0.062464,-0.47834,-0.022961,0.13002
299,0.047523,0.061814,0.060515,0.058566,-0.5826,-0.0047713,0.1323
300,0.040052,0.06084,0.049472,0.053369,-0.61184,0.010819,0.12385
301,0.023162,0.048822,0.041027,0.044924,-0.55597,0.021538,0.10501
302,0.0056225,0.029658,0.036804,0.037454,-0.42832,0.030308,0.078704
303,-0.0054209,0.0075714,0.035505,0.028684,-0.26981,0.037454,0.05272
304,-0.0096434,-0.012892,0.033556,0.014717,-0.12365,0.044599,0.034206
305,-0.012567,-0.028157,0.024461,-0.0057458,-0.021012,0.05142,0.024461
306,-0.01614,-0.038227,0.011469,-0.027183,0.025436,0.054344,0.025111
307,-0.021337,-0.044398,-0.0024977,-0.045047,0.016341,0.053044,0.036479
308,-0.027183,-0.050244,-0.01484,-0.053492,-0.032055,0.045899,0.05142
309,-0.032055,-0.054142,-0.023935,-0.054792,-0.088896,0.034855,0.061814
310,-0.033679,-0.053817,-0.029782,-0.054142,-0.1217,0.024461,0.063763
311,-0.033679,-0.050244,-0.035628,-0.050894,-0.11163,0.01764,0.056292
312,-0.031406,-0.044073,-0.040825,-0.046022,-0.06616,0.0095202,0.046223
313,-0.022636,-0.038227,-0.039201,-0.040175,-0.011267,0.0020496,0.038428
314,-0.012242,-0.030431,-0.030431,-0.034004,0.021863,-0.0011985,0.041027
315,-0.0057458,-0.022311,-0.017764,-0.024585,0.018615,0.0010752,0.051745
316,-0.0015233,-0.014516,-0.0083442,-0.015165,-0.0021729,0.0095202,0.062464
317,0.0017248,-0.007045,-0.0073698,-0.0067202,0.0023744,0.023162,0.066362
318,0.003024,-0.0011985,-0.013866,0.0023744,0.065712,0.040702,0.058241
319,0.0039985,0.0043233,-0.021661,0.0075714,0.17647,0.056617,0.0433
320,0.0091954,0.009845,-0.02426,0.010819,0.29275,0.06896,0.026735
321,0.016016,0.014068,-0.021661,0.013093,0.36421,0.076106,0.016016
322,0.022512,0.016016,-0.019388,0.016991,0.3733,0.078704,0.011794
323,0.023162,0.017965,-0.017114,0.025436,0.3314,0.080328,0.011469
324,0.021213,0.016666,-0.016789,0.03583,0.26482,0.081952,0.014392
325,0.024137,0.011144,-0.01549,0.041027,0.20213,0.084226,0.017316
326,0.033881,0.0036737,-0.013866,0.039078,0.16088,0.088448,0.015042
327,0.042326,-0.0015233,-0.01549,0.030957,0.14399,0.09462,0.0039985
328,0.044924,-0.0031473,-0.021012,0.020564,0.14594,0.098193,-0.01549
329,0.039078,0.0010752,-0.028157,0.0056225,0.1664,0.098517,-0.037252
330,0.029009,0.009845,-0.03303,-0.014516,0.2083,0.099817,-0.052193
331,0.019914,0.020239,-0.033354,-0.032055,0.26514,0.10436,-0.055116
332,0.014392,0.028359,-0.036927,-0.042449,0.32491,0.11606,-0.046347
333,0.014392,0.032906,-0.044723,-0.046022,0.37265,0.12937,-0.032055
334,0.016991,0.034855,-0.056416,-0.045697,0.40189,0.13944,-0.01614
335,0.01829,0.037129,-0.065835,-0.045697,0.41066,0.14432,0.0010752
336,0.020564,0.039078,-0.068758,-0.044073,0.39507,0.14334,0.014717
337,0.022837,0.040377,-0.062912,-0.037252,0.36031,0.13912,0.022188
338,0.025111,0.041027,-0.053168,-0.024585,0.32458,0.13165,0.026085
339,0.029983,0.038428,-0.045372,-0.012892,0.31224,0.1245,0.027709
340,0.03453,0.032906,-0.0405,-0.0076946,0.34082,0.11606,0.031607
341,0.040377,0.026735,-0.034654,-0.0037969,0.40189,0.11411,0.036154
342,0.047198,0.020239,-0.028157,0.0033489,0.46555,0.11931,0.041676
343,0.048822,0.016341,-0.024909,0.01017,0.49413,0.12807,0.045249
344,0.045899,0.016016,-0.025884,0.011144,0.4597,0.12937,0.0433
345,0.038428,0.021863,-0.027833,0.0056225,0.36226,0.11411,0.034206
346,0.026085,0.028359,-0.026858,-0.00087364,0.23071,0.082927,0.020888
347,0.011144,0.032582,-0.021337,-0.0018481,0.10274,0.042975,0.009845
348,-0.0011985,0.030633,-0.013866,0.0043233,0.008221,0.0043233,0.0052977
349,-0.010293,0.021863,-0.0057458,0.014068,-0.044073,-0.02361,0.0056225
350,-0.016464,0.0078962,-0.00054884,0.020239,-0.059664,-0.042449,0.0059473
351,-0.018088,-0.0050961,0.0017248,0.025436,-0.054792,-0.056741,0.00042559
352,-0.01614,-0.011592,0.0065969,0.03518,-0.050244,-0.069083,-0.0093186
353,-0.010293,-0.010943,0.016991,0.048497,-0.055766,-0.077853,-0.017764
354,0.0020496,-0.0063954,0.031282,0.055968,-0.064861,-0.080127,-0.024585
355,0.014392,-0.00087364,0.04395,0.056617,-0.06551,-0.076879,-0.026858
356,0.021213,0.0046481,0.049472,0.050771,-0.052518,-0.069733,-0.029132
357,0.023487,0.0065969,0.049147,0.045899,-0.023935,-0.059989,-0.033354
358,0.025111,0.0062721,0.046223,0.048172,0.0091954,-0.04927,-0.035628
359,0.028684,0.0017248,0.044275,0.056292,0.03518,-0.038876,-0.035628
360,0.030633,-0.0044465,0.047523,0.064413,0.042975,-0.029457,-0.033679
361,0.026735,-0.010293,0.058241,0.066037,0.029009,-0.022636,-0.030106
362,0.018615,-0.013541,0.073182,0.059216,0.0033489,-0.020037,-0.02361
363,0.011144,-0.013866,0.084226,0.05142,-0.025559,-0.020037,-0.017439
364,0.0043233,-0.014516,0.088773,0.045249,-0.045697,-0.017114,-0.01549
365,0.0033489,-0.01614,0.088124,0.040052,-0.051219,-0.010618,-0.018413
366,0.0056225,-0.017764,0.085525,0.034206,-0.043423,0.00042559,-0.027508
367,0.0062721,-0.019712,0.084551,0.02641,-0.030431,0.0062721,-0.04115
368,0.0014,-0.019063,0.090072,0.014717,-0.022636,0.0017248,-0.053817
369,-0.0073698,-0.016789,0.10144,0.0062721,-0.031081,-0.017764,-0.059989
370,-0.014516,-0.011592,0.11508,0.0069217,-0.052843,-0.04927,-0.058365
371,-0.016789,-0.0044465,0.12418,0.018615,-0.082725,-0.08305,-0.048945
372,-0.013866,0.0043233,0.12743,0.034206,-0.11683,-0.11553,-0.038876
373,-0.0099683,0.014392,0.12645,0.045574,-0.14996,-0.14152,-0.036278
374,-0.0063954,0.027385,0.12288,0.047523,-0.17627,-0.15581,-0.039526
375,-0.00054884,0.038428,0.11736,0.037454,-0.19413,-0.15581,-0.043099
376,0.0075714,0.043625,0.10761,0.019264,-0.20031,-0.14444,-0.047971
377,0.013093,0.040052,0.089423,0.0014,-0.19771,-0.12787,-0.053492
378,0.014717,0.02641,0.067661,-0.010293,-0.19348,-0.11066,-0.058689
379,0.0095202,0.011144,0.049472,-0.010943,-0.19024,-0.096367,-0.061288
380,-0.0018481,0.0010752,0.039727,0.00042559,-0.17854,-0.085324,-0.060313
381,-0.0099683,-0.00054884,0.037778,0.019914,-0.14444,-0.074605,-0.05739
382,-0.010943,0.0072465,0.041351,0.039402,-0.081101,-0.061937,-0.056416
383,-0.0080194,0.020564,0.044275,0.053694,0.0085458,-0.046671,-0.054142
384,-0.008669,0.03583,0.042001,0.057917,0.11313,-0.028157,-0.04927
385,-0.013541,0.050446,0.038428,0.055318,0.21675,-0.0096434,-0.037577
386,-0.014516,0.060515,0.035505,0.050771,0.29275,0.011144,-0.022636
387,-0.011592,0.065062,0.033881,0.048172,0.32069,0.033231,-0.0073698
388,-0.0034721,0.062789,0.030308,0.049472,0.29795,0.050446,0.0088706
389,0.0065969,0.054344,0.023162,0.049147,0.23851,0.060515,0.023487
390,0.019264,0.042975,0.016016,0.049147,0.16575,0.062139,0.033881
391,0.02706,0.032906,0.012119,0.049796,0.099167,0.058891,0.038428
392,0.025761,0.028034,0.0088706,0.05272,0.045249,0.05272,0.036804
393,0.017316,0.029658,0.003024,0.053694,0.0046481,0.045574,0.032906
394,0.0085458,0.03583,-0.0093186,0.051745,-0.026533,0.039402,0.028359
395,0.0062721,0.046223,-0.022961,0.042651,-0.049595,0.036804,0.024137
396,0.0091954,0.05272,-0.034654,0.025761,-0.072656,0.03518,0.019264
397,0.012119,0.050771,-0.0405,0.0062721,-0.093444,0.03453,0.013743
398,0.014392,0.043625,-0.037902,-0.007045,-0.10968,0.031932,0.01017
399,0.01764,0.037129,-0.032055,-0.010293,-0.11423,0.032906,0.0095202
400,0.022188,0.036479,-0.028807,-0.0050961,-0.10968,0.040052,0.015367
401,0.028034,0.041351,-0.026858,0.0088706,-0.097666,0.053369,0.030308
402,0.038103,0.046548,-0.026858,0.024461,-0.0837,0.069934,0.054344
403,0.048172,0.05142,-0.028807,0.033231,-0.077203,0.082927,0.080003
404,0.058891,0.055643,-0.032705,0.028684,-0.088247,0.091047,0.098517
405,0.067986,0.056292,-0.039851,0.015367,-0.11391,0.090397,0.10631
406,0.075456,0.054668,-0.04992,0.0033489,-0.14346,0.082277,0.10242
407,0.079354,0.051096,-0.059014,-0.0024977,-0.15548,0.075131,0.093321
408,0.080978,0.049147,-0.064861,-0.0057458,-0.13664,0.073182,0.087149
409,0.081627,0.048822,-0.064211,-0.010293,-0.089871,0.078055,0.088773
410,0.083901,0.05272,-0.061937,-0.014516,-0.034329,0.0852,0.093321
411,0.080653,0.054993,-0.060638,-0.013866,0.008221,0.095919,0.095919
412,0.070909,0.055318,-0.062587,-0.0054209,0.023162,0.10501,0.094945
413,0.054668,0.054019,-0.067784,0.0069217,0.013093,0.11086,0.089098
414,0.03453,0.05272,-0.071682,0.019264,-0.0083442,0.10729,0.075131
415,0.020888,0.048822,-0.071032,0.030308,-0.028157,0.097543,0.055643
416,0.016341,0.044924,-0.06551,0.044275,-0.037902,0.087799,0.033556
417,0.020564,0.042975,-0.05739,0.062464,-0.039201,0.080978,0.018615
418,0.028684,0.044275,-0.04927,0.070259,-0.037902,0.07708,0.017965
419,0.031282,0.048822,-0.043748,0.06084,-0.031081,0.070259,0.027385
420,0.02641,0.05207,-0.041475,0.037454,-0.016789,0.060515,0.042326
421,0.017316,0.05142,-0.044723,0.016341,0.0095202,0.050771,0.053694
422,0.008221,0.047198,-0.055116,0.0036737,0.056617,0.040052,0.053694
423,0.0023744,0.040702,-0.063886,0.0020496,0.13457,0.028034,0.03453
424,0.0026992,0.032582,-0.06551,0.0075714,0.24176,0.010819,-0.0031473
425,0.0059473,0.025111,-0.062262,0.015042,0.35349,-0.012242,-0.055766
426,0.0095202,0.019589,-0.057065,0.019589,0.42852,-0.038227,-0.10936
427,0.013418,0.016666,-0.050569,0.021213,0.43372,-0.062587,-0.14606
428,0.020564,0.015367,-0.042124,0.018615,0.35999,-0.081101,-0.15126
429,0.029333,0.015042,-0.033679,0.014392,0.22162,-0.096042,-0.12722
430,0.033556,0.019914,-0.024585,0.013418,0.048822,-0.10806,-0.088247
431,0.032257,0.030957,-0.012567,0.023162,-0.1243,-0.11975,-0.048945
432,0.02706,0.041027,0.0036737,0.045574,-0.28086,-0.13664,-0.015165
433,0.024461,0.039078,0.024461,0.070584,-0.41078,-0.16068,0.012443
434,0.026085,0.026735,0.045899,0.087799,-0.5092,-0.18796,0.034206
435,0.029983,0.011144,0.058891,0.090722,-0.58033,-0.21135,0.054993
436,0.032582,0.0043233,0.06084,0.080653,-0.62743,-0.22402,0.069934
437,0.031607,0.0052977,0.054993,0.062789,-0.65016,-0.21785,0.074157
438,0.023162,0.010819,0.049796,0.049472,-0.64074,-0.19056,0.066362
439,0.01017,0.020564,0.049147,0.044599,-0.59982,-0.14899,0.046223
440,-0.0031473,0.032906,0.050121,0.048822,-0.5394,-0.09929,0.016991
441,-0.013541,0.042975,0.05207,0.058566,-0.47899,-0.046022,-0.0080194
442,-0.016464,0.047523,0.056292,0.06961,-0.41793,0.0085458,-0.022311
443,-0.0093186,0.044599,0.063438,0.079354,-0.34777,0.059216,-0.026533
444,0.0046481,0.038103,0.073832,0.087149,-0.25975,0.095594,-0.023285
445,0.019914,0.031607,0.084551,0.091696,-0.16295,0.11541,-0.017114
446,0.030308,0.028684,0.091696,0.092671,-0.06616,0.11378,-0.012892
447,0.034206,0.026085,0.088773,0.086824,0.025436,0.093645,-0.010293
448,0.032257,0.023487,0.081952,0.072208,0.11411,0.059541,-0.007045
449,0.022188,0.021213,0.078055,0.048497,0.19986,0.021863,-0.0050961
450,0.012119,0.022512,0.084226,0.02641,0.27976,-0.011267,-0.007045
451,0.0075714,0.028034,0.10079,0.015692,0.34407,-0.036278,-0.008669
452,0.012443,0.036154,0.12223,0.017316,0.38078,-0.04927,-0.0050961
453,0.018615,0.042975,0.14237,0.029333,0.3772,-0.047646,0.0059473
454,0.022837,0.047523,0.15633,0.047523,0.33498,-0.037252,0.020239
455,0.021863,0.049472,0.16218,0.06831,0.27099,-0.02361,0.027709
456,0.015692,0.046873,0.15828,0.083576,0.20473,-0.0057458,0.029009
457,0.0091954,0.04395,0.14789,0.090072,0.14919,0.018615,0.027709
458,0.0072465,0.045899,0.13782,0.091372,0.10339,0.049472,0.035505
459,0.013093,0.055318,0.13197,0.091696,0.058566,0.080003,0.059541
460,0.026085,0.066037,0.13035,0.092021,0.008221,0.096893,0.096569
461,0.037778,0.068635,0.1323,0.091696,-0.044398,0.092671,0.13262
462,0.039727,0.062139,0.13327,0.084876,-0.089221,0.069285,0.15731
463,0.033881,0.047523,0.1284,0.072858,-0.11651,0.035505,0.16673
464,0.025111,0.031282,0.11638,0.060515,-0.12365,-0.0015233,0.15926
465,0.014717,0.019914,0.10014,0.050121,-0.11261,-0.034329,0.13717
466,0.0010752,0.015367,0.082277,0.041027,-0.087272,-0.056741,0.10469
467,-0.013866,0.016341,0.068635,0.033556,-0.04862,-0.065186,0.074157
468,-0.023935,0.019264,0.058241,0.029658,-0.0015233,-0.061288,0.054668
469,-0.02426,0.022837,0.050771,0.025761,0.046548,-0.047646,0.047847
470,-0.016789,0.023487,0.046223,0.022512,0.076431,-0.031406,0.05207
471,-0.0057458,0.019264,0.038428,0.020564,0.072858,-0.01614,0.062789
472,0.0010752,0.011469,0.024137,0.019914,0.035505,-0.0037969,0.073832
473,0.0033489,0.0033489,0.00075039,0.019264,-0.021337,0.0065969,0.083576
474,-0.0011985,-0.0054209,-0.027833,0.014068,-0.081751,0.014392,0.088773
475,-0.0073698,-0.013541,-0.059014,0.0017248,-0.1308,0.016016,0.086824
476,-0.012567,-0.021012,-0.086948,-0.014191,-0.16295,0.009845,0.07773
477,-0.013866,-0.025884,-0.10579,-0.031406,-0.17952,-0.0024977,0.063763
478,-0.012242,-0.025559,-0.11261,-0.046671,-0.18407,-0.012892,0.046223
479,-0.0080194,-0.022636,-0.11163,-0.062912,-0.17465,-0.016789,0.030308
480,-0.0067202,-0.020362,-0.10903,-0.080127,-0.15321,-0.013216,0.01764
481,-0.0050961,-0.01484,-0.10806,-0.090845,-0.1204,-0.0021729,0.013418
482,0.0023744,-0.0041217,-0.10611,-0.092145,-0.080127,0.010495,0.015367
483,0.014068,0.0091954,-0.099615,-0.089546,-0.04115,0.023812,0.01829
484,0.027385,0.01829,-0.090521,-0.084674,-0.015165,0.031607,0.023162
485,0.031932,0.020564,-0.081751,-0.075579,-0.0037969,0.03518,0.034206
486,0.025761,0.017965,-0.074605,-0.063561,0.0020496,0.044599,0.046223
487,0.015367,0.015367,-0.068109,-0.051868,0.022188,0.063113,0.056617
488,0.0095202,0.013093,-0.060963,-0.045047,0.068635,0.087474,0.063438
489,0.01017,0.008221,-0.057715,-0.042449,0.13295,0.11021,0.063438
490,0.015042,-0.0015233,-0.055116,-0.04115,0.19011,0.12223,0.059865
491,0.019589,-0.011592,-0.055766,-0.045047,0.21772,0.12093,0.052395
492,0.020239,-0.016789,-0.059339,-0.051544,0.20603,0.10729,0.041351
493,0.018615,-0.01484,-0.063886,-0.053492,0.16575,0.090072,0.030957
494,0.013743,-0.013866,-0.068434,-0.04927,0.11573,0.076431,0.025761
495,0.0088706,-0.01614,-0.068758,-0.042124,0.069285,0.06831,0.02641
496,0.0039985,-0.021012,-0.064211,-0.031406,0.033556,0.067661,0.031932
497,0.0036737,-0.023285,-0.054792,-0.019063,0.013093,0.074157,0.036479
498,0.010495,-0.019712,-0.039851,-0.007045,0.013743,0.080328,0.034855
499,0.022512,-0.0096434,-0.02361,-0.0015233,0.046223,0.081303,0.032582
500,0.033556,0.0033489,-0.012567,0.00010078,0.1245,0.075781,0.03453
501,0.037129,0.014392,-0.0089938,0.0017248,0.25085,0.065387,0.042326
502,0.029009,0.019589,-0.0093186,0.0078962,0.41131,0.053369,0.049472
503,0.014392,0.017316,-0.010943,0.013418,0.58118,0.044599,0.049472
504,0.003024,0.009845,-0.014191,0.016341,0.73579,0.038753,0.042001
505,0.0026992,0.00042559,-0.015165,0.016991,0.86182,0.031932,0.034206
506,0.011144,-0.0050961,-0.013541,0.014392,0.93879,0.022512,0.030957
507,0.021538,-0.0076946,-0.011592,0.0088706,0.94854,0.0088706,0.031932
508,0.030957,-0.0073698,-0.012567,-0.00054884,0.88163,-0.0037969,0.038428
509,0.037778,-0.007045,-0.016464,-0.010618,0.74878,-0.01549,0.048822
510,0.044599,-0.0060706,-0.019388,-0.01549,0.58086,-0.025559,0.057592
511,0.047847,-0.0057458,-0.017114,-0.010293,0.40643,-0.031081,0.064088
512,0.046873,-0.0083442,-0.0080194,0.0014,0.24663,-0.029782,0.065062
513,0.042975,-0.010293,0.0069217,0.011144,0.11086,-0.022961,0.061814
514,0.038103,-0.0083442,0.028684,0.017316,0.010819,-0.01484,0.055968
515,0.033556,-0.00087364,0.05207,0.01894,-0.041799,-0.0080194,0.044924
516,0.026735,0.0095202,0.06961,0.01829,-0.047321,-0.0054209,0.030957
517,0.016991,0.021213,0.076431,0.016666,-0.022636,-0.0034721,0.013743
518,0.0059473,0.029983,0.072208,0.016991,0.011144,0.00042559,-0.0024977
519,-0.00087364,0.034206,0.063438,0.01894,0.038428,0.0036737,-0.018738
520,-0.0037969,0.032582,0.056942,0.022512,0.045899,0.0026992,-0.031406
521,-0.0083442,0.026735,0.051745,0.026735,0.027385,-0.00054884,-0.037577
522,-0.012892,0.019589,0.048497,0.029333,-0.011267,-0.0060706,-0.039851
523,-0.015165,0.015042,0.047198,0.03583,-0.055441,-0.012242,-0.042774
524,-0.012242,0.011794,0.048497,0.046873,-0.089546,-0.017114,-0.046996
525,-0.0057458,0.0095202,0.050771,0.058891,-0.11098,-0.020037,-0.055441
526,0.00042559,0.0056225,0.052395,0.066362,-0.12885,-0.019063,-0.064861
527,0.003024,-0.0018481,0.057917,0.064088,-0.15288,-0.012892,-0.071357
528,0.0062721,-0.0099683,0.071234,0.05272,-0.18277,-0.00087364,-0.073955
529,0.01017,-0.013216,0.088773,0.040052,-0.21882,0.015367,-0.069733
530,0.011469,-0.011267,0.10144,0.031607,-0.26299,0.031932,-0.058689
531,0.01017,-0.0060706,0.10501,0.029333,-0.31594,0.045574,-0.045047
532,0.0075714,0.003024,0.10501,0.028359,-0.37538,0.06084,-0.034329
533,0.0065969,0.014717,0.10566,0.028359,-0.43709,0.07708,-0.02361
534,0.0026992,0.026085,0.10989,0.030633,-0.49588,0.089748,-0.013216
535,-0.0050961,0.037778,0.11508,0.036479,-0.54103,0.096569,-0.0093186
536,-0.012567,0.047198,0.11833,0.044924,-0.56279,0.096569,-0.016464
537,-0.016789,0.053369,0.11476,0.056292,-0.55792,0.091696,-0.030756
538,-0.018088,0.056292,0.10631,0.067011,-0.54005,0.082927,-0.041475
539,-0.016464,0.053044,0.095919,0.072208,-0.52251,0.072858,-0.043099
540,-0.012892,0.046223,0.089748,0.071883,-0.50822,0.065387,-0.034654
541,-0.010293,0.039727,0.088124,0.066686,-0.49556,0.064413,-0.022311
542,-0.007045,0.037454,0.088448,0.061165,-0.47802,0.068635,-0.010618
543,-0.0028225,0.037778,0.08585,0.062789,-0.44164,0.075131,-0.0015233
544,0.0039985,0.03583,0.079354,0.076431,-0.37375,0.081952,0.0043233
545,0.012768,0.032582,0.071883,0.096893,-0.26494,0.088448,0.0039985
546,0.020239,0.029983,0.064413,0.11346,-0.12138,0.091047,-0.0021729
547,0.027385,0.028684,0.059216,0.12288,0.03453,0.084551,-0.007045
548,0.032582,0.02706,0.057917,0.12288,0.16868,0.06961,-0.010293
549,0.035505,0.025436,0.061165,0.11671,0.258,0.047847,-0.012567
550,0.036804,0.025436,0.062464,0.10404,0.29308,0.020239,-0.01484
551,0.038103,0.025761,0.054344,0.09397,0.27879,-0.011917,-0.01549
552,0.042326,0.025436,0.037454,0.086824,0.22422,-0.050569,-0.018738
553,0.046223,0.026735,0.017316,0.07708,0.14334,-0.092469,-0.021012
554,0.047198,0.029009,0.00042559,0.066037,0.045574,-0.13015,-0.020362
555,0.046873,0.03583,-0.013216,0.053044,-0.054142,-0.15711,-0.01549
556,0.049796,0.045249,-0.019388,0.038428,-0.13632,-0.16977,-0.0096434
557,0.05272,0.053694,-0.018088,0.025111,-0.17075,-0.17107,-0.0031473
558,0.055318,0.057917,-0.01549,0.013743,-0.13015,-0.16263,0.003024
559,0.055968,0.053369,-0.015165,0.0036737,-0.01614,-0.14346,0.0088706
560,0.055643,0.042975,-0.021012,-0.0050961,0.13197,-0.11553,0.013418
561,0.054993,0.033556,-0.031081,-0.012567,0.26352,-0.081426,0.019264
562,0.052395,0.028034,-0.042124,-0.019063,0.34635,-0.043423,0.025436
563,0.048172,0.02706,-0.051544,-0.023935,0.37233,-0.0093186,0.030633
564,0.042975,0.026085,-0.055766,-0.02361,0.35576,0.017316,0.034855
565,0.03583,0.023487,-0.056741,-0.018413,0.31711,0.034206,0.038753
566,0.028684,0.025111,-0.056741,-0.015165,0.27424,0.039078,0.042326
567,0.025436,0.03583,-0.057715,-0.013216,0.23526,0.028034,0.039402
568,0.02706,0.049796,-0.063237,-0.0093186,0.19563,0.0026992,0.032582
569,0.032906,0.060515,-0.075904,-0.0031473,0.14691,-0.025884,0.027709
570,0.039078,0.065712,-0.09117,0.003024,0.080328,-0.04992,0.020564
571,0.042651,0.062789,-0.10286,0.0046481,0.00010078,-0.068109,0.011144
572,0.0433,0.050121,-0.10611,0.0036737,-0.080127,-0.079802,-0.00087364
573,0.040377,0.031282,-0.10449,0.0046481,-0.14411,-0.08305,-0.01484
574,0.032257,0.010495,-0.10189,0.003024,-0.17205,-0.075904,-0.028482
575,0.022188,-0.007045,-0.10156,-0.0011985,-0.15613,-0.060963,-0.034004
576,0.011794,-0.017114,-0.10384,-0.0011985,-0.11228,-0.044073,-0.028482
577,0.0026992,-0.023285,-0.10709,0.0033489,-0.065835,-0.030431,-0.017114
578,-0.0047713,-0.025884,-0.10514,0.012768,-0.0405,-0.021012,-0.0073698
579,-0.0096434,-0.027833,-0.096692,0.025761,-0.046022,-0.017439,-0.0024977
580,-0.0089938,-0.026533,-0.086298,0.040702,-0.078178,-0.013216,-0.0054209
581,-0.0034721,-0.023935,-0.078827,0.055968,-0.12885,-0.0076946,-0.016789
582,0.0026992,-0.019063,-0.071357,0.06961,-0.18017,0.0017248,-0.032055
583,0.0036737,-0.011267,-0.062912,0.082277,-0.21232,0.016341,-0.046671
584,-0.0018481,0.00042559,-0.051544,0.091372,-0.21232,0.034206,-0.055441
585,-0.0063954,0.016016,-0.035303,0.097218,-0.18277,0.054668,-0.057065
586,-0.0057458,0.035505,-0.015815,0.096893,-0.13015,0.074806,-0.04927
587,0.0014,0.054019,0.0020496,0.08585,-0.067459,0.090722,-0.034978
588,0.014392,0.071558,0.016666,0.066037,-0.0089938,0.10177,-0.01549
589,0.030957,0.090072,0.026085,0.04395,0.029333,0.11151,0.0069217
590,0.045574,0.10859,0.033556,0.028034,0.040052,0.11801,0.02641
591,0.057917,0.12353,0.038753,0.022837,0.02706,0.11411,0.038428
592,0.067011,0.13067,0.040702,0.025436,0.0056225,0.10047,0.043625
593,0.075781,0.131,0.042326,0.031932,-0.010618,0.080328,0.044275
594,0.083251,0.12418,0.042651,0.036154,-0.020037,0.059865,0.040377
595,0.082602,0.10891,0.042975,0.032906,-0.026209,0.040052,0.034855
596,0.071883,0.089748,0.042651,0.022188,-0.035628,0.017965,0.029983
597,0.054344,0.071234,0.042975,0.012119,-0.046022,-0.0024977,0.022512
598,0.036804,0.053694,0.046223,0.0088706,-0.053817,-0.020687,0.014392
599,0.024137,0.038103,0.050771,0.013743,-0.055116,-0.035303,0.014068
600,0.01829,0.022188,0.053694,0.022837,-0.050894,-0.046996,0.020239
601,0.01764,0.0085458,0.055968,0.029333,-0.043748,-0.060638,0.028684
602,0.01829,-0.0034721,0.060515,0.030633,-0.036602,-0.082725,0.036154
603,0.015692,-0.01549,0.066686,0.023487,-0.027508,-0.11651,0.041351
604,0.0065969,-0.026533,0.071558,0.015042,-0.0057458,-0.15678,0.042326
605,-0.0060706,-0.036927,0.075131,0.008221,0.036479,-0.19381,0.041027
606,-0.021337,-0.045372,0.074157,0.00075039,0.092671,-0.21817,0.038428
607,-0.03238,-0.050244,0.064737,-0.0034721,0.15211,-0.22369,0.03583
608,-0.036927,-0.04992,0.049796,-0.0067202,0.2044,-0.2081,0.033231
609,-0.036278,-0.045372,0.038103,-0.0099683,0.24241,-0.17627,0.029009
610,-0.031081,-0.037902,0.031282,-0.0083442,0.26449,-0.13567,0.023162
611,-0.02426,-0.03303,0.030957,-0.0018481,0.26937,-0.092794,0.019264
612,-0.018738,-0.027508,0.036479,0.0059473,0.2593,-0.050569,0.017965
613,-0.013541,-0.022636,0.050121,0.014068,0.23169,-0.013866,0.020239
614,-0.0083442,-0.01614,0.06831,0.020239,0.18687,0.012119,0.023812
615,-0.0047713,-0.0080194,0.083576,0.021213,0.13197,0.025761,0.025111
616,-0.00022403,0.0014,0.095594,0.013743,0.080978,0.028684,0.02641
617,0.0056225,0.012768,0.10274,0.0049729,0.05272,0.027385,0.023812
618,0.0088706,0.024786,0.10501,0.003024,0.055968,0.029983,0.022188
619,0.0088706,0.033881,0.099817,0.0085458,0.09397,0.042975,0.029658
620,0.0078962,0.038753,0.088448,0.017965,0.14789,0.066037,0.041351
621,0.0072465,0.037778,0.072533,0.027709,0.17127,0.089748,0.05142
622,0.0069217,0.034206,0.057592,0.032582,0.12807,0.10014,0.049147
623,0.0059473,0.029009,0.046223,0.03518,0.012768,0.090072,0.031607
624,0.0056225,0.02641,0.038103,0.03453,-0.15093,0.062789,0.009845
625,0.0062721,0.029983,0.034855,0.028034,-0.32016,0.030957,-0.0054209
626,0.0059473,0.038753,0.031932,0.01829,-0.45723,0.012768,-0.010293
627,0.0043233,0.048172,0.027709,0.011469,-0.53908,0.016341,-0.0021729
628,0.0039985,0.053369,0.023162,0.0069217,-0.55857,0.040702,0.016991
629,0.008221,0.050446,0.023162,0.0056225,-0.51634,0.075131,0.0433
630,0.016016,0.042001,0.028034,0.0010752,-0.42735,0.10469,0.067986
631,0.022512,0.034855,0.033231,-0.0044465,-0.31561,0.11995,0.088448
632,0.02641,0.031932,0.038428,-0.0028225,-0.19933,0.11963,0.10242
633,0.028034,0.034206,0.042975,0.0091954,-0.089546,0.10989,0.10924
634,0.026735,0.038103,0.044275,0.024786,0.016666,0.09462,0.10924
635,0.02641,0.040052,0.040052,0.037778,0.13814,0.073832,0.10274
636,0.027709,0.038103,0.029009,0.044275,0.29795,0.048497,0.092671
637,0.030308,0.032582,0.013743,0.044924,0.49413,0.023162,0.076106
638,0.037129,0.029658,0.0014,0.045249,0.68967,0.0046481,0.057267
639,0.042651,0.030957,-0.0047713,0.044275,0.83323,-0.0050961,0.042975
640,0.041676,0.032257,-0.0044465,0.038103,0.8865,-0.008669,0.037454
641,0.03518,0.029658,0.00075039,0.024461,0.8381,-0.010618,0.038753
642,0.027385,0.023162,0.0078962,0.0059473,0.70981,-0.012567,0.044599
643,0.019914,0.017316,0.010819,-0.011267,0.54708,-0.017764,0.049796
644,0.013418,0.014068,0.0088706,-0.016789,0.39344,-0.021661,0.050121
645,0.009845,0.013093,-0.00022403,-0.01484,0.27554,-0.021337,0.0433
646,0.009845,0.015042,-0.013866,-0.010293,0.19726,-0.01549,0.029983
647,0.012443,0.01829,-0.029782,-0.007045,0.15211,-0.0021729,0.011469
648,0.016016,0.020888,-0.044398,-0.0096434,0.12288,0.014392,-0.0047713
649,0.019914,0.025761,-0.059014,-0.012242,0.092671,0.029333,-0.012242
650,0.027385,0.036804,-0.074605,-0.013866,0.054993,0.037778,-0.0044465
651,0.037454,0.050771,-0.085973,-0.013866,0.0072465,0.039402,0.016016
652,0.049472,0.061489,-0.091495,-0.016789,-0.044398,0.036804,0.039727
653,0.058566,0.065387,-0.088896,-0.020362,-0.089546,0.033556,0.057917
654,0.060515,0.063113,-0.083375,-0.023285,-0.123,0.029983,0.066037
655,0.054344,0.056292,-0.077528,-0.028807,-0.14931,0.025436,0.066362
656,0.043625,0.046223,-0.072656,-0.032705,-0.1701,0.023162,0.061814
657,0.030308,0.03583,-0.068434,-0.026858,-0.18666,0.025436,0.058891
658,0.017316,0.029658,-0.063561,-0.013866,-0.19576,0.032582,0.057267
659,0.0078962,0.029009,-0.061288,-0.0021729,-0.19413,0.0433,0.052395
660,0.0052977,0.033881,-0.061288,0.00042559,-0.18309,0.058566,0.045574
661,0.0072465,0.038428,-0.062587,-0.0034721,-0.16295,0.073507,0.036804
662,0.010819,0.038103,-0.062587,-0.010293,-0.12852,0.08585,0.027709
663,0.011144,0.031932,-0.057715,-0.013216,-0.076879,0.089423,0.022837
664,0.0095202,0.020888,-0.048945,-0.010618,-0.015165,0.08585,0.022837
665,0.0072465,0.0069217,-0.038227,-0.0021729,0.044275,0.076755,0.029009
666,0.0078962,-0.0044465,-0.025884,0.0062721,0.089423,0.066362,0.036479
667,0.0078962,-0.0041217,-0.017439,0.012768,0.11443,0.062464,0.039727
668,0.0062721,0.0078962,-0.011917,0.016341,0.11866,0.065387,0.038428
669,0.0023744,0.023162,-0.0076946,0.017316,0.10339,0.073182,0.030957
670,-0.0024977,0.032257,-0.0050961,0.015042,0.070259,0.083251,0.017965
671,-0.0047713,0.032582,-0.0021729,0.014392,0.01764,0.089098,0.0046481
672,-0.0050961,0.027709,0.0039985,0.021863,-0.049595,0.091047,0.00075039
673,-0.0037969,0.027385,0.014392,0.039078,-0.12463,0.085525,0.011794
674,-0.0044465,0.033231,0.02706,0.058891,-0.19706,0.075456,0.032906
675,-0.0034721,0.042001,0.041351,0.070259,-0.25585,0.063113,0.053369
676,0.0026992,0.049796,0.057592,0.070584,-0.29353,0.047198,0.063113
677,0.012443,0.05207,0.076431,0.068635,-0.31042,0.024786,0.056942
678,0.021213,0.044924,0.095594,0.070909,-0.31236,-0.0034721,0.039402
679,0.021863,0.03518,0.11183,0.077405,-0.30912,-0.034978,0.020888
680,0.013743,0.02641,0.12093,0.0865,-0.30002,-0.062912,0.011794
681,0.0023744,0.021863,0.1232,0.091696,-0.27728,-0.081101,0.011794
682,-0.0060706,0.016991,0.12223,0.090722,-0.23571,-0.089221,0.015692
683,-0.0080194,0.012768,0.11898,0.080653,-0.17854,-0.09117,0.015367
684,-0.0021729,0.0062721,0.11411,0.067661,-0.11618,-0.093119,0.01017
685,0.0075714,-0.0024977,0.10891,0.056292,-0.06551,-0.098641,0.0039985
686,0.018615,-0.0057458,0.10371,0.049472,-0.028157,-0.10774,-0.0041217
687,0.026735,0.0049729,0.098842,0.048822,-0.0034721,-0.11845,-0.013216
688,0.031607,0.02706,0.092996,0.05207,0.016016,-0.13015,-0.025559
689,0.036479,0.053044,0.088448,0.05272,0.036479,-0.14152,-0.042774
690,0.041676,0.073507,0.0852,0.051096,0.059216,-0.14899,-0.057065
691,0.048822,0.081627,0.084876,0.049472,0.082277,-0.15451,-0.063886
692,0.054993,0.075781,0.084551,0.049796,0.10047,-0.15938,-0.058365
693,0.058241,0.058566,0.080978,0.047847,0.10859,-0.16425,-0.038876
694,0.057917,0.035505,0.072208,0.039727,0.10112,-0.16815,-0.011917
695,0.054993,0.01764,0.059216,0.030957,0.074806,-0.16847,0.015692
696,0.047198,0.0056225,0.049796,0.025111,0.033881,-0.15743,0.037454
697,0.037129,-0.0031473,0.046873,0.022188,-0.016789,-0.1308,0.050446
698,0.026735,-0.010618,0.050121,0.025436,-0.078503,-0.087597,0.049796
699,0.019589,-0.016789,0.059865,0.036804,-0.16588,-0.032705,0.03453
700,0.015042,-0.021661,0.070909,0.054993,-0.29937,0.021213,0.0039985
701,0.0088706,-0.026209,0.079354,0.074806,-0.47899,0.067011,-0.038227
702,-0.0031473,-0.027508,0.081952,0.090397,-0.67387,0.10339,-0.082725
703,-0.015815,-0.023285,0.076755,0.094295,-0.8366,0.14107,-0.11813
704,-0.025884,-0.01484,0.063438,0.087474,-0.92105,0.18199,-0.13145
705,-0.034978,-0.0076946,0.048172,0.07708,-0.90676,0.22844,-0.1217
706,-0.040175,-0.0044465,0.038428,0.067986,-0.81029,0.27651,-0.096042
707,-0.042449,-0.0041217,0.03453,0.060515,-0.67615,0.31841,-0.064211
708,-0.039851,-0.0076946,0.036804,0.053694,-0.54817,0.34732,-0.037577
709,-0.034004,-0.010943,0.044599,0.044924,-0.45463,0.35544,-0.02426
710,-0.025559,-0.0089938,0.05272,0.033231,-0.39681,0.33952,-0.025884
711,-0.016789,-0.00087364,0.053369,0.022188,-0.35914,0.30347,-0.039201
712,-0.0096434,0.009845,0.043625,0.010495,-0.32016,0.25572,-0.055116
713,-0.0047713,0.019264,0.028034,0.00010078,-0.25942,0.2044,-0.064861
714,-0.0047713,0.023162,0.01017,-0.0076946,-0.17107,0.15276,-0.064211
715,-0.0054209,0.017316,-0.0096434,-0.017764,-0.065186,0.10404,-0.056091
716,-0.007045,0.0039985,-0.031081,-0.025234,0.055968,0.061165,-0.047646
717,-0.0076946,-0.010618,-0.047646,-0.025884,0.19141,0.02706,-0.038227
718,-0.0037969,-0.021661,-0.059989,-0.019712,0.34602,0.00010078,-0.031081
719,-0.0011985,-0.021012,-0.070382,-0.013866,0.52077,-0.022961,-0.022961
720,-0.0024977,-0.013216,-0.078178,-0.01484,0.70818,-0.04927,-0.015165
721,-0.0083442,-0.0047713,-0.082076,-0.021337,0.90014,-0.082076,-0.014191
722,-0.015815,0.00010078,-0.083375,-0.024909,1.0863,-0.12495,-0.022311
723,-0.025559,0.0033489,-0.0837,-0.021012,1.2422,-0.17042,-0.040825
724,-0.034978,0.0062721,-0.082725,-0.0099683,1.3344,-0.21265,-0.063561
725,-0.038551,0.0033489,-0.075904,0.0033489,1.3451,-0.23993,-0.080451
726,-0.034654,-0.0044465,-0.066485,0.014717,1.2766,-0.2474,-0.084674
727,-0.022311,-0.011267,-0.060963,0.024137,1.1496,-0.23603,-0.076554
728,-0.007045,-0.012567,-0.059989,0.029333,0.99239,-0.2107,-0.060638
729,0.0075714,-0.010293,-0.062262,0.031607,0.82739,-0.18147,-0.037252
730,0.017965,-0.0083442,-0.063886,0.030957,0.66563,-0.15353,-0.0080194
731,0.022188,-0.0089938,-0.064861,0.028684,0.51362,-0.13177,0.024137
732,0.023812,-0.011267,-0.068434,0.026085,0.36908,-0.11488,0.05207
733,0.024137,-0.011917,-0.07428,0.024137,0.23396,-0.097991,0.071558
734,0.024461,-0.0083442,-0.080127,0.021213,0.10371,-0.075579,0.0852
735,0.026735,-0.0011985,-0.082725,0.021213,-0.020687,-0.047971,0.092996
736,0.029658,0.0046481,-0.0824,0.021538,-0.1308,-0.020687,0.093645
737,0.032582,0.0043233,-0.082725,0.020239,-0.2172,-0.0028225,0.085525
738,0.034855,0.003024,-0.082076,0.016666,-0.27436,-0.0018481,0.067661
739,0.03453,0.0075714,-0.076229,0.012443,-0.30457,-0.017439,0.040377
740,0.029009,0.019589,-0.063237,0.0088706,-0.32016,-0.043099,0.012443
741,0.01829,0.032906,-0.046996,0.0069217,-0.33478,-0.068434,-0.0063954
742,0.0078962,0.0433,-0.03303,0.0056225,-0.35134,-0.084349,-0.011267
743,0.0014,0.047523,-0.025559,0.0033489,-0.35654,-0.09117,-0.0028225
744,0.0020496,0.044599,-0.024585,0.0014,-0.34322,-0.090196,0.010819
745,0.009845,0.03583,-0.025559,-0.0024977,-0.30652,-0.083375,0.023162
746,0.022188,0.024461,-0.023285,-0.0096434,-0.25845,-0.070707,0.034206
747,0.03583,0.014068,-0.017114,-0.017114,-0.21005,-0.056091,0.0433
748,0.050771,0.0085458,-0.0096434,-0.019388,-0.17692,-0.040825,0.05207
749,0.061165,0.010819,-0.0015233,-0.011917,-0.16815,-0.02426,0.061814
750,0.062464,0.022512,0.0043233,0.003024,-0.18829,-0.0080194,0.072208
751,0.054993,0.039727,0.012768,0.020239,-0.22597,0.0069217,0.080978
752,0.043625,0.056942,0.023162,0.034855,-0.26332,0.016341,0.082602
753,0.03583,0.066362,0.036804,0.04395,-0.28963,0.01894,0.075131
754,0.036804,0.067336,0.047847,0.046873,-0.30067,0.01894,0.063763
755,0.041351,0.062464,0.054344,0.0433,-0.30002,0.021538,0.050446
756,0.043625,0.053694,0.056617,0.032906,-0.2919,0.031282,0.041676
757,0.040702,0.045899,0.056942,0.017316,-0.28248,0.048497,0.040702
758,0.03518,0.038428,0.06084,0.0014,-0.27566,0.070584,0.046223
759,0.029658,0.030633,0.066686,-0.010293,-0.27209,0.092346,0.054344
760,0.026735,0.025111,0.075131,-0.0083442,-0.27111,0.10891,0.062789
761,0.026085,0.025761,0.0852,0.0052977,-0.27046,0.12255,0.069285
762,0.02641,0.030308,0.093321,0.030308,-0.26169,0.13847,0.077405
763,0.026085,0.031607,0.096244,0.057917,-0.23961,0.15568,0.087799
764,0.026085,0.029009,0.091047,0.078379,-0.19706,0.1755,0.099167
765,0.025436,0.024137,0.080003,0.086824,-0.12008,0.19693,0.10599
766,0.023487,0.020239,0.068635,0.084551,0.0023744,0.2135,0.10534
767,0.020239,0.017316,0.064088,0.079354,0.17127,0.22097,0.097543
768,0.017316,0.016341,0.073832,0.074806,0.36746,0.21902,0.084551
769,0.016991,0.017965,0.093645,0.067011,0.55844,0.20895,0.072533
770,0.021863,0.023487,0.10989,0.057917,0.69811,0.18849,0.066686
771,0.029983,0.031607,0.11963,0.051096,0.75041,0.16088,0.067986
772,0.037778,0.039402,0.12288,0.046873,0.70916,0.13067,0.078055
773,0.042975,0.045899,0.11898,0.046548,0.59482,0.10664,0.090397
774,0.042975,0.048497,0.10534,0.044599,0.45126,0.092671,0.098193
775,0.039078,0.049472,0.087149,0.033231,0.31614,0.0852,0.095594
776,0.031932,0.048172,0.067986,0.016341,0.21155,0.072208,0.084226
777,0.021538,0.043625,0.054668,0.0052977,0.14074,0.047847,0.071558
778,0.012119,0.031932,0.047198,0.0043233,0.098842,0.016016,0.061489
779,0.01017,0.014068,0.046223,0.0078962,0.070259,-0.010943,0.057917
780,0.011794,-0.0011985,0.047847,0.0049729,0.039727,-0.022636,0.060515
781,0.016666,-0.0099683,0.05272,-0.0093186,0.0046481,-0.01614,0.065712
782,0.023812,-0.014191,0.056292,-0.027183,-0.028482,0.0033489,0.067661
783,0.027709,-0.014516,0.054993,-0.034004,-0.057065,0.028684,0.065387
784,0.026085,-0.011267,0.046548,-0.023935,-0.085973,0.055968,0.058891
785,0.022188,-0.0050961,0.037778,-0.0018481,-0.123,0.079354,0.048822
786,0.014068,0.0023744,0.03453,0.01829,-0.16945,0.09462,0.03583
787,0.0023744,0.0075714,0.037454,0.023162,-0.21102,0.10274,0.01829
788,-0.0093186,0.009845,0.042326,0.01017,-0.22986,0.10404,-0.0028225
789,-0.016789,0.012119,0.045574,-0.0099683,-0.21622,0.10242,-0.022961
790,-0.016789,0.019264,0.041027,-0.021337,-0.17335,0.099167,-0.035303
791,-0.0089938,0.030308,0.032906,-0.021986,-0.11683,0.092996,-0.035303
792,0.008221,0.04395,0.026085,-0.019063,-0.071682,0.079679,-0.024909
793,0.031282,0.058566,0.025111,-0.015165,-0.060313,0.057267,-0.0080194
794,0.052395,0.071883,0.029333,-0.007045,-0.093119,0.028359,0.012119
795,0.067336,0.081952,0.030633,0.0043233,-0.16458,-0.0031473,0.026735
796,0.071883,0.090722,0.026735,0.013418,-0.25682,-0.032705,0.032582
797,0.066686,0.094945,0.01894,0.01829,-0.34257,-0.055116,0.025436
798,0.055968,0.090722,0.011144,0.01894,-0.39584,-0.068758,0.01017
799,0.047198,0.083576,0.0052977,0.020239,-0.40493,-0.076554,-0.010293
800,0.046873,0.07773,-0.0011985,0.02641,-0.37408,-0.079802,-0.027508
801,0.053044,0.071234,-0.008669,0.035505,-0.32633,-0.079802,-0.029782
802,0.06084,0.064737,-0.017439,0.048172,-0.28378,-0.079152,-0.014191
803,0.062464,0.059865,-0.025559,0.059865,-0.26072,-0.079477,0.015692
804,0.058241,0.055968,-0.029782,0.064413,-0.26169,-0.0837,0.046873
805,0.053369,0.053694,-0.030756,0.053044,-0.28118,-0.093444,0.068635
806,0.050121,0.050446,-0.030431,0.031932,-0.30067,-0.10286,0.073507
807,0.044599,0.043625,-0.03173,0.015692,-0.2854,-0.11033,0.063438
808,0.036154,0.03518,-0.033679,0.012443,-0.2042,-0.11001,0.050121
809,0.026735,0.026085,-0.037902,0.01894,-0.063237,-0.09929,0.042651
810,0.020564,0.01894,-0.044073,0.025111,0.10469,-0.0824,0.042326
811,0.019589,0.013093,-0.052518,0.026085,0.26969,-0.067134,0.04395
812,0.023812,0.011144,-0.058689,0.021863,0.40741,-0.058689,0.044275
813,0.032257,0.01017,-0.059989,0.015367,0.50648,-0.057715,0.043625
814,0.040702,0.010819,-0.062912,0.012119,0.56786,-0.062587,0.039727
815,0.045899,0.013093,-0.068758,0.01017,0.60229,-0.07428,0.029983
816,0.043625,0.016991,-0.078178,0.0046481,0.62341,-0.086623,0.016016
817,0.032906,0.016991,-0.087272,-0.0050961,0.63835,-0.095393,-0.00087364
818,0.017965,0.013418,-0.094743,-0.013216,0.64419,-0.098641,-0.017439
819,-0.0011985,0.008221,-0.097341,-0.019712,0.62828,-0.092794,-0.028482
820,-0.017114,-0.0018481,-0.093769,-0.025559,0.58151,-0.077203,-0.028482
821,-0.027833,-0.015165,-0.087272,-0.031081,0.50128,-0.051544,-0.018088
822,-0.032705,-0.027183,-0.082725,-0.037577,0.39312,-0.020037,-0.0015233
823,-0.030756,-0.032055,-0.080127,-0.040175,0.27132,0.012119,0.015042
824,-0.025559,-0.032055,-0.075255,-0.037902,0.15698,0.038753,0.030308
825,-0.02426,-0.028807,-0.071682,-0.03173,0.068635,0.055318,0.040052
826,-0.029132,-0.020037,-0.071682,-0.02426,0.014717,0.062464,0.042001
827,-0.03303,-0.0060706,-0.073631,-0.018088,-0.0067202,0.064088,0.034206
828,-0.031406,0.0075714,-0.071357,-0.01614,-0.0060706,0.062789,0.022837
829,-0.025234,0.01829,-0.062262,-0.014516,0.0020496,0.057917,0.011144
830,-0.016464,0.030308,-0.045372,-0.007045,0.0078962,0.05207,0.0059473
831,-0.0076946,0.042326,-0.023285,0.0065969,0.0088706,0.047847,0.012119
832,-0.00022403,0.055318,0.00010078,0.023487,-0.00022403,0.046223,0.023812
833,0.0065969,0.065387,0.019914,0.04395,-0.017764,0.044924,0.032582
834,0.013743,0.06896,0.033881,0.063438,-0.040825,0.040052,0.029333
835,0.020888,0.064413,0.042651,0.073832,-0.068109,0.029658,0.013418
836,0.020564,0.058241,0.047523,0.073507,-0.10026,0.016991,-0.0054209
837,0.014717,0.051096,0.05142,0.069934,-0.13437,0.0062721,-0.011917
838,0.0085458,0.046223,0.057267,0.067011,-0.1636,-0.0015233,-0.0018481
839,0.0062721,0.043625,0.066362,0.069934,-0.18212,-0.007045,0.015367
840,0.011794,0.040052,0.073832,0.07708,-0.19543,-0.016464,0.029333
841,0.020239,0.037778,0.080328,0.088124,-0.20778,-0.032055,0.03583
842,0.028034,0.037454,0.089423,0.10014,-0.22402,-0.04862,0.03453
843,0.032906,0.040702,0.10177,0.11313,-0.24091,-0.063237,0.027709
844,0.037129,0.050446,0.11573,0.12158,-0.25975,-0.072656,0.019914
845,0.041027,0.062464,0.12613,0.1206,-0.27826,-0.076229,0.014717
846,0.046873,0.06961,0.131,0.11248,-0.29742,-0.077853,0.012119
847,0.049472,0.067986,0.12743,0.10242,-0.31886,-0.084674,0.0062721
848,0.048497,0.06084,0.11703,0.092671,-0.33835,-0.10319,-0.007045
849,0.044599,0.050121,0.10826,0.083576,-0.34744,-0.12982,-0.025234
850,0.038103,0.040702,0.10794,0.079029,-0.3403,-0.15516,-0.047971
851,0.028034,0.035505,0.11411,0.084226,-0.32113,-0.1727,-0.069733
852,0.015367,0.034855,0.12093,0.098517,-0.29482,-0.17887,-0.086298
853,0.003024,0.038428,0.12483,0.11378,-0.26787,-0.17627,-0.09929
854,-0.010618,0.037778,0.1245,0.11963,-0.23896,-0.16782,-0.10806
855,-0.02426,0.030308,0.12125,0.11118,-0.2068,-0.15516,-0.11001
856,-0.034978,0.017965,0.11183,0.091372,-0.17562,-0.13762,-0.10124
857,-0.040825,0.0033489,0.10177,0.065387,-0.14346,-0.11521,-0.087922
858,-0.042449,-0.011267,0.094945,0.042975,-0.10871,-0.087597,-0.079802
859,-0.039526,-0.018088,0.092671,0.028684,-0.071682,-0.059014,-0.0824
860,-0.03303,-0.01614,0.092346,0.022837,-0.035628,-0.034004,-0.094093
861,-0.027183,-0.010943,0.088448,0.020239,0.00075039,-0.018738,-0.11228
862,-0.025234,-0.0089938,0.079354,0.014068,0.03583,-0.013866,-0.13015
863,-0.024909,-0.010943,0.065712,0.0056225,0.056942,-0.015815,-0.14119
864,-0.025234,-0.015815,0.054019,0.00042559,0.053369,-0.021012,-0.14119
865,-0.026209,-0.021012,0.046548,0.0056225,0.023162,-0.024585,-0.13047
866,-0.023935,-0.024909,0.044924,0.019589,-0.019388,-0.023285,-0.11033
867,-0.018088,-0.029457,0.045574,0.034206,-0.050244,-0.01484,-0.084999
868,-0.012567,-0.033354,0.039078,0.045574,-0.055116,-0.00022403,-0.057065
869,-0.010293,-0.031406,0.028034,0.049796,-0.032055,0.022512,-0.03173
870,-0.010618,-0.025234,0.016666,0.043625,0.01764,0.050121,-0.013541
871,-0.010943,-0.01614,0.0078962,0.026735,0.088124,0.075781,-0.0057458
872,-0.012567,-0.007045,-0.0031473,0.008221,0.1651,0.098193,-0.0063954
873,-0.016789,-0.0028225,-0.015165,-0.0054209,0.22682,0.11801,-0.010943
874,-0.021661,-0.0031473,-0.026533,-0.010293,0.24728,0.13944,-0.01549
875,-0.02361,-0.0060706,-0.031406,-0.0089938,0.21252,0.16056,-0.013541
876,-0.020362,-0.0073698,-0.029782,-0.010943,0.1336,0.17712,0.00042559
877,-0.013216,-0.0018481,-0.024909,-0.020037,0.042326,0.18524,0.024137
878,-0.0034721,0.0052977,-0.020687,-0.030756,-0.02361,0.18362,0.050771
879,0.0072465,0.010495,-0.021012,-0.0405,-0.046671,0.17745,0.074157
880,0.019264,0.011794,-0.027833,-0.046022,-0.029132,0.16868,0.091047
881,0.030957,0.0065969,-0.038876,-0.046671,0.014392,0.15991,0.098517
882,0.038103,-0.0050961,-0.048945,-0.042774,0.062789,0.15471,0.097218
883,0.039078,-0.017114,-0.057065,-0.039201,0.10339,0.15893,0.091696
884,0.03583,-0.02426,-0.063886,-0.034004,0.12775,0.17517,0.082927
885,0.033556,-0.019063,-0.065186,-0.030106,0.13684,0.19921,0.073832
886,0.037454,-0.0031473,-0.059339,-0.022961,0.13652,0.22065,0.072533
887,0.046873,0.017965,-0.049595,-0.0080194,0.13035,0.23006,0.080653
888,0.058891,0.038428,-0.039851,0.010495,0.12483,0.22454,0.091047
889,0.071883,0.051096,-0.034329,0.024461,0.1245,0.2083,0.097218
890,0.084551,0.05272,-0.035303,0.030308,0.14107,0.19011,0.097868
891,0.089748,0.048172,-0.040825,0.031282,0.18589,0.17615,0.098517
892,0.0852,0.045249,-0.045047,0.026735,0.25475,0.16933,0.096569
893,0.06831,0.049472,-0.044723,0.01894,0.32458,0.169,0.092671
894,0.0433,0.054019,-0.040175,0.013743,0.36811,0.17095,0.088773
895,0.019914,0.05207,-0.035953,0.011144,0.36616,0.1716,0.082927
896,0.0088706,0.042001,-0.034004,0.014392,0.31289,0.169,0.075131
897,0.0091954,0.028359,-0.037577,0.019914,0.22552,0.15893,0.070909
898,0.016666,0.016016,-0.047971,0.019589,0.13457,0.14107,0.067661
899,0.022512,0.0091954,-0.059664,0.011469,0.065062,0.1206,0.061165
900,0.02706,0.0075714,-0.06616,0.00010078,0.022512,0.10209,0.049472
901,0.031932,0.0072465,-0.064211,-0.013541,-0.00087364,0.080978,0.037129
902,0.03453,0.0056225,-0.057065,-0.022961,-0.013866,0.052395,0.026735
903,0.031932,0.0010752,-0.051544,-0.027833,-0.024585,0.0075714,0.023162
904,0.024786,-0.0063954,-0.049595,-0.031406,-0.035303,-0.058365,0.025111
905,0.015042,-0.010618,-0.053168,-0.034654,-0.041475,-0.13502,0.027709
906,0.0056225,-0.012242,-0.057715,-0.037577,-0.035628,-0.20453,0.02706
907,0.0052977,-0.013216,-0.05804,-0.039851,-0.014516,-0.2474,0.02706
908,0.0095202,-0.011917,-0.052193,-0.04115,0.016016,-0.26007,0.026735
909,0.016666,-0.0080194,-0.045047,-0.044398,0.049472,-0.25065,0.023487
910,0.01829,-0.0047713,-0.040825,-0.052518,0.07708,-0.22889,0.014717
911,0.015042,-0.0031473,-0.038227,-0.060963,0.096893,-0.2029,0.0026992
912,0.010495,-0.0028225,-0.030431,-0.060313,0.10501,-0.17302,-0.0050961
913,0.0078962,-0.0028225,-0.018738,-0.047971,0.097218,-0.14054,-0.0073698
914,0.01017,-0.0015233,-0.0054209,-0.029132,0.07708,-0.10644,-0.0050961
915,0.020239,0.00075039,0.0039985,-0.010293,0.055643,-0.077853,0.0026992
916,0.03583,0.0085458,0.0085458,0.0078962,0.040702,-0.053168,0.012119
917,0.048172,0.022188,0.011469,0.025111,0.038103,-0.036602,0.01764
918,0.05207,0.038103,0.01829,0.032906,0.046548,-0.022311,0.018615
919,0.053694,0.050446,0.027709,0.033881,0.056617,-0.0041217,0.014392
920,0.053694,0.050121,0.038753,0.036479,0.059216,0.025436,0.01017
921,0.05142,0.041351,0.051745,0.042651,0.054019,0.062464,0.009845
922,0.049147,0.030308,0.066686,0.046223,0.045574,0.097218,0.015042
923,0.046548,0.016666,0.0852,0.047847,0.037129,0.11963,0.025111
924,0.037454,0.0049729,0.10014,0.05142,0.025111,0.12548,0.033881
925,0.01764,-0.0034721,0.10631,0.055643,0.0036737,0.11411,0.033556
926,-0.0054209,-0.0063954,0.10501,0.059865,-0.033679,0.092021,0.015692
927,-0.023285,-0.0015233,0.10014,0.065062,-0.077203,0.063438,-0.012242
928,-0.033354,0.009845,0.092346,0.068635,-0.11618,0.03583,-0.039201
929,-0.034004,0.022837,0.083251,0.067661,-0.13697,0.012768,-0.052843
930,-0.025234,0.03518,0.078704,0.066037,-0.13307,-0.00054884,-0.050894
931,-0.0096434,0.045899,0.083576,0.070584,-0.09994,-0.0083442,-0.036278
932,0.0088706,0.053369,0.095594,0.087799,-0.045047,-0.013216,-0.01614
933,0.02706,0.061165,0.10989,0.11346,0.015042,-0.016789,0.0026992
934,0.040377,0.073507,0.1219,0.13652,0.060515,-0.022311,0.01764
935,0.049147,0.090072,0.12807,0.15016,0.068635,-0.029457,0.030957
936,0.054668,0.10696,0.12807,0.15341,0.020564,-0.034004,0.0433
937,0.057917,0.1206,0.12743,0.14691,-0.080451,-0.029782,0.055968
938,0.058891,0.13165,0.12807,0.14009,-0.21135,-0.021012,0.063438
939,0.056942,0.13392,0.1258,0.1349,-0.34062,-0.011267,0.063763
940,0.05142,0.12743,0.11833,0.13327,-0.44521,-0.0034721,0.059541
941,0.041027,0.11086,0.10469,0.13262,-0.5079,-0.00022403,0.053694
942,0.02706,0.090072,0.088448,0.12613,-0.51732,-0.00054884,0.048822
943,0.013418,0.06961,0.071234,0.11378,-0.47802,-0.0037969,0.05142
944,0.0049729,0.05142,0.057267,0.096244,-0.40786,-0.0073698,0.063438
945,0.0036737,0.036479,0.04395,0.076106,-0.3364,-0.014191,0.081303
946,0.0088706,0.024137,0.030957,0.058241,-0.28898,-0.027183,0.10242
947,0.015367,0.01894,0.015367,0.04395,-0.27891,-0.045697,0.11963
948,0.019914,0.022188,-0.0011985,0.03518,-0.30067,-0.065186,0.12353
949,0.023812,0.029333,-0.015165,0.030633,-0.3312,-0.081751,0.11541
950,0.032906,0.038428,-0.025234,0.028034,-0.34225,-0.094093,0.10112
951,0.048822,0.044924,-0.029782,0.031607,-0.31301,-0.10254,0.0852
952,0.065062,0.049472,-0.028482,0.040377,-0.24188,-0.10838,0.069934
953,0.07773,0.050771,-0.021012,0.042001,-0.14119,-0.11293,0.059541
954,0.080328,0.046223,-0.013216,0.031607,-0.03303,-0.11813,0.054019
955,0.070259,0.033881,-0.011267,0.017965,0.062789,-0.1204,0.048822
956,0.046873,0.012443,-0.018413,0.0036737,0.13522,-0.1217,0.040377
957,0.015367,-0.012567,-0.029782,-0.0083442,0.18719,-0.12398,0.020239
958,-0.017114,-0.03173,-0.041799,-0.018738,0.22844,-0.12982,-0.0060706
959,-0.045697,-0.042449,-0.052518,-0.031081,0.2593,-0.13242,-0.031081
960,-0.06616,-0.045697,-0.063237,-0.044398,0.27684,-0.12755,-0.047646
961,-0.073955,-0.042774,-0.07493,-0.057715,0.28496,-0.11423,-0.054467
962,-0.073306,-0.03303,-0.085324,-0.068758,0.27976,-0.098641,-0.052518
963,-0.068434,-0.021012,-0.093444,-0.077528,0.2593,-0.084024,-0.046022
964,-0.059989,-0.010618,-0.097017,-0.081426,0.23266,-0.070382,-0.037252
965,-0.048945,-0.00054884,-0.096692,-0.079802,0.21123,-0.057715,-0.025884
966,-0.033679,0.009845,-0.094743,-0.076879,0.19888,-0.047321,-0.008669
967,-0.016464,0.017965,-0.092145,-0.070382,0.20116,-0.037902,0.016666
968,0.0020496,0.019589,-0.085973,-0.05804,0.22292,-0.023285,0.049472
969,0.019589,0.013418,-0.076554,-0.043423,0.25605,-0.0021729,0.088124
970,0.036479,0.0046481,-0.059989,-0.030431,0.27749,0.022837,0.12223
971,0.051745,0.0014,-0.042449,-0.024585,0.26709,0.047198,0.14432
972,0.064413,0.0056225,-0.031081,-0.022311,0.21155,0.069285,0.15146
973,0.072858,0.01764,-0.029457,-0.018738,0.10891,0.090072,0.14139
974,0.079354,0.03518,-0.034004,-0.011917,-0.027833,0.11118,0.11768
975,0.082277,0.050771,-0.038876,-0.0034721,-0.18082,0.13327,0.090722
976,0.084876,0.061814,-0.041799,0.0014,-0.33185,0.14886,0.068635
977,0.084876,0.065062,-0.040825,0.0085458,-0.4686,0.14756,0.052395
978,0.081952,0.064413,-0.034978,0.020564,-0.56344,0.12223,0.039402
979,0.077405,0.062139,-0.018088,0.032582,-0.5891,0.076106,0.030957
980,0.071558,0.061165,0.0056225,0.037129,-0.53811,0.026085,0.023487
981,0.064737,0.059865,0.028359,0.029333,-0.42475,-0.015165,0.012768
982,0.056942,0.054668,0.044275,0.01829,-0.27144,-0.044398,-0.0034721
983,0.045249,0.044599,0.050771,0.012119,-0.10221,-0.063237,-0.022961
984,0.029983,0.031932,0.048822,0.0091954,0.067011,-0.079152,-0.044723
985,0.013743,0.017965,0.042651,0.0043233,0.2148,-0.095717,-0.06681
986,0.00010078,0.0052977,0.037129,-0.00054884,0.31679,-0.11456,-0.087272
987,-0.011592,-0.0050961,0.030633,-0.00022403,0.35966,-0.13047,-0.10319
988,-0.020037,-0.0089938,0.02641,0.0069217,0.35414,-0.13827,-0.11456
989,-0.026209,-0.0093186,0.026085,0.017965,0.32751,-0.1334,-0.12722
990,-0.028157,-0.007045,0.028034,0.02706,0.31094,-0.11293,-0.13794
991,-0.026858,-0.0028225,0.031932,0.030633,0.31971,-0.071032,-0.14087
992,-0.021986,-0.0018481,0.033231,0.029333,0.36713,-0.010618,-0.13112
993,-0.01614,-0.0015233,0.034206,0.022512,0.46133,0.067336,-0.11488
994,-0.013866,-0.0024977,0.034206,0.016016,0.59547,0.15406,-0.095717
995,-0.013541,0.00010078,0.03583,0.015042,0.73352,0.23494,-0.073306
996,-0.011592,0.0014,0.038428,0.01764,0.82966,0.29015,-0.046022
997,-0.0057458,0.0017248,0.042326,0.021213,0.84493,0.31094,-0.01614
998,0.0020496,0.0023744,0.043625,0.020239,0.76632,0.29957,0.008221
999,0.0046481,0.0023744,0.044275,0.016016,0.60652,0.27067,0.012443
1000,-0.0054209,0.00010078,0.041676,0.011794,0.40286,0.23656,-0.011592
1001,-0.023285,-0.0037969,0.039402,0.010495,0.19499,0.20181,-0.058365
1002,-0.038551,-0.011917,0.036804,0.013418,0.011144,0.1677,-0.10806
1003,-0.046022,-0.02426,0.036154,0.01829,-0.13372,0.13814,-0.14249
1004,-0.045697,-0.034978,0.036154,0.023812,-0.22856,0.11411,-0.15451
1005,-0.039526,-0.0405,0.038103,0.027385,-0.26754,0.089423,-0.14411
1006,-0.030106,-0.038551,0.045249,0.021863,-0.25812,0.059541,-0.11521
1007,-0.020687,-0.030756,0.057592,0.010819,-0.21427,0.028034,-0.079152
1008,-0.018088,-0.020037,0.070259,0.0010752,-0.15808,0.00010078,-0.046347
1009,-0.021337,-0.0063954,0.078379,-0.0031473,-0.10481,-0.022961,-0.021012
1010,-0.021986,0.0091954,0.078704,0.00042559,-0.064861,-0.042774,-0.0034721
1011,-0.018738,0.022837,0.076431,0.0088706,-0.026858,-0.060963,0.0049729
1012,-0.015815,0.031607,0.075456,0.015367,0.051096,-0.082725,0.0049729
1013,-0.014516,0.031282,0.078055,0.016341,0.20213,-0.10806,0.00042559
1014,-0.014191,0.02641,0.081303,0.015042,0.41001,-0.13015,-0.0028225
1015,-0.011917,0.022837,0.084551,0.022188,0.59093,-0.14476,-0.0018481
1016,-0.0037969,0.026085,0.087799,0.040377,0.64679,-0.15321,0.0033489
1017,0.0091954,0.036804,0.089098,0.06084,0.52531,-0.15386,0.011144
1018,0.026735,0.050446,0.0865,0.073832,0.25053,-0.14606,0.021863
1019,0.041676,0.061489,0.083901,0.073182,-0.096042,-0.13437,0.036804
1020,0.050121,0.06961,0.083251,0.061489,-0.41825,-0.12138,0.049796
1021,0.05207,0.073832,0.081303,0.047198,-0.65081,-0.11033,0.059541
1022,0.051096,0.076431,0.077405,0.03518,-0.78333,-0.098641,0.071234
1023,0.050121,0.078379,0.071883,0.028684,-0.82556,-0.084024,0.086824
1024,0.054344,0.080653,0.067011,0.037454,-0.77229,-0.065186,0.10826
1025,0.064088,0.082277,0.072533,0.064737,-0.60047,-0.038227,0.13782
1026,0.076106,0.084226,0.088124,0.10631,-0.31139,-0.00054884,0.1677
1027,0.088448,0.090722,0.10209,0.14984,0.030633,0.045574,0.19141
1028,0.096893,0.095594,0.10664,0.17972,0.31809,0.088448,0.20181
1029,0.095269,0.092671,0.10209,0.18524,0.47919,0.11833,0.19466
1030,0.081952,0.079679,0.090397,0.16868,0.49771,0.1284,0.1716
1031,0.059541,0.062464,0.075781,0.14009,0.40221,0.11703,0.13717
1032,0.032257,0.047523,0.059216,0.11021,0.23981,0.087799,0.096244
1033,0.011794,0.033881,0.04395,0.082927,0.053369,0.049147,0.057917
1034,0.0014,0.017316,0.034206,0.062789,-0.12235,0.01017,0.025436
1035,-0.0034721,-0.0067202,0.02641,0.049472,-0.25812,-0.020687,0.0014
1036,-0.010618,-0.027833,0.016341,0.044275,-0.339,-0.035628,-0.010943
1037,-0.024585,-0.037902,0.0033489,0.045249,-0.36368,-0.031406,-0.012892
1038,-0.039201,-0.034654,-0.012567,0.042975,-0.34549,-0.011917,0.00042559
1039,-0.045372,-0.024909,-0.028157,0.03518,-0.30587,0.009845,0.021863
1040,-0.039526,-0.014516,-0.042449,0.025111,-0.26234,0.025761,0.047198
1041,-0.025884,-0.0083442,-0.053168,0.012443,-0.22726,0.033231,0.06961
1042,-0.011917,-0.0047713,-0.064211,0.0026992,-0.2081,0.032582,0.0852
1043,0.0010752,-0.0060706,-0.076229,-0.0024977,-0.19998,0.02706,0.094295
1044,0.013093,-0.0076946,-0.088896,-0.0050961,-0.19771,0.020239,0.095919
1045,0.022837,-0.0096434,-0.097666,-0.010943,-0.19738,0.016666,0.096569
1046,0.031282,-0.011267,-0.10286,-0.023285,-0.19673,0.022188,0.099492
1047,0.03518,-0.016464,-0.10319,-0.034004,-0.19576,0.039727,0.10242
1048,0.03453,-0.022961,-0.10481,-0.038876,-0.19413,0.067661,0.098517
1049,0.029658,-0.025884,-0.10774,-0.039526,-0.19511,0.099817,0.088124
1050,0.023162,-0.02426,-0.11066,-0.041475,-0.19933,0.12905,0.074157
1051,0.014717,-0.021661,-0.11098,-0.047971,-0.20355,0.14854,0.059865
1052,0.0062721,-0.021337,-0.10676,-0.056416,-0.21005,0.15373,0.046873
1053,0.00075039,-0.025559,-0.098316,-0.063886,-0.22694,0.14594,0.037129
1054,0.00010078,-0.031406,-0.086948,-0.064536,-0.2539,0.12775,0.03583
1055,0.0046481,-0.031406,-0.07493,-0.055766,-0.28118,0.10534,0.04395
1056,0.012768,-0.020687,-0.067459,-0.0405,-0.2945,0.084876,0.059541
1057,0.024786,-0.0018481,-0.063886,-0.025234,-0.27988,0.073182,0.076755
1058,0.039078,0.018615,-0.061937,-0.013216,-0.23896,0.066686,0.086824
1059,0.050121,0.032257,-0.061288,-0.0031473,-0.18764,0.057917,0.092021
1060,0.054668,0.03583,-0.059014,0.0039985,-0.14119,0.040377,0.094945
1061,0.054019,0.032257,-0.051219,0.0059473,-0.10903,0.014392,0.096244
1062,0.051745,0.025761,-0.039201,0.0033489,-0.092145,-0.011592,0.094295
1063,0.050121,0.018615,-0.026533,-0.00087364,-0.088572,-0.026533,0.089748
1064,0.050771,0.015692,-0.016464,-0.0037969,-0.09182,-0.026858,0.083251
1065,0.053694,0.018615,-0.011592,-0.0067202,-0.093769,-0.014191,0.07708
1066,0.057267,0.028359,-0.013216,-0.008669,-0.093444,0.0052977,0.067336
1067,0.056617,0.041027,-0.015165,-0.0044465,-0.09117,0.028684,0.050121
1068,0.051096,0.050771,-0.013866,0.0072465,-0.09117,0.049796,0.02641
1069,0.041676,0.05207,-0.010618,0.01829,-0.086948,0.065387,0.00042559
1070,0.030957,0.045249,-0.0054209,0.025436,-0.071032,0.071234,-0.022311
1071,0.021863,0.033881,0.00075039,0.030308,-0.044073,0.071234,-0.034329
1072,0.016016,0.02641,0.0095202,0.03518,-0.013541,0.067661,-0.034654
1073,0.012768,0.024461,0.020239,0.038753,0.0078962,0.057592,-0.035303
1074,0.01017,0.027709,0.029658,0.040702,0.016016,0.042651,-0.040175
1075,0.0075714,0.03583,0.032906,0.036804,0.017965,0.023162,-0.047321
1076,0.0062721,0.042975,0.031282,0.028359,0.021538,0.0052977,-0.052518
1077,0.0065969,0.047198,0.028359,0.021863,0.037129,-0.011917,-0.053492
1078,0.0072465,0.046223,0.024786,0.021213,0.070584,-0.028807,-0.050244
1079,0.0085458,0.042651,0.024137,0.024786,0.13067,-0.048945,-0.038227
1080,0.012768,0.036154,0.027385,0.028034,0.22129,-0.071682,-0.016789
1081,0.01764,0.027709,0.03518,0.030308,0.33563,-0.087272,0.011144
1082,0.020888,0.020564,0.044275,0.032906,0.44931,-0.092145,0.037129
1083,0.020564,0.019914,0.051745,0.041351,0.52726,-0.084024,0.049147
1084,0.016991,0.02641,0.056942,0.051745,0.5474,-0.072006,0.039402
1085,0.01017,0.034206,0.059541,0.057592,0.5107,-0.055766,0.01017
1086,0.0043233,0.041351,0.061165,0.057592,0.43827,-0.039201,-0.024909
1087,0.0010752,0.049147,0.066037,0.058241,0.35609,-0.025559,-0.051868
1088,0.0026992,0.057917,0.073832,0.066686,0.28366,-0.020687,-0.063237
1089,0.0062721,0.065712,0.079354,0.077405,0.22032,-0.021012,-0.058365
1090,0.015692,0.070259,0.07773,0.083251,0.15861,-0.022311,-0.042449
1091,0.026085,0.065712,0.073832,0.077405,0.10274,-0.020362,-0.021986
1092,0.031282,0.055968,0.070259,0.066362,0.056942,-0.013541,-0.0044465
1093,0.027709,0.0433,0.067986,0.054668,0.02641,0.00075039,0.0046481
1094,0.016341,0.032582,0.067986,0.042975,0.0095202,0.020239,0.00042559
1095,-0.00022403,0.021538,0.069934,0.034855,0.0017248,0.040377,-0.020037
1096,-0.019388,0.011144,0.076106,0.032257,-0.00022403,0.054344,-0.051219
1097,-0.033679,0.0059473,0.082602,0.02706,0.0010752,0.056617,-0.080451
1098,-0.036927,0.0078962,0.08585,0.015367,0.01017,0.047198,-0.096367
1099,-0.027833,0.014717,0.083576,-0.0018481,0.028359,0.029333,-0.097017
1100,-0.014191,0.02706,0.07708,-0.01549,0.050446,0.011794,-0.090196
1101,-0.0063954,0.040702,0.070584,-0.018088,0.06896,0.00075039,-0.081751
1102,-0.0073698,0.05207,0.067336,-0.0076946,0.083576,-0.0028225,-0.071682
1103,-0.013541,0.058566,0.069934,0.011794,0.092671,-0.0015233,-0.058689
1104,-0.01614,0.057592,0.075781,0.029658,0.091372,0.0049729,-0.042449
1105,-0.010618,0.050771,0.082277,0.044599,0.072858,0.014392,-0.024909
1106,0.00042559,0.0433,0.087799,0.051745,0.031282,0.019589,-0.0034721
1107,0.011794,0.038753,0.088773,0.051745,-0.031406,0.011469,0.016016
1108,0.019264,0.037778,0.086175,0.048172,-0.10774,-0.012242,0.019914
1109,0.021538,0.036804,0.083901,0.045899,-0.17952,-0.045047,0.0039985
1110,0.020888,0.03583,0.084876,0.049147,-0.23181,-0.082076,-0.026209
1111,0.01894,0.037129,0.087149,0.054668,-0.26689,-0.11261,-0.057065
1112,0.016666,0.042326,0.084876,0.055643,-0.29158,-0.12982,-0.075579
1113,0.015692,0.048497,0.07708,0.05207,-0.31399,-0.12982,-0.073306
1114,0.019589,0.05142,0.061489,0.042326,-0.33672,-0.11358,-0.052843
1115,0.026085,0.050446,0.044924,0.029333,-0.35686,-0.0837,-0.022636
1116,0.033556,0.045574,0.033881,0.019264,-0.36856,-0.047971,0.011794
1117,0.039402,0.040702,0.029658,0.015692,-0.36628,-0.015815,0.044924
1118,0.045249,0.037778,0.028034,0.020888,-0.35069,0.0065969,0.071883
1119,0.052395,0.036804,0.022188,0.030633,-0.32048,0.014392,0.087799
1120,0.058891,0.038428,0.01017,0.033881,-0.27241,0.0072465,0.091696
1121,0.059865,0.037454,-0.0096434,0.020888,-0.19933,-0.017764,0.079354
1122,0.055318,0.029658,-0.029132,-0.0015233,-0.09994,-0.056416,0.050446
1123,0.046223,0.016341,-0.042449,-0.022636,0.031607,-0.10189,0.0088706
1124,0.037129,0.0033489,-0.046671,-0.034978,0.19856,-0.13697,-0.034329
1125,0.029983,-0.0047713,-0.04927,-0.029132,0.38532,-0.15418,-0.06551
1126,0.026735,-0.0044465,-0.058365,-0.008669,0.55,-0.15126,-0.080451
1127,0.026085,0.0036737,-0.072656,0.013418,0.63315,-0.13112,-0.076554
1128,0.024786,0.013093,-0.085648,0.02706,0.60652,-0.099615,-0.060313
1129,0.022512,0.017316,-0.095393,0.028684,0.49153,-0.061937,-0.040825
1130,0.01894,0.016016,-0.10254,0.021213,0.35122,-0.021986,-0.024909
1131,0.015692,0.013093,-0.10611,0.01017,0.24923,0.014068,-0.014191
1132,0.013418,0.013093,-0.10351,0.0020496,0.21512,0.044275,-0.0060706
1133,0.014068,0.017965,-0.095068,-0.0018481,0.23331,0.066686,-0.00054884
1134,0.019914,0.023812,-0.084024,-0.0034721,0.26255,0.083251,0.003024
1135,0.024786,0.029658,-0.078503,-0.0015233,0.26157,0.096893,0.0062721
1136,0.026735,0.030308,-0.081101,0.0056225,0.2109,0.10891,0.010495
1137,0.024137,0.025761,-0.086948,0.013743,0.11411,0.12125,0.015042
1138,0.019264,0.017316,-0.090196,0.01894,-0.010618,0.1297,0.016341
1139,0.014392,0.01017,-0.089871,0.022512,-0.12982,0.13295,0.010495
1140,0.01017,0.0069217,-0.086298,0.028684,-0.2055,0.13555,-0.0011985
1141,0.0078962,0.003024,-0.076879,0.034855,-0.2172,0.14042,-0.012892
1142,0.0046481,-0.0044465,-0.064536,0.044275,-0.15386,0.14789,-0.023285
1143,-0.0015233,-0.014516,-0.051544,0.056617,-0.022961,0.15893,-0.029782
1144,-0.008669,-0.025884,-0.040175,0.067336,0.15309,0.17127,-0.028157
1145,-0.017439,-0.032705,-0.032705,0.073507,0.34082,0.18459,-0.013866
1146,-0.022961,-0.033354,-0.027183,0.068635,0.51492,0.19823,0.0046481
1147,-0.02426,-0.024585,-0.020362,0.05272,0.65946,0.20895,0.024137
1148,-0.020687,-0.008669,-0.010943,0.036804,0.77087,0.2109,0.042001
1149,-0.014191,0.0065969,0.0017248,0.029333,0.83843,0.20051,0.057267
1150,-0.0076946,0.019589,0.017316,0.033881,0.84493,0.18134,0.071558
1151,-0.0015233,0.028359,0.03518,0.045899,0.77184,0.15958,0.087474
1152,0.0069217,0.033231,0.053044,0.057917,0.61626,0.13814,0.10339
1153,0.014392,0.037454,0.066037,0.061489,0.40676,0.11541,0.11378
1154,0.020888,0.042651,0.073507,0.054019,0.19304,0.092996,0.11606
1155,0.022188,0.047198,0.071234,0.039727,0.022837,0.069934,0.11313
1156,0.017965,0.05207,0.064413,0.024461,-0.083375,0.045899,0.11216
1157,0.012768,0.055968,0.060515,0.016016,-0.1295,0.024137,0.11378
1158,0.0095202,0.059541,0.064088,0.013743,-0.13762,0.0075714,0.11606
1159,0.008221,0.056617,0.071234,0.017316,-0.13632,-0.00087364,0.11736
1160,0.0072465,0.046873,0.075781,0.021863,-0.14249,-0.0034721,0.11476
1161,0.008221,0.034855,0.073832,0.027709,-0.16035,-0.0050961,0.10404
1162,0.013093,0.02641,0.067661,0.033556,-0.18796,-0.0089938,0.087799
1163,0.019264,0.022188,0.061165,0.036804,-0.21362,-0.015815,0.070259
1164,0.022837,0.017965,0.059865,0.038753,-0.23279,-0.025884,0.053694
1165,0.023487,0.011469,0.065062,0.040052,-0.24188,-0.036278,0.045249
1166,0.020239,0.0091954,0.074806,0.036154,-0.24708,-0.046347,0.049796
1167,0.015367,0.012119,0.085525,0.026085,-0.25227,-0.055116,0.063438
1168,0.0091954,0.014392,0.092671,0.0091954,-0.2526,-0.061613,0.077405
1169,0.0056225,0.013418,0.095269,-0.012242,-0.23766,-0.061937,0.087149
1170,0.008221,0.0088706,0.092671,-0.032055,-0.20355,-0.055441,0.091047
1171,0.015042,0.0036737,0.087799,-0.041799,-0.15841,-0.045697,0.088773
1172,0.022188,0.0020496,0.082602,-0.042124,-0.11131,-0.036278,0.081952
1173,0.025436,0.003024,0.079679,-0.036278,-0.077203,-0.030106,0.073507
1174,0.02641,0.0056225,0.080328,-0.028482,-0.061613,-0.025884,0.063438
1175,0.023812,0.0065969,0.082602,-0.021337,-0.065186,-0.024909,0.050771
1176,0.019264,0.0069217,0.081952,-0.012567,-0.084024,-0.024585,0.037454
1177,0.013743,0.0043233,0.079354,0.0010752,-0.10481,-0.02426,0.025111
1178,0.012768,0.0010752,0.077405,0.019264,-0.11228,-0.02361,0.014392
1179,0.013093,-0.0037969,0.076755,0.03518,-0.09929,-0.02361,0.0052977
1180,0.014717,-0.0080194,0.076106,0.043625,-0.07493,-0.02361,-0.0041217
1181,0.018615,-0.0076946,0.077405,0.044275,-0.056741,-0.022311,-0.01484
1182,0.022512,0.00042559,0.077405,0.038103,-0.057065,-0.020687,-0.02361
1183,0.024137,0.012443,0.073832,0.029983,-0.07428,-0.020362,-0.026858
1184,0.023812,0.024461,0.071234,0.02641,-0.098965,-0.026209,-0.020687
1185,0.022512,0.034855,0.072858,0.030957,-0.12625,-0.041799,-0.0093186
1186,0.020239,0.04395,0.077405,0.0433,-0.15776,-0.068434,0.0014
1187,0.016341,0.051745,0.079679,0.058241,-0.19966,-0.10416,0.0023744
1188,0.009845,0.054668,0.073507,0.066686,-0.25,-0.14346,-0.0060706
1189,0.00042559,0.048497,0.055968,0.062139,-0.29905,-0.17952,-0.020037
1190,-0.0083442,0.033556,0.034206,0.045574,-0.33185,-0.20583,-0.032705
1191,-0.01484,0.014068,0.012119,0.025111,-0.3377,-0.21655,-0.037252
1192,-0.018413,-0.0076946,-0.0089938,0.0043233,-0.31204,-0.2146,-0.033679
1193,-0.018088,-0.025884,-0.028807,-0.015815,-0.26169,-0.2016,-0.025234
1194,-0.013541,-0.037577,-0.041475,-0.030756,-0.2107,-0.18439,-0.014516
1195,-0.0073698,-0.039851,-0.045372,-0.032055,-0.19154,-0.16653,-0.0024977
1196,0.0010752,-0.032055,-0.042774,-0.018738,-0.21947,-0.14834,0.008221
1197,0.013093,-0.017114,-0.039201,0.003024,-0.28898,-0.12787,0.019589
1198,0.023162,-0.00054884,-0.039526,0.024137,-0.37278,-0.10838,0.028359
1199,0.030633,0.01017,-0.042774,0.03453,-0.43287,-0.09182,0.032906
1200,0.033556,0.014717,-0.046022,0.03518,-0.44391,-0.07493,0.03518
1201,0.035505,0.014068,-0.048296,0.029658,-0.40201,-0.054467,0.037129
1202,0.038428,0.015042,-0.047646,0.028359,-0.32308,-0.032705,0.045574
1203,0.041351,0.020564,-0.043748,0.037129,-0.23441,-0.011917,0.058241
1204,0.042975,0.032257,-0.034329,0.053044,-0.1675,0.01017,0.071883
1205,0.04395,0.048172,-0.021986,0.069934,-0.14054,0.033556,0.079029
1206,0.045899,0.065062,-0.014191,0.080653,-0.14736,0.056942,0.079354
1207,0.049796,0.077405,-0.013216,0.076755,-0.1662,0.081303,0.080328
1208,0.056942,0.081303,-0.018413,0.063763,-0.17302,0.10826,0.081627
1209,0.066686,0.077405,-0.028807,0.050121,-0.15711,0.13847,0.080653
1210,0.078704,0.066686,-0.038551,0.038103,-0.12268,0.169,0.080978
1211,0.087799,0.053694,-0.047971,0.029658,-0.077528,0.19758,0.082277
1212,0.093645,0.042651,-0.056741,0.024137,-0.032705,0.21837,0.078055
1213,0.091696,0.036154,-0.065186,0.021538,0.0039985,0.22324,0.065062
1214,0.083901,0.032582,-0.072006,0.019914,0.028359,0.20635,0.045249
1215,0.071234,0.029009,-0.082076,0.015367,0.041676,0.16705,0.026085
1216,0.053044,0.022188,-0.093769,0.0056225,0.042326,0.11054,0.0095202
1217,0.029333,0.009845,-0.10449,-0.0099683,0.029983,0.048172,-0.007045
1218,0.0039985,-0.0031473,-0.11163,-0.028807,0.0091954,-0.0060706,-0.025559
1219,-0.015815,-0.012892,-0.10968,-0.043748,-0.017764,-0.042774,-0.045372
1220,-0.022961,-0.019388,-0.10189,-0.053817,-0.045372,-0.061613,-0.059989
1221,-0.021337,-0.019388,-0.088247,-0.055766,-0.062587,-0.068758,-0.064861
1222,-0.018413,-0.013541,-0.072006,-0.050569,-0.060638,-0.076879,-0.061613
1223,-0.013541,-0.0015233,-0.056416,-0.039201,-0.045697,-0.090521,-0.056091
1224,-0.0060706,0.013743,-0.042774,-0.023935,-0.02361,-0.10611,-0.051219
1225,0.0046481,0.02706,-0.032705,-0.0073698,0.015042,-0.1178,-0.04862
1226,0.015042,0.033881,-0.026858,0.0095202,0.0865,-0.1178,-0.048945
1227,0.022188,0.032906,-0.026533,0.024137,0.20083,-0.10611,-0.050244
1228,0.02641,0.024786,-0.029457,0.028684,0.34602,-0.082725,-0.051219
1229,0.02706,0.01764,-0.030756,0.021213,0.5003,-0.047646,-0.04927
1230,0.02641,0.015042,-0.028807,0.0046481,0.63477,-0.007045,-0.043099
1231,0.021538,0.017316,-0.023285,-0.012567,0.7228,0.031282,-0.034004
1232,0.013743,0.019589,-0.016789,-0.022311,0.74781,0.055318,-0.025884
1233,0.0062721,0.022512,-0.007045,-0.020362,0.71435,0.067011,-0.019712
1234,0.00010078,0.023487,0.0059473,-0.008669,0.63542,0.069934,-0.012242
1235,-0.0021729,0.019914,0.015692,0.0085458,0.53798,0.064737,-0.0028225
1236,0.00010078,0.014717,0.021213,0.023162,0.44574,0.051096,0.0046481
1237,0.0069217,0.012443,0.023812,0.03583,0.3746,0.032257,0.012119
1238,0.016016,0.018615,0.026735,0.041351,0.33173,0.018615,0.01764
1239,0.023487,0.031932,0.033881,0.041351,0.31224,0.01829,0.021863
1240,0.02706,0.042651,0.042326,0.041027,0.30672,0.037129,0.030633
1241,0.024137,0.046223,0.048497,0.041027,0.30672,0.070584,0.042975
1242,0.012443,0.041027,0.05272,0.038753,0.30769,0.11054,0.054019
1243,-0.0015233,0.029658,0.053694,0.03583,0.3038,0.14724,0.056617
1244,-0.011592,0.020564,0.055318,0.03518,0.28528,0.1729,0.05207
1245,-0.013541,0.015692,0.059541,0.033556,0.24598,0.18427,0.048497
1246,-0.0083442,0.013093,0.067336,0.030957,0.18134,0.17874,0.047198
1247,-0.0037969,0.011469,0.076755,0.028034,0.099167,0.15698,0.042975
1248,-0.0018481,0.008221,0.085525,0.029658,0.011469,0.12223,0.032906
1249,-0.0050961,0.0072465,0.088124,0.034855,-0.06616,0.080653,0.016016
1250,-0.013216,0.011144,0.0865,0.039078,-0.12398,0.040702,0.0033489
1251,-0.021986,0.016341,0.084226,0.043625,-0.161,0.008221,-0.0015233
1252,-0.028157,0.019264,0.081627,0.052395,-0.18861,-0.01484,0.0026992
1253,-0.031081,0.016666,0.080978,0.064088,-0.22109,-0.029457,0.013418
1254,-0.030106,0.0091954,0.081952,0.072858,-0.26462,-0.041475,0.022837
1255,-0.022636,0.00010078,0.083576,0.076431,-0.31399,-0.056741,0.024137
1256,-0.0057458,-0.0037969,0.088124,0.07773,-0.35069,-0.07493,0.014392
1257,0.01894,0.0020496,0.096244,0.07773,-0.35296,-0.091495,0.00075039
1258,0.044924,0.01764,0.10534,0.074157,-0.30489,-0.10091,-0.013216
1259,0.060515,0.03583,0.11183,0.067011,-0.21427,-0.097341,-0.020362
1260,0.06084,0.047198,0.11638,0.06084,-0.10481,-0.084674,-0.022961
1261,0.05142,0.046873,0.11801,0.057267,0.0033489,-0.068109,-0.025884
1262,0.039727,0.039727,0.11866,0.052395,0.097218,-0.055116,-0.028807
1263,0.030633,0.030308,0.11736,0.044924,0.15893,-0.047321,-0.03173
1264,0.021863,0.022837,0.11248,0.034206,0.17972,-0.045047,-0.03303
1265,0.010819,0.01829,0.10404,0.025761,0.16348,-0.043099,-0.032055
1266,0.00042559,0.016341,0.095269,0.019914,0.11833,-0.037252,-0.027833
1267,-0.007045,0.014392,0.087149,0.014068,0.054668,-0.027508,-0.020362
1268,-0.011592,0.011794,0.080978,0.0056225,-0.015815,-0.015165,-0.012242
1269,-0.01549,0.010495,0.074806,-0.0063954,-0.078827,0.00042559,-0.008669
1270,-0.022311,0.01017,0.064737,-0.020687,-0.1256,0.016991,-0.010618
1271,-0.03303,0.011794,0.049796,-0.03173,-0.15548,0.028684,-0.011917
1272,-0.041475,0.01764,0.032906,-0.033679,-0.17172,0.033556,-0.010943
1273,-0.042124,0.024786,0.016666,-0.029457,-0.18082,0.031932,-0.0057458
1274,-0.030756,0.030957,-0.00087364,-0.026858,-0.18926,0.027385,-0.0018481
1275,-0.012242,0.030957,-0.018088,-0.030756,-0.20128,0.025436,-0.0015233
1276,0.0069217,0.023812,-0.03238,-0.042449,-0.21622,0.028359,-0.0050961
1277,0.019264,0.014068,-0.04115,-0.056416,-0.22856,0.03453,-0.011917
1278,0.021213,0.0069217,-0.043748,-0.064861,-0.22954,0.041027,-0.018413
1279,0.01829,0.0065969,-0.040825,-0.060313,-0.21947,0.042975,-0.023285
1280,0.014068,0.011794,-0.032705,-0.036927,-0.20453,0.040702,-0.022961
1281,0.014392,0.020564,-0.026209,-0.0028225,-0.18504,0.035505,-0.01549
1282,0.01829,0.033556,-0.022636,0.029983,-0.14216,0.028359,0.0023744
1283,0.022512,0.049796,-0.020362,0.050771,-0.068434,0.022512,0.029333
1284,0.02706,0.06831,-0.018088,0.061165,0.015692,0.020564,0.056292
1285,0.031607,0.081952,-0.014516,0.065387,0.07773,0.020888,0.078704
1286,0.03583,0.0865,-0.008669,0.063438,0.10371,0.022188,0.094945
1287,0.041676,0.082602,-0.0015233,0.061489,0.10177,0.025436,0.10631
1288,0.048497,0.074482,0.0039985,0.059865,0.088773,0.035505,0.11476
1289,0.057267,0.064413,0.0043233,0.056617,0.074806,0.050121,0.11931
1290,0.064413,0.057267,-0.0037969,0.050121,0.061489,0.067661,0.12288
1291,0.067011,0.053694,-0.017439,0.0433,0.044275,0.082602,0.12743
1292,0.065062,0.05142,-0.03303,0.037454,0.015692,0.092346,0.1297
1293,0.059865,0.049147,-0.045697,0.032906,-0.027508,0.09397,0.12255
1294,0.054668,0.047198,-0.055116,0.027709,-0.078178,0.086824,0.10339
1295,0.047198,0.044599,-0.060313,0.022188,-0.12138,0.070259,0.074806
1296,0.034855,0.042001,-0.063886,0.021538,-0.14152,0.048497,0.044924
1297,0.020564,0.040702,-0.063886,0.029983,-0.13275,0.029333,0.024137
1298,0.0075714,0.041027,-0.061288,0.046548,-0.10384,0.015692,0.015692
1299,-0.00054884,0.039727,-0.05804,0.063763,-0.069408,0.0043233,0.012119
1300,-0.0044465,0.031282,-0.056741,0.074806,-0.037902,-0.012567,0.0020496
1301,-0.0047713,0.016991,-0.054467,0.078704,-0.0083442,-0.04115,-0.022961
1302,-0.00022403,0.00075039,-0.046671,0.076431,0.032582,-0.073955,-0.064211
1303,0.0059473,-0.010618,-0.039201,0.06961,0.10404,-0.10286,-0.11066
1304,0.0095202,-0.013216,-0.037252,0.061165,0.22065,-0.11943,-0.14606
1305,0.008221,-0.0063954,-0.04115,0.053044,0.35999,-0.1178,-0.16068
1306,0.0043233,0.0052977,-0.050244,0.051096,0.47302,-0.097991,-0.15548
1307,-0.0037969,0.015042,-0.062587,0.051096,0.51654,-0.06616,-0.14119
1308,-0.012242,0.018615,-0.070382,0.046873,0.48147,-0.030431,-0.12495
1309,-0.01549,0.01764,-0.072981,0.03453,0.39084,0.0014,-0.10903
1310,-0.010293,0.014068,-0.069408,0.018615,0.28041,0.024461,-0.090845
1311,-0.00054884,0.012119,-0.062912,0.0017248,0.17907,0.036804,-0.068434
1312,0.0075714,0.012119,-0.053817,-0.010293,0.10047,0.041027,-0.049595
1313,0.0091954,0.015692,-0.041799,-0.014516,0.045249,0.041676,-0.04115
1314,0.0014,0.020239,-0.026533,-0.01549,0.0088706,0.040702,-0.046022
1315,-0.011592,0.026735,-0.0083442,-0.01549,-0.01614,0.039727,-0.057065
1316,-0.019388,0.030633,0.0078962,-0.012892,-0.033679,0.03583,-0.062262
1317,-0.014191,0.028034,0.019914,-0.0073698,-0.046022,0.028359,-0.051868
1318,0.0010752,0.016341,0.027385,0.0014,-0.057065,0.015692,-0.031406
1319,0.015692,0.0017248,0.032257,0.011794,-0.07428,0.0010752,-0.011592
1320,0.020564,-0.011267,0.03453,0.019264,-0.10546,-0.0083442,0.0046481
1321,0.01894,-0.01614,0.032906,0.024137,-0.15093,-0.008669,0.019264
1322,0.019264,-0.011917,0.034206,0.028684,-0.20453,-0.00087364,0.037778
1323,0.024461,-0.0018481,0.047198,0.033881,-0.26234,0.0062721,0.057592
1324,0.033556,0.01017,0.067661,0.042326,-0.32308,0.0085458,0.072858
1325,0.041676,0.019914,0.086824,0.054993,-0.37765,0.0023744,0.078704
1326,0.045574,0.026085,0.097543,0.06961,-0.41663,-0.010943,0.075456
1327,0.041027,0.02641,0.098842,0.080328,-0.43254,-0.026533,0.067011
1328,0.036479,0.019914,0.094945,0.082602,-0.43254,-0.038551,0.058566
1329,0.03583,0.01017,0.092021,0.078379,-0.43547,-0.046347,0.058241
1330,0.037454,0.0010752,0.093645,0.072208,-0.45625,-0.045697,0.06961
1331,0.035505,-0.0037969,0.10014,0.064088,-0.49101,-0.037902,0.089748
1332,0.029983,-0.0011985,0.10664,0.054993,-0.52446,-0.02361,0.10859
1333,0.025111,0.0062721,0.11118,0.05142,-0.54493,-0.010943,0.1206
1334,0.024786,0.013743,0.11021,0.057267,-0.54363,-0.0067202,0.12418
1335,0.027385,0.018615,0.10469,0.067011,-0.52057,-0.010618,0.12158
1336,0.034855,0.022512,0.098842,0.075781,-0.48581,-0.017439,0.11963
1337,0.045574,0.023487,0.095919,0.078704,-0.43612,-0.020037,0.11801
1338,0.053369,0.026085,0.097868,0.074157,-0.35881,-0.011267,0.11378
1339,0.054344,0.031607,0.10436,0.063763,-0.23376,0.012119,0.11151
1340,0.048822,0.038428,0.11151,0.050446,-0.032705,0.045899,0.10891
1341,0.038103,0.045574,0.11768,0.038103,0.24241,0.079679,0.10566
1342,0.028034,0.048497,0.11963,0.028034,0.56104,0.10664,0.10079
1343,0.020239,0.043625,0.11508,0.025111,0.8891,0.12385,0.091696
1344,0.015042,0.036804,0.10826,0.030957,1.2006,0.13197,0.080978
1345,0.0078962,0.033231,0.099492,0.039402,1.4549,0.131,0.069934
1346,0.0020496,0.033231,0.092671,0.047198,1.5943,0.12093,0.059216
1347,0.0052977,0.034206,0.086824,0.053044,1.5842,0.10664,0.049796
1348,0.016666,0.032582,0.081627,0.057592,1.4332,0.089098,0.0433
1349,0.031282,0.030957,0.071234,0.054344,1.1795,0.070909,0.039402
1350,0.042326,0.028034,0.056617,0.045249,0.87968,0.049147,0.034855
1351,0.048172,0.026085,0.039727,0.032906,0.59645,0.027709,0.030308
1352,0.049796,0.028034,0.026735,0.01829,0.38013,0.012119,0.02706
1353,0.050121,0.034206,0.020564,0.0069217,0.25605,0.0062721,0.031282
1354,0.049147,0.043625,0.020888,0.00042559,0.207,0.011144,0.040052
1355,0.047847,0.049472,0.022837,0.0062721,0.18102,0.019589,0.051745
1356,0.048497,0.047847,0.019264,0.022512,0.1232,0.028034,0.062464
1357,0.050771,0.040702,0.01017,0.037778,0.0017248,0.037454,0.073182
1358,0.05272,0.031282,0.00042559,0.042651,-0.16815,0.047847,0.083251
1359,0.053369,0.025436,-0.0060706,0.035505,-0.3377,0.056617,0.093321
1360,0.049796,0.02641,-0.013541,0.018615,-0.45593,0.06019,0.10404
1361,0.044275,0.032257,-0.025884,0.0023744,-0.4962,0.059865,0.11118
1362,0.040052,0.039078,-0.042774,-0.0080194,-0.46632,0.056942,0.11281
1363,0.037454,0.043625,-0.062262,-0.011267,-0.39259,0.058566,0.10989
1364,0.037454,0.041351,-0.072981,-0.014191,-0.31269,0.064413,0.10664
1365,0.037129,0.031932,-0.072006,-0.017114,-0.2578,0.06831,0.10664
1366,0.036804,0.017965,-0.06681,-0.019063,-0.24318,0.067661,0.10274
1367,0.03453,0.0069217,-0.060638,-0.019712,-0.25845,0.060515,0.096893
1368,0.029658,0.0056225,-0.056741,-0.019388,-0.27956,0.049796,0.093645
1369,0.024137,0.010819,-0.054792,-0.017114,-0.2893,0.041027,0.097543
1370,0.022188,0.018615,-0.051219,-0.008669,-0.28605,0.037778,0.10371
1371,0.022188,0.027709,-0.044723,0.0026992,-0.27274,0.038753,0.10696
1372,0.022837,0.033231,-0.037252,0.011144,-0.25422,0.038428,0.10631
1373,0.021863,0.032257,-0.03303,0.01017,-0.23279,0.028359,0.10079
1374,0.018615,0.028359,-0.034654,-0.00022403,-0.2068,0.0072465,0.089423
1375,0.015367,0.021213,-0.046671,-0.01614,-0.16782,-0.021986,0.074482
1376,0.013743,0.0095202,-0.065835,-0.034329,-0.11553,-0.053817,0.057267
1377,0.013418,-0.0041217,-0.084349,-0.052843,-0.062262,-0.079802,0.03518
1378,0.015042,-0.020037,-0.096367,-0.067784,-0.025559,-0.093119,0.0075714
1379,0.015692,-0.035628,-0.10091,-0.076879,-0.012242,-0.090196,-0.020687
1380,0.013093,-0.043423,-0.098316,-0.078503,-0.017114,-0.067459,-0.042124
1381,0.0062721,-0.037577,-0.091495,-0.072656,-0.035953,-0.026209,-0.054142
1382,-0.0041217,-0.020037,-0.084024,-0.061613,-0.068109,0.020888,-0.058365
1383,-0.01484,-0.00022403,-0.078827,-0.047646,-0.11033,0.060515,-0.052518
1384,-0.024909,0.015042,-0.07493,-0.03303,-0.15093,0.0852,-0.04115
1385,-0.035953,0.020564,-0.073631,-0.023935,-0.17627,0.094945,-0.032705
1386,-0.043748,0.01829,-0.07428,-0.020037,-0.18342,0.091047,-0.027508
1387,-0.045372,0.012119,-0.072006,-0.021337,-0.17984,0.079029,-0.025884
1388,-0.040825,0.0091954,-0.061937,-0.025234,-0.18049,0.057267,-0.028807
1389,-0.03238,0.008221,-0.041475,-0.027833,-0.19836,0.023162,-0.039201
1390,-0.023285,0.0046481,-0.014191,-0.028157,-0.23701,-0.021661,-0.05804
1391,-0.020687,-0.0024977,0.01017,-0.030431,-0.28573,-0.071357,-0.084024
1392,-0.027183,-0.0067202,0.023812,-0.036278,-0.33802,-0.11813,-0.10871
1393,-0.040175,-0.007045,0.026085,-0.040825,-0.38934,-0.15256,-0.12625
1394,-0.050244,-0.0044465,0.022188,-0.038551,-0.43449,-0.1727,-0.13177
1395,-0.052518,-0.0018481,0.015692,-0.026858,-0.46632,-0.18179,-0.13047
1396,-0.051219,0.0023744,0.011469,-0.011917,-0.47834,-0.18244,-0.12625
1397,-0.045047,0.008221,0.013093,0.0036737,-0.46502,-0.17335,-0.12138
1398,-0.033679,0.015367,0.016666,0.01894,-0.42117,-0.16068,-0.11456
1399,-0.020687,0.024786,0.023812,0.032906,-0.33088,-0.14736,-0.10416
1400,-0.012242,0.037454,0.032582,0.044275,-0.18926,-0.13794,-0.087922
1401,-0.0096434,0.047198,0.038103,0.051096,-0.011917,-0.13794,-0.068758
1402,-0.011917,0.051745,0.039402,0.055318,0.16868,-0.14249,-0.04862
1403,-0.017114,0.051745,0.037129,0.06019,0.32361,-0.14249,-0.030431
1404,-0.021986,0.050771,0.03518,0.067986,0.43859,-0.1282,-0.01484
1405,-0.029132,0.050121,0.040702,0.076106,0.51102,-0.097991,-0.0063954
1406,-0.043099,0.046548,0.054019,0.080328,0.53214,-0.057065,-0.013216
1407,-0.059664,0.039727,0.069934,0.076431,0.49576,-0.012567,-0.035628
1408,-0.072656,0.028034,0.083901,0.065712,0.41098,0.025111,-0.068109
1409,-0.078503,0.012768,0.091696,0.050771,0.29795,0.053369,-0.10059
1410,-0.072006,-0.00054884,0.087799,0.036804,0.18297,0.070259,-0.12365
1411,-0.057065,-0.0096434,0.071883,0.029658,0.097543,0.074157,-0.13177
1412,-0.039851,-0.01484,0.05272,0.030957,0.058566,0.065387,-0.12755
1413,-0.02426,-0.016789,0.037778,0.039402,0.062464,0.048497,-0.11683
1414,-0.011917,-0.01549,0.028684,0.047523,0.081303,0.031282,-0.10156
1415,0.00010078,-0.012242,0.028359,0.051745,0.080328,0.016341,-0.082725
1416,0.011794,-0.0080194,0.036154,0.054668,0.043625,0.0056225,-0.060313
1417,0.019264,-0.0037969,0.050121,0.058241,-0.018088,-0.00087364,-0.037252
1418,0.025111,0.00042559,0.065712,0.067011,-0.080451,-0.0060706,-0.017439
1419,0.034855,0.008221,0.079679,0.079354,-0.11261,-0.012567,-0.0057458
1420,0.051096,0.017965,0.091696,0.09397,-0.095717,-0.018738,-0.0024977
1421,0.06831,0.026085,0.099492,0.10631,-0.035628,-0.021986,-0.0024977
1422,0.081952,0.030633,0.10371,0.11378,0.044275,-0.022636,-0.0054209
1423,0.091047,0.033881,0.10404,0.11411,0.11541,-0.017114,-0.0080194
1424,0.095919,0.03583,0.10047,0.11313,0.16315,-0.0060706,-0.0024977
1425,0.10079,0.038103,0.095269,0.11476,0.18264,0.011469,0.01829
1426,0.10469,0.040052,0.090072,0.1258,0.17387,0.029009,0.05142
1427,0.10859,0.045899,0.084226,0.13912,0.13652,0.039078,0.082277
1428,0.11151,0.056617,0.076755,0.14529,0.080003,0.041027,0.10599
1429,0.11118,0.067336,0.068635,0.13912,0.021213,0.042001,0.1219
1430,0.10469,0.069934,0.061165,0.1271,-0.01549,0.04395,0.13262
1431,0.093645,0.063763,0.053694,0.10924,-0.019388,0.0433,0.13652
1432,0.080653,0.05272,0.047198,0.08585,0.0069217,0.039402,0.13197
1433,0.069934,0.044275,0.041351,0.059216,0.053694,0.030957,0.12125
1434,0.062139,0.040702,0.03453,0.031607,0.10924,0.019589,0.10924
1435,0.059541,0.041351,0.027385,0.0075714,0.16575,0.010819,0.10014
1436,0.059216,0.041027,0.01894,-0.010293,0.21902,0.014392,0.098517
1437,0.057267,0.038428,0.0062721,-0.024909,0.26287,0.031607,0.10274
1438,0.052395,0.032582,-0.011267,-0.03303,0.2895,0.061165,0.10566
1439,0.046548,0.023487,-0.029132,-0.034978,0.29535,0.099817,0.10469
1440,0.042651,0.015042,-0.036927,-0.031406,0.28528,0.13879,0.096244
1441,0.042975,0.008221,-0.03238,-0.026209,0.26222,0.17225,0.079029
1442,0.046223,0.0043233,-0.018413,-0.022961,0.22974,0.19466,0.051096
1443,0.049472,0.003024,-0.0034721,-0.022311,0.19336,0.20083,0.020888
1444,0.050446,0.011144,0.0072465,-0.021661,0.15861,0.18881,-0.00054884
1445,0.047847,0.023162,0.011794,-0.018088,0.13035,0.15861,-0.0063954
1446,0.044924,0.037129,0.0085458,-0.012892,0.11118,0.11541,0.00042559
1447,0.044275,0.046223,-0.0011985,-0.0096434,0.10209,0.06831,0.0091954
1448,0.046223,0.050446,-0.0093186,-0.012242,0.096893,0.024137,0.012768
1449,0.046223,0.048172,-0.013541,-0.018413,0.090072,-0.015815,0.010495
1450,0.044275,0.0433,-0.016789,-0.024909,0.07773,-0.048945,0.003024
1451,0.041027,0.037129,-0.027183,-0.032055,0.055643,-0.075255,-0.010618
1452,0.036154,0.032582,-0.042774,-0.041475,0.024786,-0.096042,-0.030431
1453,0.027385,0.031607,-0.061288,-0.051544,-0.010293,-0.11066,-0.04992
1454,0.015042,0.035505,-0.075579,-0.06681,-0.038876,-0.11618,-0.05739
1455,0.0020496,0.041027,-0.0837,-0.086623,-0.054142,-0.11391,-0.047971
1456,-0.0076946,0.048172,-0.087922,-0.10416,-0.051219,-0.10741,-0.02426
1457,-0.012567,0.050121,-0.088896,-0.11423,-0.035953,-0.098316,0.00075039
1458,-0.0099683,0.045899,-0.085648,-0.11813,-0.023285,-0.085648,0.016991
1459,-0.0011985,0.038103,-0.081101,-0.11586,-0.030431,-0.073955,0.025436
1460,0.0095202,0.030308,-0.076879,-0.10254,-0.068758,-0.07428,0.033231
1461,0.016341,0.025111,-0.07493,-0.074605,-0.13827,-0.087597,0.044924
1462,0.01894,0.021863,-0.07428,-0.034654,-0.2448,-0.10514,0.059541
1463,0.019264,0.021213,-0.072656,0.0046481,-0.39389,-0.11456,0.075131
1464,0.020564,0.022188,-0.071032,0.030633,-0.58358,-0.11261,0.086824
1465,0.020564,0.023162,-0.067134,0.037129,-0.77586,-0.10156,0.094295
1466,0.016991,0.021863,-0.058689,0.030308,-0.9243,-0.094418,0.097868
1467,0.010819,0.016341,-0.047321,0.01764,-0.99251,-0.099615,0.093645
1468,0.0043233,0.0069217,-0.032055,0.0039985,-0.96783,-0.11293,0.084226
1469,-0.0015233,-0.0021729,-0.015815,-0.0037969,-0.85284,-0.12105,0.078055
1470,-0.0041217,-0.007045,0.00075039,-0.0031473,-0.66608,-0.11423,0.078379
1471,-0.0057458,-0.0063954,0.01894,0.009845,-0.44391,-0.087922,0.085525
1472,-0.0093186,-0.0028225,0.040052,0.030633,-0.21947,-0.046022,0.095269
1473,-0.015165,0.0017248,0.061165,0.05272,-0.0083442,0.0020496,0.10371
1474,-0.020362,0.0069217,0.07708,0.069285,0.19401,0.051096,0.10989
1475,-0.019712,0.011144,0.086824,0.080978,0.39864,0.097218,0.10956
1476,-0.01549,0.013418,0.088448,0.084551,0.60782,0.13977,0.096893
1477,-0.0093186,0.01894,0.084551,0.08585,0.78678,0.17582,0.073507
1478,-0.0050961,0.025111,0.079354,0.085525,0.89495,0.20473,0.044924
1479,-0.0011985,0.031282,0.077405,0.084876,0.91086,0.22909,0.01829
1480,0.0049729,0.034206,0.081303,0.08585,0.85824,0.25345,-0.0028225
1481,0.013418,0.034206,0.089748,0.090397,0.79101,0.28106,-0.01614
1482,0.021538,0.037454,0.10144,0.099817,0.7582,0.30574,-0.022961
1483,0.029658,0.048822,0.11378,0.11411,0.7673,0.31874,-0.023285
1484,0.03453,0.062464,0.11898,0.12678,0.77964,0.31062,-0.021337
1485,0.034206,0.071234,0.11541,0.12937,0.74001,0.28008,-0.019388
1486,0.025436,0.067661,0.10501,0.12255,0.61951,0.23299,-0.022311
1487,0.010495,0.05272,0.094945,0.11476,0.41748,0.1755,-0.035628
1488,-0.0063954,0.032257,0.088448,0.11086,0.16153,0.10989,-0.064861
1489,-0.018088,0.014392,0.085525,0.11151,-0.10384,0.046223,-0.099615
1490,-0.025234,0.0056225,0.084876,0.11216,-0.3286,-0.0080194,-0.13047
1491,-0.03173,0.0039985,0.084226,0.10729,-0.47802,-0.043099,-0.14281
1492,-0.037902,0.009845,0.0852,0.096893,-0.53616,-0.051219,-0.12755
1493,-0.039201,0.019914,0.088773,0.085525,-0.49296,-0.03238,-0.089546
1494,-0.034978,0.033231,0.092346,0.075456,-0.36271,0.0095202,-0.037902
1495,-0.025559,0.041027,0.093321,0.068635,-0.19738,0.057267,0.011794
1496,-0.0099683,0.039402,0.091696,0.064413,-0.060313,0.091372,0.049796
1497,0.010819,0.031607,0.087474,0.065712,0.012443,0.10177,0.072858
1498,0.027385,0.01829,0.084551,0.06896,0.014717,0.088773,0.081952
1499,0.040052,0.0039985,0.083251,0.071883,-0.029132,0.063763,0.085525
1500,0.046873,-0.0067202,0.076431,0.06831,-0.085324,0.042326,0.089098
1501,0.045574,-0.012242,0.064413,0.059865,-0.13145,0.033881,0.092996
1502,0.039078,-0.015165,0.050771,0.048497,-0.15581,0.037454,0.089748
1503,0.032906,-0.018738,0.039078,0.039727,-0.15288,0.044924,0.071883
1504,0.024137,-0.023935,0.032257,0.03453,-0.1256,0.048822,0.038428
1505,0.013743,-0.029132,0.02706,0.03453,-0.084674,0.044275,-0.0050961
1506,0.0059473,-0.034004,0.020888,0.031282,-0.049595,0.031932,-0.045372
1507,0.0014,-0.038551,0.014392,0.024137,-0.050894,0.016341,-0.075255
1508,0.00075039,-0.042449,0.012443,0.016991,-0.10481,0.0010752,-0.094418
1509,0.0017248,-0.046671,0.015367,0.013093,-0.20096,-0.016464,-0.10254
1510,-0.00087364,-0.04862,0.014392,0.0085458,-0.30522,-0.034004,-0.10156
1511,-0.008669,-0.047321,0.0052977,0.00042559,-0.38025,-0.050569,-0.092145
1512,-0.019063,-0.042774,-0.012567,-0.0099683,-0.40981,-0.060638,-0.079152
1513,-0.027183,-0.036278,-0.033679,-0.019063,-0.39941,-0.06681,-0.069083
1514,-0.030431,-0.027508,-0.050244,-0.019388,-0.36173,-0.071357,-0.065186
1515,-0.029132,-0.020037,-0.055766,-0.013541,-0.30652,-0.076229,-0.068434
1516,-0.022311,-0.015165,-0.051219,-0.012567,-0.24513,-0.082725,-0.073631
1517,-0.013541,-0.011917,-0.045047,-0.021337,-0.17984,-0.090845,-0.070707
1518,-0.010293,-0.0080194,-0.041799,-0.037252,-0.11228,-0.096367,-0.056091
1519,-0.017764,-0.00054884,-0.041475,-0.053817,-0.047321,-0.09929,-0.030756
1520,-0.027183,0.0091954,-0.043748,-0.065835,0.010819,-0.10091,0.00010078
1521,-0.035628,0.01894,-0.04927,-0.070382,0.061165,-0.10546,0.025111
1522,-0.039201,0.02641,-0.059664,-0.067459,0.10826,-0.11715,0.040702
1523,-0.038551,0.031932,-0.073955,-0.060638,0.15731,-0.13372,0.048822
1524,-0.030756,0.036154,-0.087272,-0.056091,0.21382,-0.15256,0.054344
1525,-0.019388,0.039078,-0.096692,-0.059339,0.27424,-0.16782,0.06084
1526,-0.0050961,0.042975,-0.10124,-0.065186,0.32751,-0.1727,0.066686
1527,0.010495,0.047523,-0.10221,-0.067134,0.35447,-0.16685,0.070259
1528,0.022837,0.047847,-0.10026,-0.061937,0.34602,-0.15256,0.072208
1529,0.032906,0.042326,-0.096692,-0.04992,0.31614,-0.12852,0.076431
1530,0.040702,0.03518,-0.087922,-0.034654,0.28658,-0.094743,0.086824
1531,0.044599,0.031282,-0.078503,-0.021986,0.27164,-0.05804,0.10339
1532,0.041027,0.034206,-0.071682,-0.017764,0.27067,-0.026533,0.11963
1533,0.031607,0.044599,-0.065835,-0.016789,0.26384,-0.0063954,0.12678
1534,0.019264,0.054344,-0.055766,-0.012892,0.23104,0.0010752,0.11866
1535,0.009845,0.057592,-0.043423,-0.0021729,0.16738,0.00042559,0.095594
1536,0.0075714,0.054993,-0.03303,0.014068,0.074482,-0.0041217,0.070584
1537,0.014068,0.05207,-0.025884,0.030633,-0.042124,-0.0080194,0.053044
1538,0.027385,0.051745,-0.020687,0.04395,-0.16945,-0.0054209,0.048172
1539,0.044275,0.054993,-0.01614,0.050771,-0.28898,0.0046481,0.055643
1540,0.059216,0.059541,-0.008669,0.042975,-0.38577,0.023487,0.06896
1541,0.068635,0.071234,0.0036737,0.021538,-0.46437,0.042975,0.083901
1542,0.069285,0.0865,0.017965,-0.0021729,-0.54687,0.059541,0.10047
1543,0.065062,0.099167,0.029009,-0.014516,-0.65536,0.070259,0.11638
1544,0.061489,0.10177,0.032257,-0.011917,-0.78398,0.072858,0.12093
1545,0.060515,0.093321,0.029983,-0.00054884,-0.89864,0.063438,0.10956
1546,0.062789,0.07708,0.021863,0.013093,-0.96035,0.041027,0.082927
1547,0.064088,0.06019,0.0069217,0.025436,-0.94282,0.011794,0.05142
1548,0.062464,0.046873,-0.014191,0.032582,-0.8379,-0.018413,0.02641
1549,0.056617,0.040052,-0.034329,0.032906,-0.64107,-0.0405,0.010819
1550,0.046873,0.03518,-0.046671,0.029658,-0.37148,-0.04927,0.0052977
1551,0.039402,0.030633,-0.050569,0.02641,-0.0824,-0.042774,0.010495
1552,0.037778,0.028034,-0.045372,0.022837,0.17842,-0.021012,0.024137
1553,0.041027,0.02641,-0.034004,0.026735,0.39572,0.012768,0.036479
1554,0.04395,0.024786,-0.021661,0.038103,0.5854,0.053044,0.041027
1555,0.04395,0.023812,-0.013216,0.05272,0.77314,0.09397,0.039078
1556,0.042975,0.01764,-0.0067202,0.059541,0.96348,0.13035,0.036804
1557,0.041351,0.0095202,-0.00022403,0.060515,1.1356,0.15276,0.039727
1558,0.038428,0.0062721,0.011794,0.063763,1.2522,0.15861,0.048497
1559,0.036804,0.0091954,0.028684,0.071234,1.275,0.15341,0.058891
1560,0.035505,0.012768,0.047523,0.07773,1.1843,0.14464,0.069934
1561,0.032906,0.010495,0.066037,0.081627,1.0047,0.13327,0.082602
1562,0.028359,0.0036737,0.082277,0.081303,0.79361,0.11541,0.096569
1563,0.01764,-0.00054884,0.09462,0.077405,0.60392,0.088124,0.10501
1564,0.0043233,-0.0028225,0.10501,0.072858,0.45646,0.054993,0.10664
1565,-0.0076946,-0.0021729,0.11313,0.070584,0.34764,0.022512,0.10112
1566,-0.012242,-0.00022403,0.11931,0.071558,0.26612,-0.0028225,0.095594
1567,-0.007045,0.003024,0.12775,0.07708,0.20635,-0.01484,0.097868
1568,0.011469,0.009845,0.13425,0.084226,0.16283,-0.010293,0.11021
1569,0.036804,0.021538,0.14107,0.091372,0.12385,0.0059473,0.12418
1570,0.06084,0.040702,0.14659,0.096569,0.084876,0.023812,0.13002
1571,0.07773,0.059216,0.14886,0.099167,0.050121,0.037454,0.12158
1572,0.083901,0.072858,0.15211,0.10014,0.034206,0.042001,0.099817
1573,0.081303,0.079029,0.15601,0.10534,0.04395,0.03453,0.070259
1574,0.075456,0.082602,0.15763,0.11736,0.078704,0.012119,0.038753
1575,0.071234,0.084551,0.15536,0.1297,0.12613,-0.022961,0.0072465
1576,0.069285,0.083901,0.15146,0.1297,0.16803,-0.06551,-0.023935
1577,0.068635,0.078055,0.14561,0.11736,0.18362,-0.10546,-0.056741
1578,0.062789,0.065712,0.13457,0.098193,0.16445,-0.13437,-0.094093
1579,0.050446,0.047523,0.11443,0.080978,0.11768,-0.15581,-0.13275
1580,0.030633,0.027385,0.085525,0.067661,0.065062,-0.17107,-0.1662
1581,0.0065969,0.008221,0.054668,0.055968,0.030957,-0.17822,-0.18471
1582,-0.018088,-0.0063954,0.029658,0.040702,0.023812,-0.1753,-0.18342
1583,-0.037577,-0.01484,0.010819,0.020888,0.031282,-0.1636,-0.16653
1584,-0.047971,-0.020037,-0.0034721,0.0026992,0.037129,-0.14834,-0.14379
1585,-0.053168,-0.024585,-0.01614,-0.0099683,0.032906,-0.12885,-0.12755
1586,-0.056091,-0.027833,-0.026533,-0.017114,0.01894,-0.10124,-0.12268
1587,-0.060963,-0.029782,-0.034004,-0.021661,0.00010078,-0.063886,-0.12268
1588,-0.06551,-0.034654,-0.039526,-0.02361,-0.021986,-0.018738,-0.12073
1589,-0.06551,-0.0405,-0.041799,-0.025884,-0.054467,0.028684,-0.11358
1590,-0.058365,-0.039201,-0.040825,-0.028482,-0.099615,0.070909,-0.10676
1591,-0.045697,-0.028157,-0.039526,-0.030756,-0.15386,0.10014,-0.10221
1592,-0.033354,-0.013541,-0.036278,-0.030431,-0.2094,0.11346,-0.10091
1593,-0.022961,-0.00054884,-0.031081,-0.029782,-0.26267,0.11313,-0.095393
1594,-0.014516,0.0069217,-0.022636,-0.029132,-0.31074,0.10534,-0.081101
1595,-0.008669,0.011144,-0.015165,-0.032055,-0.36823,0.098193,-0.057065
1596,-0.0031473,0.015692,-0.011917,-0.04115,-0.45398,0.093645,-0.027833
1597,0.0023744,0.022837,-0.016464,-0.051544,-0.57643,0.084226,0.0039985
1598,0.0078962,0.027709,-0.029782,-0.060963,-0.71902,0.067336,0.03583
1599,0.013093,0.028359,-0.048296,-0.068109,-0.85674,0.046223,0.060515
1600,0.014392,0.025111,-0.060963,-0.067784,-0.95678,0.028359,0.075456
1601,0.009845,0.018615,-0.062262,-0.059014,-0.99284,0.016341,0.084876
1602,0.0020496,0.011469,-0.054792,-0.042124,-0.95191,0.009845,0.09397
1603,-0.0057458,0.0075714,-0.045697,-0.020362,-0.8418,0.0078962,0.10859
1604,-0.0096434,0.008221,-0.043423,-0.00022403,-0.68817,0.011144,0.1271
1605,-0.0076946,0.016341,-0.044073,0.014068,-0.52381,0.01894,0.14432
1606,-0.0018481,0.025111,-0.045047,0.021863,-0.38057,0.031282,0.15276
1607,0.0033489,0.033556,-0.047321,0.02706,-0.27793,0.038753,0.15406
1608,0.0072465,0.039078,-0.050569,0.032582,-0.2146,0.035505,0.15146
1609,0.012768,0.039402,-0.049595,0.037454,-0.17724,0.021213,0.15016
1610,0.023162,0.038753,-0.047971,0.034855,-0.15158,0.00010078,0.14951
1611,0.036154,0.040377,-0.046671,0.022512,-0.13437,-0.019712,0.14367
1612,0.049796,0.040377,-0.042774,0.0078962,-0.12365,-0.030756,0.13165
1613,0.062789,0.036154,-0.037577,0.0033489,-0.10709,-0.034004,0.11411
1614,0.070584,0.029983,-0.033679,0.012119,-0.080776,-0.034329,0.095269
1615,0.072208,0.026085,-0.03173,0.024461,-0.042449,-0.034978,0.079354
1616,0.06831,0.025436,-0.034329,0.029009,0.0072465,-0.039526,0.065387
1617,0.061814,0.029983,-0.04115,0.020239,0.062139,-0.047646,0.048822
1618,0.053694,0.041027,-0.047646,0.0017248,0.11151,-0.057065,0.02641
1619,0.046873,0.053369,-0.048296,-0.016789,0.14464,-0.062912,-0.0050961
1620,0.042975,0.059216,-0.040175,-0.027833,0.15503,-0.063237,-0.042124
1621,0.041676,0.056942,-0.026533,-0.029132,0.14854,-0.061937,-0.080776
1622,0.037778,0.050121,-0.010293,-0.02361,0.12937,-0.059014,-0.11098
1623,0.028684,0.042975,0.0010752,-0.019712,0.10339,-0.053492,-0.12527
1624,0.015042,0.039078,0.003024,-0.021337,0.075131,-0.039201,-0.11845
1625,0.0059473,0.037778,-0.0044465,-0.025234,0.05142,-0.013541,-0.094093
1626,0.0065969,0.036804,-0.013541,-0.024585,0.03583,0.019914,-0.059339
1627,0.015042,0.033556,-0.014516,-0.018088,0.022188,0.051096,-0.019712
1628,0.02641,0.027385,-0.0083442,-0.012892,0.0026992,0.071234,0.015042
1629,0.037778,0.023162,0.0010752,-0.011917,-0.025559,0.075781,0.03453
1630,0.045249,0.020888,0.011794,-0.0076946,-0.060638,0.066362,0.032906
1631,0.046223,0.01894,0.023812,0.0085458,-0.09994,0.047847,0.010819
1632,0.038753,0.017965,0.038428,0.037778,-0.13827,0.028034,-0.022311
1633,0.027709,0.016016,0.051745,0.069285,-0.17172,0.014717,-0.051544
1634,0.017316,0.012768,0.058566,0.092671,-0.19283,0.013418,-0.064861
1635,0.01017,0.0056225,0.057267,0.10242,-0.18829,0.023487,-0.059989
1636,0.0039985,-0.0031473,0.05142,0.098842,-0.14704,0.041027,-0.044398
1637,-0.0011985,-0.012892,0.042326,0.0865,-0.075904,0.062464,-0.028482
1638,-0.0050961,-0.018413,0.038753,0.070584,0.0056225,0.084876,-0.016464
1639,-0.0057458,-0.016464,0.042651,0.058891,0.075131,0.10112,-0.012242
1640,-0.0034721,-0.008669,0.051745,0.05272,0.11703,0.10631,-0.010618
1641,-0.00054884,0.0036737,0.061814,0.053044,0.13392,0.099167,-0.0044465
1642,0.0059473,0.018615,0.070584,0.057592,0.13392,0.083576,0.0095202
1643,0.013743,0.031932,0.075781,0.06084,0.12807,0.06019,0.032257
1644,0.021213,0.037778,0.076755,0.063763,0.12775,0.033231,0.051096
1645,0.025436,0.03583,0.079029,0.063113,0.14269,0.0062721,0.055968
1646,0.024786,0.027385,0.083251,0.057592,0.17127,-0.013216,0.042001
1647,0.023812,0.016991,0.087799,0.053694,0.21382,-0.018413,0.015692
1648,0.024137,0.008221,0.090722,0.056617,0.26514,-0.0034721,-0.0083442
1649,0.025761,0.0010752,0.089748,0.066362,0.32036,0.039727,-0.020362
1650,0.025111,0.00075039,0.088124,0.076755,0.37428,0.10599,-0.024585
1651,0.023162,0.0065969,0.086824,0.081303,0.42495,0.17777,-0.027833
1652,0.024461,0.016341,0.090072,0.07773,0.46977,0.23818,-0.036278
1653,0.031607,0.029009,0.096569,0.062789,0.50323,0.27749,-0.050569
1654,0.041676,0.040702,0.10534,0.049147,0.52337,0.29015,-0.066485
1655,0.050446,0.046548,0.11411,0.045574,0.53019,0.27391,-0.076554
1656,0.054668,0.0433,0.11573,0.053044,0.51914,0.22909,-0.076554
1657,0.053044,0.029009,0.11118,0.064413,0.48569,0.16023,-0.071682
1658,0.042651,0.010819,0.10306,0.067661,0.43112,0.083901,-0.064861
1659,0.030957,-0.0041217,0.094295,0.061165,0.36518,0.01894,-0.057065
1660,0.019264,-0.0089938,0.085525,0.048822,0.30152,-0.025559,-0.046022
1661,0.0069217,-0.0011985,0.076106,0.037454,0.25378,-0.055116,-0.034329
1662,-0.00022403,0.011794,0.067986,0.031607,0.22,-0.079152,-0.025559
1663,0.00042559,0.024461,0.064413,0.031932,0.19401,-0.09994,-0.017114
1664,0.0072465,0.036479,0.065712,0.032257,0.16543,-0.11521,-0.008669
1665,0.013743,0.043625,0.067011,0.026735,0.13425,-0.12138,-0.0018481
1666,0.016666,0.042001,0.062464,0.017965,0.10274,-0.11488,0.0036737
1667,0.015367,0.028034,0.055318,0.011144,0.079354,-0.097017,0.011144
1668,0.011144,0.011794,0.05207,0.011144,0.071234,-0.072981,0.023812
1669,0.0059473,-0.0015233,0.054993,0.017316,0.080003,-0.058689,0.039078
1670,0.00042559,-0.0076946,0.059541,0.023162,0.10339,-0.067134,0.050121
1671,-0.0063954,-0.0067202,0.062139,0.027709,0.13522,-0.10026,0.053044
1672,-0.014516,0.00010078,0.06084,0.026735,0.1651,-0.14314,0.046873
1673,-0.018738,0.011794,0.054993,0.021538,0.18232,-0.17789,0.030633
1674,-0.017764,0.026085,0.042651,0.016016,0.17842,-0.19478,0.0046481
1675,-0.012242,0.038103,0.025111,0.01829,0.15081,-0.19154,-0.021661
1676,-0.0067202,0.042001,0.0023744,0.027385,0.094295,-0.17335,-0.037902
1677,-0.0073698,0.03518,-0.020037,0.03518,0.0062721,-0.14834,-0.043423
1678,-0.012892,0.016991,-0.034978,0.033556,-0.10968,-0.12333,-0.040175
1679,-0.020362,-0.0060706,-0.04115,0.025436,-0.22986,-0.10514,-0.036602
1680,-0.027833,-0.025234,-0.0405,0.016341,-0.32438,-0.098641,-0.039201
1681,-0.034654,-0.034978,-0.037902,0.012119,-0.37505,-0.10026,-0.047646
1682,-0.039201,-0.032055,-0.036602,0.014392,-0.38155,-0.10514,-0.052193
1683,-0.038227,-0.017439,-0.038227,0.013743,-0.35524,-0.10221,-0.047321
1684,-0.028482,0.0039985,-0.040175,0.0091954,-0.31691,-0.085648,-0.032055
1685,-0.010943,0.027385,-0.041475,0.0039985,-0.28313,-0.060313,-0.010618
1686,0.0056225,0.044599,-0.044398,-0.0015233,-0.26527,-0.034978,0.016341
1687,0.012119,0.050121,-0.051544,-0.0076946,-0.25942,-0.016464,0.043625
1688,0.0052977,0.044275,-0.064536,-0.014516,-0.25682,-0.008669,0.06019
1689,-0.0073698,0.030633,-0.079152,-0.026858,-0.24838,-0.013216,0.065712
1690,-0.019063,0.012768,-0.092469,-0.042449,-0.22954,-0.026533,0.065062
1691,-0.025234,-0.0018481,-0.10319,-0.057065,-0.19868,-0.042124,0.064088
1692,-0.026858,-0.007045,-0.10806,-0.064861,-0.15776,-0.053492,0.067011
1693,-0.023285,-0.0037969,-0.10579,-0.069083,-0.11293,-0.055116,0.076755
1694,-0.017439,0.0033489,-0.098641,-0.07428,-0.063561,-0.041475,0.091047
1695,-0.0080194,0.0088706,-0.089871,-0.076879,-0.0044465,-0.012892,0.10664
1696,0.0043233,0.011144,-0.081101,-0.071357,0.058241,0.022512,0.11801
1697,0.015692,0.011144,-0.076879,-0.058689,0.11736,0.053044,0.12223
1698,0.023162,0.0088706,-0.076554,-0.045047,0.16185,0.072533,0.11833
1699,0.024461,0.0046481,-0.077203,-0.03173,0.18427,0.082602,0.10989
1700,0.018615,-0.00022403,-0.072981,-0.019388,0.18297,0.087149,0.10306
1701,0.012443,-0.0034721,-0.064861,-0.012892,0.16218,0.090397,0.099167
1702,0.013093,-0.0067202,-0.057715,-0.012892,0.12937,0.094295,0.095594
1703,0.021538,-0.007045,-0.052193,-0.011917,0.091696,0.098193,0.090722
1704,0.032257,-0.00087364,-0.047646,-0.0044465,0.055968,0.10306,0.0865
1705,0.040377,0.013418,-0.043099,0.009845,0.026085,0.10956,0.082927
1706,0.04395,0.030633,-0.04115,0.02706,0.0072465,0.11151,0.079354
1707,0.045574,0.045899,-0.040825,0.039078,0.0052977,0.10859,0.079029
1708,0.053369,0.053694,-0.0405,0.044599,0.022837,0.10534,0.080978
1709,0.067011,0.055318,-0.039851,0.047523,0.056617,0.10209,0.084551
1710,0.082277,0.057592,-0.037577,0.052395,0.10014,0.098517,0.090397
1711,0.090072,0.06019,-0.03303,0.058566,0.14984,0.092346,0.095919
1712,0.087799,0.057917,-0.026858,0.063438,0.21058,0.080978,0.097543
1713,0.073507,0.051096,-0.017439,0.066362,0.2895,0.066686,0.097218
1714,0.050446,0.041027,-0.0083442,0.064737,0.37168,0.053369,0.096893
1715,0.026735,0.031932,-0.00054884,0.055643,0.42527,0.045249,0.097218
1716,0.010495,0.02641,0.0046481,0.045574,0.42625,0.047198,0.094295
1717,0.0043233,0.026085,0.0052977,0.040702,0.37006,0.057592,0.087149
1718,0.010819,0.026085,0.0017248,0.043625,0.27196,0.070909,0.078704
1719,0.022512,0.024461,-0.00054884,0.05272,0.15796,0.084226,0.071883
1720,0.031282,0.021213,0.00042559,0.061489,0.044924,0.096569,0.066686
1721,0.033231,0.014717,0.0075714,0.067986,-0.055766,0.10631,0.062464
1722,0.029658,0.0078962,0.016016,0.071883,-0.14574,0.11183,0.056617
1723,0.023162,0.0049729,0.026085,0.074806,-0.21979,0.11054,0.050121
1724,0.014717,0.0046481,0.038428,0.072858,-0.28476,0.095919,0.040377
1725,0.0036737,0.0062721,0.054993,0.070259,-0.34842,0.067661,0.024461
1726,-0.0054209,0.0072465,0.074157,0.070259,-0.41338,0.032906,-0.00087364
1727,-0.012567,0.0059473,0.092021,0.070909,-0.47249,-0.0047713,-0.035303
1728,-0.015165,0.0039985,0.10761,0.067661,-0.50985,-0.036278,-0.074605
1729,-0.012242,0.0039985,0.11638,0.061814,-0.50692,-0.052193,-0.11098
1730,-0.007045,0.010819,0.11898,0.057917,-0.44683,-0.047971,-0.1282
1731,-0.0034721,0.020239,0.12223,0.058566,-0.32633,-0.02361,-0.12073
1732,0.00010078,0.027709,0.13067,0.064088,-0.1675,0.012443,-0.094093
1733,0.0085458,0.034855,0.14561,0.073182,-0.0037969,0.053044,-0.059014
1734,0.018615,0.042326,0.1638,0.082927,0.13425,0.091047,-0.022961
1735,0.026735,0.049796,0.17745,0.087149,0.23266,0.11801,0.0052977
1736,0.031932,0.055318,0.18037,0.079354,0.296,0.1323,0.021538
1737,0.03518,0.06019,0.17225,0.059216,0.33303,0.14172,0.024786
1738,0.03453,0.064088,0.15633,0.034855,0.3431,0.14594,0.020239
1739,0.032582,0.064413,0.13652,0.012768,0.32036,0.14432,0.015692
