,channel_1,channel_2,channel_3,channel_4,channel_5,channel_6,channel_7
0,0.016341,0.011469,0.0039985,-0.026533,-0.26332,-0.092469,0.033881
1,0.012768,0.0052977,0.0049729,-0.03303,-0.26397,-0.078503,0.041027
2,0.0095202,-0.0041217,0.0062721,-0.039201,-0.2591,-0.059664,0.047198
3,0.009845,-0.014191,0.0078962,-0.039201,-0.24935,-0.037577,0.053369
4,0.0095202,-0.019712,0.012443,-0.028807,-0.23506,-0.015815,0.054668
5,0.0072465,-0.017439,0.021538,-0.013216,-0.22337,0.00010078,0.047198
6,0.0065969,-0.0096434,0.032906,0.0010752,-0.21655,0.0095202,0.037778
7,0.0059473,-0.0031473,0.039402,0.008221,-0.2081,0.016016,0.034206
8,0.0075714,-0.00054884,0.041027,0.0091954,-0.19219,0.019589,0.036479
9,0.0095202,0.0017248,0.0433,0.0039985,-0.1675,0.026735,0.039402
10,0.0095202,0.0049729,0.050771,0.0020496,-0.13664,0.038753,0.039078
11,0.008221,0.0085458,0.06084,0.0078962,-0.093769,0.051096,0.034855
12,0.0059473,0.01017,0.071883,0.020888,-0.030106,0.06084,0.033231
13,0.0033489,0.010819,0.078704,0.035505,0.053044,0.069285,0.034855
14,0.003024,0.0095202,0.084551,0.045249,0.13327,0.077405,0.039402
15,0.0017248,0.0091954,0.089748,0.053044,0.18004,0.089098,0.04395
16,-0.00054884,0.013093,0.097868,0.06019,0.18394,0.10274,0.044599
17,0.00010078,0.019264,0.10534,0.06896,0.15666,0.11768,0.041351
18,0.0020496,0.028359,0.11086,0.075456,0.12385,0.13262,0.036479
19,0.0033489,0.038753,0.11443,0.07708,0.10599,0.14984,0.032257
20,0.0020496,0.046873,0.11443,0.073832,0.11021,0.16965,0.028034
21,-0.00054884,0.054344,0.11346,0.06961,0.13197,0.18459,0.023812
22,-0.0015233,0.056617,0.10761,0.064088,0.15666,0.18881,0.021213
23,-0.0041217,0.05142,0.10014,0.053369,0.17062,0.18362,0.01894
24,-0.007045,0.039402,0.091696,0.040377,0.16315,0.17062,0.01894
25,-0.010293,0.026085,0.0865,0.028034,0.12872,0.14984,0.016991
26,-0.012567,0.014717,0.08585,0.016991,0.073832,0.1219,0.014717
27,-0.014191,0.0075714,0.089748,0.010819,0.012768,0.089748,0.012119
28,-0.015815,0.0062721,0.095269,0.0085458,-0.044073,0.059865,0.012768
29,-0.020687,0.011144,0.10047,0.0095202,-0.085324,0.040377,0.016341
30,-0.028807,0.01894,0.10242,0.01017,-0.10676,0.039402,0.020888
31,-0.036278,0.029333,0.098842,0.0046481,-0.10936,0.053044,0.027709
32,-0.037902,0.039078,0.091047,-0.0054209,-0.10091,0.072858,0.032582
33,-0.033354,0.045249,0.082602,-0.013216,-0.092794,0.083901,0.036479
34,-0.023935,0.042326,0.072208,-0.010618,-0.093119,0.079679,0.038428
35,-0.010293,0.031282,0.059865,0.00075039,-0.10286,0.062139,0.038753
36,0.0056225,0.015692,0.050446,0.013743,-0.11098,0.042326,0.035505
37,0.01894,0.0049729,0.044924,0.026735,-0.11228,0.026085,0.032906
38,0.028034,0.0039985,0.039727,0.038753,-0.10091,0.013743,0.03453
39,0.035505,0.010819,0.036154,0.049472,-0.077853,0.00075039,0.044599
40,0.044599,0.018615,0.03518,0.06084,-0.052518,-0.013216,0.061489
41,0.054019,0.022512,0.035505,0.072858,-0.039526,-0.02426,0.079354
42,0.061489,0.022837,0.032906,0.076106,-0.042449,-0.027183,0.089748
43,0.064413,0.023162,0.027385,0.065387,-0.04862,-0.021012,0.090072
44,0.067661,0.023812,0.020239,0.051096,-0.0405,-0.0073698,0.080978
45,0.068635,0.02706,0.010495,0.039402,-0.0044465,0.011144,0.063763
46,0.063113,0.029009,-0.00087364,0.031607,0.063438,0.029333,0.041027
47,0.052395,0.02706,-0.010618,0.021213,0.14399,0.046548,0.020239
48,0.041027,0.019264,-0.021012,0.0052977,0.22292,0.067661,0.0062721
49,0.033231,0.0085458,-0.034329,-0.01549,0.29697,0.097543,0.0010752
50,0.031282,-0.0028225,-0.046671,-0.035303,0.36486,0.13457,-0.0011985
51,0.034206,-0.0060706,-0.051219,-0.042124,0.42495,0.17322,-0.0047713
52,0.038103,-0.0011985,-0.044398,-0.035628,0.46717,0.20408,-0.0080194
53,0.039727,0.012443,-0.030431,-0.021986,0.47594,0.21935,-0.0080194
54,0.037778,0.029009,-0.01614,-0.0076946,0.43762,0.21512,-0.0057458
55,0.035505,0.041676,-0.0073698,0.0023744,0.35771,0.18979,0.0010752
56,0.032906,0.04395,-0.0067202,0.012119,0.26157,0.14561,0.010819
57,0.027709,0.041027,-0.01484,0.017316,0.18199,0.093321,0.023162
58,0.021538,0.040702,-0.027508,0.01894,0.14269,0.045574,0.033556
59,0.01764,0.048497,-0.038227,0.020564,0.15309,0.013743,0.041027
60,0.016341,0.056942,-0.044723,0.022512,0.19888,0.0026992,0.047847
61,0.01764,0.059216,-0.045372,0.02641,0.24825,0.0078962,0.051745
62,0.026735,0.055968,-0.045372,0.033881,0.26839,0.019589,0.058891
63,0.041351,0.051745,-0.048945,0.04395,0.24111,0.028359,0.06896
64,0.052395,0.049147,-0.057065,0.049796,0.16575,0.027709,0.07773
65,0.055318,0.048497,-0.071032,0.049147,0.075781,0.018615,0.082277
66,0.050771,0.050771,-0.087597,0.0433,0.028684,0.008221,0.082602
67,0.044275,0.050771,-0.10676,0.037778,0.063113,0.0023744,0.082277
68,0.041351,0.047523,-0.12365,0.031932,0.18492,0.0049729,0.07773
69,0.042001,0.037778,-0.1334,0.029333,0.37883,0.01829,0.06831
70,0.045249,0.026085,-0.1321,0.033231,0.61139,0.041351,0.064413
71,0.049472,0.014717,-0.12333,0.039727,0.83258,0.06896,0.072208
72,0.054019,0.0065969,-0.11293,0.045249,0.99304,0.090722,0.087474
73,0.055643,0.0014,-0.10644,0.045249,1.0651,0.098517,0.10274
74,0.056292,0.00075039,-0.10514,0.037778,1.0505,0.0865,0.11346
75,0.055318,0.0036737,-0.10579,0.028684,0.96543,0.054993,0.11573
76,0.05142,0.008221,-0.10514,0.023487,0.83551,0.0091954,0.10599
77,0.046873,0.011794,-0.10221,0.028684,0.67927,-0.039201,0.083576
78,0.044275,0.011144,-0.096042,0.042975,0.50972,-0.080127,0.050446
79,0.040377,0.0072465,-0.086623,0.06084,0.34212,-0.11066,0.011469
80,0.032582,0.0039985,-0.069733,0.077405,0.19109,-0.12885,-0.022636
81,0.022188,0.0072465,-0.046671,0.090722,0.063113,-0.13632,-0.047646
82,0.014717,0.015692,-0.019388,0.10079,-0.051868,-0.13599,-0.06551
83,0.010819,0.023812,0.0062721,0.10501,-0.16263,-0.1334,-0.08305
84,0.012443,0.029333,0.02706,0.10209,-0.28313,-0.12787,-0.097991
85,0.017965,0.033881,0.042001,0.094295,-0.41955,-0.1191,-0.10481
86,0.022512,0.042001,0.049796,0.083251,-0.57156,-0.10709,-0.10254
87,0.020564,0.050121,0.05272,0.073507,-0.72097,-0.092469,-0.095717
88,0.015692,0.05272,0.055318,0.065712,-0.83823,-0.077528,-0.084349
89,0.009845,0.05142,0.061165,0.06019,-0.89702,-0.067459,-0.068434
90,0.0049729,0.046548,0.06896,0.055643,-0.88825,-0.068434,-0.056741
91,0.00075039,0.0433,0.076431,0.054344,-0.82394,-0.084349,-0.056741
92,0.0017248,0.041027,0.081303,0.059216,-0.73331,-0.11521,-0.07493
93,0.0072465,0.037778,0.0852,0.067986,-0.65731,-0.15613,-0.10741
94,0.013093,0.033231,0.088773,0.078379,-0.6232,-0.19608,-0.14184
95,0.015042,0.030633,0.091372,0.090072,-0.64172,-0.22467,-0.16425
96,0.010819,0.030308,0.089748,0.095919,-0.69434,-0.23084,-0.16815
97,0.0046481,0.029658,0.083901,0.089748,-0.7515,-0.21362,-0.15483
98,0.0026992,0.030308,0.079679,0.078055,-0.79795,-0.18374,-0.13145
99,0.0052977,0.030308,0.078379,0.067986,-0.82848,-0.15288,-0.10416
100,0.008221,0.025436,0.079029,0.061814,-0.84505,-0.12917,-0.079802
101,0.0069217,0.016341,0.081303,0.055318,-0.84505,-0.11683,-0.062587
102,0.003024,0.0075714,0.086175,0.049472,-0.83043,-0.11488,-0.051544
103,-0.00054884,0.0026992,0.094945,0.044275,-0.78658,-0.11975,-0.042774
104,-0.0024977,0.0023744,0.10501,0.040052,-0.69499,-0.12203,-0.035303
105,-0.007045,0.0088706,0.11281,0.040702,-0.5459,-0.11878,-0.027508
106,-0.0099683,0.020239,0.11671,0.048822,-0.34582,-0.11001,-0.018413
107,-0.0099683,0.036479,0.11573,0.059541,-0.10546,-0.10026,-0.0099683
108,-0.0076946,0.048497,0.11086,0.065062,0.15114,-0.095068,-0.0083442
109,-0.0050961,0.052395,0.10794,0.061165,0.36973,-0.095393,-0.013866
110,-0.0034721,0.050771,0.11054,0.05142,0.49186,-0.098641,-0.020362
111,-0.0063954,0.044599,0.1219,0.043625,0.49186,-0.10221,-0.018413
112,-0.011592,0.038428,0.13522,0.039727,0.39117,-0.097666,-0.0044465
113,-0.01484,0.032906,0.14334,0.038103,0.2515,-0.084349,0.01894
114,-0.011592,0.032257,0.14464,0.039402,0.1258,-0.060313,0.043625
115,0.0049729,0.038428,0.14237,0.044275,0.041027,-0.027833,0.062139
116,0.036479,0.050121,0.14009,0.052395,0.00010078,0.012443,0.075131
117,0.076106,0.065387,0.14432,0.063438,-0.0050961,0.063763,0.083901
118,0.11508,0.084876,0.16023,0.080003,0.01017,0.12515,0.087149
119,0.14107,0.10501,0.18199,0.099817,0.021538,0.19044,0.0865
120,0.14594,0.12158,0.19921,0.11411,0.0072465,0.24078,0.084551
121,0.131,0.12385,0.19628,0.11541,-0.043099,0.26709,0.078055
122,0.10274,0.10826,0.169,0.10177,-0.11066,0.26742,0.066362
123,0.072858,0.081627,0.12548,0.07708,-0.14899,0.24858,0.049796
124,0.043625,0.051096,0.078704,0.050771,-0.10644,0.21642,0.031282
125,0.020239,0.024786,0.042326,0.034206,0.048497,0.17615,0.013418
126,0.0085458,0.0085458,0.019264,0.032906,0.29957,0.13457,0.00042559
127,0.0069217,0.0043233,0.0062721,0.040702,0.56884,0.092021,-0.0024977
128,0.011469,0.010495,-0.0047713,0.0433,0.7556,0.046223,0.0039985
129,0.015692,0.020888,-0.022311,0.032257,0.78743,-0.0024977,0.013418
130,0.01764,0.029009,-0.044723,0.009845,0.66141,-0.048296,0.019264
131,0.012768,0.028684,-0.065186,-0.013216,0.43632,-0.084999,0.018615
132,0.0046481,0.020888,-0.081751,-0.030756,0.19693,-0.10546,0.012443
133,-0.0044465,0.0072465,-0.092145,-0.038227,0.01017,-0.10903,0.0017248
134,-0.012892,-0.0047713,-0.095393,-0.038227,-0.093444,-0.097341,-0.0060706
135,-0.017439,-0.013541,-0.094093,-0.035303,-0.1191,-0.078827,-0.0089938
136,-0.020362,-0.020362,-0.096042,-0.031406,-0.097341,-0.05804,-0.007045
137,-0.025884,-0.025234,-0.10416,-0.029132,-0.055116,-0.036927,0.0026992
138,-0.035953,-0.030756,-0.11651,-0.033354,-0.0047713,-0.014191,0.017316
139,-0.047646,-0.036278,-0.1269,-0.047971,0.050771,0.0078962,0.036804
140,-0.055766,-0.042124,-0.13275,-0.069408,0.10956,0.025436,0.053044
141,-0.05739,-0.04992,-0.13404,-0.094093,0.16965,0.033556,0.061165
142,-0.054142,-0.055116,-0.13534,-0.11553,0.22292,0.033881,0.057592
143,-0.04992,-0.056091,-0.13924,-0.12885,0.2619,0.031932,0.049147
144,-0.04992,-0.050569,-0.14184,-0.13437,0.28431,0.035505,0.042326
145,-0.050244,-0.039851,-0.14087,-0.13275,0.28853,0.042975,0.042651
146,-0.047321,-0.025884,-0.13697,-0.12592,0.27099,0.051745,0.047847
147,-0.038227,-0.013866,-0.13145,-0.11683,0.23039,0.059216,0.057267
148,-0.022961,-0.0060706,-0.11943,-0.10903,0.1755,0.067336,0.067661
149,-0.0083442,-0.0015233,-0.099615,-0.10676,0.11768,0.076755,0.081303
150,0.0036737,0.003024,-0.076554,-0.11196,0.066686,0.088773,0.09397
151,0.013418,0.009845,-0.059014,-0.11943,0.028684,0.10436,0.10469
152,0.023812,0.017316,-0.04927,-0.12268,-0.0060706,0.12418,0.11151
153,0.036154,0.021538,-0.046022,-0.11391,-0.052518,0.14529,0.11606
154,0.047523,0.021213,-0.045047,-0.095393,-0.13469,0.16445,0.1206
155,0.057267,0.019264,-0.044398,-0.067134,-0.26267,0.17972,0.12645
156,0.065387,0.020888,-0.04115,-0.026533,-0.42572,0.18979,0.1323
157,0.069934,0.030633,-0.030431,0.021213,-0.59852,0.19693,0.13944
158,0.074482,0.047523,-0.011592,0.070259,-0.7515,0.20473,0.15179
159,0.078379,0.06896,0.014392,0.10891,-0.85349,0.21675,0.16965
160,0.081303,0.088448,0.042651,0.13457,-0.86454,0.22649,0.18881
161,0.083251,0.10404,0.066037,0.15114,-0.75735,0.23169,0.20473
162,0.083576,0.11346,0.079679,0.16283,-0.53096,0.22844,0.21123
163,0.082602,0.11281,0.0852,0.1703,-0.21817,0.21935,0.2044
164,0.079029,0.10274,0.086824,0.1755,0.13944,0.21545,0.18459
165,0.072858,0.084876,0.086175,0.1781,0.5133,0.22324,0.16056
166,0.062789,0.064413,0.082602,0.17647,0.87026,0.23591,0.13749
167,0.048172,0.044599,0.076755,0.16575,1.1561,0.24403,0.11801
168,0.029983,0.024461,0.070259,0.14334,1.3162,0.23754,0.10209
169,0.011469,0.0010752,0.062139,0.10826,1.3198,0.20993,0.089098
170,-0.0054209,-0.024585,0.053694,0.06961,1.174,0.16705,0.078704
171,-0.018413,-0.047646,0.046223,0.038103,0.92418,0.11768,0.067336
172,-0.027833,-0.061613,0.038753,0.016666,0.63672,0.073832,0.056292
173,-0.033354,-0.065835,0.031282,-0.00087364,0.3772,0.037778,0.047523
174,-0.036602,-0.062587,0.022188,-0.017114,0.18394,0.01017,0.03518
175,-0.037252,-0.054142,0.014717,-0.029132,0.062464,-0.013541,0.019589
176,-0.035303,-0.043748,0.012119,-0.034978,-0.007045,-0.037577,0.0036737
177,-0.033354,-0.033679,0.015367,-0.038876,-0.047321,-0.05804,-0.010943
178,-0.032705,-0.026209,0.024786,-0.04115,-0.080776,-0.077203,-0.023935
179,-0.036602,-0.020687,0.03518,-0.042449,-0.12787,-0.090196,-0.034004
180,-0.041799,-0.018738,0.042001,-0.039851,-0.19316,-0.097991,-0.045372
181,-0.045047,-0.01484,0.0433,-0.03238,-0.26819,-0.10091,-0.055766
182,-0.041475,-0.0083442,0.039727,-0.017764,-0.33088,-0.10189,-0.06681
183,-0.034329,-0.0041217,0.033556,-0.0011985,-0.36141,-0.10221,-0.076879
184,-0.023285,-0.0018481,0.02706,0.0078962,-0.35069,-0.10416,-0.087597
185,-0.012567,0.00042559,0.021863,0.0056225,-0.30879,-0.10806,-0.10221
186,-0.0093186,0.0033489,0.017316,-0.0076946,-0.2526,-0.11488,-0.11748
187,-0.015815,0.0046481,0.015042,-0.025559,-0.20258,-0.1243,-0.13275
188,-0.028482,0.00075039,0.019589,-0.04115,-0.17497,-0.13697,-0.14866
189,-0.039851,-0.0060706,0.028359,-0.053492,-0.1714,-0.15223,-0.16523
190,-0.04862,-0.014191,0.040052,-0.061613,-0.18309,-0.1623,-0.17465
191,-0.049595,-0.019712,0.050771,-0.063237,-0.19478,-0.16425,-0.17627
192,-0.043423,-0.022961,0.059216,-0.055441,-0.19771,-0.1623,-0.16718
193,-0.03238,-0.021337,0.065062,-0.039526,-0.19641,-0.16295,-0.14801
194,-0.021337,-0.018088,0.065387,-0.020362,-0.20485,-0.16977,-0.12463
195,-0.010943,-0.012567,0.06084,-0.0031473,-0.23019,-0.18082,-0.10221
196,-0.00022403,-0.0063954,0.056617,0.0049729,-0.26527,-0.19381,-0.079802
197,0.010819,0.0010752,0.055968,0.0043233,-0.2984,-0.20713,-0.055766
198,0.01764,0.0059473,0.06019,-0.0054209,-0.31821,-0.21785,-0.034004
199,0.019914,0.0056225,0.063438,-0.019388,-0.31821,-0.22597,-0.018413
200,0.019589,0.0014,0.062139,-0.027833,-0.30002,-0.23441,-0.0076946
201,0.016991,0.0017248,0.055643,-0.027833,-0.26624,-0.23701,0.00010078
202,0.011794,0.0072465,0.050446,-0.017439,-0.21427,-0.22791,0.0075714
203,0.0095202,0.013418,0.047847,0.00075039,-0.15321,-0.20031,0.014392
204,0.010495,0.017965,0.045249,0.019264,-0.086948,-0.15776,0.025761
205,0.016016,0.021863,0.042326,0.029983,-0.01614,-0.11228,0.039402
206,0.023487,0.026735,0.040052,0.028359,0.057917,-0.079477,0.055643
207,0.027709,0.03518,0.037778,0.01764,0.13002,-0.076229,0.064088
208,0.027709,0.045574,0.033881,0.0023744,0.18946,-0.10481,0.060515
209,0.02641,0.054019,0.026085,-0.015165,0.23559,-0.15256,0.043625
210,0.02706,0.057267,0.013418,-0.031406,0.27229,-0.19706,0.021213
211,0.029333,0.055643,-0.00022403,-0.041475,0.29762,-0.22012,0.0020496
212,0.028034,0.049472,-0.013216,-0.044723,0.30672,-0.21427,-0.008669
213,0.020564,0.040377,-0.025559,-0.044723,0.29633,-0.18277,-0.013541
214,0.012119,0.029333,-0.037577,-0.043099,0.26255,-0.13469,-0.01549
215,0.0059473,0.021538,-0.04992,-0.040825,0.2174,-0.077203,-0.019063
216,0.00042559,0.017965,-0.058689,-0.035303,0.18297,-0.010943,-0.02426
217,-0.0044465,0.01764,-0.062912,-0.030106,0.16835,0.067661,-0.027508
218,-0.0073698,0.021213,-0.062912,-0.025234,0.16413,0.15309,-0.027183
219,-0.0093186,0.028359,-0.05804,-0.015815,0.14821,0.23429,-0.024585
220,-0.008669,0.03453,-0.049595,-0.0034721,0.099817,0.29145,-0.020687
221,-0.0063954,0.039078,-0.042124,0.0091954,0.0056225,0.31159,-0.017114
222,-0.0041217,0.041351,-0.038551,0.020239,-0.12625,0.29535,-0.010618
223,0.0020496,0.039078,-0.040175,0.029983,-0.28281,0.25507,0.0010752
224,0.012119,0.03518,-0.045697,0.034206,-0.44976,0.2109,0.017965
225,0.02641,0.033231,-0.04862,0.032582,-0.61508,0.1768,0.038428
226,0.041351,0.033881,-0.04992,0.027385,-0.75735,0.15438,0.058241
227,0.053694,0.040702,-0.050244,0.022837,-0.85057,0.13555,0.072208
228,0.062789,0.05142,-0.04862,0.028034,-0.87038,0.11541,0.079354
229,0.06961,0.063438,-0.043423,0.045899,-0.79763,0.089748,0.080978
230,0.073507,0.072858,-0.033679,0.071558,-0.61443,0.056292,0.078055
231,0.073507,0.080003,-0.018088,0.092346,-0.34192,0.019264,0.073182
232,0.06896,0.085525,-0.0015233,0.10436,-0.046347,-0.012242,0.069285
233,0.06084,0.0852,0.01017,0.10209,0.20213,-0.036927,0.067011
234,0.054668,0.077405,0.0091954,0.087474,0.37136,-0.052518,0.061814
235,0.05272,0.065387,-0.0018481,0.066686,0.47822,-0.056416,0.054668
236,0.053044,0.052395,-0.017114,0.046873,0.55455,-0.047646,0.0433
237,0.051745,0.037778,-0.032055,0.034206,0.62828,-0.023285,0.032257
238,0.046223,0.025761,-0.041475,0.034206,0.70493,0.01764,0.019914
239,0.03583,0.017316,-0.044723,0.046873,0.75625,0.073507,0.011469
240,0.021213,0.013418,-0.042774,0.059541,0.74781,0.13262,0.0085458
241,0.0039985,0.0088706,-0.039201,0.063438,0.66043,0.18134,0.0062721
242,-0.011917,0.0033489,-0.033354,0.059865,0.5016,0.21123,-0.0011985
243,-0.021661,-0.0041217,-0.026209,0.057267,0.30055,0.22097,-0.015815
244,-0.025234,-0.010943,-0.021012,0.055968,0.091696,0.2122,-0.031081
245,-0.020362,-0.013866,-0.013866,0.055968,-0.096367,0.19109,-0.043423
246,-0.008669,-0.014191,-0.0024977,0.056292,-0.24545,0.16575,-0.051219
247,0.0059473,-0.013216,0.014068,0.053369,-0.34517,0.14172,-0.052843
248,0.019914,-0.013541,0.033231,0.047847,-0.39227,0.12093,-0.046671
249,0.032257,-0.012567,0.05207,0.044275,-0.39974,0.095919,-0.038227
250,0.045249,-0.0067202,0.064413,0.0433,-0.39389,0.058566,-0.036278
251,0.058891,0.0026992,0.071883,0.046873,-0.39616,0.008221,-0.041475
252,0.075781,0.015042,0.075131,0.055318,-0.40493,-0.043099,-0.045372
253,0.094295,0.030957,0.077405,0.070584,-0.40526,-0.081101,-0.040175
254,0.11541,0.046223,0.086175,0.092671,-0.38415,-0.10384,-0.021661
255,0.13555,0.058891,0.10696,0.11638,-0.33932,-0.11131,0.0036737
256,0.15211,0.067011,0.13327,0.1323,-0.25552,-0.11488,0.028684
257,0.16348,0.073507,0.15503,0.13652,-0.11163,-0.12235,0.046873
258,0.16803,0.079679,0.1677,0.13652,0.098193,-0.12982,0.057592
259,0.16835,0.086824,0.17225,0.14334,0.35576,-0.1334,0.062789
260,0.16185,0.092346,0.17127,0.15861,0.6299,-0.12463,0.061814
261,0.15081,0.092671,0.16738,0.16933,0.88325,-0.10903,0.052395
262,0.13587,0.086824,0.15926,0.16738,1.083,-0.093444,0.037129
263,0.11866,0.076106,0.14724,0.15406,1.2051,-0.084999,0.021863
264,0.10047,0.066037,0.13132,0.13425,1.2383,-0.086298,0.015042
265,0.081303,0.059216,0.11021,0.11151,1.1853,-0.092145,0.016666
266,0.059541,0.050121,0.090072,0.089423,1.0573,-0.096042,0.023487
267,0.034855,0.030633,0.074482,0.071234,0.87091,-0.09182,0.029333
268,0.0072465,0.0033489,0.066686,0.064088,0.65329,-0.077528,0.033231
269,-0.018413,-0.021661,0.065387,0.059865,0.43697,-0.053817,0.036804
270,-0.038551,-0.034978,0.064413,0.054019,0.24436,-0.023935,0.041351
271,-0.048945,-0.03303,0.06019,0.047847,0.081303,0.0056225,0.044599
272,-0.050569,-0.021012,0.049796,0.043625,-0.059014,0.028034,0.04395
273,-0.044723,-0.0073698,0.033881,0.043625,-0.18179,0.039727,0.037129
274,-0.038876,0.0014,0.019264,0.049147,-0.28086,0.037129,0.027385
275,-0.031081,0.0052977,0.010819,0.054019,-0.34452,0.020888,0.022837
276,-0.02361,0.0088706,0.0091954,0.048822,-0.35946,-0.0050961,0.027709
277,-0.014191,0.012119,0.01017,0.032906,-0.32406,-0.029132,0.039402
278,-0.0034721,0.014717,0.013418,0.015692,-0.2591,-0.044073,0.049796
279,0.003024,0.020239,0.01829,0.0046481,-0.19803,-0.047321,0.054344
280,0.0036737,0.027385,0.022837,0.0049729,-0.16555,-0.042124,0.05207
281,-0.00054884,0.033556,0.02706,0.013093,-0.16653,-0.031081,0.046223
282,-0.007045,0.038103,0.025111,0.029658,-0.19348,-0.020362,0.038428
283,-0.011267,0.03583,0.015692,0.045574,-0.23896,-0.012892,0.029658
284,-0.010618,0.028684,0.0049729,0.052395,-0.29288,-0.010618,0.022837
285,-0.0037969,0.020888,-0.0021729,0.04395,-0.34225,-0.014516,0.022188
286,0.0026992,0.014717,-0.0060706,0.024461,-0.37278,-0.021661,0.027385
287,0.0036737,0.011144,-0.012892,-0.0024977,-0.37473,-0.029132,0.033556
288,-0.0011985,0.0085458,-0.022961,-0.030106,-0.34842,-0.034329,0.038428
289,-0.0089938,0.0088706,-0.035953,-0.050244,-0.30717,-0.034329,0.037778
290,-0.015815,0.014392,-0.050894,-0.061288,-0.26527,-0.029132,0.032906
291,-0.021012,0.021213,-0.065186,-0.061288,-0.22759,-0.019063,0.028034
292,-0.026209,0.02706,-0.078503,-0.051544,-0.20128,-0.0037969,0.025436
293,-0.031406,0.032257,-0.091495,-0.040825,-0.18471,0.016666,0.027709
294,-0.035303,0.032906,-0.10286,-0.034329,-0.17594,0.039727,0.038103
295,-0.035303,0.02706,-0.11163,-0.037902,-0.17302,0.067661,0.053044
296,-0.033354,0.019589,-0.11423,-0.044073,-0.17952,0.099492,0.067986
297,-0.030756,0.015692,-0.11196,-0.047971,-0.19836,0.13262,0.078055
298,-0.028157,0.017965,-0.10676,-0.049595,-0.23538,0.16056,0.082927
299,-0.025559,0.027385,-0.098965,-0.04927,-0.28703,0.17972,0.085525
300,-0.021661,0.042326,-0.086298,-0.045697,-0.34387,0.18914,0.087149
301,-0.013541,0.057267,-0.070058,-0.038876,-0.39779,0.19141,0.087149
302,-0.0018481,0.067661,-0.05739,-0.028482,-0.45366,0.18979,0.080328
303,0.01017,0.071883,-0.049595,-0.022311,-0.50822,0.18687,0.067336
304,0.01894,0.069934,-0.047971,-0.021986,-0.55012,0.17874,0.050446
305,0.024461,0.063438,-0.050569,-0.027833,-0.56344,0.16056,0.030957
306,0.024786,0.054344,-0.058689,-0.032705,-0.53388,0.1323,0.0069217
307,0.01894,0.046223,-0.068758,-0.034654,-0.46275,0.095594,-0.021986
308,0.0088706,0.037454,-0.076879,-0.036927,-0.36726,0.053694,-0.054142
309,-0.0021729,0.025761,-0.084674,-0.042124,-0.26981,0.010495,-0.086948
310,-0.0099683,0.014068,-0.092469,-0.045697,-0.18471,-0.029457,-0.11651
311,-0.01484,0.0026992,-0.095068,-0.043748,-0.11715,-0.059664,-0.13664
312,-0.017764,-0.0073698,-0.087272,-0.036278,-0.06551,-0.075255,-0.14379
313,-0.019388,-0.012567,-0.071032,-0.026533,-0.007045,-0.077528,-0.13599
314,-0.02361,-0.012242,-0.04992,-0.016464,0.082277,-0.070382,-0.11553
315,-0.028157,-0.007045,-0.028807,-0.0089938,0.20278,-0.062587,-0.087597
316,-0.03238,-0.0034721,-0.0089938,-0.0047713,0.34375,-0.058365,-0.060313
317,-0.030106,-0.0044465,0.0052977,-0.0018481,0.49868,-0.060313,-0.045047
318,-0.021986,-0.0057458,0.013418,0.003024,0.65134,-0.06681,-0.041799
319,-0.010618,-0.0050961,0.01764,0.013743,0.7647,-0.072981,-0.04862
320,-0.0011985,0.0014,0.01894,0.029658,0.80302,-0.072656,-0.054142
321,0.0014,0.016991,0.018615,0.047847,0.74976,-0.064536,-0.053168
322,0.0023744,0.03583,0.019589,0.063438,0.61529,-0.055766,-0.044073
323,0.0033489,0.05142,0.020888,0.06831,0.4308,-0.055766,-0.031081
324,0.0065969,0.057917,0.022188,0.06084,0.23624,-0.069733,-0.021337
325,0.0069217,0.05207,0.022837,0.047523,0.065387,-0.095393,-0.017439
326,0.0020496,0.039078,0.029333,0.039078,-0.062587,-0.1269,-0.012242
327,-0.0060706,0.029983,0.043625,0.037454,-0.14736,-0.15061,0.0010752
328,-0.011592,0.02706,0.059216,0.040377,-0.20388,-0.15678,0.023162
329,-0.010293,0.028034,0.06896,0.049796,-0.24838,-0.13989,0.050446
330,-0.00022403,0.028359,0.072858,0.063438,-0.29385,-0.10611,0.073832
331,0.01829,0.029333,0.079029,0.073182,-0.34939,-0.06616,0.088124
332,0.038103,0.034206,0.086175,0.080003,-0.41923,-0.033354,0.092346
333,0.051096,0.042001,0.090397,0.085525,-0.4988,-0.012892,0.089748
334,0.049796,0.047198,0.088448,0.087149,-0.57578,-0.0047713,0.088124
335,0.037454,0.048822,0.079679,0.080003,-0.62905,-0.0037969,0.089098
336,0.019589,0.046873,0.066686,0.064737,-0.63197,-0.0067202,0.087799
337,0.0069217,0.041351,0.054993,0.049796,-0.55175,-0.0080194,0.081627
338,0.0046481,0.036479,0.048497,0.0433,-0.36563,-0.0031473,0.067986
339,0.011469,0.033231,0.044275,0.047847,-0.087922,0.0069217,0.052395
340,0.018615,0.031607,0.046223,0.062139,0.22747,0.022188,0.042326
341,0.023162,0.032906,0.055643,0.07708,0.51622,0.0433,0.044924
342,0.025761,0.038428,0.071558,0.088124,0.72799,0.069285,0.057592
343,0.030633,0.047523,0.089098,0.098193,0.8433,0.093645,0.070259
344,0.039402,0.054993,0.10534,0.10729,0.87935,0.10956,0.073507
345,0.05142,0.058241,0.11866,0.11313,0.85987,0.11573,0.070584
346,0.061165,0.061165,0.13197,0.11898,0.79978,0.11736,0.065062
347,0.064088,0.058891,0.14367,0.12743,0.70493,0.12028,0.059865
348,0.059216,0.050446,0.15471,0.13847,0.5854,0.12515,0.061165
349,0.049472,0.039402,0.15633,0.14432,0.45126,0.1284,0.070584
350,0.038103,0.032906,0.14951,0.13749,0.31127,0.1271,0.085525
351,0.027709,0.035505,0.14074,0.11638,0.17095,0.12093,0.096893
352,0.016016,0.039078,0.13425,0.082927,0.047198,0.10631,0.099492
353,0.0069217,0.034855,0.13197,0.047198,-0.045047,0.089423,0.093645
354,-0.0028225,0.022837,0.12515,0.021213,-0.093444,0.076431,0.083251
355,-0.011592,0.0036737,0.11118,0.0062721,-0.096042,0.064413,0.075131
356,-0.017764,-0.016464,0.094945,-0.0011985,-0.062587,0.051745,0.073832
357,-0.021986,-0.034654,0.079354,-0.0050961,-0.017439,0.039402,0.077405
358,-0.023285,-0.04992,0.065387,-0.0083442,0.018615,0.02706,0.076755
359,-0.021337,-0.060638,0.050771,-0.008669,0.041351,0.017316,0.064413
360,-0.018413,-0.062587,0.036154,-0.007045,0.05272,0.0085458,0.034855
361,-0.01549,-0.057715,0.025111,-0.010293,0.055643,-0.00087364,-0.0028225
362,-0.011267,-0.051868,0.019264,-0.022636,0.049796,-0.0076946,-0.035303
363,-0.0067202,-0.04862,0.017965,-0.038551,0.041676,-0.0089938,-0.051219
364,-0.0015233,-0.047321,0.020564,-0.050244,0.028684,-0.0050961,-0.052843
365,0.0046481,-0.044723,0.022512,-0.052518,0.008221,0.0072465,-0.046671
366,0.014068,-0.036927,0.022512,-0.046022,-0.015815,0.027385,-0.037252
367,0.023487,-0.022961,0.022512,-0.036602,-0.04115,0.05207,-0.028807
368,0.031607,-0.0073698,0.020239,-0.030106,-0.064211,0.073507,-0.021661
369,0.03518,0.0072465,0.011469,-0.025884,-0.088247,0.083576,-0.01614
370,0.036804,0.015367,-0.0037969,-0.022961,-0.11456,0.079679,-0.011917
371,0.036479,0.016341,-0.021012,-0.019388,-0.13859,0.061489,-0.011267
372,0.03453,0.014068,-0.034329,-0.019063,-0.1597,0.036479,-0.01484
373,0.030308,0.010495,-0.043748,-0.021986,-0.17205,0.015367,-0.021661
374,0.025436,0.009845,-0.048945,-0.025234,-0.17465,-0.00022403,-0.029132
375,0.020239,0.013418,-0.052193,-0.026858,-0.161,-0.013866,-0.037252
376,0.014392,0.013743,-0.060313,-0.021012,-0.13762,-0.028482,-0.047321
377,0.011144,0.0085458,-0.070058,-0.012242,-0.10903,-0.044398,-0.055441
378,0.013093,0.0017248,-0.078827,-0.007045,-0.081751,-0.057065,-0.058365
379,0.020888,-0.0050961,-0.087272,-0.0067202,-0.05804,-0.059664,-0.052193
380,0.032257,-0.010618,-0.096042,-0.014191,-0.042449,-0.04927,-0.033354
381,0.038753,-0.019063,-0.10156,-0.025234,-0.035953,-0.028482,-0.011917
382,0.035505,-0.029782,-0.10254,-0.038227,-0.037577,-0.0041217,0.0059473
383,0.021863,-0.0405,-0.097666,-0.053168,-0.046996,0.01764,0.013743
384,0.0062721,-0.044073,-0.09117,-0.063886,-0.056416,0.034206,0.013093
385,-0.0028225,-0.04115,-0.085648,-0.06616,-0.059989,0.044275,0.0065969
386,-0.0031473,-0.035953,-0.084349,-0.059989,-0.059014,0.046873,-0.0024977
387,0.0033489,-0.031081,-0.087597,-0.04862,-0.059339,0.044275,-0.012567
388,0.013093,-0.023285,-0.092794,-0.036927,-0.065186,0.040377,-0.020037
389,0.020564,-0.011917,-0.094418,-0.026209,-0.072656,0.041676,-0.021661
390,0.024461,-0.00022403,-0.088572,-0.019712,-0.076229,0.054668,-0.011267
391,0.023162,0.011469,-0.07428,-0.013216,-0.073955,0.084226,0.008221
392,0.024137,0.026085,-0.057065,-0.0047713,-0.05804,0.12678,0.029658
393,0.029983,0.046873,-0.042124,0.0062721,-0.023285,0.17225,0.049796
394,0.042326,0.066686,-0.03303,0.019589,0.027385,0.21123,0.066362
395,0.058241,0.082927,-0.029132,0.029333,0.080653,0.23948,0.080328
396,0.069934,0.091372,-0.02426,0.028034,0.11866,0.25085,0.090397
397,0.072858,0.091047,-0.020037,0.016016,0.13067,0.24306,0.095594
398,0.067661,0.081627,-0.021661,0.0010752,0.13035,0.21675,0.095594
399,0.059541,0.066037,-0.029782,-0.012242,0.13457,0.17712,0.092671
400,0.05207,0.049147,-0.038876,-0.023285,0.15309,0.13425,0.084226
401,0.046223,0.033556,-0.047646,-0.030431,0.18394,0.092671,0.06831
402,0.036804,0.020239,-0.053168,-0.035628,0.21545,0.053694,0.050446
403,0.024786,0.011469,-0.055766,-0.037902,0.23526,0.016341,0.036479
404,0.011469,0.009845,-0.056091,-0.034654,0.23461,-0.019063,0.026085
405,-0.0031473,0.013418,-0.053492,-0.027508,0.21252,-0.046671,0.01829
406,-0.015815,0.014068,-0.045372,-0.020037,0.1781,-0.06616,0.012119
407,-0.021661,0.012119,-0.03238,-0.013541,0.14432,-0.083375,0.0085458
408,-0.021337,0.0091954,-0.016789,-0.0060706,0.11703,-0.10026,0.0069217
409,-0.01484,0.0046481,-0.0024977,0.00010078,0.09397,-0.1191,0.012119
410,-0.0050961,-0.00087364,0.0062721,0.0036737,0.06831,-0.13892,0.021213
411,0.0056225,-0.0037969,0.014717,0.0010752,0.035505,-0.15158,0.029658
412,0.015692,-0.0018481,0.028034,0.00010078,-0.0021729,-0.15093,0.031932
413,0.022512,0.0046481,0.043625,-0.00022403,-0.034654,-0.13697,0.032582
414,0.024786,0.015692,0.058241,-0.0024977,-0.055766,-0.11878,0.030633
415,0.024461,0.025111,0.072533,-0.0024977,-0.061288,-0.098641,0.02706
416,0.020888,0.032582,0.084551,0.0052977,-0.056416,-0.084349,0.025761
417,0.010819,0.037454,0.089098,0.021213,-0.054142,-0.073955,0.025436
418,-0.0041217,0.037129,0.085525,0.038103,-0.062262,-0.067459,0.025436
419,-0.017114,0.033231,0.079029,0.052395,-0.075255,-0.06551,0.025111
420,-0.02361,0.02641,0.076755,0.061165,-0.079802,-0.06551,0.022512
421,-0.022636,0.01829,0.082277,0.064737,-0.069408,-0.062912,0.015042
422,-0.01549,0.012443,0.097868,0.069285,-0.052843,-0.05804,0.0039985
423,-0.0054209,0.011144,0.11703,0.074482,-0.048296,-0.050244,-0.0067202
424,0.0059473,0.015367,0.1362,0.082602,-0.061613,-0.041799,-0.016789
425,0.013093,0.026085,0.15179,0.096893,-0.085324,-0.035303,-0.02426
426,0.016991,0.038753,0.16023,0.11411,-0.11878,-0.034004,-0.024585
427,0.020564,0.05142,0.15958,0.12775,-0.15905,-0.034004,-0.021337
428,0.024461,0.06084,0.14594,0.13002,-0.19998,-0.03303,-0.01484
429,0.025436,0.065712,0.12093,0.12125,-0.20972,-0.029782,-0.0050961
430,0.019914,0.065387,0.093321,0.10306,-0.16068,-0.026858,0.00010078
431,0.0075714,0.060515,0.071883,0.084876,-0.067784,-0.028157,-0.0060706
432,-0.007045,0.05272,0.064737,0.076755,0.019914,-0.038227,-0.026533
433,-0.02361,0.045899,0.06896,0.079029,0.053369,-0.055441,-0.059339
434,-0.03238,0.045249,0.079354,0.090397,0.019589,-0.073306,-0.09182
435,-0.031406,0.055318,0.089098,0.10339,-0.059339,-0.080451,-0.11293
436,-0.02426,0.068635,0.092346,0.11086,-0.15029,-0.077203,-0.12365
437,-0.013216,0.078379,0.090072,0.11054,-0.22499,-0.070382,-0.12852
438,-0.0028225,0.072208,0.08585,0.10566,-0.26754,-0.072656,-0.13307
439,0.0033489,0.046873,0.079679,0.099167,-0.27306,-0.086623,-0.13989
440,0.0023744,0.014717,0.070259,0.091696,-0.24513,-0.10838,-0.14606
441,-0.0063954,-0.011917,0.051745,0.082927,-0.19738,-0.13015,-0.14834
442,-0.01614,-0.029132,0.023812,0.067986,-0.15158,-0.14671,-0.13827
443,-0.022311,-0.038551,-0.007045,0.047523,-0.12333,-0.15093,-0.11326
444,-0.020687,-0.038227,-0.035953,0.029658,-0.11845,-0.14022,-0.079152
445,-0.012567,-0.026858,-0.055766,0.022837,-0.12982,-0.11683,-0.043748
446,0.00042559,-0.0024977,-0.062912,0.025111,-0.14704,-0.088572,-0.0096434
447,0.01894,0.025761,-0.054467,0.033231,-0.15516,-0.058365,0.021538
448,0.042651,0.050771,-0.03173,0.044924,-0.14314,-0.032055,0.05272
449,0.067336,0.069934,-0.00022403,0.061165,-0.10838,-0.014516,0.082602
450,0.091696,0.084226,0.028684,0.080003,-0.062587,-0.007045,0.10859
451,0.11054,0.099492,0.046873,0.096244,-0.022961,-0.007045,0.1271
452,0.11931,0.11703,0.051745,0.10339,0.0014,-0.010943,0.13782
453,0.11801,0.13457,0.048822,0.099167,0.012768,-0.012567,0.14042
454,0.10956,0.14367,0.047523,0.087474,0.021213,-0.0057458,0.13684
455,0.097868,0.14042,0.044599,0.073182,0.03518,0.0078962,0.13067
456,0.089748,0.1297,0.036479,0.058566,0.054019,0.025111,0.1232
457,0.0865,0.11541,0.020888,0.045574,0.072208,0.041027,0.12093
458,0.090397,0.10112,0.0017248,0.031282,0.082927,0.053369,0.12255
459,0.095269,0.090397,-0.01549,0.015042,0.082277,0.057917,0.12548
460,0.097218,0.080328,-0.030106,-0.0067202,0.07708,0.055318,0.12385
461,0.092346,0.069934,-0.042774,-0.033679,0.078055,0.052395,0.11963
462,0.079354,0.059865,-0.055116,-0.059339,0.090397,0.058241,0.11216
463,0.062139,0.048497,-0.06681,-0.079152,0.11054,0.071883,0.10112
464,0.046873,0.033556,-0.080127,-0.088572,0.13035,0.0865,0.090722
465,0.03453,0.019914,-0.092145,-0.09117,0.14432,0.095269,0.084551
466,0.020239,0.0085458,-0.10156,-0.086298,0.14237,0.094295,0.081303
467,0.0069217,0.0026992,-0.10481,-0.079477,0.12158,0.0852,0.075131
468,0.003024,0.0023744,-0.10351,-0.072656,0.096893,0.075456,0.064413
469,0.01017,0.0036737,-0.093444,-0.062262,0.083251,0.06961,0.048172
470,0.022188,0.0065969,-0.077853,-0.044723,0.0852,0.069285,0.032906
471,0.033556,0.008221,-0.059989,-0.021986,0.09462,0.078704,0.025761
472,0.042975,0.008221,-0.045372,-0.00087364,0.096893,0.09397,0.033556
473,0.046548,0.0085458,-0.034329,0.010495,0.078055,0.10826,0.048172
474,0.047847,0.012768,-0.026209,0.01017,0.034206,0.11118,0.058566
475,0.049147,0.021213,-0.020037,0.0017248,-0.029132,0.10079,0.059216
476,0.046548,0.030633,-0.015815,-0.0050961,-0.10774,0.080003,0.051096
477,0.040052,0.033881,-0.01549,-0.0060706,-0.20063,0.055968,0.036479
478,0.028359,0.028034,-0.017114,0.0039985,-0.29807,0.033881,0.019914
479,0.012119,0.017965,-0.019388,0.024137,-0.37473,0.01894,0.0095202
480,-0.00087364,0.0085458,-0.019388,0.045574,-0.39422,0.01764,0.0091954
481,-0.0047713,0.00010078,-0.019063,0.063438,-0.32276,0.03583,0.019264
482,-0.0050961,-0.0060706,-0.016789,0.073182,-0.13437,0.074482,0.038103
483,-0.0067202,-0.0096434,-0.012242,0.07708,0.16153,0.1271,0.059865
484,-0.008669,-0.010293,-0.007045,0.078704,0.50225,0.17972,0.075781
485,-0.010293,-0.010943,-0.0041217,0.075781,0.80302,0.21447,0.085525
486,-0.0067202,-0.012892,-0.0015233,0.065712,1.0038,0.22259,0.0865
487,-0.0021729,-0.014516,0.0010752,0.053694,1.0902,0.20733,0.081952
488,-0.00087364,-0.012892,0.0046481,0.042001,1.0872,0.1755,0.079029
489,-0.0015233,-0.0076946,0.0095202,0.030633,1.0239,0.13425,0.073832
490,-0.0057458,0.00042559,0.016016,0.01764,0.92385,0.093321,0.065062
491,-0.0083442,0.0062721,0.025436,0.0046481,0.80595,0.055318,0.055643
492,-0.008669,0.0091954,0.037454,-0.0028225,0.67765,0.02641,0.048172
493,-0.0057458,0.0088706,0.053044,-0.00087364,0.53733,0.0072465,0.044599
494,-0.00087364,0.0062721,0.06831,0.0078962,0.38532,-0.0060706,0.045574
495,0.0017248,0.0039985,0.079679,0.01829,0.23136,-0.020037,0.047523
496,0.0023744,0.00075039,0.08585,0.02641,0.089748,-0.036278,0.045899
497,0.00010078,-0.0034721,0.088773,0.033881,-0.023285,-0.058365,0.037129
498,-0.0063954,-0.010943,0.091047,0.045899,-0.095393,-0.087272,0.019914
499,-0.01549,-0.020037,0.092021,0.060515,-0.12203,-0.12235,-0.0028225
500,-0.026209,-0.024909,0.091372,0.069934,-0.10903,-0.15581,-0.029782
501,-0.03173,-0.019388,0.088124,0.070259,-0.062912,-0.18699,-0.055116
502,-0.028482,-0.0054209,0.082927,0.065062,-0.0093186,-0.22044,-0.068758
503,-0.019712,0.0072465,0.076106,0.055968,0.026085,-0.25682,-0.06616
504,-0.0099683,0.012119,0.06961,0.045574,0.029009,-0.2893,-0.054142
505,-0.0015233,0.0091954,0.066686,0.03518,-0.00087364,-0.30749,-0.041799
506,0.0049729,0.0020496,0.06831,0.028684,-0.05804,-0.29937,-0.035303
507,0.010495,-0.0031473,0.071234,0.031607,-0.13859,-0.26202,-0.032055
508,0.014392,-0.0041217,0.073507,0.048172,-0.24935,-0.19738,-0.023935
509,0.016341,-0.0050961,0.073832,0.078055,-0.39844,-0.11878,-0.013216
510,0.015042,-0.0080194,0.071883,0.11183,-0.57351,-0.039526,-0.0047713
511,0.0095202,-0.013541,0.063763,0.13425,-0.73299,0.027709,-0.0057458
512,-0.0011985,-0.017764,0.049472,0.13652,-0.83465,0.076755,-0.017764
513,-0.014516,-0.017764,0.031282,0.12125,-0.84992,0.11054,-0.037577
514,-0.024585,-0.01484,0.014717,0.10306,-0.78788,0.13295,-0.055441
515,-0.031406,-0.013866,0.0056225,0.087474,-0.68589,0.15244,-0.063886
516,-0.03238,-0.01484,0.0069217,0.076755,-0.58455,0.1742,-0.063561
517,-0.028157,-0.018413,0.018615,0.074157,-0.51439,0.19856,-0.057065
518,-0.022636,-0.021661,0.033881,0.082602,-0.49231,0.22194,-0.04115
519,-0.018413,-0.021012,0.048822,0.094295,-0.52024,0.23624,-0.01549
520,-0.019063,-0.018738,0.058241,0.10014,-0.58001,0.23461,0.016991
521,-0.022636,-0.014516,0.056942,0.096893,-0.65439,0.21772,0.040702
522,-0.026209,-0.0044465,0.049796,0.082277,-0.73104,0.19141,0.046873
523,-0.024909,0.01017,0.038428,0.06084,-0.79568,0.1651,0.037129
524,-0.015165,0.025761,0.023487,0.032582,-0.81614,0.14724,0.021213
525,-0.0018481,0.039078,0.01017,-0.00022403,-0.74208,0.13944,0.0078962
526,0.010495,0.045574,0.00010078,-0.03238,-0.54005,0.14139,0.0036737
527,0.017965,0.048172,-0.0057458,-0.054467,-0.22369,0.15146,0.0091954
528,0.019589,0.049796,-0.0099683,-0.05804,0.14756,0.1677,0.01829
529,0.01764,0.054993,-0.016789,-0.044073,0.48471,0.18069,0.019914
530,0.01764,0.064413,-0.023285,-0.024585,0.71338,0.18037,0.0078962
531,0.016666,0.071558,-0.025884,-0.01484,0.80108,0.15958,-0.018413
532,0.011794,0.069934,-0.025234,-0.017764,0.75755,0.10989,-0.052518
533,0.00075039,0.057917,-0.024585,-0.034004,0.62698,0.033556,-0.086298
534,-0.012892,0.040052,-0.028157,-0.055441,0.4649,-0.054792,-0.10741
535,-0.02426,0.019589,-0.034654,-0.076879,0.31451,-0.13989,-0.10968
536,-0.029457,0.0033489,-0.042449,-0.090196,0.19888,-0.20485,-0.097991
537,-0.033354,-0.0050961,-0.04992,-0.096042,0.11736,-0.24643,-0.081751
538,-0.038227,-0.0031473,-0.060313,-0.095068,0.050771,-0.27144,-0.069408
539,-0.044398,0.0056225,-0.070058,-0.088247,-0.011267,-0.28768,-0.061288
540,-0.045372,0.01894,-0.074605,-0.073955,-0.065835,-0.2958,-0.051868
541,-0.037252,0.032582,-0.071682,-0.057715,-0.10481,-0.29125,-0.036602
542,-0.020687,0.041351,-0.062587,-0.046022,-0.12008,-0.26981,-0.01484
543,-0.0015233,0.041676,-0.051544,-0.043099,-0.11163,-0.23376,0.0088706
544,0.011144,0.033881,-0.042124,-0.044398,-0.08305,-0.19186,0.025111
545,0.019914,0.024137,-0.03238,-0.047971,-0.046022,-0.15093,0.032906
546,0.022512,0.01829,-0.022636,-0.048945,-0.0089938,-0.12008,0.036479
547,0.020239,0.019589,-0.014516,-0.044398,0.01829,-0.10709,0.039727
548,0.016016,0.025436,-0.008669,-0.034329,0.033556,-0.11326,0.0433
549,0.016016,0.03453,-0.0060706,-0.022961,0.03583,-0.1321,0.048172
550,0.023162,0.04395,-0.0063954,-0.01484,0.03583,-0.14899,0.05272
551,0.036479,0.049796,-0.008669,-0.011917,0.042001,-0.15353,0.056617
552,0.052395,0.054344,-0.010293,-0.015165,0.059865,-0.14346,0.061165
553,0.066686,0.058566,-0.012567,-0.015815,0.089423,-0.12755,0.066362
554,0.075456,0.059865,-0.013216,-0.010293,0.13067,-0.11098,0.072208
555,0.07708,0.056942,-0.011592,-0.0037969,0.17874,-0.096042,0.073832
556,0.075456,0.05142,-0.0063954,-0.0031473,0.21935,-0.085324,0.066037
557,0.070909,0.042326,-0.0011985,-0.0073698,0.23786,-0.077528,0.05142
558,0.066362,0.029333,0.00010078,-0.011592,0.22552,-0.072656,0.032582
559,0.057917,0.015367,-0.0041217,-0.017764,0.18719,-0.068434,0.016666
560,0.049147,0.0033489,-0.012892,-0.027833,0.12937,-0.063237,0.0056225
561,0.0433,-0.0037969,-0.021012,-0.04115,0.063763,-0.053817,0.0010752
562,0.039727,-0.0054209,-0.026533,-0.050244,-0.0047713,-0.035628,-0.00054884
563,0.035505,-0.0024977,-0.028807,-0.04927,-0.06681,-0.0060706,-0.00022403
564,0.031282,0.0014,-0.027183,-0.040825,-0.11228,0.032906,0.0010752
565,0.028359,0.0036737,-0.022636,-0.026533,-0.13112,0.073182,0.0046481
566,0.030957,0.0033489,-0.017439,-0.0099683,-0.1217,0.10566,0.0085458
567,0.03518,0.0033489,-0.0096434,0.0033489,-0.088896,0.12678,0.010495
568,0.03453,0.0046481,0.0052977,0.013743,-0.046022,0.13782,0.0085458
569,0.029009,0.0095202,0.024461,0.01764,-0.0047713,0.13847,0.003024
570,0.020239,0.016341,0.039078,0.013418,0.031282,0.13002,-0.0018481
571,0.015367,0.022837,0.045899,0.0059473,0.055968,0.11086,-0.0041217
572,0.014392,0.027385,0.047523,0.0046481,0.067336,0.081952,-0.0018481
573,0.013093,0.028359,0.051745,0.016016,0.067336,0.049147,0.0069217
574,0.0078962,0.023812,0.064413,0.03583,0.06896,0.018615,0.022188
575,0.0010752,0.015042,0.080978,0.05272,0.08585,-0.0057458,0.04395
576,-0.0044465,0.008221,0.092671,0.059541,0.12418,-0.020037,0.066362
577,-0.0024977,0.008221,0.096893,0.061165,0.18557,-0.021337,0.080653
578,0.0072465,0.014392,0.097868,0.062789,0.27326,-0.0041217,0.0865
579,0.021213,0.02641,0.099167,0.06961,0.38792,0.034855,0.088448
580,0.032906,0.041027,0.10436,0.078704,0.512,0.091047,0.09397
581,0.039402,0.05272,0.11183,0.087799,0.61724,0.15991,0.10047
582,0.041027,0.059216,0.11963,0.092346,0.67732,0.23071,0.10177
583,0.036479,0.055318,0.12353,0.089748,0.66758,0.29308,0.092996
584,0.023487,0.044599,0.12385,0.081952,0.58151,0.33563,0.068635
585,0.011144,0.037129,0.12288,0.076431,0.43697,0.35317,0.033231
586,0.0036737,0.037778,0.1258,0.078704,0.27196,0.34537,-0.00087364
587,0.0020496,0.045249,0.13132,0.089423,0.12093,0.31776,-0.026209
588,0.0056225,0.053369,0.1323,0.10242,-0.0021729,0.27781,-0.040175
589,0.011144,0.056617,0.12385,0.11248,-0.10806,0.23429,-0.042449
590,0.016991,0.049147,0.11248,0.11768,-0.21785,0.19304,-0.034329
591,0.022512,0.033231,0.10144,0.11866,-0.33932,0.15568,-0.02361
592,0.027709,0.011794,0.092996,0.11573,-0.45658,0.12125,-0.019712
593,0.029658,-0.0054209,0.086175,0.10891,-0.53843,0.089748,-0.025559
594,0.023162,-0.019712,0.078379,0.097218,-0.56117,0.060515,-0.040175
595,0.0069217,-0.03303,0.06896,0.079029,-0.51862,0.03518,-0.059014
596,-0.016789,-0.044073,0.055643,0.054019,-0.42735,0.012768,-0.077203
597,-0.043748,-0.051219,0.03583,0.02641,-0.32048,-0.0018481,-0.092469
598,-0.067134,-0.052843,0.011469,0.0014,-0.23051,-0.0067202,-0.10481
599,-0.081101,-0.04927,-0.0093186,-0.01549,-0.1649,-0.0063954,-0.11131
600,-0.0824,-0.044723,-0.023285,-0.022961,-0.10774,-0.013216,-0.10546
601,-0.072656,-0.037252,-0.030106,-0.028157,-0.044723,-0.035628,-0.081426
602,-0.054142,-0.027833,-0.033679,-0.03303,0.032906,-0.072981,-0.044073
603,-0.029457,-0.01614,-0.037252,-0.030756,0.12418,-0.12008,-0.0024977
604,-0.0060706,-0.007045,-0.040825,-0.02361,0.21025,-0.16685,0.033231
605,0.011794,-0.0018481,-0.044073,-0.012567,0.26157,-0.2042,0.054668
606,0.025111,-0.00022403,-0.044398,0.00010078,0.26125,-0.22597,0.058566
607,0.036479,0.00075039,-0.042449,0.015692,0.22194,-0.23116,0.053044
608,0.047847,0.0059473,-0.036927,0.028684,0.16803,-0.21752,0.048822
609,0.059865,0.014392,-0.028482,0.034206,0.11443,-0.18342,0.051745
610,0.071883,0.02641,-0.021012,0.030957,0.069934,-0.13047,0.06084
611,0.083901,0.042326,-0.01549,0.024786,0.040702,-0.06551,0.071234
612,0.096893,0.060515,-0.012892,0.026735,0.029333,0.003024,0.080978
613,0.10826,0.078379,-0.011917,0.039078,0.029983,0.06896,0.089748
614,0.11606,0.095269,-0.0099683,0.057267,0.023162,0.12775,0.097543
615,0.11898,0.10696,-0.0018481,0.074806,-0.010943,0.17322,0.10566
616,0.12158,0.11443,0.015692,0.090722,-0.078503,0.20798,0.11313
617,0.1271,0.12028,0.041351,0.10339,-0.17822,0.23201,0.11476
618,0.1323,0.12418,0.06831,0.11151,-0.29288,0.24241,0.10599
619,0.13262,0.12353,0.0865,0.11151,-0.40006,0.23494,0.085525
620,0.12385,0.12028,0.090722,0.10566,-0.47867,0.21382,0.06019
621,0.10826,0.11573,0.07773,0.097218,-0.51894,0.19044,0.039727
622,0.090072,0.11118,0.05142,0.08585,-0.51862,0.17225,0.032906
623,0.07708,0.10696,0.021863,0.071883,-0.48679,0.15796,0.040052
624,0.070909,0.10664,-0.0047713,0.052395,-0.43287,0.13879,0.054344
625,0.064088,0.10696,-0.026209,0.024137,-0.35979,0.10664,0.064088
626,0.054993,0.10696,-0.044723,-0.010943,-0.26819,0.064737,0.066362
627,0.0433,0.10469,-0.063237,-0.046347,-0.16263,0.01894,0.063113
628,0.032257,0.099492,-0.079152,-0.071357,-0.045697,-0.023285,0.059865
629,0.025761,0.087799,-0.089871,-0.076554,0.087149,-0.060313,0.055968
630,0.027385,0.068635,-0.094093,-0.063237,0.24046,-0.096367,0.051745
631,0.031607,0.045249,-0.089546,-0.039201,0.40611,-0.1282,0.044599
632,0.037778,0.023812,-0.080127,-0.012892,0.56981,-0.14769,0.037129
633,0.041027,0.0072465,-0.066485,0.010495,0.72052,-0.15418,0.037778
634,0.040052,-0.0050961,-0.056091,0.024786,0.82868,-0.14996,0.048822
635,0.030633,-0.018738,-0.052843,0.025761,0.85564,-0.13827,0.065062
636,0.014717,-0.035628,-0.05804,0.014392,0.78581,-0.1204,0.081303
637,-0.0041217,-0.056416,-0.068434,-0.0031473,0.62958,-0.10416,0.091047
638,-0.022311,-0.076554,-0.081751,-0.019063,0.4191,-0.096042,0.088773
639,-0.035953,-0.088247,-0.097341,-0.027833,0.19758,-0.097666,0.076755
640,-0.042124,-0.090196,-0.11001,-0.026858,0.0088706,-0.10286,0.061814
641,-0.037902,-0.084999,-0.11326,-0.01549,-0.12138,-0.10254,0.049472
642,-0.027183,-0.075904,-0.10546,0.0026992,-0.17789,-0.095068,0.03518
643,-0.014191,-0.063237,-0.093119,0.021863,-0.15256,-0.085973,0.015692
644,-0.0037969,-0.04862,-0.081101,0.037778,-0.049595,-0.083375,-0.016464
645,-0.0037969,-0.034654,-0.073955,0.049472,0.10047,-0.09117,-0.061937
646,-0.014516,-0.020362,-0.069733,0.057592,0.2515,-0.10644,-0.11326
647,-0.029457,-0.010618,-0.064211,0.062139,0.36778,-0.12105,-0.15158
648,-0.038227,-0.008669,-0.052843,0.063113,0.4308,-0.12657,-0.16328
649,-0.040825,-0.014516,-0.037902,0.056292,0.43827,-0.11651,-0.14411
650,-0.041475,-0.024909,-0.022636,0.049147,0.39669,-0.094093,-0.10156
651,-0.043748,-0.034329,-0.0076946,0.044924,0.31906,-0.064211,-0.052518
652,-0.048945,-0.038551,0.0043233,0.039078,0.2187,-0.034004,-0.010618
653,-0.055766,-0.038876,0.011794,0.02706,0.10761,-0.0073698,0.016991
654,-0.058689,-0.036278,0.012768,0.012443,0.00010078,0.015692,0.027709
655,-0.058689,-0.03238,0.013418,0.00075039,-0.094743,0.03518,0.024137
656,-0.056741,-0.024909,0.018615,-0.0054209,-0.1753,0.049147,0.012768
657,-0.053817,-0.015165,0.029658,-0.0067202,-0.24058,0.05207,0.0026992
658,-0.046347,-0.00054884,0.04395,-0.0067202,-0.29288,0.0433,-0.0047713
659,-0.033354,0.017965,0.057917,-0.007045,-0.3351,0.021863,-0.0067202
660,-0.014516,0.041676,0.073832,-0.0050961,-0.36758,-0.0067202,-0.0054209
661,0.0078962,0.065387,0.089748,0.00010078,-0.39162,-0.035628,-0.0041217
662,0.02706,0.081303,0.10177,0.0088706,-0.40331,-0.060963,-0.0073698
663,0.036154,0.086824,0.10826,0.014717,-0.40688,-0.081101,-0.02426
664,0.032906,0.079029,0.11118,0.019589,-0.40169,-0.093119,-0.050244
665,0.019264,0.061165,0.11346,0.022188,-0.36791,-0.094418,-0.075904
666,0.0059473,0.04395,0.11736,0.021538,-0.28443,-0.086948,-0.086948
667,0.00042559,0.038103,0.1232,0.021538,-0.15191,-0.071032,-0.08305
668,0.0014,0.046223,0.131,0.029333,0.0088706,-0.04992,-0.070058
669,0.0036737,0.058891,0.14237,0.044599,0.16283,-0.025234,-0.052193
670,0.0056225,0.067986,0.15081,0.059865,0.28268,-0.00054884,-0.037577
671,0.0039985,0.066362,0.15114,0.067661,0.35641,0.021538,-0.031406
672,-0.0015233,0.054344,0.14399,0.063438,0.37655,0.039402,-0.03173
673,-0.0083442,0.036479,0.13327,0.046223,0.33173,0.053694,-0.034978
674,-0.014191,0.020239,0.12288,0.024137,0.22162,0.061489,-0.03303
675,-0.015165,0.0088706,0.11183,0.0010752,0.060515,0.063438,-0.023935
676,-0.013541,0.0065969,0.098193,-0.011592,-0.12495,0.062139,-0.0047713
677,-0.007045,0.011469,0.082927,-0.0083442,-0.29353,0.062139,0.019589
678,0.0039985,0.019264,0.071883,0.0072465,-0.40071,0.068635,0.043625
679,0.01894,0.025111,0.071883,0.027709,-0.4124,0.084226,0.067336
680,0.03518,0.027709,0.078379,0.0433,-0.32016,0.11151,0.094295
681,0.049796,0.030633,0.0852,0.050446,-0.15808,0.14529,0.12223
682,0.059541,0.039727,0.0852,0.045574,0.011144,0.17712,0.14594
683,0.065062,0.054019,0.073832,0.031607,0.12905,0.19628,0.16185
684,0.070584,0.06896,0.05142,0.013093,0.16608,0.20018,0.16933
685,0.074482,0.073507,0.024461,-0.0050961,0.12418,0.18849,0.16608
686,0.075456,0.067336,-0.00087364,-0.016789,0.031282,0.16998,0.15568
687,0.070584,0.058891,-0.022961,-0.017114,-0.079477,0.14919,0.14172
688,0.066037,0.048822,-0.037902,-0.0099683,-0.18049,0.13002,0.12807
689,0.066037,0.038428,-0.046347,-0.00054884,-0.26007,0.10924,0.11606
690,0.069934,0.029009,-0.051544,0.0046481,-0.31496,0.080328,0.10274
691,0.070909,0.021538,-0.054792,0.0069217,-0.33607,0.034855,0.091372
692,0.065712,0.016991,-0.054467,0.011469,-0.30782,-0.030756,0.076431
693,0.052395,0.012443,-0.054467,0.01894,-0.22434,-0.11553,0.047847
694,0.036804,0.0065969,-0.056091,0.029333,-0.11423,-0.2068,-0.0028225
695,0.025436,0.0039985,-0.056091,0.042326,-0.032705,-0.28346,-0.072656
696,0.020888,0.012443,-0.056091,0.057592,-0.020037,-0.32341,-0.14769
697,0.019264,0.028684,-0.056091,0.074157,-0.077853,-0.31691,-0.20583
698,0.015367,0.046223,-0.054467,0.087474,-0.16555,-0.26949,-0.22791
699,0.011469,0.056292,-0.051868,0.095594,-0.22337,-0.19283,-0.20355
700,0.010495,0.057917,-0.046671,0.094295,-0.20485,-0.099615,-0.14606
701,0.012768,0.053694,-0.038227,0.0865,-0.10319,-0.0031473,-0.073306
702,0.016341,0.046548,-0.026533,0.071883,0.050771,0.081952,-0.00022403
703,0.022188,0.040377,-0.018413,0.052395,0.20408,0.14626,0.061165
704,0.02706,0.037454,-0.018413,0.028359,0.30802,0.18492,0.10112
705,0.029009,0.037454,-0.025234,0.0062721,0.33368,0.19953,0.11866
706,0.028684,0.036804,-0.036927,-0.0060706,0.28203,0.19563,0.1206
707,0.027709,0.031282,-0.04992,-0.0096434,0.18004,0.17939,0.11638
708,0.029009,0.02641,-0.060638,-0.0041217,0.070584,0.15763,0.10794
709,0.032257,0.024461,-0.062912,0.0043233,-0.020687,0.14042,0.09397
710,0.034855,0.02706,-0.058365,0.010495,-0.094418,0.1362,0.076106
711,0.033556,0.030957,-0.051219,0.013743,-0.15646,0.14561,0.057267
712,0.028034,0.035505,-0.042124,0.019264,-0.20713,0.16445,0.041676
713,0.01894,0.041676,-0.029782,0.028359,-0.23668,0.18654,0.031607
714,0.011144,0.046548,-0.015815,0.039078,-0.23668,0.2044,0.025111
715,0.0065969,0.049796,-0.0015233,0.048822,-0.2107,0.2148,0.022837
716,0.0059473,0.050121,0.010495,0.055643,-0.16782,0.22065,0.027385
717,0.0091954,0.043625,0.021213,0.056292,-0.1204,0.22227,0.044599
718,0.015692,0.032257,0.03518,0.05142,-0.079477,0.2161,0.071883
719,0.023812,0.023812,0.048172,0.042001,-0.051544,0.20376,0.10177
720,0.028684,0.024461,0.057917,0.03453,-0.039851,0.18492,0.12483
721,0.029333,0.034855,0.062789,0.031282,-0.047321,0.15438,0.13944
722,0.026735,0.048497,0.063113,0.028684,-0.06681,0.11151,0.14529
723,0.020239,0.056942,0.062464,0.031932,-0.088896,0.058566,0.14367
724,0.010819,0.057592,0.062139,0.041027,-0.10838,0.0017248,0.13814
725,0.0020496,0.051745,0.06084,0.05142,-0.1204,-0.051868,0.13165
726,-0.00087364,0.044924,0.057917,0.055643,-0.12365,-0.098641,0.12548
727,-0.0011985,0.037129,0.050121,0.05207,-0.11845,-0.13924,0.11541
728,0.00075039,0.027385,0.042001,0.041027,-0.10319,-0.17367,0.092996
729,-0.0015233,0.016666,0.035505,0.029009,-0.078503,-0.19998,0.061814
730,-0.0057458,0.0069217,0.030308,0.01764,-0.046022,-0.21232,0.031932
731,-0.0083442,0.00010078,0.028359,0.011794,-0.0060706,-0.20615,0.012768
732,-0.0057458,-0.0028225,0.030633,0.013743,0.033556,-0.18342,0.0091954
733,-0.00054884,-0.0041217,0.034855,0.021213,0.064737,-0.14834,0.01894
734,0.0072465,-0.0037969,0.039078,0.033881,0.085525,-0.10676,0.032906
735,0.016016,-0.0018481,0.039078,0.04395,0.097543,-0.063237,0.049147
736,0.022188,0.0023744,0.038103,0.045899,0.10469,-0.025234,0.065062
737,0.024461,0.0072465,0.042001,0.041027,0.10599,0.0065969,0.076106
738,0.024461,0.012443,0.049796,0.032582,0.10014,0.032257,0.083251
739,0.023487,0.01764,0.056942,0.025436,0.0865,0.045574,0.082927
740,0.020239,0.019914,0.06019,0.023162,0.069285,0.041676,0.075781
741,0.013418,0.021538,0.063113,0.026735,0.05207,0.022512,0.065712
742,0.0095202,0.022837,0.070909,0.032906,0.04395,-0.0044465,0.055318
743,0.01017,0.01764,0.079354,0.036154,0.05207,-0.030106,0.041027
744,0.013418,0.0052977,0.085525,0.033881,0.073507,-0.04992,0.021213
745,0.016666,-0.0089938,0.084876,0.023812,0.09462,-0.065186,0.0023744
746,0.016666,-0.018413,0.076106,0.012119,0.10566,-0.080451,-0.0089938
747,0.012119,-0.021337,0.067986,0.0033489,0.10274,-0.097341,-0.011917
748,0.0043233,-0.016464,0.061165,-0.00054884,0.087799,-0.11618,-0.0089938
749,-0.0054209,-0.011267,0.055968,-0.0031473,0.06831,-0.13307,-0.0024977
750,-0.016464,-0.0089938,0.051096,-0.0060706,0.05142,-0.14704,0.0017248
751,-0.026858,-0.0096434,0.046223,-0.0096434,0.032257,-0.15743,-0.00054884
752,-0.033679,-0.010943,0.042975,-0.010943,0.0059473,-0.16653,-0.008669
753,-0.034004,-0.014516,0.042001,-0.0083442,-0.025884,-0.17107,-0.019388
754,-0.030106,-0.018413,0.041351,-0.0031473,-0.059014,-0.16685,-0.026858
755,-0.021986,-0.021661,0.039078,0.0023744,-0.086298,-0.15256,-0.023935
756,-0.010943,-0.02361,0.036479,0.0046481,-0.10156,-0.13242,-0.0080194
757,-0.0054209,-0.022311,0.032257,0.00010078,-0.09994,-0.11358,0.011469
758,-0.0067202,-0.018738,0.025111,-0.0093186,-0.081751,-0.098316,0.01894
759,-0.010293,-0.016789,0.013743,-0.022636,-0.055116,-0.087597,0.0062721
760,-0.012242,-0.016464,-0.0018481,-0.034329,-0.030756,-0.080127,-0.025884
761,-0.013866,-0.014516,-0.021337,-0.042774,-0.0093186,-0.072006,-0.06616
762,-0.020687,-0.011592,-0.039526,-0.047321,0.016016,-0.059664,-0.09929
763,-0.028807,-0.0076946,-0.052843,-0.046347,0.048172,-0.044723,-0.11748
764,-0.031081,-0.0028225,-0.059339,-0.040825,0.084876,-0.031406,-0.11715
765,-0.026858,-0.0011985,-0.064211,-0.035628,0.12385,-0.019063,-0.10611
766,-0.019712,-0.0041217,-0.069083,-0.032705,0.16835,-0.0028225,-0.094418
767,-0.012567,-0.011917,-0.072656,-0.029782,0.22292,0.017316,-0.0837
768,-0.0073698,-0.017439,-0.070382,-0.021012,0.28853,0.038428,-0.073631
769,-0.0044465,-0.01614,-0.061937,-0.011267,0.35641,0.054993,-0.058689
770,-0.0028225,-0.0089938,-0.051868,-0.00054884,0.41261,0.065062,-0.042449
771,0.00010078,-0.0018481,-0.04927,0.011144,0.43274,0.067661,-0.032705
772,0.0036737,0.0033489,-0.056416,0.022837,0.39929,0.059541,-0.034329
773,0.0069217,0.0062721,-0.067784,0.030957,0.31646,0.042326,-0.044723
774,0.009845,0.0065969,-0.073955,0.037454,0.2083,0.021213,-0.059339
775,0.016016,0.0069217,-0.069733,0.037129,0.11021,0.0049729,-0.069733
776,0.024137,0.012443,-0.059014,0.025111,0.048822,-0.0024977,-0.071032
777,0.035505,0.022512,-0.047321,0.0052977,0.037129,-0.00087364,-0.064211
778,0.049472,0.033881,-0.039201,-0.015815,0.064737,0.0043233,-0.053492
779,0.061165,0.043625,-0.037902,-0.026858,0.11118,0.0052977,-0.047321
780,0.065387,0.050446,-0.0405,-0.021986,0.15666,0.00075039,-0.053817
781,0.060515,0.053369,-0.045372,0.00010078,0.18881,-0.0047713,-0.072006
782,0.049147,0.049796,-0.051219,0.02641,0.19596,-0.0024977,-0.090521
783,0.032906,0.040702,-0.055766,0.048822,0.17225,0.01017,-0.10059
784,0.015367,0.029658,-0.061613,0.062139,0.12872,0.029658,-0.09929
785,0.00042559,0.019589,-0.067784,0.063438,0.0852,0.047198,-0.093444
786,-0.0089938,0.014068,-0.073306,0.053369,0.058241,0.057592,-0.082725
787,-0.010943,0.015042,-0.073306,0.034855,0.057592,0.059216,-0.068434
788,-0.010293,0.020564,-0.067784,0.013418,0.088448,0.052395,-0.055766
789,-0.013541,0.025436,-0.059989,-0.0076946,0.13457,0.039727,-0.043748
790,-0.021012,0.02706,-0.049595,-0.01549,0.16998,0.020888,-0.030756
791,-0.024909,0.028034,-0.037902,-0.012242,0.1755,0.0017248,-0.017439
792,-0.019063,0.031932,-0.023935,-0.0076946,0.14951,-0.010943,-0.0060706
793,-0.0057458,0.03453,-0.014191,-0.0096434,0.10177,-0.013866,0.0020496
794,0.0091954,0.032582,-0.0099683,-0.014516,0.046548,-0.0096434,0.0052977
795,0.021863,0.029658,-0.0089938,-0.019063,0.0020496,0.00075039,0.0078962
796,0.030633,0.025761,-0.0073698,-0.019388,-0.019063,0.010495,0.014068
797,0.03453,0.025111,-0.00022403,-0.017114,-0.023935,0.014717,0.027385
798,0.033231,0.025436,0.01017,-0.012567,-0.027183,0.0062721,0.045899
799,0.029333,0.029658,0.025111,-0.0054209,-0.042449,-0.015815,0.063763
800,0.028034,0.039402,0.042975,0.0091954,-0.074605,-0.0405,0.075456
801,0.033556,0.048497,0.061814,0.030633,-0.12333,-0.061288,0.084876
802,0.044924,0.055318,0.077405,0.050121,-0.17465,-0.077528,0.09462
803,0.057917,0.059541,0.084551,0.057917,-0.21817,-0.086298,0.10436
804,0.067661,0.063113,0.084226,0.055643,-0.2513,-0.084674,0.11118
805,0.069285,0.066686,0.081303,0.05207,-0.26916,-0.076229,0.11606
806,0.065062,0.069934,0.081952,0.048497,-0.26267,-0.06551,0.12028
807,0.058566,0.067011,0.0852,0.046223,-0.22856,-0.050244,0.11931
808,0.056292,0.059216,0.0865,0.045899,-0.17367,-0.031081,0.10924
809,0.055643,0.048497,0.084876,0.047847,-0.10254,-0.011592,0.090397
810,0.05272,0.040377,0.081303,0.050121,-0.022961,0.0091954,0.067661
811,0.047198,0.03583,0.078055,0.052395,0.061165,0.028684,0.050446
812,0.041676,0.03453,0.073832,0.058566,0.14464,0.048172,0.044599
813,0.038103,0.032582,0.073507,0.076755,0.21317,0.066686,0.050121
814,0.037129,0.031282,0.080003,0.10859,0.24728,0.087799,0.057917
815,0.039078,0.028684,0.092021,0.14886,0.22227,0.11118,0.061489
816,0.0433,0.025436,0.10436,0.18394,0.11313,0.13262,0.059541
817,0.049796,0.020239,0.11151,0.20116,-0.078827,0.15016,0.055968
818,0.051096,0.013418,0.11021,0.19499,-0.32081,0.16543,0.05272
819,0.044275,0.0052977,0.095919,0.17355,-0.56019,0.18459,0.049472
820,0.032906,-0.0037969,0.072533,0.14464,-0.73494,0.2161,0.048822
821,0.023812,-0.015815,0.049796,0.11443,-0.79925,0.26222,0.053369
822,0.020888,-0.030431,0.031932,0.086175,-0.73786,0.31906,0.065062
823,0.025111,-0.039201,0.022512,0.064413,-0.57189,0.37558,0.083251
824,0.029333,-0.039526,0.020888,0.049796,-0.34387,0.41943,0.099167
825,0.025761,-0.034329,0.025436,0.044599,-0.11131,0.43632,0.10566
826,0.013418,-0.031081,0.029658,0.04395,0.07708,0.4269,0.093321
827,-0.0034721,-0.033354,0.030308,0.042651,0.20083,0.39572,0.063763
828,-0.020687,-0.038876,0.028034,0.037778,0.26969,0.34894,0.023487
829,-0.034004,-0.045372,0.030308,0.030633,0.31419,0.29795,-0.01484
830,-0.041475,-0.046671,0.039727,0.021538,0.37136,0.24988,-0.039526
831,-0.045697,-0.037577,0.057917,0.014068,0.46035,0.21512,-0.045372
832,-0.045047,-0.021012,0.078055,0.011469,0.56137,0.20213,-0.033354
833,-0.037252,-0.00054884,0.095594,0.012443,0.63607,0.21058,-0.013541
834,-0.022311,0.016991,0.10469,0.015692,0.66466,0.23299,0.008221
835,-0.0044465,0.027385,0.11183,0.020564,0.63575,0.25313,0.027385
836,0.012768,0.033881,0.11866,0.027385,0.53798,0.25897,0.040702
837,0.024137,0.044599,0.12223,0.037454,0.385,0.24306,0.045574
838,0.028684,0.061489,0.11995,0.05142,0.21123,0.21123,0.0433
839,0.029658,0.082277,0.11476,0.069934,0.069285,0.16933,0.04395
840,0.030957,0.10306,0.11216,0.0865,0.014717,0.12223,0.047198
841,0.034206,0.11768,0.11183,0.096244,0.063113,0.073832,0.055318
842,0.041027,0.12028,0.10989,0.10079,0.16445,0.026085,0.067986
843,0.055643,0.11313,0.10112,0.10371,0.22909,-0.023935,0.078704
844,0.075456,0.10177,0.0865,0.10242,0.19661,-0.072331,0.081627
845,0.092671,0.093645,0.062139,0.091696,0.063763,-0.11813,0.071883
846,0.10274,0.092996,0.028684,0.073507,-0.12365,-0.16458,0.055318
847,0.10534,0.091047,-0.007045,0.046223,-0.30652,-0.21427,0.038103
848,0.10014,0.083901,-0.0405,0.012119,-0.42312,-0.26104,0.027709
849,0.087799,0.071558,-0.065186,-0.021337,-0.42247,-0.30132,0.023812
850,0.074157,0.055968,-0.080776,-0.047321,-0.30392,-0.3299,0.022512
851,0.061814,0.038103,-0.089546,-0.062262,-0.11066,-0.34062,0.023162
852,0.051745,0.017316,-0.092469,-0.062912,0.10144,-0.33478,0.028034
853,0.040052,0.00010078,-0.09117,-0.053168,0.296,-0.31301,0.034206
854,0.027709,-0.010618,-0.088896,-0.043099,0.45483,-0.28183,0.036479
855,0.016666,-0.016464,-0.086623,-0.036602,0.56592,-0.25325,0.032906
856,0.0065969,-0.018413,-0.082725,-0.030106,0.62406,-0.24091,0.019589
857,-0.0028225,-0.021661,-0.076554,-0.022311,0.63218,-0.25033,-0.0050961
858,-0.014191,-0.028482,-0.067459,-0.015165,0.59645,-0.27469,-0.037252
859,-0.025884,-0.033354,-0.056091,-0.010293,0.51752,-0.29872,-0.065835
860,-0.033679,-0.030106,-0.049595,-0.0080194,0.40156,-0.30879,-0.084024
861,-0.033354,-0.019063,-0.046022,-0.0041217,0.2619,-0.29807,-0.09182
862,-0.024909,-0.0018481,-0.040825,0.003024,0.11833,-0.26916,-0.094093
863,-0.0096434,0.016341,-0.03238,0.009845,-0.0089938,-0.22921,-0.099615
864,0.0049729,0.032582,-0.020687,0.0095202,-0.10254,-0.18504,-0.10806
865,0.0085458,0.046873,-0.0096434,-0.00054884,-0.15321,-0.13957,-0.11975
866,-0.0011985,0.055318,-0.0067202,-0.013866,-0.16685,-0.092145,-0.13145
867,-0.020687,0.055643,-0.011267,-0.027183,-0.15516,-0.041799,-0.13145
868,-0.041475,0.048822,-0.021337,-0.038876,-0.13275,0.009845,-0.11618
869,-0.054467,0.039727,-0.027833,-0.046996,-0.11553,0.06019,-0.093769
870,-0.055116,0.034855,-0.029132,-0.04927,-0.1295,0.10436,-0.072656
871,-0.043099,0.038428,-0.020362,-0.041799,-0.19576,0.13522,-0.054467
872,-0.018738,0.053369,-0.0093186,-0.022961,-0.31594,0.15049,-0.030756
873,0.014068,0.070584,-0.00087364,0.00075039,-0.4673,0.15503,-0.00054884
874,0.04395,0.079029,0.00042559,0.018615,-0.61541,0.15309,0.026735
875,0.06084,0.076431,-0.0057458,0.019914,-0.73039,0.14594,0.041027
876,0.059541,0.065712,-0.018088,0.0043233,-0.78788,0.13717,0.03518
877,0.042975,0.05142,-0.033354,-0.015815,-0.78074,0.12353,0.011144
878,0.022512,0.040052,-0.044723,-0.030756,-0.72097,0.10144,-0.02426
879,0.0036737,0.039402,-0.049595,-0.037252,-0.63262,0.067336,-0.057715
880,-0.0054209,0.045899,-0.04927,-0.035303,-0.54005,0.023812,-0.079152
881,-0.0028225,0.050771,-0.045697,-0.026209,-0.4582,-0.025559,-0.0837
882,0.0072465,0.047523,-0.042124,-0.018413,-0.38317,-0.082076,-0.072981
883,0.016991,0.036804,-0.04115,-0.016789,-0.31269,-0.14054,-0.048945
884,0.021863,0.021863,-0.039526,-0.019063,-0.2487,-0.19413,-0.016464
885,0.021863,0.0072465,-0.038551,-0.023935,-0.19706,-0.23636,0.013418
886,0.019264,-0.0028225,-0.036602,-0.03173,-0.16035,-0.25942,0.036479
887,0.019589,-0.0054209,-0.035628,-0.044723,-0.13632,-0.26137,0.051745
888,0.023487,-0.00022403,-0.038551,-0.062262,-0.12657,-0.23961,0.06084
889,0.030633,0.008221,-0.042449,-0.077853,-0.13177,-0.19641,0.066037
890,0.036804,0.015367,-0.044073,-0.085648,-0.15093,-0.14119,0.06896
891,0.039078,0.021538,-0.039851,-0.086298,-0.16815,-0.084674,0.071234
892,0.03518,0.022512,-0.030106,-0.080451,-0.15841,-0.034004,0.072533
893,0.029333,0.01894,-0.018738,-0.074605,-0.11488,0.0039985,0.071883
894,0.022512,0.011469,-0.0057458,-0.071357,-0.057715,0.028684,0.067011
895,0.014068,0.0056225,0.009845,-0.070382,-0.020362,0.039727,0.053044
896,0.0043233,0.00042559,0.02706,-0.065186,-0.027183,0.037129,0.030308
897,-0.0080194,-0.0054209,0.042651,-0.053168,-0.085973,0.017965,-0.0018481
898,-0.025884,-0.012892,0.055643,-0.039201,-0.18342,-0.01484,-0.037902
899,-0.048945,-0.021012,0.062464,-0.025234,-0.27566,-0.055766,-0.06681
900,-0.071682,-0.028807,0.065062,-0.010293,-0.31496,-0.088247,-0.081426
901,-0.08305,-0.03303,0.065712,0.0085458,-0.28411,-0.10124,-0.075904
902,-0.081101,-0.033679,0.067986,0.029983,-0.21232,-0.092794,-0.056091
903,-0.067134,-0.032055,0.073507,0.049796,-0.14736,-0.075255,-0.029457
904,-0.051868,-0.028157,0.080003,0.066362,-0.11878,-0.056741,-0.0034721
905,-0.039201,-0.021661,0.08585,0.080328,-0.12398,-0.038227,0.015692
906,-0.030431,-0.012892,0.092346,0.089423,-0.14314,-0.017439,0.029983
907,-0.021661,-0.0018481,0.10112,0.093645,-0.15581,0.0088706,0.043625
908,-0.010293,0.010495,0.11313,0.096569,-0.14541,0.03583,0.06084
909,0.00010078,0.019589,0.1245,0.10436,-0.10611,0.055643,0.080653
910,0.0088706,0.025111,0.131,0.11671,-0.044723,0.063113,0.097868
911,0.018615,0.029983,0.1284,0.13035,0.020564,0.054019,0.11054
912,0.029333,0.033881,0.11638,0.14139,0.078055,0.028684,0.11703
913,0.042001,0.034206,0.10274,0.14432,0.13035,-0.010293,0.11573
914,0.054668,0.032257,0.097218,0.13879,0.1768,-0.057715,0.10761
915,0.063113,0.027709,0.099817,0.12515,0.21317,-0.10611,0.091372
916,0.066037,0.025761,0.10599,0.10826,0.23299,-0.14736,0.071883
917,0.064413,0.029009,0.10826,0.095269,0.23039,-0.17627,0.056292
918,0.06019,0.034855,0.10696,0.087799,0.20473,-0.19186,0.051096
919,0.059216,0.038753,0.10144,0.083576,0.16868,-0.19316,0.055318
920,0.059216,0.039727,0.090397,0.082277,0.14074,-0.17594,0.062464
921,0.057917,0.038428,0.07708,0.082277,0.13847,-0.14541,0.072858
922,0.054344,0.035505,0.066362,0.080978,0.1703,-0.10806,0.08585
923,0.047198,0.029333,0.057267,0.074482,0.22844,-0.069083,0.10144
924,0.038103,0.021213,0.045574,0.062139,0.28853,-0.029457,0.11054
925,0.025761,0.014717,0.029009,0.046873,0.31516,0.0069217,0.11151
926,0.011794,0.013093,0.0085458,0.029333,0.28431,0.034855,0.10436
927,-0.0018481,0.015367,-0.012567,0.013093,0.18784,0.051096,0.085525
928,-0.0047713,0.01764,-0.029457,0.0017248,0.049796,0.057592,0.051745
929,0.0023744,0.019589,-0.042124,-0.0044465,-0.088247,0.057917,0.0056225
930,0.014392,0.01894,-0.050244,-0.01484,-0.17822,0.058566,-0.045372
931,0.019264,0.015042,-0.056741,-0.028807,-0.19933,0.067011,-0.088247
932,0.013418,0.0065969,-0.063561,-0.042449,-0.1662,0.085525,-0.11618
933,0.0014,-0.0063954,-0.068434,-0.04992,-0.10546,0.11378,-0.12755
934,-0.012242,-0.021986,-0.069408,-0.04992,-0.035303,0.15016,-0.12073
935,-0.021986,-0.037252,-0.06551,-0.041475,0.033881,0.19174,-0.098641
936,-0.022961,-0.047321,-0.059989,-0.026533,0.092021,0.23136,-0.067784
937,-0.015815,-0.049595,-0.053817,-0.0076946,0.13002,0.26709,-0.034978
938,-0.0037969,-0.043099,-0.046671,0.012119,0.15179,0.29892,-0.0089938
939,0.01017,-0.028482,-0.04115,0.030633,0.17225,0.33108,0.0072465
940,0.020239,-0.011917,-0.039201,0.04395,0.2096,0.36681,0.013418
941,0.022512,0.003024,-0.043423,0.045574,0.26449,0.40091,0.015692
942,0.016991,0.014717,-0.051544,0.031932,0.32004,0.4269,0.019589
943,0.0072465,0.023487,-0.056741,0.013418,0.35512,0.43599,0.028684
944,0.00075039,0.028034,-0.052843,0.00010078,0.35024,0.42397,0.039402
945,0.00042559,0.031607,-0.039851,-0.0028225,0.30672,0.39377,0.050446
946,0.0046481,0.032582,-0.02361,0.0056225,0.24955,0.35576,0.06084
947,0.0072465,0.03518,-0.010293,0.020888,0.21675,0.32004,0.068635
948,0.0072465,0.039402,-0.00087364,0.042651,0.23364,0.29633,0.078055
949,0.0072465,0.045249,0.00075039,0.06961,0.29275,0.27944,0.089748
950,0.0088706,0.053694,-0.0028225,0.097218,0.37071,0.26092,0.10079
951,0.016341,0.060515,-0.0093186,0.11995,0.44996,0.23331,0.10956
952,0.030957,0.063763,-0.015815,0.13002,0.5159,0.19401,0.11541
953,0.046223,0.062139,-0.019712,0.12807,0.5578,0.14886,0.11606
954,0.057592,0.057267,-0.020037,0.11281,0.56429,0.10274,0.11054
955,0.061165,0.052395,-0.019063,0.092346,0.53343,0.061814,0.097868
956,0.056292,0.049147,-0.017114,0.069934,0.46685,0.029333,0.081303
957,0.041676,0.048822,-0.015815,0.053369,0.37623,0.0014,0.066037
958,0.024786,0.048172,-0.014191,0.044275,0.28203,-0.026533,0.057267
959,0.011794,0.045899,-0.01549,0.044599,0.20473,-0.050894,0.05207
960,0.0043233,0.042001,-0.017439,0.054668,0.14529,-0.065835,0.050121
961,0.0033489,0.038753,-0.019388,0.06831,0.080003,-0.072656,0.049147
962,0.0069217,0.037454,-0.018413,0.078704,-0.015815,-0.072981,0.048822
963,0.008221,0.038103,-0.017114,0.081303,-0.14346,-0.072006,0.0433
964,0.0020496,0.037454,-0.016789,0.069934,-0.27501,-0.072981,0.027709
965,-0.0096434,0.029983,-0.013866,0.045899,-0.37505,-0.077203,0.0056225
966,-0.022961,0.016991,-0.010293,0.013743,-0.42117,-0.081426,-0.013541
967,-0.030106,0.0052977,-0.0054209,-0.017439,-0.40786,-0.080451,-0.021337
968,-0.028807,0.0014,0.0020496,-0.038876,-0.35069,-0.070058,-0.017114
969,-0.017764,0.0078962,0.013093,-0.051219,-0.27176,-0.048945,-0.0034721
970,-0.0034721,0.016666,0.024786,-0.055116,-0.18699,-0.019712,0.016341
971,0.008221,0.026085,0.034206,-0.050244,-0.10514,0.011794,0.038103
972,0.020239,0.03583,0.040377,-0.035953,-0.040175,0.038753,0.063438
973,0.037778,0.045249,0.046873,-0.016464,-0.0024977,0.056942,0.088448
974,0.057592,0.050771,0.055968,0.0020496,0.0056225,0.064737,0.10761
975,0.076431,0.05272,0.067011,0.013418,-0.0057458,0.063438,0.11768
976,0.090722,0.056292,0.075131,0.016016,-0.02426,0.055318,0.11898
977,0.096244,0.063763,0.080653,0.013418,-0.035628,0.042651,0.11443
978,0.096244,0.074482,0.082927,0.013418,-0.034654,0.025436,0.10631
979,0.093321,0.079679,0.081952,0.020239,-0.023285,0.0036737,0.092996
980,0.087474,0.076431,0.078704,0.032582,-0.013866,-0.021986,0.076106
981,0.078055,0.067661,0.078379,0.04395,-0.016789,-0.052193,0.059865
982,0.067661,0.055968,0.08585,0.055968,-0.038876,-0.083375,0.049472
983,0.063113,0.046873,0.10047,0.070259,-0.073955,-0.10806,0.043625
984,0.069934,0.046873,0.11541,0.083251,-0.10741,-0.12203,0.042001
985,0.083576,0.055318,0.1206,0.087474,-0.12787,-0.1282,0.042001
986,0.09462,0.065062,0.11736,0.080003,-0.1321,-0.12885,0.04395
987,0.10306,0.070259,0.11086,0.064737,-0.1243,-0.12755,0.049147
988,0.10469,0.067661,0.10599,0.049796,-0.10676,-0.12592,0.056617
989,0.098193,0.064088,0.10274,0.041027,-0.086948,-0.1295,0.062139
990,0.087799,0.058241,0.10112,0.038428,-0.070058,-0.14087,0.057917
991,0.07773,0.051096,0.099817,0.036804,-0.054142,-0.15613,0.037454
992,0.068635,0.039078,0.092346,0.032582,-0.026533,-0.17237,0.00010078
993,0.056292,0.024461,0.077405,0.021863,0.019589,-0.18731,-0.045047
994,0.042326,0.0095202,0.058891,0.0046481,0.082927,-0.19836,-0.086298
995,0.025436,-0.00087364,0.041027,-0.015165,0.15763,-0.20388,-0.11683
996,0.0078962,-0.0093186,0.029009,-0.027183,0.22941,-0.20713,-0.13534
997,-0.0089938,-0.019063,0.022837,-0.027508,0.27944,-0.2133,-0.14249
998,-0.026209,-0.027833,0.019264,-0.019063,0.28723,-0.21785,-0.13924
999,-0.039201,-0.034329,0.017965,-0.0096434,0.24013,-0.21557,-0.12787
1000,-0.04862,-0.037252,0.015367,0.00010078,0.14724,-0.20063,-0.10838
1001,-0.051219,-0.034654,0.013093,0.010819,0.034206,-0.1727,-0.085324
1002,-0.045697,-0.027508,0.0088706,0.022188,-0.06681,-0.13502,-0.060963
1003,-0.03303,-0.018088,0.0052977,0.033231,-0.12917,-0.084349,-0.042449
1004,-0.016789,-0.010943,0.0014,0.040052,-0.14281,-0.022636,-0.039851
1005,-0.0028225,-0.008669,-0.0018481,0.04395,-0.11456,0.036154,-0.060313
1006,0.0036737,-0.0099683,-0.0047713,0.045574,-0.063561,0.077405,-0.10286
1007,-0.00022403,-0.010618,-0.0067202,0.042326,-0.0034721,0.092671,-0.15158
1008,-0.011267,-0.0089938,-0.0093186,0.038103,0.061165,0.086175,-0.19316
1009,-0.026533,-0.008669,-0.011267,0.03583,0.1245,0.065712,-0.21817
1010,-0.038227,-0.0089938,-0.015165,0.035505,0.17842,0.037778,-0.22597
1011,-0.043423,-0.010943,-0.022636,0.032582,0.20928,0.0043233,-0.21525
1012,-0.044073,-0.013866,-0.035953,0.023487,0.2057,-0.026858,-0.19024
1013,-0.040175,-0.017764,-0.053492,0.0062721,0.1677,-0.04992,-0.15548
1014,-0.035953,-0.019712,-0.072656,-0.013866,0.10436,-0.066485,-0.11683
1015,-0.030431,-0.022311,-0.087597,-0.030106,0.026735,-0.077528,-0.077853
1016,-0.024585,-0.024909,-0.097017,-0.0405,-0.053168,-0.088572,-0.044073
1017,-0.016464,-0.023935,-0.097017,-0.044398,-0.12722,-0.097666,-0.018088
1018,-0.0044465,-0.021012,-0.092469,-0.043423,-0.18536,-0.10254,0.0033489
1019,0.0095202,-0.016789,-0.087597,-0.04115,-0.22077,-0.10189,0.025111
1020,0.019589,-0.011917,-0.086948,-0.040825,-0.23571,-0.10026,0.049472
1021,0.022512,-0.0060706,-0.085973,-0.041475,-0.23246,-0.097991,0.075456
1022,0.016991,-0.0021729,-0.077528,-0.043423,-0.22174,-0.097991,0.10047
1023,0.0075714,0.0020496,-0.063237,-0.046347,-0.22142,-0.095393,0.12093
1024,0.00010078,0.0062721,-0.044398,-0.04927,-0.24188,-0.084674,0.13457
1025,-0.0047713,0.012768,-0.027833,-0.049595,-0.28378,-0.068109,0.14399
1026,-0.0093186,0.017316,-0.020687,-0.04862,-0.33055,-0.050244,0.14886
1027,-0.0093186,0.018615,-0.026209,-0.046347,-0.35849,-0.035303,0.14659
1028,-0.0028225,0.020239,-0.0405,-0.042124,-0.35459,-0.021337,0.13814
1029,0.012443,0.02641,-0.055441,-0.032705,-0.31724,-0.0037969,0.12937
1030,0.029983,0.038753,-0.065186,-0.019712,-0.25325,0.020564,0.12385
1031,0.045574,0.057267,-0.062587,-0.0050961,-0.17757,0.047198,0.11995
1032,0.05272,0.075131,-0.046671,0.0046481,-0.10579,0.070584,0.11736
1033,0.054019,0.089423,-0.024585,0.0075714,-0.04927,0.0865,0.11703
1034,0.053369,0.095269,-0.0034721,0.0023744,-0.0089938,0.09397,0.11703
1035,0.050121,0.093321,0.0095202,-0.0037969,0.031282,0.090722,0.11606
1036,0.042651,0.084551,0.010819,-0.0047713,0.088124,0.079679,0.11216
1037,0.030308,0.06896,0.0052977,0.00010078,0.17257,0.071558,0.10664
1038,0.016666,0.047523,-0.0015233,0.0052977,0.28203,0.073832,0.098842
1039,0.0078962,0.029983,-0.0060706,0.0091954,0.40676,0.09462,0.090722
1040,0.0062721,0.015367,-0.0076946,0.013418,0.52077,0.13262,0.080003
1041,0.011469,0.0033489,-0.0093186,0.020239,0.58216,0.1768,0.064413
1042,0.015367,-0.0057458,-0.013216,0.028684,0.56137,0.21382,0.045899
1043,0.011794,-0.012567,-0.018088,0.036804,0.46165,0.23364,0.022512
1044,-0.00022403,-0.016464,-0.023285,0.046223,0.31874,0.22941,-0.00087364
1045,-0.01614,-0.021337,-0.029132,0.055318,0.16933,0.20733,-0.022636
1046,-0.03173,-0.025559,-0.033679,0.056942,0.045249,0.17647,-0.034978
1047,-0.040825,-0.025884,-0.03173,0.051096,-0.04862,0.15016,-0.032705
1048,-0.042449,-0.022311,-0.025559,0.039078,-0.12592,0.13392,-0.018738
1049,-0.034329,-0.01549,-0.016789,0.028034,-0.21557,0.12645,0.0046481
1050,-0.018738,-0.010293,-0.0080194,0.025111,-0.34517,0.12028,0.03453
1051,-0.0024977,-0.0080194,-0.0015233,0.032257,-0.51992,0.10761,0.064737
1052,0.0091954,-0.007045,0.0017248,0.04395,-0.69401,0.084551,0.090397
1053,0.013743,-0.0024977,0.0065969,0.05272,-0.79113,0.052395,0.10371
1054,0.014717,0.0088706,0.014717,0.060515,-0.74891,0.014068,0.10729
1055,0.016991,0.021863,0.026735,0.072533,-0.53811,-0.024585,0.10371
1056,0.023162,0.033231,0.042326,0.084876,-0.16035,-0.051868,0.096244
1057,0.03583,0.0433,0.06019,0.092021,0.3051,-0.062587,0.087474
1058,0.049147,0.051745,0.079679,0.092671,0.7254,-0.056741,0.079679
1059,0.054019,0.059865,0.099492,0.091696,0.99076,-0.036927,0.071558
1060,0.049796,0.065387,0.11606,0.091372,1.0567,-0.012567,0.057592
1061,0.039402,0.06896,0.12613,0.089098,0.94789,0.013418,0.033556
1062,0.028684,0.071883,0.13067,0.087799,0.73709,0.039402,0.00010078
1063,0.019914,0.076755,0.12807,0.0865,0.49868,0.06019,-0.037252
1064,0.012768,0.080328,0.12028,0.085525,0.28821,0.078704,-0.071032
1065,0.0085458,0.076431,0.11086,0.082277,0.14172,0.09462,-0.095717
1066,0.0046481,0.065062,0.10371,0.074482,0.081303,0.10794,-0.10644
1067,0.00075039,0.050121,0.10306,0.063763,0.095919,0.11443,-0.10514
1068,-0.0063954,0.03583,0.10631,0.05142,0.14334,0.10859,-0.10319
1069,-0.015815,0.024137,0.11054,0.040052,0.17777,0.0865,-0.11326
1070,-0.026858,0.015042,0.11118,0.029333,0.17322,0.052395,-0.13924
1071,-0.038876,0.0052977,0.10859,0.018615,0.12905,0.014717,-0.17042
1072,-0.050894,-0.0073698,0.10079,0.016666,0.059216,-0.015165,-0.18731
1073,-0.059014,-0.024585,0.091696,0.026735,-0.019712,-0.03173,-0.18212
1074,-0.057715,-0.039201,0.086175,0.04395,-0.094418,-0.034654,-0.15548
1075,-0.045047,-0.046347,0.0865,0.06019,-0.1623,-0.028482,-0.11358
1076,-0.026858,-0.041475,0.090722,0.071558,-0.21849,-0.019063,-0.071032
1077,-0.0099683,-0.025234,0.095269,0.073832,-0.25812,-0.0099683,-0.031406
1078,0.0017248,-0.0041217,0.095269,0.066686,-0.27891,-0.0015233,0.0014
1079,0.0059473,0.014717,0.089423,0.054668,-0.29125,0.0049729,0.032257
1080,0.0085458,0.024137,0.076431,0.039078,-0.30489,0.0039985,0.058566
1081,0.011469,0.02641,0.058566,0.022188,-0.31821,-0.0054209,0.074157
1082,0.013093,0.022837,0.038428,0.0091954,-0.32698,-0.019388,0.080653
1083,0.015692,0.01829,0.023487,0.003024,-0.3299,-0.034978,0.082602
1084,0.019264,0.018615,0.016666,0.0020496,-0.32698,-0.044073,0.0852
1085,0.029333,0.02706,0.016666,0.0056225,-0.30749,-0.045047,0.088773
1086,0.04395,0.039727,0.021863,0.011144,-0.27046,-0.037252,0.09462
1087,0.054668,0.048172,0.029009,0.014392,-0.22499,-0.021661,0.10144
1088,0.059541,0.047523,0.034855,0.01017,-0.18374,-0.0073698,0.10599
1089,0.058566,0.039727,0.038103,-0.0050961,-0.15808,-0.0044465,0.10274
1090,0.056942,0.028684,0.03518,-0.022311,-0.14964,-0.016789,0.093645
1091,0.058891,0.024461,0.025761,-0.033679,-0.15678,-0.041475,0.087149
1092,0.062789,0.027385,0.012768,-0.032055,-0.1753,-0.067784,0.088124
1093,0.065712,0.035505,0.0014,-0.020687,-0.19771,-0.084024,0.092346
1094,0.060515,0.041351,-0.0083442,-0.0031473,-0.22044,-0.085324,0.09462
1095,0.049147,0.037778,-0.017114,0.016991,-0.23246,-0.073306,0.090072
1096,0.035505,0.024137,-0.028482,0.033881,-0.22726,-0.054142,0.081952
1097,0.026085,0.0059473,-0.040825,0.044275,-0.2094,-0.034004,0.070909
1098,0.019914,-0.0037969,-0.04927,0.042975,-0.18861,-0.017764,0.054668
1099,0.016991,-0.00054884,-0.053492,0.029658,-0.1688,-0.0080194,0.037129
1100,0.013093,0.010819,-0.057715,0.0088706,-0.14249,-0.0031473,0.023162
1101,0.0095202,0.023812,-0.064211,-0.010943,-0.098316,0.0010752,0.01017
1102,0.008221,0.032906,-0.069083,-0.023285,-0.027833,0.0039985,0.0033489
1103,0.011144,0.036804,-0.068434,-0.030106,0.057917,0.0046481,0.0075714
1104,0.01829,0.039078,-0.061613,-0.035303,0.12905,0.0026992,0.014392
1105,0.028359,0.040377,-0.04862,-0.042124,0.15796,0.0039985,0.021213
1106,0.039078,0.042001,-0.033354,-0.052518,0.1323,0.0075714,0.029009
1107,0.044924,0.040702,-0.021661,-0.065186,0.052395,0.0059473,0.036154
1108,0.0433,0.036479,-0.021337,-0.076229,-0.063237,-0.0080194,0.039727
1109,0.032257,0.033231,-0.030756,-0.083375,-0.18829,-0.037902,0.039402
1110,0.016991,0.031607,-0.0405,-0.083375,-0.30782,-0.0837,0.029333
1111,0.0026992,0.031282,-0.04862,-0.077528,-0.40526,-0.13827,0.0088706
1112,-0.0076946,0.034206,-0.046671,-0.06551,-0.44359,-0.18634,-0.013541
1113,-0.014516,0.040702,-0.039201,-0.044398,-0.38999,-0.2133,-0.028157
1114,-0.017439,0.048497,-0.027508,-0.01484,-0.24383,-0.2172,-0.028807
1115,-0.020037,0.054668,-0.015815,0.015042,-0.06551,-0.20485,-0.017764
1116,-0.02361,0.059541,-0.0076946,0.036804,0.051096,-0.17822,-0.0050961
1117,-0.027183,0.061814,-0.00054884,0.048822,0.0433,-0.13989,0.0033489
1118,-0.025559,0.062789,0.0078962,0.058241,-0.088572,-0.090196,0.008221
1119,-0.014516,0.062139,0.014392,0.06961,-0.28021,-0.030756,0.015367
1120,0.0043233,0.058241,0.01894,0.079679,-0.44586,0.033881,0.026735
1121,0.023487,0.050771,0.022188,0.091047,-0.51764,0.099167,0.031607
1122,0.037454,0.042975,0.022512,0.10664,-0.46015,0.15763,0.023487
1123,0.0433,0.037129,0.016341,0.1258,-0.27956,0.20635,0.0069217
1124,0.044599,0.031932,0.0062721,0.14204,-0.023935,0.24078,-0.0089938
1125,0.042001,0.021213,-0.0050961,0.14789,0.23656,0.26027,-0.017764
1126,0.03453,0.0043233,-0.01484,0.13814,0.44379,0.26352,-0.020037
1127,0.023162,-0.01549,-0.016464,0.11508,0.57663,0.2502,-0.021337
1128,0.0075714,-0.031406,-0.0096434,0.090072,0.64192,0.22097,-0.022961
1129,-0.0093186,-0.037252,0.00010078,0.071234,0.66661,0.18102,-0.027183
1130,-0.024909,-0.034978,0.0085458,0.061165,0.67278,0.13652,-0.036927
1131,-0.03238,-0.028807,0.014717,0.054668,0.6692,0.095919,-0.050244
1132,-0.029457,-0.023285,0.020888,0.046873,0.65361,0.064737,-0.063886
1133,-0.01614,-0.016789,0.028034,0.036804,0.61983,0.044599,-0.069408
1134,0.0056225,-0.0063954,0.038753,0.029333,0.57241,0.03583,-0.055766
1135,0.031932,0.0075714,0.05272,0.026085,0.51265,0.041676,-0.021661
1136,0.059216,0.022837,0.064088,0.033556,0.44574,0.054993,0.02641
1137,0.083576,0.036804,0.071234,0.051096,0.36583,0.064737,0.072208
1138,0.10047,0.049796,0.07773,0.06961,0.26807,0.06896,0.10079
1139,0.10566,0.056292,0.086175,0.080328,0.15698,0.067336,0.10534
1140,0.10144,0.054668,0.094945,0.081303,0.044924,0.066362,0.091696
1141,0.089748,0.049796,0.097868,0.073832,-0.046996,0.067011,0.070259
1142,0.076106,0.044599,0.092021,0.064413,-0.10416,0.073182,0.052395
1143,0.064737,0.038428,0.083901,0.061165,-0.12625,0.084551,0.042975
1144,0.059541,0.032906,0.080328,0.067661,-0.12657,0.10112,0.038753
1145,0.062789,0.030633,0.089748,0.079354,-0.1243,0.11801,0.036154
1146,0.072858,0.03583,0.10696,0.089098,-0.12722,0.12937,0.03453
1147,0.08585,0.047523,0.1245,0.098517,-0.14087,0.13327,0.036154
1148,0.10047,0.062464,0.13425,0.10794,-0.16133,0.1284,0.045574
1149,0.10956,0.074157,0.13555,0.11736,-0.18244,0.11671,0.063763
1150,0.10826,0.075456,0.12645,0.12288,-0.18504,0.10242,0.081627
1151,0.099817,0.065712,0.11216,0.12223,-0.15353,0.091696,0.089098
1152,0.088773,0.053044,0.097543,0.11281,-0.094418,0.082602,0.088124
1153,0.079029,0.042326,0.082927,0.095919,-0.032705,0.069934,0.08585
1154,0.071234,0.031607,0.069934,0.076106,0.009845,0.050121,0.086175
1155,0.063113,0.021863,0.059216,0.055318,0.024461,0.021863,0.08585
1156,0.055643,0.015692,0.048497,0.03453,0.015367,-0.012892,0.082927
1157,0.049796,0.015692,0.036479,0.019264,-0.0018481,-0.044723,0.074157
1158,0.047198,0.021213,0.023487,0.0059473,-0.0080194,-0.064861,0.056617
1159,0.045249,0.032257,0.013743,-0.0057458,0.0075714,-0.064211,0.038753
1160,0.044275,0.047198,0.010495,-0.010618,0.044599,-0.044073,0.027385
1161,0.042975,0.065062,0.011144,-0.0083442,0.092671,-0.014191,0.02706
1162,0.043625,0.079029,0.01017,-0.0015233,0.13912,0.010495,0.034206
1163,0.045249,0.084876,0.0059473,0.0020496,0.1729,0.020564,0.043625
1164,0.044924,0.080653,0.00042559,-0.00087364,0.18589,0.011794,0.051096
1165,0.039078,0.072208,-0.0054209,-0.0096434,0.17225,-0.0099683,0.048822
1166,0.026735,0.064737,-0.012892,-0.026209,0.131,-0.035303,0.036479
1167,0.0095202,0.056942,-0.021661,-0.045047,0.074482,-0.055441,0.01894
1168,-0.0089938,0.049147,-0.034329,-0.059989,0.026735,-0.068434,0.003024
1169,-0.024909,0.038753,-0.04992,-0.068109,0.012768,-0.078827,-0.0099683
1170,-0.037902,0.030308,-0.065186,-0.068434,0.042651,-0.087597,-0.020362
1171,-0.045047,0.024137,-0.077203,-0.063237,0.099492,-0.093119,-0.031406
1172,-0.043748,0.021538,-0.085648,-0.049595,0.15666,-0.09182,-0.039851
1173,-0.036278,0.020888,-0.090521,-0.029457,0.19499,-0.081426,-0.040825
1174,-0.024585,0.024786,-0.090845,-0.0099683,0.21123,-0.06551,-0.032705
1175,-0.008669,0.031932,-0.087597,0.0017248,0.2135,-0.045047,-0.021012
1176,0.011794,0.040377,-0.082076,0.0039985,0.21285,-0.020037,-0.013216
1177,0.032582,0.048822,-0.077853,-0.00087364,0.21123,0.0046481,-0.013866
1178,0.049472,0.059541,-0.073955,-0.012242,0.20148,0.020239,-0.01484
1179,0.063113,0.076755,-0.069733,-0.025884,0.18427,0.023487,-0.0083442
1180,0.067661,0.091696,-0.065186,-0.0405,0.16185,0.018615,0.0026992
1181,0.058566,0.096893,-0.060638,-0.052193,0.13262,0.0065969,0.012768
1182,0.039078,0.089748,-0.058689,-0.055441,0.097543,-0.010943,0.018615
1183,0.019264,0.076106,-0.062587,-0.048945,0.057267,-0.027833,0.020564
1184,0.0046481,0.063438,-0.072981,-0.040825,0.014717,-0.042449,0.017316
1185,-0.0041217,0.05272,-0.088572,-0.037902,-0.024585,-0.058689,0.010495
1186,-0.010293,0.044275,-0.10449,-0.040175,-0.058689,-0.094743,0.0056225
1187,-0.010943,0.037454,-0.11553,-0.045697,-0.092145,-0.15678,0.0072465
1188,-0.0060706,0.033881,-0.11683,-0.051544,-0.12333,-0.24091,0.016341
1189,-0.00022403,0.033881,-0.11196,-0.060963,-0.15029,-0.3312,0.029333
1190,0.0023744,0.034855,-0.10774,-0.077203,-0.16685,-0.40656,0.040702
1191,0.00010078,0.036154,-0.10644,-0.093444,-0.17335,-0.44878,0.044599
1192,-0.0024977,0.033556,-0.10546,-0.09994,-0.16458,-0.45236,0.042001
1193,-0.0041217,0.025436,-0.10351,-0.090196,-0.14054,-0.41598,0.037129
1194,-0.0057458,0.013093,-0.097666,-0.067134,-0.11098,-0.339,0.033881
1195,-0.0080194,0.0010752,-0.090521,-0.04115,-0.089871,-0.22791,0.030957
1196,-0.0093186,-0.0050961,-0.083375,-0.024585,-0.084024,-0.09994,0.02706
1197,-0.0096434,-0.0057458,-0.078827,-0.023285,-0.09117,0.024137,0.023487
1198,-0.011917,-0.0018481,-0.073955,-0.028157,-0.10384,0.131,0.016016
1199,-0.018738,0.0033489,-0.06616,-0.034654,-0.11293,0.21188,0.00042559
1200,-0.03173,0.0075714,-0.057715,-0.041475,-0.11488,0.26417,-0.022636
1201,-0.047646,0.011144,-0.053492,-0.04927,-0.10514,0.29275,-0.052193
1202,-0.067459,0.012768,-0.052193,-0.059014,-0.082076,0.30477,-0.087597
1203,-0.087272,0.012443,-0.051219,-0.065186,-0.047321,0.31029,-0.1321
1204,-0.10481,0.01017,-0.047321,-0.063886,-0.0047713,0.31257,-0.17919
1205,-0.11521,0.0085458,-0.038551,-0.055116,0.036804,0.31127,-0.22337
1206,-0.1204,0.011144,-0.021986,-0.038876,0.067011,0.3012,-0.26299
1207,-0.11975,0.01829,-0.0015233,-0.022311,0.083901,0.27781,-0.30002
1208,-0.11618,0.021863,0.019264,-0.0063954,0.10177,0.24566,-0.33672
1209,-0.10676,0.01829,0.038103,0.0075714,0.14269,0.21252,-0.3705
1210,-0.089871,0.009845,0.056617,0.021863,0.2109,0.19076,-0.38869
1211,-0.070058,0.0023744,0.074157,0.037129,0.29405,0.18297,-0.37992
1212,-0.04862,-0.0011985,0.093321,0.056292,0.37688,0.18329,-0.33867
1213,-0.025559,0.0036737,0.11671,0.080003,0.44769,0.18524,-0.26916
1214,-0.0037969,0.013093,0.14204,0.10826,0.49056,0.17777,-0.18731
1215,0.013418,0.021213,0.1638,0.13555,0.47692,0.15049,-0.10903
1216,0.019914,0.020888,0.1729,0.15244,0.3811,0.096569,-0.046996
1217,0.012119,0.0095202,0.16835,0.15276,0.20668,0.01764,-0.0044465
1218,-0.0050961,-0.0099683,0.15341,0.14432,-0.014191,-0.074605,0.022188
1219,-0.019388,-0.029782,0.13879,0.1349,-0.23051,-0.15938,0.042975
1220,-0.023285,-0.040825,0.13392,0.12807,-0.40461,-0.22207,0.062789
1221,-0.01484,-0.042124,0.14009,0.12678,-0.53421,-0.2526,0.083901
1222,0.0017248,-0.034329,0.14984,0.131,-0.62938,-0.2474,0.10242
1223,0.01829,-0.019712,0.15146,0.13717,-0.69076,-0.21167,0.11703
1224,0.028359,-0.0050961,0.14594,0.13977,-0.71123,-0.15776,0.13132
1225,0.031932,0.0046481,0.13814,0.13587,-0.68914,-0.095393,0.15146
1226,0.033881,0.012768,0.1284,0.12678,-0.63685,-0.041799,0.17777
1227,0.039727,0.016991,0.11573,0.11151,-0.57741,-0.0063954,0.20603
1228,0.047847,0.019914,0.10177,0.092346,-0.52739,0.010495,0.22877
1229,0.059216,0.020564,0.090397,0.071234,-0.48386,0.013418,0.24013
1230,0.072533,0.020239,0.0865,0.055643,-0.43157,0.011794,0.23981
1231,0.086175,0.021863,0.089423,0.045899,-0.35881,0.011469,0.22714
1232,0.095919,0.025436,0.098193,0.042326,-0.26722,0.018615,0.21025
1233,0.10534,0.031282,0.10501,0.048497,-0.17205,0.032906,0.19596
1234,0.11995,0.042975,0.10631,0.066362,-0.096042,0.051745,0.18784
1235,0.13684,0.065387,0.10664,0.093321,-0.047321,0.065062,0.18654
1236,0.15146,0.088448,0.11476,0.12158,-0.014516,0.060515,0.18492
1237,0.15828,0.10404,0.13067,0.13879,0.019264,0.037778,0.17485
1238,0.15341,0.10891,0.14886,0.14464,0.062464,0.003024,0.14821
1239,0.13749,0.10242,0.15763,0.13717,0.12158,-0.030431,0.10209
1240,0.11736,0.083901,0.14821,0.11573,0.18719,-0.053492,0.045899
1241,0.091047,0.057592,0.12093,0.0865,0.23331,-0.060638,-0.012892
1242,0.059541,0.028684,0.084551,0.061165,0.23136,-0.051219,-0.061288
1243,0.028684,0.0014,0.050446,0.0433,0.17777,-0.032705,-0.089546
1244,0.0085458,-0.018413,0.029009,0.033231,0.099492,-0.012242,-0.089546
1245,0.0052977,-0.025884,0.022512,0.02641,0.033881,0.0017248,-0.065186
1246,0.014392,-0.021661,0.029009,0.021863,0.0056225,0.0062721,-0.030431
1247,0.029333,-0.012892,0.040702,0.01829,0.01764,0.00075039,0.0026992
1248,0.042651,-0.0050961,0.047198,0.011794,0.055643,-0.014191,0.025436
1249,0.048172,-0.0011985,0.0433,0.0056225,0.10924,-0.037577,0.036479
1250,0.045249,-0.0057458,0.030308,0.0039985,0.16413,-0.067134,0.042001
1251,0.036479,-0.016464,0.012768,0.0069217,0.20603,-0.098316,0.050121
1252,0.02706,-0.026533,-0.0028225,0.013093,0.22812,-0.11845,0.06896
1253,0.021863,-0.032705,-0.01484,0.019589,0.23689,-0.1191,0.096893
1254,0.02706,-0.034654,-0.02361,0.025761,0.24176,-0.10416,0.1297
1255,0.04395,-0.029782,-0.034978,0.033881,0.24078,-0.084999,0.15796
1256,0.065387,-0.020687,-0.041475,0.043625,0.22292,-0.072656,0.17712
1257,0.084551,-0.0067202,-0.042774,0.058241,0.18329,-0.073955,0.18622
1258,0.096244,0.011794,-0.039526,0.071883,0.13457,-0.0837,0.18751
1259,0.098193,0.028684,-0.033354,0.076431,0.10014,-0.094093,0.18199
1260,0.09397,0.037454,-0.032055,0.067011,0.092671,-0.097666,0.16998
1261,0.084876,0.033881,-0.038551,0.045574,0.12255,-0.094418,0.15406
1262,0.073507,0.017316,-0.054792,0.017965,0.20246,-0.087922,0.13847
1263,0.057917,-0.010293,-0.077853,-0.0080194,0.32978,-0.081426,0.12515
1264,0.036154,-0.043748,-0.10189,-0.03173,0.47464,-0.078178,0.11216
1265,0.015042,-0.077203,-0.11975,-0.051868,0.59937,-0.076229,0.10079
1266,-0.0031473,-0.10449,-0.12885,-0.066485,0.67635,-0.070382,0.093321
1267,-0.017439,-0.11943,-0.13502,-0.073306,0.69909,-0.059989,0.090397
1268,-0.028807,-0.11878,-0.14119,-0.07493,0.6757,-0.041799,0.091047
1269,-0.034654,-0.10709,-0.14671,-0.074605,0.60457,-0.012567,0.096569
1270,-0.03173,-0.092145,-0.14866,-0.076229,0.48536,0.030633,0.10534
1271,-0.025559,-0.076554,-0.14606,-0.077203,0.33075,0.083901,0.11411
1272,-0.022311,-0.061613,-0.13827,-0.075255,0.15958,0.14204,0.11963
1273,-0.022961,-0.045372,-0.12625,-0.069733,-0.016464,0.20018,0.11736
1274,-0.027833,-0.030431,-0.11293,-0.059339,-0.19641,0.2528,0.10664
1275,-0.03238,-0.018413,-0.10221,-0.047971,-0.37538,0.29438,0.090397
1276,-0.035628,-0.0096434,-0.091495,-0.042774,-0.52641,0.31711,0.070584
1277,-0.035303,-0.0054209,-0.079802,-0.046022,-0.61346,0.32328,0.044275
1278,-0.035628,-0.00087364,-0.067784,-0.051544,-0.61703,0.32198,0.014068
1279,-0.042449,0.0078962,-0.055766,-0.057715,-0.54558,0.31581,-0.012242
1280,-0.055441,0.020239,-0.046996,-0.063237,-0.43124,0.30087,-0.028482
1281,-0.070382,0.035505,-0.042774,-0.064536,-0.32016,0.26839,-0.03303
1282,-0.082076,0.049472,-0.040175,-0.060638,-0.24545,0.21772,-0.031406
1283,-0.085324,0.055968,-0.036602,-0.055441,-0.22921,0.16185,-0.031081
1284,-0.077203,0.051745,-0.029782,-0.047971,-0.27274,0.11313,-0.034329
1285,-0.059989,0.039727,-0.021337,-0.040175,-0.35686,0.081303,-0.040175
1286,-0.046022,0.024461,-0.011917,-0.035953,-0.43839,0.06831,-0.04992
1287,-0.038227,0.012443,-0.00087364,-0.032055,-0.46145,0.066362,-0.067134
1288,-0.039851,0.0078962,0.014068,-0.021661,-0.38642,0.067011,-0.094743
1289,-0.043748,0.016666,0.030308,-0.00022403,-0.19998,0.066037,-0.13047
1290,-0.045372,0.030633,0.047847,0.030308,0.085525,0.065062,-0.1688
1291,-0.043748,0.042651,0.065062,0.063113,0.4165,0.066686,-0.19868
1292,-0.039526,0.050121,0.078704,0.090722,0.70136,0.074157,-0.20745
1293,-0.033354,0.048172,0.084876,0.10859,0.85175,0.081303,-0.19089
1294,-0.024585,0.037129,0.084226,0.11606,0.82966,0.0852,-0.15646
1295,-0.013541,0.022512,0.080003,0.11151,0.65946,0.087474,-0.11553
1296,-0.0011985,0.013093,0.076106,0.10177,0.40449,0.090722,-0.076229
1297,0.011144,0.01829,0.078379,0.09462,0.15146,0.09397,-0.039526
1298,0.021538,0.034206,0.089098,0.096244,-0.019063,0.092996,-0.0076946
1299,0.033556,0.054668,0.10534,0.10956,-0.062912,0.0865,0.017965
1300,0.050446,0.071234,0.12125,0.12937,0.00075039,0.070909,0.036154
1301,0.070584,0.080003,0.13197,0.14789,0.11833,0.045574,0.045899
1302,0.084876,0.078055,0.13912,0.15666,0.22454,0.014068,0.046548
1303,0.091047,0.066362,0.14367,0.15211,0.27976,-0.018088,0.045249
1304,0.086175,0.050771,0.14464,0.13165,0.26969,-0.042124,0.045574
1305,0.072858,0.035505,0.13912,0.095269,0.20181,-0.051544,0.045574
1306,0.056617,0.025111,0.1258,0.053044,0.10144,-0.045697,0.047523
1307,0.042326,0.019914,0.10924,0.016016,-0.0047713,-0.028482,0.049796
1308,0.033231,0.021213,0.095594,-0.0080194,-0.096692,-0.0099683,0.050771
1309,0.030308,0.024137,0.087799,-0.017764,-0.16815,0.0010752,0.046873
1310,0.027709,0.023162,0.084876,-0.014516,-0.21557,0.0033489,0.040052
1311,0.022512,0.018615,0.083576,-0.0041217,-0.23733,-0.0021729,0.03453
1312,0.01894,0.014717,0.083901,0.008221,-0.23603,-0.016789,0.03583
1313,0.01894,0.014068,0.087474,0.017316,-0.21297,-0.039526,0.044599
1314,0.020888,0.014392,0.091372,0.021538,-0.17627,-0.069083,0.051096
1315,0.021863,0.015692,0.089748,0.023812,-0.14541,-0.098316,0.048822
1316,0.022188,0.015367,0.081627,0.030308,-0.14054,-0.12073,0.038753
1317,0.021863,0.015042,0.069285,0.039402,-0.17205,-0.13177,0.028034
1318,0.017316,0.016341,0.057917,0.041027,-0.23246,-0.1334,0.017316
1319,0.0095202,0.017965,0.048172,0.033556,-0.29028,-0.13307,0.0091954
1320,0.0014,0.018615,0.042975,0.023162,-0.28411,-0.13372,0.0039985
1321,-0.00087364,0.01829,0.040377,0.01829,-0.1688,-0.13729,0.0017248
1322,0.00042559,0.01894,0.037778,0.021538,0.041676,-0.14379,-0.0024977
1323,-0.00087364,0.01894,0.031282,0.026735,0.26417,-0.15321,-0.008669
1324,-0.0054209,0.011794,0.019914,0.026085,0.40124,-0.16425,-0.012242
1325,-0.011917,0.00010078,0.0069217,0.016666,0.39864,-0.17497,-0.010293
1326,-0.016464,-0.0076946,-0.0031473,0.0033489,0.27261,-0.18666,-0.0044465
1327,-0.018088,-0.007045,-0.0099683,-0.011917,0.0865,-0.19933,0.0023744
1328,-0.01614,0.00042559,-0.014516,-0.029782,-0.089221,-0.20843,0.0095202
1329,-0.0083442,0.012768,-0.021012,-0.046996,-0.21297,-0.20778,0.012768
1330,0.0049729,0.025111,-0.029457,-0.056416,-0.27176,-0.19673,0.011144
1331,0.020564,0.034855,-0.037252,-0.055766,-0.27371,-0.17984,0.010819
1332,0.033881,0.04395,-0.041799,-0.042449,-0.23993,-0.16263,0.013093
1333,0.042326,0.051096,-0.04115,-0.019388,-0.18731,-0.14574,0.020564
1334,0.048172,0.058241,-0.033679,0.0072465,-0.12852,-0.12787,0.030633
1335,0.051745,0.065387,-0.023285,0.029009,-0.073306,-0.11228,0.036804
1336,0.055643,0.073832,-0.015165,0.037778,-0.039526,-0.09994,0.033881
1337,0.056617,0.077405,-0.018413,0.03583,-0.044723,-0.092794,0.01829
1338,0.049472,0.073507,-0.034978,0.02706,-0.097991,-0.090845,-0.008669
1339,0.032257,0.064088,-0.061288,0.011794,-0.18342,-0.091495,-0.035953
1340,0.010495,0.057592,-0.088247,-0.0073698,-0.27436,-0.0837,-0.060638
1341,-0.007045,0.059541,-0.10514,-0.028807,-0.34452,-0.063886,-0.07493
1342,-0.011592,0.064413,-0.11066,-0.048945,-0.38317,-0.034654,-0.078178
1343,-0.0044465,0.064413,-0.11001,-0.067134,-0.39616,0.0017248,-0.069408
1344,0.008221,0.054993,-0.10676,-0.077528,-0.38837,0.041027,-0.054142
1345,0.020564,0.041027,-0.10026,-0.077528,-0.36303,0.07773,-0.034978
1346,0.024137,0.029333,-0.096367,-0.069083,-0.32601,0.10989,-0.017764
1347,0.01829,0.023487,-0.094418,-0.057065,-0.28443,0.12905,-0.0076946
1348,0.0091954,0.023487,-0.092469,-0.049595,-0.24838,0.12905,-0.011267
1349,0.0014,0.026735,-0.087272,-0.046671,-0.22077,0.10729,-0.029782
1350,-0.0018481,0.029009,-0.078178,-0.044723,-0.20258,0.070259,-0.055116
1351,-0.0028225,0.027385,-0.068109,-0.042124,-0.19154,0.026735,-0.077528
1352,-0.0044465,0.021538,-0.061613,-0.035953,-0.18277,-0.013541,-0.092469
1353,-0.0057458,0.016341,-0.055766,-0.022311,-0.16653,-0.042124,-0.097666
1354,-0.0060706,0.012443,-0.047646,-0.0021729,-0.13989,-0.055766,-0.089546
1355,-0.007045,0.011794,-0.034329,0.021538,-0.10774,-0.055766,-0.067784
1356,-0.0063954,0.017965,-0.01614,0.048497,-0.073306,-0.043423,-0.039526
1357,-0.0041217,0.02706,0.0043233,0.073507,-0.037902,-0.022636,-0.011917
1358,0.0010752,0.035505,0.023162,0.089748,-0.0041217,-0.0037969,0.012443
1359,0.0056225,0.037454,0.035505,0.091696,0.02641,0.003024,0.029333
1360,0.0069217,0.029333,0.040052,0.083251,0.046223,-0.0034721,0.039078
1361,0.0062721,0.016341,0.037778,0.069285,0.048497,-0.024585,0.036804
1362,0.003024,0.0017248,0.029333,0.055643,0.031282,-0.054467,0.025761
1363,0.0026992,-0.0067202,0.019589,0.0433,-0.0044465,-0.0837,0.013093
1364,0.0052977,-0.0063954,0.011469,0.029658,-0.044073,-0.10026,0.0052977
1365,0.011794,-0.00022403,0.0065969,0.013093,-0.067134,-0.097666,0.0065969
1366,0.019914,0.0078962,0.0069217,-0.0044465,-0.055766,-0.075579,0.016991
1367,0.027385,0.018615,0.016666,-0.015165,-0.0057458,-0.033679,0.029333
1368,0.03453,0.031282,0.03453,-0.014191,0.071558,0.022188,0.042326
1369,0.043625,0.044599,0.055318,0.00010078,0.15373,0.079679,0.054668
1370,0.048497,0.057592,0.074482,0.019264,0.2187,0.12353,0.063763
1371,0.048497,0.069285,0.089098,0.032582,0.25507,0.14432,0.065712
1372,0.042651,0.080653,0.09397,0.041676,0.26287,0.14691,0.062139
1373,0.034206,0.087474,0.087799,0.049796,0.24566,0.13879,0.056292
1374,0.02641,0.084551,0.078704,0.05272,0.20278,0.12743,0.050121
1375,0.021213,0.071883,0.073507,0.047847,0.13132,0.11801,0.04395
1376,0.020888,0.056292,0.073182,0.037129,0.038428,0.10924,0.039402
1377,0.025436,0.043625,0.078379,0.029333,-0.050244,0.097868,0.035505
1378,0.028034,0.037778,0.087149,0.031282,-0.11228,0.0865,0.030633
1379,0.02641,0.038103,0.095919,0.045249,-0.14216,0.075131,0.028684
1380,0.01829,0.036479,0.10177,0.065062,-0.14216,0.064413,0.030308
1381,0.0078962,0.031607,0.10436,0.084876,-0.11975,0.053044,0.038103
1382,-0.00054884,0.022837,0.10501,0.10274,-0.084674,0.046873,0.04395
1383,-0.0044465,0.014392,0.10209,0.11541,-0.053492,0.045249,0.044275
1384,-0.0041217,0.009845,0.094945,0.12028,-0.034654,0.0433,0.038428
1385,-0.0015233,0.0072465,0.083901,0.11313,-0.034004,0.033881,0.027709
1386,0.0017248,0.0059473,0.072208,0.095919,-0.048945,0.015042,0.016666
1387,0.0088706,0.0036737,0.063438,0.074482,-0.059664,-0.0063954,0.008221
1388,0.01894,0.0046481,0.06019,0.061165,-0.038551,-0.024909,0.00010078
1389,0.030308,0.0059473,0.064088,0.056942,0.03453,-0.034004,-0.0096434
1390,0.037454,0.0046481,0.069285,0.058891,0.15633,-0.032705,-0.01614
1391,0.036479,0.003024,0.070259,0.063438,0.29892,-0.019388,-0.011592
1392,0.028034,0.0020496,0.067011,0.066362,0.41683,0.0017248,0.003024
1393,0.016016,0.0033489,0.060515,0.062789,0.47854,0.023162,0.019589
1394,0.0039985,0.0033489,0.055318,0.054993,0.47854,0.034206,0.032582
1395,-0.008669,0.00075039,0.054019,0.049472,0.43112,0.031932,0.03583
1396,-0.016464,-0.0034721,0.057592,0.050121,0.35966,0.020888,0.025761
1397,-0.018088,-0.0067202,0.063113,0.05272,0.28268,0.0039985,0.0075714
1398,-0.017764,-0.0080194,0.067986,0.05272,0.21642,-0.01614,-0.0073698
1399,-0.020687,-0.0041217,0.06896,0.055318,0.16965,-0.039526,-0.014191
1400,-0.024585,0.0049729,0.067661,0.065712,0.15796,-0.064211,-0.013541
1401,-0.022311,0.016341,0.065387,0.082602,0.18687,-0.08305,-0.008669
1402,-0.012242,0.027385,0.065062,0.10209,0.24598,-0.092794,-0.00022403
1403,0.0043233,0.037778,0.067661,0.12288,0.31127,-0.087922,0.0095202
1404,0.024786,0.048497,0.069934,0.14042,0.35576,-0.065835,0.021538
1405,0.045574,0.057267,0.070584,0.15211,0.36064,-0.029132,0.037454
1406,0.067986,0.06961,0.067011,0.15244,0.32458,0.022188,0.055643
1407,0.093321,0.087149,0.061814,0.14464,0.27002,0.081952,0.075781
1408,0.12255,0.10696,0.055318,0.1362,0.22292,0.14659,0.095269
1409,0.14789,0.12255,0.046223,0.12905,0.19791,0.21382,0.10664
1410,0.16023,0.12807,0.029009,0.11573,0.18719,0.28106,0.10794
1411,0.15568,0.12125,0.0046481,0.091047,0.17712,0.34602,0.099492
1412,0.14009,0.10306,-0.023935,0.063113,0.15471,0.40481,0.08585
1413,0.11671,0.080978,-0.048296,0.042651,0.12093,0.45256,0.06961
1414,0.090722,0.063438,-0.06616,0.033556,0.086175,0.48439,0.05207
1415,0.067011,0.048822,-0.077853,0.025111,0.06084,0.49608,0.032582
1416,0.048822,0.036804,-0.091495,0.010495,0.044924,0.48179,0.01017
1417,0.031932,0.024786,-0.11423,-0.0083442,0.033556,0.44444,-0.010943
1418,0.016341,0.013093,-0.13859,-0.026533,0.026085,0.39214,-0.02426
1419,0.0056225,0.0049729,-0.15841,-0.043423,0.021538,0.3366,-0.030756
1420,0.00010078,0.0014,-0.1714,-0.059339,0.01764,0.27976,-0.027833
1421,-0.0063954,-0.0024977,-0.17335,-0.079477,0.012119,0.21577,-0.021986
1422,-0.01614,-0.0083442,-0.16718,-0.09929,0.0052977,0.13879,-0.015815
1423,-0.026858,-0.01484,-0.15873,-0.10903,-0.00022403,0.057267,-0.0073698
1424,-0.033679,-0.020687,-0.15191,-0.10546,-0.0031473,-0.017114,0.003024
1425,-0.037252,-0.022961,-0.13989,-0.092794,-0.012242,-0.079802,0.017965
1426,-0.037577,-0.022636,-0.12495,-0.0824,-0.030106,-0.12885,0.033231
1427,-0.034004,-0.016789,-0.10774,-0.076229,-0.061288,-0.16847,0.042975
1428,-0.028482,-0.010618,-0.092145,-0.073306,-0.10059,-0.20063,0.045249
1429,-0.021661,-0.008669,-0.081426,-0.072331,-0.14087,-0.22532,0.049147
1430,-0.014191,-0.008669,-0.073306,-0.071357,-0.1727,-0.24123,0.058566
1431,-0.0034721,-0.0083442,-0.066485,-0.069733,-0.19186,-0.24513,0.06896
1432,0.010495,-0.0024977,-0.061937,-0.063561,-0.19901,-0.23766,0.071234
1433,0.024786,0.0065969,-0.058365,-0.050569,-0.19511,-0.22337,0.058891
1434,0.03453,0.016991,-0.051868,-0.028807,-0.18309,-0.2055,0.037129
1435,0.037129,0.026735,-0.040825,-0.0015233,-0.17075,-0.18179,0.011469
1436,0.036154,0.034855,-0.021986,0.027709,-0.15483,-0.14931,-0.008669
1437,0.036479,0.0433,0.0049729,0.054344,-0.13469,-0.11066,-0.013541
1438,0.045899,0.049796,0.036154,0.076106,-0.12073,-0.07428,-0.00054884
1439,0.06019,0.054993,0.064413,0.091047,-0.11651,-0.045697,0.024137
1440,0.070584,0.057592,0.081952,0.10112,-0.12722,-0.028807,0.053044
1441,0.072858,0.058241,0.089098,0.10144,-0.15093,-0.021337,0.079354
1442,0.067336,0.057267,0.088448,0.090072,-0.17984,-0.017439,0.094295
1443,0.053694,0.051745,0.083901,0.06961,-0.20225,-0.01549,0.092021
1444,0.035505,0.040377,0.074806,0.04395,-0.20972,-0.015165,0.074482
1445,0.014068,0.022512,0.058241,0.016666,-0.19998,-0.014191,0.048497
1446,-0.0083442,0.00075039,0.036154,-0.0067202,-0.17854,-0.018088,0.017316
1447,-0.029132,-0.021661,0.015367,-0.026533,-0.15288,-0.026858,-0.017114
1448,-0.043748,-0.036927,0.0017248,-0.042449,-0.12365,-0.0405,-0.048945
1449,-0.050244,-0.04115,-0.0037969,-0.051219,-0.087272,-0.053817,-0.070707
1450,-0.046671,-0.040175,-0.0028225,-0.053168,-0.030431,-0.064211,-0.07493
1451,-0.037902,-0.035303,0.0033489,-0.043099,0.053044,-0.06616,-0.057065
1452,-0.028807,-0.025559,0.014392,-0.023285,0.15633,-0.058689,-0.021986
1453,-0.022311,-0.014191,0.02706,-0.0047713,0.26125,-0.047646,0.023812
1454,-0.017114,-0.0037969,0.037778,0.0072465,0.33952,-0.042774,0.066037
1455,-0.010618,0.0017248,0.044599,0.0062721,0.37525,-0.044723,0.095594
1456,-0.00054884,0.0046481,0.0433,-0.0050961,0.36941,-0.052518,0.10566
1457,0.0091954,0.0014,0.037454,-0.021337,0.33335,-0.063886,0.098842
1458,0.015692,-0.008669,0.030308,-0.034654,0.28171,-0.078503,0.080003
1459,0.016341,-0.022311,0.025436,-0.042449,0.22487,-0.095717,0.053369
1460,0.01017,-0.031081,0.024461,-0.046996,0.1664,-0.11131,0.024786
1461,-0.0018481,-0.036278,0.028684,-0.051219,0.10436,-0.12625,-0.0015233
1462,-0.015815,-0.039851,0.03453,-0.050569,0.039078,-0.13859,-0.024909
1463,-0.028807,-0.040825,0.037778,-0.038876,-0.024585,-0.14866,-0.0405
1464,-0.034004,-0.037252,0.038428,-0.015165,-0.088247,-0.15126,-0.042449
1465,-0.032705,-0.026209,0.042326,0.016666,-0.15386,-0.14411,-0.029457
1466,-0.022961,-0.010293,0.052395,0.044924,-0.21947,-0.12917,-0.0080194
1467,-0.007045,0.0059473,0.067336,0.062139,-0.27209,-0.10806,0.014068
1468,0.011144,0.017965,0.084226,0.069285,-0.28963,-0.080127,0.029658
1469,0.02706,0.023487,0.10079,0.072858,-0.25162,-0.046022,0.033556
1470,0.037778,0.027709,0.11768,0.076431,-0.15548,-0.0080194,0.026085
1471,0.042975,0.031932,0.131,0.084876,-0.030431,0.032906,0.0085458
1472,0.042651,0.03583,0.14172,0.095269,0.084226,0.070259,-0.014516
1473,0.041027,0.041676,0.15016,0.10794,0.16153,0.10209,-0.034329
1474,0.043625,0.053694,0.15406,0.12418,0.19401,0.13327,-0.043748
1475,0.049796,0.070259,0.15406,0.13749,0.19628,0.16056,-0.036927
1476,0.058566,0.082927,0.15244,0.14204,0.18979,0.18069,-0.01549
1477,0.066037,0.083576,0.14496,0.13814,0.18914,0.19076,0.014068
1478,0.065062,0.070909,0.1284,0.1284,0.19791,0.19174,0.04395
1479,0.054993,0.048822,0.10664,0.11768,0.2122,0.18232,0.065712
1480,0.040377,0.024786,0.084551,0.10631,0.22682,0.1625,0.075456
1481,0.024461,0.0039985,0.06831,0.099492,0.23948,0.13782,0.075781
1482,0.014717,-0.0041217,0.06084,0.10047,0.24988,0.11151,0.073182
1483,0.011469,0.0046481,0.065712,0.10534,0.25767,0.083901,0.071883
1484,0.018615,0.024461,0.078704,0.10566,0.25248,0.051745,0.072533
1485,0.031607,0.042001,0.087149,0.096244,0.22422,0.012119,0.073507
1486,0.045899,0.048172,0.083901,0.076755,0.16088,-0.03238,0.06896
1487,0.059216,0.043625,0.063763,0.05207,0.062464,-0.077853,0.062464
1488,0.066686,0.032257,0.034206,0.026735,-0.059339,-0.11813,0.054993
1489,0.065387,0.021213,0.0059473,0.0033489,-0.18082,-0.14866,0.050121
1490,0.054344,0.011794,-0.016464,-0.016464,-0.26754,-0.16555,0.05207
1491,0.039078,0.0065969,-0.034004,-0.027833,-0.29612,-0.1662,0.057592
1492,0.027385,0.0056225,-0.046022,-0.029132,-0.27534,-0.14964,0.062139
1493,0.021213,0.0052977,-0.053168,-0.024585,-0.24903,-0.1204,0.063763
1494,0.020239,0.0085458,-0.054467,-0.021661,-0.25715,-0.095393,0.058891
1495,0.023162,0.012119,-0.052518,-0.024585,-0.31886,-0.0824,0.045899
1496,0.024786,0.014392,-0.052193,-0.03238,-0.415,-0.080451,0.022512
1497,0.021863,0.013743,-0.056091,-0.037902,-0.51732,-0.08305,-0.0083442
1498,0.012443,0.013418,-0.064211,-0.038551,-0.60112,-0.085324,-0.039526
1499,0.00010078,0.016666,-0.073955,-0.04115,-0.65666,-0.084024,-0.061613
1500,-0.011267,0.019914,-0.082725,-0.050244,-0.6742,-0.078178,-0.068109
1501,-0.018088,0.017316,-0.090521,-0.063561,-0.64562,-0.068758,-0.059014
1502,-0.018738,0.010495,-0.092469,-0.077853,-0.57351,-0.058365,-0.040825
1503,-0.014516,0.0056225,-0.090521,-0.087922,-0.44748,-0.046022,-0.024909
1504,-0.0076946,0.009845,-0.086623,-0.083375,-0.2578,-0.03173,-0.013541
1505,0.0020496,0.020239,-0.079477,-0.062912,-0.03238,-0.014516,-0.0054209
1506,0.011794,0.031607,-0.068109,-0.036278,0.17582,0.01017,-0.00087364
1507,0.019914,0.040702,-0.055441,-0.010293,0.32848,0.042326,0.00075039
1508,0.025761,0.045574,-0.040825,0.0095202,0.41715,0.07773,0.0010752
1509,0.02706,0.046223,-0.029132,0.021213,0.44606,0.11248,0.0017248
1510,0.025761,0.042001,-0.027833,0.021863,0.41878,0.13977,0.0036737
1511,0.021538,0.032582,-0.038227,0.0095202,0.34375,0.15276,0.0039985
1512,0.015042,0.021213,-0.054467,-0.012567,0.24143,0.14334,0.0033489
1513,0.0078962,0.010495,-0.064861,-0.035953,0.13944,0.11248,0.003024
1514,0.0052977,0.0075714,-0.05804,-0.050894,0.067986,0.072858,0.0052977
1515,0.011794,0.016016,-0.033679,-0.04862,0.043625,0.034855,0.011469
1516,0.024137,0.03518,-0.0041217,-0.029782,0.065062,0.0026992,0.015692
1517,0.030308,0.055968,0.019914,-0.007045,0.11281,-0.023935,0.016016
1518,0.026735,0.067011,0.032582,0.0078962,0.15991,-0.046671,0.010495
1519,0.016666,0.06084,0.033881,0.011794,0.18622,-0.061937,0.0020496
1520,0.0065969,0.041351,0.027385,0.0052977,0.19141,-0.06551,-0.0067202
1521,0.0014,0.019589,0.017316,-0.0015233,0.19174,-0.047646,-0.013216
1522,0.0026992,0.0069217,0.0056225,-0.007045,0.19823,-0.0083442,-0.01614
1523,0.008221,0.0078962,-0.0057458,-0.0063954,0.2122,0.045574,-0.018088
1524,0.010819,0.021213,-0.011267,0.0059473,0.22747,0.10274,-0.02361
1525,0.012119,0.041676,-0.0063954,0.028359,0.23689,0.15276,-0.032705
1526,0.012768,0.06019,0.011469,0.050446,0.23883,0.19011,-0.047646
1527,0.016341,0.068635,0.035505,0.066037,0.24306,0.21642,-0.066485
1528,0.022837,0.070584,0.062789,0.073182,0.25507,0.23234,-0.084349
1529,0.03453,0.066686,0.086175,0.074482,0.27261,0.24176,-0.09117
1530,0.047523,0.063113,0.10371,0.076755,0.27359,0.24436,-0.077528
1531,0.057267,0.059541,0.11216,0.078379,0.23851,0.23754,-0.04862
1532,0.057592,0.053694,0.11086,0.076106,0.16056,0.2135,-0.011917
1533,0.047198,0.039727,0.099817,0.070259,0.05142,0.17062,0.021538
1534,0.030957,0.016991,0.078704,0.062464,-0.064861,0.11183,0.047198
1535,0.013418,-0.0076946,0.05142,0.054344,-0.16718,0.05142,0.060515
1536,-0.00054884,-0.027183,0.026085,0.042326,-0.2435,0.0020496,0.064737
1537,-0.010293,-0.04115,0.01017,0.026085,-0.29288,-0.023935,0.066362
1538,-0.01484,-0.04862,0.0062721,0.0065969,-0.31756,-0.017764,0.078379
1539,-0.016464,-0.045697,0.014392,-0.008669,-0.32666,0.016991,0.10761
1540,-0.011592,-0.031081,0.032257,-0.01484,-0.33445,0.059541,0.14367
1541,-0.0047713,-0.011592,0.047523,-0.011917,-0.34809,0.083901,0.1703
1542,0.0017248,0.003024,0.053694,-0.0054209,-0.37115,0.07773,0.17647
1543,0.0033489,0.0072465,0.053044,-0.0015233,-0.39616,0.047198,0.16153
1544,-0.00022403,0.0056225,0.05207,0.0010752,-0.40071,0.0039985,0.13262
1545,-0.008669,0.00075039,0.052395,0.0036737,-0.35751,-0.035953,0.10209
1546,-0.016464,-0.0034721,0.054993,0.0033489,-0.24156,-0.063886,0.075456
1547,-0.023935,-0.0057458,0.060515,0.0023744,-0.047321,-0.077203,0.050771
1548,-0.03173,-0.0099683,0.069934,0.0072465,0.18492,-0.080451,0.030957
1549,-0.038876,-0.016789,0.07708,0.01764,0.3811,-0.079477,0.013743
1550,-0.042449,-0.025234,0.074157,0.029009,0.47692,-0.084024,-0.0031473
1551,-0.043423,-0.035303,0.061165,0.03518,0.45516,-0.10319,-0.02426
1552,-0.042124,-0.042449,0.046223,0.041027,0.33823,-0.13794,-0.046996
1553,-0.0405,-0.039851,0.039078,0.046873,0.1677,-0.18082,-0.070707
1554,-0.038876,-0.026533,0.039727,0.050121,-0.01549,-0.22272,-0.093444
1555,-0.034978,-0.0089938,0.044275,0.0433,-0.17432,-0.2539,-0.11293
1556,-0.028807,0.0046481,0.049796,0.028684,-0.29125,-0.26884,-0.12722
1557,-0.021012,0.01017,0.050771,0.012119,-0.37733,-0.27339,-0.13404
1558,-0.016464,0.0065969,0.045899,-0.00022403,-0.45106,-0.26851,-0.13307
1559,-0.017764,0.00010078,0.035505,-0.0044465,-0.50627,-0.2565,-0.123
1560,-0.022311,-0.0015233,0.019914,0.0010752,-0.50043,-0.23409,-0.10936
1561,-0.026858,0.0072465,0.0023744,0.012443,-0.38285,-0.19901,-0.091495
1562,-0.029132,0.021213,-0.010943,0.029333,-0.13599,-0.15321,-0.067459
1563,-0.026209,0.031932,-0.017764,0.055643,0.19304,-0.10221,-0.039851
1564,-0.017764,0.036154,-0.017114,0.085525,0.51427,-0.054792,-0.015165
1565,-0.0099683,0.038428,-0.012567,0.10436,0.72377,-0.015815,0.0056225
1566,-0.0047713,0.044275,-0.0099683,0.10599,0.75918,0.0069217,0.016666
1567,-0.0034721,0.05142,-0.015815,0.088448,0.62276,0.014068,0.015367
1568,-0.00022403,0.056617,-0.031406,0.057592,0.37136,0.012119,0.008221
1569,0.0026992,0.058241,-0.056091,0.020888,0.0865,0.0069217,0.0020496
1570,0.0023744,0.054993,-0.081426,-0.0099683,-0.15548,0.0043233,-0.0011985
1571,-0.0021729,0.046223,-0.09929,-0.019063,-0.30489,0.0059473,-0.0021729
1572,-0.0080194,0.037454,-0.10481,-0.0050961,-0.34744,0.014392,-0.007045
1573,-0.0057458,0.030633,-0.094743,0.023812,-0.30229,0.034206,-0.010943
1574,0.0095202,0.026735,-0.079802,0.053044,-0.21232,0.06084,-0.0063954
1575,0.029009,0.025111,-0.071682,0.072858,-0.11715,0.087149,0.0091954
1576,0.038753,0.024461,-0.076229,0.080328,-0.042124,0.10306,0.033231
1577,0.039402,0.022512,-0.087272,0.072208,-0.0057458,0.10274,0.057592
1578,0.036479,0.018615,-0.09929,0.048172,-0.0063954,0.081952,0.074482
1579,0.03518,0.013093,-0.10416,0.015367,-0.026858,0.048172,0.081627
1580,0.037454,0.0072465,-0.10059,-0.012567,-0.045047,0.017965,0.082927
1581,0.041351,0.0023744,-0.089871,-0.028157,-0.047971,0.0026992,0.083251
1582,0.044599,0.0020496,-0.079802,-0.033679,-0.031406,0.0049729,0.081303
1583,0.045899,0.0085458,-0.072006,-0.031081,-0.0067202,0.019914,0.067986
1584,0.045249,0.021538,-0.063886,-0.018088,0.016016,0.036479,0.036479
1585,0.042975,0.037129,-0.054142,-0.00054884,0.029333,0.041027,-0.014191
1586,0.038753,0.052395,-0.044398,0.014717,0.037778,0.029983,-0.07493
1587,0.033231,0.065387,-0.034978,0.024137,0.047198,0.011469,-0.12625
1588,0.029983,0.071883,-0.028157,0.02706,0.062789,0.0010752,-0.15126
1589,0.031282,0.073507,-0.022311,0.020564,0.083576,0.01017,-0.14476
1590,0.031932,0.070909,-0.016789,0.0052977,0.095919,0.038103,-0.11391
1591,0.030308,0.06831,-0.011592,-0.015165,0.089098,0.075781,-0.064861
1592,0.023162,0.067661,-0.010293,-0.03173,0.06084,0.10859,-0.01549
1593,0.013418,0.067336,-0.011917,-0.041475,0.021538,0.1232,0.025761
1594,0.0065969,0.067011,-0.013866,-0.040175,-0.016789,0.1206,0.054019
1595,0.0039985,0.069285,-0.013216,-0.031406,-0.044073,0.10761,0.072858
1596,0.0078962,0.075781,-0.010943,-0.015815,-0.05739,0.092346,0.083901
1597,0.013743,0.082277,-0.0067202,0.0049729,-0.058689,0.080653,0.092346
1598,0.016341,0.086824,0.0010752,0.030308,-0.050894,0.080328,0.099167
1599,0.013093,0.08585,0.013093,0.055643,-0.039201,0.091047,0.10501
1600,0.009845,0.080978,0.026735,0.078055,-0.023935,0.10794,0.10729
1601,0.0095202,0.072533,0.040052,0.09462,-0.0063954,0.12807,0.10566
1602,0.015367,0.061489,0.054344,0.10339,0.017316,0.14626,0.10144
1603,0.024461,0.053369,0.06831,0.10761,0.046873,0.16218,0.094945
1604,0.032906,0.046548,0.079029,0.10989,0.075456,0.18037,0.083901
1605,0.038753,0.041027,0.083576,0.11054,0.089098,0.20083,0.066362
1606,0.039402,0.037778,0.083251,0.10371,0.080003,0.21675,0.048172
1607,0.037454,0.029983,0.077405,0.089423,0.05142,0.22454,0.034855
1608,0.033881,0.015692,0.070259,0.071234,0.013093,0.21642,0.029009
1609,0.028359,-0.0034721,0.067661,0.056617,-0.026209,0.19076,0.027385
1610,0.022188,-0.022311,0.071234,0.051096,-0.065186,0.14756,0.02706
1611,0.01764,-0.036927,0.078704,0.055968,-0.097991,0.092021,0.029009
1612,0.017316,-0.042124,0.086824,0.073182,-0.11358,0.030308,0.034206
1613,0.022512,-0.040175,0.093645,0.099492,-0.10351,-0.030106,0.038428
1614,0.031932,-0.033679,0.097543,0.12125,-0.079152,-0.086623,0.042651
1615,0.0433,-0.028807,0.097543,0.1245,-0.065186,-0.14639,0.044275
1616,0.053044,-0.026533,0.092996,0.10956,-0.07428,-0.212,0.040052
1617,0.054344,-0.027833,0.082927,0.086824,-0.10254,-0.27761,0.026085
1618,0.046223,-0.029782,0.070584,0.067011,-0.13924,-0.32795,0.0059473
1619,0.032582,-0.024585,0.061814,0.057592,-0.17465,-0.35232,-0.013866
1620,0.020564,-0.0096434,0.059541,0.057267,-0.19738,-0.34972,-0.027183
1621,0.014068,0.01017,0.059541,0.059216,-0.19673,-0.32633,-0.025884
1622,0.015042,0.024461,0.066037,0.064737,-0.16847,-0.2893,-0.0080194
1623,0.021213,0.027709,0.078055,0.073832,-0.11033,-0.24545,0.01829
1624,0.033556,0.023487,0.091047,0.088124,-0.020687,-0.19543,0.045574
1625,0.048822,0.01894,0.10242,0.10696,0.09397,-0.13957,0.071883
1626,0.060515,0.01829,0.11216,0.12223,0.2135,-0.080776,0.093321
1627,0.062139,0.020888,0.11508,0.12613,0.30964,-0.023285,0.10404
1628,0.055643,0.028359,0.11476,0.11671,0.35739,0.027385,0.10599
1629,0.048822,0.03583,0.11281,0.094295,0.347,0.06961,0.10306
1630,0.046548,0.038753,0.10956,0.065387,0.28171,0.10339,0.10014
1631,0.047523,0.032906,0.10339,0.037778,0.17745,0.12548,0.09462
1632,0.045899,0.021863,0.095594,0.017316,0.059541,0.13457,0.084876
1633,0.046223,0.010819,0.087149,0.0056225,-0.04862,0.13132,0.070584
1634,0.050446,0.0020496,0.080653,0.0026992,-0.12722,0.11736,0.050771
1635,0.055318,-0.0018481,0.076431,0.0017248,-0.16198,0.097868,0.030308
1636,0.055643,-0.00022403,0.074806,-0.0021729,-0.15451,0.081627,0.012768
1637,0.048822,0.0046481,0.073182,-0.008669,-0.1178,0.074482,-0.0021729
1638,0.036154,0.009845,0.065062,-0.016464,-0.060313,0.080328,-0.012242
1639,0.019589,0.012768,0.051745,-0.02426,0.0075714,0.095269,-0.010943
1640,0.0026992,0.013418,0.03583,-0.034004,0.079029,0.11313,0.0036737
1641,-0.010618,0.012768,0.021863,-0.043748,0.14464,0.12288,0.024786
1642,-0.017114,0.011794,0.010495,-0.055116,0.18979,0.11508,0.044275
1643,-0.018088,0.009845,0.0026992,-0.067459,0.20408,0.087149,0.053694
1644,-0.01614,0.0078962,-0.0047713,-0.079802,0.18557,0.045899,0.049147
1645,-0.012892,0.0091954,-0.01614,-0.084024,0.14237,0.0017248,0.027709
1646,-0.0076946,0.014717,-0.029782,-0.075579,0.085525,-0.038876,-0.0050961
1647,-0.0024977,0.024461,-0.040825,-0.05804,0.023487,-0.070058,-0.035628
1648,0.0010752,0.038103,-0.043423,-0.037577,-0.037902,-0.087272,-0.054142
1649,0.0020496,0.050446,-0.039851,-0.019063,-0.091495,-0.090196,-0.059989
1650,0.0017248,0.056617,-0.037902,-0.0047713,-0.1269,-0.081101,-0.05739
1651,0.0014,0.056942,-0.037577,0.003024,-0.13762,-0.059339,-0.047971
1652,0.003024,0.05272,-0.038551,0.0056225,-0.12073,-0.025559,-0.033354
1653,0.0059473,0.049147,-0.038227,0.0056225,-0.07428,0.01829,-0.011917
1654,0.009845,0.047847,-0.039526,0.0020496,-0.0073698,0.068635,0.012443
1655,0.014717,0.046548,-0.044398,-0.0093186,0.064413,0.11801,0.032257
1656,0.017316,0.044275,-0.052843,-0.024909,0.12158,0.16315,0.042001
1657,0.014068,0.041027,-0.059989,-0.039201,0.15633,0.19499,0.044275
1658,0.0072465,0.042651,-0.060963,-0.047646,0.18199,0.20765,0.048822
1659,0.0017248,0.045249,-0.060313,-0.047971,0.20733,0.19888,0.057267
1660,-0.00022403,0.042326,-0.062912,-0.044398,0.22617,0.16965,0.067661
1661,-0.0024977,0.027709,-0.072656,-0.039851,0.22357,0.1284,0.076755
1662,-0.0076946,0.0056225,-0.086298,-0.034654,0.19336,0.083576,0.077405
1663,-0.013541,-0.015815,-0.097341,-0.030756,0.14756,0.049472,0.06831
1664,-0.017439,-0.031406,-0.10514,-0.03173,0.10989,0.029658,0.053044
1665,-0.018413,-0.040175,-0.10936,-0.038227,0.098842,0.023812,0.037454
1666,-0.018088,-0.043748,-0.11293,-0.043748,0.11703,0.025111,0.025111
1667,-0.017764,-0.041475,-0.11651,-0.046022,0.14626,0.026735,0.019589
1668,-0.018413,-0.036927,-0.12235,-0.046671,0.16413,0.020564,0.021538
1669,-0.017764,-0.028157,-0.1295,-0.046347,0.15601,0.0065969,0.027385
1670,-0.012567,-0.015165,-0.13404,-0.037902,0.12743,-0.0099683,0.028684
1671,-0.0018481,0.0039985,-0.12852,-0.021661,0.090397,-0.024585,0.024137
1672,0.0095202,0.029333,-0.11098,-0.00022403,0.0433,-0.031406,0.017316
1673,0.014068,0.056617,-0.085973,0.017965,-0.014191,-0.028157,0.0095202
1674,0.014717,0.079029,-0.063561,0.026085,-0.076554,-0.018088,-0.00087364
1675,0.013093,0.091372,-0.046347,0.019589,-0.12982,-0.0057458,-0.0096434
1676,0.014068,0.091696,-0.032055,0.0043233,-0.15288,0.0036737,-0.012892
1677,0.018615,0.082277,-0.016464,-0.0073698,-0.13502,0.009845,-0.007045
1678,0.02706,0.070584,0.00042559,-0.007045,-0.081101,0.01017,0.0059473
1679,0.036154,0.067661,0.017316,0.0046481,-0.014516,0.0056225,0.022837
1680,0.04395,0.070259,0.028684,0.016666,0.03453,-0.0060706,0.03518
1681,0.046548,0.075781,0.03583,0.023487,0.054019,-0.025884,0.042326
1682,0.040702,0.07708,0.038428,0.025436,0.053044,-0.055766,0.045249
1683,0.028034,0.069934,0.040702,0.02706,0.059541,-0.097341,0.049147
1684,0.012443,0.05207,0.046223,0.029983,0.089748,-0.14444,0.05142
1685,0.0036737,0.028359,0.054344,0.035505,0.14172,-0.18569,0.048497
1686,0.003024,0.0085458,0.067011,0.041027,0.19856,-0.21622,0.045574
1687,0.0085458,-0.0037969,0.081627,0.047198,0.23656,-0.23538,0.045574
1688,0.014068,-0.0057458,0.092996,0.058566,0.23039,-0.24513,0.049147
1689,0.01764,0.0020496,0.096569,0.076106,0.18037,-0.24286,0.054344
1690,0.01894,0.013093,0.090722,0.091696,0.10664,-0.21849,0.062464
1691,0.01894,0.022188,0.078704,0.095919,0.040702,-0.16977,0.074806
1692,0.023162,0.024137,0.066686,0.0865,0.00042559,-0.10384,0.087799
1693,0.032257,0.018615,0.062139,0.074806,-0.0067202,-0.027833,0.098193
1694,0.042001,0.009845,0.067661,0.067661,0.0088706,0.05142,0.10371
1695,0.047198,0.0069217,0.079029,0.065387,0.032257,0.12678,0.10469
1696,0.047198,0.012768,0.091372,0.063763,0.0433,0.19336,0.10177
1697,0.04395,0.024137,0.098842,0.062464,0.020239,0.25118,0.097218
1698,0.037454,0.03518,0.097543,0.061165,-0.053817,0.29568,0.087149
1699,0.029658,0.040052,0.087799,0.055968,-0.17594,0.32458,0.06961
1700,0.023162,0.035505,0.073507,0.044924,-0.33055,0.33693,0.045574
1701,0.015042,0.023487,0.055968,0.034206,-0.48516,0.32946,0.020564
1702,0.0062721,0.0075714,0.041351,0.025761,-0.60891,0.30834,0.0026992
1703,-0.00022403,-0.012892,0.033556,0.019264,-0.68135,0.28203,-0.0034721
1704,0.00010078,-0.034654,0.031607,0.017965,-0.69953,0.26092,-0.0015233
1705,0.0036737,-0.053492,0.030957,0.025761,-0.68102,0.25248,0.0017248
1706,0.0095202,-0.060638,0.032257,0.037129,-0.64562,0.2554,0.0075714
1707,0.01894,-0.052518,0.03583,0.042975,-0.61281,0.26287,0.016666
1708,0.030308,-0.034654,0.038428,0.038103,-0.59397,0.26287,0.026735
1709,0.042326,-0.015815,0.041676,0.022837,-0.58163,0.24695,0.026735
1710,0.047198,-0.0024977,0.044275,0.0085458,-0.54947,0.20993,0.003024
1711,0.044599,0.0046481,0.048497,0.0049729,-0.46405,0.15471,-0.04927
1712,0.036479,0.009845,0.055318,0.013093,-0.30067,0.090072,-0.12138
1713,0.02641,0.017316,0.062789,0.027385,-0.038551,0.028034,-0.19446
1714,0.016341,0.030308,0.071234,0.042975,0.30737,-0.021986,-0.25162
1715,0.0059473,0.042001,0.076755,0.054993,0.67635,-0.055766,-0.27793
1716,-0.0018481,0.050446,0.07708,0.059216,1.0077,-0.073631,-0.27339
1717,-0.0076946,0.05272,0.072858,0.057592,1.2597,-0.077528,-0.24578
1718,-0.011267,0.049472,0.066037,0.053694,1.4111,-0.07428,-0.2081
1719,-0.012892,0.041351,0.062789,0.051745,1.4556,-0.071357,-0.17237
1720,-0.011917,0.031282,0.064088,0.047523,1.3913,-0.073955,-0.13924
1721,-0.0047713,0.021538,0.072208,0.038103,1.2237,-0.085648,-0.10481
1722,0.0072465,0.012768,0.08585,0.024461,0.96445,-0.10709,-0.067459
1723,0.01764,0.0043233,0.096893,0.010819,0.64387,-0.13827,-0.037252
1724,0.018615,-0.0034721,0.09462,-0.00022403,0.30672,-0.174,-0.018088
1725,0.0091954,-0.0096434,0.074806,-0.0031473,0.0059473,-0.20843,-0.0093186
1726,-0.0044465,-0.011267,0.042326,-0.00054884,-0.2107,-0.23376,-0.010293
1727,-0.018413,-0.0044465,0.0059473,0.0033489,-0.32471,-0.24156,-0.017114
1728,-0.025884,0.0075714,-0.02426,0.0056225,-0.36076,-0.22564,-0.02426
1729,-0.026533,0.017316,-0.044398,0.0052977,-0.36953,-0.19024,-0.024909
1730,-0.022961,0.021213,-0.055116,0.0095202,-0.38674,-0.14671,-0.013866
1731,-0.013541,0.021863,-0.056416,0.019589,-0.42182,-0.11066,0.0065969
1732,-0.0057458,0.023487,-0.047321,0.034855,-0.46535,-0.089221,0.023162
1733,-0.00087364,0.024786,-0.035953,0.04395,-0.5053,-0.084999,0.027709
1734,0.0017248,0.022188,-0.028482,0.041676,-0.52381,-0.092469,0.024786
1735,0.0026992,0.011469,-0.027833,0.033881,-0.51245,-0.10286,0.023812
1736,0.00042559,0.00042559,-0.034329,0.026735,-0.4699,-0.10741,0.034855
1737,-0.0031473,-0.0054209,-0.038876,0.027385,-0.39584,-0.10774,0.058241
1738,-0.0041217,-0.0028225,-0.037252,0.032906,-0.29158,-0.10644,0.086824
1739,0.0072465,0.0088706,-0.03173,0.042975,-0.1688,-0.10319,0.10989
1740,0.028684,0.023812,-0.026858,0.058241,-0.048296,-0.097341,0.11541
1741,0.05142,0.036479,-0.02426,0.076106,0.048822,-0.092469,0.096893
1742,0.065062,0.043625,-0.026533,0.088773,0.10761,-0.092145,0.062139
1743,0.064737,0.042975,-0.028157,0.091047,0.1245,-0.09117,0.028359
1744,0.053369,0.038753,-0.029132,0.083576,0.11054,-0.086298,0.0072465
1745,0.040052,0.037129,-0.03303,0.065387,0.084876,-0.070707,-0.0018481
