,channel_1,channel_2,channel_3,channel_4,channel_5,channel_6,channel_7
0,0.003024,-0.0028225,-0.093444,-0.031406,0.061165,0.01764,0.030633
1,0.009845,0.010495,-0.09929,-0.022961,0.062139,0.022837,0.019914
2,0.015367,0.016666,-0.097341,-0.012567,0.062789,0.025436,0.0095202
3,0.017965,0.016666,-0.088896,-0.0076946,0.058891,0.027385,0.0039985
4,0.016341,0.015042,-0.076229,-0.015165,0.049796,0.031932,0.0046481
5,0.013418,0.01829,-0.065186,-0.024585,0.040052,0.037454,0.0078962
6,0.012119,0.023162,-0.059339,-0.024909,0.033556,0.044599,0.0095202
7,0.014717,0.025111,-0.059339,-0.01484,0.036479,0.05142,0.009845
8,0.01894,0.022188,-0.061288,-0.0011985,0.045899,0.055968,0.0091954
9,0.023162,0.013743,-0.062587,0.0095202,0.057917,0.058566,0.009845
10,0.02706,0.0056225,-0.058365,0.015692,0.070259,0.058241,0.016666
11,0.029009,-0.00087364,-0.049595,0.01764,0.078704,0.054668,0.025436
12,0.032582,-0.0044465,-0.035628,0.01764,0.079354,0.049147,0.032257
13,0.034855,-0.0063954,-0.024909,0.01829,0.069285,0.039727,0.031282
14,0.036804,-0.0067202,-0.020687,0.019264,0.047847,0.031932,0.027385
15,0.036154,-0.0031473,-0.023285,0.018615,0.017316,0.023162,0.019914
16,0.036479,0.0059473,-0.025559,0.01764,-0.017114,0.014717,0.010819
17,0.03583,0.021538,-0.024909,0.017965,-0.046671,0.0088706,0.0020496
18,0.035505,0.039402,-0.020037,0.019914,-0.066485,0.0049729,-0.0057458
19,0.031607,0.053044,-0.013541,0.023487,-0.072656,0.00042559,-0.014516
20,0.027385,0.057917,-0.007045,0.028359,-0.066485,-0.0044465,-0.02426
21,0.022837,0.054993,-0.0044465,0.032906,-0.05804,-0.0099683,-0.027183
22,0.01894,0.048822,-0.0031473,0.03583,-0.052843,-0.01484,-0.016789
23,0.01894,0.04395,0.00010078,0.039402,-0.050894,-0.018413,0.00010078
24,0.024137,0.039727,0.0043233,0.046873,-0.045372,-0.018413,0.018615
25,0.032257,0.03518,0.0075714,0.051745,-0.032055,-0.012892,0.028359
26,0.037778,0.026735,0.012119,0.054019,-0.013866,-0.0031473,0.024786
27,0.038428,0.01829,0.018615,0.05142,0.0020496,0.0049729,0.011469
28,0.036154,0.01017,0.026735,0.045249,0.016991,0.008221,-0.0057458
29,0.030957,0.0036737,0.039402,0.038103,0.032906,0.010819,-0.018738
30,0.025111,-0.00054884,0.052395,0.036804,0.048172,0.014068,-0.023285
31,0.019589,-0.00087364,0.063113,0.044924,0.055968,0.019264,-0.019712
32,0.014717,0.0036737,0.06961,0.058241,0.044275,0.026085,-0.010943
33,0.013418,0.0078962,0.073832,0.066362,0.010495,0.029009,0.0023744
34,0.011469,0.012119,0.078704,0.066362,-0.037252,0.024786,0.01894
35,0.008221,0.012768,0.082602,0.059865,-0.080451,0.017316,0.033231
36,0.0065969,0.012119,0.088124,0.05142,-0.096692,0.011144,0.040702
37,0.0072465,0.012768,0.092671,0.0433,-0.078827,0.0091954,0.041351
38,0.010819,0.013418,0.095269,0.039402,-0.027508,0.0095202,0.038428
39,0.011794,0.016016,0.09397,0.039078,0.042326,0.011144,0.033881
40,0.0091954,0.020239,0.091696,0.037454,0.10436,0.0095202,0.028034
41,0.0062721,0.025111,0.089098,0.032257,0.13295,0.0023744,0.02641
42,0.008221,0.028359,0.083251,0.028034,0.12255,-0.0047713,0.029333
43,0.015692,0.025436,0.079029,0.029333,0.08585,-0.0060706,0.03583
44,0.026085,0.016666,0.076755,0.03583,0.03518,-0.00087364,0.040377
45,0.032582,0.0075714,0.07708,0.044599,-0.015815,0.0026992,0.040052
46,0.031932,0.0043233,0.07773,0.05207,-0.052193,-0.0011985,0.032257
47,0.026085,0.0072465,0.080003,0.05142,-0.069083,-0.012567,0.019264
48,0.017316,0.011144,0.083576,0.044275,-0.068434,-0.024909,0.0059473
49,0.011469,0.01764,0.087149,0.038103,-0.061288,-0.033354,-0.0031473
50,0.0078962,0.02706,0.086824,0.035505,-0.051544,-0.038551,-0.008669
51,0.0036737,0.03518,0.084551,0.033881,-0.049595,-0.042449,-0.011592
52,-0.0021729,0.037454,0.080653,0.03518,-0.056091,-0.047971,-0.0099683
53,-0.010618,0.032257,0.075781,0.040377,-0.065186,-0.052193,-0.0050961
54,-0.017764,0.022837,0.067661,0.048172,-0.072331,-0.050244,0.0033489
55,-0.017439,0.016341,0.060515,0.052395,-0.0824,-0.042774,0.013743
56,-0.010293,0.013418,0.057592,0.048172,-0.098641,-0.030756,0.023812
57,-0.0018481,0.015042,0.056617,0.037778,-0.11618,-0.018738,0.028684
58,0.0020496,0.017316,0.057267,0.028684,-0.13047,-0.011917,0.029009
59,0.00042559,0.020564,0.054344,0.024137,-0.1334,-0.008669,0.029333
60,-0.0015233,0.025436,0.047847,0.021213,-0.1256,-0.0073698,0.032257
61,-0.00022403,0.030633,0.037778,0.01764,-0.10286,-0.0021729,0.036479
62,0.0036737,0.033231,0.028034,0.015692,-0.070707,0.01017,0.038753
63,0.0085458,0.033881,0.01764,0.018615,-0.039851,0.026735,0.039402
64,0.012443,0.034206,0.0069217,0.024137,-0.014191,0.037129,0.036804
65,0.014717,0.032257,-0.0041217,0.027385,0.0052977,0.038753,0.029983
66,0.012768,0.028034,-0.013216,0.016016,0.012443,0.031607,0.020564
67,0.010819,0.021213,-0.020687,-0.01549,0.0026992,0.020564,0.013743
68,0.0078962,0.011469,-0.026209,-0.061937,-0.021661,0.01017,0.015367
69,0.0059473,0.00075039,-0.033679,-0.11163,-0.050894,-0.00087364,0.020239
70,0.0039985,-0.0076946,-0.043099,-0.14866,-0.073306,-0.0083442,0.025111
71,0.0017248,-0.012892,-0.053492,-0.16328,-0.072981,-0.012242,0.027709
72,0.0033489,-0.012567,-0.061613,-0.15386,-0.038876,-0.011917,0.032906
73,0.010819,-0.0057458,-0.068109,-0.12592,0.021213,-0.0083442,0.042001
74,0.020564,0.0056225,-0.072656,-0.089871,0.092996,-0.0060706,0.049472
75,0.027385,0.017316,-0.075579,-0.059339,0.15893,-0.0034721,0.049147
76,0.030308,0.029009,-0.076879,-0.043423,0.20668,-0.00087364,0.040377
77,0.031932,0.034206,-0.077203,-0.040175,0.22812,0.0017248,0.030957
78,0.03518,0.027709,-0.075904,-0.042774,0.22227,0.0026992,0.024461
79,0.038103,0.014068,-0.072006,-0.042774,0.19206,0.0020496,0.024786
80,0.039727,0.0036737,-0.067784,-0.039526,0.14561,0.00042559,0.028034
81,0.040377,-0.00087364,-0.065835,-0.032705,0.096569,-0.0015233,0.03518
82,0.038103,0.0026992,-0.067784,-0.024585,0.059216,-0.0047713,0.040052
83,0.032257,0.010819,-0.071682,-0.015815,0.037778,-0.0060706,0.037129
84,0.029333,0.019589,-0.072981,-0.012567,0.029009,-0.0083442,0.027385
85,0.028359,0.028034,-0.067784,-0.01549,0.030633,-0.011917,0.01894
86,0.028034,0.033881,-0.057715,-0.021337,0.038103,-0.018738,0.014717
87,0.022188,0.033556,-0.046022,-0.023285,0.042001,-0.026533,0.014068
88,0.014717,0.025436,-0.039851,-0.018088,0.038103,-0.033354,0.016016
89,0.012443,0.012119,-0.039526,-0.0073698,0.026735,-0.038551,0.019589
90,0.015042,0.0026992,-0.046347,0.0072465,0.011144,-0.043423,0.022512
91,0.020888,-0.0021729,-0.054792,0.022512,-0.0034721,-0.046996,0.017316
92,0.025436,-0.00087364,-0.056416,0.034206,-0.01614,-0.046347,0.008221
93,0.024786,0.003024,-0.052518,0.042975,-0.024909,-0.045372,0.0036737
94,0.019914,0.0065969,-0.047646,0.048497,-0.026533,-0.044073,0.0062721
95,0.014068,0.0069217,-0.046996,0.049796,-0.021661,-0.042449,0.015042
96,0.0059473,0.0039985,-0.047971,0.048172,-0.014516,-0.038876,0.026085
97,0.0014,-0.0011985,-0.044073,0.048172,-0.012892,-0.034004,0.036804
98,0.0026992,-0.0057458,-0.03173,0.051096,-0.015815,-0.027183,0.040702
99,0.0078962,-0.0067202,-0.0089938,0.055968,-0.021986,-0.018738,0.03583
100,0.014717,-0.0034721,0.016991,0.061165,-0.030431,-0.012567,0.025111
101,0.019264,0.0023744,0.03583,0.066362,-0.037902,-0.010618,0.011794
102,0.018615,0.008221,0.04395,0.071883,-0.042449,-0.014516,-0.00054884
103,0.014392,0.012443,0.044275,0.077405,-0.044723,-0.021012,-0.007045
104,0.0095202,0.015692,0.044599,0.084876,-0.044073,-0.025884,-0.0073698
105,0.0049729,0.016666,0.048822,0.09462,-0.043099,-0.030106,-0.0047713
106,0.0014,0.020564,0.057917,0.10274,-0.040825,-0.030431,-0.0044465
107,-0.00087364,0.028034,0.06961,0.10177,-0.035628,-0.025234,-0.00054884
108,-0.0021729,0.038428,0.080978,0.092021,-0.031081,-0.013216,0.0095202
109,-0.0021729,0.047523,0.087149,0.079029,-0.029132,-0.00054884,0.021213
110,0.0020496,0.05272,0.090397,0.068635,-0.029782,0.008221,0.028684
111,0.0078962,0.05207,0.092021,0.064737,-0.034004,0.010819,0.032257
112,0.015367,0.047847,0.092671,0.065712,-0.040825,0.0062721,0.031932
113,0.020564,0.044275,0.091372,0.067336,-0.04862,0.00075039,0.02641
114,0.023487,0.039727,0.087799,0.067986,-0.053168,-0.0031473,0.021213
115,0.021863,0.031607,0.0852,0.067336,-0.048296,-0.00087364,0.01894
116,0.01829,0.016991,0.084551,0.06831,-0.034004,0.0075714,0.017965
117,0.016016,0.0020496,0.0865,0.067986,-0.017764,0.016991,0.021213
118,0.013093,-0.007045,0.089098,0.064413,-0.0083442,0.023812,0.028359
119,0.0091954,-0.0044465,0.093321,0.064413,-0.0089938,0.02641,0.036154
120,0.0065969,0.0056225,0.092346,0.070584,-0.012567,0.022837,0.039402
121,0.0043233,0.019264,0.087149,0.081303,-0.011592,0.017965,0.035505
122,-0.00087364,0.028359,0.079679,0.088773,-0.0067202,0.014392,0.030308
123,-0.007045,0.031282,0.075781,0.089423,-0.0037969,0.012768,0.023487
124,-0.0089938,0.029333,0.079029,0.0852,0.00010078,0.013093,0.018615
125,-0.0031473,0.026735,0.0852,0.080328,0.0059473,0.014068,0.013093
126,0.0052977,0.02641,0.088448,0.076755,0.0095202,0.016666,0.0065969
127,0.012119,0.02706,0.085525,0.075131,0.0043233,0.020564,-0.0011985
128,0.012768,0.028034,0.076106,0.072208,-0.008669,0.02641,-0.0093186
129,0.011144,0.026735,0.066037,0.065387,-0.019063,0.029983,-0.013866
130,0.012119,0.022512,0.059216,0.053369,-0.020037,0.031932,-0.010618
131,0.016991,0.01829,0.056942,0.040377,-0.012892,0.031607,-0.00054884
132,0.019914,0.016341,0.056617,0.031607,-0.0041217,0.029333,0.011794
133,0.01894,0.01764,0.055643,0.030308,0.003024,0.02706,0.022837
134,0.013418,0.020888,0.055643,0.029658,0.0072465,0.025111,0.029009
135,0.0072465,0.022837,0.057267,0.027709,0.0078962,0.021538,0.028034
136,0.0017248,0.021538,0.06084,0.025761,0.011794,0.01894,0.01764
137,-0.0028225,0.01829,0.060515,0.024137,0.020564,0.021538,0.0014
138,-0.0073698,0.012768,0.056292,0.025111,0.031282,0.025111,-0.012567
139,-0.010618,0.0052977,0.046548,0.024786,0.033881,0.029009,-0.020362
140,-0.013541,-0.0015233,0.034206,0.023812,0.024786,0.033231,-0.02426
141,-0.01549,-0.0050961,0.020239,0.026085,0.0043233,0.037778,-0.028807
142,-0.014516,-0.0034721,0.0065969,0.031282,-0.021337,0.042001,-0.03238
143,-0.007045,0.0014,-0.0096434,0.038428,-0.046996,0.044275,-0.030106
144,0.0017248,0.0039985,-0.025559,0.048172,-0.065186,0.038103,-0.02361
145,0.0088706,0.0059473,-0.037252,0.055318,-0.073631,0.027709,-0.01484
146,0.013418,0.0078962,-0.040825,0.059541,-0.067459,0.01894,-0.0034721
147,0.015367,0.011794,-0.034004,0.057267,-0.043099,0.018615,0.0065969
148,0.018615,0.017965,-0.02361,0.046223,-0.008669,0.028359,0.013743
149,0.020239,0.020239,-0.015815,0.030308,0.024137,0.042651,0.019264
150,0.01764,0.021213,-0.012567,0.013093,0.043625,0.054344,0.026735
151,0.011469,0.019589,-0.017114,-0.0028225,0.049472,0.059216,0.030633
152,0.0078962,0.01894,-0.027833,-0.012892,0.048497,0.055968,0.029983
153,0.01017,0.019589,-0.042124,-0.015165,0.044924,0.047198,0.027385
154,0.016016,0.021538,-0.053492,-0.0099683,0.0433,0.039727,0.028684
155,0.024137,0.023812,-0.056416,0.0036737,0.041351,0.036154,0.033881
156,0.034855,0.030633,-0.052843,0.024137,0.03453,0.03583,0.040702
157,0.04395,0.038428,-0.046347,0.045574,0.01764,0.036154,0.044924
158,0.048172,0.044275,-0.042449,0.05207,-0.011267,0.035505,0.041351
159,0.047523,0.04395,-0.045372,0.035505,-0.047646,0.03453,0.026085
160,0.04395,0.036154,-0.057715,-0.0080194,-0.079152,0.031932,0.0046481
161,0.038103,0.02641,-0.075579,-0.065835,-0.091495,0.032582,-0.015815
162,0.030957,0.019914,-0.090196,-0.11683,-0.077203,0.035505,-0.028482
163,0.023162,0.016991,-0.095717,-0.14476,-0.039201,0.041027,-0.033679
164,0.017965,0.017316,-0.090845,-0.14444,0.015367,0.04395,-0.030106
165,0.014392,0.01829,-0.080776,-0.123,0.073507,0.042326,-0.021012
166,0.010819,0.016341,-0.069083,-0.093769,0.11833,0.037129,-0.0067202
167,0.008221,0.0091954,-0.057715,-0.065835,0.14367,0.028684,0.0078962
168,0.008221,-0.0015233,-0.050569,-0.042774,0.15114,0.021863,0.016341
169,0.010819,-0.007045,-0.051544,-0.02426,0.14691,0.016666,0.016341
170,0.012119,-0.0047713,-0.053492,-0.012892,0.13879,0.013743,0.009845
171,0.0072465,0.0026992,-0.051868,-0.0067202,0.1284,0.014717,-0.0015233
172,0.00042559,0.011144,-0.045047,-0.0047713,0.11443,0.014392,-0.013216
173,-0.0080194,0.016016,-0.034654,-0.0047713,0.098517,0.011144,-0.018738
174,-0.013541,0.019589,-0.021661,-0.0024977,0.082927,0.0088706,-0.013541
175,-0.013216,0.021538,-0.0089938,0.0046481,0.073507,0.0062721,-0.0031473
176,-0.0073698,0.026735,0.0010752,0.0091954,0.070584,0.0014,0.0033489
177,0.00075039,0.037129,0.0056225,0.011469,0.071883,-0.00022403,0.0039985
178,0.0075714,0.047523,0.0052977,0.010819,0.073832,-0.00054884,0.0017248
179,0.01017,0.050121,0.0046481,0.0088706,0.072208,-0.0034721,-0.00087364
180,0.008221,0.047198,0.0062721,0.008221,0.061165,-0.0083442,-0.007045
181,0.0065969,0.041027,0.010819,0.012443,0.041676,-0.011592,-0.018088
182,0.0059473,0.03518,0.015692,0.018615,0.022837,-0.011917,-0.027833
183,0.0069217,0.029983,0.019589,0.023162,0.011469,-0.010293,-0.025559
184,0.0062721,0.026735,0.020564,0.024786,0.0088706,-0.007045,-0.010943
185,0.0017248,0.02706,0.020239,0.023487,0.011144,-0.0060706,0.0078962
186,-0.0044465,0.031282,0.022188,0.019589,0.013093,-0.0080194,0.021538
187,-0.0073698,0.03518,0.027385,0.014068,0.012768,-0.014516,0.025761
188,-0.0057458,0.037454,0.036154,0.0072465,0.008221,-0.020037,0.021863
189,-0.0018481,0.037129,0.0433,0.0056225,-0.0011985,-0.022636,0.01764
190,0.0010752,0.030308,0.047847,0.011794,-0.0099683,-0.020687,0.018615
191,0.0036737,0.01829,0.048172,0.026085,-0.012242,-0.016464,0.022188
192,0.0059473,0.0056225,0.046223,0.044924,-0.0093186,-0.013541,0.022188
193,0.0072465,-0.00022403,0.046873,0.059865,-0.0028225,-0.012242,0.016341
194,0.0059473,0.003024,0.050446,0.061814,0.0020496,-0.0096434,0.0072465
195,0.0036737,0.016341,0.057917,0.05272,-0.00087364,-0.0028225,-0.0021729
196,0.0010752,0.036154,0.068635,0.042326,-0.011917,0.0039985,-0.0089938
197,0.00010078,0.053694,0.079029,0.033231,-0.028482,0.0069217,-0.010618
198,-0.00087364,0.062789,0.084876,0.023487,-0.046347,0.0039985,-0.0076946
199,0.0017248,0.061814,0.087474,0.01894,-0.061613,-0.0041217,-0.0050961
200,0.008221,0.053369,0.089423,0.020888,-0.071682,-0.0093186,-0.0041217
201,0.01829,0.040702,0.087474,0.030957,-0.077853,-0.0089938,-0.00022403
202,0.030308,0.032257,0.083576,0.043625,-0.081101,-0.0047713,0.0088706
203,0.036154,0.029658,0.080978,0.05272,-0.075904,-0.00087364,0.017316
204,0.034206,0.031282,0.082277,0.055968,-0.063237,0.0059473,0.021213
205,0.02641,0.033231,0.083576,0.054668,-0.043748,0.014392,0.017965
206,0.01764,0.033556,0.081952,0.048497,-0.027508,0.020564,0.011469
207,0.009845,0.031932,0.076431,0.037454,-0.019388,0.021213,0.0052977
208,0.0065969,0.032257,0.067661,0.023162,-0.018738,0.016666,0.0033489
209,0.0088706,0.029983,0.06084,0.011469,-0.020362,0.0078962,0.0020496
210,0.015692,0.025436,0.058891,0.0059473,-0.021012,-0.0024977,-0.0015233
211,0.022837,0.019914,0.06019,0.0095202,-0.019388,-0.010943,-0.0083442
212,0.02641,0.010819,0.060515,0.01829,-0.016789,-0.01549,-0.013866
213,0.026735,0.0017248,0.059865,0.023487,-0.01484,-0.013866,-0.01484
214,0.028359,-0.0028225,0.057267,0.019914,-0.013866,-0.0080194,-0.0076946
215,0.030633,0.003024,0.054344,0.011794,-0.01614,-0.0034721,0.0056225
216,0.03453,0.015692,0.055318,0.0046481,-0.021012,-0.0024977,0.01894
217,0.037454,0.028034,0.057267,0.0033489,-0.022636,-0.0047713,0.02706
218,0.037778,0.033231,0.056617,0.0065969,-0.016789,-0.0096434,0.025436
219,0.03583,0.030957,0.049472,0.011794,-0.008669,-0.013866,0.017316
220,0.029983,0.029333,0.038103,0.017316,-0.00087364,-0.013216,0.010495
221,0.022188,0.031932,0.027385,0.018615,-0.0015233,-0.0073698,0.010495
222,0.015367,0.036804,0.021213,0.013743,-0.015165,0.0017248,0.017965
223,0.013743,0.040702,0.018615,0.0052977,-0.033679,0.009845,0.02706
224,0.014068,0.036804,0.016016,0.0023744,-0.046347,0.013093,0.031607
225,0.014068,0.028359,0.008221,0.0059473,-0.047971,0.015042,0.031282
226,0.014717,0.019264,-0.0050961,0.013093,-0.038876,0.016341,0.029983
227,0.015367,0.010495,-0.020037,0.019264,-0.024585,0.01829,0.028684
228,0.017316,0.0043233,-0.032055,0.024137,-0.0093186,0.018615,0.029333
229,0.017965,0.0023744,-0.041475,0.027385,0.003024,0.018615,0.031282
230,0.020239,0.0033489,-0.046671,0.032582,0.015367,0.016341,0.03453
231,0.020564,0.0043233,-0.047646,0.038103,0.028359,0.014392,0.038753
232,0.01829,0.0039985,-0.047971,0.042001,0.039727,0.011794,0.041027
233,0.014392,0.0020496,-0.050244,0.0433,0.044275,0.0072465,0.036479
234,0.013418,0.0023744,-0.055766,0.044924,0.045574,0.0023744,0.023487
235,0.012119,0.0069217,-0.064861,0.044275,0.044275,-0.0011985,0.0075714
236,0.012443,0.013418,-0.075255,0.039402,0.042001,-0.0031473,-0.0021729
237,0.013418,0.016341,-0.085324,0.028684,0.037454,-0.0067202,0.0026992
238,0.015367,0.013093,-0.094418,0.015042,0.030633,-0.014516,0.01764
239,0.01829,0.0095202,-0.10026,0.0039985,0.020888,-0.024585,0.03453
240,0.019264,0.010495,-0.099615,-0.00087364,0.011144,-0.030431,0.049472
241,0.018615,0.015042,-0.095717,0.0033489,0.0078962,-0.029132,0.058566
242,0.016016,0.01894,-0.088896,0.012119,0.013093,-0.023285,0.059541
243,0.014392,0.020888,-0.081101,0.017316,0.018615,-0.018088,0.054993
244,0.017316,0.022188,-0.077203,0.017316,0.017965,-0.014516,0.049147
245,0.025436,0.027385,-0.077203,0.012443,0.011144,-0.010293,0.042975
246,0.036479,0.036804,-0.081751,0.0026992,0.003024,-0.0041217,0.036804
247,0.048822,0.047847,-0.087922,-0.011592,-0.0021729,0.0043233,0.033881
248,0.059541,0.049796,-0.089221,-0.021986,-0.0037969,0.010495,0.033556
249,0.062789,0.039402,-0.0837,-0.022311,-0.0041217,0.013418,0.033231
250,0.057917,0.023162,-0.073306,-0.014191,0.00010078,0.014068,0.031607
251,0.046873,0.01017,-0.062262,-0.00054884,0.0069217,0.012443,0.027385
252,0.038103,0.0062721,-0.052518,0.014392,0.013418,0.01017,0.021213
253,0.032906,0.0039985,-0.043748,0.024137,0.017316,0.0069217,0.013418
254,0.031282,-0.00087364,-0.034004,0.02706,0.016666,0.0062721,0.0062721
255,0.029983,-0.007045,-0.02426,0.019589,0.010819,0.0085458,0.0059473
256,0.028684,-0.0093186,-0.017439,0.0085458,0.003024,0.012443,0.012443
257,0.026085,-0.0073698,-0.014191,-0.00054884,0.0010752,0.015042,0.021538
258,0.021213,-0.00022403,-0.0093186,-0.0024977,0.0075714,0.012119,0.026735
259,0.016666,0.0062721,-0.0018481,0.0026992,0.020564,0.0062721,0.027385
260,0.015042,0.009845,0.0069217,0.013418,0.033556,0.0023744,0.024786
261,0.01829,0.0091954,0.015042,0.026085,0.037454,0.0020496,0.02641
262,0.026735,0.0046481,0.020239,0.040702,0.031282,0.0059473,0.030308
263,0.036154,-0.0015233,0.021538,0.049472,0.01894,0.0091954,0.033556
264,0.041027,-0.0044465,0.020564,0.050121,0.0056225,0.0088706,0.033231
265,0.038103,-0.0021729,0.021538,0.041676,-0.0057458,0.0046481,0.029333
266,0.030308,0.0052977,0.028684,0.029658,-0.014516,0.00010078,0.02706
267,0.020888,0.014717,0.0433,0.01764,-0.022636,-0.0024977,0.029983
268,0.012119,0.024786,0.058566,0.010495,-0.029457,-0.0015233,0.034855
269,0.003024,0.032257,0.066686,0.0095202,-0.032055,-0.0015233,0.038753
270,-0.007045,0.036154,0.063438,0.015692,-0.03173,-0.0057458,0.038103
271,-0.01614,0.033881,0.053369,0.024786,-0.028807,-0.013216,0.03583
272,-0.021986,0.027709,0.046223,0.03518,-0.026533,-0.019388,0.033556
273,-0.022311,0.01894,0.049147,0.042651,-0.028807,-0.024909,0.034855
274,-0.018738,0.010819,0.059541,0.048172,-0.03238,-0.026533,0.037129
275,-0.011592,0.0043233,0.070909,0.054993,-0.037577,-0.024909,0.037778
276,-0.0054209,0.0026992,0.079029,0.058891,-0.046347,-0.020687,0.036479
277,-0.0031473,0.0095202,0.080978,0.056942,-0.055116,-0.016464,0.03518
278,-0.0031473,0.022512,0.079029,0.050771,-0.065186,-0.013216,0.036804
279,-0.0037969,0.031607,0.076431,0.046223,-0.072006,-0.0076946,0.038103
280,-0.00054884,0.031932,0.073832,0.045899,-0.076879,-0.0041217,0.037129
281,0.0056225,0.023812,0.072533,0.052395,-0.080776,-0.0047713,0.034855
282,0.011469,0.013743,0.073182,0.060515,-0.086298,-0.0093186,0.030633
283,0.016666,0.0043233,0.075131,0.065712,-0.092145,-0.01614,0.025436
284,0.021863,-0.0050961,0.079029,0.059865,-0.096367,-0.019388,0.019589
285,0.024137,-0.010943,0.086824,0.048172,-0.097991,-0.01614,0.016666
286,0.021538,-0.012242,0.095269,0.037129,-0.096042,-0.0089938,0.015042
287,0.011144,-0.0050961,0.10047,0.033556,-0.088572,-0.00054884,0.015367
288,-0.0050961,0.0014,0.097868,0.037778,-0.074605,0.0065969,0.014717
289,-0.021661,0.0010752,0.088773,0.040052,-0.05804,0.013093,0.012768
290,-0.033354,-0.0037969,0.075456,0.033881,-0.039851,0.020239,0.008221
291,-0.036927,-0.0089938,0.063763,0.019914,-0.019388,0.025111,0.00042559
292,-0.03238,-0.0050961,0.059865,0.0072465,0.009845,0.024461,-0.0060706
293,-0.021012,0.0085458,0.066037,0.003024,0.049472,0.017316,-0.0089938
294,-0.0063954,0.029009,0.075781,0.01017,0.094945,0.009845,-0.0044465
295,0.011469,0.051096,0.083251,0.022512,0.13847,0.0036737,0.0043233
296,0.032257,0.06961,0.083901,0.028034,0.16998,0.0010752,0.013743
297,0.050446,0.079679,0.077405,0.024137,0.18557,0.00075039,0.023162
298,0.06019,0.079679,0.066037,0.015692,0.17972,-0.0028225,0.032582
299,0.057917,0.06831,0.053694,0.0075714,0.15406,-0.010618,0.036804
300,0.046223,0.051745,0.041027,0.0036737,0.11898,-0.019388,0.033881
301,0.028359,0.033881,0.029658,0.0033489,0.08585,-0.026858,0.030957
302,0.0095202,0.017965,0.021213,0.0036737,0.062139,-0.029782,0.033231
303,-0.0044465,0.0085458,0.014392,0.0059473,0.046873,-0.026533,0.037129
304,-0.011592,0.0072465,0.008221,0.0085458,0.042326,-0.018738,0.036154
305,-0.010943,0.0095202,0.0059473,0.0065969,0.046223,-0.012567,0.027709
306,-0.0028225,0.016341,0.0065969,0.0023744,0.048172,-0.011267,0.014717
307,0.008221,0.023487,0.0059473,-0.00054884,0.040377,-0.014516,0.0023744
308,0.014068,0.029009,-0.00054884,0.00075039,0.022512,-0.01614,-0.0057458
309,0.012443,0.029658,-0.010293,0.0059473,0.0039985,-0.015165,-0.0076946
310,0.0039985,0.027709,-0.020037,0.011794,-0.0089938,-0.012892,-0.0080194
311,-0.0044465,0.024786,-0.026858,0.017965,-0.012242,-0.0089938,-0.010943
312,-0.0073698,0.023487,-0.034978,0.023812,-0.010293,-0.0041217,-0.016789
313,-0.0057458,0.024461,-0.045697,0.025436,-0.0093186,0.00075039,-0.022636
314,-0.0031473,0.026085,-0.055766,0.020564,-0.011592,0.0036737,-0.027833
315,-0.00022403,0.021538,-0.059664,0.0075714,-0.017114,0.0065969,-0.025234
316,0.0017248,0.011469,-0.057065,-0.0073698,-0.019712,0.008221,-0.016789
317,0.0020496,0.0020496,-0.050569,-0.018413,-0.012567,0.0085458,-0.010943
318,0.0026992,-0.0028225,-0.046022,-0.022311,0.0026992,0.0085458,-0.0083442
319,0.0052977,-0.0031473,-0.044723,-0.02426,0.016991,0.011794,-0.011267
320,0.011144,-0.0031473,-0.048296,-0.028157,0.020564,0.016991,-0.019712
321,0.017965,-0.0018481,-0.054142,-0.033354,0.011144,0.021538,-0.034654
322,0.024786,0.00075039,-0.057715,-0.035628,-0.0031473,0.024461,-0.04927
323,0.031282,0.0056225,-0.059664,-0.028807,-0.01484,0.022837,-0.055116
324,0.034206,0.01017,-0.060313,-0.01549,-0.021986,0.019589,-0.04992
325,0.029658,0.014392,-0.058689,-0.0018481,-0.025559,0.017965,-0.038227
326,0.01894,0.019264,-0.05804,0.0075714,-0.030756,0.017965,-0.024585
327,0.0078962,0.023162,-0.060313,0.013093,-0.038551,0.020888,-0.013216
328,0.0020496,0.024786,-0.065835,0.021213,-0.048296,0.025436,-0.0057458
329,0.00075039,0.023487,-0.070382,0.031607,-0.051868,0.029658,-0.0024977
330,0.0039985,0.021863,-0.066485,0.037778,-0.050569,0.029658,-0.0015233
331,0.01017,0.022188,-0.055766,0.038428,-0.048945,0.029009,0.003024
332,0.014717,0.023812,-0.044073,0.033231,-0.049595,0.029983,0.0078962
333,0.016991,0.024137,-0.034004,0.024461,-0.051544,0.032906,0.01017
334,0.01829,0.020239,-0.026858,0.017965,-0.054142,0.03453,0.0075714
335,0.021863,0.014717,-0.022961,0.015692,-0.04992,0.033556,-0.00087364
336,0.020239,0.009845,-0.021986,0.016341,-0.030106,0.029009,-0.011267
337,0.013093,0.0085458,-0.020037,0.020564,0.012768,0.022837,-0.020362
338,0.0046481,0.0062721,-0.015815,0.029983,0.081303,0.018615,-0.025559
339,-0.0015233,0.00075039,-0.0089938,0.040052,0.16185,0.016016,-0.027833
340,-0.0047713,-0.0024977,-0.0021729,0.047523,0.22682,0.014068,-0.026533
341,-0.0021729,0.00010078,0.0026992,0.049147,0.2528,0.012119,-0.020362
342,0.0046481,0.0075714,0.0065969,0.045249,0.23136,0.011794,-0.010293
343,0.011144,0.017316,0.011469,0.033231,0.17582,0.016341,0.0049729
344,0.014392,0.028684,0.019589,0.016666,0.10826,0.024137,0.020239
345,0.018615,0.03453,0.028684,0.0023744,0.049796,0.031282,0.030957
346,0.024461,0.034855,0.040052,-0.0031473,0.013743,0.032906,0.029983
347,0.032257,0.033556,0.05142,0.0033489,-0.0015233,0.023812,0.01829
348,0.036804,0.030633,0.062139,0.01894,-0.0096434,0.0062721,0.00042559
349,0.037454,0.030957,0.069934,0.036479,-0.017439,-0.010943,-0.014516
350,0.03583,0.033881,0.071558,0.051745,-0.027833,-0.023935,-0.020037
351,0.035505,0.03518,0.070584,0.062464,-0.038876,-0.030431,-0.014516
352,0.035505,0.032906,0.070259,0.070909,-0.043748,-0.031081,-0.00054884
353,0.034855,0.025436,0.074157,0.078055,-0.042774,-0.024909,0.015692
354,0.031607,0.015042,0.07773,0.08585,-0.039851,-0.014191,0.026735
355,0.026085,0.0091954,0.083901,0.090397,-0.035303,-0.0011985,0.029333
356,0.020564,0.011794,0.089748,0.092021,-0.03303,0.011144,0.029009
357,0.016341,0.018615,0.092671,0.092671,-0.034978,0.01894,0.029983
358,0.016016,0.023812,0.091696,0.092021,-0.044073,0.022512,0.032582
359,0.019589,0.024786,0.087799,0.087474,-0.064211,0.019914,0.031932
360,0.02641,0.021863,0.083901,0.078704,-0.094093,0.013743,0.026085
361,0.031282,0.015692,0.083251,0.06896,-0.1269,0.0039985,0.015042
362,0.034206,0.0091954,0.0852,0.058241,-0.15581,-0.0028225,0.0046481
363,0.029983,0.003024,0.088448,0.046873,-0.17302,-0.0034721,-0.00022403
364,0.020564,-0.0021729,0.092671,0.037454,-0.17692,0.0017248,0.0069217
365,0.0088706,-0.0060706,0.09462,0.029009,-0.174,0.0088706,0.020888
366,-0.0034721,-0.007045,0.09397,0.023812,-0.16685,0.016341,0.03583
367,-0.0099683,-0.0037969,0.090072,0.022188,-0.15158,0.021863,0.046548
368,-0.010293,0.0046481,0.084551,0.020564,-0.12917,0.022837,0.05272
369,-0.008669,0.012443,0.080653,0.01829,-0.10579,0.020888,0.056942
370,-0.0063954,0.013743,0.076755,0.019264,-0.087922,0.01829,0.058241
371,-0.0041217,0.011144,0.072533,0.019914,-0.073631,0.014717,0.054668
372,-0.0037969,0.008221,0.067661,0.016341,-0.056091,0.011469,0.051096
373,-0.0057458,0.0075714,0.063113,0.0072465,-0.031081,0.0085458,0.046223
374,-0.0044465,0.009845,0.059216,-0.0024977,0.0014,0.0075714,0.037778
375,-0.00054884,0.016016,0.054344,-0.0067202,0.038753,0.0088706,0.026735
376,0.0069217,0.021213,0.049472,-0.0021729,0.079679,0.01017,0.014392
377,0.012768,0.024786,0.044599,0.0091954,0.11931,0.0075714,0.0062721
378,0.011469,0.030308,0.037454,0.01894,0.15601,0.00042559,0.0014
379,0.003024,0.031607,0.025761,0.021213,0.18654,-0.0083442,-0.00054884
380,-0.0073698,0.026735,0.013093,0.014717,0.20473,-0.014191,0.00042559
381,-0.013541,0.017965,0.0020496,0.0036737,0.21155,-0.015815,0.0039985
382,-0.011917,0.009845,-0.0067202,-0.0050961,0.20863,-0.015165,0.008221
383,-0.0050961,0.0059473,-0.013541,-0.0054209,0.19693,-0.014191,0.010495
384,-0.00087364,0.009845,-0.019063,0.0010752,0.17225,-0.014516,0.012443
385,-0.0028225,0.01764,-0.021661,0.0065969,0.13847,-0.01549,0.012768
386,-0.0073698,0.022837,-0.02361,0.0033489,0.10566,-0.017764,0.010819
387,-0.011592,0.025111,-0.023935,-0.0073698,0.077405,-0.020687,0.0052977
388,-0.012242,0.024137,-0.024585,-0.020037,0.054993,-0.021986,-0.0018481
389,-0.012567,0.021538,-0.027508,-0.028157,0.038428,-0.022311,-0.0096434
390,-0.013866,0.023487,-0.032055,-0.03173,0.02706,-0.015815,-0.017764
391,-0.013866,0.030957,-0.036927,-0.030756,0.023162,-0.0083442,-0.023935
392,-0.011917,0.037454,-0.041799,-0.025884,0.022188,-0.0041217,-0.021661
393,-0.0063954,0.03518,-0.047321,-0.020362,0.01764,-0.0037969,-0.011917
394,0.00075039,0.026085,-0.051544,-0.018088,0.009845,-0.0063954,0.0026992
395,0.0017248,0.016016,-0.053168,-0.022636,0.0052977,-0.0089938,0.013743
396,-0.0041217,0.010495,-0.053168,-0.032705,0.0085458,-0.010618,0.017965
397,-0.01484,0.012443,-0.054792,-0.039201,0.018615,-0.0067202,0.016991
398,-0.02361,0.01829,-0.058365,-0.035953,0.033881,0.0026992,0.012119
399,-0.026533,0.023162,-0.063886,-0.021986,0.045574,0.013743,0.0072465
400,-0.021986,0.023487,-0.071032,-0.0041217,0.043625,0.01894,0.0049729
401,-0.0076946,0.023162,-0.078827,0.0085458,0.028684,0.017316,0.0062721
402,0.0095202,0.024786,-0.0837,0.014392,0.010495,0.011144,0.0085458
403,0.024786,0.030957,-0.083375,0.015042,-0.0050961,0.0039985,0.011794
404,0.032257,0.039078,-0.076554,0.010819,-0.01484,0.0033489,0.013743
405,0.032257,0.048822,-0.065835,0.0062721,-0.018738,0.0072465,0.013418
406,0.028034,0.057267,-0.050569,0.0062721,-0.017439,0.011469,0.011794
407,0.022837,0.062464,-0.039201,0.013743,-0.01484,0.014068,0.011144
408,0.01894,0.063438,-0.034978,0.016991,-0.015815,0.016991,0.012443
409,0.016341,0.056942,-0.0405,0.012443,-0.019063,0.022188,0.015042
410,0.013418,0.046223,-0.047646,0.0043233,-0.021986,0.029658,0.012768
411,0.011794,0.035505,-0.04862,-0.0034721,-0.025559,0.03453,0.010495
412,0.014392,0.031607,-0.046671,-0.0076946,-0.028482,0.032906,0.015042
413,0.018615,0.030308,-0.042774,-0.010293,-0.03303,0.024786,0.025436
414,0.024137,0.028034,-0.037577,-0.012242,-0.042774,0.016016,0.038753
415,0.028034,0.022188,-0.030106,-0.013866,-0.059989,0.011144,0.049796
416,0.031932,0.012119,-0.021012,-0.015165,-0.082725,0.009845,0.056942
417,0.035505,0.00075039,-0.007045,-0.010293,-0.10806,0.0085458,0.061165
418,0.039402,-0.008669,0.009845,-0.00022403,-0.12982,0.0059473,0.063763
419,0.038103,-0.01484,0.026735,0.012119,-0.14476,0.0020496,0.066686
420,0.033231,-0.016464,0.035505,0.020888,-0.14736,0.00042559,0.072208
421,0.027709,-0.012567,0.032582,0.020239,-0.13599,0.0049729,0.079029
422,0.024786,-0.0021729,0.024786,0.012768,-0.11326,0.014392,0.082927
423,0.021538,0.009845,0.01764,0.0065969,-0.083375,0.023812,0.082277
424,0.01764,0.01764,0.015692,0.0059473,-0.055766,0.031932,0.076106
425,0.015042,0.016991,0.019914,0.009845,-0.036602,0.036479,0.062789
426,0.015367,0.008221,0.029658,0.014717,-0.022636,0.038428,0.047198
427,0.019264,0.0010752,0.037778,0.023812,-0.0080194,0.037454,0.036804
428,0.024461,0.0014,0.040377,0.038103,0.0075714,0.036804,0.037778
429,0.031282,0.011144,0.038428,0.053044,0.01764,0.035505,0.048172
430,0.040702,0.030308,0.033881,0.064088,0.015042,0.032906,0.064737
431,0.048172,0.053369,0.029658,0.067336,-0.00054884,0.027709,0.080978
432,0.053369,0.072858,0.027385,0.064413,-0.026533,0.020564,0.087799
433,0.056292,0.080328,0.029983,0.057917,-0.049595,0.014392,0.082277
434,0.056942,0.074806,0.039402,0.055318,-0.061937,0.0091954,0.067986
435,0.057267,0.063438,0.053369,0.062464,-0.059339,0.0065969,0.048822
436,0.056942,0.052395,0.06831,0.071883,-0.045372,0.0069217,0.029009
437,0.057917,0.042975,0.079679,0.075781,-0.029457,0.0075714,0.016341
438,0.059865,0.036804,0.087799,0.071883,-0.018738,0.0062721,0.012443
439,0.06084,0.032906,0.091372,0.065062,-0.0093186,0.0033489,0.014717
440,0.061489,0.029658,0.092671,0.062789,0.00010078,-0.00022403,0.016016
441,0.062464,0.027385,0.091372,0.065712,0.008221,-0.0021729,0.014717
442,0.064413,0.024461,0.087149,0.070909,0.014717,-0.0011985,0.011469
443,0.065387,0.022837,0.084876,0.075131,0.011144,0.0010752,0.012443
444,0.06084,0.022512,0.082602,0.077405,0.0017248,0.0033489,0.016666
445,0.049796,0.023812,0.081952,0.080978,-0.0054209,0.0052977,0.023162
446,0.036154,0.029658,0.082602,0.083901,-0.0063954,0.0059473,0.029333
447,0.026735,0.037778,0.083901,0.082602,-0.0037969,0.0069217,0.03518
448,0.024461,0.0433,0.082277,0.07708,-0.00054884,0.0052977,0.036804
449,0.030633,0.046223,0.07773,0.072208,-0.0018481,0.0023744,0.030957
450,0.037778,0.044924,0.06831,0.066686,-0.0024977,0.00042559,0.023162
451,0.042975,0.038753,0.058241,0.059216,0.0023744,0.0010752,0.014392
452,0.044924,0.028684,0.050446,0.046223,0.016016,0.0023744,0.0065969
453,0.04395,0.016666,0.047847,0.033881,0.029658,0.0049729,-0.00087364
454,0.041676,0.0065969,0.046548,0.02706,0.039402,0.0059473,-0.0073698
455,0.039078,-0.00054884,0.046223,0.022512,0.044599,0.0046481,-0.013541
456,0.034855,-0.0028225,0.047198,0.016991,0.042001,0.0017248,-0.016789
457,0.028359,-0.0037969,0.051096,0.011144,0.032582,-0.00022403,-0.016464
458,0.019914,-0.0021729,0.054993,0.008221,0.022188,0.00042559,-0.0076946
459,0.0062721,0.0014,0.056292,0.0078962,0.01764,0.0056225,0.00075039
460,-0.0089938,0.0069217,0.050446,0.0062721,0.017316,0.010495,0.0062721
461,-0.019063,0.010495,0.036479,0.0069217,0.021538,0.016991,0.0065969
462,-0.018738,0.0075714,0.017965,0.009845,0.028684,0.021538,0.0020496
463,-0.012892,0.0026992,0.0017248,0.012443,0.039078,0.022837,-0.0021729
464,-0.0096434,-0.00054884,-0.0083442,0.011794,0.053369,0.019914,-0.0054209
465,-0.011267,0.00010078,-0.015815,0.01017,0.069934,0.013743,-0.0050961
466,-0.016789,0.0059473,-0.016464,0.01017,0.088448,0.0078962,0.0056225
467,-0.022311,0.015042,-0.012567,0.010495,0.10566,0.0078962,0.025111
468,-0.027833,0.022512,-0.008669,0.0072465,0.11671,0.011144,0.044599
469,-0.03303,0.025436,-0.010943,0.0020496,0.12158,0.011794,0.059216
470,-0.035303,0.024786,-0.018738,-0.0018481,0.11866,0.009845,0.063438
471,-0.032055,0.021213,-0.033354,-0.0031473,0.11183,0.0043233,0.053044
472,-0.024585,0.016666,-0.052843,0.0017248,0.10274,-0.0031473,0.03453
473,-0.01484,0.011469,-0.073306,0.014392,0.090397,-0.011917,0.013093
474,-0.0031473,0.0075714,-0.088572,0.028034,0.078379,-0.016789,-0.007045
475,0.0075714,0.0014,-0.099615,0.03583,0.06831,-0.01614,-0.017764
476,0.012119,-0.0083442,-0.10416,0.036479,0.062139,-0.013866,-0.021337
477,0.012768,-0.017114,-0.10286,0.032906,0.06019,-0.010618,-0.019388
478,0.014392,-0.023285,-0.097017,0.02641,0.057592,-0.0060706,-0.012567
479,0.01829,-0.018738,-0.090196,0.015692,0.047847,-0.0028225,-0.0031473
480,0.021213,-0.0037969,-0.085324,-0.00054884,0.03583,-0.0024977,0.0046481
481,0.020888,0.012768,-0.084674,-0.015815,0.028034,-0.0034721,0.0072465
482,0.015367,0.023812,-0.086298,-0.022311,0.028359,-0.0067202,0.0072465
483,0.0078962,0.026735,-0.087272,-0.019712,0.033881,-0.011592,0.0072465
484,0.00042559,0.024137,-0.086298,-0.0089938,0.041676,-0.01614,0.0069217
485,-0.0041217,0.01894,-0.0837,0.003024,0.051096,-0.018738,0.0033489
486,-0.0047713,0.014392,-0.080451,0.014068,0.061489,-0.020687,-0.0076946
487,-0.0024977,0.012119,-0.076554,0.019914,0.066037,-0.022311,-0.022961
488,-0.0015233,0.01017,-0.072656,0.023812,0.064737,-0.020362,-0.037252
489,-0.0034721,0.0056225,-0.070382,0.025761,0.061814,-0.012892,-0.043423
490,-0.0054209,-0.0011985,-0.068758,0.025436,0.06084,-0.0018481,-0.040825
491,-0.0021729,-0.0063954,-0.067134,0.023487,0.059541,0.0059473,-0.035628
492,0.0046481,-0.0050961,-0.064211,0.021863,0.053369,0.0065969,-0.033354
493,0.013093,0.0036737,-0.060963,0.01894,0.041351,0.0020496,-0.037577
494,0.016666,0.014392,-0.054792,0.014068,0.027385,-0.0054209,-0.040825
495,0.014068,0.021213,-0.046347,0.0036737,0.014392,-0.013216,-0.038876
496,0.0091954,0.023487,-0.035953,-0.0089938,0.0036737,-0.017439,-0.03303
497,0.0014,0.024137,-0.025884,-0.017439,-0.0024977,-0.017764,-0.029782
498,-0.0054209,0.023812,-0.017439,-0.019388,-0.0037969,-0.013866,-0.026209
499,-0.0096434,0.024137,-0.010943,-0.014516,-0.0034721,-0.0080194,-0.02426
500,-0.010293,0.021538,-0.0015233,-0.0034721,-0.0054209,0.00075039,-0.021661
501,-0.010293,0.015692,0.01017,0.010819,-0.012892,0.0091954,-0.018738
502,-0.0093186,0.0078962,0.019589,0.02641,-0.02361,0.011469,-0.01549
503,-0.0076946,0.0017248,0.024137,0.039727,-0.034978,0.0056225,-0.011267
504,-0.0047713,0.00010078,0.02641,0.046223,-0.045697,-0.0031473,-0.007045
505,0.00042559,0.0056225,0.031607,0.044599,-0.057715,-0.0080194,-0.0054209
506,0.003024,0.015692,0.039402,0.038428,-0.070058,-0.0067202,-0.0041217
507,-0.00087364,0.022188,0.047847,0.029983,-0.077853,-0.0018481,-0.0050961
508,-0.0063954,0.019264,0.056942,0.022837,-0.075579,0.0033489,-0.0076946
509,-0.007045,0.0088706,0.067661,0.017965,-0.069083,0.0052977,-0.008669
510,0.00010078,0.00010078,0.072533,0.019914,-0.063237,0.0049729,-0.0080194
511,0.010819,-0.0050961,0.072858,0.029983,-0.059664,0.0023744,-0.0015233
512,0.01894,-0.0028225,0.071558,0.040702,-0.059014,-0.0037969,0.0085458
513,0.025761,0.0065969,0.070259,0.044275,-0.059664,-0.0096434,0.01894
514,0.029009,0.016666,0.070584,0.039727,-0.061937,-0.012892,0.025761
515,0.028359,0.019589,0.074157,0.031282,-0.06616,-0.013216,0.028359
516,0.02641,0.016341,0.081627,0.023487,-0.068434,-0.011267,0.029658
517,0.023487,0.0095202,0.092346,0.019264,-0.067134,-0.0067202,0.031932
518,0.022837,0.0026992,0.10274,0.01829,-0.062262,0.0023744,0.034855
519,0.021538,0.0014,0.11086,0.017965,-0.055441,0.014068,0.040377
520,0.019589,0.0046481,0.11281,0.019914,-0.04992,0.024786,0.048172
521,0.016016,0.0078962,0.10696,0.024786,-0.04862,0.029983,0.053369
522,0.009845,0.0091954,0.092671,0.034206,-0.045047,0.028684,0.050121
523,0.0039985,0.009845,0.074482,0.044599,-0.037902,0.022512,0.041351
524,-0.00087364,0.013093,0.061814,0.051096,-0.02426,0.015692,0.035505
525,-0.0037969,0.015367,0.058891,0.05272,-0.0093186,0.010495,0.032582
526,-0.0050961,0.016016,0.066686,0.046873,0.0043233,0.0078962,0.031607
527,-0.0037969,0.01764,0.078379,0.03583,0.015042,0.0075714,0.031282
528,-0.0037969,0.021863,0.0865,0.021538,0.023162,0.0046481,0.028034
529,-0.0050961,0.030957,0.082602,0.0072465,0.02641,-0.00054884,0.021213
530,-0.008669,0.041027,0.06831,0.0017248,0.023487,-0.0041217,0.01017
531,-0.012242,0.049472,0.054344,0.009845,0.015367,-0.0054209,-0.0028225
532,-0.0083442,0.054019,0.050446,0.024786,0.0062721,-0.0031473,-0.010293
533,0.0023744,0.05207,0.057917,0.036154,-0.0028225,-0.00087364,-0.0099683
534,0.020239,0.046873,0.072533,0.036479,-0.011267,-0.0028225,-0.0031473
535,0.040377,0.042326,0.084226,0.02641,-0.018413,-0.010618,0.0052977
536,0.051096,0.039727,0.088448,0.013093,-0.021986,-0.020037,0.0075714
537,0.05272,0.039727,0.085525,0.00075039,-0.021661,-0.028482,0.0033489
538,0.044924,0.041676,0.079029,-0.0076946,-0.017114,-0.030431,-0.0011985
539,0.031932,0.044275,0.070909,-0.011917,-0.008669,-0.027183,-0.0015233
540,0.014717,0.04395,0.058241,-0.013216,0.0010752,-0.019063,-0.0011985
541,0.0010752,0.038103,0.042651,-0.013866,0.0043233,-0.011592,-0.0021729
542,-0.0050961,0.029333,0.026085,-0.015165,0.0017248,-0.0057458,-0.0028225
543,-0.0060706,0.020564,0.0085458,-0.015815,-0.0047713,-0.0054209,-0.00054884
544,-0.0041217,0.011794,-0.0037969,-0.013216,-0.0076946,-0.010293,0.0020496
545,-0.00022403,0.0049729,-0.0096434,-0.0047713,-0.010293,-0.013866,0.0049729
546,0.0046481,0.0014,-0.013216,0.009845,-0.014516,-0.01614,0.0085458
547,0.0088706,-0.00022403,-0.017114,0.020564,-0.018088,-0.016464,0.012119
548,0.011144,-0.0037969,-0.022636,0.023162,-0.019712,-0.018413,0.017316
549,0.015692,-0.0054209,-0.026858,0.01829,-0.017439,-0.019063,0.022512
550,0.020239,-0.0011985,-0.029132,0.0091954,-0.014516,-0.017764,0.026735
551,0.01894,0.010495,-0.031081,0.00042559,-0.0093186,-0.01484,0.02706
552,0.009845,0.022512,-0.033679,-0.0067202,-0.0034721,-0.010943,0.024786
553,0.0023744,0.030308,-0.036602,-0.01549,0.0039985,-0.0083442,0.021863
554,0.0014,0.034206,-0.040175,-0.022961,0.011794,-0.0063954,0.020564
555,0.0052977,0.03453,-0.045047,-0.030431,0.016991,-0.0060706,0.022188
556,0.014717,0.033231,-0.052518,-0.037902,0.020239,-0.0018481,0.025761
557,0.025436,0.030957,-0.059014,-0.044398,0.016991,0.0026992,0.029658
558,0.032906,0.025761,-0.063237,-0.046022,0.0036737,0.0036737,0.031282
559,0.03453,0.01894,-0.06551,-0.042449,-0.015815,0.0014,0.032257
560,0.031607,0.013418,-0.068758,-0.036278,-0.03303,-0.0011985,0.031607
561,0.025111,0.0091954,-0.069733,-0.028482,-0.046996,-0.00087364,0.028034
562,0.019914,0.011794,-0.068758,-0.021012,-0.058689,0.0052977,0.021213
563,0.020888,0.01829,-0.068758,-0.01549,-0.068109,0.012768,0.013743
564,0.025436,0.025436,-0.069408,-0.010618,-0.071032,0.020564,0.0085458
565,0.029983,0.028034,-0.069733,-0.0057458,-0.065835,0.026085,0.0014
566,0.031282,0.031282,-0.067134,-0.0021729,-0.051219,0.025761,-0.0031473
567,0.029983,0.037129,-0.062262,0.0026992,-0.037577,0.022837,-0.0011985
568,0.027709,0.044599,-0.057065,0.0085458,-0.03173,0.020888,0.012443
569,0.029009,0.048172,-0.051544,0.011469,-0.032705,0.022188,0.030308
570,0.032582,0.045899,-0.0405,0.012119,-0.029457,0.025111,0.044599
571,0.035505,0.042651,-0.025884,0.011794,-0.01614,0.025761,0.05142
572,0.036154,0.042001,-0.0096434,0.0085458,0.010819,0.025111,0.048497
573,0.034206,0.040052,0.0036737,0.0043233,0.048822,0.023812,0.038428
574,0.028359,0.033231,0.011144,0.0014,0.091047,0.022512,0.027385
575,0.020564,0.024137,0.012119,0.00075039,0.1336,0.019914,0.022512
576,0.013743,0.017316,0.0078962,0.0023744,0.17225,0.016016,0.021863
577,0.014068,0.014717,0.0026992,0.0088706,0.19986,0.010819,0.020888
578,0.021213,0.013743,-0.00022403,0.021213,0.20993,0.0088706,0.01829
579,0.030633,0.013418,-0.00087364,0.033881,0.19986,0.0088706,0.016991
580,0.037129,0.010819,-0.00054884,0.042975,0.17257,0.011794,0.020564
581,0.041676,0.0095202,-0.00022403,0.048822,0.1336,0.01894,0.026085
582,0.042651,0.011144,0.0017248,0.051096,0.093645,0.028684,0.031932
583,0.043625,0.014717,0.0065969,0.046548,0.059216,0.036479,0.032906
584,0.040377,0.019589,0.017965,0.039402,0.035505,0.039727,0.027385
585,0.033556,0.024137,0.032582,0.034206,0.021863,0.03583,0.022837
586,0.023162,0.026735,0.045574,0.033556,0.013418,0.029009,0.022512
587,0.010495,0.028359,0.055318,0.038753,0.0075714,0.025436,0.025436
588,-0.0015233,0.029333,0.059865,0.049147,0.0026992,0.025436,0.026735
589,-0.0076946,0.029658,0.059216,0.06019,-0.00054884,0.026735,0.025436
590,-0.0080194,0.029333,0.053044,0.069285,-0.0018481,0.028359,0.022512
591,-0.0031473,0.024137,0.047523,0.075781,-0.0047713,0.028034,0.019589
592,0.0046481,0.016016,0.044599,0.080003,-0.011917,0.026085,0.016666
593,0.012119,0.0091954,0.045574,0.080003,-0.02361,0.022512,0.014717
594,0.014717,0.0049729,0.048172,0.076755,-0.034978,0.017965,0.012443
595,0.011469,0.0049729,0.05272,0.074157,-0.040825,0.010819,0.010819
596,0.0049729,0.0069217,0.057592,0.076755,-0.039201,0.00042559,0.0072465
597,-0.0024977,0.011144,0.063763,0.081627,-0.037577,-0.0067202,0.0010752
598,-0.0047713,0.016341,0.071234,0.082602,-0.043423,-0.0083442,-0.0067202
599,0.00010078,0.021213,0.079029,0.080328,-0.055766,-0.0057458,-0.012567
600,0.011794,0.028359,0.085525,0.074806,-0.071032,-0.0034721,-0.013866
601,0.02641,0.035505,0.087799,0.072533,-0.084674,-0.0018481,-0.013541
602,0.039078,0.040052,0.088124,0.075781,-0.097666,-0.0021729,-0.012567
603,0.041351,0.040052,0.090722,0.081952,-0.11228,-0.0015233,-0.012567
604,0.03453,0.038103,0.092996,0.087149,-0.12787,-0.0021729,-0.017114
605,0.022837,0.033231,0.092021,0.089748,-0.14346,-0.0031473,-0.019063
606,0.012443,0.028034,0.087799,0.085525,-0.15841,-0.0047713,-0.01484
607,0.010495,0.023812,0.081952,0.07773,-0.17335,-0.008669,-0.0076946
608,0.013743,0.023162,0.077405,0.06831,-0.18731,-0.011917,-0.0037969
609,0.01894,0.027385,0.073182,0.061489,-0.19706,-0.011592,-0.0050961
610,0.020564,0.036804,0.068635,0.059541,-0.19966,-0.0060706,-0.0083442
611,0.017965,0.047847,0.065062,0.059865,-0.19413,0.00075039,-0.0076946
612,0.010819,0.055318,0.067011,0.061489,-0.18017,0.003024,-0.0037969
613,0.0017248,0.055968,0.071883,0.060515,-0.16035,0.0017248,0.0017248
614,-0.0054209,0.050771,0.080003,0.057917,-0.13729,-0.0021729,0.0043233
615,-0.008669,0.042326,0.08585,0.055643,-0.11293,-0.0057458,0.0036737
616,-0.007045,0.031607,0.084876,0.059541,-0.088572,-0.0067202,0.0039985
617,-0.00054884,0.024786,0.074482,0.067011,-0.062587,-0.0076946,0.0085458
618,0.0072465,0.022512,0.059216,0.070909,-0.029457,-0.0099683,0.015367
619,0.011469,0.023162,0.044599,0.067011,0.0072465,-0.012242,0.025436
620,0.010495,0.023162,0.031607,0.055643,0.040702,-0.01484,0.034206
621,0.0026992,0.024461,0.020239,0.041027,0.067661,-0.014516,0.036804
622,-0.0063954,0.02641,0.011469,0.029009,0.091047,-0.0089938,0.029983
623,-0.011592,0.028359,0.0065969,0.022837,0.12028,-0.00022403,0.01829
624,-0.0076946,0.028684,0.0052977,0.025111,0.16218,0.010819,0.01017
625,0.003024,0.025436,0.0072465,0.031932,0.22097,0.020564,0.0085458
626,0.011144,0.024786,0.0072465,0.033556,0.29438,0.024137,0.012443
627,0.011469,0.022512,0.00075039,0.022837,0.36811,0.023162,0.014717
628,0.0052977,0.016341,-0.011917,0.0052977,0.42365,0.021863,0.014068
629,-0.0015233,0.0043233,-0.028482,-0.0099683,0.43957,0.023487,0.015367
630,-0.0047713,-0.010943,-0.043423,-0.016789,0.41098,0.02641,0.015692
631,-0.0028225,-0.022636,-0.056091,-0.016464,0.34732,0.030633,0.015367
632,-0.0021729,-0.029457,-0.065835,-0.012567,0.26937,0.031932,0.017316
633,-0.0060706,-0.030756,-0.072656,-0.01614,0.19531,0.030957,0.024461
634,-0.015165,-0.027183,-0.075579,-0.022311,0.13814,0.028034,0.033556
635,-0.022961,-0.020687,-0.076879,-0.029457,0.10144,0.025111,0.040052
636,-0.025884,-0.010293,-0.082076,-0.034978,0.076431,0.024461,0.041676
637,-0.02426,0.003024,-0.089221,-0.036927,0.056617,0.028359,0.038103
638,-0.01549,0.013743,-0.093769,-0.033354,0.040377,0.032906,0.033881
639,-0.0011985,0.021213,-0.092794,-0.029782,0.023162,0.033231,0.026735
640,0.012443,0.02641,-0.085324,-0.030106,0.0043233,0.029333,0.020239
641,0.025111,0.029009,-0.075579,-0.036602,-0.013866,0.020239,0.01764
642,0.03453,0.032257,-0.064536,-0.047971,-0.028807,0.010819,0.022188
643,0.040702,0.031932,-0.058365,-0.060963,-0.039526,0.0062721,0.032582
644,0.043625,0.024137,-0.058365,-0.072006,-0.044073,0.0072465,0.045574
645,0.044275,0.0065969,-0.061613,-0.073306,-0.043099,0.011794,0.053369
646,0.040377,-0.012892,-0.063886,-0.059989,-0.043099,0.014392,0.056617
647,0.032582,-0.021661,-0.064536,-0.036927,-0.047646,0.013093,0.055968
648,0.022512,-0.013866,-0.065186,-0.018738,-0.054792,0.009845,0.05142
649,0.015367,0.0017248,-0.066485,-0.010293,-0.063561,0.0078962,0.043625
650,0.016341,0.016341,-0.067459,-0.014191,-0.070707,0.008221,0.036479
651,0.021538,0.024137,-0.068758,-0.025559,-0.076879,0.0088706,0.031932
652,0.026735,0.024461,-0.068758,-0.036278,-0.081101,0.0091954,0.030633
653,0.030633,0.01764,-0.067784,-0.039851,-0.08305,0.011794,0.030308
654,0.030308,0.0091954,-0.065186,-0.037252,-0.08305,0.016341,0.032257
655,0.025436,0.0033489,-0.059014,-0.031081,-0.080776,0.020888,0.038753
656,0.01829,-0.0018481,-0.050894,-0.02426,-0.078827,0.020888,0.048822
657,0.011794,-0.0041217,-0.0405,-0.01549,-0.080776,0.015692,0.057592
658,0.0065969,-0.0021729,-0.03238,-0.0060706,-0.086298,0.008221,0.061489
659,0.0043233,0.0020496,-0.028157,0.0072465,-0.092145,0.0033489,0.053044
660,0.0056225,0.0075714,-0.024585,0.018615,-0.092794,0.0036737,0.038753
661,0.011144,0.014068,-0.017439,0.025111,-0.088896,0.0075714,0.024786
662,0.015692,0.019264,-0.0044465,0.028684,-0.082076,0.013743,0.016991
663,0.01829,0.024461,0.012768,0.025761,-0.071032,0.015042,0.015692
664,0.019264,0.028359,0.033231,0.016991,-0.05804,0.012119,0.016666
665,0.016666,0.033231,0.051745,0.0075714,-0.049595,0.0091954,0.01764
666,0.012443,0.041027,0.064088,0.0020496,-0.048296,0.0095202,0.020239
667,0.011794,0.047198,0.068635,0.0026992,-0.04927,0.0091954,0.026735
668,0.018615,0.049472,0.068635,0.0091954,-0.046671,0.0069217,0.038753
669,0.031932,0.044924,0.065062,0.020564,-0.041799,0.0056225,0.048822
670,0.041351,0.037454,0.061489,0.034855,-0.036927,0.0065969,0.055318
671,0.044275,0.031282,0.06084,0.047198,-0.030431,0.0078962,0.055643
672,0.040052,0.028684,0.063438,0.054019,-0.019712,0.008221,0.053369
673,0.032906,0.029983,0.06831,0.059216,-0.007045,0.0046481,0.050446
674,0.027385,0.031932,0.076106,0.063438,0.00075039,-0.0015233,0.050121
675,0.024786,0.031282,0.0865,0.06961,-0.0044465,-0.0063954,0.050121
676,0.024786,0.028034,0.096244,0.072208,-0.019712,-0.0083442,0.046873
677,0.025111,0.024461,0.10177,0.072858,-0.040825,-0.0076946,0.036154
678,0.024137,0.022512,0.10209,0.073832,-0.057065,-0.0060706,0.019589
679,0.020564,0.022837,0.098842,0.072858,-0.062912,-0.0031473,0.0023744
680,0.017316,0.025761,0.094945,0.069285,-0.056741,0.0017248,-0.0063954
681,0.016666,0.028034,0.092671,0.066037,-0.040825,0.0056225,-0.0050961
682,0.020888,0.024786,0.092021,0.064737,-0.022636,0.0046481,0.0017248
683,0.026735,0.018615,0.088448,0.066686,-0.010943,-0.0050961,0.0062721
684,0.030957,0.015042,0.081303,0.064413,-0.0080194,-0.021012,0.0043233
685,0.029658,0.018615,0.074157,0.06084,-0.0083442,-0.034654,-0.0034721
686,0.020888,0.025111,0.072208,0.055318,-0.0057458,-0.04115,-0.012892
687,0.012443,0.029658,0.074157,0.045899,0.00042559,-0.041799,-0.017439
688,0.0085458,0.029658,0.075131,0.03518,0.0075714,-0.036278,-0.016789
689,0.0088706,0.02706,0.071234,0.025111,0.014068,-0.030431,-0.01614
690,0.0085458,0.023162,0.059865,0.021863,0.01894,-0.025234,-0.016789
691,0.0062721,0.020239,0.042651,0.02641,0.020888,-0.025884,-0.015815
692,0.003024,0.016341,0.030308,0.032257,0.021213,-0.029457,-0.012567
693,0.0026992,0.0091954,0.027385,0.033231,0.020888,-0.029457,-0.0050961
694,0.0033489,-0.0018481,0.028684,0.030633,0.017316,-0.024909,0.0023744
695,0.0043233,-0.012892,0.02641,0.029983,0.016016,-0.019712,0.0069217
696,0.0039985,-0.018738,0.020564,0.036479,0.015042,-0.021012,0.0052977
697,0.0052977,-0.015165,0.015692,0.044924,0.013093,-0.026209,0.0033489
698,0.008221,-0.0063954,0.013418,0.050446,0.0017248,-0.034978,-0.0018481
699,0.012119,0.0026992,0.012768,0.049796,-0.016789,-0.040825,-0.0054209
700,0.01764,0.0088706,0.011144,0.044275,-0.035953,-0.041799,-0.0080194
701,0.024137,0.009845,0.010819,0.035505,-0.050894,-0.037902,-0.010943
702,0.028684,0.0065969,0.013418,0.024786,-0.066485,-0.029132,-0.012242
703,0.030308,-0.00087364,0.016341,0.012119,-0.0824,-0.01614,-0.011917
704,0.029658,-0.0099683,0.015692,0.00042559,-0.097666,-0.0037969,-0.014516
705,0.028034,-0.017439,0.0095202,-0.0034721,-0.10709,0.003024,-0.019063
706,0.027709,-0.020687,0.0039985,-0.0031473,-0.10611,0.0052977,-0.020362
707,0.029333,-0.021012,-0.0028225,-0.0063954,-0.090845,0.0069217,-0.018738
708,0.032257,-0.019712,-0.010293,-0.012567,-0.061937,0.010819,-0.017764
709,0.033231,-0.018738,-0.015165,-0.01549,-0.027833,0.016016,-0.017439
710,0.029009,-0.018413,-0.021012,-0.010618,0.00075039,0.016666,-0.017764
711,0.022512,-0.014516,-0.029132,0.0014,0.020564,0.013743,-0.019063
712,0.019264,-0.0044465,-0.036278,0.01764,0.03583,0.010819,-0.019388
713,0.016341,0.0062721,-0.043099,0.029983,0.048172,0.0059473,-0.017439
714,0.011144,0.016016,-0.04862,0.033881,0.055968,-0.0015233,-0.014516
715,0.0017248,0.023487,-0.053168,0.033881,0.06019,-0.0096434,-0.012242
716,-0.011592,0.025436,-0.054792,0.034206,0.063763,-0.014516,-0.0099683
717,-0.021986,0.02641,-0.050569,0.034206,0.067986,-0.015165,-0.0057458
718,-0.029457,0.027385,-0.044073,0.029009,0.072858,-0.011592,-0.0018481
719,-0.032705,0.029658,-0.037577,0.019264,0.077405,-0.0063954,0.0020496
720,-0.030756,0.031932,-0.033679,0.010495,0.083576,-0.0021729,0.0039985
721,-0.026858,0.033231,-0.033679,0.00075039,0.091372,0.0017248,0.0059473
722,-0.023935,0.033881,-0.035628,-0.0080194,0.10047,0.0043233,0.011144
723,-0.02361,0.036154,-0.037577,-0.01484,0.10599,0.0043233,0.01764
724,-0.020037,0.036154,-0.036927,-0.017764,0.10501,-0.00054884,0.01764
725,-0.011267,0.032257,-0.03303,-0.013541,0.099492,-0.0073698,0.012443
726,0.00010078,0.029333,-0.030431,-0.0057458,0.092021,-0.0096434,0.0052977
727,0.011794,0.028684,-0.033354,0.0017248,0.084551,-0.0037969,-0.00022403
728,0.021863,0.030308,-0.037902,0.0065969,0.076106,0.010495,-0.0050961
729,0.025111,0.032582,-0.040825,0.0052977,0.065062,0.029333,-0.011267
730,0.019589,0.033231,-0.041799,0.00075039,0.055643,0.044599,-0.014516
731,0.0095202,0.033556,-0.042774,-0.0060706,0.047847,0.053694,-0.01484
732,-0.0034721,0.029009,-0.046996,-0.011917,0.040052,0.051745,-0.01614
733,-0.013216,0.020564,-0.049595,-0.012242,0.033556,0.038428,-0.018088
734,-0.015165,0.014717,-0.051219,-0.0063954,0.027709,0.022837,-0.020687
735,-0.010943,0.016341,-0.044723,0.0017248,0.024137,0.011144,-0.022311
736,-0.0037969,0.021538,-0.03173,0.011469,0.025111,0.008221,-0.02361
737,0.0017248,0.025761,-0.015815,0.021863,0.032906,0.016341,-0.02361
738,0.0033489,0.026085,-0.0047713,0.033231,0.042651,0.029658,-0.021337
739,0.0059473,0.023162,0.0036737,0.042326,0.046873,0.040377,-0.01549
740,0.0062721,0.019914,0.0075714,0.04395,0.044924,0.042975,-0.0073698
741,0.0046481,0.017965,0.0078962,0.040377,0.041351,0.037129,-0.0015233
742,0.0033489,0.018615,0.0085458,0.036479,0.039402,0.02641,0.0020496
743,0.0023744,0.017965,0.010495,0.03518,0.037454,0.016666,0.0033489
744,0.0020496,0.015692,0.015692,0.037454,0.037129,0.013093,0.003024
745,0.0039985,0.013418,0.024786,0.038103,0.037778,0.015042,0.003024
746,0.0069217,0.011144,0.031932,0.035505,0.038428,0.019589,0.0056225
747,0.010819,0.0095202,0.037778,0.029658,0.037778,0.022837,0.012119
748,0.015692,0.0091954,0.041027,0.023812,0.03453,0.022512,0.020888
749,0.020888,0.012443,0.046223,0.020888,0.026085,0.019914,0.027709
750,0.025436,0.017316,0.051096,0.018615,0.01017,0.014717,0.032582
751,0.029009,0.024137,0.054019,0.012443,-0.0096434,0.010819,0.033881
752,0.029009,0.033556,0.057917,0.0065969,-0.022636,0.0091954,0.028359
753,0.024461,0.041351,0.066037,0.0072465,-0.027508,0.01017,0.029333
754,0.01764,0.044924,0.073832,0.016016,-0.026209,0.014392,0.036804
755,0.0088706,0.045899,0.079679,0.029983,-0.019712,0.01764,0.041676
756,0.0072465,0.042326,0.0852,0.044275,-0.012892,0.020564,0.037454
757,0.013093,0.034206,0.088124,0.057592,-0.0073698,0.022188,0.026735
758,0.021538,0.02641,0.088124,0.066686,-0.0054209,0.021863,0.014717
759,0.028684,0.024461,0.086824,0.06831,-0.0050961,0.023162,0.0078962
760,0.032257,0.028359,0.087149,0.066037,-0.0011985,0.023162,0.01017
761,0.03583,0.034206,0.090397,0.068635,0.0033489,0.020239,0.021213
762,0.041676,0.039727,0.099817,0.076106,0.0065969,0.016016,0.036804
763,0.048497,0.041351,0.11313,0.079029,0.0049729,0.01017,0.049796
764,0.053044,0.037129,0.12353,0.072208,0.0033489,0.0052977,0.055968
765,0.051745,0.028684,0.1245,0.052395,0.0091954,-0.00054884,0.057917
766,0.044599,0.01764,0.11573,0.029658,0.019589,-0.0067202,0.057592
767,0.036479,0.0069217,0.10047,0.012443,0.028684,-0.013866,0.05207
768,0.029333,-0.0021729,0.084551,0.0033489,0.031932,-0.018088,0.042001
769,0.022188,-0.0089938,0.073182,0.003024,0.023487,-0.016789,0.028359
770,0.01764,-0.013866,0.066362,0.011144,0.0095202,-0.0096434,0.016341
771,0.014392,-0.015165,0.062139,0.022188,-0.0021729,-0.0028225,0.0056225
772,0.015367,-0.01549,0.060515,0.031282,-0.0093186,0.0026992,-0.0024977
773,0.020239,-0.012567,0.06019,0.033231,-0.013216,0.0072465,-0.0060706
774,0.020888,-0.0099683,0.06019,0.027709,-0.015165,0.012119,-0.0031473
775,0.017316,-0.0083442,0.057267,0.016016,-0.016464,0.011794,0.0043233
776,0.012119,-0.0083442,0.053044,0.0026992,-0.020687,0.0069217,0.016666
777,0.0095202,-0.0083442,0.050121,-0.0050961,-0.028482,0.0059473,0.030633
778,0.010495,-0.0037969,0.048822,-0.0041217,-0.038551,0.0075714,0.041676
779,0.010819,0.0049729,0.043625,-0.0011985,-0.046671,0.013093,0.042651
780,0.0095202,0.015367,0.031607,0.00010078,-0.049595,0.01764,0.033231
781,0.0052977,0.020888,0.016341,-0.0015233,-0.051544,0.01764,0.01829
782,-0.00087364,0.021863,0.0049729,-0.0021729,-0.053817,0.015692,0.008221
783,-0.0054209,0.022512,-0.00054884,-0.0011985,-0.054467,0.014392,0.0056225
784,-0.0057458,0.024137,-0.0054209,-0.0024977,-0.049595,0.013093,0.0095202
785,-0.0018481,0.028034,-0.013866,-0.0031473,-0.038876,0.0091954,0.016341
786,0.0052977,0.034206,-0.022961,0.0020496,-0.022311,0.0036737,0.020239
787,0.011469,0.039078,-0.027183,0.014068,-0.0044465,-0.0011985,0.020888
788,0.017965,0.040052,-0.025559,0.027709,0.01764,-0.0054209,0.023162
789,0.022837,0.037454,-0.023935,0.033881,0.040702,-0.0067202,0.028034
790,0.021863,0.03583,-0.027508,0.028034,0.062789,-0.0034721,0.029658
791,0.014392,0.036804,-0.036602,0.015692,0.079679,0.0026992,0.026085
792,0.0039985,0.039402,-0.046996,0.0033489,0.08585,0.0072465,0.016341
793,-0.0024977,0.041676,-0.056091,-0.0034721,0.080003,0.008221,0.0036737
794,-0.0021729,0.040052,-0.064536,-0.007045,0.065062,0.0065969,-0.0080194
795,0.0046481,0.03583,-0.070058,-0.007045,0.049147,0.0033489,-0.010293
796,0.013093,0.028034,-0.07428,-0.0054209,0.040052,0.0039985,0.0014
797,0.021213,0.01829,-0.077853,0.00075039,0.036154,0.0078962,0.019914
798,0.024137,0.01017,-0.084349,0.0065969,0.036479,0.016341,0.038753
799,0.021213,0.010819,-0.092145,0.0062721,0.03518,0.022837,0.054019
800,0.014717,0.020239,-0.098316,-0.0011985,0.029983,0.026085,0.061814
801,0.008221,0.029009,-0.10156,-0.010943,0.023487,0.023812,0.06019
802,0.0059473,0.030633,-0.10156,-0.01614,0.017316,0.017316,0.049796
803,0.0088706,0.022512,-0.098965,-0.012242,0.0091954,0.010495,0.035505
804,0.014392,0.008221,-0.096042,-0.00022403,-0.00022403,0.0033489,0.022512
805,0.020888,-0.0054209,-0.097341,0.016991,-0.0093186,-0.0015233,0.014717
806,0.023812,-0.011592,-0.10059,0.03583,-0.01549,-0.0041217,0.014068
807,0.023487,-0.012242,-0.099615,0.049147,-0.021337,-0.0054209,0.020564
808,0.021538,-0.0067202,-0.089221,0.053369,-0.028157,-0.0041217,0.028034
809,0.020239,0.0033489,-0.07428,0.047198,-0.03173,-0.0034721,0.029333
810,0.020564,0.016341,-0.062262,0.038428,-0.029782,-0.0021729,0.024137
811,0.020564,0.028359,-0.057715,0.028034,-0.027833,0.00042559,0.016016
812,0.017965,0.03518,-0.057065,0.016341,-0.027833,0.0026992,0.0069217
813,0.016991,0.036804,-0.054142,0.0017248,-0.026533,0.0014,0.0010752
814,0.020564,0.035505,-0.043748,-0.010618,-0.024909,-0.00054884,0.0033489
815,0.030308,0.033881,-0.026533,-0.012892,-0.025559,-0.0021729,0.012768
816,0.038428,0.03583,-0.010293,-0.0054209,-0.026858,-0.00054884,0.023812
817,0.042326,0.040377,-0.0018481,0.0085458,-0.027833,0.0069217,0.030633
818,0.040377,0.045249,-0.0021729,0.01829,-0.03173,0.015692,0.031607
819,0.03453,0.049796,-0.0060706,0.024786,-0.035303,0.023162,0.028359
820,0.029658,0.050771,-0.0096434,0.029333,-0.038876,0.025111,0.022188
821,0.026085,0.050121,-0.012567,0.032582,-0.042124,0.021538,0.016991
822,0.022188,0.048822,-0.011917,0.038428,-0.046671,0.015042,0.015367
823,0.011794,0.042651,-0.0067202,0.048172,-0.04992,0.0088706,0.014392
824,-0.00087364,0.03453,0.0020496,0.057917,-0.04862,0.0046481,0.012768
825,-0.0076946,0.028684,0.013093,0.062464,-0.042124,0.0026992,0.0075714
826,-0.0034721,0.025436,0.026735,0.057592,-0.033354,0.00010078,-0.0011985
827,0.0052977,0.025111,0.039727,0.048822,-0.030106,-0.0037969,-0.011267
828,0.012443,0.025436,0.049147,0.044275,-0.033679,-0.0083442,-0.013541
829,0.014068,0.027385,0.058241,0.045899,-0.037252,-0.010293,-0.0044465
830,0.011144,0.032257,0.06831,0.047198,-0.038876,-0.0099683,0.012768
831,0.0052977,0.041676,0.074806,0.04395,-0.039201,-0.0080194,0.034855
832,-0.0011985,0.053044,0.075781,0.033231,-0.040175,-0.0093186,0.055968
833,-0.0060706,0.062139,0.070584,0.022512,-0.04115,-0.012242,0.065387
834,-0.0050961,0.065387,0.064088,0.014717,-0.038227,-0.015165,0.061489
835,0.0010752,0.061489,0.059216,0.0056225,-0.032055,-0.017114,0.048172
836,0.0091954,0.051745,0.059541,-0.0024977,-0.025234,-0.01549,0.031607
837,0.01017,0.037454,0.062464,-0.0047713,-0.020687,-0.013216,0.019914
838,0.0059473,0.024137,0.067986,0.00075039,-0.020362,-0.012892,0.014392
839,-0.00087364,0.018615,0.077405,0.009845,-0.023285,-0.016789,0.013418
840,-0.0034721,0.019914,0.087149,0.01764,-0.027183,-0.022636,0.013418
841,-0.0031473,0.024137,0.096893,0.024137,-0.033679,-0.028482,0.015042
842,-0.0011985,0.026735,0.10566,0.030308,-0.038227,-0.029782,0.017965
843,0.0033489,0.027709,0.11313,0.034855,-0.039526,-0.024585,0.020888
844,0.009845,0.027385,0.11866,0.034206,-0.038227,-0.01484,0.020239
845,0.014392,0.02641,0.11768,0.029658,-0.036602,-0.0041217,0.01894
846,0.010819,0.020239,0.10826,0.02641,-0.035953,0.0026992,0.020564
847,0.003024,0.012768,0.092671,0.028684,-0.031081,0.0033489,0.024137
848,-0.0057458,0.0075714,0.076755,0.03518,-0.024909,-0.0018481,0.029983
849,-0.0093186,0.0085458,0.066037,0.042975,-0.019712,-0.0076946,0.03583
850,-0.0044465,0.013743,0.062464,0.050121,-0.016464,-0.013866,0.038753
851,0.0069217,0.016341,0.065062,0.051745,-0.017764,-0.013541,0.033556
852,0.021863,0.013743,0.06961,0.043625,-0.022311,-0.0083442,0.021213
853,0.037454,0.0065969,0.076106,0.030957,-0.027183,0.0020496,0.0072465
854,0.047523,0.00042559,0.079679,0.01829,-0.028157,0.011794,-0.0011985
855,0.05207,0.00010078,0.078704,0.0075714,-0.022636,0.016666,-0.0050961
856,0.05272,0.0065969,0.06961,-0.0050961,-0.010618,0.013093,-0.0050961
857,0.050121,0.015367,0.054344,-0.015815,0.0075714,0.0052977,-0.0047713
858,0.04395,0.021213,0.040702,-0.020037,0.028684,-0.0050961,-0.0047713
859,0.037778,0.024461,0.032582,-0.014191,0.042326,-0.013216,-0.0021729
860,0.03518,0.024137,0.031607,-0.00054884,0.042975,-0.021337,-0.00022403
861,0.034206,0.021863,0.029983,0.015042,0.036479,-0.025234,-0.00087364
862,0.031607,0.020564,0.025436,0.02706,0.030633,-0.026533,-0.0015233
863,0.029333,0.020239,0.019589,0.030633,0.027385,-0.026209,-0.0021729
864,0.024137,0.019264,0.012768,0.028034,0.025111,-0.023935,-0.0031473
865,0.020888,0.017316,0.003024,0.024137,0.019264,-0.015165,-0.0076946
866,0.016341,0.012768,-0.0083442,0.017965,0.012119,-0.0031473,-0.01614
867,0.011144,0.0043233,-0.017764,0.011144,0.0062721,0.0088706,-0.028482
868,0.0036737,-0.0050961,-0.02361,0.0023744,0.0043233,0.016991,-0.036602
869,-0.0037969,-0.0089938,-0.024909,-0.0096434,0.0059473,0.021863,-0.035303
870,-0.0093186,-0.010293,-0.02361,-0.021986,0.0091954,0.024137,-0.019063
871,-0.0089938,-0.010618,-0.021986,-0.03173,0.010819,0.026085,0.0059473
872,-0.0041217,-0.010618,-0.023285,-0.035303,0.011469,0.027385,0.030957
873,0.0020496,-0.0093186,-0.029782,-0.029132,0.015367,0.028359,0.047847
874,0.0059473,-0.0047713,-0.039526,-0.01549,0.024461,0.027709,0.050121
875,0.0065969,0.0017248,-0.053168,-0.0018481,0.038753,0.027709,0.042651
876,0.0078962,0.0088706,-0.06551,0.0078962,0.055968,0.02641,0.034206
877,0.010819,0.013743,-0.069083,0.0072465,0.066037,0.026085,0.031607
878,0.012119,0.018615,-0.063561,0.0014,0.066686,0.027385,0.033556
879,0.013093,0.022512,-0.053168,0.00075039,0.058566,0.026085,0.03518
880,0.014392,0.027385,-0.044073,0.011794,0.048822,0.019264,0.033556
881,0.014392,0.031607,-0.04115,0.027709,0.0433,0.0088706,0.033556
882,0.017316,0.034206,-0.042774,0.035505,0.042001,-0.00054884,0.032582
883,0.020239,0.033881,-0.045697,0.032257,0.044599,-0.0054209,0.028684
884,0.021213,0.031607,-0.044073,0.023812,0.049796,-0.0034721,0.023487
885,0.020239,0.027385,-0.041475,0.013743,0.056617,0.0036737,0.018615
886,0.017965,0.025436,-0.040825,0.0033489,0.064413,0.01017,0.011469
887,0.014392,0.025436,-0.042124,-0.007045,0.071558,0.015692,0.0036737
888,0.011469,0.02706,-0.041475,-0.015165,0.072208,0.016666,-0.0011985
889,0.0095202,0.029983,-0.043099,-0.016789,0.062464,0.015042,-0.0047713
890,0.0091954,0.031607,-0.04927,-0.013541,0.048497,0.015692,-0.0099683
891,0.0072465,0.031607,-0.055116,-0.011267,0.038428,0.019914,-0.012567
892,0.003024,0.027385,-0.055441,-0.010618,0.037778,0.026085,-0.010293
893,-0.00022403,0.020564,-0.04862,-0.0093186,0.044275,0.030633,-0.0050961
894,0.00010078,0.011794,-0.039526,-0.0021729,0.050771,0.032582,-0.0028225
895,0.0052977,0.0046481,-0.029132,0.0078962,0.051745,0.029983,-0.0050961
896,0.013093,0.0033489,-0.01549,0.018615,0.044599,0.024461,-0.0099683
897,0.022188,0.0056225,-0.0028225,0.027709,0.033231,0.019914,-0.01614
898,0.030308,0.0072465,0.0056225,0.033231,0.022512,0.015692,-0.023285
899,0.03518,0.008221,0.010495,0.033881,0.016016,0.011144,-0.027833
900,0.036804,0.008221,0.012443,0.030633,0.010819,0.0085458,-0.028807
901,0.033881,0.008221,0.014717,0.025761,0.0052977,0.0091954,-0.022311
902,0.02706,0.009845,0.01894,0.026735,-0.0044465,0.015692,-0.013541
903,0.01764,0.011469,0.024786,0.032906,-0.013866,0.024461,-0.0073698
904,0.013093,0.012768,0.029983,0.043625,-0.018088,0.034206,-0.0047713
905,0.013093,0.011469,0.034206,0.054668,-0.015165,0.041351,-0.0024977
906,0.014068,0.010819,0.038103,0.059216,-0.008669,0.042651,-0.00054884
907,0.012443,0.014717,0.038428,0.060515,-0.0037969,0.037454,-0.00054884
908,0.0065969,0.025111,0.037778,0.059541,-0.0028225,0.02706,-0.0031473
909,0.00042559,0.037454,0.038753,0.058891,-0.010293,0.016666,-0.0041217
910,-0.0015233,0.045899,0.0433,0.061165,-0.023935,0.0065969,-0.00087364
911,0.0014,0.045899,0.05142,0.067336,-0.042124,-0.0037969,0.0075714
912,0.0072465,0.037129,0.062139,0.071558,-0.06551,-0.017439,0.01894
913,0.015042,0.022837,0.076106,0.072533,-0.089871,-0.029457,0.028359
914,0.024137,0.0085458,0.083901,0.070584,-0.10741,-0.036602,0.03453
915,0.029983,-0.0041217,0.080978,0.063763,-0.11098,-0.034978,0.034206
916,0.02641,-0.016789,0.074482,0.057592,-0.10156,-0.027833,0.032906
917,0.014392,-0.028807,0.071883,0.055643,-0.088572,-0.020687,0.032582
918,-0.0021729,-0.035953,0.07708,0.058241,-0.072656,-0.017439,0.028684
919,-0.019063,-0.034004,0.088773,0.062464,-0.057715,-0.019063,0.019589
920,-0.030756,-0.018738,0.10047,0.064413,-0.040825,-0.023285,0.0095202
921,-0.036927,0.0014,0.10631,0.065062,-0.023285,-0.023285,0.0026992
922,-0.035628,0.015692,0.10566,0.064737,-0.0073698,-0.020362,0.0020496
923,-0.030756,0.01894,0.10177,0.06961,0.0088706,-0.018088,0.0056225
924,-0.025884,0.013418,0.097543,0.080328,0.034206,-0.018413,0.011794
925,-0.019712,0.0052977,0.092021,0.089748,0.074157,-0.018088,0.018615
926,-0.01549,0.00042559,0.088773,0.091047,0.11995,-0.014191,0.020888
927,-0.011917,-0.00054884,0.087149,0.082277,0.15601,-0.007045,0.016341
928,-0.0099683,0.0017248,0.082602,0.067661,0.16998,0.0010752,0.012119
929,-0.0093186,0.0078962,0.072208,0.058566,0.16315,0.0078962,0.013418
930,-0.0099683,0.014717,0.057592,0.06019,0.14074,0.011144,0.022188
931,-0.010618,0.020564,0.045249,0.066686,0.10989,0.011469,0.030957
932,-0.013866,0.025111,0.036479,0.067336,0.075456,0.008221,0.036154
933,-0.018413,0.029983,0.030308,0.056617,0.038103,0.0010752,0.033231
934,-0.026209,0.033231,0.024461,0.042326,0.0020496,-0.007045,0.023812
935,-0.029132,0.032257,0.015042,0.031932,-0.025234,-0.012567,0.009845
936,-0.02426,0.028359,0.0043233,0.029983,-0.039851,-0.018413,-0.0034721
937,-0.012242,0.01829,-0.0060706,0.03453,-0.042449,-0.022636,-0.0096434
938,0.00010078,0.0069217,-0.011267,0.039727,-0.037252,-0.02361,-0.0073698
939,0.0062721,-0.00087364,-0.014191,0.037778,-0.029457,-0.021661,0.0017248
940,0.01017,0.00042559,-0.012567,0.027709,-0.021012,-0.018088,0.011469
941,0.013743,0.0065969,-0.0083442,0.014392,-0.014191,-0.012892,0.01829
942,0.019914,0.013418,-0.0031473,0.0020496,-0.012892,-0.0093186,0.021538
943,0.029983,0.022512,0.0014,-0.0093186,-0.020037,-0.0060706,0.021538
944,0.037778,0.034855,0.0036737,-0.014516,-0.03238,-0.0047713,0.017316
945,0.042975,0.050446,0.0020496,-0.010293,-0.041475,-0.0034721,0.010819
946,0.041027,0.065712,-0.0057458,-0.0067202,-0.04862,-0.0024977,0.0065969
947,0.037454,0.072858,-0.016789,-0.0099683,-0.062262,-0.0037969,0.0065969
948,0.03453,0.067661,-0.026858,-0.018413,-0.0824,-0.0047713,0.0065969
949,0.031607,0.054344,-0.034978,-0.029782,-0.10871,-0.007045,0.0078962
950,0.029658,0.042975,-0.042124,-0.041799,-0.13599,-0.010618,0.0069217
951,0.028034,0.041676,-0.046671,-0.050244,-0.15548,-0.013866,0.0023744
952,0.025111,0.047523,-0.052518,-0.052193,-0.15873,-0.016789,-0.0041217
953,0.02706,0.05272,-0.054792,-0.041799,-0.13827,-0.01614,-0.0096434
954,0.033881,0.051096,-0.054792,-0.021012,-0.089221,-0.010293,-0.0063954
955,0.044599,0.042975,-0.052843,-0.0015233,-0.017764,-0.00087364,0.0059473
956,0.055318,0.034206,-0.049595,0.0065969,0.065712,0.0088706,0.023812
957,0.062464,0.032582,-0.046022,0.0046481,0.14302,0.016666,0.042001
958,0.062789,0.038428,-0.041799,-0.0041217,0.19791,0.022512,0.051745
959,0.057592,0.045249,-0.040175,-0.017439,0.22162,0.02641,0.048172
960,0.048822,0.044924,-0.044723,-0.026533,0.2096,0.028359,0.037454
961,0.038753,0.037778,-0.054792,-0.030756,0.16998,0.024137,0.026735
962,0.028359,0.031282,-0.068434,-0.033679,0.11768,0.016991,0.021213
963,0.015042,0.031932,-0.078827,-0.040175,0.069934,0.013093,0.01764
964,0.003024,0.035505,-0.078178,-0.046996,0.042975,0.014068,0.016341
965,-0.0031473,0.037129,-0.068434,-0.047646,0.041676,0.017965,0.018615
966,-0.0021729,0.034206,-0.056416,-0.043748,0.054344,0.025111,0.025111
967,0.0010752,0.028034,-0.051544,-0.042774,0.071234,0.032257,0.036479
968,0.0052977,0.020564,-0.056741,-0.048296,0.079354,0.038428,0.049472
969,0.011469,0.014068,-0.069733,-0.055116,0.067986,0.038753,0.059216
970,0.019589,0.0062721,-0.080776,-0.056741,0.03583,0.03518,0.061814
971,0.023812,-0.0018481,-0.08305,-0.056091,-0.007045,0.030633,0.057592
972,0.023487,-0.0099683,-0.076554,-0.050244,-0.046996,0.02641,0.053694
973,0.01829,-0.015815,-0.06616,-0.038227,-0.073306,0.023487,0.05272
974,0.010495,-0.016464,-0.053168,-0.020037,-0.076229,0.021213,0.054993
975,0.0062721,-0.012242,-0.040825,0.00075039,-0.060963,0.019264,0.059216
976,0.0069217,-0.0076946,-0.030106,0.018615,-0.036602,0.016016,0.058241
977,0.01017,-0.0047713,-0.017439,0.031932,-0.015815,0.015692,0.051745
978,0.016016,-0.0047713,-0.0034721,0.038753,-0.0047713,0.016016,0.041676
979,0.023487,-0.0011985,0.0088706,0.040702,-0.0063954,0.016666,0.03453
980,0.032257,0.0091954,0.016991,0.039402,-0.020362,0.015367,0.03453
981,0.036154,0.025111,0.019264,0.039402,-0.0405,0.015042,0.034206
982,0.031932,0.039402,0.016341,0.041351,-0.057715,0.012119,0.030957
983,0.018615,0.045574,0.0091954,0.042975,-0.06681,0.011794,0.02706
984,0.0059473,0.041027,0.0017248,0.046223,-0.070382,0.012443,0.024461
985,0.0023744,0.030957,-0.0015233,0.049472,-0.067134,0.014717,0.021213
986,0.0085458,0.023812,0.0033489,0.048172,-0.056416,0.019914,0.01764
987,0.024137,0.019589,0.018615,0.041027,-0.040825,0.025111,0.014717
988,0.042001,0.017316,0.039402,0.033881,-0.025884,0.028359,0.013093
989,0.056292,0.016341,0.06019,0.035505,-0.013866,0.027385,0.008221
990,0.063763,0.013418,0.075456,0.044275,-0.0083442,0.025436,-0.00054884
991,0.064088,0.0085458,0.082602,0.056617,-0.007045,0.025761,-0.007045
992,0.055318,0.0033489,0.083251,0.067986,-0.010943,0.027709,-0.0099683
993,0.042651,0.0020496,0.078055,0.07708,-0.022636,0.029009,-0.010618
994,0.030308,0.0039985,0.070259,0.082277,-0.036927,0.02641,-0.011592
995,0.019264,0.0075714,0.064088,0.081303,-0.051544,0.019914,-0.014516
996,0.010819,0.010495,0.064088,0.073507,-0.06551,0.014068,-0.01484
997,0.0069217,0.012443,0.06961,0.057917,-0.075255,0.011144,-0.013866
998,0.0065969,0.012119,0.078055,0.037778,-0.076554,0.010495,-0.012567
999,0.0078962,0.01017,0.085525,0.021213,-0.069408,0.011794,-0.013216
1000,0.0078962,0.0085458,0.091696,0.013743,-0.056416,0.011794,-0.017439
1001,0.0065969,0.0059473,0.09397,0.018615,-0.038551,0.009845,-0.020362
1002,0.0039985,0.0046481,0.094945,0.032257,-0.019388,0.0072465,-0.019388
1003,0.0039985,0.0039985,0.095594,0.047523,-0.0028225,0.0062721,-0.015815
1004,0.0036737,0.0014,0.095594,0.06019,0.008221,0.0075714,-0.013541
1005,0.0017248,-0.0021729,0.091372,0.066686,0.011144,0.008221,-0.016789
1006,-0.0011985,-0.0057458,0.083901,0.064088,0.010495,0.01017,-0.023935
1007,-0.0011985,-0.011917,0.078704,0.054019,0.0072465,0.013093,-0.028482
1008,0.0020496,-0.016789,0.075781,0.043625,0.0069217,0.016016,-0.030431
1009,0.0075714,-0.013216,0.078379,0.038103,0.01017,0.01764,-0.029132
1010,0.011794,-0.0015233,0.085525,0.042001,0.015042,0.01764,-0.025234
1011,0.013093,0.011144,0.093321,0.050121,0.016991,0.01764,-0.019388
1012,0.012768,0.016016,0.097868,0.053369,0.014068,0.017316,-0.012892
1013,0.01017,0.015692,0.097218,0.047847,0.0075714,0.016016,-0.0060706
1014,0.0052977,0.014392,0.090722,0.036154,-0.0024977,0.012768,0.0014
1015,0.00042559,0.015692,0.078055,0.02706,-0.014191,0.0049729,0.0039985
1016,-0.0031473,0.018615,0.063113,0.022837,-0.022311,-0.0024977,0.0017248
1017,-0.0015233,0.022837,0.051096,0.023162,-0.023935,-0.0060706,-0.0044465
1018,0.0043233,0.023487,0.045249,0.02706,-0.018413,-0.0054209,-0.0083442
1019,0.015042,0.020888,0.048172,0.030957,-0.007045,-0.0031473,-0.0093186
1020,0.025111,0.020888,0.055968,0.030633,0.010495,0.00010078,-0.0076946
1021,0.030633,0.025761,0.06084,0.028034,0.030957,0.0036737,-0.0021729
1022,0.030957,0.030957,0.056292,0.024786,0.051745,0.0072465,0.0091954
1023,0.029333,0.031607,0.040377,0.019914,0.066686,0.0095202,0.023162
1024,0.027385,0.027709,0.01894,0.011144,0.071883,0.0091954,0.037129
1025,0.022512,0.024786,-0.0041217,-0.0028225,0.067011,0.0085458,0.045574
1026,0.015692,0.023487,-0.02426,-0.018738,0.053694,0.0062721,0.041676
1027,0.011794,0.023812,-0.037252,-0.022961,0.041027,0.0017248,0.026735
1028,0.0085458,0.023812,-0.041475,-0.015165,0.036154,-0.0057458,0.0062721
1029,0.0056225,0.02641,-0.039201,-0.0037969,0.040377,-0.012242,-0.011592
1030,0.0043233,0.029333,-0.031406,0.0059473,0.044275,-0.015165,-0.017764
1031,0.0052977,0.031932,-0.022961,0.009845,0.047198,-0.013866,-0.0093186
1032,0.0062721,0.034855,-0.018088,0.0072465,0.045899,-0.0099683,0.01017
1033,0.0049729,0.037129,-0.018738,0.00010078,0.040377,-0.0054209,0.030957
1034,0.0017248,0.036479,-0.022961,-0.0073698,0.031282,-0.0034721,0.047523
1035,0.00010078,0.033881,-0.028807,-0.0080194,0.025761,-0.0073698,0.053044
1036,0.0014,0.031932,-0.029132,-0.0067202,0.023812,-0.016789,0.048172
1037,0.0052977,0.032257,-0.024909,-0.0067202,0.022837,-0.025884,0.036479
1038,0.010819,0.031932,-0.019712,-0.0096434,0.023812,-0.033679,0.025436
1039,0.015042,0.030633,-0.021661,-0.017764,0.026085,-0.037902,0.020239
1040,0.016016,0.029333,-0.034654,-0.028157,0.031607,-0.034329,0.020888
1041,0.012119,0.028359,-0.052843,-0.035953,0.041676,-0.023935,0.024137
1042,0.0062721,0.028034,-0.068434,-0.034329,0.05207,-0.013541,0.026735
1043,0.0014,0.028684,-0.079152,-0.023935,0.061814,-0.0067202,0.028359
1044,0.0010752,0.030308,-0.0824,-0.010943,0.067661,-0.0057458,0.030633
1045,0.0036737,0.032257,-0.079477,-0.00022403,0.067661,-0.0096434,0.03518
1046,0.008221,0.030957,-0.077203,0.0085458,0.066037,-0.011917,0.042326
1047,0.010495,0.029333,-0.073631,0.012768,0.061814,-0.012242,0.05207
1048,0.0095202,0.029333,-0.067134,0.0072465,0.056942,-0.012242,0.059541
1049,0.0088706,0.030957,-0.056091,-0.0057458,0.05142,-0.01484,0.058891
1050,0.0085458,0.033231,-0.045372,-0.018738,0.047523,-0.019063,0.054993
1051,0.010495,0.036479,-0.038551,-0.025559,0.042975,-0.02361,0.05207
1052,0.012443,0.037778,-0.036602,-0.019063,0.036154,-0.026858,0.054668
1053,0.014068,0.040052,-0.036927,-0.0063954,0.024137,-0.026533,0.061165
1054,0.017316,0.041351,-0.037577,0.0010752,0.013093,-0.024909,0.062464
1055,0.020239,0.042975,-0.037252,0.0023744,0.0088706,-0.020687,0.057592
1056,0.021863,0.048172,-0.034329,0.0033489,0.012768,-0.014191,0.05142
1057,0.023487,0.054993,-0.029132,0.0095202,0.01829,-0.011267,0.049147
1058,0.023812,0.061165,-0.021986,0.021863,0.022188,-0.012242,0.05207
1059,0.021863,0.062464,-0.013541,0.038103,0.023487,-0.013541,0.054668
1060,0.016991,0.055643,-0.0041217,0.053694,0.021538,-0.0093186,0.053369
1061,0.014717,0.038103,0.0033489,0.068635,0.021213,0.00075039,0.049472
1062,0.01829,0.01764,0.0085458,0.080978,0.023162,0.013093,0.042326
1063,0.023812,0.0023744,0.010495,0.088124,0.021538,0.019264,0.029658
1064,0.024461,-0.0047713,0.011469,0.089098,0.012768,0.01894,0.013418
1065,0.015692,-0.0031473,0.014068,0.079679,-0.0041217,0.013093,0.00010078
1066,0.0017248,0.0036737,0.01829,0.058891,-0.020687,0.0033489,-0.0041217
1067,-0.0096434,0.010819,0.022188,0.037778,-0.028157,-0.0067202,-0.0011985
1068,-0.015165,0.016341,0.027385,0.023487,-0.025884,-0.013541,0.00042559
1069,-0.013541,0.01829,0.035505,0.01894,-0.021986,-0.01614,-0.0024977
1070,-0.0089938,0.016016,0.046223,0.022512,-0.022636,-0.01549,-0.0080194
1071,-0.0041217,0.011794,0.056942,0.031282,-0.029132,-0.01549,-0.010293
1072,-0.00054884,0.01017,0.063113,0.039727,-0.037577,-0.017439,-0.0067202
1073,-0.00087364,0.011144,0.066686,0.046548,-0.043099,-0.020687,0.0020496
1074,-0.0047713,0.012443,0.070584,0.053694,-0.042774,-0.02426,0.0095202
1075,-0.010618,0.01017,0.074806,0.059541,-0.038551,-0.025234,0.01017
1076,-0.015815,0.0043233,0.07708,0.064088,-0.034329,-0.020687,0.0075714
1077,-0.017764,-0.0037969,0.07708,0.066037,-0.03173,-0.015165,0.0069217
1078,-0.016789,-0.0093186,0.074157,0.065712,-0.030106,-0.0096434,0.0091954
1079,-0.012567,-0.010618,0.06961,0.065712,-0.031406,-0.0060706,0.012443
1080,-0.0067202,-0.0096434,0.067336,0.062139,-0.031406,-0.0057458,0.013093
1081,0.00042559,-0.010293,0.067661,0.057267,-0.027508,-0.0073698,0.013093
1082,0.0078962,-0.011267,0.06896,0.054993,-0.020362,-0.0060706,0.014392
1083,0.013093,-0.013866,0.066362,0.054344,-0.014516,-0.00054884,0.014717
1084,0.014717,-0.016464,0.061489,0.052395,-0.013866,0.0052977,0.015042
1085,0.014392,-0.019063,0.059865,0.045249,-0.021337,0.0069217,0.016341
1086,0.015367,-0.019388,0.061489,0.037778,-0.03303,0.0023744,0.016666
1087,0.015367,-0.01549,0.065712,0.033231,-0.040825,-0.0054209,0.016016
1088,0.017965,-0.012242,0.067011,0.03583,-0.040175,-0.013541,0.019264
1089,0.021538,-0.0096434,0.066362,0.045249,-0.037577,-0.017439,0.027385
1090,0.022188,-0.0099683,0.062789,0.05142,-0.032705,-0.01484,0.034855
1091,0.019589,-0.011267,0.055968,0.047847,-0.024909,-0.0063954,0.037778
1092,0.014068,-0.0099683,0.048172,0.036479,-0.018088,0.0046481,0.036804
1093,0.0078962,-0.0076946,0.040702,0.027385,-0.013866,0.014068,0.032582
1094,0.0036737,-0.0050961,0.031607,0.028359,-0.013541,0.019264,0.023487
1095,0.0026992,-0.0037969,0.021863,0.036479,-0.019063,0.019264,0.013418
1096,0.0033489,-0.0031473,0.016016,0.042651,-0.026533,0.014068,0.0056225
1097,0.0059473,-0.0028225,0.015692,0.04395,-0.03173,0.010495,0.0014
1098,0.0095202,-0.00022403,0.019914,0.041676,-0.035628,0.010819,0.00010078
1099,0.016341,0.0059473,0.020888,0.036804,-0.037577,0.013418,0.00010078
1100,0.028359,0.012443,0.014068,0.029333,-0.039526,0.017316,0.00075039
1101,0.036479,0.013743,0.00042559,0.019264,-0.038876,0.020239,0.0033489
1102,0.036154,0.011469,-0.015815,0.0078962,-0.034654,0.021863,0.0059473
1103,0.031607,0.010819,-0.029457,-0.00087364,-0.027183,0.017965,0.003024
1104,0.022837,0.016341,-0.036927,-0.0024977,-0.018738,0.013418,-0.0031473
1105,0.013093,0.02641,-0.039526,0.0026992,-0.013541,0.010495,-0.007045
1106,0.0014,0.03583,-0.038551,0.011469,-0.013216,0.010495,-0.0063954
1107,-0.0080194,0.041676,-0.033679,0.013743,-0.015815,0.010495,-0.0054209
1108,-0.011917,0.044275,-0.029457,0.0049729,-0.018088,0.0095202,-0.0073698
1109,-0.011267,0.046223,-0.029782,-0.0080194,-0.01549,0.011794,-0.012242
1110,-0.0057458,0.044275,-0.035303,-0.01549,-0.0076946,0.01894,-0.018088
1111,0.0026992,0.043625,-0.046996,-0.013541,0.0010752,0.031282,-0.022961
1112,0.0088706,0.0433,-0.059989,-0.0057458,0.0043233,0.043625,-0.027508
1113,0.014717,0.041351,-0.070058,0.0039985,0.0026992,0.05142,-0.032055
1114,0.018615,0.036479,-0.073631,0.010819,-0.0024977,0.051096,-0.038551
1115,0.021863,0.033881,-0.071032,0.015367,-0.0057458,0.0433,-0.042774
1116,0.027385,0.036804,-0.064861,0.013418,-0.0093186,0.033556,-0.039201
1117,0.03518,0.038428,-0.061613,0.003024,-0.010943,0.025761,-0.026533
1118,0.042651,0.037778,-0.064211,-0.0080194,-0.011917,0.024137,-0.0076946
1119,0.045249,0.032257,-0.072331,-0.015165,-0.0096434,0.028684,0.0091954
1120,0.039727,0.023812,-0.076879,-0.020037,-0.007045,0.033881,0.01764
1121,0.030633,0.017316,-0.077203,-0.022311,-0.0063954,0.03583,0.01829
1122,0.021213,0.019589,-0.073631,-0.020037,-0.010618,0.036154,0.014392
1123,0.016016,0.030633,-0.072656,-0.014516,-0.017439,0.03453,0.0091954
1124,0.015692,0.042001,-0.075255,-0.0083442,-0.021337,0.03453,0.0075714
1125,0.019589,0.046548,-0.076879,-0.0018481,-0.019712,0.036804,0.011794
1126,0.023162,0.045574,-0.076229,0.0056225,-0.012892,0.037778,0.01764
1127,0.025761,0.044924,-0.071682,0.0085458,-0.0050961,0.037129,0.019914
1128,0.029009,0.046873,-0.061613,0.003024,0.00010078,0.037129,0.012119
1129,0.031282,0.050121,-0.046347,-0.0041217,0.0062721,0.039078,-0.00087364
1130,0.031282,0.05207,-0.027833,-0.007045,0.016341,0.042326,-0.0073698
1131,0.032582,0.053369,-0.0093186,-0.0037969,0.026085,0.042975,-0.0067202
1132,0.036804,0.053694,0.0043233,0.00010078,0.028034,0.040052,-0.00054884
1133,0.044275,0.054019,0.01017,-0.0031473,0.022837,0.036804,0.0085458
1134,0.047847,0.051745,0.008221,-0.014191,0.016991,0.036479,0.018615
1135,0.044599,0.048172,0.0026992,-0.026209,0.015367,0.038753,0.027385
1136,0.03583,0.042326,-0.0041217,-0.028157,0.023812,0.041676,0.032582
1137,0.026735,0.03583,-0.0093186,-0.020687,0.034855,0.041676,0.031282
1138,0.018615,0.028684,-0.010618,-0.0096434,0.041027,0.036154,0.027709
1139,0.013093,0.024461,-0.0034721,0.0017248,0.038753,0.030308,0.026085
1140,0.012119,0.024461,0.012443,0.013093,0.026735,0.025111,0.024786
1141,0.015692,0.02641,0.031932,0.020239,0.0088706,0.022837,0.021538
1142,0.01894,0.027385,0.049796,0.02641,-0.0080194,0.019589,0.019264
1143,0.01894,0.025761,0.062789,0.033556,-0.022311,0.015367,0.01894
1144,0.01764,0.022188,0.070584,0.042651,-0.034329,0.009845,0.01894
1145,0.01829,0.017965,0.069934,0.050771,-0.042124,0.0059473,0.01764
1146,0.019914,0.010819,0.063438,0.056292,-0.045372,0.0036737,0.014392
1147,0.020564,0.0043233,0.054668,0.058566,-0.041475,0.0046481,0.01017
1148,0.020888,0.00075039,0.049796,0.059216,-0.03238,0.0065969,0.009845
1149,0.019914,0.0020496,0.054019,0.059541,-0.022311,0.0091954,0.015367
1150,0.020239,0.0069217,0.065062,0.057592,-0.012242,0.009845,0.021863
1151,0.025111,0.014717,0.07708,0.053044,-0.0054209,0.0072465,0.024137
1152,0.033231,0.021538,0.086824,0.049147,-0.0018481,0.0014,0.022512
1153,0.040052,0.022837,0.092346,0.049147,-0.0028225,-0.0067202,0.019589
1154,0.042651,0.016341,0.096569,0.050121,-0.0057458,-0.015815,0.016016
1155,0.040052,0.0059473,0.10047,0.049147,-0.010293,-0.026209,0.013743
1156,0.034206,-0.0031473,0.10306,0.044924,-0.01484,-0.036278,0.014068
1157,0.027709,-0.0067202,0.10566,0.040377,-0.017114,-0.042449,0.01764
1158,0.022188,-0.0028225,0.10794,0.040702,-0.019388,-0.043099,0.022512
1159,0.017316,0.0078962,0.10826,0.045899,-0.02361,-0.037252,0.02706
1160,0.014717,0.018615,0.10924,0.051745,-0.027833,-0.030431,0.027709
1161,0.016016,0.022188,0.10566,0.054019,-0.026209,-0.030431,0.025436
1162,0.016666,0.019589,0.099817,0.050446,-0.020037,-0.033679,0.021538
1163,0.012443,0.014392,0.094295,0.044275,-0.016464,-0.035628,0.016991
1164,0.0075714,0.009845,0.090722,0.039078,-0.017764,-0.03173,0.010495
1165,0.0065969,0.009845,0.090072,0.036154,-0.017764,-0.02426,0.0017248
1166,0.0069217,0.015042,0.091696,0.032906,-0.016464,-0.015815,-0.0047713
1167,0.0065969,0.020564,0.092021,0.029333,-0.016789,-0.0093186,-0.0057458
1168,0.0059473,0.022837,0.089423,0.024137,-0.022311,-0.0060706,-0.0041217
1169,0.0062721,0.018615,0.081952,0.020239,-0.03303,-0.0083442,-0.0031473
1170,0.0043233,0.012443,0.072208,0.018615,-0.042449,-0.010293,-0.0015233
1171,-0.0021729,0.0075714,0.062789,0.021863,-0.046996,-0.010293,0.00010078
1172,-0.012242,0.0056225,0.052395,0.030633,-0.045372,-0.0089938,0.0036737
1173,-0.019063,0.0095202,0.038428,0.038428,-0.043748,-0.0047713,0.0069217
1174,-0.018413,0.016016,0.025111,0.041676,-0.046022,0.0023744,0.0069217
1175,-0.0093186,0.021538,0.015367,0.03518,-0.054467,0.01017,-0.00022403
1176,0.0046481,0.025436,0.013418,0.023812,-0.072331,0.018615,-0.015165
1177,0.016991,0.024786,0.016341,0.014392,-0.094418,0.025111,-0.031406
1178,0.024137,0.018615,0.019914,0.010495,-0.10903,0.027385,-0.036602
1179,0.028359,0.0075714,0.021213,0.009845,-0.10968,0.024786,-0.026533
1180,0.029009,0.00042559,0.024137,0.003024,-0.091495,0.019264,-0.0089938
1181,0.028684,0.0026992,0.02706,-0.008669,-0.056741,0.013093,0.008221
1182,0.025436,0.012119,0.025436,-0.02426,-0.011917,0.0059473,0.013418
1183,0.021213,0.022188,0.017965,-0.036927,0.039402,-0.0018481,0.0069217
1184,0.021863,0.029658,0.0091954,-0.044073,0.089098,-0.0050961,-0.007045
1185,0.026085,0.032582,0.0014,-0.043423,0.13555,-0.0044465,-0.018738
1186,0.030308,0.030308,-0.0054209,-0.037902,0.18004,0.0017248,-0.023935
1187,0.031607,0.022837,-0.012242,-0.029457,0.22682,0.0085458,-0.019063
1188,0.029658,0.014717,-0.01614,-0.021337,0.27749,0.011794,-0.0096434
1189,0.024786,0.010495,-0.016464,-0.015165,0.32946,0.0078962,0.0026992
1190,0.01829,0.011794,-0.016464,-0.012892,0.3772,-0.00022403,0.014717
1191,0.0091954,0.015367,-0.017764,-0.0096434,0.41358,-0.0080194,0.024461
1192,-0.0021729,0.01764,-0.018738,-0.0054209,0.42982,-0.012242,0.029333
1193,-0.014516,0.016666,-0.022636,-0.00054884,0.423,-0.011267,0.029009
1194,-0.020687,0.012443,-0.027833,0.00042559,0.39247,-0.008669,0.027709
1195,-0.021661,0.0088706,-0.033354,-0.0034721,0.34732,-0.007045,0.025761
1196,-0.018738,0.0095202,-0.039201,-0.011592,0.29957,-0.0050961,0.025436
1197,-0.011917,0.014068,-0.044723,-0.019712,0.25378,-0.00054884,0.026085
1198,-0.0054209,0.019264,-0.04992,-0.025884,0.2148,0.003024,0.024461
1199,-0.00022403,0.019914,-0.055441,-0.026533,0.17972,0.003024,0.025436
1200,-0.0018481,0.012768,-0.059664,-0.022311,0.15146,-0.0018481,0.027709
1201,-0.0080194,0.00042559,-0.062912,-0.012567,0.13522,-0.0067202,0.030633
1202,-0.015165,-0.0080194,-0.064861,0.00042559,0.12743,-0.0063954,0.03453
1203,-0.018088,-0.010293,-0.066485,0.011144,0.11995,-0.0037969,0.039078
1204,-0.013541,-0.0054209,-0.067134,0.016991,0.10306,-0.0015233,0.044924
1205,-0.0021729,0.003024,-0.06616,0.01894,0.07773,-0.00087364,0.049147
1206,0.013418,0.01017,-0.062912,0.01894,0.054993,-0.0024977,0.051745
1207,0.022837,0.012119,-0.059339,0.019264,0.033881,-0.0054209,0.05142
1208,0.022512,0.012443,-0.054467,0.019589,0.0095202,-0.0067202,0.049472
1209,0.013743,0.016016,-0.048296,0.020564,-0.020037,-0.0080194,0.05142
1210,0.003024,0.027385,-0.043748,0.024786,-0.053168,-0.010943,0.053044
1211,-0.0063954,0.042651,-0.040825,0.029983,-0.086623,-0.015815,0.054993
1212,-0.0096434,0.059216,-0.038551,0.035505,-0.11845,-0.020037,0.057592
1213,-0.007045,0.070259,-0.034978,0.041351,-0.14736,-0.020362,0.059216
1214,0.0014,0.072858,-0.031081,0.047523,-0.17465,-0.020362,0.06084
1215,0.010495,0.067986,-0.022961,0.048172,-0.20323,-0.020687,0.063113
1216,0.013418,0.057267,-0.012242,0.043625,-0.22856,-0.020687,0.062789
1217,0.010495,0.04395,-0.0021729,0.037778,-0.24578,-0.017764,0.058566
1218,0.0039985,0.031282,0.0065969,0.036804,-0.25033,-0.012567,0.053694
1219,-0.0021729,0.023162,0.011794,0.040702,-0.23863,-0.0096434,0.049147
1220,-0.0067202,0.016341,0.013418,0.044275,-0.21882,-0.0096434,0.046873
1221,-0.0089938,0.0088706,0.013093,0.044275,-0.20031,-0.012242,0.045574
1222,-0.011592,0.0010752,0.016341,0.039402,-0.18796,-0.011267,0.045249
1223,-0.013866,-0.0011985,0.023487,0.034206,-0.18536,-0.0089938,0.045574
1224,-0.013866,0.00010078,0.030633,0.032906,-0.18894,-0.0037969,0.04395
1225,-0.0080194,0.0039985,0.037454,0.03583,-0.19186,0.0046481,0.037129
1226,0.0020496,0.011144,0.042326,0.042326,-0.19089,0.012119,0.024786
1227,0.013093,0.019589,0.045574,0.047198,-0.18861,0.016341,0.012443
1228,0.021213,0.028034,0.048172,0.044924,-0.18634,0.019264,0.0020496
1229,0.023487,0.034206,0.049472,0.037778,-0.17984,0.021863,-0.0067202
1230,0.020888,0.033556,0.052395,0.032906,-0.16588,0.02641,-0.014516
1231,0.01829,0.026085,0.054668,0.036154,-0.13859,0.031932,-0.020037
1232,0.021863,0.016341,0.056292,0.045574,-0.093444,0.036804,-0.019388
1233,0.030308,0.008221,0.056292,0.057267,-0.028482,0.038428,-0.015165
1234,0.039078,0.0046481,0.055318,0.065062,0.046873,0.030957,-0.010293
1235,0.045249,0.0062721,0.051745,0.066686,0.11411,0.016341,-0.0083442
1236,0.044924,0.010495,0.045899,0.062789,0.15341,0.0010752,-0.0083442
1237,0.041027,0.014068,0.043625,0.056942,0.15341,-0.0067202,-0.0096434
1238,0.033881,0.014068,0.048172,0.05272,0.12158,-0.010293,-0.010618
1239,0.029009,0.009845,0.060515,0.050121,0.073182,-0.0073698,-0.011917
1240,0.031282,0.0026992,0.075456,0.048172,0.025111,-0.0021729,-0.015165
1241,0.039078,-0.0018481,0.08585,0.045249,-0.0096434,-0.00054884,-0.01484
1242,0.043625,-0.00054884,0.088773,0.038753,-0.024585,-0.0050961,-0.0080194
1243,0.040702,0.008221,0.083251,0.031282,-0.02361,-0.013216,0.0046481
1244,0.031607,0.020239,0.071558,0.024786,-0.01614,-0.021986,0.016016
1245,0.024137,0.032906,0.058566,0.02641,-0.010618,-0.026533,0.020888
1246,0.020239,0.041351,0.054993,0.03518,-0.011267,-0.026858,0.016341
1247,0.016991,0.044924,0.059216,0.043625,-0.018738,-0.021661,0.0059473
1248,0.012768,0.044924,0.065387,0.048822,-0.03173,-0.013866,-0.0044465
1249,0.0056225,0.042326,0.071234,0.051745,-0.044398,-0.0060706,-0.011917
1250,-0.0024977,0.034206,0.072533,0.052395,-0.052193,-0.0024977,-0.012242
1251,-0.010618,0.023162,0.06896,0.047523,-0.058689,-0.0037969,-0.0076946
1252,-0.012567,0.012768,0.063113,0.039078,-0.062262,-0.0063954,-0.0021729
1253,-0.0080194,0.0085458,0.056292,0.027709,-0.062262,-0.0067202,-0.00054884
1254,0.00010078,0.014392,0.053369,0.016666,-0.062262,-0.0015233,-0.0011985
1255,0.0072465,0.022512,0.051096,0.010495,-0.06681,0.0069217,0.00075039
1256,0.012119,0.025436,0.046223,0.010495,-0.07428,0.015692,0.0046481
1257,0.014392,0.023487,0.036479,0.012443,-0.084674,0.021213,0.010819
1258,0.014717,0.019914,0.02641,0.015042,-0.088247,0.024137,0.015692
1259,0.015692,0.014392,0.013743,0.019589,-0.077203,0.024786,0.020888
1260,0.014068,0.010495,-0.00054884,0.024786,-0.055116,0.024137,0.02706
1261,0.010495,0.0095202,-0.012567,0.027385,-0.031406,0.021213,0.033231
1262,0.0088706,0.010495,-0.019388,0.026085,-0.010618,0.016016,0.042651
1263,0.009845,0.011794,-0.020687,0.020564,0.0072465,0.0095202,0.05142
1264,0.014717,0.011469,-0.018738,0.015042,0.01829,0.0043233,0.056617
1265,0.018615,0.01017,-0.015165,0.014717,0.020888,0.0026992,0.053694
1266,0.020239,0.010495,-0.010943,0.021213,0.014392,0.0062721,0.041351
1267,0.018615,0.013093,-0.008669,0.02706,0.00075039,0.012119,0.025111
1268,0.017316,0.014717,-0.010943,0.027709,-0.010943,0.019914,0.0091954
1269,0.013093,0.012443,-0.016789,0.023487,-0.012242,0.028684,-0.0044465
1270,0.0095202,0.0085458,-0.024909,0.01829,-0.00087364,0.035505,-0.0054209
1271,0.0072465,0.0052977,-0.033354,0.011794,0.014717,0.041027,0.0062721
1272,0.0069217,0.0056225,-0.042774,0.0036737,0.02641,0.042975,0.024786
1273,0.0033489,0.01017,-0.050894,-0.0060706,0.030633,0.042001,0.038103
1274,-0.0060706,0.016341,-0.058365,-0.012892,0.028034,0.039402,0.044599
1275,-0.017114,0.019589,-0.068109,-0.019063,0.024461,0.035505,0.049472
1276,-0.023935,0.022512,-0.080776,-0.025234,0.022512,0.029009,0.05272
1277,-0.022636,0.02641,-0.094743,-0.030431,0.020888,0.023162,0.055968
1278,-0.011917,0.030633,-0.10514,-0.033679,0.020888,0.021538,0.056292
1279,0.0039985,0.030633,-0.10579,-0.03173,0.025436,0.024137,0.054993
1280,0.01894,0.026085,-0.098316,-0.022311,0.030957,0.028034,0.048172
1281,0.029983,0.017965,-0.089221,-0.010943,0.03583,0.030308,0.035505
1282,0.040377,0.0085458,-0.0824,0.00075039,0.041676,0.029333,0.021213
1283,0.048822,0.0026992,-0.077528,0.0085458,0.047198,0.02641,0.009845
1284,0.048822,0.00042559,-0.07428,0.012443,0.050771,0.022837,0.0039985
1285,0.043625,0.0036737,-0.075255,0.012119,0.047523,0.019264,0.0014
1286,0.03453,0.0062721,-0.075904,0.0065969,0.037778,0.016666,-0.0021729
1287,0.02641,0.0062721,-0.074605,-0.0015233,0.024137,0.011144,-0.0060706
1288,0.021863,0.003024,-0.067134,-0.007045,0.016341,0.0059473,-0.0089938
1289,0.023162,-0.00054884,-0.056741,-0.0067202,0.016991,0.0033489,-0.0063954
1290,0.023487,-0.0015233,-0.046671,-0.0018481,0.024137,0.00075039,0.0036737
1291,0.021863,-0.0021729,-0.037252,0.0049729,0.030957,-0.0031473,0.016341
1292,0.01894,-0.0015233,-0.03173,0.013743,0.031932,-0.0080194,0.019589
1293,0.01764,-0.00022403,-0.029782,0.025436,0.025111,-0.010618,0.0095202
1294,0.019264,0.0039985,-0.033679,0.033556,0.01894,-0.010618,-0.0080194
1295,0.023487,0.011469,-0.038227,0.03583,0.014717,-0.007045,-0.024909
1296,0.024786,0.017965,-0.042124,0.029658,0.010495,-0.0015233,-0.034329
1297,0.025436,0.020239,-0.043423,0.020564,0.0088706,0.0049729,-0.035303
1298,0.026085,0.016666,-0.040825,0.008221,0.011144,0.011144,-0.025884
1299,0.025761,0.011144,-0.034978,-0.0024977,0.016341,0.016016,-0.0093186
1300,0.019264,0.012443,-0.025234,-0.007045,0.019264,0.01894,0.0088706
1301,0.0095202,0.019264,-0.012242,-0.0034721,0.017965,0.019264,0.019264
1302,0.0033489,0.023812,0.0036737,0.0062721,0.0091954,0.01894,0.022512
1303,0.0023744,0.022837,0.020564,0.019589,-0.0011985,0.019264,0.020564
1304,0.0026992,0.015692,0.036804,0.032582,-0.0060706,0.017316,0.018615
1305,0.0039985,0.0062721,0.050771,0.039078,-0.0031473,0.012768,0.01829
1306,0.0036737,0.003024,0.062139,0.037454,0.0069217,0.010495,0.021213
1307,0.0036737,0.0075714,0.070259,0.031607,0.01829,0.010495,0.022188
1308,0.0017248,0.015692,0.076755,0.030633,0.028359,0.013743,0.013418
1309,-0.00054884,0.021863,0.080978,0.036804,0.032582,0.019264,0.00042559
1310,-0.0050961,0.025111,0.080978,0.044599,0.029333,0.024137,-0.0054209
1311,-0.0083442,0.030308,0.076106,0.046548,0.020239,0.025111,-0.00087364
1312,-0.0083442,0.039078,0.071883,0.0433,0.012119,0.021213,0.0078962
1313,-0.0060706,0.047198,0.067661,0.040377,0.0088706,0.014068,0.011469
1314,-0.0021729,0.053694,0.066362,0.039727,0.010819,0.0065969,0.0069217
1315,0.00075039,0.058241,0.068635,0.040377,0.016016,0.00042559,-0.0024977
1316,0.0056225,0.057267,0.07708,0.039727,0.024137,-0.0011985,-0.0093186
1317,0.015042,0.05207,0.087799,0.036804,0.034206,0.00042559,-0.011592
1318,0.026735,0.045574,0.095269,0.032582,0.040377,0.0069217,-0.010618
1319,0.039727,0.037778,0.099167,0.031932,0.040702,0.013418,-0.008669
1320,0.050121,0.028034,0.096244,0.038103,0.03518,0.016666,-0.0037969
1321,0.053369,0.01829,0.091047,0.046873,0.026735,0.018615,0.0039985
1322,0.049147,0.011469,0.0865,0.055968,0.016991,0.017965,0.016666
1323,0.039078,0.0085458,0.084876,0.063763,0.010495,0.019589,0.029333
1324,0.027709,0.0072465,0.08585,0.066037,0.008221,0.020239,0.038428
1325,0.01829,0.0078962,0.090722,0.061814,0.0062721,0.01829,0.041351
1326,0.012768,0.009845,0.094295,0.055968,0.0026992,0.013418,0.037129
1327,0.0085458,0.016666,0.09462,0.049472,-0.0015233,0.011469,0.031607
1328,0.0062721,0.022837,0.090397,0.042975,-0.0028225,0.011794,0.029983
1329,0.0088706,0.029009,0.082602,0.039402,0.0046481,0.011469,0.033231
1330,0.013418,0.033556,0.074806,0.039078,0.016991,0.0085458,0.042001
1331,0.013418,0.037129,0.070909,0.036804,0.023162,0.0017248,0.048497
1332,0.011144,0.039402,0.070909,0.031282,0.021538,-0.0067202,0.048172
1333,0.0095202,0.037778,0.071234,0.022512,0.016016,-0.013541,0.040377
1334,0.0095202,0.031932,0.070584,0.013093,0.011794,-0.01614,0.029983
1335,0.011794,0.021213,0.069285,0.008221,0.011144,-0.016464,0.023812
1336,0.014717,0.011794,0.064737,0.0085458,0.014068,-0.015815,0.024137
1337,0.015042,0.011469,0.061489,0.014717,0.017316,-0.017764,0.025761
1338,0.013093,0.01764,0.056292,0.023812,0.016341,-0.023285,0.022188
1339,0.013093,0.025436,0.048822,0.03583,0.0088706,-0.028807,0.012119
1340,0.014717,0.033881,0.039078,0.042651,0.0023744,-0.035303,-0.00087364
1341,0.016666,0.041351,0.029333,0.03583,0.003024,-0.042449,-0.008669
1342,0.017316,0.046548,0.019264,0.015042,0.012443,-0.04927,-0.0034721
1343,0.016341,0.048172,0.011794,-0.0073698,0.023487,-0.051544,0.010495
1344,0.014392,0.045574,0.0049729,-0.015815,0.029333,-0.047321,0.025111
1345,0.0065969,0.041027,-0.0011985,-0.013216,0.026085,-0.042774,0.032582
1346,-0.0044465,0.034206,-0.0060706,-0.010293,0.015042,-0.037577,0.032582
1347,-0.012892,0.028684,-0.0089938,-0.0083442,0.0043233,-0.032705,0.026735
1348,-0.015815,0.02641,-0.013541,-0.0083442,-0.0044465,-0.027508,0.017965
1349,-0.012242,0.02706,-0.02426,-0.0099683,-0.008669,-0.022961,0.008221
1350,-0.0024977,0.02706,-0.038227,-0.01614,-0.0063954,-0.020037,-0.0018481
1351,0.009845,0.029009,-0.04927,-0.021012,0.0014,-0.015165,-0.011592
1352,0.017965,0.031282,-0.050894,-0.022311,0.0072465,-0.0083442,-0.017764
1353,0.018615,0.030633,-0.043099,-0.021661,0.010819,-0.0018481,-0.019712
1354,0.012119,0.024137,-0.03303,-0.021661,0.013093,0.0059473,-0.019388
1355,0.0046481,0.019264,-0.024585,-0.022961,0.015692,0.012119,-0.014516
1356,-0.00087364,0.020564,-0.019388,-0.022311,0.019914,0.014717,-0.0050961
1357,-0.0011985,0.023812,-0.021012,-0.018088,0.027709,0.013743,0.0056225
1358,0.0039985,0.025761,-0.031081,-0.0089938,0.033881,0.010819,0.010819
1359,0.012119,0.025761,-0.04862,0.0033489,0.038428,0.0072465,0.0085458
1360,0.016666,0.026085,-0.06551,0.01829,0.038753,0.0036737,0.0010752
1361,0.021538,0.029009,-0.07428,0.033231,0.033556,-0.0018481,-0.0073698
1362,0.033231,0.03453,-0.073306,0.038428,0.028034,-0.0054209,-0.015815
1363,0.048172,0.038428,-0.068109,0.033231,0.026085,-0.0054209,-0.02426
1364,0.057592,0.03583,-0.064211,0.022837,0.027385,-0.0034721,-0.028807
1365,0.056942,0.029009,-0.067784,0.016016,0.033231,-0.00087364,-0.028157
1366,0.048822,0.023812,-0.078827,0.013743,0.039727,0.003024,-0.021661
1367,0.037454,0.021213,-0.086623,0.013418,0.044924,0.0075714,-0.014191
1368,0.025436,0.020888,-0.084999,0.014717,0.04395,0.0088706,-0.007045
1369,0.017316,0.018615,-0.07428,0.013418,0.038103,0.0085458,-0.00054884
1370,0.016016,0.015042,-0.059014,0.0052977,0.025111,0.0049729,0.003024
1371,0.01829,0.0085458,-0.044398,-0.0096434,0.010495,-0.0028225,0.00042559
1372,0.024137,0.0046481,-0.032055,-0.026209,0.0026992,-0.010618,-0.0034721
1373,0.030957,0.0033489,-0.022961,-0.036278,0.00075039,-0.013541,-0.0041217
1374,0.035505,0.0043233,-0.01484,-0.038551,-0.00054884,-0.013216,-0.0034721
1375,0.03583,0.0069217,-0.012242,-0.030756,-0.0073698,-0.011267,-0.0021729
1376,0.031282,0.0091954,-0.01614,-0.013866,-0.01549,-0.010943,0.00042559
1377,0.024137,0.012119,-0.021986,0.0075714,-0.020037,-0.011917,0.0023744
1378,0.014392,0.015367,-0.025234,0.027709,-0.019712,-0.013866,0.0049729
1379,0.0049729,0.016341,-0.020687,0.0433,-0.016464,-0.0099683,0.0052977
1380,-0.0028225,0.016016,-0.0093186,0.052395,-0.013866,-0.0018481,0.0046481
1381,-0.010943,0.014717,0.0020496,0.057592,-0.010943,0.0046481,0.0036737
1382,-0.018088,0.011469,0.011794,0.061165,-0.010943,0.0072465,0.003024
1383,-0.022961,0.008221,0.020564,0.065712,-0.015815,0.0072465,0.0052977
1384,-0.021661,0.0075714,0.029983,0.071883,-0.021661,0.003024,0.012443
1385,-0.01484,0.0088706,0.03518,0.076431,-0.028482,-0.0047713,0.01894
1386,-0.0047713,0.010495,0.035505,0.076755,-0.033679,-0.014191,0.021863
1387,0.0056225,0.013093,0.030957,0.072208,-0.037902,-0.021012,0.022188
1388,0.013093,0.013743,0.026085,0.06084,-0.041799,-0.024585,0.01894
1389,0.01894,0.014392,0.02706,0.046548,-0.043423,-0.02426,0.011794
1390,0.025111,0.015692,0.03453,0.038103,-0.040175,-0.022311,0.0033489
1391,0.030957,0.018615,0.046223,0.03518,-0.036927,-0.017439,-0.0041217
1392,0.031282,0.023162,0.055643,0.036154,-0.032705,-0.010293,-0.0054209
1393,0.025436,0.024786,0.061165,0.038103,-0.028807,-0.0028225,0.00075039
1394,0.016666,0.021863,0.064737,0.038753,-0.024585,0.0036737,0.0091954
1395,0.010495,0.01894,0.066686,0.037778,-0.019063,0.0095202,0.012119
1396,0.008221,0.015692,0.069285,0.038103,-0.011917,0.016016,0.010495
1397,0.0078962,0.011469,0.072858,0.040702,-0.0018481,0.021213,0.0056225
1398,0.01017,0.0072465,0.080328,0.045249,0.0078962,0.023812,0.0049729
1399,0.011469,0.0046481,0.090072,0.048172,0.015367,0.020239,0.012119
1400,0.010819,0.003024,0.097543,0.048822,0.019264,0.016991,0.022188
1401,0.009845,0.0023744,0.10112,0.049147,0.020239,0.016666,0.029009
1402,0.0085458,0.0039985,0.099492,0.049147,0.01894,0.01829,0.029009
1403,0.0085458,0.0043233,0.096244,0.04395,0.014392,0.018615,0.023487
1404,0.009845,0.00010078,0.095594,0.03453,0.0069217,0.019914,0.018615
1405,0.01017,-0.0067202,0.099817,0.021538,-0.0037969,0.021213,0.019264
1406,0.0085458,-0.01484,0.10242,0.0069217,-0.017114,0.022512,0.027709
1407,0.0043233,-0.019712,0.098193,-0.0015233,-0.028807,0.025436,0.041676
1408,-0.00022403,-0.019388,0.082927,0.00010078,-0.030756,0.025436,0.052395
1409,-0.0037969,-0.014516,0.063438,0.0049729,-0.023285,0.023162,0.054344
1410,-0.0024977,-0.0073698,0.048822,0.0039985,-0.012242,0.019914,0.046873
1411,0.0049729,-0.00054884,0.044599,-0.00022403,-0.00087364,0.016016,0.03518
1412,0.016016,0.0062721,0.049796,0.0036737,0.008221,0.013418,0.022512
1413,0.025761,0.009845,0.056617,0.016666,0.011469,0.011794,0.0078962
1414,0.028034,0.01017,0.058566,0.029333,0.0075714,0.009845,-0.0080194
1415,0.024137,0.008221,0.053044,0.034855,0.0026992,0.010495,-0.018088
1416,0.016991,0.0062721,0.041351,0.037129,-0.0011985,0.011794,-0.017764
1417,0.011469,0.0059473,0.028359,0.032906,-0.0031473,0.011469,-0.0096434
1418,0.0075714,0.0049729,0.020564,0.023162,-0.0057458,0.0049729,0.0017248
1419,0.0056225,0.0043233,0.021863,0.011794,-0.013866,-0.007045,0.010495
1420,0.0072465,0.0056225,0.024461,0.0056225,-0.025234,-0.019063,0.014717
1421,0.011794,0.0085458,0.029333,0.0072465,-0.029132,-0.024909,0.015367
1422,0.017965,0.011469,0.029009,0.014392,-0.02426,-0.021661,0.017965
1423,0.020564,0.013093,0.021863,0.019589,-0.01549,-0.010618,0.025436
1424,0.020239,0.013418,0.011144,0.019914,-0.0011985,0.0052977,0.037129
1425,0.018615,0.013093,0.0049729,0.015042,0.015042,0.019589,0.052395
1426,0.01894,0.015042,0.0056225,0.0069217,0.023487,0.030308,0.064088
1427,0.017316,0.020239,0.0088706,0.00042559,0.020239,0.036479,0.070584
1428,0.014717,0.024461,0.011144,0.0010752,0.0072465,0.039078,0.069934
1429,0.013093,0.025436,0.01017,0.010495,-0.008669,0.038103,0.064088
1430,0.011469,0.023162,0.0069217,0.023162,-0.020037,0.038103,0.056292
1431,0.009845,0.019589,0.0014,0.029983,-0.028157,0.040052,0.045899
1432,0.0072465,0.01764,-0.0080194,0.030308,-0.031081,0.04395,0.03583
1433,0.0026992,0.019264,-0.017439,0.02706,-0.028482,0.046548,0.024137
1434,-0.0047713,0.024786,-0.027508,0.022188,-0.021986,0.046223,0.013743
1435,-0.01484,0.033881,-0.0405,0.01764,-0.013866,0.044275,0.009845
1436,-0.02426,0.041027,-0.055766,0.012768,-0.0044465,0.041676,0.014392
1437,-0.029132,0.043625,-0.069408,0.0062721,0.0052977,0.039078,0.024137
1438,-0.030756,0.042001,-0.077853,-0.00022403,0.016341,0.037129,0.034855
1439,-0.028807,0.040377,-0.076879,-0.0018481,0.028684,0.033231,0.043625
1440,-0.024909,0.037778,-0.065186,0.0052977,0.039078,0.028684,0.045899
1441,-0.020037,0.034855,-0.04927,0.017965,0.040377,0.022188,0.038103
1442,-0.013866,0.031282,-0.035303,0.030957,0.033556,0.014068,0.024137
1443,-0.007045,0.031607,-0.028807,0.03518,0.021213,0.008221,0.010819
1444,0.00075039,0.037778,-0.028482,0.029009,0.011794,0.0039985,0.0052977
1445,0.008221,0.044275,-0.031406,0.014068,0.0088706,0.0023744,0.0078962
1446,0.01764,0.048172,-0.037252,-0.0011985,0.009845,0.00075039,0.012443
1447,0.025436,0.047523,-0.044398,-0.010293,0.014717,0.00010078,0.013093
1448,0.031607,0.043625,-0.04992,-0.011917,0.020239,0.0014,0.009845
1449,0.032582,0.038753,-0.053817,-0.0076946,0.023487,0.0043233,0.0043233
1450,0.033231,0.032906,-0.055766,-0.0018481,0.024461,0.0085458,-0.0037969
1451,0.032906,0.028034,-0.054467,0.0036737,0.021863,0.0088706,-0.0096434
1452,0.032582,0.027709,-0.051544,0.008221,0.015367,0.0039985,-0.011592
1453,0.029333,0.034206,-0.047646,0.013743,0.0091954,-0.0021729,-0.011917
1454,0.025111,0.042326,-0.045697,0.014392,0.0039985,-0.007045,-0.011592
1455,0.023487,0.046223,-0.044723,0.0095202,0.0023744,-0.0063954,-0.011592
1456,0.024137,0.045574,-0.041799,0.0049729,0.0069217,-0.00022403,-0.010943
1457,0.025436,0.042651,-0.035303,0.0095202,0.011794,0.0095202,-0.0089938
1458,0.026085,0.039402,-0.025234,0.017316,0.0059473,0.015042,-0.0037969
1459,0.027385,0.036804,-0.016789,0.022512,-0.016464,0.015367,0.0049729
1460,0.029333,0.033231,-0.010943,0.021538,-0.045047,0.012443,0.015367
1461,0.02706,0.025436,-0.010618,0.016341,-0.068434,0.0095202,0.020888
1462,0.021213,0.01764,-0.01484,0.01017,-0.080127,0.0065969,0.019264
1463,0.011469,0.011794,-0.019388,0.0072465,-0.082076,0.0023744,0.016341
1464,0.0017248,0.0095202,-0.019712,0.0049729,-0.0824,-0.00054884,0.01764
1465,-0.0011985,0.0085458,-0.01484,0.0039985,-0.085973,-0.0011985,0.019589
1466,0.0020496,0.0091954,-0.0054209,0.0020496,-0.092145,-0.0015233,0.016991
1467,0.0091954,0.013418,0.0065969,-0.0015233,-0.098316,-0.0037969,0.0062721
1468,0.017965,0.021213,0.017316,-0.0024977,-0.10546,-0.0089938,-0.0093186
1469,0.024786,0.029658,0.028684,0.0062721,-0.11033,-0.013216,-0.021337
1470,0.028034,0.038753,0.039727,0.023162,-0.10644,-0.014516,-0.02426
1471,0.02706,0.046873,0.05142,0.041676,-0.09117,-0.012892,-0.016464
1472,0.026085,0.053044,0.061814,0.055968,-0.068109,-0.0089938,-0.0047713
1473,0.023162,0.054019,0.067986,0.063113,-0.039851,-0.0021729,0.0056225
1474,0.018615,0.046223,0.067986,0.063438,-0.0096434,0.0043233,0.016341
1475,0.015692,0.033556,0.064413,0.059865,0.025111,0.0085458,0.02706
1476,0.014068,0.023162,0.063438,0.058566,0.070259,0.010495,0.037129
1477,0.0095202,0.01829,0.065387,0.065387,0.12483,0.01017,0.040052
1478,0.0020496,0.019264,0.070584,0.078055,0.17972,0.0078962,0.038753
1479,-0.00087364,0.023812,0.075456,0.091696,0.22129,0.0065969,0.037129
1480,0.0023744,0.029333,0.078055,0.10079,0.24013,0.0065969,0.037454
1481,0.011144,0.028684,0.080328,0.10306,0.23851,0.0072465,0.035505
1482,0.020888,0.019914,0.081627,0.097218,0.21577,0.0078962,0.027385
1483,0.029009,0.0085458,0.082277,0.086175,0.17972,0.0095202,0.018615
1484,0.031932,0.00075039,0.07773,0.072208,0.13425,0.011794,0.014717
1485,0.031932,-0.0021729,0.072533,0.054993,0.086824,0.010495,0.016016
1486,0.027709,0.00010078,0.066686,0.042326,0.04395,0.0036737,0.017316
1487,0.02641,-0.0011985,0.062139,0.036154,0.011469,-0.0057458,0.016341
1488,0.029658,-0.0083442,0.058891,0.033881,-0.010293,-0.012242,0.013093
1489,0.036479,-0.019063,0.06019,0.028684,-0.021012,-0.012242,0.009845
1490,0.040377,-0.028482,0.062139,0.023162,-0.022636,-0.0083442,0.0088706
1491,0.035505,-0.032055,0.058891,0.017316,-0.017114,-0.0011985,0.011144
1492,0.025761,-0.028482,0.053694,0.013093,-0.007045,0.0043233,0.016341
1493,0.015367,-0.020687,0.050121,0.009845,0.0046481,0.0046481,0.020888
1494,0.008221,-0.011267,0.049796,0.0056225,0.008221,-0.00054884,0.024137
1495,0.0059473,-0.0018481,0.047198,0.0010752,-0.0028225,-0.0076946,0.026085
1496,0.0078962,0.0072465,0.040377,-0.0034721,-0.018738,-0.012242,0.02706
1497,0.011794,0.012768,0.032582,-0.0093186,-0.031081,-0.012242,0.02706
1498,0.012768,0.015367,0.026735,-0.018738,-0.034004,-0.0099683,0.025111
1499,0.011144,0.016016,0.021213,-0.025559,-0.028482,-0.007045,0.01894
1500,0.008221,0.015367,0.015692,-0.024909,-0.020687,-0.0080194,0.009845
1501,0.0078962,0.016341,0.0072465,-0.016789,-0.017764,-0.0099683,0.0014
1502,0.0091954,0.019589,-0.0024977,-0.0083442,-0.020687,-0.011267,-0.0054209
1503,0.01017,0.024461,-0.01549,-0.0044465,-0.024585,-0.013541,-0.011917
1504,0.010495,0.030633,-0.025559,-0.0050961,-0.028157,-0.01549,-0.012242
1505,0.012119,0.034206,-0.032055,-0.010293,-0.034004,-0.018738,-0.0047713
1506,0.014392,0.036479,-0.035303,-0.01484,-0.042124,-0.021986,0.0036737
1507,0.015692,0.032257,-0.034004,-0.018413,-0.046671,-0.022636,0.008221
1508,0.015042,0.024786,-0.029457,-0.02426,-0.042449,-0.018738,0.0095202
1509,0.013418,0.017316,-0.027508,-0.030756,-0.031406,-0.013216,0.0091954
1510,0.0091954,0.009845,-0.034978,-0.034329,-0.020362,-0.0063954,0.0078962
1511,0.0085458,0.0059473,-0.047321,-0.032055,-0.013866,0.0010752,0.0039985
1512,0.008221,0.0052977,-0.055766,-0.025884,-0.013216,0.0078962,0.0033489
1513,0.0072465,0.010819,-0.05739,-0.016464,-0.018738,0.010495,0.0065969
1514,0.0039985,0.018615,-0.053168,-0.0057458,-0.027508,0.0046481,0.010819
1515,0.0046481,0.02706,-0.046347,0.00042559,-0.034004,-0.0054209,0.013743
1516,0.011794,0.033231,-0.036927,0.00010078,-0.033679,-0.012567,0.016991
1517,0.020888,0.03518,-0.029782,-0.0011985,-0.027833,-0.01484,0.019914
1518,0.026085,0.033881,-0.029132,-0.00054884,-0.018738,-0.012567,0.01894
1519,0.023487,0.031932,-0.037577,0.0020496,-0.0050961,-0.0057458,0.015367
1520,0.01894,0.029009,-0.050244,0.0069217,0.0095202,0.0023744,0.012768
1521,0.015042,0.024461,-0.059989,0.011144,0.020239,0.0069217,0.011794
1522,0.013743,0.017965,-0.062262,0.008221,0.023487,0.0075714,0.01017
1523,0.016016,0.013418,-0.060638,0.00010078,0.01894,0.0075714,0.008221
1524,0.01764,0.011469,-0.061613,-0.010943,0.009845,0.008221,0.008221
1525,0.017316,0.009845,-0.063237,-0.019388,0.003024,0.011469,0.011794
1526,0.014392,0.0078962,-0.062262,-0.021012,-0.0028225,0.015692,0.016991
1527,0.01017,0.0043233,-0.058689,-0.015815,-0.0050961,0.019914,0.019589
1528,0.0095202,-0.0011985,-0.054467,-0.0054209,-0.0063954,0.022188,0.017965
1529,0.015042,-0.0063954,-0.048945,0.0088706,-0.0050961,0.022188,0.012443
1530,0.023812,-0.0047713,-0.043423,0.01764,-0.0024977,0.021213,0.008221
1531,0.027709,0.0014,-0.037252,0.017316,0.0010752,0.015367,0.013418
1532,0.025436,0.0088706,-0.03173,0.016341,0.0052977,0.0062721,0.026085
1533,0.01829,0.017316,-0.027833,0.023162,0.0091954,-0.0011985,0.041027
1534,0.0075714,0.024786,-0.022961,0.039727,0.011469,-0.00087364,0.052395
1535,-0.00087364,0.029658,-0.01549,0.053694,0.0085458,0.008221,0.055968
1536,-0.0031473,0.032257,-0.0076946,0.057592,0.0043233,0.020239,0.050121
1537,0.0056225,0.036154,0.0049729,0.054019,-0.00087364,0.029009,0.037778
1538,0.020239,0.041676,0.016341,0.051745,-0.0024977,0.031607,0.024461
1539,0.030957,0.04395,0.018615,0.055968,0.00042559,0.027385,0.013743
1540,0.031282,0.038103,0.012443,0.067011,0.014392,0.019914,0.0069217
1541,0.025436,0.022837,0.0056225,0.079354,0.029983,0.015042,0.0039985
1542,0.019589,0.008221,0.0036737,0.0852,0.037454,0.013743,0.0072465
1543,0.017316,0.0017248,0.013093,0.083576,0.032257,0.014717,0.012768
1544,0.01764,0.0085458,0.029333,0.075781,0.015692,0.016341,0.016991
1545,0.01829,0.021538,0.045899,0.063113,-0.0076946,0.01829,0.01764
1546,0.021213,0.033231,0.057592,0.053369,-0.027183,0.01829,0.01764
1547,0.025761,0.039727,0.064413,0.047198,-0.035628,0.019914,0.021538
1548,0.029333,0.037129,0.067011,0.044924,-0.035628,0.021538,0.025436
1549,0.026735,0.032582,0.069285,0.043625,-0.03303,0.022837,0.025436
1550,0.019264,0.026735,0.070584,0.044924,-0.031081,0.019264,0.025436
1551,0.012443,0.020239,0.073832,0.047198,-0.028807,0.015042,0.027385
1552,0.0085458,0.013093,0.077405,0.049472,-0.024909,0.009845,0.032582
1553,0.0059473,0.0010752,0.079029,0.046223,-0.018738,0.0056225,0.037129
1554,0.0020496,-0.012892,0.081627,0.040052,-0.011267,0.003024,0.038428
1555,-0.00087364,-0.021012,0.087149,0.034206,-0.008669,0.0039985,0.035505
1556,-0.0034721,-0.020037,0.094295,0.031282,-0.011592,0.0069217,0.030633
1557,-0.0015233,-0.013216,0.095594,0.036479,-0.018738,0.0078962,0.020888
1558,0.0039985,-0.0054209,0.091047,0.047523,-0.029132,0.0059473,0.012119
1559,0.013093,0.00010078,0.082927,0.056292,-0.039526,0.0033489,0.0095202
1560,0.025761,0.0026992,0.076755,0.057917,-0.042124,0.0039985,0.011144
1561,0.038103,0.0043233,0.075781,0.05207,-0.030756,0.0049729,0.012119
1562,0.046873,0.0049729,0.080328,0.042326,-0.0093186,0.0046481,0.013743
1563,0.047523,0.0052977,0.087474,0.032257,0.010819,0.00075039,0.019589
1564,0.042975,0.0033489,0.09462,0.028359,0.018615,-0.0047713,0.029333
1565,0.035505,0.003024,0.099167,0.029333,0.011794,-0.012242,0.037778
1566,0.027385,0.0056225,0.098517,0.033881,-0.0041217,-0.020687,0.041676
1567,0.015692,0.010819,0.092996,0.034855,-0.019388,-0.028157,0.039402
1568,0.0065969,0.011794,0.086175,0.032257,-0.027508,-0.03238,0.031607
1569,0.0026992,0.008221,0.081303,0.027385,-0.029782,-0.030431,0.019914
1570,0.0014,0.0020496,0.079679,0.023162,-0.02361,-0.024585,0.0088706
1571,-0.0015233,-0.00022403,0.080653,0.022837,-0.011917,-0.018413,0.0010752
1572,-0.007045,0.0062721,0.083576,0.028359,0.0026992,-0.014516,-0.0024977
1573,-0.010293,0.016991,0.082927,0.03583,0.01764,-0.0099683,-0.0063954
1574,-0.008669,0.028034,0.07773,0.038103,0.030957,-0.0041217,-0.012567
1575,-0.0041217,0.032906,0.068635,0.030633,0.038103,0.003024,-0.019063
1576,0.0023744,0.031607,0.057917,0.019589,0.032582,0.009845,-0.022961
1577,0.008221,0.022837,0.042975,0.013743,0.014717,0.0095202,-0.023935
1578,0.014717,0.014068,0.022837,0.010819,-0.0073698,0.00042559,-0.021661
1579,0.020888,0.0072465,0.003024,0.0091954,-0.02426,-0.011267,-0.018413
1580,0.025761,0.0075714,-0.010943,0.0072465,-0.03238,-0.020362,-0.018413
1581,0.029333,0.014068,-0.014516,0.0059473,-0.028157,-0.021661,-0.018738
1582,0.029658,0.026735,-0.010943,0.0072465,-0.0093186,-0.016464,-0.018738
1583,0.02641,0.037454,-0.0076946,0.0075714,0.013743,-0.0080194,-0.01484
1584,0.016991,0.044275,-0.008669,0.0085458,0.031932,0.0010752,-0.0047713
1585,0.0072465,0.046548,-0.014191,0.011144,0.040377,0.009845,0.010495
1586,-0.00054884,0.044599,-0.020362,0.014717,0.041027,0.01829,0.023487
1587,-0.0018481,0.040377,-0.027508,0.01894,0.035505,0.025761,0.029333
1588,0.003024,0.036804,-0.031081,0.019589,0.028034,0.027709,0.029983
1589,0.011794,0.035505,-0.032705,0.013093,0.024461,0.026735,0.029983
1590,0.01894,0.037778,-0.033354,0.00075039,0.027385,0.023487,0.030957
1591,0.022188,0.042326,-0.038876,-0.010943,0.03583,0.021863,0.032906
1592,0.023162,0.047523,-0.048945,-0.01484,0.041351,0.022188,0.036154
1593,0.017316,0.05142,-0.062587,-0.013216,0.042651,0.020564,0.039078
1594,0.0062721,0.054019,-0.071032,-0.011917,0.040377,0.015042,0.035505
1595,-0.0054209,0.055643,-0.068434,-0.013216,0.037129,0.0049729,0.025111
1596,-0.008669,0.056617,-0.05804,-0.013216,0.03518,-0.0047713,0.01017
1597,-0.0028225,0.057917,-0.045047,-0.013216,0.032906,-0.0099683,-0.0011985
1598,0.0069217,0.055318,-0.035953,-0.014191,0.030957,-0.010618,-0.0037969
1599,0.015367,0.044924,-0.035953,-0.019063,0.031282,-0.010293,0.0023744
1600,0.019589,0.030308,-0.043423,-0.02426,0.033881,-0.0089938,0.010495
1601,0.019264,0.014068,-0.053817,-0.023935,0.038753,-0.0063954,0.01829
1602,0.014392,0.0010752,-0.06681,-0.018738,0.047523,-0.00022403,0.02706
1603,0.0091954,-0.0063954,-0.083375,-0.014191,0.054344,0.008221,0.040702
1604,0.0049729,-0.0034721,-0.097017,-0.012242,0.055968,0.015042,0.054019
1605,0.0039985,0.0095202,-0.10189,-0.012892,0.054019,0.01829,0.058241
1606,0.0046481,0.025111,-0.096692,-0.01614,0.048822,0.016666,0.052395
1607,0.0091954,0.039727,-0.087922,-0.020037,0.044924,0.012443,0.042001
1608,0.012119,0.048822,-0.079152,-0.022636,0.042651,0.011144,0.031607
1609,0.0069217,0.050771,-0.07493,-0.019712,0.043625,0.014392,0.021863
1610,-0.0037969,0.050771,-0.07428,-0.0083442,0.046223,0.015692,0.015367
1611,-0.012892,0.05272,-0.072006,0.0065969,0.0433,0.014392,0.010819
1612,-0.013866,0.055968,-0.063561,0.016991,0.037129,0.009845,0.008221
1613,-0.0093186,0.055318,-0.051544,0.020564,0.031607,0.0052977,0.0062721
1614,-0.00054884,0.049147,-0.043423,0.016341,0.028359,0.0023744,0.008221
1615,0.010819,0.040052,-0.038551,0.0062721,0.029333,0.00075039,0.0095202
1616,0.019264,0.033556,-0.03238,-0.0031473,0.035505,0.0043233,0.0075714
1617,0.021538,0.031607,-0.023935,-0.0067202,0.039078,0.011469,0.0026992
1618,0.014717,0.03453,-0.012892,-0.0047713,0.039402,0.019914,-0.0021729
1619,0.0036737,0.036479,-0.00087364,-0.00022403,0.037454,0.025436,-0.0050961
1620,-0.0050961,0.037778,0.0091954,0.0059473,0.036479,0.02706,-0.0080194
1621,-0.0099683,0.037454,0.016991,0.012768,0.037454,0.027385,-0.0080194
1622,-0.012242,0.03583,0.021213,0.01829,0.036479,0.026735,-0.0060706
1623,-0.01549,0.03518,0.021538,0.024461,0.030633,0.024137,-0.0044465
1624,-0.01614,0.038103,0.023162,0.032582,0.020564,0.022512,-0.0028225
1625,-0.010943,0.042326,0.02641,0.041351,0.009845,0.023487,0.00010078
1626,-0.0024977,0.04395,0.028684,0.044924,-0.0015233,0.024137,0.0043233
1627,0.0072465,0.039727,0.032906,0.046548,-0.013866,0.025761,0.010495
1628,0.015692,0.029333,0.042001,0.046223,-0.025234,0.027709,0.015692
1629,0.020564,0.015367,0.054668,0.041351,-0.035953,0.032582,0.01894
1630,0.023487,0.0020496,0.065712,0.037454,-0.046671,0.036154,0.01764
1631,0.024137,-0.0047713,0.072858,0.034855,-0.058689,0.033881,0.015692
1632,0.025111,-0.0021729,0.07708,0.03453,-0.072006,0.024137,0.015692
1633,0.026735,0.0091954,0.083251,0.036804,-0.086298,0.0085458,0.015692
1634,0.025436,0.022837,0.090072,0.040052,-0.097991,-0.0099683,0.012119
1635,0.021213,0.032257,0.09397,0.041676,-0.10514,-0.026533,0.0069217
1636,0.013418,0.033231,0.093645,0.040052,-0.10709,-0.036602,0.0033489
1637,0.0065969,0.027385,0.09397,0.032582,-0.10189,-0.036927,-0.0015233
1638,0.0023744,0.020239,0.095269,0.020239,-0.093444,-0.03238,-0.0067202
1639,0.0023744,0.014392,0.098193,0.012119,-0.086298,-0.027183,-0.0060706
1640,0.0049729,0.0095202,0.10306,0.013743,-0.085648,-0.020362,-0.0011985
1641,0.0075714,0.0059473,0.10924,0.025761,-0.09182,-0.01484,0.0020496
1642,0.011794,0.003024,0.11476,0.044275,-0.10189,-0.012567,0.0017248
1643,0.019589,-0.0018481,0.11508,0.065712,-0.11066,-0.013866,0.0026992
1644,0.029658,-0.0060706,0.11054,0.0852,-0.11261,-0.017114,0.0052977
1645,0.037454,-0.0060706,0.10079,0.10014,-0.10286,-0.01614,0.0062721
1646,0.039727,-0.0057458,0.087474,0.10436,-0.082725,-0.01549,0.0026992
1647,0.036804,-0.0067202,0.074157,0.097218,-0.060313,-0.01549,-0.0076946
1648,0.032257,-0.0093186,0.059216,0.081627,-0.04115,-0.019712,-0.017439
1649,0.028684,-0.014516,0.045899,0.065712,-0.029457,-0.02426,-0.019712
1650,0.024461,-0.019712,0.037129,0.055643,-0.02361,-0.027508,-0.01484
1651,0.01764,-0.022961,0.034855,0.052395,-0.017114,-0.030431,-0.0067202
1652,0.0075714,-0.021012,0.040702,0.056292,-0.0067202,-0.029457,0.0036737
1653,-0.00054884,-0.01614,0.049472,0.064088,0.0059473,-0.021337,0.017316
1654,-0.0028225,-0.0073698,0.057267,0.070584,0.01829,-0.0089938,0.032257
1655,0.0010752,0.0017248,0.059865,0.070909,0.02641,0.0062721,0.042975
1656,0.0023744,0.0072465,0.057917,0.064413,0.02706,0.016991,0.047847
1657,-0.0021729,0.0078962,0.05272,0.055968,0.015042,0.018615,0.048172
1658,-0.0080194,0.0052977,0.045574,0.048172,-0.011592,0.011794,0.041351
1659,-0.0063954,0.0033489,0.038753,0.044599,-0.048945,0.0017248,0.026735
1660,0.003024,0.0059473,0.034206,0.044599,-0.088896,-0.0076946,0.012768
1661,0.014392,0.014068,0.031932,0.042975,-0.1191,-0.011592,0.0052977
1662,0.021538,0.023487,0.029658,0.037778,-0.1282,-0.0080194,0.0078962
1663,0.024137,0.030633,0.024137,0.033231,-0.1178,0.00010078,0.015042
1664,0.025111,0.037129,0.013418,0.028684,-0.092794,0.0065969,0.023162
1665,0.021863,0.045249,-0.00022403,0.01829,-0.063237,0.0069217,0.033231
1666,0.013093,0.053369,-0.013866,0.00075039,-0.0405,0.0020496,0.041676
1667,0.0052977,0.056617,-0.025559,-0.020037,-0.02426,-0.0047713,0.0433
1668,0.0010752,0.051745,-0.034978,-0.038876,-0.012242,-0.011592,0.037129
1669,0.0036737,0.040377,-0.042124,-0.047971,0.0014,-0.019388,0.023162
1670,0.0091954,0.030633,-0.046671,-0.046022,0.022188,-0.023935,0.011144
1671,0.011794,0.026735,-0.050569,-0.036927,0.049147,-0.022311,0.0052977
1672,0.0091954,0.025111,-0.055441,-0.025234,0.078379,-0.013216,0.0078962
1673,0.0065969,0.019914,-0.058365,-0.01484,0.10144,-0.0031473,0.011794
1674,0.0033489,0.013093,-0.060638,-0.0099683,0.11638,0.0043233,0.011144
1675,-0.00054884,0.0059473,-0.063886,-0.0093186,0.12645,0.0072465,0.0069217
1676,0.00010078,-0.00022403,-0.068109,-0.012567,0.14009,0.0069217,0.00075039
1677,0.0062721,-0.0067202,-0.072006,-0.022636,0.16283,0.0062721,-0.0031473
1678,0.016016,-0.013866,-0.072981,-0.035628,0.19856,0.0072465,-0.0037969
1679,0.021213,-0.018413,-0.071032,-0.044073,0.24111,0.0095202,0.0020496
1680,0.018615,-0.019063,-0.067134,-0.045047,0.28301,0.011794,0.015042
1681,0.012443,-0.014516,-0.063886,-0.037577,0.32263,0.014392,0.029333
1682,0.008221,-0.0044465,-0.065835,-0.030106,0.35999,0.014717,0.040052
1683,0.010819,0.0091954,-0.069408,-0.025559,0.39572,0.012768,0.044924
1684,0.020888,0.026085,-0.070058,-0.022961,0.4178,0.0078962,0.042651
1685,0.03453,0.041351,-0.06551,-0.021986,0.41326,0.0039985,0.035505
1686,0.049147,0.048822,-0.058689,-0.019712,0.37655,0.00010078,0.02641
1687,0.058566,0.042975,-0.054142,-0.01614,0.31711,-0.0041217,0.021863
1688,0.059216,0.02706,-0.051544,-0.011592,0.24825,-0.0083442,0.022512
1689,0.048497,0.0085458,-0.04927,-0.0073698,0.18069,-0.013866,0.024786
1690,0.027385,-0.0054209,-0.045697,-0.0034721,0.12223,-0.019388,0.026735
1691,0.0043233,-0.011267,-0.036602,-0.0044465,0.076431,-0.023285,0.027385
1692,-0.011917,-0.0076946,-0.024909,-0.0096434,0.0433,-0.020687,0.025436
1693,-0.016464,0.00010078,-0.012567,-0.015165,0.017965,-0.012567,0.022188
1694,-0.0080194,0.011144,-0.0021729,-0.014191,-0.0031473,-0.00054884,0.016666
1695,0.0062721,0.020564,0.0014,-0.0018481,-0.021337,0.011794,0.01017
1696,0.015367,0.028684,-0.0011985,0.016016,-0.035303,0.021538,0.0039985
1697,0.016991,0.030633,-0.0037969,0.029333,-0.044723,0.025111,0.00010078
1698,0.012768,0.029658,0.00010078,0.032906,-0.04992,0.022837,-0.0011985
