-0.28335      -1.095   -0.069911     0.53685     0.11656    0.081039   -0.018278
-0.26065     -0.7579   -0.050836     0.50462     0.15175    0.053743   -0.028802
-0.21922    -0.48757  -0.0087413     0.46154     0.15668    0.021843   -0.038339
-0.15213    -0.20244    0.059334     0.42142     0.14616   -0.002164   -0.041628
-0.060373     0.16326      0.1455     0.38393     0.13432   -0.011372   -0.037024
0.048482     0.61479     0.23659     0.34479     0.13399  -0.0031506   -0.024527
0.1603      1.1091     0.32144      0.3027     0.15076    0.018555  -0.0061104
0.26093      1.5892     0.38557     0.26027     0.17904    0.047166     0.01132
0.33657      2.0059     0.42306     0.21818     0.20371    0.078409    0.029078
0.38426      2.3443     0.43359     0.17181     0.21061     0.10406    0.043549
0.40925      2.5988     0.41681     0.12116     0.19121     0.12445    0.052757
0.41517      2.7672      0.3734    0.068214      0.1501     0.13925    0.056374
0.39971       2.861     0.31684    0.017897     0.10307      0.1455    0.053743
0.35959      2.9001     0.26488   -0.020909    0.056374     0.14352     0.04026
0.30039      2.9165     0.22541   -0.044259    0.023817     0.12873    0.027105
0.23725      2.9238     0.19647   -0.055112    0.013622     0.10077    0.025461
0.1843      2.9113     0.17542   -0.062018    0.022501     0.06624    0.028421
0.14385      2.8527     0.16161   -0.069911    0.037629    0.037629    0.030723
0.11656      2.7347     0.16063   -0.080434    0.050455    0.022172    0.036971
0.098141      2.5541     0.17378   -0.090958    0.059005     0.02283    0.048482
0.083342      2.2973     0.19746    -0.09918    0.069529    0.039931    0.057361
0.070187      1.9549     0.22377    -0.10543    0.088932    0.061965    0.061636
0.058348      1.5412     0.23462    -0.11069     0.10866     0.07512    0.062952
0.050126      1.0778     0.21423    -0.11924     0.10866    0.065912    0.064596
0.045522     0.59473     0.15372    -0.14687    0.085315    0.035985    0.063281
0.04618     0.12511    0.062294    -0.20508     0.04881  -0.0015062    0.054072
0.052757    -0.28104   -0.047219    -0.28269    0.012635   -0.027816    0.046508
0.065912    -0.57275    -0.17581    -0.35405    -0.01499   -0.038339    0.048153
0.081039    -0.72107    -0.33235    -0.40601   -0.035708    -0.03242    0.059992
0.10011    -0.73028    -0.52177    -0.43002   -0.054125   -0.016963    0.083999
0.12379    -0.64674    -0.73751    -0.42871    -0.06728   0.0017824     0.11195
0.15306    -0.53526    -0.95029     -0.4093   -0.071884    0.016253     0.13662
0.18003    -0.45765     -1.1075    -0.37411   -0.071226    0.024803     0.15536
0.19549    -0.44548     -1.1558    -0.32939   -0.073199    0.021186     0.17246
0.19581    -0.49678     -1.0716    -0.28927   -0.076817   0.0083598     0.18233
0.18069    -0.58689     -0.8684    -0.26756   -0.079119   -0.011372     0.18102
0.15076    -0.67832    -0.59347    -0.26131   -0.067937   -0.037353     0.16819
0.1136    -0.73751    -0.29223       -0.26   -0.045903   -0.068924      0.1432
0.077751    -0.75001    0.017897    -0.25309   -0.025842     -0.1028     0.10801
0.050455    -0.71745     0.32999    -0.23698   -0.011372    -0.12089    0.077093
0.03434    -0.65168     0.62038    -0.20771  -0.0018351    -0.10641    0.058676
0.023488     -0.5711     0.83349    -0.17383   0.0090175    -0.06432    0.049468
0.014608    -0.49382     0.91834    -0.14687    0.031381   -0.016634    0.043549
0.0057288    -0.43331     0.85782    -0.13141    0.065912    0.017897    0.039273
-0.0034794     -0.3922     0.68221    -0.11924     0.11097    0.036314    0.036971
-0.01203    -0.36523     0.45595    -0.10313     0.15898    0.048482    0.036971
-0.016634    -0.34649     0.24218   -0.075501     0.19647    0.068871    0.036314
-0.023211    -0.34123    0.077422   -0.034722     0.21423    0.099785    0.033354
-0.040313    -0.35109   -0.027158    0.017568     0.21489     0.13464    0.028092
-0.070568    -0.37674   -0.082736    0.072489     0.20568     0.15832    0.018884
-0.10707    -0.41489    -0.11003     0.12971     0.19417     0.16391   0.0080309
-0.14391     -0.4514     -0.1199     0.18792     0.17937     0.15076  -0.0024928
-0.17153    -0.46981    -0.10707     0.24383     0.15964     0.12445  -0.0084125
-0.18008    -0.46751   -0.053138     0.28823     0.13958    0.097812   -0.011372
-0.16693    -0.44252    0.067885     0.31026     0.12017    0.080711    -0.01795
-0.13601    -0.39549     0.24416     0.30664    0.096825    0.076435   -0.031433
-0.098522     -0.3261     0.39741     0.27672    0.067227    0.082026   -0.048205
-0.061689    -0.24388     0.41747     0.22541    0.044206    0.095181   -0.057085
-0.026171    -0.15344     0.25337     0.17148    0.036971     0.11393   -0.044917
0.0044134   -0.057414   -0.045903     0.13925    0.035985     0.13399  -0.0093991
0.025461    0.026119    -0.38069     0.14714    0.013293     0.14352    0.031052
0.030394    0.050455    -0.65562     0.19845   -0.049521     0.13004     0.05473
0.018555   -0.016963    -0.81315      0.2777    -0.14818    0.092221     0.04881
-0.010386    -0.18107    -0.84308     0.35597    -0.25605    0.037958    0.012635
-0.05281    -0.42147    -0.77533     0.40728     -0.3432   -0.020252   -0.038997
-0.098522    -0.68851    -0.66516     0.41352    -0.39154   -0.072542   -0.082408
-0.14292    -0.93154    -0.56847     0.37307     -0.4024    -0.11431    -0.10576
-0.18436     -1.1019    -0.50862     0.30039    -0.38595    -0.14095    -0.11069
-0.2202     -1.1483    -0.45765     0.21719    -0.34715    -0.15147    -0.10181
-0.24585     -1.0365    -0.34978     0.14616     -0.2919    -0.14752   -0.085039
-0.25112    -0.76119     -0.1005    0.097483    -0.22448    -0.12713   -0.068924
-0.23138     -0.3603     0.33361    0.077422    -0.15509   -0.086025   -0.059387
-0.18008      0.1011     0.88644    0.083999     -0.0903   -0.033078   -0.048205
-0.099838     0.53652      1.3952     0.11064   -0.029131   0.0096753   -0.025185
-0.0077547     0.88479      1.6918     0.14813     0.02579    0.034998   0.0067154
0.073476      1.1137      1.6813     0.17806    0.065583    0.044535    0.040918
0.12905      1.2133      1.3886     0.18463    0.077751    0.041904    0.064596
0.15964       1.212     0.92327     0.16391    0.061636     0.03434      0.0692
0.1797      1.1824     0.42306     0.11886    0.033683    0.026119    0.062952
0.20732      1.1864   0.0037556    0.066569   0.0077021    0.017897    0.055717
0.25994       1.237    -0.26526    0.013293  -0.0038083   0.0077021    0.054401
0.33427      1.2923    -0.38398    -0.03242   0.0044134  -0.0084125    0.058676
0.40793      1.2903     -0.3968    -0.06136    0.027105   -0.028802    0.070516
0.45463      1.1992    -0.35964   -0.070568    0.050126   -0.041299    0.086301
0.46187      1.0397    -0.32084   -0.073857    0.054401    -0.04689    0.099456
0.43128     0.85848    -0.30604   -0.077146    0.023817   -0.046561     0.10274
0.38031     0.69536    -0.33202   -0.077803    -0.04985   -0.041628     0.09255
0.32243     0.56776    -0.40305   -0.072542    -0.16693   -0.037353    0.068543
0.26718     0.46845    -0.49251     -0.0584    -0.29387   -0.038011    0.035656
0.21588      0.3882    -0.54545   -0.023211    -0.35405   -0.041628   0.0057288
0.16687     0.32144    -0.49251     0.04322    -0.28466   -0.050179   -0.007097
0.12248     0.26751    -0.25704     0.13366   -0.099509   -0.061031   0.0014536
0.083342      0.2264     0.19253     0.21259     0.12182   -0.071555    0.020528
0.052428      0.2014     0.75292     0.24251     0.29809   -0.085696    0.033025
0.030723     0.18595      1.2114      0.2093     0.39116   -0.093918    0.035985
0.018555     0.17181      1.3801     0.12807       0.403   -0.089643    0.033354
0.016253     0.15142      1.1933    0.018555     0.35696   -0.081421    0.034011
0.014279     0.12445     0.73384   -0.093918     0.27606   -0.068924    0.038616
0.0063866    0.087617     0.17016      -0.186     0.17904    -0.05281    0.036971
-0.011701    0.040918    -0.33202    -0.24092    0.087288    -0.04689    0.032367
-0.039326   -0.025842    -0.66976    -0.26263    0.024145   -0.061689    0.030723
-0.067609    -0.14522    -0.81776    -0.25835  -0.0074258   -0.086354    0.027763
-0.090958    -0.36688    -0.80329    -0.24158   -0.013017    -0.10148    0.029736
-0.10378    -0.68983    -0.66549    -0.21823  -0.0028217   -0.099509    0.039931
-0.10543     -1.0397    -0.44054     -0.1906   0.0093464   -0.085367    0.059992
-0.1005     -1.3032    -0.14818    -0.15311    0.017568   -0.066293     0.08663
-0.087998      -1.389     0.20601   -0.089972    0.031052   -0.047877     0.10899
-0.066293      -1.263     0.61775    0.011977    0.055388   -0.030775      0.1205
-0.040641    -0.95226       1.039     0.13497    0.081697   -0.014332      0.1182
-0.024198     -0.5323       1.388      0.2287    0.092879  -0.0015062     0.10176
-0.022225   -0.098851      1.5833     0.26027    0.082355   0.0047422    0.080711
-0.031104      0.2754      1.5649     0.22245    0.065583   0.0086887    0.062952
-0.042944     0.55428       1.334     0.13826    0.058348    0.013951     0.05473
-0.046561     0.73877     0.95648    0.050455    0.067556    0.021186    0.059334
-0.030775     0.85125     0.53685  -0.0024928    0.094852    0.034669    0.074462
0.0034268     0.92294     0.16457  -0.0015062     0.14977    0.068214    0.097483
0.041247     0.99299    -0.11036    0.037629     0.22837     0.12412     0.11886
0.07216      1.0844    -0.28696    0.080053     0.31125     0.18661     0.12708
0.09551      1.2018    -0.38562    0.098469     0.36781      0.2389     0.12412
0.11327      1.3146    -0.42377    0.085644     0.38491     0.28198     0.11524
0.12544      1.3712    -0.42081    0.057361     0.36584      0.3198     0.10965
0.13037       1.313    -0.39121     0.03434     0.32341     0.35564     0.11261
0.12642       1.113    -0.34517    0.030723     0.27408     0.38721     0.12379
0.11557     0.79994    -0.29683    0.042891     0.22706     0.40366     0.12971
0.097812     0.44707    -0.25473     0.06065     0.18397     0.39609     0.12215
0.079395     0.13464    -0.22777    0.076106     0.14714      0.3665    0.099785
0.058348   -0.087341     -0.2156    0.083342     0.11689     0.32473    0.064925
0.034011    -0.20935    -0.21593    0.080711    0.087288     0.27935    0.023817
0.0037556    -0.26723    -0.22382    0.078737    0.052099     0.23857  -0.0087413
-0.020909    -0.30998    -0.23566    0.089261    0.014279     0.20469   -0.028144
-0.034064    -0.36819    -0.24322     0.11426   -0.021567     0.17345   -0.032749
-0.039326    -0.44778    -0.24421     0.14122   -0.046561     0.14451   -0.021238
-0.039326    -0.53197      -0.235     0.15668   -0.063004     0.11886    0.002769
-0.033078     -0.6007    -0.21231     0.15175   -0.078132    0.092221    0.025132
-0.027487    -0.63786    -0.17712     0.13333   -0.091287    0.063938      0.0373
-0.027487    -0.65003    -0.13568     0.11097   -0.094905    0.037629     0.03434
-0.033735     -0.6793    -0.10017    0.089919   -0.085696    0.015924    0.021843
-0.04097    -0.76744   -0.090629    0.071831   -0.068595   0.0024402   0.0050711
-0.047219    -0.90721    -0.11661    0.057032   -0.057743  -0.0090702   -0.014003
-0.045574     -1.0404    -0.17054    0.049797   -0.058729   -0.027158   -0.032749
-0.035708     -1.0996    -0.23829    0.049139    -0.07287   -0.051165   -0.047877
-0.014661      -1.046    -0.30867    0.051113    -0.10477   -0.073199     -0.0584
0.011648    -0.88221    -0.38233    0.056046    -0.14489   -0.094576   -0.061689
0.029078    -0.65299    -0.45501    0.062623    -0.16989    -0.11398   -0.056098
0.023159    -0.41555    -0.51355     0.06065    -0.16528    -0.11858   -0.052481
-0.0051238    -0.21034    -0.53855    0.041575    -0.13305   -0.099838   -0.058071
-0.044917   -0.046232    -0.51388   0.0024402   -0.089314   -0.061689   -0.065964
-0.084052    0.087288     -0.4412    -0.05281   -0.041628   -0.012359    -0.06728
-0.11201     0.20108    -0.33333    -0.12779   0.0060577    0.033683   -0.058071
-0.12023     0.30072     -0.2202    -0.22218    0.061965    0.068543   -0.038011
-0.10411     0.38458     -0.1324    -0.31097       0.133    0.090905   -0.016634
-0.065635     0.45529   -0.083723    -0.35076     0.20173     0.10209   0.0001381
-0.013674     0.52731    -0.06728    -0.29321       0.231    0.099127   0.0080309
0.038616     0.61183   -0.069911    -0.13042     0.18496    0.074133   0.0083598
0.084328     0.70194   -0.081421    0.090905    0.061965    0.033354   0.0073732
0.11327     0.76903   -0.095562     0.29546   -0.098522   -0.011372   0.0096753
0.12149     0.77561    -0.11102     0.43063    -0.23763   -0.050836    0.015266
0.1136     0.70095    -0.12121     0.47009    -0.30768   -0.082408    0.018884
0.10538     0.56941    -0.12056      0.4155    -0.30933    -0.10247    0.023488
0.10866     0.43063    -0.10674     0.29875    -0.27381    -0.11233    0.028421
0.11754     0.31848   -0.070568     0.15898    -0.23369    -0.11628    0.034011
0.11787     0.18858   -0.013674    0.029736    -0.20672     -0.1176    0.041904
0.099127   -0.086025    0.058348   -0.072542    -0.19422    -0.11398    0.047495
0.060979    -0.59873     0.13728    -0.14095    -0.18567    -0.10773    0.047166
0.010662     -1.2936       0.207    -0.17877    -0.17416    -0.10346    0.034998
-0.044588     -2.0178     0.23824    -0.19751    -0.16364    -0.10905    0.012306
-0.10148     -2.6548     0.20009    -0.21132    -0.15509    -0.11825   -0.020581
-0.16134     -3.1692    0.086301    -0.23434    -0.14719     -0.1199   -0.054125
-0.2202     -3.5434   -0.076817    -0.27151    -0.13897    -0.11431   -0.073857
-0.26953      -3.721    -0.22908    -0.32281    -0.12582     -0.1074   -0.071884
-0.29749     -3.6151    -0.31557    -0.38201    -0.10444    -0.10082   -0.048534
-0.29716     -3.1616    -0.31689    -0.43199   -0.069911   -0.087669   -0.012359
-0.26     -2.3559    -0.23237    -0.44877   -0.013345   -0.063333    0.023817
-0.18469     -1.2601   -0.068595    -0.41391    0.059005   -0.029131    0.049139
-0.077803  -0.0031506     0.15964    -0.31196     0.13629    0.010991    0.067227
0.042562      1.2327     0.41846    -0.13272     0.20173    0.054401    0.087288
0.15799      2.3114     0.63946     0.12281     0.23758    0.092221      0.1205
0.25665      3.1941     0.74831     0.42142     0.24021     0.11294     0.16293
0.33032      3.9058     0.69109     0.70622     0.21818      0.1136      0.1991
0.38623       4.477     0.45661     0.91834     0.17904     0.10044     0.21752
0.43293      4.8894    0.098798      1.0269     0.14155    0.088275     0.20897
0.47009      4.9588     -0.2623      1.0371     0.13793    0.080053      0.1843
0.48653      4.9588     -0.5073     0.96767     0.18036    0.069858     0.15372
0.47173      4.7674    -0.57209     0.83743     0.22311    0.055059     0.11886
0.42438      4.2892    -0.47639     0.66774     0.19877    0.031381    0.081697
0.35531       3.664    -0.29124     0.50166    0.088932   -0.002164    0.049139
0.27639      2.9445   -0.090958      0.3905   -0.046232   -0.041299    0.030065
0.19943      2.1884    0.070187     0.36123    -0.12023   -0.076488    0.023817
0.13991      1.4613     0.16523     0.40662   -0.085696   -0.094576    0.017897
0.098798      0.8302     0.19417     0.47897    0.036314   -0.090629   0.0040845
0.069858     0.34841     0.18069     0.52271      0.1774   -0.063662   -0.011701
0.048482    0.032367     0.15273     0.50791      0.2731   -0.022883   -0.016305
0.029736    -0.15673     0.13596     0.42471     0.29743    0.019541  0.00046697
0.0044134    -0.30209     0.14122     0.28987     0.26192    0.050455    0.020528
-0.034064    -0.46916     0.15273     0.13464     0.19516    0.063938    0.032696
-0.079448    -0.67733     0.14024   -0.007097     0.12905    0.062294    0.042891
-0.11825    -0.90885    0.088275    -0.11398    0.084986    0.051113    0.050455
-0.14325     -1.1368  -0.0018351    -0.17679    0.060321      0.0373    0.045851
-0.15476     -1.3374    -0.11069    -0.20475    0.043877    0.027434    0.026776
-0.16002     -1.5025    -0.20409    -0.21494    0.038287    0.021186   0.0037556
-0.16528      -1.637    -0.25704    -0.22579    0.035656    0.015924   -0.010715
-0.1666     -1.7494    -0.27677    -0.23467    0.035985   0.0093464   -0.014332
-0.15805     -1.8471    -0.30045    -0.23895    0.037958   0.0050711   -0.013017
-0.13404      -1.931    -0.34846    -0.23171     0.04026   0.0037556  -0.0093991
-0.095562      -1.981    -0.37411    -0.21132    0.036971   0.0090175  -0.0031506
-0.045574     -1.9556    -0.26559     -0.1837     0.02579    0.019541    0.010004
0.011648     -1.8178    0.041904    -0.15969    0.012306    0.036642    0.034998
0.073147     -1.5423     0.47996    -0.15706   0.0021113    0.056046    0.061965
0.12905     -1.1049     0.85026    -0.18205  -0.0080836    0.070516    0.079066
0.16654     -0.5129     0.94596    -0.23138   -0.022554    0.081368    0.085315
0.18463     0.13958     0.68089    -0.29288   -0.037682    0.085972    0.081697
0.18726     0.70194     0.13892    -0.35438   -0.052152    0.082355    0.073476
0.18266        1.04    -0.47705     -0.4093   -0.064649    0.076435    0.064596
0.17444      1.1025      -0.947    -0.44745   -0.075173    0.072818    0.055717
0.16161     0.92491     -1.1302    -0.45403   -0.081421    0.077422    0.046508
0.14188     0.58454     -0.9743    -0.41193    -0.07024    0.086301    0.038616
0.12281      0.1603    -0.47804    -0.31985   -0.034064    0.090248    0.032696
0.10834    -0.30439     0.30467    -0.18699    0.021186    0.082026    0.024145
0.10373    -0.81118      1.2216   -0.030118    0.080053    0.069529    0.015924
0.1057     -1.3689      2.0838     0.12577      0.1284     0.06065    0.015924
0.10538     -1.9431      2.7363     0.26521     0.16523     0.05769    0.024145
0.096825     -2.4433      3.1359     0.37932     0.19516    0.059005    0.033354
0.07512     -2.7574      3.3072     0.46351     0.21588    0.062952    0.035327
0.043877     -2.8051      3.2207     0.50988     0.22739    0.063938    0.032038
0.013622     -2.5601      2.8044     0.50594     0.23035    0.061965    0.029078
-0.0015062      -2.078      2.0463     0.44214     0.21883    0.059005    0.027434
0.0034268     -1.4847      1.0686     0.31881     0.18825    0.055388    0.032367
0.027763    -0.92694    0.097483     0.15142     0.14089    0.050126    0.041904
0.061307    -0.52539    -0.62866   -0.017292    0.087946    0.042891    0.047495
0.094194    -0.32281     -0.9789    -0.13305     0.04322    0.033683    0.046837
0.11952    -0.29683    -0.98548    -0.16265    0.016581    0.024145    0.031381
0.13103    -0.38694    -0.81808    -0.12549 -0.00051963    0.029078   0.0001381
0.12511    -0.50533    -0.70068   -0.074844   -0.013674    0.055388   -0.033406
0.10899    -0.54184    -0.75132   -0.048863    -0.01499    0.096825   -0.055112
0.098141    -0.39121    -0.89307    -0.04985   0.0083598     0.14616     -0.0584
0.10242  -0.0061104    -0.95193   -0.041957     0.06361     0.20338    -0.04393
0.12379     0.55658     -0.8171   0.0063866     0.14944      0.2583   -0.010386
0.15635      1.1643    -0.51454    0.093208     0.25041     0.29875    0.036642
0.18332      1.6668    -0.16364     0.18069     0.33788     0.31322    0.081697
0.18759       1.952    0.091892      0.2162     0.37373     0.30039     0.10801
0.16161       1.996      0.1649     0.16753     0.34084     0.26849     0.10998
0.11491       1.853    0.045193    0.036971     0.25337     0.23067     0.10143
0.061307      1.6136    -0.22349    -0.13141     0.14287     0.20042    0.094523
0.013622      1.3597    -0.55894    -0.28335    0.044864     0.18332    0.093208
-0.01795      1.1574    -0.86018    -0.38003   -0.015319     0.17937    0.098141
-0.0265      1.0459     -1.0348    -0.40864   -0.027487     0.17773     0.10242
-0.017621      1.0236     -1.0414    -0.37576  0.00079584     0.16885     0.10242
-0.0034794       1.043    -0.90326    -0.30538    0.051113     0.15306    0.093208
0.0067154      1.0361    -0.68456     -0.2281      0.1057     0.13169    0.076764
0.0047422      0.9476    -0.45633    -0.16397     0.14122     0.10965    0.058348
-0.011372     0.76344    -0.26592    -0.12154     0.14352    0.087946    0.045851
-0.042944     0.51383     -0.1268    -0.10378     0.11754    0.059005    0.044535
-0.085039     0.25205   -0.039984    -0.10411    0.076435    0.020857    0.056703
-0.12911    0.033683   0.0047422    -0.12286    0.033683   -0.020581    0.069529
-0.16693    -0.11694    0.018884    -0.15805  0.00046697   -0.058729    0.076106
-0.19093    -0.20475    0.010991    -0.20014   -0.027816   -0.082736    0.075449
-0.2008    -0.24717  -0.0090702    -0.24355   -0.051823   -0.085696    0.071502
-0.19784    -0.26296   -0.038339    -0.28992   -0.068924   -0.077803    0.068871
-0.18304     -0.2669    -0.07287     -0.3409   -0.074844   -0.071884    0.072818
-0.16068     -0.2692    -0.10641    -0.38233   -0.070897   -0.070568    0.085972
-0.14226    -0.30637     -0.1393     -0.3797   -0.067609   -0.070568     0.10242
-0.13404    -0.42081    -0.17581    -0.30637   -0.079119   -0.075501     0.11195
-0.13897    -0.60761     -0.2179     -0.1643    -0.11003   -0.088327     0.11228
-0.1541     -0.8194    -0.25802    0.012306     -0.1495    -0.10773     0.10439
-0.17482    -0.99304    -0.29091     0.17575     -0.1883    -0.12713    0.088275
-0.19389     -1.0674    -0.31064     0.29086    -0.21626    -0.13832    0.070187
-0.20442     -1.0065    -0.31459     0.34019    -0.22612    -0.13733    0.058348
-0.20179    -0.81644     -0.2965     0.32539    -0.21823    -0.12286    0.055059
-0.18666    -0.53427    -0.25342     0.26225    -0.19225    -0.10115    0.060321
-0.16331    -0.22415    -0.18304     0.17707    -0.14917   -0.076488    0.068214
-0.13667    0.045522   -0.087012    0.099785   -0.099509   -0.050836    0.074462
-0.11464     0.23791    0.032038    0.042562   -0.056756   -0.030118    0.083342
-0.097864     0.36387     0.17542   0.0047422   -0.029131   -0.018278    0.096825
-0.087012      0.4497     0.33394   -0.016305   -0.019594   -0.014332      0.1113
-0.077475     0.50594     0.48555   -0.027816   -0.028802   -0.012688     0.11689
-0.069253     0.53685     0.59473   -0.031104   -0.045246  -0.0067681     0.10669
-0.059058     0.54803     0.63288   -0.030775   -0.056098   0.0021113    0.090905
-0.048534     0.53093     0.59374    -0.03242     -0.0584    0.010662    0.073804
-0.040641      0.4691     0.49969    -0.03242   -0.053467    0.023488    0.052099
-0.038997     0.35597     0.39215   -0.023869   -0.050507    0.032367    0.024474
-0.048534     0.21851       0.305   0.0001381   -0.050507    0.029736  -0.0018351
-0.061689     0.10636     0.22212    0.040918   -0.051165   0.0077021   -0.018278
-0.063991    0.070516    0.085644    0.091563   -0.057743   -0.030775   -0.027487
-0.04393     0.14484    -0.15114     0.14155   -0.070568   -0.071226   -0.036695
0.0011247     0.32966    -0.46422     0.18562   -0.085696   -0.097207   -0.038668
0.06624     0.59276    -0.75527     0.21883   -0.098851    -0.10214   -0.027158
0.13728      0.8746    -0.90556     0.22969    -0.11332   -0.089643  -0.0061104
0.20009      1.1064    -0.84505     0.20239    -0.12779   -0.066622    0.023817
0.24712      1.2301    -0.58459     0.13366    -0.14193   -0.038997    0.052757
0.27408      1.2255     -0.2133     0.03434    -0.15509  -0.0047949    0.067556
0.28066      1.0963     0.14616    -0.07583     -0.1735    0.021843    0.061307
0.26718     0.84829     0.39215    -0.17219    -0.19488    0.025461    0.035327
0.2389     0.49903     0.48555    -0.23994    -0.20771   0.0030979  0.00079584
0.20239     0.10505      0.4474    -0.27216    -0.19817   -0.033735   -0.030118
0.16622    -0.24454     0.33887    -0.27151    -0.16956   -0.068595   -0.051823
0.13991    -0.48363     0.23561    -0.24125    -0.13207   -0.085039   -0.061031
0.12741    -0.59873     0.18102    -0.19258   -0.097207   -0.080106    -0.06136
0.12642    -0.60531     0.16852    -0.13766   -0.069253   -0.061689   -0.052481
0.13267    -0.53361     0.16326   -0.090629   -0.046561   -0.038668    -0.03538
0.13958    -0.41654     0.11952   -0.062347   -0.024198   -0.019923    -0.01203
0.13958     -0.2817  -0.0028217   -0.044917   0.0040845  -0.0074258    0.011648
0.1284    -0.15081    -0.22908   -0.015648    0.043549 -0.00051963    0.032367
0.10866   -0.038997    -0.51355    0.036314     0.08959      0.0054    0.044206
0.081697    0.054401    -0.73291     0.10472     0.12873    0.014608    0.038616
0.054401     0.13037     -0.7727     0.17181     0.15767     0.02579    0.017897
0.033025     0.19713    -0.59741     0.21423     0.17345    0.038944  -0.0077547
0.016253     0.27145    -0.25934     0.21489     0.18102    0.047495   -0.031433
0.0057288     0.36091     0.13892     0.17806     0.18562    0.037629   -0.052152
0.0073732     0.45759     0.48982     0.12149     0.18989    0.015595   -0.068266
0.018555     0.53323     0.72299    0.069858      0.1968  -0.0028217   -0.074186
0.031052      0.5602     0.83283    0.045851       0.207   -0.007097   -0.069253
0.040918     0.52074     0.85848    0.068871     0.21193   0.0017824   -0.055769
0.047495     0.41155     0.83546     0.15405     0.19877    0.018226    -0.04393
0.048482     0.25435     0.74535     0.29184     0.16589    0.036971   -0.038997
0.044535    0.085315     0.54047     0.46055     0.12182    0.049468   -0.044588
0.036971   -0.055769     0.19746     0.62795    0.077093    0.050784   -0.058071
0.027763    -0.14522    -0.23336     0.75456    0.039931    0.037958   -0.070897
0.020199    -0.18238    -0.63589     0.81869    0.016581    0.022501   -0.079777
0.017897    -0.17975    -0.89635     0.82198    0.002769     0.01132   -0.078461
0.019541    -0.15903    -0.94404     0.77988  -0.0054526    0.010004   -0.065307
0.023817    -0.13963     -0.7875      0.7072   -0.012688    0.012964   -0.042944
0.027105    -0.12944    -0.49547     0.61315   -0.022554    0.011648   -0.022883
0.029078    -0.12516    -0.16331     0.50363   -0.043272   0.0096753   -0.016305
0.027763    -0.12582     0.12017     0.38162   -0.068924    0.011648   -0.015648
0.026776    -0.13141      0.3027     0.24942   -0.087998    0.015924    -0.01203
0.026447      -0.137     0.38985     0.11491    -0.09622    0.022172  -0.0057815
0.027434     -0.1416      0.4622   -0.012688   -0.091287    0.025461  -0.0011774
0.033683     -0.1416     0.60065    -0.11727   -0.076488    0.021514   0.0047422
0.04322      -0.137     0.79929    -0.18008   -0.054454    0.015266    0.017897
0.053086    -0.13075     0.94662    -0.19192   -0.031104    0.014937    0.041904
0.062623    -0.12582     0.90321    -0.15673  -0.0064392    0.023488    0.070845
0.066569    -0.12582     0.60986   -0.094576    0.024474    0.039931    0.097154
0.062952    -0.13108     0.13991   -0.028473    0.061965     0.06065     0.11426
0.053743    -0.13766    -0.32676    0.021843     0.10735    0.086959     0.11787
0.044206    -0.14325    -0.61156    0.047166     0.16161     0.11491     0.10932
0.038287    -0.14687    -0.63885    0.050126     0.21785     0.13464    0.093865
0.03434    -0.14884    -0.45337    0.047166     0.26751     0.13958    0.076764
0.032038    -0.14983    -0.17646    0.049468     0.29546      0.1353    0.064925
0.026447    -0.15081    0.074462    0.060979     0.30204       0.133    0.055717
0.014608    -0.15311     0.22936    0.073804     0.29382     0.13859     0.04881
0.00046697    -0.15114      0.2777    0.084657     0.28329      0.1524     0.04618
-0.010715     -0.1393     0.24778    0.088603     0.27507     0.16918    0.049468
-0.015648    -0.11858     0.18496    0.086301     0.26751     0.17575    0.058676
-0.019594    -0.11102     0.12544     0.07808     0.25665     0.16589    0.077422
-0.020581    -0.14983    0.088275    0.058019     0.24449      0.1432    0.095181
-0.020581     -0.2669    0.071831   0.0093464      0.2412     0.11952     0.10472
-0.021567     -0.4731    0.061636   -0.077475     0.27014      0.1011     0.10439
-0.023211    -0.72732     0.05473    -0.19126     0.33953     0.09255    0.097812
-0.026829    -0.96081    0.047495    -0.30965     0.43161    0.093208    0.085972
-0.024856     -1.1216    0.041575    -0.40042     0.51416    0.095181    0.071502
-0.015319     -1.1835    0.038287     -0.4241     0.55329    0.093865    0.056374
0.00079584     -1.1312     0.03434    -0.35043     0.53619    0.088275    0.043549
0.017568    -0.95522    0.035985    -0.18633     0.47075    0.079395     0.03434
0.031052     -0.6747    0.049139    0.024803     0.37439    0.061307    0.028092
0.044864    -0.33399    0.076764     0.23692     0.25468    0.036314    0.028421
0.060321   -0.002164     0.10439     0.41188     0.11294   0.0090175    0.038616
0.073476      0.2731      0.1136     0.53586   -0.025185   -0.014003    0.056703
0.084657     0.48719     0.10011     0.60131     -0.1324   -0.030447     0.07512
0.09551     0.67399    0.073147     0.59769     -0.2031   -0.038339    0.086959
0.10472     0.86703     0.04322     0.53323    -0.25243    -0.03242    0.090905
0.11064      1.0801    0.013293      0.4224    -0.30571  -0.0087413    0.083013
0.11162      1.3067    -0.01203      0.2879    -0.37543    0.026119    0.060979
0.10801      1.5096   -0.023869     0.14056    -0.45041    0.056703    0.034669
0.10143      1.6343   -0.023869  -0.0051238    -0.51454    0.074791    0.017897
0.093208      1.6478   -0.017292    -0.13503    -0.55039    0.082355     0.01691
0.096167       1.554  -0.0057815    -0.22744    -0.54052    0.084657    0.028421
0.11623      1.3843   0.0083598     -0.2646    -0.48132    0.082026    0.040918
0.15273      1.1847    0.025132    -0.25079    -0.39187    0.080382    0.044864
0.20173     0.99496    0.045193    -0.20771    -0.29551    0.088603    0.043549
0.24547     0.84237    0.063938    -0.16134    -0.20968      0.1034    0.045193
0.27376     0.73647    0.077093    -0.12319    -0.14259     0.11261    0.055388
0.28099     0.66445    0.079066   -0.094905   -0.099509     0.10538    0.062623
0.27343     0.60394    0.068871   -0.075501   -0.084381    0.082684    0.061636
0.25369     0.53159    0.054072   -0.067937    -0.10181    0.053415    0.050784
0.22114     0.42832      0.0373    -0.06432    -0.15542    0.021843    0.029736
0.17378     0.28954    0.023817   -0.053796     -0.2179  -0.0087413  0.00046697
0.1182     0.12774    0.019212   -0.029131    -0.23106   -0.032749   -0.030447
0.059005   -0.038339    0.031052   0.0073732    -0.14095   -0.036037   -0.052481
0.0083598    -0.19422    0.057032    0.044535    0.047824   -0.016634   -0.062018
-0.027158    -0.33103    0.087617    0.062623      0.2481    0.016581   -0.060373
-0.051823    -0.43726     0.11031    0.049797     0.36387    0.046508   -0.054783
-0.06728    -0.50829     0.12346    0.016581     0.35466     0.05769   -0.050179
-0.076488     -0.5471     0.12807   -0.019923     0.25698    0.042891   -0.048863
-0.079119    -0.55992     0.12971   -0.040313     0.14813    0.014279    -0.04985
-0.07879    -0.56354     0.13695   -0.045246     0.08959   -0.010057   -0.051165
-0.07879    -0.60827      0.1524   -0.047548    0.099456   -0.024856    -0.04985
-0.080106    -0.75461     0.16589   -0.065635     0.14451   -0.033078   -0.047219
-0.088327     -1.0124     0.16786   -0.097536      0.1797   -0.036037   -0.048863
-0.1074     -1.3275     0.15832    -0.13371     0.17871   -0.031104   -0.058729
-0.13371     -1.6139     0.13958    -0.15805     0.14385   -0.026829   -0.077146
-0.16298     -1.7951     0.11656    -0.14785    0.094852   -0.027487   -0.095233
-0.18995     -1.8313    0.090577   -0.069582    0.049139   -0.027487    -0.10937
-0.20639     -1.7182     0.06065    0.088932     0.01987   -0.024527    -0.11793
-0.21132     -1.4788    0.025461     0.29415    0.010333    -0.01795    -0.11628
-0.2054     -1.1723   -0.015319     0.48555    0.016253   -0.013674    -0.10346
-0.1962     -0.8707   -0.054783     0.61315     0.02283   -0.019265    -0.08471
-0.18699     -0.6086   -0.082408     0.64603    0.020199   -0.028473   -0.061031
-0.17252     -0.3751   -0.091945     0.58618    0.010662   -0.033735   -0.031433
-0.14391    -0.13799   -0.089972     0.46121  -0.0038083   -0.036037  -0.0034794
-0.097536      0.1284   -0.085696     0.30829   -0.018278    -0.03538    0.026119
-0.03538     0.42865   -0.081092     0.15865   -0.027816   -0.027158    0.056046
0.036314     0.75127   -0.072542    0.036314   -0.028802   -0.014661    0.079724
0.1057      1.0765   -0.059716    -0.04689   -0.019923  -0.0061104     0.09255
0.16326      1.3465   -0.043601   -0.091945   -0.010715  -0.0077547    0.096825
0.19746      1.4814    -0.03242    -0.11562  -0.0097279   -0.019594    0.094852
0.20634      1.4646   -0.033078    -0.13207   -0.013017   -0.031433    0.082684
0.18989      1.3547   -0.054454    -0.14325   -0.013345   -0.038668    0.064925
0.15602      1.2442     -0.1074    -0.15772  -0.0090702   -0.038011    0.055388
0.11985      1.2104     -0.1837    -0.17252  0.00079584   -0.028473    0.063281
0.098798      1.2817    -0.25375    -0.18107    0.018226   -0.004466    0.084328
0.09551      1.4278    -0.29584    -0.17613     0.04618     0.02875      0.1034
0.1011      1.5774    -0.32873    -0.15509    0.083013    0.061307     0.10801
0.10669       1.654    -0.40174    -0.11529     0.12281     0.08367    0.098798
0.1113      1.6099    -0.54545   -0.066293     0.15668     0.08959    0.086301
0.11524      1.4498    -0.74639   -0.026171     0.17246    0.085972    0.083999
0.11886      1.2248    -0.94864  -0.0084125     0.16885    0.076435    0.096825
0.12149      1.0052     -1.0914   -0.022225     0.15076     0.06361     0.11327
0.12281     0.85092     -1.1404   -0.062018     0.13366    0.053086     0.12708
0.12182     0.77659     -1.0795    -0.11497     0.12544    0.050126       0.133
0.12248     0.74765    -0.89537    -0.16166      0.1307    0.051113      0.1353
0.12938      0.6924    -0.56288    -0.18765     0.15931    0.051113     0.13925
0.1432     0.53192   -0.044588    -0.18304     0.20634    0.050455      0.1501
0.1603     0.23331     0.62893    -0.15311      0.2583    0.052099     0.16918
0.1751    -0.15739      1.3311    -0.10247     0.28921    0.048482     0.18989
0.17937    -0.54973      1.8987   -0.023211     0.26652    0.038616     0.20272
0.16852    -0.85623      2.1957    0.082355     0.17575     0.02875     0.20765
0.14944     -1.0217      2.1845     0.19285     0.03434    0.019212     0.20634
0.13464     -1.0443      1.9151      0.2731     -0.1199    0.015266     0.19976
0.12741    -0.97857      1.4797     0.29842    -0.24585    0.020199     0.19055
0.12412     -0.8957     0.98411     0.26784     -0.3136    0.021843     0.17937
0.1113    -0.83124     0.52402     0.20831    -0.31985   0.0090175     0.17049
0.08367    -0.79572     0.17871     0.15043    -0.28433   -0.020252     0.16063
0.044864     -0.8046  -0.0011774     0.10636    -0.23632   -0.054125     0.15076
0.0024402    -0.86215   -0.020581    0.068214    -0.18896   -0.076159     0.13925
-0.040313    -0.95292    0.053086     0.02875    -0.15246   -0.077475     0.12807
-0.079119     -1.0351     0.12544  -0.0097279    -0.13075   -0.063991      0.1136
-0.11003      -1.043     0.13596   -0.045903    -0.11891   -0.045574     0.10077
-0.12549    -0.92694    0.075778    -0.07879    -0.10378   -0.027487    0.093865
-0.12023    -0.70265   -0.010386    -0.10905   -0.082408   -0.010386    0.091234
-0.094576    -0.44515   -0.055112    -0.14062   -0.054125    0.010333    0.091234
-0.057085    -0.23665   0.0014536    -0.17318   -0.016305    0.034998    0.085972
-0.022554    -0.12812     0.16161    -0.19718    0.038287    0.062952    0.071831
0.00079584    -0.12384      0.3415    -0.20244      0.1057    0.086301    0.055059
0.010333    -0.18732     0.37965    -0.18436      0.1649    0.097812    0.042562
0.0080309    -0.26394     0.13826    -0.13536     0.18957    0.097154     0.03434
0.0030979    -0.31294    -0.35603   -0.056098     0.16227    0.087617    0.027434
0.0024402    -0.34715    -0.89339    0.031052    0.096496    0.070845    0.015266
0.0080309    -0.38201     -1.2058     0.10242    0.028421    0.052428  -0.0018351
0.018884     -0.4024     -1.0887     0.14912   -0.011372    0.045522   -0.018278
0.034669    -0.37477    -0.50106     0.17838 -0.00051963    0.049468   -0.026171
0.055388    -0.28663     0.34972     0.19121    0.056046    0.059005   -0.022554
0.074462    -0.15706      1.1025     0.18069     0.12807    0.061965   -0.017621
0.081697   -0.051165      1.4692     0.13991      0.1797    0.053086   -0.013345
0.070187   -0.015976      1.3633    0.078409     0.19121     0.03434   -0.012688
0.040918   -0.038011     0.89992    0.013293     0.15799    0.011977   -0.015319
0.0021113   -0.071884     0.30993   -0.038668    0.094194  -0.0047949   -0.014003
-0.031762   -0.076817    -0.18732   -0.062018     0.02875    -0.01499  -0.0077547
-0.051494   -0.042286    -0.45797   -0.054125   -0.015976   -0.014661  -0.0024928
-0.059058    0.035327    -0.48395   -0.038668   -0.037353  -0.0015062  -0.0047949
-0.053467     0.16523    -0.34221   -0.042615   -0.038997    0.018884   -0.010715
-0.032749     0.34907    -0.15607   -0.067937   -0.025514    0.043549   -0.022225
-0.0008485     0.56349   -0.035051   -0.098193  -0.0028217    0.073147   -0.038011
0.033354     0.76508   -0.032749    -0.12417    0.026447     0.10834   -0.052481
0.060979     0.90913    -0.13667    -0.14062    0.064267     0.14879    -0.06136
0.075449     0.96503    -0.28729    -0.14127     0.10373     0.19055   -0.063991
0.070845     0.90781    -0.40832    -0.12779     0.13169      0.2287   -0.061031
0.050455     0.73779    -0.43758     -0.1005     0.14188     0.24975   -0.056756
0.029078     0.49475    -0.35964   -0.062676     0.13169     0.24613   -0.054454
0.016581     0.24251    -0.21659   -0.015319     0.10538     0.22212   -0.059387
0.014608    0.038287     -0.1005      0.0373    0.076435     0.19022   -0.068595
0.019212   -0.094247    -0.12352    0.079724     0.04881     0.16326   -0.077146
0.024145     -0.1689    -0.34221     0.11261    0.028092     0.14221   -0.076159
0.023159    -0.21297    -0.70068     0.16622     0.01132     0.12313    -0.06728
0.014608    -0.25638     -1.0374     0.26488  -0.0090702     0.10044    -0.05544
-0.0018351     -0.3113     -1.1894     0.39511    -0.03538    0.071173    -0.04985
-0.024198    -0.37247     -1.0822     0.51679   -0.055112    0.027105   -0.057743
-0.053138    -0.42509    -0.76086     0.59506   -0.068266   -0.031762   -0.072542
-0.088327    -0.46324    -0.34912      0.6115   -0.074515   -0.092931   -0.092931
-0.12549    -0.47277    0.018226     0.56875   -0.073857    -0.13601    -0.11661
-0.16002     -0.4195     0.24547     0.48686   -0.066951     -0.1416    -0.13305
-0.18304    -0.28795     0.30335     0.39215    -0.05544    -0.11299    -0.13042
-0.18995    -0.10773     0.20831     0.30171   -0.044588   -0.072213    -0.10806
-0.17942    0.069858    0.020857     0.21883   -0.035051   -0.031762   -0.072213
-0.1564     0.19647    -0.16561     0.14056   -0.027816  0.00079584    -0.03538
-0.12549      0.2412    -0.27019    0.062294   -0.020909    0.021843   -0.014003
-0.089972     0.20601    -0.24487   -0.011372  -0.0077547    0.038616  -0.0093991
-0.050179      0.1136   -0.099838   -0.072542    0.013951    0.050455   -0.012688
-0.0093991   -0.016305     0.10373    -0.10576    0.036971    0.055059   -0.011701
0.02875    -0.17679     0.28362    -0.10641    0.057032    0.056374   0.0047422
0.061636    -0.35603      0.3711   -0.079448    0.067556    0.053086    0.041904
0.093536    -0.53953     0.32243   -0.042615    0.066898     0.04026    0.089919
0.12313    -0.70134     0.13267   -0.013674    0.053743    0.020199     0.13234
0.14912    -0.82137    -0.14456  0.00046697    0.031709 -0.00051963     0.15701
0.16852    -0.94766    -0.42476   0.0040845    0.013293   -0.013345     0.16654
0.18233     -1.1923     -0.6178  0.00079584   0.0030979   -0.011701     0.17115
0.18792     -1.6185    -0.68062  -0.0011774   0.0077021   0.0070443     0.17411
0.18069     -2.1816    -0.64214   0.0044134     0.02875    0.035985     0.17115
0.15799       -2.74    -0.57933   0.0096753    0.061965    0.066569      0.1626
0.12083     -3.1136    -0.55992   0.0034268    0.093536    0.081697     0.14681
0.070187     -3.1784    -0.60629   -0.014003      0.1136    0.073476     0.12577
0.010004     -2.9149    -0.69903   -0.042286     0.12346    0.054072     0.10011
-0.054783     -2.3901    -0.78783   -0.073528     0.13366    0.038944    0.076764
-0.11201     -1.7054    -0.82762   -0.099509     0.15076    0.030394    0.060979
-0.14654    -0.94371    -0.80427    -0.11497     0.17477    0.024145    0.055717
-0.14983    -0.16331    -0.72436    -0.12121     0.20173    0.013951    0.058676
-0.12187      0.5921    -0.59873    -0.12187     0.23002  -0.0015062    0.068214
-0.07287      1.2978    -0.40174    -0.12121     0.25698   -0.016634    0.074462
-0.0093991      1.9391   -0.063004    -0.11628     0.27672   -0.021896    0.079395
0.060979      2.5028     0.45529    -0.10247     0.28559  -0.0077547    0.084328
0.13366      2.9928      1.0903   -0.081092      0.2754    0.018555    0.088932
0.19845      3.4131      1.6826   -0.060373     0.25074    0.044535    0.093208
0.24778      3.7413      2.0588   -0.045903      0.2162    0.059334    0.095181
0.28428      3.9321      2.1269   -0.041299     0.16918     0.06065    0.097483
0.31158      3.9492       1.902   -0.050507    0.092221    0.052099     0.10044
0.33657      3.7831      1.4935   -0.068266   -0.032091      0.0373    0.097812
0.35795      3.4667       1.041   -0.085367    -0.19817    0.016581    0.086301
0.36617      3.0619     0.65656   -0.091287    -0.35964   -0.010715    0.067556
0.34907       2.636     0.39708   -0.083394    -0.43791    -0.04985    0.053086
0.30138      2.2259     0.25139   -0.072213    -0.38003   -0.092603    0.044864
0.22212      1.8326     0.16852   -0.074844    -0.20771    -0.11957    0.035327
0.12248       1.437     0.09551    -0.10773  -0.0031506    -0.12648    0.021186
0.017897      1.0071   0.0096753    -0.17416     0.14681     -0.1245   0.0063866
-0.070897     0.53323   -0.075173    -0.25605     0.20371    -0.12648  -0.0011774
-0.12516    0.052428    -0.13503    -0.32248     0.18529    -0.13108   0.0050711
-0.13897    -0.36721    -0.15213    -0.34945      0.1376    -0.12352    0.018555
-0.12023    -0.65793    -0.12648    -0.32215     0.10538   -0.090629     0.02875
-0.080434    -0.77928   -0.085039    -0.24224     0.11491   -0.043272    0.030394
-0.031104    -0.73981   -0.057085    -0.12976      0.1524   0.0024402     0.02875
0.019212    -0.60268   -0.056098  -0.0054526     0.17674    0.038944    0.031381
0.058676      -0.456   -0.077475     0.11787     0.15668    0.070187    0.039602
0.07216    -0.36096    -0.11201     0.23955    0.080382    0.089919     0.04618
0.057361    -0.33366    -0.14029     0.35597   -0.031104    0.094852    0.048153
0.020199    -0.35603    -0.14983     0.45233    -0.14226    0.091563    0.041247
-0.020909    -0.38727     -0.1416     0.50626    -0.22678    0.084328    0.028421
-0.049192    -0.38858    -0.12417     0.50067    -0.27184    0.071502    0.016581
-0.063991    -0.33399    -0.10181     0.44082    -0.28071    0.057361   0.0096753
-0.072542    -0.22546   -0.069911     0.35367    -0.26855    0.045522   0.0077021
-0.080434   -0.080434   -0.032749     0.26488    -0.25506    0.041904   0.0086887
-0.087669    0.068543   0.0014536     0.18693    -0.25112    0.042233    0.014608
-0.092931     0.19022    0.031381     0.12938    -0.25112    0.046837    0.020199
-0.095233     0.25797    0.061965    0.092221    -0.25013    0.051441    0.015924
-0.085696     0.25896    0.099456    0.075778    -0.24059    0.054072   0.0080309
-0.061031     0.19516     0.14484    0.086959    -0.21395    0.055717   0.0034268
-0.030447    0.090577     0.19187     0.13103     -0.1666     0.05769   0.0047422
-0.0041372   -0.020909     0.23133     0.19779    -0.10872    0.054401   0.0077021
0.014937    -0.11299     0.25139      0.2708   -0.055112    0.044535    0.012964
0.027763    -0.17581     0.24613     0.33262  -0.0087413    0.030723    0.018555
0.04026     -0.2156     0.22081     0.36584    0.035656    0.021843    0.030065
0.050126    -0.24421     0.18102     0.37044    0.080053    0.019541    0.043877
0.050455    -0.27677     0.13366       0.354     0.12642    0.027763     0.05473
0.042233    -0.31393    0.082684     0.32539     0.17477    0.042233     0.05473
0.034998    -0.35372    0.045522     0.29119     0.21851    0.051441    0.044206
0.033354    -0.38957    0.042562     0.25534     0.25074    0.047824    0.025461
0.036642    -0.41654    0.085315     0.22147     0.26685    0.036642   0.0060577
0.04026    -0.43199      0.1672     0.19154     0.26586    0.026776   -0.011372
0.043549    -0.43726     0.26323     0.16918     0.25172    0.020199   -0.024527
0.045193    -0.43989     0.34644     0.15602     0.22936    0.010333   -0.033406
0.042233    -0.44449     0.39609     0.14122     0.19845  -0.0054526   -0.035708
0.030723    -0.45337       0.403      0.1136     0.15076   -0.022225   -0.038668
0.0090175    -0.46554     0.36946    0.073804    0.087288   -0.030447   -0.044917
-0.018936    -0.47738     0.30467     0.02579    0.018884    -0.02946   -0.051494
-0.049192    -0.49053     0.22541   -0.021567   -0.035051   -0.027816   -0.048863
-0.071884    -0.50632     0.15273   -0.059058   -0.065307   -0.038997   -0.034064
-0.086354    -0.52704    0.093865   -0.084052   -0.070897     -0.0584  -0.0090702
-0.095233    -0.55729    0.043549    -0.09326   -0.063991   -0.072542    0.019212
-0.10346     -0.5984  0.00046697   -0.089643   -0.057743   -0.072542    0.039273
-0.10872     -0.6497   -0.024856   -0.071555   -0.057414   -0.057743    0.042562
-0.11003    -0.70693   -0.028802   -0.041299   -0.057414   -0.036366      0.0373
-0.10641    -0.76053  -0.0034794  -0.0097279   -0.051165   -0.015648    0.032696
-0.1005    -0.80427    0.054401     0.02579   -0.040641   0.0037556    0.028421
-0.091287    -0.83091     0.12577    0.065912   -0.030447    0.019541    0.027763
-0.078132    -0.82236     0.18924     0.10406    -0.02354    0.036971    0.031709
-0.056427    -0.76382     0.23561     0.13958   -0.012359    0.058676    0.044864
-0.022225    -0.64642     0.26586      0.1695    0.011648    0.079066    0.066569
0.029407    -0.46718     0.28428     0.18759    0.050784    0.097483    0.095181
0.09551    -0.22842     0.30171     0.18102    0.093865     0.12248     0.12642
0.16326     0.06065     0.32802     0.14056     0.12182     0.15536     0.15273
0.2139     0.36584     0.34907    0.064267     0.12905      0.1843     0.16786
0.23791     0.62893     0.33657   -0.037353     0.12182     0.20206     0.16391
0.23725     0.80389     0.25896    -0.14489      0.1113     0.20667     0.14254
0.21916     0.87295     0.11754    -0.23599     0.10669     0.19581     0.11557
0.1945     0.85026   -0.063991    -0.30078     0.11754     0.17345    0.090577
0.17049     0.77429    -0.24684    -0.33925     0.14418     0.14385     0.07216
0.15175     0.70128    -0.39154    -0.35274     0.17937     0.10932    0.062294
0.13826      0.6684    -0.47606    -0.34254     0.21259    0.079724    0.055717
0.12938       0.673    -0.49842    -0.31031     0.23429    0.056703    0.048482
0.12281     0.68714    -0.46652    -0.27052     0.24054    0.040918    0.040589
0.11853     0.67432    -0.39385     -0.2373     0.22377     0.03434    0.034669
0.1113     0.61348     -0.2965     -0.2202      0.1843    0.032696    0.027763
0.10011     0.50363    -0.19192    -0.22448     0.12873     0.02579    0.021186
0.083999     0.35893     -0.1005       -0.26    0.067556    0.015266    0.018884
0.065583     0.19779   -0.036037    -0.32445   0.0070443   0.0050711    0.026447
0.045851    0.046508  -0.0051238    -0.40503   -0.048863  -0.0031506    0.045522
0.030065   -0.068595  -0.0008485    -0.48034    -0.10115   -0.017292    0.068214
0.018884    -0.13568   -0.015648    -0.52243    -0.14391   -0.041957    0.083342
0.010662    -0.16134    -0.03538    -0.50138     -0.1666   -0.069911    0.083013
0.0044134    -0.16166   -0.047219    -0.40075    -0.16331   -0.090629    0.074791
0.0040845    -0.15114   -0.044259    -0.22316    -0.14127   -0.091287    0.068214
0.0060577    -0.13634   -0.031104   -0.015319    -0.11135   -0.072213    0.065912
0.010004    -0.11562   -0.020581     0.15898   -0.084052   -0.042944    0.063281
0.010004   -0.088327   -0.022554     0.25863   -0.060702   -0.011043    0.051113
0.0047422   -0.068595   -0.027158     0.31092   -0.036695    0.017568    0.028092
-0.0047949   -0.079119  -0.0077547     0.37932   -0.014003    0.036314   0.0034268
-0.01795    -0.14062    0.064596     0.50035   0.0057288    0.044206   -0.012688
-0.03538    -0.25046     0.18957     0.65031    0.021514    0.043877   -0.016634
-0.056427    -0.38431      0.3346     0.77396    0.033025    0.047824   -0.012359
-0.081092    -0.51553     0.45989     0.82428    0.026119    0.058019  -0.0097279
-0.10543    -0.65003     0.53586      0.7789  -0.0067681    0.068214   -0.011043
-0.1199    -0.80131     0.56119     0.65426   -0.058071    0.074791   -0.015976
-0.1199    -0.95522     0.55461     0.48883    -0.10937    0.077422   -0.019923
-0.10148     -1.0601     0.53521     0.33558    -0.14325    0.081368   -0.016963
-0.066951     -1.0513     0.51646     0.23528    -0.15048    0.093208   -0.004466
-0.023211    -0.89701     0.50002     0.19614    -0.12976     0.11261    0.015924
0.02283     -0.6326     0.46022     0.19812   -0.082736     0.13432    0.039602
0.060321    -0.34024     0.35005      0.2162   -0.015648     0.15175    0.064925
0.086301   -0.098851     0.13136     0.22377    0.054072     0.16227    0.085315
0.10603    0.076764    -0.19258     0.20469     0.11261     0.15799     0.09551
0.12182     0.22936    -0.56617     0.15503     0.15043     0.14352    0.095839
0.13366     0.41451    -0.89997    0.086959      0.1649     0.12741    0.095181
0.13958     0.65064     -1.1358    0.011977     0.16523     0.11787    0.091563
0.13366      0.9157     -1.2742   -0.062347     0.15569     0.11327    0.081697
0.11524       1.162      -1.362    -0.13864     0.13201     0.10866     0.06361
0.092221      1.3367     -1.4439     -0.2179    0.093865    0.099456    0.042233
0.078737      1.3991     -1.5275    -0.29617    0.047166    0.080382    0.023817
0.081368      1.3209      -1.561      -0.358   0.0057288     0.05177    0.015266
0.090248      1.0607     -1.4347    -0.39483   -0.020581    0.023159    0.022172
0.090577     0.59966     -1.0914    -0.40536   -0.036366    0.002769    0.040589
0.077093  -0.0087413    -0.58788    -0.40042   -0.047548  -0.0097279    0.047824
0.051441    -0.63392   -0.073199    -0.38036   -0.051823   -0.011701     0.03434
0.023159      -1.121     0.28757    -0.34057   -0.050179  -0.0061104   0.0011247
-0.0015062       -1.34     0.40728     -0.2771   -0.048205  -0.0008485   -0.031433
-0.018936     -1.2443     0.31059    -0.20047   -0.057085 -0.00019077    -0.04689
-0.027816    -0.88156    0.099456    -0.12845   -0.077146   -0.010057   -0.044259
-0.028144    -0.40108    -0.10115   -0.076817   -0.092274   -0.029789    -0.02946
-0.020252    0.010991    -0.19685   -0.051494   -0.086683   -0.048534  -0.0074258
-0.0051238     0.24712    -0.15279   -0.041957    -0.05281   -0.045903    0.010991
0.018884     0.30631    0.012964   -0.035051  -0.0018351   -0.016305    0.020199
0.04881     0.26389     0.24284   -0.025185    0.036642    0.028421    0.021843
0.076435     0.22015      0.4645  -0.0087413    0.048482    0.067227    0.017568
0.087617      0.2481     0.60164    0.013293    0.039273    0.078409   0.0096753
0.080711     0.37899     0.62433    0.047824    0.020199    0.061307  -0.0034794
0.058348     0.60986     0.57697    0.089919 -0.00051963    0.023159   -0.023211
0.033683     0.89992      0.5329     0.12182   -0.010057   -0.022883   -0.038668
0.024803      1.1804     0.52238     0.12807  -0.0057815   -0.062676   -0.038997
0.040918      1.3735     0.52764      0.1034      0.0054   -0.087669   -0.025185
0.080053      1.4386     0.50561    0.052099    0.020857   -0.087012  -0.0090702
0.133       1.382      0.4326   -0.007097    0.035656   -0.055112   0.0037556
0.18759      1.2492     0.32539    -0.06136    0.047166  -0.0031506    0.017239
0.23363      1.0963     0.21456    -0.09918    0.053086    0.043877    0.032696
0.27047     0.98148      0.1353    -0.11299    0.048482    0.070187    0.050126
0.29875     0.94366     0.10768   -0.095233    0.031709    0.069858    0.068214
0.31421     0.97326     0.11656   -0.051494   0.0080309    0.047166    0.085315
0.31289      1.0193     0.12544   0.0063866   -0.010057    0.014608    0.095839
0.29382      1.0259    0.091892    0.063281  -0.0093991   -0.012688    0.090577
0.25534     0.95681  -0.0018351     0.11524   0.0077021   -0.029131    0.071831
0.19812     0.79698    -0.14095     0.15734    0.031052   -0.039326    0.048153
0.12905     0.56612    -0.29058     0.18233    0.052428   -0.043601    0.033683
0.063938     0.29941      -0.407     0.18693    0.062623   -0.044917    0.031052
0.010662     0.02283    -0.46652     0.17806    0.064925   -0.039655    0.028092
-0.026829    -0.22875    -0.47047     0.16391    0.067227   -0.031433    0.017568
-0.055112    -0.41423    -0.42772     0.15536    0.081697   -0.027816   0.0073732
-0.079448    -0.51158    -0.34715     0.15471     0.10406   -0.032749 -0.00051963
-0.10115    -0.53789    -0.23336     0.15372     0.12017   -0.039655   0.0034268
-0.11858    -0.52112   -0.077803     0.14155     0.11853   -0.039984    0.017568
-0.13174    -0.48659     0.15076     0.12248    0.099785   -0.030118    0.036314
-0.13996    -0.44186     0.52172     0.10801     0.07216   -0.014332    0.053743
-0.14062    -0.39089       1.044     0.10636    0.052099  -0.0024928    0.063281
-0.1347    -0.34123      1.5882     0.11097     0.04618   0.0017824    0.068214
-0.12812    -0.30472      1.9516     0.11064    0.048153  -0.0038083    0.073147
-0.1222    -0.29255      1.9842    0.097154    0.054401   -0.015319    0.077751
-0.11891    -0.33662      1.6853    0.066898    0.062623   -0.020581    0.079395
-0.11924    -0.47047      1.1873     0.02579    0.071173   -0.020252    0.081697
-0.12089    -0.68752     0.67465   -0.014003    0.080053   -0.019923    0.082684
-0.11793    -0.93319     0.29513   -0.043601    0.086959   -0.018936    0.080053
-0.10773     -1.1364     0.11261   -0.054783    0.087288   -0.013674    0.073476
-0.087998      -1.239    0.093208   -0.050836    0.083999  -0.0084125    0.064596
-0.059716     -1.2295     0.15109   -0.046232    0.084657  -0.0028217    0.059663
-0.027816     -1.1423     0.19746   -0.043601     0.08663   0.0001381    0.058348
-0.0057815     -1.0131     0.17575   -0.036037    0.083999  -0.0054526    0.049139
0.0021113    -0.86149     0.07808   -0.010386      0.0692   -0.025185    0.027105
-0.00051963    -0.68095   -0.072542    0.041575    0.044864   -0.054125 -0.00051963
-0.010057    -0.46455    -0.22974      0.1113    0.014279    -0.07287   -0.020909
-0.019923    -0.22349    -0.35405     0.18233   -0.016963   -0.068924   -0.029131
-0.02354    0.027105    -0.41621     0.23988   -0.040641   -0.046561   -0.023869
-0.010386     0.27935    -0.41456     0.27474   -0.052481   -0.018278  -0.0054526
0.027105     0.53586    -0.36458     0.28592   -0.047548  -0.0011774    0.022501
0.089261     0.80225    -0.28795     0.27968   -0.029789  -0.0024928    0.048482
0.15832      1.0545    -0.19981     0.25698  -0.0047949    -0.01499    0.065912
0.21259      1.2327    -0.12056     0.21883    0.020857   -0.026829    0.067885
0.23462      1.2699   -0.067937     0.16457     0.04026   -0.033406    0.053415
0.22081      1.1354   -0.058071    0.096825    0.049139   -0.041299    0.030723
0.1774     0.85486   -0.094576    0.028421    0.053415   -0.048534    0.010662
0.11393     0.50166    -0.16035   -0.029131    0.068214    -0.04689   0.0001381
0.047166     0.15536    -0.23336   -0.066951     0.10307   -0.032749  -0.0011774
-0.0047949    -0.12549    -0.28894   -0.077803     0.15306  -0.0011774   0.0044134
-0.028802    -0.31952    -0.30702   -0.068924     0.20732    0.044206    0.010333
-0.028473    -0.43824    -0.27644   -0.054783     0.25698     0.09551    0.016253
-0.01499    -0.50533    -0.18962   -0.038997     0.29513      0.1376     0.01987
0.0011247    -0.53888   -0.055112   -0.013017      0.3244     0.17345    0.021186
0.012306    -0.54348     0.10274    0.034011     0.35236     0.21226    0.027434
0.023159    -0.50073     0.24186    0.093865      0.3984     0.24942    0.036642
0.039273    -0.38891     0.32013     0.12774     0.47206     0.27672    0.046508
0.067227    -0.21856     0.31256    0.098469     0.54902     0.29119    0.054072
0.1011   -0.059058     0.21851    0.010004     0.59078     0.29184    0.059992
0.13037    0.016581    0.070845   -0.086025     0.57105     0.27639    0.065912
0.14583   -0.025185   -0.074844    -0.11957     0.47338     0.24646    0.065912
0.13563    -0.16002    -0.17087   -0.054454     0.31355     0.20667    0.056374
0.10077    -0.28762     -0.1985    0.076435     0.12938     0.16424    0.037629
0.046837    -0.28367    -0.16726     0.20436   -0.049192     0.12313    0.014279
-0.015648   -0.063991    -0.09918     0.26619    -0.20902    0.084657  -0.0087413
-0.078461     0.32999   -0.017621     0.24778    -0.33925    0.050784   -0.029789
-0.13207     0.71937    0.055388     0.17773     -0.4241    0.026447   -0.051823
-0.17515     0.86506     0.10307    0.098141    -0.46061    0.016581   -0.071884
-0.20771     0.64735     0.12412    0.034669    -0.45469    0.015924    -0.08471
-0.22875      0.1307     0.12248  -0.0028217    -0.41884    0.017239   -0.083723
-0.23829     -0.5004     0.10011   -0.020909    -0.36326    0.019212    -0.07024
-0.24026     -1.0664    0.055717   -0.035051    -0.29716    0.020199   -0.053796
-0.23796     -1.4811  -0.0057815   -0.050179    -0.22974    0.016253   -0.040641
-0.22645     -1.7376   -0.072542   -0.072542    -0.16627   0.0057288   -0.031433
-0.20179     -1.8442    -0.12713    -0.10017    -0.11332   -0.013017   -0.022225
-0.16035     -1.8067    -0.16528    -0.11727   -0.066622   -0.031104   -0.014003
-0.095562     -1.6228    -0.20179   -0.095891   -0.023211   -0.038668  -0.0031506
-0.01203     -1.3124    -0.25967   -0.015976    0.014608   -0.033735    0.017568
0.076435    -0.92595    -0.37543     0.12379    0.046508   -0.016963    0.049468
0.15701    -0.52901    -0.58393      0.3027    0.074462   0.0057288    0.087617
0.22607    -0.15476    -0.86215     0.48127    0.093865    0.030394     0.12774
0.29151     0.21226     -1.1042      0.6194     0.10307    0.056374     0.16523
0.35597     0.61282     -1.1894     0.68977    0.095181    0.084328     0.18825
0.41056      1.0469     -1.0555     0.68747    0.068871     0.10702     0.19088
0.4451       1.455    -0.72337     0.62433    0.037629     0.12017     0.17378
0.45134      1.7405    -0.28795     0.52863    0.019212     0.12511     0.13991
0.42832      1.8171     0.12873     0.42405    0.013951     0.12511     0.10274
0.37373      1.6547     0.44312      0.3198    0.016253     0.12412    0.075449
0.29645       1.312      0.6684     0.21489    0.021843     0.12511    0.060321
0.20634      0.9157     0.86243      0.1057    0.020857     0.12971    0.048482
0.11623     0.58421      1.0367  -0.0041372    0.010004     0.13793     0.04322
0.042891     0.37702      1.1331   -0.098522  -0.0018351      0.1376    0.043549
-0.010386     0.28329      1.0426    -0.16232  -0.0061104     0.12248    0.049468
-0.046232     0.24021     0.68517    -0.18403   0.0014536    0.090905    0.062623
-0.068266     0.16687     0.11261    -0.16101    0.021186    0.055388    0.083342
-0.083723  -0.0011774    -0.48724   -0.096549    0.050784    0.032696     0.10866
-0.10214    -0.33958    -0.89866  -0.0054526    0.084986    0.023817     0.12774
-0.13338    -0.89405     -1.0457    0.082026     0.11689    0.021514     0.12971
-0.17975     -1.6047    -0.99666     0.12873     0.12971    0.015924     0.11327
-0.2373      -2.321    -0.85623     0.10899     0.10866   0.0080309    0.078737
-0.30045     -2.8666     -0.6724    0.027763    0.055059   0.0037556    0.034998
-0.35767     -3.0981    -0.45074   -0.085367    -0.01203    0.002769   -0.007097
-0.39615     -2.9409    -0.20014    -0.19751   -0.070568   -0.002164   -0.029131
-0.40963     -2.4207    0.036971    -0.29025     -0.1028   -0.011043   -0.018936
-0.40174     -1.6534     0.21883    -0.35471    -0.10181   -0.019265    0.011977
-0.37543    -0.79375     0.33295    -0.39056   -0.079448   -0.015648    0.043877
-0.33037    0.024145      0.3813    -0.39319   -0.046561   0.0063866    0.070187
-0.26263     0.71838     0.36189    -0.36326    -0.01499    0.042891    0.086959
-0.1689      1.2814     0.27145    -0.30439   0.0077021    0.079724    0.097812
-0.05281      1.7596     0.12017    -0.22678    0.015595    0.099127     0.10801
0.087617      2.2098   -0.051823    -0.14522   0.0070443    0.091234     0.11919
0.24942      2.6686    -0.19028   -0.079777   -0.014003    0.059992     0.13563
0.42503      3.1527    -0.24947   -0.043601   -0.038668    0.019212     0.15339
0.60328      3.6562    -0.18501   -0.037353    -0.06432   -0.018278     0.16654
0.76081      4.1182    0.041904   -0.056098   -0.084381   -0.038339      0.1672
0.86572      4.4125     0.41714   -0.085039   -0.090629   -0.048205      0.1501
0.89531      4.4017      0.8575    -0.10543   -0.080106   -0.058729     0.11787
0.84105      4.0176      1.2396     -0.1051   -0.061689   -0.070568    0.086959
0.71773      3.3131      1.4455   -0.087012   -0.042615   -0.076817     0.06361
0.55527      2.4364      1.4192   -0.058729   -0.034722   -0.077146    0.045522
0.38327      1.5692      1.1821   -0.028144   -0.038668   -0.076159    0.023159
0.22607     0.85125     0.82921   0.0001381    -0.04689    -0.07583  -0.0061104
0.097812     0.34249     0.47141    0.022172   -0.048205   -0.077146   -0.035051
0.010333    0.027105     0.19154    0.036971   -0.033406   -0.072213   -0.057085
-0.038668    -0.15081    0.022501    0.045851  -0.0031506   -0.060045   -0.070568
-0.063004    -0.23566   -0.048863    0.052757    0.033683    -0.04393   -0.070897
-0.07583    -0.24783   -0.062018    0.064267    0.068214    -0.02946   -0.062676
-0.086354    -0.20475   -0.054454    0.081039    0.093865   -0.016305   -0.050507
-0.099509    -0.13864    -0.05281    0.099127     0.11064  -0.0061104   -0.036366
-0.11003   -0.089643   -0.066293     0.10965     0.11557  -0.0090702   -0.025185
-0.11595    -0.11694    -0.08471     0.11228     0.10834   -0.019265   -0.017621
-0.12187    -0.29025   -0.092931     0.10801    0.093208   -0.030118   -0.015319
-0.13503    -0.64411   -0.083394      0.1011    0.078737    -0.03242   -0.018607
-0.15607     -1.1345   -0.061689    0.097154    0.074133   -0.020909   -0.026171
-0.17877     -1.6465    -0.04097    0.093208    0.085972  -0.0015062    -0.03242
-0.19554     -2.0497   -0.030447    0.086301     0.10998    0.023159   -0.044259
-0.20212     -2.2542   -0.030118    0.073804     0.13662    0.046508   -0.060373
-0.1962     -2.2477   -0.034393    0.059334     0.15536    0.065254   -0.071555
-0.18173      -2.079   -0.038668    0.045851     0.15405    0.072818   -0.068924
-0.15805     -1.8172   -0.041299    0.031709     0.12774    0.063938   -0.045903
-0.12483      -1.512   -0.048534    0.012306    0.080053    0.042233   -0.010715
-0.08471     -1.1999   -0.068266   -0.018278    0.023159    0.015595    0.015924
-0.039326    -0.91148     -0.1097   -0.057414   -0.026171  -0.0090702    0.025132
0.0040845    -0.67305    -0.17054   -0.099509   -0.057414   -0.031433    0.019212
0.038287    -0.53263    -0.23862    -0.14095   -0.073528    -0.05281   0.0080309
0.053086    -0.50829    -0.29683    -0.17613   -0.085696   -0.071884  -0.0077547
0.047495    -0.55861    -0.32972    -0.19521   -0.096878   -0.083394   -0.024198
0.024803    -0.61879    -0.32939    -0.19192    -0.10346   -0.078461   -0.039326
-0.0038083    -0.64411    -0.29387    -0.16857     -0.1005   -0.054125   -0.053467
-0.028802    -0.63359    -0.22645    -0.13601   -0.087998   -0.020909   -0.063004
-0.042286    -0.62767    -0.12582   -0.093589   -0.075501   0.0047422   -0.068595
-0.041628    -0.67536   -0.002164   -0.024527   -0.074844    0.014937   -0.068924
-0.033406    -0.78914     0.12149    0.082355   -0.079119   0.0080309   -0.068924
-0.02946    -0.92825     0.21324     0.21292   -0.083723   -0.010386   -0.073199
-0.038997     -1.0249      0.2481     0.33328   -0.083394   -0.031762   -0.080106
-0.0584     -1.0177     0.22048     0.41912   -0.078132    -0.04393    -0.07879
-0.080106    -0.87169     0.14517     0.45496   -0.073528   -0.043272   -0.069911
-0.095233    -0.60004    0.049139     0.44049   -0.073199   -0.034064   -0.060045
-0.092603    -0.25309   -0.042944     0.39544   -0.078461   -0.016963    -0.04985
-0.073528     0.11393    -0.11233     0.34545   -0.085696   0.0050711   -0.030447
-0.039326     0.47173    -0.14456     0.30697   -0.088985    0.019212   0.0017824
0.0070443     0.80455    -0.13568     0.28527   -0.083065    0.020857    0.036971
0.057032      1.0844   -0.092931     0.27343   -0.063991    0.018555    0.061965
0.094194      1.2781   -0.025842     0.26389   -0.027487    0.028421    0.072818
0.10998       1.362    0.065254     0.25139    0.032696    0.059334      0.0692
0.10274      1.3291      0.1751     0.23429     0.11228     0.10702    0.058348
0.085315      1.2005     0.28231     0.20601     0.19581     0.15832    0.051113
0.067885      1.0285     0.33821     0.16786     0.26915     0.20667    0.058676
0.066569     0.88052     0.29974     0.12281     0.32111     0.24251    0.083013
0.081039     0.79731     0.17214    0.079724     0.34315     0.26323     0.11261
0.10472     0.76212    0.002769    0.046837     0.33361     0.26422     0.13464
0.12313     0.69339    -0.14621    0.028092     0.29513     0.23988     0.14056
0.12149     0.49278    -0.22777    0.035327     0.23363     0.18924     0.12642
0.094194     0.13432    -0.23369    0.078409     0.15405     0.12971    0.099785
0.043877    -0.30867    -0.19948     0.14912    0.064596    0.076764    0.071173
-0.014003    -0.71153    -0.17877     0.22179   -0.033735    0.045851    0.051113
-0.060373    -0.95851    -0.19324     0.27178    -0.13108    0.038287    0.048153
-0.082736     -0.9914    -0.22875     0.28757    -0.19291    0.042562     0.06065
-0.07583    -0.82795    -0.25769     0.26817    -0.16594    0.044864    0.079724
-0.046561    -0.53657    -0.26394     0.21982   -0.016305    0.039931     0.10209
-0.011372    -0.20146     -0.2521     0.13366     0.21883    0.032696     0.11919
0.010991     0.12313    -0.22842   -0.004466     0.43819    0.029407     0.12313
0.013951     0.41352    -0.20376    -0.20475     0.55527    0.035985     0.11393
0.0044134     0.66741    -0.17745    -0.45765     0.55132    0.047495    0.098469
-0.0047949     0.87361    -0.14555    -0.71449      0.4645    0.055717    0.084328
-0.0074258      1.0242     -0.1028    -0.91806     0.37274     0.06065    0.080053
0.0024402      1.1387   -0.045246     -1.0266     0.36156    0.061636    0.094523
0.018555      1.2235    0.016581     -1.0055     0.44575    0.057361     0.12182
0.031052      1.2584    0.065254    -0.83782     0.53356    0.057361     0.14287
0.03434       1.215    0.090577    -0.55828     0.48259    0.058348      0.1478
0.030065      1.0657    0.096825     -0.2373     0.23199    0.044535     0.13169
0.019212     0.79567    0.094852    0.050784    -0.13832   0.0083598     0.10143
0.0050711     0.39511    0.098798      0.2481     -0.4731   -0.042286    0.066569
-0.01203    -0.13864     0.11853     0.32802    -0.66516   -0.087341    0.038944
-0.030775    -0.78059     0.14714     0.29316    -0.70331    -0.11299    0.023817
-0.048534     -1.4403     0.16918     0.16326    -0.64477    -0.11398    0.025461
-0.060373     -1.9849     0.16589  -0.0084125    -0.55828   -0.089972    0.041575
-0.064649     -2.2957     0.11919     -0.1587    -0.48626   -0.046232    0.065583
-0.061689     -2.3013   0.0096753    -0.23106    -0.44219  -0.0031506    0.088932
-0.047877          -2    -0.15575    -0.20277    -0.41193    0.028092     0.10538
-0.017292     -1.4574     -0.3432   -0.097864    -0.36556    0.052099     0.11162
0.025461    -0.78388    -0.51026    0.034669     -0.2919    0.076106     0.10636
0.071502    -0.10543    -0.61452     0.15767    -0.18863    0.098469     0.09255
0.11393     0.48818    -0.61156     0.26356   -0.076817     0.11524     0.07808
0.14583     0.97326    -0.44252     0.35104    0.019541     0.12445    0.068543
0.16753      1.3593   -0.051165     0.42635    0.077751     0.12774    0.064267
0.17871      1.6501     0.53586     0.48982    0.098798     0.12379     0.06065
0.18266      1.8434      1.1775     0.53882    0.093536     0.10932     0.05473
0.18332      1.9516      1.6547     0.56415     0.07512    0.083999    0.039931
0.18463      2.0023      1.7744     0.55329     0.04881    0.060979    0.021843
0.18726      2.0102      1.4728     0.50232    0.018555    0.046837    0.013293
0.18825      1.9474     0.85914     0.42043    -0.01499    0.034669    0.020199
0.1797      1.7744     0.14681     0.32966   -0.049521    0.021186    0.036642
0.15997      1.4728     -0.4583     0.25567    -0.07287    0.011648     0.05473
0.1284      1.0637    -0.84538     0.22147   -0.082408    0.010004    0.064596
0.095181     0.60328      -1.019     0.23429   -0.082408    0.013622    0.059005
0.072489     0.16326     -1.0417     0.28527   -0.073528    0.016253    0.044206
0.062623    -0.19817    -0.94799      0.3494   -0.050836    0.014608    0.030394
0.060321    -0.44613    -0.71614     0.40366  -0.0080836   0.0093464    0.025461
0.058676     -0.5836    -0.32215     0.44016    0.050784   0.0060577     0.02579
0.056374    -0.64707     0.20996     0.46022     0.11787     0.01132    0.025461
0.048153    -0.68259     0.78843     0.46581     0.18102    0.019212    0.021514
0.037629    -0.72271      1.2755     0.45463       0.231    0.026119    0.016253
0.025461    -0.77763      1.5475     0.41879     0.26323     0.02579    0.016253
0.013293    -0.83387      1.5379     0.35564     0.28132    0.016253    0.020528
0.0050711    -0.87169      1.2594     0.27112     0.29711 -0.00051963    0.026119
0.002769    -0.86939     0.80915     0.18036     0.31914   -0.017292    0.026119
0.0044134     -0.8148     0.33591    0.098469     0.33953   -0.022554    0.015924
0.0067154    -0.70627   0.0044134    0.035327     0.34611   -0.012359   0.0021113
0.0083598    -0.56223   -0.051165  -0.0015062     0.33295      0.0054  -0.0034794
0.0090175    -0.40864     0.21522   -0.020581     0.30039    0.025132 -0.00019077
0.0086887    -0.27545     0.68879   -0.040313     0.25041    0.038944   0.0044134
0.0054    -0.18469      1.1479   -0.069253     0.19154    0.040589    0.002769
-0.0041372    -0.14983      1.3942    -0.10839     0.13728    0.035985  -0.0054526
-0.020581    -0.16462      1.3406    -0.15509    0.093208    0.024803   -0.013345
-0.042286    -0.21001      1.0302    -0.20639    0.057032   0.0080309   -0.015976
-0.063662    -0.26197     0.59243    -0.25342    0.025461  -0.0038083   -0.012688
-0.076159    -0.30637     0.16819    -0.28927  -0.0038083   0.0014536  -0.0024928
-0.076159    -0.33596    -0.14522     -0.3136   -0.028473    0.021843    0.015924
-0.063991    -0.35471    -0.32051    -0.33564   -0.041299    0.045522    0.037629
-0.041299    -0.36852    -0.38562     -0.3728   -0.035051    0.059663    0.054072
-0.014332    -0.38661    -0.38628     -0.4241   -0.014661    0.062294    0.059334
0.0047422    -0.41029     -0.3649    -0.46488   0.0090175    0.052757    0.053743
0.0086887    -0.42969    -0.34715    -0.46784    0.026447    0.032038    0.040918
0.00046697    -0.43068     -0.3432    -0.42081    0.029736   0.0063866     0.02283
-0.0077547    -0.40963    -0.35504    -0.33991    0.014608   -0.013674   0.0017824
-0.0077547    -0.37313    -0.38069    -0.26328    -0.01203    -0.01795   -0.022883
0.0030979    -0.32643    -0.41522    -0.22053   -0.034064  -0.0024928   -0.045903
0.021186    -0.26986    -0.44909    -0.21922   -0.042286    0.026447   -0.056098
0.04322    -0.20277     -0.4708    -0.24618    -0.03242    0.057361   -0.042615
0.066898    -0.13963    -0.47409     -0.2771   0.0030979    0.084986   -0.014332
0.087946   -0.080434    -0.45765    -0.29551    0.062294     0.11031    0.015924
0.10209  -0.0077547    -0.42344     -0.2942     0.12774     0.12873    0.036971
0.10472    0.096825    -0.38266    -0.27348     0.16885     0.13563    0.049797
0.09255     0.23429    -0.34353    -0.24322     0.16194     0.12708    0.060979
0.073804     0.37636    -0.31656    -0.21889      0.1034      0.1034    0.067885
0.055059     0.47864    -0.30702    -0.21067    0.011977    0.077093    0.073476
0.036971     0.49607    -0.31294    -0.21889   -0.084052    0.056374    0.079724
0.018555     0.40399    -0.32939    -0.23698    -0.15805    0.052428    0.081368
-0.00051963     0.20469    -0.35175    -0.25473     -0.1985    0.061965    0.077093
-0.016634   -0.066293    -0.37313    -0.26032    -0.21231    0.071502    0.064267
-0.022883    -0.33037    -0.38628    -0.25375    -0.20508    0.071173    0.040918
-0.010057      -0.505    -0.38595    -0.23862    -0.17252    0.055388    0.014279
0.020857    -0.53723    -0.37674    -0.21659     -0.1074    0.021843   0.0001381
0.06065    -0.41851    -0.36556    -0.18732   -0.024527   -0.025185   0.0050711
0.094194    -0.19028    -0.35307    -0.15377    0.039273   -0.073528    0.024803
0.1136    0.084328    -0.33629    -0.12516    0.056046    -0.11497    0.046508
0.11787     0.35038    -0.31459    -0.10017    0.032696    -0.14062     0.06065
0.11426      0.5648    -0.28104    -0.07287  0.00079584    -0.14522     0.06624
0.10768     0.69175    -0.23862   -0.039655   -0.012688     -0.1245    0.067227
0.098798     0.70391    -0.19916  -0.0038083  -0.0047949    -0.08175    0.070516
0.087946     0.59868    -0.17778    0.033354    0.017568   -0.024527     0.07512
0.072818     0.40859    -0.17679    0.067227    0.033025    0.028092    0.076435
0.054401     0.19351    -0.18896     0.10044    0.032696    0.056703    0.071173
0.035656    0.039931    -0.19981     0.13136    0.015924    0.057361    0.062623
0.022501     0.02579    -0.19784     0.15076  -0.0090702    0.036971    0.054401
0.022172     0.17411    -0.17318     0.15931   -0.029789  0.00046697    0.047824
0.037958     0.43556    -0.12286      0.1626   -0.038997   -0.038668    0.041904
0.07216     0.70687   -0.054783     0.17148   -0.036366   -0.069253    0.033025
0.11491     0.87262    0.010004     0.19055   -0.026829   -0.085696    0.016253
0.15175     0.84664    0.051441     0.21456   -0.022554   -0.087669  0.00046697
0.16786     0.63847    0.053415     0.23199   -0.028802   -0.085696  -0.0067681
0.15997     0.33558    0.014608     0.23791   -0.036366    -0.08471  -0.0077547
0.13695    0.045193   -0.045246      0.2389   -0.032091   -0.077475  -0.0051238
0.11228    -0.16298   -0.094905     0.24514  -0.0077547   -0.060045   0.0034268
0.094523     -0.2771    -0.10839     0.26389    0.033025   -0.037682     0.01691
0.085315    -0.31097   -0.078461     0.29283    0.079066   -0.014661    0.030723
0.082355    -0.28861   -0.021896     0.32703     0.12511   0.0030979    0.035985
0.077422    -0.22415    0.034998      0.3563     0.17082    0.019212    0.030394
0.064925     -0.1028    0.070516     0.36913      0.2139    0.036642    0.013622
0.046508     0.10735    0.078409     0.35729     0.25139    0.057361  -0.0097279
0.025132     0.39478     0.06624     0.32933     0.28033    0.084986   -0.031762
0.0057288     0.67366    0.047495     0.29908     0.30007     0.11689   -0.045574
-0.010386     0.84105    0.033354     0.27803     0.30434     0.14813   -0.046561
-0.025185     0.84598    0.030065     0.26192     0.28592     0.17246   -0.038997
-0.042944     0.72299    0.038944     0.24416      0.2389     0.18397   -0.034393
-0.065964     0.56908    0.055388     0.22015      0.1672     0.17773   -0.042944
-0.095562      0.4645    0.077093     0.19417    0.087946     0.15767   -0.055112
-0.12516     0.42635      0.1011     0.17411    0.023817     0.13432   -0.064978
-0.14489     0.40892     0.12346      0.1649   -0.010386     0.11458   -0.072542
-0.15114     0.34084     0.13991     0.16359   -0.015648     0.10011   -0.074844
-0.15015     0.17345     0.14879     0.16589  -0.0041372    0.094523   -0.077803
-0.14555   -0.085696     0.14879     0.16918    0.011977    0.088932   -0.084381
-0.13207    -0.38168     0.14385     0.17049    0.025132     0.07216   -0.084381
-0.10313    -0.64214     0.14517     0.17279    0.029078    0.044864   -0.075173
-0.05281    -0.81184     0.16622     0.17477    0.025461     0.01691   -0.052152
0.010991    -0.85985      0.2116     0.17214     0.01691  -0.0067681   -0.022554
0.078737    -0.78421     0.27803     0.16391   0.0070443    -0.02354   0.0021113
0.14188     -0.6086     0.36419      0.1524   0.0001381   -0.036037     0.01691
0.20371    -0.37247     0.47831     0.14122   -0.002164   -0.045246    0.025461
0.2708    -0.12286     0.62499       0.133  -0.0018351   -0.041628    0.038616
0.33756    0.093208     0.80553     0.12544  -0.0008485   -0.016305    0.060979
0.38458     0.22936     0.99957     0.11458  -0.0024928    0.026119    0.090905
0.39281     0.23659       1.164    0.097483  -0.0047949      0.0692     0.11853
0.35268    0.070187      1.2554    0.076435    -0.01499     0.10406     0.13037
0.27047    -0.25572       1.216    0.060321   -0.048534     0.13859     0.12346
0.16852    -0.65793     0.99628    0.055717    -0.12384     0.17444     0.10965
0.067556      -1.024     0.58947    0.060321    -0.24651     0.20173    0.098469
-0.015319     -1.2601    0.065912    0.080711    -0.37346     0.21456    0.093536
-0.073528     -1.3176    -0.46061     0.12248    -0.42246     0.20963    0.089261
-0.10543     -1.1989    -0.90195     0.17575    -0.34057     0.18825    0.079395
-0.11529    -0.94733     -1.2328     0.21456    -0.14983     0.15832     0.06361
-0.11332    -0.62931     -1.4811     0.20667    0.065912     0.12445     0.05473
-0.10707    -0.30439      -1.705     0.12905     0.21982    0.095181    0.054072
-0.092274   -0.004466     -1.9181  -0.0090702     0.28033    0.070845    0.059992
-0.069253     0.27047     -2.0283    -0.16134      0.2629    0.052757    0.068871
-0.036695     0.53455     -1.8862    -0.27282     0.21028    0.037958    0.074462
0.0011247      0.7881     -1.4123    -0.30801     0.15536    0.025461    0.070516
0.039602     0.99595    -0.67272    -0.26624      0.1159    0.014608    0.058676
0.0692      1.1038     0.11228    -0.17449     0.09551   0.0050711    0.044206
0.080053      1.0913     0.68385   -0.073528    0.086959   -0.007097    0.030065
0.068214     0.96602     0.89827   0.0040845    0.085315    -0.02946     0.01987
0.039273     0.75489     0.78284    0.047166    0.087946   -0.063333    0.018226
0.0044134     0.51186     0.49344    0.061965    0.094852    -0.10115    0.018226
-0.020581     0.30302     0.21982    0.059992     0.10077    -0.12911    0.021514
-0.028473     0.18891    0.092221    0.055388     0.10965    -0.14127    0.029407
-0.014332     0.20601     0.13728    0.049797      0.1182    -0.14391    0.045851
0.017239     0.34742     0.29743    0.042233     0.11787    -0.13864     0.06624
0.054072     0.56743     0.48489    0.035327     0.10077    -0.12286    0.083013
0.076764     0.78153     0.62466    0.034669    0.066569    -0.10082    0.093208
0.078409     0.87624     0.67958    0.039602     0.02579   -0.081421    0.099785
0.062952     0.81408     0.66083    0.044206   -0.018278   -0.070568      0.1011
0.039602     0.64899     0.59999    0.044535   -0.060373   -0.064649    0.098469
0.014937     0.45924      0.5306    0.042233   -0.092931   -0.066293    0.096167
-0.0084125     0.28691     0.47305    0.029736    -0.10905   -0.073857    0.092221
-0.027158     0.10702     0.43194   0.0063866    -0.10905    -0.08175    0.083013
-0.037024    -0.11365     0.40497   -0.020581   -0.091945   -0.080106    0.069529
-0.04097    -0.35931      0.3859   -0.036366    -0.06136   -0.066293    0.056374
-0.038668    -0.57472     0.36748   -0.024856   -0.022883   -0.046561    0.049468
-0.034722    -0.70857     0.34479    0.019541   0.0077021   -0.027487    0.050455
-0.036366    -0.74047     0.31717    0.082684    0.019212  -0.0057815    0.056046
-0.043601    -0.65398     0.28987     0.14681    0.013293    0.021843     0.06065
-0.054125     -0.4343     0.27112     0.20075  0.00046697    0.050784    0.062623
-0.06728     -0.1051     0.26619     0.23626    -0.01203    0.077093    0.064596
-0.076817     0.27507     0.28033     0.25041   -0.020581    0.091234    0.068214
-0.073199     0.65327     0.31092     0.24514   -0.026829    0.084328    0.068543
-0.054454     0.98674     0.35893     0.22508   -0.027158    0.059334    0.065254
-0.028802      1.2439     0.41221      0.1968   -0.021896     0.02579    0.059334
-0.0061104      1.4024     0.45003     0.16786   -0.013017  -0.0041372    0.052428
0.013622      1.4478     0.44411     0.14024  -0.0018351   -0.022225    0.045193
0.029078      1.3547     0.38162     0.11787  0.00079584   -0.022554    0.040918
0.036642      1.0788     0.26849    0.099456   -0.014332   -0.011043    0.035985
0.030723     0.61052     0.12774    0.081039   -0.045574   -0.002164    0.018884
0.0083598    0.027105    -0.01499    0.059005   -0.083065  -0.0024928   -0.010386
-0.028802    -0.53756    -0.13305    0.034011    -0.11299   -0.014332   -0.041299
-0.074844    -0.96706    -0.20869    0.010991    -0.13009   -0.024198   -0.062018
-0.11825      -1.189    -0.23862  -0.0038083    -0.13009   -0.019265   -0.068595
-0.14983     -1.1848    -0.22251  -0.0077547    -0.11562 -0.00019077     -0.0584
-0.16002    -0.99205    -0.16462   0.0001381   -0.090629    0.020528   -0.033406
-0.14522    -0.69575   -0.078461    0.016581   -0.046232    0.034669  -0.0034794
-0.11595    -0.39352    0.020199    0.031381    0.011977    0.050126    0.026119
-0.084052    -0.18534     0.12083    0.037629    0.068543    0.075449    0.049468
-0.059058     -0.1222     0.20963    0.035656      0.1057     0.10768     0.06624
-0.038668    -0.17844     0.27376     0.02875     0.11787     0.13464    0.077093
-0.022225     -0.2669     0.29974    0.021514     0.11031     0.14681    0.079066
-0.007097    -0.27381     0.28198    0.017568     0.09551     0.14155    0.070845
0.0086887     -0.1176     0.22903    0.020857    0.084657     0.12774    0.054401
0.032367     0.20568     0.15175    0.039273    0.085972     0.10965    0.033683
0.068871     0.61479    0.055388     0.07512    0.099785    0.086959    0.015266
0.11886      0.9749    -0.05281     0.12215     0.11952    0.061965 -0.00019077
0.17641      1.1735    -0.16134     0.15964       0.133    0.041247   -0.013345
0.23166      1.1795    -0.25572     0.16819     0.13859    0.032367   -0.017292
0.27639      1.0463    -0.32676     0.14188     0.14879    0.044535   -0.010386
0.30598     0.86407    -0.36951    0.091234     0.17641    0.080711      0.0054
0.32111      0.7003    -0.39056    0.043877     0.21094     0.12741    0.022501
0.32473      0.5796    -0.39944    0.024474     0.23594     0.16622    0.035327
0.31519     0.49212    -0.39976    0.037629     0.23298     0.18365    0.043549
0.28592     0.41451    -0.39582    0.071831     0.20239     0.18365     0.04618
0.23462     0.33197    -0.38233      0.1113     0.16523     0.17181    0.048153
0.16687     0.23988    -0.34484     0.14517     0.15503     0.15471    0.054072
0.099456     0.14648    -0.27414     0.16227     0.18693     0.13892    0.057361
0.04618    0.061307    -0.17581     0.15931     0.24383     0.12379    0.048482
0.011977  -0.0087413    -0.06432      0.1353     0.28395     0.10603    0.033683
-0.0084125   -0.069253    0.034998    0.093865     0.27869    0.088932    0.021843
-0.020252     -0.1347    0.094852    0.044535     0.22508    0.074791    0.015266
-0.020909    -0.24158     0.10505   0.0047422     0.14122    0.056374   0.0096753
-0.016305    -0.43068    0.076764   -0.010057    0.054072    0.032367   0.0021113
-0.013674    -0.73981    0.030723      0.0054   -0.016963   0.0047422  -0.0090702
-0.021896     -1.1598   -0.011372    0.035327     -0.0584    -0.01795   -0.020252
-0.044588     -1.6215   -0.038997    0.053086   -0.074844   -0.024856    -0.02946
-0.075501     -2.0286   -0.052481    0.042562   -0.074515   -0.022225   -0.033735
-0.11036     -2.2885   -0.055112   0.0060577   -0.070568   -0.019923   -0.039326
-0.14358     -2.3381   -0.050507   -0.044588   -0.072213   -0.025842   -0.051823
-0.17054     -2.1641    -0.03538   -0.093589   -0.082079   -0.038339   -0.069911
-0.18469     -1.7935   -0.002164    -0.12779   -0.096878   -0.051823   -0.076817
-0.17745     -1.2841    0.055717     -0.1393    -0.11036   -0.057414   -0.056098
-0.14325    -0.72107     0.13366    -0.14226    -0.11529   -0.051823    -0.01203
-0.077475    -0.17745     0.21818    -0.14884    -0.11233   -0.033735    0.045193
0.0077021     0.29513     0.29579    -0.16134    -0.10148   0.0001381     0.10011
0.097483     0.67267     0.35696     -0.1689   -0.089314    0.043877     0.14221
0.17904     0.95517      0.3882    -0.16956   -0.083723    0.090248     0.17378
0.24284      1.1643     0.37768     -0.1689   -0.086683     0.12642      0.1922
0.28132      1.3317     0.32177    -0.16331   -0.087341     0.14024     0.19285
0.29316      1.4583     0.22903    -0.15377   -0.078132     0.12774     0.18003
0.27672      1.4968     0.12248    -0.15015   -0.056427    0.098798     0.15602
0.23659       1.406    0.032038    -0.15476   -0.027158      0.0692     0.12511
0.1843      1.1814    -0.02354    -0.16232  -0.0008485    0.044535    0.094852
0.12905     0.85684   -0.047219     -0.1643    0.015595    0.023159    0.073476
0.081039     0.50265   -0.056427    -0.16068    0.021186   0.0037556    0.059005
0.041904     0.19779   -0.069911    -0.15344    0.018884   -0.022554    0.048482
0.010662   -0.035708   -0.094247    -0.14226   0.0093464   -0.050179    0.042891
-0.013345     -0.2179    -0.12023    -0.12648  -0.0097279   -0.066951    0.042562
-0.035051    -0.38135    -0.13601    -0.10905   -0.034722   -0.066951    0.047495
-0.057743    -0.54151    -0.13996   -0.094905   -0.063991   -0.059058    0.056374
-0.07879    -0.69575    -0.13634   -0.084381   -0.092931   -0.057085    0.061636
-0.099509    -0.82762     -0.1347   -0.078461    -0.11233   -0.063004    0.055717
-0.11858    -0.92398    -0.13996   -0.076817    -0.12352   -0.076488    0.037958
-0.137    -0.97627    -0.14752   -0.077475    -0.13141   -0.090629    0.011977
-0.15476    -0.96739    -0.15344   -0.078132    -0.13864    -0.09326   -0.014332
-0.16166     -0.8684     -0.1518   -0.080106    -0.14983   -0.081092   -0.030118
-0.14884    -0.66878      -0.137   -0.078132    -0.16068   -0.060702   -0.024527
-0.11891    -0.38562   -0.098522   -0.068266    -0.16134   -0.029131   0.0077021
-0.072542   -0.059387   -0.027158   -0.049521    -0.14851   0.0011247     0.05177
-0.01203     0.24547      0.0692   -0.022554    -0.12549    0.013951    0.083342
0.059992     0.44937     0.16424    0.010991   -0.092931    0.013293    0.096167
0.13037     0.48916     0.21752     0.04026   -0.056098    0.014279    0.097812
0.18299     0.34742     0.18562    0.051113   -0.021238    0.025461    0.097154
0.20897    0.076764     0.02579    0.038944  -0.0024928    0.046837    0.097483
0.20601    -0.22283    -0.25802    0.014937  -0.0038083    0.069529    0.091892
0.18266     -0.4537    -0.59972  -0.0077547    -0.01203    0.080711    0.076106
0.14583    -0.55894    -0.92299   -0.019923  -0.0080836    0.077093     0.05473
0.10274    -0.53526     -1.1739   -0.019594    0.018884    0.071173    0.039931
0.059992    -0.41983     -1.3203 -0.00051963    0.072489    0.074791    0.041575
0.026119    -0.26098     -1.3453    0.043549     0.14352    0.092879    0.055388
0.0017824    -0.09918     -1.2486     0.10866     0.21094     0.11721    0.069529
-0.010715      0.0373     -1.0545     0.18365     0.25994     0.13497    0.072818
-0.010715     0.12017    -0.80526     0.24975     0.28165     0.14056    0.065254
0.00079584     0.12281    -0.52605     0.29447      0.2708     0.13333     0.05769
0.013622    0.047166    -0.18205     0.32309      0.2389     0.12281    0.056703
0.027434   -0.060045     0.33197     0.35137     0.20831     0.11721    0.067227
0.043877    -0.14391      1.0453     0.39905     0.19647     0.12478    0.080382
0.061965    -0.17909       1.829     0.46779     0.21193     0.14583    0.089919
0.080382    -0.16693      2.4482     0.54112     0.24712     0.17246    0.096825
0.092221    -0.11497      2.6735     0.58158     0.28823     0.19351     0.10044
0.093208   -0.034722      2.4124     0.55691     0.31684     0.20272    0.093865
0.08367    0.070187      1.7888     0.45266     0.32309     0.19384    0.076106
0.063938      0.1991      1.0759     0.27573     0.30598     0.16622    0.047166
0.04322     0.34512     0.52501    0.055059     0.27672     0.12642    0.012635
0.031052     0.49048     0.24416    -0.15903     0.24778     0.08959   -0.019594
0.032367     0.60723     0.18693    -0.31459     0.21785    0.061636   -0.040313
0.041904     0.67201     0.23857     -0.3797     0.18299    0.046837   -0.045574
0.05769     0.67563     0.30204    -0.35997      0.1455    0.036971    -0.04393
0.068543     0.63091     0.33164    -0.29091     0.10866    0.020199   -0.040313
0.06361     0.56579     0.33525    -0.21691    0.086301   0.0001381   -0.042615
0.042562      0.5089     0.33065    -0.17515    0.094852   -0.017621   -0.052152
0.017239     0.46647      0.3119    -0.17613     0.13958   -0.030775   -0.065635
0.0021113     0.43128     0.26784    -0.21527      0.2093   -0.040641   -0.075501
0.0037556     0.39412     0.22212    -0.27315     0.28329    -0.04689   -0.077475
0.017897     0.36485     0.21949    -0.32117     0.33197   -0.048205   -0.067609
0.032696     0.34742     0.26422    -0.31788     0.31782   -0.052481   -0.051165
0.040918     0.32374      0.3119     -0.2304     0.21719   -0.063991   -0.040313
0.04026     0.26619     0.29974   -0.038997     0.03434   -0.083394   -0.038997
0.035656     0.16063     0.19581     0.24251    -0.19028    -0.10313   -0.046232
0.029078    0.017239    0.012964     0.55757    -0.39713    -0.11168   -0.054783
0.023159    -0.13634    -0.20968     0.82625       -0.53     -0.1005   -0.053796
0.015595    -0.26361    -0.42903     0.98115    -0.56584   -0.077803   -0.032749
0.0060577    -0.34221    -0.60695     0.99628    -0.50862   -0.057085    0.002769
-0.0031506    -0.37576    -0.71844     0.89301    -0.39648   -0.045574    0.038287
-0.0080836    -0.38168    -0.75001     0.71345    -0.26986   -0.040313    0.071173
-0.0047949     -0.3728    -0.71252     0.50528    -0.16298   -0.032091    0.097812
0.010004    -0.34912    -0.64346     0.30631   -0.092931    -0.01795     0.10899
0.033354    -0.30242    -0.59084     0.14747   -0.055769  -0.0057815    0.099785
0.056703    -0.22349    -0.57571     0.04322   -0.037353   -0.004466    0.068543
0.070187    -0.11299    -0.57998  -0.0061104   -0.024527   -0.018278     0.02875
0.069858     0.01132    -0.57012   -0.019923    -0.01203   -0.041299  -0.0031506
0.056046     0.12248    -0.51881   -0.021567   0.0011247    -0.06432   -0.024856
0.03434     0.20502    -0.42903   -0.030775   0.0060577   -0.075501   -0.038011
0.0057288     0.26257    -0.33103   -0.067609  -0.0008485   -0.071555   -0.044259
-0.024198     0.32111    -0.26296    -0.12779   -0.019265   -0.059058   -0.042286
-0.053467     0.39149    -0.24322    -0.18732   -0.040313   -0.045903   -0.031762
-0.082408     0.41418    -0.26493    -0.22579   -0.050836   -0.032091   -0.015976
-0.12089     0.30007    -0.30933    -0.23763   -0.046561   -0.018607  -0.0015062
-0.17712   -0.022225    -0.35043    -0.22974   -0.026829  -0.0097279    0.014937
-0.24947    -0.57801    -0.36951    -0.20606    0.011648  -0.0064392    0.032696
-0.32906     -1.2676    -0.35372    -0.17054     0.06361  -0.0008485    0.049139
-0.39976     -1.8922    -0.30045    -0.13568     0.11064    0.014937    0.055059
-0.44811     -2.2694    -0.21724    -0.11497     0.12905    0.037958    0.049468
-0.46356     -2.2996    -0.12154     -0.1222      0.1113    0.058676    0.037958
-0.43956      -1.977   -0.029131    -0.15213    0.070187      0.0692    0.031709
-0.3797     -1.3821     0.05769    -0.19258    0.018555    0.068871    0.036314
-0.28696    -0.64576     0.14188    -0.23369   -0.025842    0.063938    0.052428
-0.16693    0.099456     0.22344    -0.26789   -0.043601    0.063281    0.074791
-0.029789     0.74141      0.2948    -0.28269   -0.032091    0.069858     0.10143
0.11393      1.2163     0.34249    -0.27151  -0.0008485     0.07808     0.12675
0.25468      1.5359     0.35992    -0.23928    0.031709    0.083013     0.14352
0.38886      1.7908     0.35959    -0.19554    0.058019    0.083013     0.15109
0.51186      2.0848      0.3711    -0.14621    0.074133    0.077093     0.15569
0.61578      2.4749     0.42109   -0.091616    0.083999    0.073804     0.16095
0.69569      2.9261     0.50659   -0.028473    0.098798    0.081039     0.16161
0.74173       3.277     0.59539    0.047824      0.1284     0.09551     0.15569
0.74009      3.3197     0.64932     0.12313     0.16128     0.10866     0.13958
0.67991      2.9047     0.63387     0.16194      0.1774     0.11623     0.12083
0.56645      2.0539     0.54014     0.14089     0.16819     0.12248      0.1034
0.42569      0.9703     0.40432    0.063938     0.14221      0.1284    0.091892
0.28954   -0.049192     0.28066   -0.034064     0.10834     0.12905    0.084986
0.18529    -0.74902      0.2014   -0.084052      0.0692     0.12182    0.076764
0.11886     -1.0378     0.15701   -0.027487    0.018555     0.10209    0.062952
0.082355     -0.9766      0.1011     0.12116   -0.047877    0.068543    0.044864
0.060979    -0.70101  -0.0097279     0.29184    -0.12878    0.028092    0.023817
0.04322     -0.3409    -0.18271      0.4053     -0.2054   -0.015976      0.0054
0.029078  -0.0038083     -0.3899     0.42471    -0.25473   -0.054783    -0.01203
0.024474     0.26126     -0.5859     0.34972    -0.26986   -0.082079   -0.025185
0.030723     0.46088    -0.73061     0.21423    -0.25506   -0.093589   -0.034393
0.046508     0.62564    -0.80296    0.067227    -0.21626   -0.090629   -0.038668
0.065583     0.79369    -0.80033    -0.04689     -0.1643    -0.08175   -0.035708
0.079724     0.99496    -0.73652    -0.10346    -0.11003   -0.077803   -0.028802
0.088275      1.2271    -0.63918    -0.10543   -0.064978   -0.073528   -0.018936
0.10011      1.4432    -0.51947   -0.069253   -0.036037   -0.062676   -0.010386
0.11426      1.5471    -0.35833   -0.017621   -0.025514   -0.048863  -0.0093991
0.11919      1.4366     -0.1347    0.035656   -0.025842   -0.041957   -0.021238
0.10538      1.0699     0.13201    0.082026    -0.02354    -0.04097   -0.045246
0.072818     0.48522     0.36748     0.11853   -0.010715   -0.038011   -0.067609
0.029407    -0.22612     0.50035     0.13958    0.014608   -0.032091   -0.076488
-0.018607    -0.94174     0.49541     0.14418    0.052099   -0.023869   -0.075173
-0.069253     -1.5626      0.3711     0.13892    0.094523  -0.0093991   -0.066951
-0.11924     -2.0168     0.19351     0.12149     0.12905    0.010004   -0.061689
-0.16989     -2.2536    0.050455    0.092879     0.14484     0.03434    -0.06136
-0.2156     -2.2625  -0.0011774    0.065583      0.1432    0.059005   -0.057414
-0.25079      -2.076    0.042233     0.04881     0.12938    0.078409   -0.049521
-0.26756     -1.7698     0.14089    0.049139     0.11952     0.08367   -0.036366
-0.26394       -1.44     0.25534    0.065583     0.12281    0.075778   -0.017292
-0.24487     -1.1558     0.34611    0.096496      0.1432     0.06361    0.002769
-0.21626    -0.92168     0.37011      0.1376     0.18102    0.063938    0.021186
-0.17613    -0.69015     0.30335      0.1672     0.22936    0.082684    0.036314
-0.12286    -0.40766     0.15043      0.1695     0.27211     0.11327    0.044206
-0.061689   -0.051823   -0.053467     0.14484     0.29612     0.14287    0.042562
-0.00019077     0.35071    -0.25375     0.10801     0.29809     0.16359    0.039931
0.057032     0.74535    -0.40207    0.076106     0.28691     0.17214    0.045851
0.10801      1.0614    -0.48626    0.056374     0.27145      0.1695    0.057361
0.14977      1.2452    -0.55367    0.055717      0.2606     0.16523    0.067885
0.18069      1.2982    -0.67766    0.067227     0.25698     0.15503    0.073476
0.19845      1.2531    -0.88057    0.074462     0.25633     0.13629    0.080053
0.20568      1.1364     -1.0565    0.060321     0.25139     0.11458    0.083999
0.20436     0.97227     -1.0055    0.018555     0.23626    0.092221    0.083342
0.19516     0.79402    -0.58064   -0.043601       0.207    0.068543    0.077093
0.17904     0.64735     0.19285    -0.11464     0.16885    0.047166    0.071502
0.15503     0.56382      1.0792    -0.18534     0.13662    0.030394    0.061307
0.11952     0.52731       1.774    -0.25408     0.11919     0.01691    0.050126
0.076106     0.48916      2.0611    -0.30867     0.11623   0.0093464    0.042562
0.031381     0.41944       1.876    -0.32643     0.11491   0.0040845    0.036642
-0.0051238     0.32374      1.3225    -0.28663    0.093208  -0.0038083    0.030065
-0.02946     0.22377     0.60723    -0.17285     0.03434   -0.018936    0.018555
-0.049192     0.14221   -0.052481  -0.0074258   -0.059716   -0.049521  0.00079584
-0.066293    0.087946    -0.50106     0.15471    -0.16956   -0.095562   -0.016634
-0.08175    0.066569    -0.67864     0.25665    -0.28137    -0.14884   -0.030447
-0.093589    0.075778    -0.60991     0.26849    -0.39385    -0.19192   -0.039655
-0.1005     0.11064    -0.36293     0.20206    -0.49481    -0.20968   -0.043272
-0.10346      0.1626   -0.019265     0.10209    -0.56749    -0.20014   -0.036695
-0.10707     0.20173     0.32539    0.026447    -0.59248    -0.17022   -0.024198
-0.11529     0.20042     0.58092   0.0070443    -0.56255    -0.13207   -0.011043
-0.13042     0.15372     0.69175    0.037629    -0.48428   -0.087669  -0.0024928
-0.15213    0.078409     0.62268    0.093865    -0.37642   -0.042286    0.002769
-0.17219   -0.011372     0.36518     0.14385    -0.26296  -0.0018351    0.011977
-0.18074    -0.14127   -0.048534     0.16523    -0.16758     0.02875    0.030723
-0.17054    -0.35701    -0.54019     0.15175    -0.10641    0.051113    0.058676
-0.13634    -0.65135     -1.0075     0.11491   -0.079119     0.06624    0.088932
-0.083394    -0.98449     -1.3597    0.073476   -0.066622    0.076435     0.11623
-0.021238     -1.3134     -1.5531    0.029407   -0.048534    0.079724     0.13695
0.0373     -1.5797      -1.588   -0.020581   -0.015976    0.079395     0.15799
0.085315     -1.7356     -1.4814    -0.08175    0.023488    0.081368     0.17608
0.11656     -1.7609     -1.2275    -0.15673    0.049139    0.088603     0.18562
0.12971     -1.6718    -0.79408    -0.24388    0.052428    0.096825     0.18102
0.133     -1.4916    -0.16495    -0.33202    0.044864     0.10768     0.16918
0.13234     -1.2361       0.624    -0.39187    0.067227     0.12215     0.15832
0.13432    -0.91642      1.4495    -0.38891     0.16063     0.14254     0.15832
0.1432    -0.54381      2.1368    -0.28992     0.32769     0.17904     0.16885
0.15602    -0.13733      2.5314   -0.081421     0.52665     0.23495     0.18661
0.17345     0.25337       2.565      0.2116     0.69602     0.30105     0.20502
0.19285     0.56053      2.2706     0.53126     0.78876     0.35926     0.21324
0.20601     0.73055      1.7642     0.80586     0.78547     0.38919     0.20798
0.20305     0.74173      1.1864      0.9703     0.70063     0.37669     0.18628
0.1774     0.60591     0.66577      1.0009     0.57401      0.3267     0.15175
0.13103     0.36387     0.27968     0.91768     0.44246     0.25698     0.11524
0.071831    0.081039    0.040918     0.77659      0.3267     0.18397    0.079395
0.0070443     -0.1883   -0.082736     0.63715     0.23626     0.12083    0.040918
-0.056427    -0.41851     -0.1495     0.53586     0.17016    0.074791   0.0030979
-0.11398    -0.58919     -0.2156     0.47305     0.12675    0.046508     -0.0265
-0.1643     -0.6747    -0.31426     0.43227     0.10307    0.027763   -0.047548
-0.20573    -0.65595    -0.44515      0.3882    0.092221   0.0067154   -0.063333
-0.235       -0.53    -0.57538     0.32013    0.079395   -0.016305   -0.073857
-0.24322      -0.309     -0.6622     0.22048    0.063281   -0.027158   -0.076817
-0.22678   -0.022883    -0.67437    0.097154    0.047495   -0.018607   -0.066293
-0.18699     0.27606    -0.61484   -0.038339    0.032038    0.010662   -0.043272
-0.13404     0.52435    -0.51684    -0.16923    0.024474    0.049797   -0.007097
-0.078132     0.67333    -0.41226    -0.27414     0.02875    0.087288    0.032696
-0.027487     0.70687    -0.31821    -0.33564    0.039602     0.11261    0.072818
0.012306     0.63156    -0.22612    -0.34451    0.049797      0.1136     0.10472
0.045522     0.49048    -0.13141    -0.30965    0.047824    0.087288     0.12149
0.082026     0.35597   -0.041628    -0.25868    0.025461    0.049468     0.12083
0.1284     0.29776    0.025461    -0.22053   -0.019594    0.011977     0.11228
0.17542     0.32243    0.058019    -0.21264   -0.074844   -0.012688    0.089919
0.21357     0.36715     0.05177    -0.23434     -0.1222   -0.025514    0.054401
0.23528      0.3711    0.016253    -0.27512    -0.14818   -0.031104    0.014937
0.23396     0.31914   -0.038011     -0.3307    -0.15542   -0.034064   -0.016963
0.20634     0.21653    -0.10477    -0.39713    -0.15015   -0.041299   -0.041299
0.15832     0.08663    -0.18205    -0.46554    -0.14456   -0.055769   -0.062676
0.098141   -0.057414    -0.26296    -0.52802    -0.15147   -0.074844   -0.084381
0.036314    -0.23303    -0.33136     -0.5688    -0.17449   -0.093918    -0.10214
-0.016305     -0.4583    -0.36162    -0.56091    -0.20902    -0.10214    -0.11628
-0.049521    -0.70857    -0.33564    -0.47376    -0.23928   -0.098522    -0.13174
-0.057414    -0.93352    -0.24553    -0.29683    -0.25901   -0.093918    -0.14259
-0.042944     -1.0845   -0.080434   -0.047219    -0.26493   -0.098522      -0.137
-0.01203     -1.1305     0.16194     0.23791       -0.26    -0.10806    -0.11266
0.020857     -1.0674     0.44575     0.50725    -0.25934     -0.1097   -0.075173
0.052757    -0.90195     0.71082     0.71641    -0.28335   -0.093918   -0.033406
0.07808     -0.6599     0.88315     0.84401    -0.33136   -0.071226   0.0044134
0.09551    -0.37839      0.9065      0.8769    -0.36852   -0.055112    0.027434
0.1057   -0.090958     0.79041     0.82264    -0.33728   -0.049192    0.033354
0.11491     0.15602     0.57039     0.70424    -0.20508   -0.051823    0.030394
0.12478     0.30664     0.29678     0.54507   -0.015976   -0.060373    0.028092
0.13497     0.33229    0.034669     0.35827     0.13563   -0.075501    0.023488
0.14089     0.25698    -0.14687     0.15898     0.16918   -0.099838   0.0083598
0.13826     0.14024    -0.20902   -0.028473    0.082355    -0.12713   -0.015976
0.12149    0.057032    -0.17877    -0.16462   -0.065307    -0.14358   -0.036695
0.099127    0.055388    -0.13437    -0.22086    -0.20179    -0.14555   -0.049192
0.080711     0.13793    -0.15542    -0.20047    -0.28302    -0.13207   -0.054125
0.072818     0.27211    -0.25605     -0.1268    -0.29288    -0.10905   -0.050836
0.074791     0.40793    -0.37872   -0.028802     -0.2452   -0.076159   -0.042286
0.082026     0.50495    -0.44219    0.068871    -0.17054   -0.039984   -0.024527
0.088275     0.53882     -0.3945     0.14714    -0.10576    -0.01499   0.0001381
0.087288     0.51218    -0.26032     0.18858   -0.074186  -0.0034794    0.021843
0.077093     0.45069     -0.1074     0.18628   -0.074186  0.00079584    0.031052
0.06065     0.38853  -0.0018351     0.14287   -0.086025   0.0037556    0.032367
0.04026     0.35038    0.013293    0.067227   -0.078461     0.01132    0.032038
0.017897     0.34446   -0.053138   -0.012359   -0.028802    0.020857    0.032696
-0.0051238     0.36058    -0.15706   -0.068924    0.056703    0.023817    0.032038
-0.025185     0.37834    -0.23467   -0.088327     0.14813    0.016581    0.033025
-0.038339     0.37866    -0.24355   -0.077146     0.20469   0.0063866    0.031052
-0.046561     0.35038    -0.18238   -0.052481     0.21193   0.0001381    0.027763
-0.055112     0.28987   -0.090629   -0.024527     0.18924   -0.002164    0.027434
-0.066293     0.20404   -0.007097   0.0001381     0.16852   0.0014536    0.032038
-0.078132      0.1057    0.044535    0.011977      0.1751    0.017568    0.038944
-0.085696    0.018226    0.058676   0.0050711     0.20338    0.039602    0.046837
-0.089314    -0.04393    0.042233   -0.027487     0.22706    0.059005    0.055717
-0.088985   -0.074844  -0.0024928   -0.087669     0.23166    0.072818    0.064267
-0.08471   -0.081421   -0.073857    -0.16364     0.21785     0.08663     0.07512
-0.078132    -0.10641    -0.15706    -0.22941      0.1945    0.098798    0.085972
-0.071884    -0.19192    -0.25145    -0.27019     0.17115     0.10932    0.096496
-0.067609    -0.33596    -0.38003     -0.2919     0.15569     0.11754      0.1034
-0.062676    -0.50007    -0.55335    -0.30735     0.14846     0.12215     0.10603
-0.05544    -0.62537    -0.74442    -0.32676     0.14747     0.11754     0.10998
-0.045246     -0.6576    -0.88846    -0.34024     0.15142     0.10768     0.12642
-0.028144     -0.5665    -0.87596    -0.33761     0.15931      0.1011     0.15043
-0.0038083    -0.36688    -0.59676    -0.31294      0.1751     0.10209      0.1695
0.023817   -0.097536   -0.056756    -0.27085     0.19647     0.10834     0.17246
0.05177     0.19812     0.58223    -0.22185     0.21028     0.11491      0.1626
0.072818     0.48127      1.0969    -0.17613     0.20206     0.11787     0.14813
0.084986     0.73121      1.3465    -0.14752     0.17181     0.11557     0.12708
0.087617     0.94201      1.3084    -0.13766     0.12609     0.11261     0.10044
0.081697      1.1005       1.065    -0.14193    0.083999     0.11327    0.080382
0.070187      1.1883     0.74141    -0.15213    0.056374     0.11853    0.073147
0.059663      1.1995     0.44312    -0.16528    0.044206     0.11919    0.072818
0.053415      1.1291     0.22804    -0.18337    0.040589     0.11458    0.073147
0.053086     0.98707     0.10406     -0.2031    0.033354     0.10834    0.073147
0.054072     0.81343     0.05473    -0.21428    0.018884     0.10801      0.0692
0.04881     0.65458     0.04881    -0.21001   0.0021113     0.11261    0.057032
0.036971     0.54376    0.053415    -0.18732   -0.017621     0.11886    0.045851
0.024474     0.47568    0.047824    -0.15509   -0.037353     0.12609     0.04026
0.018884     0.40793    0.021514    -0.12253   -0.049521     0.12774    0.040918
0.019541      0.2925   -0.026829   -0.099838    -0.04689     0.11689    0.048153
0.027434      0.1284   -0.078461   -0.087341   -0.031433    0.099456    0.056374
0.039931   -0.048534    -0.11464   -0.084052   -0.011701    0.085644    0.061307
0.055717    -0.18797    -0.12121   -0.084052   0.0050711    0.083342     0.06624
0.071173    -0.24947    -0.10181   -0.080763    0.014279    0.087946    0.071831
0.089919    -0.22514   -0.075173   -0.068924    0.011977    0.097154    0.082026
0.11294     -0.1393   -0.057414   -0.048534   0.0067154     0.10669    0.094194
0.13563   -0.027487   -0.052152   -0.025842      0.0054     0.11393     0.11064
0.14616    0.070516   -0.046232  -0.0057815     0.01987     0.11064     0.12544
0.13925     0.11327    -0.02354    0.012635    0.049139    0.097154     0.13037
0.1136    0.074133    0.016581    0.029736    0.083342    0.082355     0.12346
0.072818   -0.037024     0.06065    0.047166     0.10834    0.073476     0.10307
0.024474    -0.19356    0.095181    0.062623     0.12313    0.069858    0.076435
-0.02354    -0.35339     0.10965    0.074462      0.1284    0.067227    0.048153
-0.062018    -0.46718    0.099127    0.084986     0.12905    0.058019    0.017897
-0.089972    -0.49251    0.072489    0.096825     0.12774    0.038944   -0.018278
-0.10609    -0.42673     0.04026     0.10998     0.12346     0.01132   -0.059716
-0.11365    -0.32018    0.015266     0.12281     0.11721   -0.016305   -0.092931
-0.11201    -0.22415   0.0014536     0.12905     0.10899   -0.041628    -0.10806
-0.094905    -0.16265  -0.0038083     0.13333     0.10505   -0.056756    -0.10641
-0.060702    -0.11924 -0.00019077     0.13925     0.10603   -0.053467   -0.088656
-0.011372   -0.068595   0.0083598      0.1478     0.10242   -0.036366   -0.060045
0.044535     0.01132    0.017897     0.15569    0.083999   -0.020252   -0.034064
0.10274     0.13662    0.031709     0.15799    0.049468   -0.013674   -0.019923
0.15799     0.31421    0.044864     0.15471   0.0096753   -0.016634   -0.016963
0.20272     0.52633    0.050784     0.15306   -0.024527   -0.031433   -0.021896
0.23002     0.72792    0.038944     0.15602   -0.050836   -0.049521   -0.026829
0.23922     0.87295  -0.0064392     0.15306   -0.067937   -0.061689   -0.024527
0.23067     0.92985    -0.10115     0.13497   -0.080106   -0.063991   -0.014661
0.20963      0.8986    -0.23895    0.095181   -0.092274   -0.066293  -0.0067681
0.18036     0.80027    -0.38924    0.040918    -0.10707   -0.074515   -0.007097
0.14517       0.673    -0.50994   -0.015648     -0.1176   -0.087669   -0.015319
0.10965     0.55428    -0.56354   -0.047548    -0.11957    -0.10773   -0.028144
0.078409     0.45003    -0.52967   -0.022883    -0.10477    -0.12286   -0.044588
0.05473     0.34841    -0.40404    0.090577   -0.074844    -0.11891   -0.057414
0.044864     0.24087    -0.19324      0.2948   -0.044259   -0.096878   -0.063004
0.04322      0.1307     0.10669     0.54836   -0.020252   -0.076159   -0.056098
0.044535    0.039273     0.51843      0.7835   -0.007097   -0.071884   -0.038011
0.044535   -0.014661     0.99463       0.943  -0.0047949    -0.08175   -0.019923
0.042891   -0.021238      1.4185      1.0006   -0.011372    -0.10181   -0.015648
0.037629    0.013293      1.6441     0.95418   -0.021896    -0.12319   -0.021238
0.02875    0.073804      1.5869     0.83184   -0.028802      -0.137   -0.028802
0.019212     0.14517      1.2765     0.67925   -0.033078    -0.13897   -0.033406
0.012635     0.21061     0.83678     0.53192   -0.037682    -0.13338   -0.030775
0.0080309     0.26093       0.403     0.40958   -0.041957    -0.12648   -0.020909
0.0057288     0.29513    0.049139     0.31848   -0.048205    -0.12417  -0.0064392
0.0057288     0.32966    -0.23007     0.25797   -0.049192    -0.12187   0.0073732
0.010333       0.403    -0.46981     0.21686   -0.039984    -0.11957    0.021186
0.015924       0.526    -0.67897     0.18825   -0.018278    -0.12483    0.039931
0.020857     0.67662    -0.82565     0.16359   0.0044134    -0.13141     0.06065
0.021514     0.81869    -0.86972      0.1353    0.017897    -0.12615    0.078737
0.018884     0.91176    -0.79638      0.1011    0.021843    -0.10477     0.08959
0.015924      0.9157    -0.62603    0.057032    0.018226   -0.073199     0.08959
0.017568     0.80882    -0.41588   0.0096753    0.011648   -0.040641    0.080053
0.024145     0.59572    -0.22185   -0.031762   0.0077021   -0.014661     0.06624
0.028421     0.30829   -0.078132   -0.055769   0.0080309   0.0070443     0.05473
0.029407   -0.021567   0.0034268   -0.060045    0.011977    0.030065    0.049468
0.033025    -0.36129    0.024474   -0.049192    0.019212    0.058676    0.055717
0.039602    -0.69147  -0.0097279   -0.027487    0.031052    0.088603    0.070516
0.047495    -0.99403   -0.088656  -0.0034794    0.047495     0.11393    0.081039
0.052757     -1.2509    -0.18304    0.013951    0.069529       0.133    0.082026
0.052428     -1.4419    -0.25835    0.016581    0.096825     0.14879    0.086959
0.047824     -1.5459    -0.28499   0.0067154     0.12511     0.16391    0.099785
0.042233     -1.5423    -0.25375  -0.0064392     0.15076     0.18167     0.11426
0.04026     -1.4196    -0.17778   -0.015648     0.17115     0.20601     0.12149
0.048153     -1.1963   -0.087669   -0.018936     0.19187     0.23133     0.12248
0.064925    -0.92891    -0.01499   -0.024527     0.20732     0.25304      0.1205
0.081039     -0.7043    0.023817   -0.035708     0.21324     0.27145      0.1159
0.085315    -0.64148    0.037629   -0.049521     0.20206     0.28724     0.10242
0.070516    -0.81973      0.0373   -0.070897     0.17049     0.29612    0.081039
0.039273      -1.192    0.033354    -0.10378     0.11689     0.29086    0.062294
0.0034268     -1.6264    0.030394    -0.14917    0.043549     0.27474    0.053743
-0.0265     -1.9658    0.033354    -0.19291   -0.037024     0.24909    0.055388
-0.042615     -2.0862    0.042233    -0.21626    -0.10411     0.21522    0.062294
-0.047877     -1.9346    0.052099    -0.20738    -0.13207     0.18332    0.068871
-0.045574     -1.5439    0.058348    -0.16594    -0.11858     0.16293    0.076764
-0.043272     -1.0088    0.060979    -0.10444    -0.09326      0.1524    0.083999
-0.042286    -0.44942    0.060321   -0.047219    -0.08175     0.14879    0.087946
-0.040313    0.033683    0.062294  -0.0074258   -0.054783     0.14616     0.08663
-0.038011     0.38853    0.071502    0.018555    0.035327     0.13629    0.080382
-0.035051     0.61874    0.085315    0.039931      0.1843     0.11721    0.069858
-0.034064     0.76212    0.094523     0.04881     0.34413    0.092879    0.056046
-0.038339     0.85947    0.089919    0.031052      0.4645    0.070187    0.042562
-0.04393      0.9407    0.075449   -0.010057     0.52633     0.05769    0.029407
-0.043601      1.0302    0.058348   -0.051165     0.53521    0.055388    0.019212
-0.02946      1.1433    0.045193   -0.072213     0.49311    0.052099    0.017239
0.0001381      1.2696    0.036642   -0.071884     0.40399     0.04618    0.021186
0.040918      1.3672    0.029078   -0.060373     0.27836    0.036642    0.033683
0.083342      1.3876     0.02283   -0.052152     0.13497    0.026447    0.050784
0.11853      1.3041    0.023817   -0.050507  -0.0024928    0.021186    0.062623
0.14352      1.1282     0.04026    -0.04393    -0.11201    0.026119    0.062623
0.15964     0.91242    0.083013   -0.024856    -0.18173     0.03434    0.053743
0.16391     0.71575     0.14287   0.0021113    -0.21494    0.032696     0.04026
0.14616     0.55395     0.20272    0.026447    -0.21922    0.018884    0.024803
0.10866     0.39116     0.24284    0.044535    -0.19784  -0.0008485   0.0037556
0.063281     0.19384     0.24909    0.053743    -0.16495   -0.023869   -0.021567
0.023817   -0.040313     0.22377    0.053415    -0.13371   -0.046561   -0.047877
-0.0067681    -0.28335     0.18792    0.044206    -0.11727   -0.061031    -0.07024
-0.031433    -0.48922     0.16326    0.027434    -0.12089   -0.068266   -0.087998
-0.052152     -0.6178     0.16687   0.0077021    -0.14752   -0.077146   -0.095891
-0.066293    -0.64674     0.20305  -0.0061104    -0.18304   -0.091616   -0.086683
-0.068266    -0.58064     0.26027   -0.002164    -0.20508    -0.11135   -0.069911
-0.057085    -0.44581     0.31454    0.023817    -0.20343    -0.12352    -0.04985
-0.037353    -0.27973     0.33591    0.071173    -0.17877    -0.11891   -0.028144
-0.010386    -0.10773     0.31059     0.12971    -0.14358    -0.10444  -0.0093991
0.025132    0.073476     0.24021     0.17773    -0.11102   -0.087012   0.0047422
0.065254      0.2708     0.13826     0.20206    -0.08471   -0.071555    0.022501
0.10439     0.45858    0.022501     0.19779     -0.0584   -0.058729    0.045193
0.12905     0.60098   -0.087998     0.16622   -0.028473   -0.041957     0.07216
0.13234     0.67662    -0.19028     0.11261   0.0037556    -0.02354    0.097154
0.12083     0.70753    -0.28663    0.052099     0.02875   -0.011043     0.10998
0.10538     0.72825    -0.36162   0.0040845    0.032038  -0.0047949     0.10932
0.09255     0.76015    -0.39385   -0.013674    0.012306   0.0030979    0.097812
0.085315     0.80093    -0.37017   0.0060577   -0.019594    0.017897    0.080382
0.083342      0.8302    -0.30242    0.059334   -0.051165    0.039273    0.057032
0.081368     0.81968    -0.21494     0.12741   -0.074515    0.061636    0.027763
0.073476     0.73647    -0.13404     0.18562   -0.087012    0.072818  -0.0028217
0.054401      0.5625   -0.083723     0.21292   -0.087998    0.067556   -0.023869
0.019541     0.31125   -0.068266     0.19713   -0.079777    0.049797   -0.034064
-0.020581      0.0054   -0.068924     0.14517   -0.068595    0.027105   -0.035708
-0.054125    -0.33202   -0.062676    0.074791   -0.056427   0.0073732   -0.029789
-0.081092    -0.66286   -0.034064 -0.00051963   -0.043601  -0.0028217   -0.018278
-0.10346    -0.93319    0.023159   -0.062018   -0.035051  -0.0080836  -0.0047949
-0.12187     -1.0956     0.10603    -0.09622   -0.026829   -0.014661   0.0024402
-0.13568     -1.1328     0.19779     -0.1028   -0.013017   -0.018278   -0.004466
-0.14456     -1.0667     0.27606   -0.089314   0.0044134   -0.016305   -0.020252
-0.1495    -0.94437     0.32341   -0.073528    0.028092  -0.0057815   -0.031762
-0.15147    -0.80592     0.33427   -0.068266    0.056374    0.019212    -0.03242
-0.14917    -0.66516      0.3175   -0.070568    0.080053    0.055388   -0.023869
-0.1393    -0.49382     0.28724   -0.064649    0.089919    0.095181  -0.0084125
-0.11529    -0.25408     0.26685   -0.038997      0.1113     0.13497    0.018884
-0.073199    0.064596     0.27376   0.0063866     0.18693     0.17082    0.062294
-0.022225     0.43424     0.30598    0.053743     0.30598     0.19549     0.10538
0.027763     0.80784     0.34578    0.067227     0.38754     0.20305     0.12577
0.071173      1.1278     0.37636    0.023817     0.35663     0.18595     0.11787
0.11458      1.3501     0.39412   -0.056098     0.22508     0.14254    0.094523
0.16194      1.4652     0.39642    -0.12384    0.081039    0.073476    0.069858
0.21916      1.4998     0.38162    -0.14719   0.0050711  -0.0038083    0.052757
0.28592      1.4856     0.35005    -0.12056    0.019212   -0.063662    0.052099
0.3494      1.4393       0.305   -0.066951    0.081697   -0.091287    0.068214
0.39215      1.3597     0.25106   -0.014332     0.13497   -0.090629    0.095181
0.403      1.2271     0.18924    0.023817     0.14089    -0.07024     0.12116
0.38031      1.0045     0.12675    0.050784      0.1034   -0.033735     0.13136
0.32933      0.6434      0.0692    0.069529    0.052757   0.0063866     0.12675
0.25896     0.12248    0.017568    0.067227    0.020857    0.036314     0.11491
0.17279    -0.55598   -0.027487    0.029078    0.016581    0.052099     0.10669
0.075449      -1.339   -0.063991   -0.041957     0.02875    0.055059     0.10209
-0.022225     -2.1142   -0.097207    -0.11497    0.038616    0.045851    0.098141
-0.10674     -2.7515    -0.14358    -0.14917     0.03434    0.026447    0.091234
-0.17186     -3.1274    -0.21626    -0.12976     0.01691   0.0014536    0.077422
-0.22218     -3.1576    -0.30571   -0.067609  -0.0067681   -0.019923    0.066569
-0.25868     -2.8406    -0.39713    0.013293   -0.025514   -0.030775    0.069858
-0.27611     -2.2621    -0.48034    0.096496   -0.028473   -0.026171    0.087288
-0.26986     -1.5436     -0.5369     0.17214   -0.015319  -0.0067681     0.10669
-0.24257    -0.77994      -0.554     0.23594   0.0080309    0.017897     0.11097
-0.19389   -0.028473    -0.53131     0.28231    0.035327     0.04322    0.092879
-0.12352     0.67004    -0.47606     0.30533    0.061636    0.072818    0.064925
-0.041628      1.2745    -0.41687       0.305    0.098469     0.10603    0.044535
