0.019541     0.22344    0.031709     0.12774     0.26093    -0.23961    -0.13536
0.014279      0.1968    0.020199     0.11919     0.23988    -0.75363    -0.21034
0.0080309     0.15471   0.0037556    0.092221     0.20305     -1.2094    -0.26756
-0.0008485     0.10242   -0.017621    0.061307     0.19779     -1.4778    -0.29255
-0.007097    0.050126   -0.036037    0.045522     0.24317     -1.5117    -0.28039
-0.0064392  -0.0011774   -0.040641    0.054072     0.31125     -1.3758     -0.2373
-0.0015062   -0.047877   -0.028802    0.080711      0.3494     -1.1999    -0.17548
0.0070443   -0.087998   -0.007097     0.10932      0.3221     -1.1039    -0.11299
0.016581     -0.1222    0.015924     0.12577     0.22245     -1.1279   -0.063991
0.021514    -0.14917    0.033025     0.12478    0.065912      -1.194   -0.038011
0.018555    -0.17285    0.037958     0.10702    -0.10937     -1.1052   -0.030118
0.0050711    -0.19521    0.032038    0.077422     -0.2498    -0.58853   -0.019923
-0.010715    -0.21823    0.021514     0.04881    -0.31294        0.55    0.017897
-0.016305    -0.23632    0.014608     0.03434    -0.28598      2.2124    0.095839
-0.0051238    -0.24881    0.015924     0.04322    -0.20475      4.0074     0.19877
0.016253    -0.25704    0.025132    0.075449    -0.12746      4.9594     0.30007
0.037629    -0.26164    0.034669     0.11656    -0.10346      4.9588     0.37077
0.044206    -0.26032    0.038616     0.14352    -0.14851      4.9591     0.39478
0.032367    -0.25342    0.030065     0.14451    -0.25013      4.8667     0.36321
0.010004    -0.24026    0.011648     0.12478    -0.37609      3.2391     0.28527
-0.014332    -0.22251   -0.011701    0.092221     -0.4902      1.5133     0.18167
-0.030775    -0.20771   -0.027816    0.050455    -0.56979    0.064596    0.072489
-0.035051    -0.19554   -0.033078   0.0077021    -0.61024    -0.91082   -0.027487
-0.032091    -0.18469   -0.028473   -0.028144    -0.61221     -1.4637    -0.11299
-0.028802     -0.1712   -0.021896   -0.050836    -0.58229     -1.7402    -0.18238
-0.033406    -0.15509   -0.020581   -0.056098    -0.53394     -1.8481    -0.23862
-0.047219    -0.13996   -0.027487   -0.046561    -0.47672     -1.8165     -0.2771
-0.06136    -0.12483   -0.036695   -0.031104    -0.41489     -1.6232    -0.29683
-0.068924    -0.11201   -0.043601    -0.01795     -0.3432     -1.2611    -0.29979
-0.067609    -0.10115    -0.04689   -0.011372    -0.25835    -0.79737    -0.28532
-0.060373   -0.092274   -0.041299  -0.0093991     -0.1666    -0.36458    -0.25473
-0.048205   -0.081092   -0.025842  -0.0034794   -0.076817   -0.085696    -0.20672
-0.02946   -0.063662  0.00046697    0.017897   0.0001381   -0.013017    -0.14884
-0.00051963   -0.038668    0.031709    0.057032    0.073147   -0.087341    -0.08175
0.039931  -0.0011774    0.060321     0.10406     0.15799    -0.18271  -0.0084125
0.083013     0.04618    0.084657     0.15207     0.25205    -0.21363    0.069858
0.11886    0.096825     0.10702     0.19318     0.32473    -0.18403     0.14977
0.14648     0.14418     0.12774     0.22212     0.34117      -0.186     0.22179
0.1649     0.18069     0.13892     0.22508      0.2754    -0.31064     0.26915
0.17049     0.19812     0.13464     0.19614     0.13464    -0.55367     0.27968
0.16424     0.19943     0.11327     0.14056   -0.056427    -0.82137     0.25731
0.14747     0.18924    0.078737    0.071173    -0.26427     -1.0013     0.21259
0.12445      0.1751    0.040589 -0.00051963    -0.45732     -1.0549     0.15503
0.09551     0.16391   0.0070443   -0.064978    -0.61452      -1.024    0.087946
0.061307     0.15701    -0.01499    -0.12253    -0.73521    -0.97791    0.014937
0.023488     0.15175   -0.026829    -0.18337    -0.82795    -0.96048   -0.059058
-0.013017     0.13892   -0.033735    -0.24388    -0.89635    -0.97561    -0.12582
-0.04393     0.10932   -0.044259    -0.29124     -0.9299     -1.0072    -0.17877
-0.065307    0.066898   -0.061689    -0.31426    -0.91346     -1.0608    -0.21132
-0.077803    0.021186   -0.078461    -0.31097    -0.84012     -1.1864    -0.23665
-0.086683   -0.017292   -0.087669    -0.28565    -0.69607     -1.4643    -0.26789
-0.092931   -0.039984   -0.083394    -0.24191    -0.46718     -1.9228    -0.30406
-0.092274   -0.042615    -0.06728    -0.18304    -0.14687     -2.5111    -0.32708
-0.080106   -0.028144   -0.045574    -0.11595      0.2412     -3.0715    -0.31853
-0.056756  -0.0054526   -0.022225    -0.04985     0.63814     -3.3175     -0.2748
-0.026171    0.023488   0.0014536   0.0060577     0.96602     -2.9482     -0.2031
0.0054    0.053086    0.020857    0.041904      1.1637     -1.8922    -0.11431
0.031052    0.079066    0.034669    0.056374      1.2202    -0.42838   -0.018278
0.05177     0.10011    0.037629    0.063938      1.1791      0.8963    0.084986
0.071173     0.12511    0.035656    0.077751      1.0999      1.5396     0.20173
0.091892     0.16622    0.036314      0.1011      1.0101      1.3034     0.32637
0.1136     0.23758    0.044206     0.12445     0.91176     0.52929     0.44214
0.13432      0.3369     0.05177     0.13991      0.8029   -0.016305     0.53948
0.14912     0.44444    0.054072     0.14155     0.68024     0.31782     0.62005
0.15602     0.52633    0.054072     0.13497     0.54507      1.5685     0.69799
0.15273     0.55231    0.054401     0.12774     0.40201      3.1721     0.77462
0.13925     0.51317    0.050126     0.11787     0.24975      4.4181     0.82231
0.1182     0.42668    0.043549     0.09551    0.090248      4.8101      0.8029
0.094852     0.33164    0.038616    0.064925   -0.071226      4.2432     0.71049
0.070516     0.26225    0.035656    0.034669    -0.21001      2.9915     0.56941
0.050784     0.22936    0.030723   0.0096753    -0.30209      1.5198     0.41912
0.037629     0.22377    0.020528  -0.0061104    -0.33564     0.22475     0.29119
0.032038     0.22508    0.010662  -0.0018351    -0.31196    -0.68456     0.20173
0.030723     0.21653   0.0073732    0.026776    -0.23796     -1.1969     0.15339
0.032038     0.18989    0.014937    0.073147    -0.11135     -1.4212     0.13859
0.037958     0.15207    0.029078     0.12478    0.067227     -1.4275     0.13859
0.050126     0.11524    0.044864     0.17542     0.28691     -1.2111     0.13859
0.068543     0.08959    0.062623     0.22081     0.51284    -0.79112      0.1307
0.084657    0.076435     0.08367      0.2583     0.69142    -0.27019     0.10998
0.091892    0.070845     0.10307     0.28165     0.77265     0.19943    0.074791
0.093865    0.064596     0.11754      0.2879     0.73976     0.50528    0.030723
0.09551    0.048153     0.12511     0.28559     0.61676      0.6138   -0.012359
0.098469    0.016253     0.12609     0.28527     0.46877     0.55658   -0.051494
0.097483   -0.028802      0.1284     0.29743     0.35893     0.38985   -0.081092
0.094523   -0.079448     0.13234     0.31881     0.31585     0.15109    -0.10477
0.088932    -0.13108     0.13793     0.33953     0.33328    -0.14423    -0.12779
0.079066    -0.17909     0.13695     0.34972      0.3757    -0.48593    -0.15476
0.062952    -0.21691     0.12215     0.34052     0.39281    -0.84538    -0.18469
0.043549    -0.24059    0.093865     0.30796     0.34676     -1.1759    -0.21165
0.026447    -0.25046    0.058019     0.25731     0.23166     -1.4314     -0.2304
0.014279    -0.24816    0.030723     0.19877    0.069529     -1.5824    -0.24224
0.002769    -0.23763    0.019212     0.14024   -0.094247     -1.6189     -0.2498
-0.014003    -0.22579    0.018555    0.087288    -0.21955     -1.5534    -0.25868
-0.037024    -0.21626    0.021843     0.04618    -0.28104     -1.4242    -0.27216
-0.061689    -0.21099    0.021843    0.021186    -0.26953     -1.2627    -0.28927
-0.081092    -0.20902    0.014279    0.011648    -0.18765     -1.0855    -0.30012
-0.088656    -0.20771 -0.00051963    0.018555    -0.04985    -0.89899    -0.29288
-0.083394    -0.20968   -0.012688    0.038616     0.10472    -0.71153    -0.27512
-0.07024    -0.21823   -0.015319    0.067556     0.22607    -0.53888    -0.25868
-0.057743     -0.2281  -0.0047949    0.095839     0.27869    -0.39154    -0.24914
-0.048205    -0.23566    0.010991     0.11327     0.25665    -0.26361    -0.23928
-0.044259    -0.23862    0.027105     0.11623     0.17707    -0.14917    -0.23402
-0.042944    -0.23369    0.036314     0.10406    0.058019    -0.06432    -0.23171
-0.041957     -0.2179    0.036642    0.080053   -0.096549   -0.036366    -0.22941
-0.037682    -0.18995     0.02875    0.051441    -0.27973   -0.093589    -0.22349
-0.030118    -0.14983    0.018884    0.026447     -0.4685    -0.23434    -0.21034
-0.025514    -0.09918    0.011977    0.010333    -0.62997    -0.41489    -0.19422
-0.022554   -0.043601    0.010004  0.00079584    -0.73521    -0.57341     -0.1814
-0.019265   0.0063866   0.0090175   -0.011701    -0.77467    -0.66253    -0.17219
-0.010715    0.046837   0.0073732   -0.033078    -0.75165    -0.66516    -0.16824
-0.00019077    0.073147   0.0040845   -0.058071    -0.68325     -0.5984    -0.17054
0.0080309    0.080053  0.00079584   -0.083394    -0.59182    -0.50106    -0.17844
0.0083598    0.070516  -0.0031506    -0.11135    -0.50237    -0.41884    -0.18666
0.002769     0.05473  -0.0057815    -0.13897    -0.43265    -0.39746     -0.1906
-0.0057815    0.045193   -0.007097    -0.16462    -0.38628    -0.45765    -0.18896
-0.012359    0.049139  -0.0038083    -0.18107    -0.33268    -0.56354    -0.17877
-0.012359    0.065912   0.0040845    -0.17581    -0.22086    -0.63162    -0.14917
-0.0015062    0.093536     0.01691    -0.14785   -0.013345    -0.56255   -0.084381
0.021843     0.12544    0.039273    -0.10115     0.28329    -0.30538   0.0067154
0.053743     0.15668    0.064925    -0.04393      0.6069     0.10965    0.099785
0.085315     0.18463     0.08367    0.013951     0.86637     0.60295     0.16885
0.10538     0.20897    0.096496    0.061307     0.98115      1.0979     0.19877
0.10669     0.22377     0.10176    0.086301     0.91834      1.5596     0.18562
0.090248     0.22574     0.10373    0.076764      0.7003      1.9628     0.14352
0.058676     0.21588     0.10044      0.0373     0.39675       2.242    0.092879
0.015595     0.19779     0.08959   -0.014661    0.092221      2.3032    0.043549
-0.030118     0.17477    0.072818   -0.065964    -0.14752      2.0878 -0.00051963
-0.06432     0.15273    0.056703    -0.10214    -0.30143      1.6251   -0.037682
-0.080434     0.13464    0.042562     -0.1199    -0.37806      1.0117   -0.066622
-0.07879     0.12774    0.037958    -0.12187    -0.39187     0.34611   -0.084052
-0.063333      0.1284    0.041904    -0.11332     -0.3478    -0.31623   -0.087012
-0.040313     0.13464    0.050126    -0.10115    -0.24585    -0.95095   -0.070568
-0.017292     0.13958    0.058348   -0.085039   -0.088656     -1.5337   -0.028802
0.0044134     0.13793    0.062623   -0.070568    0.098141     -1.9694    0.036971
0.021186     0.12313    0.052757   -0.065635     0.25205      -2.054     0.11853
0.02875    0.091892    0.029078   -0.072213     0.32473     -1.5801     0.20272
0.025461    0.042562  -0.0011774   -0.087012     0.30335    -0.56255     0.27507
0.012306   -0.020252   -0.025514    -0.11102      0.1991     0.67234     0.32736
-0.0031506   -0.085696    -0.03538    -0.13832     0.02875       1.652     0.35564
-0.014332    -0.14226   -0.032091    -0.16068    -0.19126      2.1059     0.35959
-0.015976    -0.18436   -0.021238    -0.17054    -0.43298      2.0648     0.34117
-0.0077547    -0.20343  -0.0097279    -0.16824    -0.65266      1.6964     0.30598
0.0021113    -0.20146   -0.002164    -0.16364    -0.81052      1.1308     0.26027
0.0073732    -0.18699  -0.0024928    -0.16561    -0.90162     0.43655     0.20996
0.0057288    -0.17087   -0.011372    -0.17679    -0.93746    -0.32807     0.15734
0.0024402     -0.1564   -0.029131    -0.19521    -0.91576     -1.0707     0.10932
0.0001381    -0.14358   -0.051165    -0.20573    -0.80197     -1.6889    0.077751
0.0021113     -0.1268   -0.068266    -0.19291    -0.56321     -2.0694    0.075449
0.013293   -0.099838   -0.065307    -0.14489    -0.21099     -2.0619     0.11162
0.035327   -0.051823   -0.038011   -0.065307     0.19121     -1.5074     0.18858
0.072818    0.022501   0.0037556    0.033683     0.56283    -0.36622     0.29776
0.12017     0.11491    0.045193     0.13333     0.83908      1.1936     0.40892
0.16622     0.20436    0.075778     0.21818     0.99233      2.8392     0.48982
0.20075     0.26948    0.091234     0.27902      1.0246      4.2596     0.53192
0.21555      0.2948    0.090905     0.31618     0.94859      4.9594     0.54507
0.21061     0.28231    0.080382     0.32177     0.78778      4.9594     0.54343
0.19154      0.2412     0.06361      0.2902     0.56513      4.9588     0.52698
0.16424     0.18693    0.050784      0.2287      0.3027        4.21     0.48949
0.13629     0.13366    0.041247     0.15931    0.021514      3.0921     0.43391
0.1136    0.088932     0.03434    0.094523    -0.25112       2.145     0.37077
0.10143     0.05769    0.027434    0.044864    -0.47573      1.6616     0.31322
0.096825    0.035327     0.02283   0.0070443    -0.61846      1.6925     0.26882
0.088275    0.014279    0.013951   -0.019265    -0.66549      2.0138     0.23626
0.064925    -0.01499  -0.0031506   -0.037024    -0.62307      2.2647     0.20239
0.023159   -0.056756   -0.024856   -0.048205    -0.50599       2.171      0.1603
-0.028802    -0.10017    -0.04689    -0.05281    -0.33662      1.6711     0.10636
-0.072213    -0.13371   -0.061031   -0.047219    -0.13042      0.9157    0.040918
-0.092274    -0.14785   -0.062347     -0.0265     0.10932     0.14024   -0.029131
-0.084052    -0.14095    -0.05281   0.0070443     0.38031    -0.45469   -0.090958
-0.060045    -0.11825   -0.036366     0.04618     0.65787      -0.775    -0.13503
-0.03538   -0.091616   -0.018278    0.085972     0.88874    -0.85853    -0.16857
-0.019265   -0.064649    0.002769     0.12182      1.0236    -0.82861    -0.20343
-0.014003   -0.041299     0.01987      0.1501      1.0436     -0.8069    -0.23994
-0.015976   -0.028802    0.030394     0.16852     0.95944    -0.84834    -0.28203
-0.017621   -0.033406    0.033354     0.17937     0.80652    -0.94568    -0.32741
-0.01795   -0.053467    0.030394     0.18365     0.61874     -1.0608    -0.36885
-0.017292   -0.083723    0.025132     0.18496     0.42372     -1.1423    -0.40536
-0.01795    -0.12187    0.024145     0.18134     0.24251     -1.1647    -0.43101
-0.020252     -0.1587    0.023159     0.16753    0.094523     -1.1456    -0.43923
-0.024527    -0.18633    0.019541     0.14484   -0.015648     -1.1371    -0.42936
-0.027816    -0.19883    0.018226     0.12116   -0.093589     -1.1772    -0.41325
-0.028802    -0.19883    0.021186     0.10044    -0.14785     -1.2673    -0.39845
-0.028473    -0.19587    0.028421    0.087288    -0.17942     -1.3995    -0.38661
-0.025185    -0.20113    0.033683    0.084328    -0.18896     -1.5883    -0.37082
-0.013345    -0.21527     0.03434    0.088275    -0.18304     -1.8313    -0.34879
0.0060577    -0.23237    0.033683     0.10011    -0.16232     -2.0767    -0.30933
0.031709    -0.24355    0.036642     0.11458    -0.12648     -2.2779    -0.24717
0.056703    -0.23566    0.038616     0.12807    -0.08471     -2.4193    -0.16397
0.071173    -0.19817    0.036971      0.1353   -0.054454     -2.4496   -0.063991
0.073476    -0.12615    0.029736     0.13629   -0.048534     -2.2687    0.047495
0.071502   -0.019594    0.021514     0.13037   -0.060702     -1.8336      0.1524
0.07512     0.10439    0.016581     0.11754    -0.08175     -1.2203     0.23692
0.088932     0.21785    0.013951    0.097812    -0.11102     -0.5836     0.28921
0.10538     0.29316    0.012306    0.072818    -0.15279   -0.094247     0.29349
0.11261     0.32572    0.010662    0.049797    -0.20935     0.13563     0.24547
0.10274     0.32802   0.0093464    0.027434      -0.284    0.087617     0.15964
0.077093      0.3119   0.0047422   -0.002164     -0.3728    -0.15673    0.062623
0.045851      0.2754  -0.0057815   -0.037353    -0.46883     -0.4685   -0.024856
0.012635     0.20173   -0.020581   -0.075501    -0.56124    -0.74672   -0.093918
-0.020909    0.076435   -0.040313    -0.11497    -0.63984    -0.95555    -0.14127
-0.056098   -0.090958   -0.060702    -0.14917    -0.70101     -1.1121    -0.17581
-0.091945    -0.26657    -0.07583    -0.17942     -0.7454      -1.266    -0.21297
-0.12615      -0.407   -0.085367    -0.21034    -0.76875     -1.4683    -0.27118
-0.15246    -0.48363   -0.090629    -0.24257    -0.77073     -1.7304    -0.34715
-0.17087    -0.50204   -0.094576    -0.26592    -0.74606     -2.0142    -0.42147
-0.17975    -0.47277    -0.09918    -0.27282    -0.68358     -2.2783     -0.4685
-0.17975    -0.40766    -0.10115    -0.26098    -0.57078     -2.5104     -0.4708
-0.17252    -0.30834   -0.097536    -0.23632    -0.40601     -2.7423     -0.4264
-0.16166    -0.18205   -0.086683    -0.20244    -0.19718     -3.0146    -0.35076
-0.14719   -0.042286   -0.071884    -0.16364    0.025132      -3.281     -0.2623
-0.12746    0.090905   -0.055769    -0.12845       0.231     -3.4125    -0.16726
-0.10214     0.20535   -0.042944    -0.10017     0.39609     -3.3438   -0.065964
-0.067937      0.2948   -0.036037   -0.079448     0.50725     -3.0619    0.047495
-0.024198     0.37044   -0.032749   -0.067937     0.56316     -2.4598     0.17214
0.023817     0.44838   -0.025185   -0.059716     0.56809     -1.3127     0.31092
0.071831     0.54145  -0.0061104   -0.050836       0.526     0.55329     0.46483
0.12017     0.65853     0.02579   -0.036366     0.44871      2.9267     0.62499
0.17214     0.80257    0.067556   -0.010715      0.3586      4.9594     0.77067
0.22179     0.96635      0.1136     0.03434     0.28691      4.9594     0.87887
0.26652      1.1433      0.1626    0.099127     0.25764      4.9594     0.93511
0.30829      1.3255     0.21357     0.17608     0.27606      4.9594      0.9384
0.34545      1.5031     0.26652     0.25369     0.31848      4.9588     0.89137
0.3711      1.6563     0.31454     0.32374     0.34479      4.5043     0.80553
0.37998      1.7662     0.34808     0.36913      0.3221      2.7991     0.69503
0.36946      1.8155     0.36058     0.37307     0.23955      1.3472     0.57303
0.34348      1.8013     0.35236     0.33558     0.11097     0.28987     0.44411
0.31026      1.7339     0.32868     0.27145   -0.029789    -0.36293     0.32111
0.27573       1.628     0.29842     0.20239    -0.14456     -0.6895     0.21588
0.2458      1.4978     0.26323     0.14912    -0.19817    -0.77698     0.13958
0.2241      1.3511     0.22706     0.12248    -0.16232    -0.67832    0.091234
0.21226      1.1916      0.1922     0.11754   -0.027487    -0.42969    0.068543
0.20831      1.0177     0.16161     0.12708     0.18628   -0.085367      0.0692
0.20667      0.8256     0.13596     0.13826     0.41616     0.25435    0.084986
0.20108     0.60953     0.11689      0.1376     0.59111     0.49377    0.098469
0.18924      0.3757     0.10209     0.12116     0.66149      0.5875    0.095181
0.17049     0.14089    0.084657     0.09255     0.61216     0.55658      0.0692
0.14616   -0.076817    0.061636    0.060979     0.47305     0.45726    0.027105
0.11491    -0.27118    0.033354    0.034011      0.2948     0.33854   -0.021896
0.07808     -0.4435   0.0040845    0.016253     0.13596     0.20831   -0.073857
0.041247    -0.60103   -0.019265   0.0086887    0.036971    0.045522    -0.12286
0.0044134    -0.74606   -0.030775   0.0077021 -0.00051963    -0.15706    -0.17054
-0.03538    -0.87037   -0.036037   0.0096753    0.010004    -0.38398     -0.2202
-0.07583    -0.96542   -0.040641    0.015595    0.057361    -0.61452    -0.26953
-0.11365     -1.0246   -0.048205      0.0373     0.13103     -0.8217    -0.31689
-0.14687     -1.0516   -0.057414    0.079066     0.22377     -0.9664    -0.35833
-0.17482     -1.0532   -0.064649     0.13004     0.33032     -1.0078    -0.38727
-0.19521     -1.0371   -0.069253     0.17246     0.43293    -0.93154    -0.40536
-0.20738     -1.0131    -0.07287      0.1945     0.50495     -0.7727    -0.41785
-0.21165    -0.99304   -0.077475     0.19121     0.51876    -0.60596    -0.43462
-0.20475     -0.9766   -0.082079      0.1672     0.45693    -0.49448    -0.45797
-0.19126    -0.95917   -0.086683     0.12971     0.32901    -0.42542    -0.47968
-0.17613     -0.9322   -0.087998    0.093865     0.17411     -0.2771     -0.4754
-0.15443    -0.89438   -0.084381    0.070516     0.04026     0.06361    -0.43002
-0.12121    -0.84439   -0.078461     0.06624   -0.052481     0.55132     -0.3455
-0.080763    -0.79013    -0.07583    0.078737    -0.13207     0.96898    -0.24092
-0.043601    -0.74212    -0.07287    0.098469    -0.24816      1.0821    -0.14226
-0.012688    -0.70298   -0.066293     0.10965    -0.42246     0.77955   -0.069582
0.0080309      -0.677   -0.058071     0.10603    -0.63063     0.17246    -0.02354
0.022501     -0.6645   -0.051494    0.087946    -0.83486     -0.4708    0.013293
0.02875    -0.65529   -0.048534    0.060321     -1.0016    -0.92727    0.055388
0.032038    -0.64082    -0.05281    0.028421     -1.1101     -1.1308      0.1011
0.035327     -0.6155   -0.063991  -0.0031506     -1.1552      -1.145      0.1432
0.044535    -0.57637   -0.075501   -0.028473     -1.1535     -1.1078     0.17575
0.058676    -0.52079   -0.084052   -0.042944      -1.118     -1.1588     0.19877
0.076435    -0.44646    -0.08471   -0.041957     -1.0457      -1.366     0.21456
0.096167    -0.36096   -0.073528   -0.023211    -0.91411      -1.681     0.22508
0.11426    -0.27644   -0.053138    0.010004    -0.69377     -1.9573     0.22837
0.12281    -0.20606   -0.026171    0.055388    -0.35175     -2.0053      0.2287
0.11787    -0.15739   0.0030979     0.10932     0.10965     -1.7027     0.23495
0.10044    -0.13174    0.032038     0.16063     0.61972      -1.072     0.24383
0.073804    -0.12516    0.054401     0.19647      1.0555    -0.26953     0.24087
0.044206    -0.12713    0.067556     0.20436      1.3051     0.48588      0.2162
0.016253    -0.12582    0.067556     0.18397      1.3281        1.02     0.17115
-0.0074258    -0.11431    0.055388      0.1455      1.1791      1.2804     0.11557
-0.025514   -0.087998    0.036971     0.10307     0.97457       1.312    0.063281
-0.041299   -0.051494    0.022172    0.065912     0.81704      1.2061    0.021843
-0.054783   -0.021238    0.012306     0.04026     0.75193      1.0459   -0.013345
-0.06432   -0.011701   0.0090175    0.027105     0.75489     0.87394   -0.045903
-0.07287   -0.028473    0.010662    0.018226     0.76541     0.68517   -0.073199
-0.080434   -0.063004    0.012964   0.0017824     0.73581     0.43655   -0.087012
-0.088656     -0.1005    0.014937    -0.02354     0.65393    0.077751   -0.076159
-0.096549     -0.1268    0.013951   -0.056098     0.53257    -0.36359   -0.042944
-0.10115    -0.13437    0.011648   -0.088656     0.38985    -0.73652      0.0054
-0.09918    -0.12417    0.010004     -0.1176     0.23561    -0.86018    0.055059
-0.094576    -0.10806   0.0086887    -0.14292    0.070187    -0.65957     0.09255
-0.097207   -0.097536   0.0070443    -0.17252    -0.11299    -0.22448     0.10636
-0.11168   -0.095233 -0.00051963    -0.20343    -0.30505     0.24942     0.09255
-0.1347   -0.097864  -0.0097279    -0.22612    -0.49185     0.54704    0.048153
-0.15706   -0.095891   -0.015319    -0.23566    -0.65661     0.54145   -0.018607
-0.1689   -0.082736    -0.01499    -0.23533    -0.79342     0.23495    -0.09326
-0.16989   -0.055112   -0.011372    -0.22941    -0.91378    -0.27578    -0.16265
-0.15969   -0.012359  -0.0064392    -0.22053     -1.0351    -0.87564    -0.21691
-0.14095    0.037958  -0.0034794    -0.22185     -1.1647     -1.4617    -0.25243
-0.11891    0.091234  -0.0074258    -0.23895     -1.2959     -1.9698    -0.27282
-0.097864     0.14089   -0.019265     -0.2669     -1.4038     -2.3779      -0.284
-0.083394     0.18397    -0.02946    -0.28762     -1.4436     -2.6834    -0.28565
-0.073199     0.22212   -0.032749    -0.28203     -1.3745     -2.8633    -0.27512
-0.060702     0.25534   -0.025514    -0.23895     -1.1719     -2.8676    -0.25079
-0.038339     0.28362  -0.0067681    -0.16397    -0.84702      -2.639    -0.20606
-0.0057815       0.305    0.022172   -0.072213    -0.44975     -2.0882    -0.13864
0.02875      0.3175    0.050455    0.017239   -0.052152     -1.1226   -0.048205
0.054072     0.32045      0.0692    0.082026     0.28066     0.28921    0.052428
0.06361     0.31125    0.075449     0.10866     0.51514      2.0575      0.1501
0.058676     0.29119    0.072489    0.097154     0.65656       3.986     0.24383
0.049468     0.25994    0.064267    0.062952     0.73318      4.9588     0.34019
0.042891     0.22377    0.055717    0.032367     0.76771      4.9594     0.43128
0.046837     0.18628    0.050126    0.023817     0.76607      4.9594     0.50396
0.056046     0.15536    0.049139    0.036971     0.74075      4.9594     0.53389
0.062294     0.13497    0.052428    0.064925     0.72167      4.9594     0.51153
0.064925     0.12379    0.054072    0.097483     0.73351      4.3497     0.45036
0.062623     0.12083    0.046508     0.12248     0.77265      2.8781     0.36913
0.058348     0.12675    0.033354     0.13958     0.82527      1.7014      0.2879
0.058019     0.14221    0.023817     0.15536     0.89203     0.91011     0.21686
0.06624      0.1672    0.030723     0.18496       0.992     0.46877     0.17016
0.086959     0.20173    0.057361      0.2389      1.1492     0.29217     0.15339
0.11721      0.2412    0.096496      0.3175      1.3577     0.29842     0.16654
0.14616      0.2777     0.13662     0.40234      1.5685     0.40695     0.20239
0.16654     0.30039     0.17115     0.46746      1.7024     0.53718     0.23824
0.17345     0.30533     0.18957     0.48883      1.6859     0.60394     0.25172
0.16687     0.29217     0.18496     0.46055      1.4906     0.54869     0.23363
0.15207     0.26751     0.16095     0.39182      1.1515     0.37472     0.18957
0.133      0.2389     0.12807     0.30105     0.74897     0.12971     0.13333
0.1159     0.21292    0.096825     0.21028     0.37242    -0.11793    0.076435
0.1034     0.19845    0.071173     0.14352    0.088932    -0.32215    0.032038
0.097154     0.19581    0.054072     0.10866   -0.079119    -0.45962   0.0063866
0.09255     0.20009    0.043549     0.10176    -0.16068    -0.53822  -0.0038083
0.087288     0.20436    0.038287     0.11162     -0.2031    -0.58755   -0.010715
0.080711     0.20239    0.039273     0.12478    -0.24059    -0.64642   -0.024198
0.071831     0.19384    0.044206     0.12609    -0.29124    -0.75428    -0.04689
0.063281     0.18299    0.047824     0.11031    -0.36425    -0.94601   -0.076159
0.058676     0.17411    0.046508    0.082355    -0.46356     -1.2302    -0.11398
0.061965     0.17214    0.036314    0.056046    -0.56847     -1.5811    -0.16397
0.069529      0.1797    0.016253    0.042233    -0.66253     -1.9547    -0.21659
0.077093      0.1991  -0.0064392    0.039273    -0.73192     -2.3309    -0.26657
0.076764     0.22443   -0.021567    0.039273    -0.77204     -2.7061    -0.31229
0.064267     0.25008   -0.020909    0.033354    -0.78717     -3.0629    -0.35241
0.045851     0.26784  -0.0054526    0.016253    -0.79145     -3.3523    -0.37839
0.02875     0.27441    0.017239   -0.010386    -0.79671     -3.5085    -0.37806
0.014608     0.27244    0.034669   -0.038339    -0.81151     -3.4997    -0.34945
0.0050711     0.26356    0.042233   -0.060702    -0.83782     -3.3293    -0.30472
-0.00051963     0.24613    0.038944   -0.076488    -0.86577     -2.9827       -0.26
-0.004466     0.22114    0.029078   -0.086025    -0.87761     -2.4032    -0.23073
-0.0051238     0.19549    0.018555   -0.084381     -0.8536     -1.5117    -0.21034
0.0017824     0.17279     0.01132    -0.07287    -0.78191       -0.26    -0.17844
0.01691     0.15273    0.010333   -0.058071    -0.65891      1.2433    -0.11891
0.034669     0.13497    0.016253   -0.041957    -0.50073      2.7284   -0.026829
0.047166      0.1205    0.025132   -0.024856    -0.34287      3.9426    0.085315
0.052428     0.10406    0.031052  -0.0080836     -0.2202      4.7273     0.19351
0.051113    0.078409    0.031709   0.0030979    -0.16298      4.9588     0.27606
0.044535    0.046508    0.030065   0.0047422    -0.18534      4.8637     0.32374
0.036971    0.015266    0.031709   -0.007097    -0.27808      4.2672     0.33361
0.031052   -0.017292    0.034669   -0.033735    -0.41555      3.3332     0.30631
0.023159   -0.048863    0.030723   -0.068266    -0.56453      2.2003     0.24745
0.0083598   -0.073528    0.015924    -0.09918    -0.68489      1.0361     0.16852
-0.010715    -0.08175  -0.0097279     -0.1176    -0.74771   -0.007097    0.077093
-0.022554   -0.071226   -0.036695    -0.12483    -0.74146    -0.81907   -0.013345
-0.024856   -0.042944   -0.061031    -0.12121    -0.68292     -1.3722    -0.08471
-0.021238   -0.007097   -0.082079    -0.11332    -0.60662       -1.71    -0.13075
-0.018278    0.023159   -0.095562    -0.10773    -0.55302     -1.9004    -0.15114
-0.021238    0.041904   -0.093589    -0.11661    -0.54381     -2.0171    -0.15114
-0.034064    0.049468    -0.07879    -0.14193    -0.57143     -2.1122    -0.14226
-0.05281    0.049139   -0.060702    -0.17679    -0.60004     -2.1964    -0.14029
-0.070897    0.049139   -0.041299    -0.20047     -0.5642     -2.2398    -0.15739
-0.081092    0.053086   -0.021238    -0.19817     -0.3876     -2.1964    -0.18797
-0.074844    0.064596   0.0037556    -0.15607   -0.037682     -2.0842    -0.21034
-0.050507    0.084328    0.033354   -0.083394     0.43391      -2.003    -0.20442
-0.010386     0.10801    0.065254   0.0011247     0.90748     -2.0628    -0.16824
0.032367     0.13037    0.092221     0.07512      1.2551     -2.2602    -0.11266
0.070187      0.1478     0.10834     0.12609      1.4057      -2.466   -0.042944
0.10011     0.15471     0.10899      0.1501      1.3676     -2.5473    0.034669
0.11853     0.14944    0.094852     0.15207      1.2028     -2.4216      0.1159
0.13333      0.1376    0.075449     0.14155      1.0117     -2.0112     0.20305
0.15142     0.12807     0.06624     0.13596     0.89268     -1.2591     0.31026
0.17411       0.133    0.073147     0.13793     0.89104    -0.22875      0.4395
0.20009     0.15273    0.096496     0.14484     0.96865     0.84533     0.56809
0.22278      0.1774     0.13037     0.15109      1.0338      1.6958     0.66478
0.23561     0.19351     0.15701     0.14681      1.0081      2.2276     0.70424
0.23232      0.1922     0.16556     0.12807     0.88019      2.5331     0.69273
0.21522     0.17838     0.15109    0.099127     0.68352      2.7807     0.65195
0.19285     0.16391     0.12281    0.066569      0.4645       3.079     0.61084
0.17279     0.15405    0.093865    0.036971     0.24482      3.3894     0.58322
0.15865     0.14714    0.073147    0.013622    0.032696      3.5315     0.56513
0.14352     0.13563    0.063281  -0.0028217    -0.17285      3.3168     0.53948
0.12215     0.11689    0.058019    -0.01795    -0.37017      2.6955     0.48752
0.091892    0.090577    0.049139   -0.039984    -0.54743      1.7948     0.40201
0.056374    0.062623    0.030394   -0.070568    -0.68588     0.83711     0.29645
0.020528     0.04026  -0.0008485    -0.10839     -0.7681    0.033354     0.19746
-0.0041372    0.023159   -0.037682     -0.1416    -0.79408    -0.50994     0.11689
-0.010386    0.011977   -0.077146    -0.15542    -0.78059    -0.80789    0.058019
0.0014536   0.0073732    -0.11299    -0.13996    -0.74244    -0.94009    0.018884
0.024474    0.011977    -0.14193   -0.098193    -0.68128     -0.9812  -0.0090702
0.05177    0.024145    -0.15673   -0.043601    -0.59182    -0.97462   -0.029131
0.075449     0.04026    -0.15213   0.0073732    -0.45666    -0.92891   -0.045903
0.092221    0.056046    -0.12648    0.050784    -0.26131    -0.83584   -0.059058
0.097812    0.065912   -0.087341    0.082355   -0.024527    -0.69936   -0.072213
0.092221    0.067227   -0.044588    0.098469     0.20502    -0.54216   -0.094576
0.081697    0.056703  -0.0090702    0.099785     0.38426    -0.40272    -0.13207
0.067556    0.033683    0.015595    0.087946     0.49443    -0.33004    -0.17745
0.049139   0.0030979    0.027434    0.067885     0.54145    -0.36162    -0.22645
0.02579   -0.031104    0.027763    0.046837     0.54376    -0.51421    -0.27611
-0.0011774   -0.064649    0.018555    0.031709     0.51843    -0.79802    -0.31985
-0.031433   -0.094905   0.0037556    0.019212     0.47173     -1.2223    -0.35405
-0.063662    -0.12121   -0.016305   0.0024402     0.39478     -1.7024    -0.37806
-0.096878    -0.14687   -0.038997   -0.020252     0.28888      -2.003    -0.38595
-0.12648    -0.17613   -0.061031   -0.046561     0.17575     -1.8853    -0.37477
-0.15048    -0.20902   -0.072542    -0.07287    0.086301     -1.3578     -0.3478
-0.1666    -0.23796   -0.066622   -0.091616    0.045193     -0.6964    -0.31492
-0.16495    -0.25441   -0.048863   -0.089643    0.068543    -0.19291     -0.2748
-0.14719    -0.25704   -0.024527   -0.057414     0.14944    0.073147     -0.2202
-0.11825    -0.24553   0.0080309   0.0073732     0.26126     0.17444    -0.14719
-0.085696    -0.22349    0.039931    0.093208     0.37373     0.19647   -0.059058
-0.052152    -0.19389    0.062623     0.18529     0.46812     0.19877    0.031052
-0.018278    -0.16397    0.071831     0.26948     0.53619     0.20009     0.10702
0.018884    -0.13634    0.072818     0.33887     0.56776       0.207      0.1672
0.055717    -0.11201    0.077093      0.3905     0.55296     0.24021     0.20798
0.088932   -0.094576    0.087288     0.42043     0.49969     0.32736     0.22278
0.11458   -0.085696     0.10307     0.42273     0.42865     0.46483     0.20831
0.12807   -0.083065     0.11721     0.40103     0.35663     0.60394     0.16293
0.12741   -0.082736     0.12149     0.36255     0.29119     0.68221    0.093865
0.11064   -0.080763     0.11886     0.31092     0.22739     0.64899    0.014279
0.084328   -0.083065      0.1113     0.25238     0.14944     0.48883   -0.056098
0.057361    -0.09918     0.10242     0.19187    0.039602     0.22212    -0.10937
0.033025    -0.12779    0.093208     0.13991   -0.097536    -0.11628    -0.14884
0.013293    -0.15443     0.08367     0.10307    -0.23796    -0.48001    -0.17745
-0.0024928    -0.16857    0.076435    0.077751     -0.3478    -0.82499    -0.19685
-0.011701     -0.1643    0.073804    0.060321    -0.39845      -1.098    -0.19981
-0.014003    -0.14358    0.077093    0.052428     -0.3797     -1.2318    -0.18107
-0.011043     -0.1097    0.084986     0.05769    -0.30143      -1.193    -0.14654
-0.0051238   -0.068266    0.096167    0.077093    -0.18107     -1.0276    -0.10609
0.0057288   -0.022225     0.10702    0.097154   -0.047219    -0.83913   -0.060045
0.020528    0.020199     0.10998     0.10603    0.051113    -0.72765  -0.0090702
0.034669    0.052757     0.10603    0.099127    0.076435     -0.7089    0.042562
0.042233    0.069858    0.097483     0.07512    0.021514    -0.71515    0.093208
0.037629    0.065583    0.087617    0.041575   -0.092931    -0.68719     0.12346
0.019212    0.039602    0.077093   0.0083598    -0.23895    -0.65168     0.11754
-0.010715   -0.002164    0.063281   -0.021896    -0.38694     -0.6918    0.077751
-0.043601   -0.047548    0.047495   -0.045903     -0.5129    -0.86248    0.021186
-0.07024   -0.088985    0.033025   -0.067937    -0.60695     -1.1456   -0.042944
-0.086354    -0.12483    0.018226   -0.086354    -0.67075     -1.4847    -0.11102
-0.094905    -0.15311   0.0040845    -0.10937    -0.71811     -1.8208    -0.17712
-0.096549    -0.16791  -0.0051238    -0.14259    -0.76349      -2.125    -0.23829
-0.09326    -0.16331  -0.0077547    -0.18567    -0.80164     -2.3621    -0.29157
-0.090958      -0.137  -0.0077547    -0.22974    -0.80986     -2.4802    -0.33333
-0.089643   -0.090629  -0.0097279    -0.26361    -0.76349     -2.4345     -0.3603
-0.092274   -0.028144   -0.020909     -0.2794    -0.65464     -2.1658    -0.37214
-0.1005    0.039273   -0.038668    -0.27447    -0.49053     -1.5797     -0.3603
-0.11365     0.10472   -0.053467    -0.24947    -0.27973    -0.56255    -0.31853
-0.13272     0.17378   -0.061031    -0.21264   -0.037024      0.9111    -0.24585
-0.14654     0.25402   -0.056427     -0.1735     0.21423      2.5995    -0.14654
-0.14555     0.35499   -0.038011    -0.13897     0.42964      4.0686   -0.036366
-0.13108     0.46417   -0.013017    -0.11365     0.56447      4.9275    0.062623
-0.11102     0.55231   0.0086887   -0.097536     0.60197      4.9588     0.12873
-0.092274     0.59045    0.022501   -0.093918     0.54869      4.6506     0.15339
-0.074844     0.56316    0.026447    -0.09622     0.44411      4.0906     0.14418
-0.060045     0.48489    0.025132    -0.10082     0.32605      3.7995     0.12313
-0.041628     0.38623    0.026447    -0.10082     0.21752      3.9955     0.12017
-0.016963     0.29645    0.032696   -0.095562     0.12248      4.5082     0.15043
0.0073732     0.23265      0.0373   -0.089314    0.019212      4.9114     0.21555
0.021186     0.19384    0.032696   -0.092603     -0.1074      4.8062     0.29678
0.020528     0.16819    0.015266    -0.11069    -0.25769        3.99     0.36222
0.0054     0.14944  -0.0093991    -0.14095    -0.40996      2.5022      0.3882
-0.020252       0.133    -0.03242    -0.17581    -0.51158     0.56645     0.37636
-0.041957     0.11524   -0.045903    -0.20244    -0.51618     -1.4669     0.35038
-0.048863    0.092879   -0.050836    -0.20606    -0.38793      -3.081     0.33723
-0.033406    0.064596   -0.047219    -0.17186    -0.11858     -3.7391     0.36255
0.0021113    0.037958   -0.034064   -0.091616     0.25863      -3.037      0.4303
0.053415    0.022172  -0.0064392    0.031052     0.66675     -1.0121     0.52731
0.11097    0.017239    0.035985     0.17345      1.0167      1.7198     0.62926
0.16556   0.0057288    0.079395      0.3073      1.2475      4.2077     0.70589
0.21094   -0.026829     0.11294     0.40728      1.3284      4.9588     0.73614
0.24317   -0.085367     0.12938     0.45628      1.2696      4.9591     0.71378
0.25797    -0.15509     0.12511     0.45003      1.1041      4.9594     0.64176
0.24778    -0.21889     0.10406     0.39905     0.85914      3.7045     0.52797
0.21818    -0.25901    0.072489     0.32506     0.55855      1.7007     0.38721
0.18365    -0.26789    0.041247     0.25041     0.24087    -0.18238     0.23594
0.15306    -0.24553    0.020528     0.19154   -0.043601      -1.584    0.094852
0.12774     -0.2054    0.010333     0.14813    -0.24947     -2.4062   -0.023211
0.10274    -0.16035   0.0086887     0.11623    -0.36227     -2.7637    -0.12023
0.078737    -0.11628   0.0086887    0.090577    -0.39023     -2.8528     -0.2008
0.057361   -0.066622    0.010333    0.070516     -0.3386     -2.8354    -0.26361
0.041247  -0.0054526   0.0086887    0.060979    -0.20935     -2.7811    -0.30078
0.03434    0.064596   0.0047422    0.067556  -0.0047949     -2.6736    -0.31656
0.036642     0.13004  0.00079584    0.087288     0.25665     -2.4387    -0.31788
0.040918      0.1649    0.002769     0.11754     0.53422     -1.9875    -0.31459
0.037629     0.14846    0.010004     0.15109      0.7641     -1.2525    -0.29979
0.027434    0.086301    0.018884     0.17707     0.88841    -0.23171    -0.26624
0.015266  0.00079584    0.024145     0.18957     0.88446     0.92985     -0.2133
0.0096753   -0.073528    0.023159     0.19285      0.7687      1.9444    -0.14884
0.013293    -0.11266    0.016581      0.1922     0.59407      2.5232   -0.086025
0.025132     -0.1097   0.0086887     0.19483     0.43918      2.5443   -0.041957
0.044206   -0.076159    0.002769       0.207     0.37044      2.1006   -0.027487
0.06624   -0.034064  -0.0018351     0.22508     0.41089      1.4254   -0.044588
0.084657  -0.0018351  -0.0093991      0.2412     0.53488     0.75588   -0.078461
0.095839    0.016581   -0.014003     0.25501     0.68681     0.27474     -0.1074
0.10242    0.029407  -0.0051238     0.27474     0.82264    0.093208    -0.10576
0.11031    0.048482    0.020857     0.30533     0.90683     0.17773   -0.061689
0.12116    0.073804    0.058676     0.33986     0.91044     0.35071    0.017568
0.13004    0.090905    0.096825     0.36485     0.81639     0.37472      0.1057
0.13432    0.090577     0.11886     0.36946     0.62466    0.077422     0.16819
0.13629    0.071502     0.11919     0.34315     0.35531    -0.56058     0.17707
0.13563    0.042233     0.10176     0.28428    0.033354     -1.4206     0.13267
0.13136    0.015924    0.074133     0.20568      -0.309     -2.3141    0.053743
0.12149   0.0050711    0.042562     0.12281    -0.64346     -3.0784   -0.033078
0.10735    0.017568   0.0086887    0.044535    -0.95687      -3.622    -0.11069
0.093536    0.052757   -0.016963   -0.025185     -1.2328     -3.9226    -0.17252
0.084328     0.10307   -0.030447    -0.08471     -1.4554     -4.0074    -0.21626
0.078737     0.15405   -0.031762    -0.13766      -1.613     -3.9361    -0.24651
0.068871     0.19154   -0.024198    -0.18501     -1.6955     -3.7762    -0.27216
0.047824     0.20667   -0.013674    -0.22119     -1.7093     -3.5753    -0.29814
0.019541     0.20404  -0.0054526    -0.24388     -1.6728     -3.3721    -0.32544
-0.010386     0.19746  0.00079584    -0.25408     -1.6107     -3.1817    -0.34747
-0.031104     0.20338   0.0024402    -0.25473     -1.5288     -2.9413    -0.35076
-0.038011     0.22936    0.002769    -0.24947     -1.4005     -2.5012    -0.31919
-0.025185     0.26751   0.0001381    -0.22908     -1.1795     -1.7294    -0.23171
0.0073732     0.30105  -0.0031506    -0.18107    -0.82203    -0.62076   -0.088327
0.05177     0.31519  -0.0028217    -0.10641    -0.30768     0.63058    0.088275
0.095839     0.30335   0.0096753   -0.014661     0.31125      1.6978      0.2606
0.13136     0.27211    0.034998    0.076764      0.9134      2.3565     0.39511
0.15142     0.23396    0.064925     0.15438      1.3682      2.5364     0.47272
0.15306     0.19581    0.088932     0.19779      1.5734      2.2723     0.48686
0.13596     0.15931    0.099456     0.19812      1.4962      1.6721     0.44575
0.10307     0.12511    0.094852     0.16194      1.1801     0.92754     0.37735
0.064925    0.099456    0.080053      0.1034     0.73943     0.28757     0.30237
0.032038    0.087617    0.059334      0.0373     0.29941   -0.072213     0.22903
0.01132    0.090248      0.0373    -0.02946   -0.059716    -0.13338     0.16161
0.002769    0.097812    0.016581   -0.091287    -0.31031  -0.0024928      0.1034
0.0001381    0.094194   -0.002164    -0.14555    -0.46685     0.16687    0.060321
-0.0018351    0.069858   -0.013017    -0.18304    -0.55269     0.25271    0.032696
-0.0057815    0.026776   -0.017621    -0.20014    -0.58525      0.2116    0.015266
-0.013017   -0.022225   -0.022225    -0.19652    -0.56979     0.07808  -0.0011774
-0.025514   -0.062347   -0.024856    -0.17877    -0.52375   -0.087998   -0.024856
-0.038668    -0.08471   -0.018607     -0.1587    -0.46948    -0.24125   -0.056098
-0.049521   -0.086025  -0.0018351    -0.14358    -0.43002    -0.35767   -0.084381
-0.062347   -0.075173    0.023488    -0.13996    -0.41654     -0.4343    -0.10115
-0.078132   -0.065964    0.050126    -0.14456     -0.4241    -0.48626    -0.11431
-0.092603   -0.073199    0.065912    -0.14983    -0.43035    -0.53657    -0.12779
-0.10839     -0.1074    0.065583    -0.14851    -0.42015     -0.5961    -0.14621
-0.12352    -0.16693    0.049797    -0.14226    -0.39944    -0.66713    -0.16331
-0.13897    -0.24026     0.02579    -0.13568     -0.3774    -0.74475     -0.1689
-0.14884    -0.31031   0.0021113     -0.1268    -0.36162    -0.80592    -0.16265
-0.14719    -0.36786   -0.011701    -0.11299    -0.34682    -0.83025    -0.14687
-0.13404    -0.41226   -0.015319   -0.091616    -0.32478    -0.80657    -0.12253
-0.11661    -0.44515   -0.013345    -0.06728    -0.28631    -0.73225   -0.096878
-0.10313    -0.46488   -0.010057   -0.049192    -0.24454    -0.62011   -0.077146
-0.097207    -0.46784  -0.0097279   -0.044917    -0.22086    -0.49316   -0.065964
-0.10247    -0.45403    -0.01499   -0.057085    -0.22448    -0.36754   -0.057414
-0.12056    -0.43265   -0.027158   -0.077475    -0.24092    -0.21889   -0.050836
-0.14489     -0.4093   -0.041957   -0.096878     -0.2498    0.014608   -0.044259
-0.16561    -0.38464   -0.049521     -0.1028    -0.22875     0.37834   -0.034064
-0.17087    -0.35504   -0.045574   -0.088656    -0.17054     0.85618   -0.015319
-0.15706    -0.32018   -0.034393   -0.056098   -0.082408      1.3702   0.0093464
-0.12582    -0.27973   -0.021896   -0.015648    0.015924      1.8263    0.029736
-0.087341    -0.23928   -0.014332    0.016253      0.1034      2.1351    0.032696
-0.054125    -0.20771    -0.01795    0.034669     0.17246      2.2456    0.010004
-0.031104    -0.19028   -0.029789    0.045522     0.22245      2.1509   -0.037682
-0.016963    -0.18666   -0.044259    0.055059      0.2606      1.8793    -0.10181
-0.0090702    -0.18929   -0.056098    0.062294     0.28855      1.4698    -0.16561
-0.0038083    -0.18896   -0.063991    0.068214       0.305     0.97622    -0.20968
0.0014536    -0.17449   -0.063991    0.075778     0.32078     0.47009    -0.22251
0.0067154    -0.13996   -0.054783    0.087946     0.34841    0.015595     -0.2008
0.013951   -0.089314   -0.042286     0.11031     0.38426    -0.38661    -0.15607
0.031052   -0.029789   -0.028144     0.14122     0.40925    -0.85031    -0.10082
0.05769    0.027434   -0.013674     0.17246     0.40892     -1.4104   -0.032091
0.08367    0.070845  -0.0015062      0.1968      0.3882     -1.8244    0.050784
0.10044    0.088603   0.0083598     0.21292     0.36123     -1.7577     0.13958
0.10077    0.072818    0.014608     0.22311     0.35663     -1.1239     0.21949
0.082355    0.023817    0.017568       0.231     0.38426    -0.18863     0.27803
0.053086   -0.051165     0.01987     0.23265     0.43326     0.65754     0.30796
0.021514    -0.13437    0.028092      0.2264     0.47371      1.1742     0.30598
-0.002164    -0.20836    0.040918     0.21094      0.4793      1.3538     0.28231
-0.0097279    -0.26131    0.052757     0.19121     0.43391      1.3002      0.2435
-0.0064392    -0.28992    0.054401      0.1695     0.34611      1.1403      0.1991
0.0014536    -0.30176    0.047495      0.1524     0.23298     0.95714     0.15503
0.012964    -0.30439    0.037629     0.14484     0.11721     0.75719     0.12445
0.030723    -0.29913    0.035656     0.15043    0.017239     0.50232      0.1182
0.056046    -0.28137    0.046508      0.1695   -0.056098     0.18036     0.13136
0.082684    -0.24257    0.065912     0.19055   -0.098193    -0.17548     0.15306
0.10209    -0.17515    0.083342      0.1991    -0.11365    -0.50632     0.17279
0.11162   -0.075173    0.093536     0.18989    -0.10905    -0.75593     0.18102
0.10998     0.05473    0.097154     0.16556   -0.095891    -0.90129     0.17444
0.1034     0.19351    0.094523     0.13859    -0.09326    -0.97035     0.15832
0.096496     0.31947    0.088603     0.12248    -0.11464       -1.02     0.13399
0.090577     0.41188    0.080053     0.12017    -0.15673     -1.0983     0.10702
0.084986     0.46285     0.06624     0.12544    -0.21001     -1.2167    0.082355
0.080053      0.4793    0.052757     0.12511    -0.26296     -1.3387    0.059663
0.077422     0.47338    0.041575     0.10834    -0.30045     -1.4163    0.032038
0.077093     0.46022    0.032367    0.076435    -0.31097     -1.4324  -0.0064392
0.072818     0.44806    0.017897    0.034669    -0.29124     -1.3785   -0.052481
0.065254     0.43786   0.0017824  -0.0064392    -0.23007      -1.215   -0.090629
0.065583     0.42931  -0.0074258   -0.031433    -0.11168    -0.83913    -0.10148
0.078737     0.42536 -0.00051963   -0.026171    0.085972    -0.16528   -0.074515
0.10011     0.42372    0.017239   0.0096753     0.33788     0.73877   -0.014332
0.12313     0.42405    0.039602    0.058676     0.56809      1.6471    0.061636
0.14846     0.42668    0.062294     0.10044     0.69767      2.3285     0.13826
0.17148     0.43457    0.080382     0.12281     0.69635      2.6696     0.19318
0.18496     0.44838    0.085644     0.11787     0.58782      2.7021     0.21423
0.18299     0.46877    0.080053    0.087288     0.42964      2.5568     0.20436
0.16918     0.49475    0.066898    0.042891     0.27672      2.3782     0.17674
0.1501     0.52435    0.057032 -0.00051963     0.17214      2.2752      0.1455
0.13793     0.55264    0.056046    -0.03538     0.12905      2.2871     0.12313
0.13497     0.57335    0.064596    -0.05544      0.1353      2.3538     0.11754
0.13366       0.575     0.07512   -0.065307      0.1626       2.345     0.12873
0.12642     0.55198    0.079066   -0.073528     0.18299      2.1654     0.13859
0.10998     0.50758    0.074462    -0.08471     0.18332      1.8033     0.13267
0.088275     0.45036     0.06361   -0.097864     0.17411      1.3422     0.10735
0.069529     0.39708    0.053086    -0.10773     0.18167     0.90946    0.070516
0.05769     0.36452    0.045851    -0.10181     0.22903      0.6092    0.037958
0.055717     0.35597    0.041575   -0.077146     0.32078     0.46581    0.018884
0.056046     0.36123    0.040918   -0.042286     0.43424     0.42734    0.019212
0.05473     0.36321    0.045522   -0.002164     0.53093     0.41583    0.030394
0.05177     0.35038    0.052428    0.035656     0.57368     0.37998    0.038944
0.04881     0.31848    0.056046    0.064925      0.5431     0.30664    0.034011
0.044864     0.27343    0.054401    0.076764     0.44575      0.2093    0.014608
0.039273     0.22804    0.051113    0.068871     0.30335     0.10472    -0.01203
0.026776     0.18726    0.046508    0.042562     0.14846  -0.0047949   -0.039326
0.0083598     0.15109    0.035985      0.0054   0.0017824    -0.17219   -0.065635
-0.0097279     0.11952     0.02283   -0.036695    -0.13009    -0.49678   -0.094576
-0.020909    0.092879    0.012306    -0.07583    -0.24881      -1.045    -0.12023
-0.018936    0.070516    0.010333    -0.10346    -0.34978     -1.7833    -0.13272
-0.0061104    0.052757    0.015924    -0.11562    -0.42542     -2.5913     -0.1324
0.011977    0.040589     0.02579    -0.11595    -0.47047     -3.3171    -0.13404
0.027105    0.026776    0.034669    -0.10674    -0.48626     -3.8206    -0.14456
0.02875   0.0090175    0.035656   -0.093918     -0.4833     -4.0051    -0.16364
0.016253   -0.012359     0.02579   -0.089643    -0.47508     -3.8601    -0.19225
-0.0097279   -0.034064   0.0073732   -0.095233     -0.4685     -3.4306    -0.22086
-0.041628   -0.056756    -0.01203    -0.10641    -0.46422     -2.8117    -0.23994
-0.070897    -0.08175   -0.025842    -0.11497    -0.45337     -2.0776    -0.24618
-0.088656    -0.10839   -0.027487    -0.11562     -0.4195     -1.1989      -0.235
-0.0903    -0.12911   -0.022554    -0.10115    -0.34583   -0.095891    -0.19324
-0.077146     -0.1393   -0.013345   -0.073528    -0.22974      1.2406    -0.11398
-0.055112    -0.13601   -0.002164    -0.04393    -0.07879      2.7212   0.0044134
-0.026171    -0.11727    0.011648   -0.015976     0.10998      4.1784     0.15668
0.0050711   -0.090958    0.028421    0.017568     0.34578      4.9594     0.32703
0.036642   -0.062347    0.044864    0.061965     0.60361      4.9591     0.48489
0.070845   -0.037353    0.059334     0.11557     0.81737      4.9594     0.59374
0.10209   -0.019265    0.065583     0.16918     0.92623      3.8209     0.63321
0.12511  -0.0080836    0.061965      0.2139     0.92261       2.294     0.60525
0.13958   0.0011247    0.056374     0.24449     0.84434      1.0982      0.5329
0.15076   0.0093464    0.051113     0.26159     0.74272     0.53553     0.44279
0.15734    0.018884    0.049797     0.26455     0.64899     0.53619     0.35433
0.15503    0.028421    0.052099     0.25271     0.56119     0.78876     0.27836
0.14221    0.031709    0.057032     0.23067     0.46055     0.96438     0.21851
0.1205    0.024474    0.065583     0.20502     0.33098      0.8644     0.16885
0.09551   0.0057288      0.0692     0.17904     0.17378     0.43655     0.11787
0.069529   -0.021238    0.068543     0.15438   0.0083598    -0.24158    0.060979
0.049468   -0.048863    0.067227     0.13234    -0.13733     -1.0187  -0.0028217
0.043877   -0.069253    0.068214     0.11458    -0.24289     -1.7116   -0.059058
0.04881   -0.080763    0.069529    0.099785    -0.29518     -2.1773   -0.095233
0.058019   -0.091287    0.068871     0.08959    -0.30045     -2.3763    -0.11299
0.06624    -0.10872    0.062623    0.085644    -0.28203     -2.4068    -0.11694
0.065254    -0.13272     0.05177    0.084328     -0.2623     -2.4289    -0.11957
0.050126    -0.16134    0.038616    0.079395    -0.24849     -2.5242    -0.13305
0.020528     -0.1906     0.02283    0.067556    -0.23566     -2.6532    -0.16199
-0.020909     -0.2202   0.0073732    0.050455     -0.2156     -2.7285    -0.19718
-0.064978    -0.25046  -0.0064392    0.035327    -0.19521     -2.6857    -0.23007
-0.10017    -0.28104   -0.013345     0.02579    -0.19324     -2.4775    -0.25605
-0.12023    -0.31459    -0.01203    0.025132    -0.22152     -2.0372    -0.27414
-0.12549    -0.35076   -0.013345     0.02875    -0.27118     -1.3111    -0.28137
-0.12319    -0.37905   -0.021567    0.029078    -0.32314    -0.30439    -0.26888
-0.11825    -0.38891   -0.036366    0.020528    -0.36227      0.8256     -0.2281
-0.11299    -0.37609   -0.051823    0.010662     -0.3797      1.8158    -0.16397
-0.10477    -0.34583    -0.06136    0.010333    -0.37609      2.4959   -0.084052
-0.089643    -0.30965   -0.059716    0.022501     -0.3478      2.8725   0.0014536
-0.068266     -0.2748   -0.046561    0.040589    -0.29288      3.0609    0.084657
-0.042286    -0.24947   -0.028802     0.05473    -0.20738      3.1559     0.15898
-0.019594    -0.23171   -0.014003    0.063281   -0.095233      3.1451     0.21916
0.0001381    -0.21922  -0.0054526    0.066569    0.023817      2.8968     0.26389
0.010333    -0.20902  -0.0051238    0.065912     0.10899      2.2634     0.28494
0.013622     -0.2008   -0.010715    0.055388     0.11327      1.2393     0.27277
0.010662    -0.19258   -0.015648    0.033025    0.012964    0.048482     0.22673
0.0014536    -0.18534   -0.020252   0.0017824    -0.17975    -0.95193     0.15865
-0.0087413    -0.17318   -0.025842   -0.026829    -0.40536     -1.5396    0.087946
-0.012688    -0.15575   -0.030118   -0.045246    -0.58459      -1.732    0.029736
-0.0067681    -0.13305   -0.025842    -0.04985     -0.6622     -1.7034   -0.012688
0.0037556    -0.11069   -0.011701   -0.044259    -0.63227     -1.6366   -0.046232
0.011648   -0.095891      0.0054   -0.037024    -0.53789     -1.6113   -0.076488
0.013293   -0.093918    0.016581   -0.034722    -0.44383      -1.585    -0.09918
0.0096753    -0.10576     0.02283   -0.038011    -0.39516     -1.4525    -0.10543
0.00046697    -0.12944    0.024474   -0.047548     -0.4047     -1.1568   -0.093589
-0.014332    -0.15607    0.024145   -0.064978     -0.4537    -0.76744   -0.070897
-0.033735    -0.16758    0.023488   -0.087669      -0.505    -0.43791   -0.052481
-0.054783    -0.15344    0.027763    -0.10543    -0.51224     -0.2965   -0.050836
-0.066951    -0.11069    0.038944    -0.10477    -0.42344    -0.38168   -0.068266
-0.071884   -0.043601    0.053415   -0.077475    -0.21428    -0.62964   -0.097536
-0.07287    0.039931    0.067556   -0.025842    0.095181    -0.91938    -0.12056
-0.067609     0.12642    0.082026    0.038944     0.43885      -1.147    -0.12417
-0.055769     0.19845    0.094523    0.091892     0.72167     -1.2729    -0.10937
-0.042944     0.24745    0.098469     0.10866     0.86506     -1.3334   -0.085696
-0.034722     0.27145    0.085315    0.077751     0.84105     -1.3844   -0.070568
-0.037353     0.27408    0.058348    0.010991     0.68254     -1.4482   -0.071884
-0.049521      0.2583    0.025132   -0.062347     0.47371     -1.5011    -0.10181
-0.066622     0.22903  -0.0028217    -0.10773     0.33197     -1.4844    -0.14983
-0.077475     0.20009   -0.016963    -0.10806     0.36354     -1.3367    -0.18765
-0.073857     0.18463   -0.013017   -0.068266     0.59243     -1.0266    -0.18765
-0.053138     0.18726   0.0037556   -0.011701     0.94103    -0.58722    -0.14785
-0.024198     0.20206    0.024474    0.042562      1.2676    -0.10346   -0.085696
0.0030979     0.21489    0.040589    0.082684      1.4501     0.36419   -0.018607
0.024474     0.22015    0.046837    0.096825      1.4281     0.77725    0.037958
0.042233     0.22048    0.041575    0.082684       1.215      1.0538    0.081039
0.060979     0.22574    0.032367    0.048153     0.87723      1.0795     0.11623
0.085644     0.24021    0.024145   0.0090175     0.51251     0.76903     0.15207
0.11031     0.25896     0.01987   -0.020581     0.21489     0.19088     0.19877
0.13728     0.28033    0.026119   -0.031762    0.036314    -0.33268     0.25337
0.16293     0.30072    0.041575   -0.020252   -0.026829    -0.41621     0.30796
0.18562     0.31717    0.060979    0.015924   -0.011701     0.10274     0.35071
0.20469     0.32506    0.082026    0.070845    0.034998      1.0341     0.37472
0.21949     0.32572     0.10274     0.13169    0.081368      1.9418     0.37603
0.22739     0.31848     0.12215     0.18299     0.11097      2.4213     0.35301
0.22541       0.305     0.13563     0.21555     0.10932      2.2785     0.30566
0.20996     0.28264     0.14024     0.22311    0.064267        1.58     0.23692
0.18036     0.25106     0.13432     0.20864   -0.019923     0.59341     0.15273
0.13892     0.21522     0.11952      0.1751    -0.12878    -0.34024    0.064596
0.091563     0.19022    0.099456     0.13366    -0.23665    -0.93483  -0.0080836
0.049797     0.18661    0.076106    0.096167    -0.31557     -1.0513    -0.05281
0.01987     0.20042    0.050784    0.064596    -0.34715    -0.70134   -0.058729
0.0017824     0.22147    0.028421    0.033683    -0.33103    -0.04985   -0.027487
-0.0074258     0.23363   0.0080309   0.0050711    -0.29617     0.61512    0.027105
-0.013345     0.22837  -0.0015062   -0.019594    -0.28137      1.0111    0.082026
-0.020581     0.20404   0.0024402   -0.039326     -0.3113      1.0311     0.11524
-0.028802     0.16786    0.010333    -0.05544    -0.38529     0.78383     0.11919
-0.038011     0.12741   0.0083598    -0.06728    -0.47277     0.50396     0.10143
-0.044259    0.091563  -0.0080836   -0.068924    -0.53723     0.39511    0.074791
-0.049521     0.06361   -0.031104   -0.059716    -0.56223      0.4941    0.037958
-0.053138    0.038944   -0.056098   -0.046561    -0.56321      0.6776   -0.011043
-0.056756    0.010004   -0.076488   -0.032749    -0.55367     0.81343   -0.072542
-0.062676   -0.024856   -0.083065   -0.018278    -0.50796     0.86374     -0.1416
-0.070897   -0.058729    -0.07583   0.0080309    -0.38036     0.88249    -0.20146
-0.066951   -0.078461   -0.051823    0.053415    -0.14851     0.97161    -0.23402
-0.04097   -0.079777   -0.017621     0.11557     0.14846      1.1818    -0.22481
0.0014536   -0.071555    0.021843     0.18102     0.42175      1.4541    -0.18041
0.04322   -0.062676     0.05769     0.23298     0.58223      1.6435    -0.11891
0.072489   -0.059716     0.08367     0.26422     0.58026      1.6185    -0.06432
0.087946   -0.065307    0.094852     0.27836     0.41813      1.3205   -0.029789
0.095839   -0.074186    0.093208     0.27836     0.14747     0.77363    -0.01499
0.1034    -0.07879    0.085315     0.26225    -0.15476    0.080711   -0.018936
0.11195   -0.077146    0.074133     0.23561    -0.41095    -0.61353   -0.036037
0.1182   -0.068266    0.062952       0.207    -0.57933     -1.1844   -0.060702
0.12412   -0.056756    0.054072     0.18661    -0.65529     -1.5725   -0.087341
0.12938   -0.051165    0.046837     0.17181    -0.66253     -1.7705    -0.10444
0.12905   -0.053467    0.039273      0.1603    -0.63392     -1.8099    -0.10017
0.1284   -0.060373    0.030065     0.14352     -0.5938     -1.7688   -0.066293
0.13399   -0.068266     0.01987     0.11458    -0.55894      -1.781  -0.0034794
0.14616   -0.074515     0.01132    0.078409    -0.52243     -1.9497    0.078409
0.16194   -0.076159      0.0054     0.04618    -0.45896     -2.1914     0.16391
0.17279   -0.076159  0.00079584    0.027434    -0.34978     -2.2286      0.2389
0.17378   -0.079119 -0.00051963    0.022501     -0.1906     -1.8057     0.28987
0.16227   -0.091287   0.0017824    0.028092   0.0060577    -0.90984     0.31125
0.14254    -0.10707   0.0030979    0.037958     0.20963     0.16918     0.30927
0.11524    -0.12319   0.0044134    0.040918     0.37899     0.98608      0.2925
0.083342    -0.13437   0.0057288    0.029736     0.47305      1.2265     0.26389
0.050784    -0.13601   0.0034268   0.0047422     0.47667     0.88446      0.2264
0.01987    -0.12483  0.00046697   -0.021896     0.41352     0.25271     0.18299
-0.0064392    -0.10378  -0.0041372   -0.039326     0.32276    -0.30472     0.13629
-0.0265   -0.075173   -0.014661   -0.044259     0.23396    -0.56749    0.084657
-0.037682   -0.046561   -0.026829   -0.041299     0.15306    -0.52243    0.027763
-0.040641   -0.024527   -0.036695   -0.041957    0.046508    -0.30834   -0.029131
-0.036695   -0.010057   -0.040313    -0.05544    -0.13601    -0.10313   -0.080106
-0.035051  -0.0024928   -0.038011   -0.088327    -0.42805    -0.02354    -0.12319
-0.042615      0.0054   -0.038668    -0.13536    -0.81414   -0.089314     -0.1564
-0.053796    0.028092   -0.042286    -0.19126     -1.2367    -0.24947    -0.18633
-0.060373    0.081697   -0.046232    -0.25079      -1.633    -0.43495    -0.21231
-0.061689     0.16128   -0.049521    -0.30768     -1.9625    -0.58393    -0.23763
-0.062347     0.23988   -0.057085    -0.36556     -2.2075    -0.65497    -0.25967
-0.069911     0.28165   -0.072213     -0.4241     -2.3565    -0.63918    -0.27249
-0.085039     0.26192   -0.096549    -0.47606     -2.3976    -0.55532    -0.27841
-0.10839     0.18496    -0.12384    -0.51322     -2.3151    -0.43068    -0.28532
-0.137    0.080053    -0.14983    -0.52901     -2.0967    -0.28598    -0.28598
-0.16298   -0.016963    -0.16824    -0.52013     -1.7267   -0.098193    -0.26822
-0.17712   -0.073528    -0.17383     -0.4754      -1.168      0.1945    -0.22481
-0.16824   -0.075173     -0.1541    -0.38562    -0.36688     0.63156    -0.14884
-0.13108   -0.026171    -0.10214    -0.24421     0.69503      1.1749   -0.042944
-0.069582    0.048153   -0.025514   -0.058729      1.9164      1.7027    0.082026
0.0040845     0.12346    0.055388      0.1455      3.1139      2.0677     0.19713
0.076435     0.18332     0.12577      0.3369      4.0814      2.1657     0.27902
0.12938     0.21883     0.17674     0.48226      4.6664      1.9618     0.32144
0.15175     0.23232     0.20732     0.56612      4.8194      1.4771     0.32539
0.13991     0.22508     0.21982     0.58322      4.5924     0.77528     0.30105
0.10603     0.21061     0.21193     0.54737      4.1037   0.0057288     0.26323
0.070516     0.20009     0.19285     0.48456      3.4802    -0.61188     0.21883
0.049468     0.19746     0.17312      0.4178      2.8192     -0.9174     0.18036
0.048482     0.19877     0.15701     0.35663       2.172    -0.87958     0.15898
0.063281     0.19812     0.14714     0.29941      1.5636    -0.59478     0.15734
0.084657     0.18989     0.14616     0.24942      1.0163    -0.20672     0.17378
0.099456     0.17181      0.1501     0.21094     0.57171     0.16852     0.19812
0.10044     0.14517     0.15339       0.182     0.27902     0.44115     0.21785
0.085972     0.11853     0.15273     0.16063     0.15175     0.54178     0.22574
0.063281    0.096167     0.14616     0.14188     0.13136     0.46187     0.22377
0.039931    0.076764     0.12807      0.1136     0.10834     0.25435     0.21094
0.019212    0.056703    0.097154    0.062952  -0.0087413   0.0040845     0.18167
0.0017824    0.035656    0.061636  -0.0090702    -0.23698    -0.20146     0.14089
-0.014003    0.010333    0.031381   -0.087012    -0.51849    -0.31327    0.099456
-0.0265   -0.015648    0.012964    -0.15344    -0.77007    -0.34188    0.056046
-0.033078   -0.038339   0.0037556    -0.18797    -0.93089    -0.31853    0.015266
-0.03538   -0.052481    0.002769    -0.18567    -0.98054    -0.24881   -0.018278
-0.036366   -0.061031    0.002769     -0.1587    -0.94437    -0.13864   -0.040313
-0.033406   -0.066622   0.0024402    -0.13042     -0.8661   -0.038011   -0.049521
-0.029789   -0.083065  -0.0041372    -0.11891    -0.78849   -0.019923   -0.051494
-0.030447    -0.12023   -0.016634    -0.12483    -0.72995    -0.12746   -0.058071
-0.038668    -0.17877   -0.031762    -0.14095    -0.69673    -0.34945   -0.075501
-0.053467    -0.24783   -0.045246    -0.15443    -0.68424    -0.63359    -0.10346
-0.071555    -0.31031   -0.058729     -0.1541    -0.68851    -0.90885    -0.14226
-0.085696     -0.3557   -0.071884     -0.1347    -0.71614     -1.0937    -0.18501
-0.089972    -0.37609   -0.081092     -0.1028    -0.76382     -1.0924    -0.22316
-0.087341    -0.37181   -0.085696   -0.066951    -0.81414    -0.81973     -0.2475
-0.077146    -0.34254   -0.084381   -0.031104    -0.84308    -0.23632    -0.24421
-0.056756    -0.29486   -0.076488  0.00079584    -0.82894     0.59769    -0.20442
-0.024856    -0.23369   -0.063991    0.029078    -0.77073      1.4846    -0.13338
0.014608    -0.16462    -0.04689    0.056046    -0.69607      2.1746   -0.044588
0.050784   -0.096549   -0.030447    0.080382    -0.64346      2.4594    0.030394
0.071502   -0.034064   -0.019923    0.099785     -0.6326      2.2779    0.073476
0.075778    0.017897   -0.017621     0.11064    -0.65233      1.7431     0.08367
0.071831    0.058676    -0.02354     0.11195    -0.67536      1.0788    0.071831
0.066898     0.08959   -0.033078     0.11064    -0.68062     0.54672    0.049468
0.065254     0.12873    -0.03538     0.11557     -0.6474     0.34413    0.031709
0.0692     0.19417   -0.026171     0.13464    -0.56453     0.52238    0.032367
0.078409     0.28757  -0.0051238     0.16819    -0.43068     0.99891    0.059992
0.095839     0.38623    0.021514     0.20765    -0.25868      1.5777     0.12017
0.11853     0.45792    0.050126     0.23988   -0.085696      1.9918     0.19943
0.13859     0.48423    0.076106     0.25468    0.036642       2.049      0.2754
0.14977     0.46154    0.094523     0.24942    0.073476       1.751     0.32769
0.15536     0.40563     0.10274     0.22344    0.021514       1.262     0.34084
0.16063     0.33427     0.10044     0.18397   -0.098522     0.76048     0.31421
0.1649      0.2629     0.08959     0.13958    -0.23862      0.3517     0.25501
0.16326     0.20042     0.07216     0.10176    -0.35635    0.065912     0.17707
0.15339     0.14188    0.047166    0.074791    -0.42739     -0.1176    0.096167
0.13103    0.082684    0.021843    0.056703    -0.45205    -0.22086    0.024145
0.098141    0.019212   0.0037556    0.045851    -0.44581    -0.25013   -0.026829
0.067556   -0.050179  -0.0031506     0.04322    -0.42706    -0.21922   -0.052481
0.043549    -0.12713   -0.002164    0.045522     -0.4024    -0.14818   -0.054783
0.030394    -0.21034  0.00079584    0.042233    -0.36359   -0.088327   -0.041628
0.021843    -0.28959   0.0030979    0.034998    -0.30143    -0.11036   -0.028802
0.014608    -0.35471      0.0054     0.02579    -0.21856    -0.26789   -0.030775
0.0070443    -0.39516   0.0063866    0.010991    -0.14522      -0.554   -0.046561
-0.0031506    -0.40404   0.0070443   -0.010715    -0.12253    -0.91017   -0.072213
-0.019923    -0.37872   0.0096753   -0.032091    -0.16693     -1.2598    -0.10214
-0.043272    -0.32807    0.014937   -0.046561    -0.25309     -1.5423    -0.13404
-0.063991    -0.26559    0.020528   -0.057085    -0.34156     -1.7478    -0.16068
-0.07583    -0.20409    0.024803   -0.063333    -0.40371      -1.903    -0.18041
-0.077803    -0.14917    0.027105   -0.063333    -0.42147      -2.053    -0.19324
-0.073199    -0.10017    0.030394   -0.055769    -0.38628     -2.2253    -0.20179
-0.069582   -0.056098    0.039273   -0.041299    -0.30965      -2.396    -0.20014
-0.070897   -0.020252    0.051113   -0.022883     -0.2054     -2.4752    -0.18501
-0.07583   0.0044134     0.05769  -0.0090702   -0.085696     -2.3371    -0.16298
-0.083723    0.016253    0.054072  -0.0074258    0.036314     -1.8714     -0.1416
-0.094247    0.016253    0.042891   -0.021896     0.16556     -1.0526    -0.11661
-0.10444    0.010004    0.034011   -0.037682     0.31848   0.0001381   -0.078132
-0.11168    0.002769    0.034998   -0.039326     0.49508      1.0505   -0.020909
-0.11102  -0.0008485    0.042233   -0.024198     0.65919       1.875    0.056374
-0.10346   0.0080309    0.049139   0.0014536     0.75752      2.3584     0.13892
-0.088656    0.031709    0.051113    0.021843     0.76245      2.4956     0.21094
-0.066951    0.064596    0.047824    0.023488     0.67958      2.3565     0.25731
-0.041957    0.095839    0.042233      0.0054     0.53521      2.0233      0.2708
-0.019594     0.11557    0.034998   -0.019923     0.37242      1.5445     0.25369
-0.0047949     0.12675    0.029736   -0.042944      0.2389     0.95846     0.21719
0.0060577     0.13958    0.031709    -0.05281     0.17641     0.32473     0.17641
0.024474     0.16391    0.042562   -0.038011     0.20338    -0.29091      0.1432
0.053743     0.20108    0.058019    0.002769     0.31717    -0.83091     0.13037
0.090248     0.24284    0.073804    0.061965     0.49311     -1.2729     0.14484
0.133     0.28099    0.088932     0.12577     0.69076     -1.6195     0.18167
0.17608     0.30697      0.1034     0.17345     0.85848     -1.8777     0.22344
0.21292     0.31618     0.11853      0.1945     0.94234     -2.0402     0.25238
0.23791      0.3096      0.1284     0.18726     0.92327     -2.0872     0.25929
0.24317     0.29086     0.12971     0.16128     0.81112     -2.0171     0.24251
0.23166     0.26718     0.12281     0.12807     0.64373     -1.8481     0.21094
0.21094     0.24416     0.11294    0.096496     0.46285     -1.5837     0.17477
0.18924     0.23002      0.1034    0.076435     0.30467     -1.1687     0.14681
0.17542     0.23298    0.096167    0.073147     0.18858    -0.51717     0.14122
0.16753     0.25271    0.088932    0.084986     0.10768     0.37866     0.16424
0.16589        0.28    0.078409     0.10472    0.043877      1.3613     0.21588
0.17016     0.30598     0.06065     0.12182    -0.01203      2.1661     0.28329
0.17838     0.32374    0.035656     0.12774   -0.052152      2.5656     0.34084
0.18496     0.32769   0.0067154     0.11393    -0.07287      2.4775     0.35893
0.17937      0.3175   -0.018278    0.084986   -0.080434      1.9825     0.32769
0.15668     0.29645   -0.031104     0.04881   -0.080106      1.2482     0.26225
0.11952     0.27836   -0.034722     0.01691   -0.081421     0.44016     0.18397
0.082355     0.28264   -0.034064  -0.0011774   -0.086025    -0.31821     0.10669
0.055388     0.31684   -0.031433  -0.0074258   -0.095562    -0.95917    0.032038
0.041247     0.36321   -0.028802  -0.0080836     -0.1176     -1.4518   -0.031433
0.036642     0.39149   -0.029789  -0.0093991    -0.15311     -1.7787   -0.083723
0.036971     0.37044    -0.03242   -0.012688    -0.20113      -1.926    -0.12648
0.032038     0.28592   -0.033406   -0.015319    -0.25243     -1.8797    -0.16791
0.014937     0.14813   -0.030775   -0.015319     -0.2988     -1.6126    -0.21132
-0.015319   -0.011372   -0.025514   -0.013017    -0.32511     -1.0822    -0.25145
-0.04985    -0.15838   -0.024527  -0.0054526    -0.30998    -0.27578    -0.27512
-0.077475    -0.27249   -0.025185      0.0054    -0.23862     0.74042    -0.27578
-0.092274     -0.3455   -0.025185    0.022501    -0.10872      1.8224    -0.24355
-0.090958    -0.38003   -0.021896    0.046837    0.073476      2.7876    -0.18995
-0.078461    -0.38727  -0.0097279    0.079066     0.28888      3.4634    -0.13503
-0.058729    -0.37806   0.0083598     0.11393     0.50396      3.7525   -0.092274
-0.040313    -0.36194    0.029078     0.15372     0.68056      3.6598   -0.060045
-0.024856    -0.34484    0.045851     0.19877      0.7858      3.2727   -0.037024
-0.013674     -0.3284    0.055059     0.23824     0.79468      2.6817   -0.030118
-0.011043    -0.31426     0.05177     0.25534     0.69503      1.9105   -0.052481
-0.018607    -0.30538     0.04026     0.24251     0.51679     0.99529    -0.10181
-0.036366      -0.309    0.028421     0.20042     0.31322    0.083999    -0.16758
-0.0584    -0.32413    0.018555     0.14879     0.14155    -0.59544    -0.22645
-0.07583    -0.34353   0.0080309     0.10899    0.034669    -0.94371     -0.2669
-0.088656    -0.35899   -0.004466    0.090248 -0.00019077     -1.0397    -0.28828
-0.097864     -0.3649    -0.01499    0.084986    0.022172     -1.0272     -0.2942
-0.11168    -0.35997   -0.024198    0.085315    0.082684     -1.0075    -0.28335
-0.12713     -0.3432   -0.028802    0.090577     0.15832      -1.045    -0.24881
-0.14062    -0.31623   -0.023211     0.10176     0.21653       -1.24    -0.19422
-0.14456    -0.27874  -0.0054526     0.11327     0.23035      -1.686    -0.12615
-0.13075    -0.22941    0.017568     0.11787      0.1843     -2.2789   -0.056098
-0.094576    -0.17022    0.037629     0.11524    0.086301     -2.6394    0.017239
-0.045246    -0.11168    0.053415     0.10834   -0.047219     -2.3858    0.088932
0.0060577   -0.060373    0.066898    0.094852    -0.20277     -1.4821     0.14681
0.044206   -0.022225     0.07216    0.076435    -0.37477    -0.29518     0.18529
0.06065    0.002769    0.063281    0.051441    -0.55631     0.64044     0.19713
0.058348    0.014279    0.044864    0.021186    -0.73883     0.93281       0.182
0.045522    0.014608    0.021514   -0.013017    -0.89635     0.51876      0.1376
0.029736   0.0044134  -0.0015062   -0.053467    -0.99501    -0.35504    0.063281
0.010991   -0.013345   -0.021567   -0.089314     -1.0013       -1.29   -0.031433
-0.0064392   -0.031433   -0.037353    -0.10937    -0.89339     -1.9481    -0.12582
-0.018936   -0.038011   -0.047877    -0.11266    -0.66878     -2.2102    -0.19225
-0.021567   -0.028802   -0.050179    -0.10115    -0.34123     -2.2181    -0.20803
-0.01499  -0.0057815   -0.041957   -0.077146    0.045522     -2.1592    -0.17153
0.0014536    0.029736     -0.0265   -0.041628     0.42964     -2.0099   -0.092931
0.024474    0.078409  -0.0093991   0.0050711     0.76443     -1.5712    0.014937
0.049797      0.1353    0.011977     0.06361      1.0371    -0.72041     0.13596
0.07512     0.19351    0.037629     0.12642      1.2475     0.37965     0.24547
0.096167     0.24317    0.066569     0.18003      1.3886       1.357     0.31717
0.10077     0.27178    0.089919     0.21028      1.4429      1.9283     0.34019
0.08959     0.27014     0.10307     0.21324      1.3978      2.0838     0.32637
0.066898     0.24218     0.10373     0.19516      1.2676      2.0654     0.30401
0.051441     0.20831    0.095181      0.1626       1.093      2.1444     0.30007
0.053743     0.18726    0.080711     0.12478      0.9134        2.39     0.32933
0.071502     0.18924    0.070187    0.087617     0.74765      2.6495     0.37866
0.097812     0.21193    0.068871    0.056374      0.5967      2.7116     0.42569
0.1205     0.24482     0.07512    0.030065      0.4497      2.4581     0.45134
0.13464     0.27803    0.087946   0.0021113     0.29447      1.8951     0.45529
0.13662     0.30072     0.10077   -0.027487     0.13201      1.1617     0.44477
0.13103     0.31059     0.10998   -0.058729   -0.023869     0.49179     0.42668
0.12116      0.3096      0.1057   -0.087341    -0.16002    0.087288     0.39774
0.10998     0.30467    0.088275    -0.11069    -0.27118     0.01132     0.35301
0.09551     0.29743     0.06624     -0.1347    -0.36129      0.1626     0.28494
0.073147     0.28264    0.044206    -0.16561    -0.44416     0.34479      0.1945
0.047824      0.2583     0.02283    -0.20113    -0.52704     0.40399    0.089919
0.023159     0.22969   0.0034268    -0.23434    -0.61024     0.30007  -0.0090702
0.0044134     0.19812   -0.011701    -0.25473    -0.68391    0.063938   -0.084052
-0.0054526     0.16687    -0.02354    -0.25506    -0.73751    -0.26559    -0.12878
-0.0097279     0.13728   -0.033078    -0.23829    -0.76908    -0.67009    -0.14456
-0.011043     0.10834   -0.041628    -0.21297     -0.7829     -1.1246    -0.14325
-0.0097279    0.077751   -0.051165    -0.18896    -0.77434     -1.5814    -0.14062
-0.007097    0.045522   -0.059716    -0.16956    -0.72666     -1.9931    -0.15443
-0.0064392    0.015266   -0.062018    -0.15279    -0.62241     -2.3144    -0.18929
-0.013345  -0.0057815   -0.063004    -0.13437    -0.47212     -2.5157    -0.24289
-0.020581    -0.01499   -0.066951    -0.11299    -0.32182      -2.595    -0.30209
-0.023869  -0.0093991    -0.07287     -0.0903    -0.22283     -2.5779    -0.35372
-0.019923    0.010004   -0.071226   -0.073528    -0.19948     -2.4887    -0.38201
-0.0080836    0.042233   -0.064978   -0.063004    -0.23204     -2.3351    -0.37872
0.0070443    0.076435   -0.054125   -0.051494    -0.26394     -2.0967     -0.3478
0.023817     0.10176   -0.035051   -0.033078    -0.22612     -1.7024    -0.29387
0.040918     0.10669  -0.0067681  -0.0074258    -0.07879     -1.0674     -0.2156
0.058348    0.083013    0.025132     0.02283     0.15602    -0.17844    -0.11858
0.07216    0.029078    0.057032    0.052757      0.4076     0.84138   -0.015976
0.078409   -0.054125    0.078737    0.074462     0.58454      1.7839    0.077422
0.071173    -0.16134    0.085315    0.085972     0.62466      2.4647     0.14155
0.052757    -0.28861     0.07216    0.089919     0.52172      2.7685     0.16194
0.032696    -0.42279    0.049468    0.085972     0.32966      2.7383     0.14517
0.022501    -0.54381    0.030723    0.080053     0.13596      2.5814     0.11754
0.022172    -0.62833    0.022501    0.080382    0.017568        2.49     0.10932
0.025461    -0.66286     0.02579    0.087617  -0.0038083      2.4775     0.13103
0.030723    -0.64609    0.029736     0.10077    0.028421      2.4268     0.16589
0.034998    -0.58557    0.029078     0.10834    0.049797      2.2292     0.18628
0.037629    -0.49053    0.024474     0.10472    0.016581      1.8707     0.16556
0.042891    -0.37181    0.021514    0.087288   -0.074844      1.4083    0.099785
0.047824    -0.23303     0.01987    0.060321    -0.19981     0.88775   0.0063866
0.049139   -0.076817    0.020199    0.029736    -0.33399     0.30467    -0.09622
0.046837    0.093865    0.021514  0.00079584    -0.46652     -0.3774     -0.1962
0.04322     0.26093    0.023817   -0.016634    -0.60465     -1.1594    -0.29025
0.038944     0.40596    0.029078   -0.024856    -0.75659     -1.9895    -0.37773
0.036314     0.52172    0.036642   -0.029789    -0.91378     -2.8104    -0.45863
0.038616     0.62071    0.043549   -0.032749     -1.0509     -3.5842    -0.53361
0.04618     0.71312    0.049797   -0.036037     -1.1377     -4.2876    -0.60465
0.058019     0.80817     0.05769   -0.036695     -1.1509     -4.8776    -0.66417
0.070187     0.90814    0.065912   -0.031104     -1.0924     -4.9658    -0.69213
0.079066      1.0091    0.067227   -0.016634    -0.97594     -4.9654    -0.67404
0.085644      1.0989    0.059992   0.0057288    -0.83617     -4.9654    -0.60761
0.087288      1.1535    0.052757    0.024145    -0.70726     -4.8852    -0.50632
0.082684      1.1531     0.04322    0.030065    -0.62076      -3.918    -0.38793
0.070845      1.0986    0.027763    0.022501    -0.57933     -2.3667    -0.26197
0.057032      1.0006   0.0070443    0.013951    -0.53953     -0.2327    -0.11694
0.049797     0.87821   -0.010386    0.024803    -0.44153       2.291    0.067556
0.056046     0.74075   -0.011372    0.065912    -0.23369      4.8601     0.30697
0.079066     0.60723    0.010991     0.13201    0.081039      4.9591     0.59013
0.11491     0.49541    0.054401     0.20732     0.43852      4.9591      0.8746
0.15832     0.41221     0.10373     0.27277     0.73943      4.9594      1.0999
0.19417      0.3415     0.13958      0.3119     0.89334      4.9594      1.2212
0.20765     0.26652      0.1501     0.30894     0.86703      4.9594      1.2192
0.19483     0.17542       0.133     0.26455     0.69142      4.9591      1.1055
0.1603    0.074462     0.09551     0.19516     0.44937      4.9591     0.91702
0.11458   -0.030118     0.05177     0.12445     0.24482      3.5891     0.70391
0.067885    -0.13601    0.011648    0.075778     0.16786      2.1105     0.50363
0.027763    -0.25375   -0.013674    0.061307     0.26685      1.1068      0.3415
-0.00051963    -0.38727   -0.018936    0.083342     0.52172     0.50495     0.22212
-0.015648    -0.52408  -0.0031506      0.1307      0.8598     0.17181     0.14583
-0.016963    -0.63852    0.026776     0.18365       1.188   -0.017292      0.1113
-0.00051963    -0.70561    0.063938     0.22344      1.4301    -0.14752     0.11162
0.022501    -0.71449    0.096167     0.24021      1.5461    -0.25605     0.13103
0.041247    -0.67371      0.1136     0.23396      1.5406    -0.34517     0.15635
0.048482    -0.61254     0.11261     0.21193      1.4393    -0.41687      0.1751
0.044535    -0.55302    0.099127     0.18529      1.2719    -0.49152     0.18134
0.029407    -0.50369    0.080053     0.16095      1.0532    -0.61879     0.16687
0.0047422    -0.46488    0.062623     0.13563      0.7881     -0.8513     0.13333
-0.026829    -0.44054     0.04322      0.1057     0.48292     -1.1989    0.090577
-0.058729    -0.43364    0.020199    0.066898     0.16622     -1.6176    0.045193
-0.083394    -0.44844  -0.0024928    0.016581    -0.12779     -2.0451    0.002769
-0.10477    -0.48955   -0.016634   -0.039326    -0.36951     -2.4236   -0.035051
-0.12253    -0.55663   -0.019265   -0.088656    -0.54184      -2.714   -0.068924
-0.13733      -0.628   -0.013345    -0.12056    -0.63852     -2.8906    -0.10082
-0.14325    -0.67799  -0.0077547    -0.13338    -0.65793     -2.9501    -0.12878
-0.13996    -0.68456  -0.0028217    -0.13108    -0.60564     -2.8969    -0.15147
-0.13141    -0.64214 -0.00051963    -0.11398    -0.49777      -2.737     -0.1666
-0.12582    -0.55499  0.00079584   -0.085039    -0.36589      -2.497    -0.17581
-0.12121    -0.43758    0.002769   -0.054125    -0.24783     -2.2197    -0.18436
-0.11168    -0.30374    0.002769   -0.028144    -0.16298      -1.928    -0.19291
-0.091287    -0.16726   0.0014536   -0.015976    -0.11036     -1.6097    -0.19093
-0.063333    -0.03538   0.0030979   -0.022883    -0.07879     -1.2496    -0.17449
-0.038997    0.085315    0.010991   -0.048534   -0.061689    -0.87268    -0.14851
-0.026171     0.19285    0.021186   -0.085696   -0.058071    -0.54644    -0.11924
-0.026829     0.29283     0.02283    -0.11924   -0.075173    -0.34024   -0.099838
-0.034064     0.38985    0.017568    -0.14522    -0.11135    -0.27743   -0.094247
-0.039655     0.48555    0.013293    -0.16364    -0.14851    -0.31623    -0.10247
-0.036695     0.57664    0.016253    -0.16923    -0.16594    -0.37707    -0.11727
-0.023211     0.66017     0.02875    -0.15772    -0.15279    -0.40305    -0.12615
-0.00051963     0.74075     0.04618    -0.12483    -0.11793    -0.37115     -0.1176
0.023817        0.82    0.064925   -0.078461   -0.081421    -0.30505   -0.093589
0.038616      0.8894     0.07808   -0.033406     -0.0584    -0.24158   -0.070568
0.041904     0.93478    0.079724  -0.0054526   -0.059387    -0.20935   -0.062018
0.036971     0.94201    0.075449   0.0044134   -0.083723    -0.21428   -0.064649
0.031709     0.90551    0.072489   0.0024402    -0.12615    -0.26657    -0.07287
0.033025     0.82757    0.074462  -0.0038083    -0.18041    -0.38036    -0.08175
0.041575      0.7197    0.076764   -0.011043    -0.23862    -0.57242   -0.087341
0.053086     0.59637    0.077751   -0.016305    -0.30242    -0.83058   -0.092931
0.063938     0.47404    0.076764   -0.021238    -0.36918     -1.0917    -0.10017
0.067885     0.36189    0.071502   -0.025185    -0.43134     -1.2811    -0.10609
0.064267     0.26257    0.057032   -0.024856    -0.48099     -1.3676    -0.11168
0.049468     0.16819    0.036314   -0.017292    -0.51717      -1.361    -0.11562
0.033354    0.066569    0.017239  -0.0061104     -0.5448     -1.2943    -0.11497
0.026447   -0.038997   0.0030979   0.0096753    -0.56551     -1.2232    -0.10148
0.030065    -0.13996  -0.0061104    0.025461    -0.57933     -1.2219   -0.072213
0.039602    -0.22514   -0.011043    0.041575     -0.5688     -1.3321   -0.033406
0.05177    -0.28927   -0.011701     0.06361    -0.49777     -1.5202   0.0044134
0.069529    -0.33695   -0.004466     0.10274    -0.33169     -1.6846    0.037629
0.096825    -0.37707    0.015595     0.15799   -0.065964     -1.7142    0.064925
0.12412    -0.41851    0.042562     0.21982     0.25106     -1.5653    0.088275
0.13859    -0.46817    0.071173     0.27211     0.54014     -1.2834     0.10406
0.13201    -0.52473    0.094523     0.30566       0.722    -0.96673     0.10834
0.10636    -0.58163     0.10538     0.30829     0.74272    -0.71318    0.098798
0.067227     -0.6303    0.093536     0.27507     0.57598    -0.58064    0.071502
0.022172    -0.66648    0.058019     0.21292     0.24482    -0.56847    0.023817
-0.025842    -0.69048    0.010004     0.13596    -0.18173     -0.6326   -0.040641
-0.07583    -0.70791   -0.038668    0.055059    -0.61616    -0.70726    -0.10773
-0.12121    -0.72567   -0.079777   -0.021238    -0.98449    -0.73554    -0.16923
-0.15838    -0.74606    -0.10543    -0.08175     -1.2542    -0.65661    -0.22152
-0.18567    -0.76941    -0.11694    -0.12056     -1.4176    -0.39121    -0.26263
-0.20475    -0.78487    -0.12121    -0.13864     -1.4729     0.11064    -0.28894
-0.21231    -0.78191    -0.12417    -0.13799     -1.4179     0.76443    -0.28927
-0.20277     -0.7533    -0.12417    -0.12253     -1.2601      1.3889    -0.25572
-0.17745    -0.70232    -0.12056   -0.093918    -0.99797      1.8138    -0.19784
-0.14292    -0.63326    -0.11398   -0.054125    -0.63622      1.9549    -0.13174
-0.11036    -0.55302    -0.10477  -0.0011774    -0.20277       1.829   -0.068266
-0.082079    -0.47047     -0.0903    0.067885     0.26159      1.5383    -0.01203
-0.053796    -0.39352   -0.066951     0.15602     0.73154      1.2446    0.036642
-0.024527    -0.32413   -0.033735     0.25501      1.1992       1.113    0.075778
0.0021113     -0.2623   0.0060577     0.35531      1.6553      1.2426     0.10965
0.023817    -0.20705    0.048153     0.43918      2.0809      1.6254     0.14879
0.042891    -0.15936    0.087946     0.50035      2.4574      2.1763     0.19943
0.064925    -0.11233     0.11985     0.53685      2.7824      2.7764      0.2583
0.089919   -0.059716     0.14352     0.55362      3.0504       3.321     0.31552
0.11623   0.0011247     0.16227     0.55658      3.2362       3.739     0.35992
0.14024    0.065912     0.17773     0.54737      3.2862      3.9682     0.38689
0.15767     0.12905     0.18332     0.52929      3.1402      3.9459     0.39116
0.16622      0.1797     0.17608     0.49969      2.7682      3.6361      0.3688
0.1626      0.2162     0.15536     0.44937      2.2042      3.0652     0.31717
0.14616     0.24186     0.12807     0.37965      1.5356      2.3187     0.24843
0.12412     0.25731     0.10505     0.29546     0.88315      1.5211     0.18759
0.10406     0.25863    0.090248     0.20371     0.35268     0.79074     0.15635
0.091234     0.25271    0.081039     0.11393  -0.0018351      0.2241     0.15931
0.087617     0.24778    0.073476    0.036642    -0.18765     -0.0584     0.18858
0.096167     0.25008    0.063281   -0.022225    -0.25441     0.03434     0.22015
0.11393     0.26192    0.052099   -0.062347    -0.26953     0.46483     0.23955
0.13432     0.27704    0.045851   -0.087341    -0.29749      1.0512     0.24186
0.1455     0.28625    0.042562    -0.10477    -0.37806      1.5662     0.22673
0.14122     0.28823    0.041575     -0.1199    -0.51421      1.8438     0.19351
0.12346     0.29546    0.035985    -0.14226    -0.67437      1.8359     0.14977
0.10143     0.31059    0.022501    -0.17712     -0.8092      1.5873     0.10505
0.080053     0.32802 -0.00019077    -0.21889    -0.88452      1.1745    0.071173
0.058019      0.3438   -0.029131    -0.25671    -0.89307     0.65064    0.046837
0.038944     0.35334   -0.055769    -0.28565    -0.85097   0.0057288    0.030394
0.027763     0.35334   -0.075501    -0.29716    -0.78586    -0.84012     0.02579
0.024145     0.34348   -0.087669    -0.29354    -0.71416     -1.9385    0.037629
0.022501     0.32703   -0.090629    -0.28631    -0.65036     -3.1774    0.070187
0.02283     0.31092   -0.086683    -0.28203    -0.60037     -4.2087     0.12379
0.031052     0.30335   -0.080763    -0.28039    -0.56814     -4.5839      0.1945
0.048153       0.305   -0.074844    -0.27052    -0.55532     -4.0097     0.27047
0.071502     0.31059   -0.067937    -0.24355    -0.56025     -2.5821     0.33493
0.093208     0.31848   -0.055112    -0.20639    -0.58623    -0.79046     0.36781
0.10866     0.32111   -0.032091    -0.17054    -0.63425     0.72102     0.35762
0.11524     0.31585  -0.0047949    -0.14818    -0.69377      1.5142     0.30796
0.10965     0.30138    0.015266    -0.14719    -0.74935      1.5609     0.23331
0.094194     0.28099     0.02283    -0.16199    -0.79177      1.1018     0.15142
0.074791     0.25863    0.014937    -0.18107    -0.81874     0.46779    0.072489
0.057361     0.24021  -0.0051238    -0.19521    -0.82433   -0.091287   0.0044134
0.044535      0.2287   -0.029789    -0.20146    -0.81184    -0.48231   -0.046561
0.035327     0.22278   -0.053796    -0.19521     -0.7898    -0.75823   -0.079448
0.028421     0.22673   -0.064978    -0.17548    -0.76974      -1.042   -0.094576
0.023817     0.23758   -0.062018    -0.14917    -0.74738     -1.3827   -0.091945
0.029407     0.25271   -0.045574    -0.12187    -0.70758     -1.6399   -0.072542
0.04026     0.26882   -0.021896    -0.10148    -0.63162     -1.5557   -0.037353
0.052757     0.28428   0.0047422   -0.088327    -0.52375     -1.0022   0.0083598
0.063938     0.29546    0.032696   -0.075501    -0.41391    -0.15542    0.051113
0.07216     0.30335    0.056703   -0.059387    -0.34353     0.59769    0.074791
0.073804      0.3027    0.068214   -0.048534    -0.33333     0.93971    0.066569
0.068871     0.29151    0.067227   -0.044917    -0.37148     0.77363     0.03434
0.058676     0.26784    0.052757    -0.04985    -0.43364     0.18792  -0.0097279
0.040589     0.23429    0.029407   -0.057414    -0.49579    -0.59413   -0.055112
0.015595     0.19614   0.0047422   -0.061031    -0.54019     -1.2739   -0.089972
-0.011372     0.15635  -0.0084125   -0.055769    -0.55959     -1.6028    -0.10937
-0.034393     0.11623  -0.0087413   -0.044259    -0.54512      -1.484    -0.11431
-0.04985    0.076435  -0.0018351   -0.031104    -0.49218     -0.9914    -0.11201
-0.057085    0.038616   0.0024402   -0.018936    -0.40437    -0.32182    -0.11694
-0.059058   0.0057288  -0.0011774  -0.0051238    -0.30406     0.28691    -0.13799
-0.059716   -0.022225   -0.010057    0.012635    -0.21889     0.66017    -0.17153
-0.060045   -0.045246   -0.020252    0.033683    -0.16166     0.75226    -0.20639
-0.06136   -0.063333   -0.026171    0.054401    -0.12648     0.63584    -0.23336
-0.069582   -0.073857   -0.026829     0.07216   -0.095233     0.44477    -0.25145
-0.083723   -0.073528   -0.021567    0.087946   -0.051823     0.32013    -0.25638
-0.092931   -0.063004    -0.01203     0.10636    0.022172     0.36025    -0.25309
-0.089643   -0.043601 -0.00051963     0.13333     0.14056     0.59407    -0.23763
-0.07024   -0.017621    0.012635     0.16983     0.30237     0.97359    -0.20179
-0.037682    0.010004     0.02875     0.21489     0.48949      1.3857    -0.14752
-0.0011774    0.035327    0.045522     0.25961     0.66182      1.6928   -0.091287
0.028421     0.04881    0.062623     0.29283      0.7641      1.7787   -0.050836
0.041904    0.047824    0.079066      0.3073     0.75423      1.5849   -0.041957
0.039602    0.028092    0.090577     0.29941     0.62795      1.0986   -0.065964
0.024803  -0.0018351    0.093865     0.27507     0.42898     0.35499     -0.1245
0.0014536   -0.035708    0.085315     0.24087     0.21653    -0.59314    -0.21593
-0.026829   -0.065635    0.067556     0.19943    0.034011     -1.7077    -0.33235
-0.053467   -0.086025    0.047824     0.15635   -0.091287     -2.9149    -0.45962
-0.07287   -0.091616    0.030394     0.11393    -0.14752     -4.0732     -0.5767
-0.077475   -0.087669    0.015595    0.078737    -0.13404     -4.9658     -0.6576
-0.066951    -0.07879   0.0040845    0.056703   -0.076488     -4.9658    -0.68588
-0.055112   -0.066293  -0.0031506    0.049468   -0.011701     -4.9651    -0.66713
-0.051823   -0.052481  -0.0024928    0.054072    0.041575     -4.9648    -0.62109
-0.0584   -0.037353      0.0054    0.065912    0.099456     -4.9651    -0.56387
-0.068595   -0.025842    0.014608    0.079724     0.19253     -4.9651    -0.50204
-0.07583   -0.017621    0.024145    0.094523     0.33723     -4.2228    -0.42772
-0.07024   -0.013674    0.033025     0.11656     0.52797     -2.7482    -0.31689
-0.046561  -0.0093991    0.038944     0.14944     0.73581    -0.58689    -0.14654
-0.0015062   0.0011247    0.045851     0.19253     0.89663      2.2953      0.1011
0.05769    0.020857    0.056046     0.24021     0.93971      4.9594     0.41352
0.12083    0.052099    0.069529     0.27935     0.82921      4.9591     0.75259
0.17674    0.088932    0.084328     0.29579     0.58486      4.9588      1.0634
0.21489     0.12708    0.094852     0.27869     0.26948      4.9598      1.2926
0.22804     0.15175    0.096496     0.23067   -0.039326      4.9594      1.3998
0.22278     0.15767    0.090248     0.16095    -0.27249      4.9591      1.3794
0.20568     0.14418    0.080382    0.088932    -0.40371      4.9594      1.2561
0.18726     0.11754    0.074462    0.031381    -0.44548      4.9588      1.0673
0.16556    0.090248    0.071502  -0.0084125    -0.43298      2.8169     0.84993
0.14056    0.071502    0.070187   -0.036037     -0.3922     0.81178     0.63551
0.11327    0.064267    0.068871   -0.060373    -0.33235    -0.42805     0.44674
0.082026    0.065583    0.068214   -0.077146    -0.24355    -0.99699      0.2948
0.052428    0.070845     0.07216   -0.084052    -0.11431     -1.1318     0.18759
0.030723    0.076106    0.078737   -0.079777    0.054072     -1.0684     0.12116
0.018226     0.07808     0.08367   -0.067609     0.24054    -0.97528    0.085644
0.017897     0.07512    0.081697   -0.050179     0.42668    -0.93483    0.062294
0.029078     0.07216    0.076435   -0.027487     0.59802    -0.95884      0.0373
0.04618     0.07216    0.074791   0.0001381      0.7516     -1.0269    0.010991
0.061965    0.076435    0.075778    0.031709     0.88216     -1.1177   -0.014003
0.065912    0.087617    0.079066     0.06361      0.9897     -1.2203   -0.034064
0.059663     0.10932    0.086959    0.092221      1.0736     -1.3272   -0.051494
0.046508     0.14089    0.095839     0.11491      1.1295     -1.4258   -0.067937
0.030723     0.18628    0.096496     0.12577      1.1505     -1.5038    -0.07879
0.017568     0.24186    0.087946     0.12313      1.1301     -1.5511    -0.08471
0.011648     0.29382    0.074462     0.10406      1.0653     -1.5541   -0.085367
0.014937     0.32243    0.060979    0.074791      0.9555     -1.4916   -0.080106
0.020857     0.31881    0.051113    0.042562     0.80784     -1.3472   -0.069911
0.02579     0.29086    0.047166    0.015266     0.63617     -1.1289   -0.059058
0.026447     0.25106    0.044206   -0.007097     0.45036    -0.89438   -0.051823
0.027434      0.2116    0.038616   -0.026829     0.26586    -0.72765   -0.056098
0.031052     0.17575    0.030723   -0.046561    0.099127    -0.69081   -0.071226
0.039602     0.14221    0.021186   -0.068924   -0.038011    -0.79934   -0.097536
0.048153     0.11064     0.01132   -0.089314    -0.13799     -1.0256     -0.1324
0.053086    0.079395   0.0073732    -0.10609    -0.19685     -1.3189    -0.16627
0.052099    0.045522   0.0001381    -0.11529    -0.21856     -1.6337    -0.19126
0.045193    0.011648   -0.014661     -0.1097    -0.20277     -1.9573    -0.19981
0.036314   -0.021896   -0.030447   -0.088656    -0.15279     -2.3223     -0.1985
0.030394   -0.052481   -0.040641   -0.059058   -0.083065     -2.7439    -0.19028
0.027105   -0.080106    -0.04097   -0.032749    -0.02946     -3.1425    -0.17679
0.024145     -0.1028   -0.034722   -0.013674   -0.023211     -3.3543    -0.16134
0.018884    -0.11891   -0.027816   -0.002164   -0.068924     -3.2425    -0.15279
0.0093464    -0.13042   -0.025514   0.0021113    -0.14752     -2.7959    -0.16068
-0.0054526    -0.13897   -0.030447  -0.0008485     -0.2304      -2.123    -0.18699
-0.02946    -0.14917   -0.038997   -0.004466    -0.29058     -1.3893    -0.21428
-0.061689    -0.16134   -0.040313  -0.0051238    -0.32413    -0.75428    -0.23204
-0.088985     -0.1689   -0.032749  -0.0064392    -0.34682     -0.3113    -0.23073
-0.098522    -0.15936   -0.021567   -0.013017    -0.38201    -0.08471    -0.20968
-0.090629    -0.13207   -0.011701   -0.022554    -0.44449   -0.038668    -0.17449
-0.068924   -0.098851  -0.0054526   -0.027158    -0.53065   -0.089314    -0.13338
-0.042944   -0.080763  -0.0051238   -0.024856    -0.62142    -0.13832   -0.097536
-0.019923   -0.093918  -0.0090702   -0.021238    -0.69607    -0.12187   -0.075501
-0.007097    -0.13897   -0.011043   -0.020909    -0.74705   -0.024527   -0.070568
-0.0041372    -0.20343  -0.0097279   -0.021896    -0.77106     0.12478   -0.075501
-0.010057    -0.26493  -0.0087413     -0.0265    -0.77336     0.27178   -0.070568
-0.019923    -0.30637   -0.011701   -0.033078    -0.77402     0.35827   -0.046232
-0.024198    -0.32051   -0.017292   -0.036695    -0.79638     0.35367  -0.0080836
-0.019923    -0.30472   -0.017621   -0.037024    -0.84275     0.25041    0.032038
-0.004466     -0.2692  -0.0051238   -0.024527    -0.88452    0.058348    0.070845
0.018555    -0.22119    0.015924   0.0070443    -0.87761    -0.18205      0.1034
0.047824    -0.16758    0.037958    0.050126    -0.79769    -0.40272     0.12281
0.080053    -0.12089    0.055388    0.093536    -0.66286    -0.54808     0.12642
0.10406   -0.092603    0.068214     0.12445    -0.52704    -0.60037     0.11458
0.10735   -0.085039    0.073804     0.13629    -0.42838    -0.57374    0.089919
0.08959   -0.088656    0.073476     0.13563    -0.35701    -0.49218    0.060321
0.061965   -0.090958    0.073147     0.13497    -0.26065    -0.36984    0.038287
0.033683   -0.086683    0.076764     0.14122   -0.091616    -0.21527    0.029407
0.010004   -0.081421    0.088603     0.15898     0.15767   -0.041957    0.028421
-0.004466   -0.082408     0.10538     0.18332     0.46055     0.13103     0.02579
-0.010715   -0.096549     0.11886     0.21061     0.77594     0.27935    0.023488
-0.0080836    -0.12417     0.12741     0.23692      1.0693     0.38656    0.027763
-0.00051963    -0.16627     0.13004     0.25961      1.3186     0.43293    0.034669
0.0090175    -0.21297     0.12807     0.28066      1.5017     0.41846    0.039602
0.022501    -0.25079     0.12281     0.29776      1.6011     0.40925    0.042891
0.042562    -0.26953     0.11689     0.30862      1.6142     0.50331    0.056046
0.064925    -0.26526     0.11393     0.30829      1.5455      0.7368     0.08663
0.08367    -0.24257     0.10801     0.28527      1.3988      1.0371     0.12379
0.093208    -0.21001    0.095181     0.23922       1.188      1.2587     0.14879
0.094852    -0.16989    0.079066     0.18003     0.93807      1.2807     0.14352
0.091892    -0.12352    0.056703      0.1205     0.67366      1.0722     0.10209
0.08367   -0.073528    0.026119     0.07216     0.42043     0.68944    0.028092
0.065912   -0.021238   -0.014003    0.035656     0.19483     0.23758   -0.054454
0.04026     0.03434   -0.064978    0.013951      0.0054     -0.1837    -0.11891
0.017239    0.095181    -0.11562 -0.00019077    -0.14456    -0.51914    -0.14456
0.012635     0.16622    -0.15279   -0.014003     -0.2452    -0.76579    -0.12944
0.029407     0.24482    -0.16791   -0.021896    -0.28367    -0.93385   -0.078461
0.060979     0.32111    -0.15607   -0.015648    -0.24717     -1.0263  -0.0024928
0.097154     0.38064    -0.11924   0.0083598    -0.13338     -1.0463    0.086959
0.1307      0.4178   -0.066293    0.042233    0.044864    -0.93483     0.18102
0.15339     0.42438  -0.0077547    0.073804     0.25238    -0.59215     0.27639
0.16786     0.39774    0.041247    0.093536     0.43095    0.010333     0.36189
0.17049     0.34874    0.067556    0.091234     0.52731     0.78909     0.42832
0.15438     0.28888    0.068871    0.064596      0.5181      1.5675     0.46746
0.1205     0.22903     0.05473    0.024145     0.41484      2.1838     0.46779
0.076435     0.17444    0.036971   -0.018278     0.24712      2.5308     0.43194
0.036971       0.133    0.022501     -0.0584    0.048153      2.5906     0.36354
0.012306     0.10406    0.016581   -0.092931    -0.15739      2.4324     0.28428
0.0057288    0.091892    0.020528    -0.12286     -0.3432      2.1624     0.21883
0.012306    0.083342    0.032367    -0.14851    -0.49481      1.8773     0.17477
0.01987    0.059334    0.042233    -0.17285    -0.59643       1.632     0.14912
0.020199    0.011977    0.049139    -0.19554    -0.63622      1.4238     0.12905
0.010004   -0.057414    0.051113    -0.21198    -0.62043      1.2192     0.10439
-0.011043    -0.13799    0.043549    -0.22316    -0.56255     0.98181    0.074133
-0.039326    -0.21363    0.032367     -0.2304    -0.49218     0.69931    0.039602
-0.072213    -0.26855    0.022501    -0.23533    -0.44252     0.37307   0.0063866
-0.10641    -0.29321    0.017897    -0.23961    -0.43791   0.0067154   -0.023211
-0.13799    -0.28762     0.02283    -0.24059    -0.47639    -0.37707   -0.050836
-0.1587    -0.25375    0.033354    -0.23599    -0.54315    -0.73948   -0.081092
-0.16923    -0.19685    0.038944    -0.23171    -0.61649     -1.0595    -0.11924
-0.17219    -0.12582    0.036971    -0.22875    -0.67832      -1.339    -0.16364
-0.16923   -0.046232    0.027763     -0.2202    -0.71679     -1.5926    -0.20836
-0.15969    0.031381    0.013293    -0.19981    -0.71909     -1.8165    -0.24059
-0.13996    0.096496 -0.00019077    -0.17186    -0.68391     -1.9652    -0.24618
-0.10839      0.1455  -0.0047949    -0.14259    -0.62142     -1.9461     -0.2202
-0.063662     0.17674      0.0054     -0.1074    -0.56091      -1.682    -0.16528
-0.010057     0.18924    0.026776   -0.062018    -0.52112     -1.1611   -0.082079
0.041247     0.17838    0.053415   -0.011701    -0.50434    -0.47738    0.014608
0.083013     0.14188    0.074133     0.03434    -0.49842     0.20897     0.10603
0.10801    0.087946    0.082026    0.068871    -0.48297     0.76114     0.18233
0.12346    0.031052    0.079066    0.084657    -0.43956      1.1216     0.24021
0.1307   -0.012688    0.066569    0.081697    -0.37444      1.2896      0.2777
0.13169    -0.03538    0.049797    0.064925    -0.31031      1.2844     0.28592
0.12313   -0.034064    0.031381    0.042233    -0.25572      1.1472     0.26422
0.10636    -0.01795    0.013951    0.021843    -0.21297     0.93346     0.22311
0.084328    0.010004  -0.0008485    0.010004    -0.17581     0.68846     0.17016
0.063281    0.044864   -0.011701   0.0077021    -0.13371     0.45858     0.10932
0.050455    0.088275   -0.016634    0.012306   -0.066951     0.31092    0.047824
0.050784     0.13826   -0.013674    0.027105    0.052428     0.32013   0.0080309
0.056046     0.19022  -0.0024928    0.059663     0.23955     0.54408    0.002769
0.06065     0.24745    0.016253     0.11721     0.46845     0.97326    0.030394
0.06065     0.33525    0.036314     0.18628     0.67399      1.4629      0.0692
0.06065     0.47502    0.047495     0.24153     0.78054      1.7925    0.092879
0.059005     0.65393    0.045851     0.26619     0.74239       1.803    0.073476
0.052428     0.81704    0.028421     0.25041     0.56743      1.4738   0.0060577
0.036971     0.89499   0.0011247     0.20502     0.31388     0.91636   -0.088327
0.016253     0.85223   -0.029131     0.14616    0.052428     0.30467    -0.18238
-0.0024928     0.69306   -0.050179     0.08959    -0.16331    -0.20014    -0.25605
-0.0093991     0.46417   -0.061031    0.048153    -0.31985    -0.50632    -0.29617
-0.0041372     0.23166   -0.064649    0.027105    -0.42575    -0.60761    -0.30374
0.0096753    0.045522   -0.061689    0.026447    -0.49251    -0.55367    -0.29058
0.023488    -0.07287   -0.055112    0.042891    -0.51487    -0.42213    -0.26263
0.033025    -0.12779   -0.047219    0.067556    -0.47902    -0.27677    -0.22711
0.033683    -0.13766   -0.034722    0.090248    -0.38464    -0.14752    -0.18732
0.025461    -0.12483   -0.019265     0.10735    -0.25243   -0.041628    -0.15377
0.0083598    -0.11365  -0.0047949      0.1136    -0.11793    0.035656    -0.13733
-0.015648    -0.12023  -0.0008485     0.10636   -0.019265     0.06624    -0.14325
-0.038339    -0.14621   -0.010057    0.089919    0.024474    0.051441    -0.16101
-0.05281    -0.18041   -0.027816    0.072818     0.02579    0.023159    -0.17613
-0.056098    -0.20672   -0.045903     0.06624    0.012964    0.016581    -0.17844
-0.049192    -0.21395   -0.051494     0.07512    0.013622    0.053743    -0.16298
-0.032749    -0.20047    -0.04097    0.099127    0.048153      0.1159    -0.13963
-0.012359    -0.16923   -0.016634     0.12708     0.12642     0.12149    -0.11431
0.0086887     -0.1268   0.0050711     0.15734     0.23331   -0.014332   -0.086683
0.026447   -0.082736    0.014608     0.19121      0.3346    -0.32676   -0.068924
0.034669   -0.042286    0.014937     0.22443      0.3984    -0.79605   -0.063004
0.034669  -0.0090702    0.014279     0.24679     0.41451     -1.3555   -0.068595
0.029078    0.011977    0.018555     0.24843     0.39478     -1.8596    -0.08175
0.018555    0.019212    0.023159     0.22179     0.35203     -2.1289   -0.094576
0.0024402    0.010333     0.02579     0.16885     0.28987     -2.0836   -0.097207
-0.010715  -0.0057815     0.01987     0.10472     0.21555     -1.7189   -0.077803
-0.017292   -0.017292   0.0037556    0.049139      0.1455     -0.9812   -0.024856
-0.016963   -0.019265    -0.01499    0.013293    0.089261     0.20108    0.058348
-0.0077547   -0.011701   -0.023211  -0.0031506    0.049139      1.6974     0.15503
0.0080309   -0.002164   -0.012688  -0.0051238    0.028421       3.104     0.24712
0.02579   0.0093464    0.012635   0.0037556    0.038616      3.9502     0.32144
0.045193    0.026447    0.041247    0.022501     0.10176       3.988     0.37373
0.065912    0.050126    0.069858     0.05473     0.23561      3.3342     0.40695
0.087946    0.073476    0.099127    0.089919     0.42997      2.3519     0.42734
0.11031    0.090248     0.12577     0.11261     0.63946      1.4011     0.43161
0.12938    0.094194     0.14122     0.11853     0.80126     0.68287     0.40991
0.14089    0.086959     0.14221     0.10998     0.87032     0.22245     0.36222
0.14122    0.067556     0.13333     0.10044     0.83875   -0.039326     0.29875
0.13169    0.039931     0.11853    0.095839     0.74371    -0.18074     0.23922
0.12346    0.013951     0.10801     0.10011     0.62926    -0.29288     0.20173
0.12215  -0.0038083     0.10406     0.10899     0.51876    -0.45797      0.1968
0.12741  -0.0077547     0.10834     0.11195     0.41846    -0.70989     0.22147
0.13596 -0.00019077     0.11754     0.10538     0.32177     -1.0154     0.25402
0.13826    0.011977     0.12478    0.085315     0.21686     -1.3213     0.26915
0.12905    0.019212     0.12544    0.050455     0.11031     -1.5886     0.25633
0.10834    0.020199      0.1136   0.0080309    0.013293     -1.8001     0.21522
0.081039    0.015595    0.093536   -0.031104   -0.063991      -1.956     0.15701
0.050455    0.011648      0.0692   -0.057743    -0.11727     -2.0536    0.096825
0.022501    0.010333    0.048153   -0.071226    -0.14292     -2.0704    0.047495
0.0030979    0.013293     0.03434    -0.07879    -0.14489     -1.9718    0.019212
-0.0084125    0.022172    0.024474   -0.083065    -0.13141     -1.7452   0.0086887
-0.015976    0.034011    0.015924   -0.086354    -0.11233     -1.4193   0.0040845
-0.022554    0.046837   0.0086887   -0.092603   -0.098522     -1.0723  -0.0011774
-0.026171    0.059992   0.0014536    -0.10905   -0.095891    -0.79145   -0.011701
-0.027487    0.073804   -0.011043    -0.13766    -0.10707    -0.62274   -0.036695
-0.024198    0.084986   -0.028473    -0.16726    -0.12154    -0.55894   -0.069253
-0.018278    0.090905   -0.046232    -0.18666    -0.12845    -0.55433   -0.090958
-0.013345    0.093536   -0.062347    -0.18797    -0.12615    -0.56683   -0.094247
-0.010715    0.090577   -0.071555    -0.17285    -0.11727    -0.57801   -0.085696
-0.010386    0.080382   -0.068924    -0.14983    -0.10378    -0.58952   -0.076817
-0.015976    0.063938   -0.060373    -0.12483   -0.094905    -0.61221   -0.081421
-0.025842    0.043549   -0.051165   -0.096878   -0.098193     -0.6428    -0.10214
-0.038668    0.026119   -0.041299    -0.07024    -0.10839     -0.6724    -0.13108
-0.049192    0.013951   -0.028802    -0.04985    -0.11825    -0.69147    -0.16035
-0.050836   0.0080309   -0.011372   -0.041299     -0.1199    -0.68522    -0.18403
-0.042944   0.0060577   0.0063866    -0.04097     -0.1176    -0.63754    -0.19784
-0.031433   0.0040845    0.015924   -0.042615    -0.11661    -0.53328    -0.20212
-0.02354  -0.0034794    0.012964   -0.034722    -0.12352    -0.37411    -0.20343
-0.023869   -0.016305  0.00079584   -0.016634    -0.13404    -0.17548    -0.20738
-0.030447   -0.030447  -0.0077547   0.0093464    -0.14456    0.027105    -0.20935
-0.038011   -0.043272   -0.012688     0.03434     -0.1541      0.1991    -0.20179
-0.040313   -0.046561   -0.011372    0.045851    -0.16331     0.32868     -0.1814
-0.036366   -0.037024  -0.0077547    0.041904    -0.17646     0.41287    -0.15673
-0.024856   -0.021238  -0.0077547    0.028421    -0.19488     0.44477    -0.13536
-0.0064392  -0.0093991   -0.010386    0.014279    -0.21823      0.4201    -0.11266
0.010991  -0.0084125   -0.014003   0.0057288    -0.23632     0.34676   -0.086683
0.023488   -0.020581   -0.014332   0.0024402     -0.2373     0.22475   -0.055112
0.026447    -0.04097   -0.012359   0.0030979     -0.2133    0.053415   -0.014661
0.019541   -0.061689  -0.0090702    0.010004     -0.1643   -0.097864    0.032367
0.0093464    -0.07583  -0.0031506    0.026447   -0.088656   -0.086025    0.084328
0.0030979   -0.083723   0.0040845    0.050455   0.0044134     0.18825     0.13234
0.0047422   -0.088656    0.018884    0.083013     0.10603     0.65393     0.15799
0.014937   -0.094247    0.039273     0.12511     0.20535      1.1094     0.15043
0.029078   -0.099838    0.063938     0.17115      0.2879        1.36     0.11195
0.042891    -0.10806    0.087288     0.21094     0.34052      1.3199    0.056046
0.051441     -0.1222     0.10209     0.23692     0.35762      1.0203      0.0054
0.053415    -0.14259     0.10274     0.24547     0.34249     0.56283   -0.029789
0.052099    -0.16857    0.090577     0.23955     0.30335    0.072489   -0.051165
0.049139    -0.19291    0.074133     0.22541     0.25205    -0.34517   -0.062347
0.041575    -0.21067    0.062623     0.20963     0.20272    -0.62307    -0.07024
0.029736    -0.22053    0.055388      0.1945     0.16128    -0.73916   -0.082408
0.014937    -0.23237    0.051441     0.18102      0.1307    -0.70758   -0.095233
0.0047422    -0.25342    0.047824     0.16983     0.11458    -0.57702    -0.10115
-0.0011774    -0.28335    0.042562     0.15997     0.11097    -0.38628   -0.093918
-0.0074258    -0.31064    0.033683     0.15142     0.11689    -0.13799   -0.083065
-0.019923    -0.32708    0.022501     0.14385     0.12248     0.15865   -0.070568
-0.037024    -0.32643    0.011977     0.13793     0.12675     0.50363   -0.055112
-0.05281    -0.30702   0.0040845     0.13662     0.13728     0.95056   -0.035051
-0.061031    -0.26723 -0.00051963     0.13925     0.15306      1.5215  -0.0015062
-0.053796    -0.20902   0.0021113     0.14484      0.1672      2.1171    0.051113
-0.030118    -0.14226    0.012306     0.14648     0.16391      2.5568      0.1182
0.0054   -0.080434     0.01987     0.14155     0.12741      2.6853       0.182
0.04322   -0.039984    0.025132     0.13169    0.059663      2.4607     0.22673
0.072818   -0.026829    0.029407     0.12544   -0.021567      1.9714     0.24482
0.090248   -0.034722    0.036971     0.12412    -0.09326      1.3732     0.23988
0.098141   -0.050507    0.046837     0.12313     -0.1495     0.80586     0.22311
0.10143   -0.059387    0.057361     0.11031    -0.19291     0.34742     0.20371
0.10439   -0.057743    0.065912    0.080711    -0.23763    0.011648     0.18726
0.10636   -0.045246    0.070845    0.036642    -0.27973    -0.21889     0.17773
0.10735   -0.027816    0.077093   -0.010386    -0.30867    -0.34517      0.1751
0.10735  -0.0051238    0.082684   -0.045246    -0.31294    -0.34813     0.17542
0.1034    0.024803    0.087617    -0.06136     -0.2919    -0.21626     0.17707
0.096167    0.066569    0.087946   -0.063004    -0.24816    0.018226     0.18463
0.08663     0.12642     0.08367   -0.059058    -0.18534     0.28757     0.19351
0.07512     0.20338    0.076435   -0.059716    -0.11299     0.51712     0.19549
0.062623     0.29842    0.064925   -0.069911   -0.050836     0.62795     0.18595
0.052099      0.4053    0.050784     -0.0903    -0.01795     0.52994     0.15109
0.04322     0.52041    0.035985    -0.11793   -0.017621     0.15832    0.080053
0.035985     0.63452    0.023817    -0.14095   -0.030447    -0.46883   -0.022225
0.025132     0.74108    0.019212    -0.15114   -0.024198     -1.2591    -0.13667
0.010991     0.82888    0.021843     -0.1416    0.038287      -2.103    -0.23467
0.0001381     0.89762     0.03434     -0.1074      0.1843     -2.8959    -0.29946
0.0011247     0.94958    0.050455   -0.050507     0.39938     -3.5661    -0.32347
0.018226     0.98148    0.068543    0.018884     0.63518     -4.0831    -0.30735
0.043877     0.99233    0.081368    0.080711     0.81639     -4.4248    -0.26098
0.068871     0.98806    0.088275     0.11689     0.88578     -4.5668    -0.20738
0.085315     0.96964    0.085972     0.11458     0.82296      -4.479     -0.1643
0.087617     0.93313    0.076106    0.077751     0.64834     -4.1051    -0.13174
0.083013     0.87657    0.062952    0.020857     0.40925     -3.3612     -0.1005
0.080711     0.79797    0.048482   -0.036695      0.1695     -2.1451   -0.056427
0.083013     0.70293    0.038616   -0.081421   -0.024527    -0.40634    0.011648
0.089919     0.59769    0.031052    -0.10576     -0.1518       1.751     0.11426
0.096825     0.48423    0.021514    -0.10641    -0.21132      4.0452     0.25731
0.099456     0.36058    0.011977   -0.088656    -0.21659      4.9594     0.43655
0.1034     0.22015   0.0093464   -0.052152    -0.17613      4.9594     0.63485
0.11623    0.071502    0.020857  0.00079584    -0.10082      4.9588     0.81968
0.13925   -0.065964    0.043549    0.060321   0.0001381      4.9594     0.95155
0.16359     -0.1735    0.069529     0.11557     0.11689      4.9591      1.0006
0.17641    -0.23763    0.086301     0.15438     0.23331      4.9594     0.96109
0.17049    -0.25671    0.088275     0.16786     0.32144      3.7308       0.845
0.14517    -0.23632    0.074791     0.15405     0.34578      2.1371     0.67728
0.10439    -0.19126     0.04881     0.11754     0.27408      1.0341     0.48259
0.056046     -0.1347    0.019212    0.067227     0.10702     0.42503     0.28658
0.013293   -0.078461  -0.0038083    0.010333    -0.12187     0.17049     0.11524
-0.019594   -0.035051   -0.016963   -0.047877    -0.36819    0.074791   -0.029789
-0.044917   -0.012688   -0.024527    -0.10115    -0.58755  -0.0047949    -0.15969
-0.068924   -0.016634   -0.034064    -0.14259      -0.751    -0.11365    -0.27743
-0.091616   -0.043272   -0.047548    -0.17449     -0.8559    -0.23533    -0.38003
-0.11595   -0.083065   -0.067937    -0.19948    -0.92069    -0.36655    -0.46751
-0.14456    -0.12154   -0.092931    -0.22152    -0.97199    -0.56288     -0.5369
-0.17153    -0.14818    -0.12023    -0.24191     -1.0289    -0.93549    -0.58656
-0.18765    -0.15509    -0.13832    -0.25934     -1.0749     -1.5781    -0.60596
-0.18765    -0.14292    -0.14259    -0.26723     -1.0618      -2.491    -0.58755
-0.1689    -0.12319    -0.13042    -0.24553    -0.93878     -3.5615    -0.51849
-0.13272    -0.10378     -0.1005      -0.186     -0.6793     -4.6218    -0.39944
-0.083394   -0.097864   -0.060702   -0.088656    -0.30176     -4.9661    -0.24224
-0.027487    -0.10773   -0.016305    0.029736     0.12741     -4.9654   -0.066293
0.026447    -0.12845    0.021514     0.14056     0.50659     -4.9651     0.11031
0.070516    -0.15575    0.042891      0.2139     0.73549     -4.7816     0.26323
0.096825    -0.18863    0.046837     0.23692     0.74963     -3.1902     0.36847
0.10077     -0.2202    0.040589     0.21094     0.54639     -1.5192     0.40695
0.086301    -0.25177    0.031381     0.16063      0.2014    -0.28006     0.38031
0.067885    -0.27907    0.023817     0.11623    -0.15936     0.32539     0.31223
0.05769     -0.3011    0.024803     0.10274    -0.39911     0.43655     0.23528
0.067885    -0.30933     0.04322     0.13136    -0.42542     0.36189     0.18003
0.095839    -0.29453    0.082026      0.1968    -0.22612     0.39116     0.15799
0.13103    -0.25802       0.133     0.27573     0.10242     0.63979     0.15964
0.15898    -0.21001     0.18266      0.3415     0.40925      1.0196      0.1603
0.16654    -0.17054     0.21719     0.37768     0.56842      1.3653     0.14254
0.15306    -0.15279      0.2264     0.37274     0.53356       1.578     0.10242
0.12675    -0.16265     0.20963     0.32276     0.34972      1.6537    0.049139
0.097154    -0.19324     0.17214     0.23857     0.10834      1.6224  -0.0077547
0.065912    -0.23467     0.12116     0.15076   -0.085367      1.5205   -0.055769
0.036642    -0.27414    0.064596    0.089919    -0.13108      1.3906   -0.089314
0.016581    -0.29782    0.018226    0.072818    0.042233      1.2942    -0.10181
0.015266    -0.29486  -0.0018351    0.099785       0.452      1.2939   -0.087341
0.035327    -0.26098    0.010004     0.16457       1.041      1.4005    -0.04985
0.070516    -0.20803    0.044535     0.24909      1.6734      1.5511   0.0070443
0.11524    -0.15147    0.081368     0.33262      2.1858       1.633    0.077422
0.15734    -0.10773      0.1034     0.39445      2.4571      1.5471     0.15471
0.18365   -0.086683      0.1113     0.41912      2.4354        1.26      0.2241
0.18628   -0.090958     0.11097     0.40004      2.1542     0.80948     0.26257
0.16918    -0.11628     0.10801      0.3438      1.7116     0.28066     0.26323
0.13892    -0.15509    0.098469      0.2629      1.2209     -0.2281     0.23265
0.10505    -0.19751    0.080711     0.17378     0.77659    -0.63326     0.17707
0.071502    -0.23763    0.053415    0.087946      0.4224    -0.88945     0.10505
0.04618    -0.27019    0.021514    0.012964     0.16161    -0.99501    0.026119
0.029407    -0.29091  -0.0077547    -0.04985   -0.034064    -0.97298   -0.053138
0.0096753    -0.30308   -0.034064    -0.10905    -0.20277    -0.87235    -0.12812
-0.019265    -0.30768   -0.057414    -0.16923    -0.37411    -0.74935     -0.2054
-0.063662    -0.30834    -0.07879    -0.23138    -0.56288    -0.64115    -0.28992
-0.11825    -0.30571    -0.10082    -0.28828     -0.7556    -0.57242    -0.37937
-0.17186     -0.2988    -0.12483    -0.32511    -0.91938    -0.55762    -0.46652
-0.20869    -0.28631    -0.14423    -0.33103     -1.0144    -0.58722    -0.53559
