0.099127     0.39609   -0.032749   -0.062676    -0.21297     -2.1799      -0.456
0.11162     0.34644   -0.026171   -0.065964    -0.28236     -2.1303    -0.43824
0.11754     0.28296   -0.018607   -0.060045    -0.32149     -1.9428    -0.40733
0.1113     0.20963   -0.013345   -0.051823    -0.33366     -1.6541    -0.36885
0.096167     0.13432   -0.013017   -0.050836    -0.33235     -1.3282    -0.33366
0.077751     0.06624   -0.020252    -0.06136    -0.33596     -1.0279    -0.30341
0.056703    0.013622   -0.032749   -0.081421     -0.3557    -0.77171    -0.28071
0.03434   -0.018936   -0.045574    -0.10346    -0.38135    -0.51618    -0.26624
0.014279   -0.036037   -0.051823    -0.11924    -0.39187    -0.21889    -0.25046
-0.0051238   -0.044588   -0.050179    -0.12384    -0.36293     0.11985    -0.22086
-0.02354   -0.055112   -0.044259    -0.11891    -0.27381     0.45365    -0.17022
-0.042944   -0.073857   -0.034722    -0.10806     -0.1268     0.70885    -0.10609
-0.060373    -0.10313   -0.022225   -0.093918    0.040918     0.81639   -0.052481
-0.073857     -0.1416   -0.011043   -0.083065     0.17477     0.75127   -0.029789
-0.085696     -0.1906  -0.0054526   -0.077475     0.23067     0.53718   -0.045903
-0.10017    -0.25506  -0.0061104   -0.080434     0.20338      0.2287   -0.090629
-0.12121    -0.33004   -0.011372   -0.089972     0.11754   -0.094576    -0.14489
-0.14818    -0.39154   -0.017292     -0.1005    0.013293    -0.36754     -0.1906
-0.17285    -0.42279   -0.022225    -0.10806   -0.078132    -0.56058    -0.21823
-0.18666    -0.41128   -0.027158    -0.11102    -0.12516    -0.68062    -0.22218
-0.18501    -0.36227    -0.03242    -0.10806    -0.10773    -0.73652    -0.20771
-0.16956     -0.2965   -0.037353   -0.095233   -0.025842    -0.73916    -0.18074
-0.14687    -0.23204   -0.034393   -0.065635     0.10044    -0.68687    -0.14687
-0.12319    -0.18205   -0.021896   -0.019594     0.24613    -0.58919    -0.11365
-0.10641    -0.15213  -0.0018351    0.032038     0.37669    -0.46718   -0.085039
-0.094576    -0.13667    0.018226     0.07512     0.45825    -0.35175    -0.06136
-0.087669    -0.13404    0.032367    0.099456     0.47305    -0.27545   -0.050179
-0.082736    -0.14029    0.036971     0.10044     0.42569    -0.25638   -0.050179
-0.079777    -0.14719    0.034669    0.081368     0.33887    -0.29518   -0.053796
-0.077146    -0.14818    0.027105    0.057361      0.2389    -0.36458   -0.057085
-0.077146    -0.14029    0.012964    0.032367     0.14714    -0.42344   -0.061031
-0.08175    -0.12845  -0.0041372    0.010004    0.073476    -0.43462   -0.064978
-0.086025    -0.11233   -0.023869   -0.010057    0.026447    -0.38628   -0.059716
-0.084052   -0.085039   -0.044259   -0.028144   0.0096753     -0.2988   -0.042615
-0.076488   -0.038668   -0.059387    -0.04097    0.025132    -0.20244   -0.017292
-0.062676    0.023817   -0.066293   -0.047219    0.063281    -0.11628   0.0096753
-0.041957     0.09551    -0.06432   -0.044917     0.11919   -0.045574    0.032367
-0.016305     0.15964   -0.053796   -0.032749     0.18496    0.010333    0.051113
0.010991     0.20173   -0.037682   -0.012688     0.24383    0.044535    0.067885
0.034011     0.21193   -0.018936    0.010991     0.26488    0.035985    0.082355
0.045851     0.18858   -0.002164    0.032038     0.21818   -0.040641    0.092221
0.042891     0.13464   0.0060577    0.042233    0.093865    -0.18995    0.091563
0.027434    0.063281   0.0073732    0.033354   -0.090629    -0.38529    0.079395
0.00046697   -0.014003   0.0060577   0.0073732    -0.30209    -0.60662    0.053086
-0.032091   -0.091287   0.0057288   -0.032091    -0.50928    -0.87432    0.013951
-0.064649    -0.16331   0.0037556   -0.080434    -0.69311     -1.2061    -0.03242
-0.090629    -0.22448  -0.0047949    -0.13437    -0.85294     -1.6037   -0.080763
-0.11266    -0.26855   -0.020581    -0.18962    -0.99041     -2.0444    -0.12878
-0.13733    -0.29782   -0.036366    -0.24026     -1.1045     -2.4739    -0.16923
-0.15739    -0.31985   -0.047877    -0.27381     -1.1772     -2.7719    -0.19225
-0.16561    -0.34353   -0.054783    -0.28071     -1.1841     -2.7288     -0.1814
-0.16035    -0.37346   -0.055769    -0.25638     -1.1058     -2.1579      -0.137
-0.14687    -0.40963   -0.053138    -0.20803    -0.94667     -1.0167   -0.068595
-0.13272    -0.44087   -0.053138    -0.14983    -0.72271     0.52501   0.0067154
-0.12023    -0.44909   -0.057085   -0.093918    -0.45797      2.0408    0.072489
-0.11036    -0.42344    -0.06432    -0.04393    -0.18238      3.1224     0.11228
-0.096549    -0.36392   -0.070897   0.0057288    0.081697      3.5286      0.1136
-0.074844    -0.28039    -0.07583    0.059005     0.32013      3.2743    0.080711
-0.045574    -0.18469   -0.069911     0.11754     0.52731      2.6094    0.037958
-0.010386   -0.089314   -0.046232     0.17575     0.69767      1.8342     0.01691
0.025461  -0.0051238  -0.0074258     0.22739     0.83546       1.091    0.033683
0.059663    0.055388    0.038616     0.27047     0.95385     0.32966    0.083342
0.091234    0.086301    0.082026     0.30566      1.0696    -0.46948     0.14517
0.11853    0.085972     0.11886     0.33493      1.1897     -1.1141     0.20075
0.14155    0.057361     0.14287      0.3586      1.3031     -1.3137     0.23659
0.15339    0.010333     0.15142     0.37011      1.3863    -0.87037     0.24613
0.14912   -0.036037     0.14254     0.36288      1.4097     0.21752     0.23725
0.13169    -0.06136     0.12017     0.34019       1.362      1.7152     0.22475
0.10965    -0.05544    0.094852     0.31322      1.2456      3.2234     0.22475
0.092879   -0.021896    0.073476     0.28921      1.0657      4.3145     0.24021
0.087288    0.020199    0.058348     0.27343     0.81047      4.6681     0.27047
0.097154    0.053086    0.047495     0.26751     0.45233      4.1938     0.32045
0.12083    0.069529    0.039273      0.2629   -0.012359      3.1211     0.39182
0.15339    0.070516    0.038287     0.24514    -0.52901      1.8796     0.47864
0.18957    0.064925    0.046508     0.20667     -1.0046     0.84566     0.57237
0.21555     0.06361    0.055388     0.15043     -1.3561     0.17871     0.65524
0.22475    0.074133    0.056046    0.085644     -1.5261    -0.15147      0.7049
0.21028    0.093208    0.041575    0.021843       -1.51       -0.26     0.69668
0.17707      0.1113    0.017897    -0.03242     -1.3601    -0.28729     0.62104
0.13497     0.11985  -0.0064392   -0.071884     -1.1581    -0.35537     0.48292
0.091234     0.10702   -0.020909   -0.093918    -0.98186    -0.57505     0.30105
0.047495    0.050455   -0.020909    -0.11069    -0.87695     -1.0549    0.098798
-0.0018351   -0.061689   -0.014003     -0.1324    -0.83979     -1.8343     -0.1005
-0.055112    -0.21461  -0.0051238    -0.16068    -0.81249     -2.8005    -0.27447
-0.10313     -0.3705   0.0044134    -0.17087    -0.70199     -3.7118    -0.39845
-0.13371    -0.47869    0.022172    -0.12878    -0.40272     -4.2478    -0.44548
-0.13996      -0.505     0.05769  -0.0047949     0.17641     -4.0772    -0.38431
-0.11727    -0.44778     0.11195     0.20173       1.043      -2.963    -0.21593
-0.06432    -0.33432      0.1774     0.45102      2.0664    -0.98449    0.020528
0.0060577    -0.20244     0.23462     0.67333      3.0004      1.3327     0.26126
0.07808   -0.079119     0.26849     0.80685      3.6078      3.2454     0.44477
0.13958    0.029078     0.27474     0.83184      3.7686      4.4218     0.54112
0.18825     0.13596     0.26093      0.7687      3.5055      4.9026     0.56349
0.23396     0.25534     0.23791      0.6605      2.9534      4.9604     0.55921
0.28724     0.38919     0.21653     0.55329       2.291      4.9601     0.57631
0.35005     0.51975     0.20502     0.46779      1.6642      4.9601     0.63551
0.40958     0.61972     0.20009     0.39609       1.141      4.9598     0.71904
0.45365     0.68352     0.18858     0.31947     0.71838      4.3211     0.77758
0.47272     0.72825     0.16227     0.22706     0.35696      3.1191     0.77133
0.45957     0.77955      0.1205     0.12083    0.022501      1.5304     0.68517
0.42109     0.85848    0.071831    0.015595    -0.28729    -0.12483     0.54112
0.36979     0.97063    0.027105    -0.07583    -0.55992     -1.4959     0.37899
0.31717      1.1087  -0.0061104    -0.14095    -0.77763     -2.4088     0.23857
0.26948       1.261   -0.025185    -0.17811    -0.93746     -2.8834     0.14056
0.22739      1.4195   -0.031104    -0.19817      -1.048     -3.0248     0.08367
0.18957      1.5695   -0.030775    -0.21626     -1.1203     -2.9685    0.042233
0.15273      1.6882   -0.031762    -0.24092     -1.1654     -2.8258  -0.0093991
0.11097      1.7616   -0.039984    -0.27414     -1.1904     -2.6637    -0.08175
0.064267      1.7806   -0.053138    -0.31097     -1.2038     -2.5016    -0.16758
0.01691      1.7471   -0.063333    -0.34649     -1.2071     -2.3342    -0.25243
-0.025842      1.6691   -0.068266    -0.38036     -1.2042     -2.1493    -0.32774
-0.053138      1.5514   -0.065635    -0.40832     -1.2015     -1.9375     -0.3899
-0.062347      1.3912   -0.053796    -0.42838     -1.2035     -1.7067    -0.43857
-0.0584      1.1893   -0.036695    -0.43857     -1.2035     -1.4831    -0.48067
-0.04985     0.94695   -0.021567    -0.44318     -1.1867     -1.3042    -0.52046
-0.046232     0.68352   -0.016963    -0.44318     -1.1489     -1.2045    -0.55696
-0.05281     0.42273   -0.024527    -0.43923     -1.0966     -1.2022    -0.58755
-0.068924     0.19253   -0.044917    -0.43265      -1.044       -1.29    -0.60958
-0.091287  -0.0018351   -0.071884    -0.42509     -1.0039     -1.4216    -0.62208
-0.11266    -0.16462    -0.10148     -0.4195    -0.97758     -1.5219    -0.62307
-0.13108    -0.30242    -0.13207    -0.41983     -0.9618     -1.5225    -0.61452
-0.14983    -0.41818     -0.1564    -0.42476    -0.95391     -1.4002    -0.60004
-0.16956    -0.51487    -0.17318    -0.42838    -0.94864     -1.1818    -0.58261
-0.19422     -0.5961    -0.18205    -0.42575    -0.93911     -0.9105    -0.56288
-0.21955    -0.66911    -0.18008    -0.41456    -0.92003     -0.6132    -0.53098
-0.24158    -0.74277    -0.16758    -0.38891    -0.88123    -0.30374    -0.47902
-0.25638    -0.82006    -0.14983    -0.34649    -0.80657   -0.015976    -0.39286
-0.26131    -0.89931    -0.13009    -0.29223    -0.68687     0.19318    -0.27282
-0.25638    -0.97791    -0.11497    -0.23467    -0.53296     0.27836    -0.13766
-0.24585     -1.0483    -0.10707    -0.18567     -0.3797      0.2093   -0.019594
-0.235     -1.0986    -0.10674    -0.15147    -0.26361   -0.019923    0.050784
-0.22777      -1.119    -0.11332    -0.13371     -0.1985    -0.36819    0.054072
-0.22579     -1.1058    -0.12319     -0.1245    -0.16528    -0.75067  -0.0051238
-0.22448     -1.0621    -0.13075    -0.11036    -0.13108     -1.0654   -0.099838
-0.21691    -0.99929    -0.13108   -0.080763   -0.076159     -1.1858    -0.19554
-0.20179    -0.93154     -0.1245   -0.035708   0.0034268    -0.99238    -0.26361
-0.18074    -0.86741    -0.11398     0.01987    0.090577    -0.45501    -0.28598
-0.1541    -0.80855    -0.10082    0.074133     0.15865     0.29645    -0.26559
-0.12253    -0.75297   -0.084381      0.1182     0.18693      1.0193    -0.22251
-0.089643    -0.69739   -0.068924     0.14451     0.16918       1.511    -0.17778
-0.063333    -0.65299   -0.056756     0.15109     0.11853       1.682    -0.14588
-0.049521    -0.62537   -0.051165     0.14254    0.059005      1.5646     -0.1222
-0.047877     -0.6132   -0.051494       0.133   0.0077021       1.265    -0.10181
-0.04985    -0.60629   -0.056756     0.12774   -0.026171     0.88183   -0.083723
-0.050507    -0.59643   -0.062018     0.12511   -0.039655     0.47634    -0.07287
-0.044259    -0.58064   -0.063662     0.12215   -0.040313    0.085644   -0.069582
-0.032091    -0.55828   -0.062676     0.11294   -0.036037    -0.24553   -0.068595
-0.018278    -0.52967    -0.06136    0.097154   -0.031104    -0.48198   -0.065307
-0.0077547    -0.49645   -0.062676    0.077422   -0.025185      -0.603   -0.065307
-0.004466    -0.46159    -0.06728    0.058676   -0.018278    -0.60761   -0.075173
-0.0047949    -0.42871   -0.076488    0.039931  -0.0038083    -0.52375   -0.092603
-0.0061104    -0.40141   -0.086354    0.019541     0.01691    -0.39549    -0.11299
-0.0080836    -0.38069   -0.091616  -0.0015062    0.037958    -0.26624    -0.12976
-0.014332    -0.36556   -0.091287   -0.018607    0.053743    -0.16956      -0.137
-0.023869    -0.35372   -0.088327   -0.027487    0.065912    -0.12154    -0.14062
-0.03242    -0.34649   -0.083723   -0.023211    0.080711    -0.12253    -0.14226
-0.036695    -0.34616   -0.077803  -0.0084125    0.092221    -0.18008    -0.13996
-0.039984    -0.35307   -0.071555   0.0067154    0.095839    -0.31163    -0.12845
-0.041957    -0.36227   -0.064978    0.010004    0.094194    -0.49974    -0.11266
-0.044259    -0.36523   -0.058729    0.002769    0.095839    -0.67568    -0.10082
-0.048863    -0.35011   -0.056756  -0.0093991     0.10834    -0.72534   -0.096549
-0.05544     -0.3159   -0.057085    -0.01795     0.12511    -0.56683   -0.091945
-0.057743    -0.26394   -0.057743   -0.015319     0.13596     -0.2179    -0.08175
-0.054454    -0.20639   -0.056756  0.00046697      0.1307     0.20568   -0.066293
-0.045574    -0.14719    -0.04985    0.029736     0.10899     0.55527   -0.045903
-0.033735   -0.087998   -0.033735    0.068543    0.077093     0.72036   -0.016634
-0.017621   -0.020909  -0.0090702     0.10899    0.038287     0.66215    0.026776
0.00079584    0.053086     0.01691     0.14188   -0.011372     0.44773    0.081368
0.018226     0.12642     0.04026     0.15635   -0.070897     0.24613     0.13399
0.030723     0.17707    0.058019     0.14944    -0.13075     0.26389      0.1672
0.034998     0.19055    0.066569     0.12379    -0.17745     0.61808     0.17411
0.025461     0.16654    0.064925    0.085972    -0.20212      1.2252     0.15471
0.0057288      0.1159    0.053743    0.045522    -0.20968       1.853     0.11426
-0.017292    0.058676    0.037629    0.014279    -0.21001      2.2496    0.057361
-0.040313    0.016581    0.025461  -0.0077547    -0.21626      2.2187    -0.01203
-0.063004   0.0024402    0.013951   -0.028473    -0.23336      1.6882   -0.088327
-0.08175    0.017568   0.0014536   -0.052152    -0.25506     0.73943    -0.15772
-0.094576    0.054401   -0.011372   -0.078132    -0.26756    -0.45699    -0.21428
-0.1005     0.10011   -0.020252    -0.10247    -0.25342      -1.661    -0.25112
-0.099509     0.14254     -0.0265    -0.11628     -0.1883     -2.6617    -0.25572
-0.088656     0.17806   -0.030447    -0.11003   -0.053467     -3.2938    -0.21428
-0.066622     0.21094   -0.028144   -0.077803     0.14977     -3.4352    -0.12089
-0.031762       0.256   -0.016305   -0.027487     0.39873     -2.9307     0.02579
0.014279     0.32013   0.0060577    0.029078     0.65031     -1.6541     0.21818
0.073476     0.40267    0.034998    0.090248     0.85651     0.27277     0.44115
0.14155     0.49706    0.074462     0.15503     0.97918      2.3272     0.67004
0.21259     0.58914     0.12379     0.22245      1.0029       3.912     0.87624
0.27902     0.66577      0.1774     0.28625     0.93905      4.6148      1.0311
0.3369     0.71148     0.22574      0.3346     0.81803      4.3372      1.1134
0.37373      0.7197     0.25994     0.36222      0.6753      3.3631      1.1199
0.38294      0.6924     0.27376     0.36354     0.54112      2.1963      1.0611
0.36419     0.63781     0.26882     0.34676       0.452      1.2699     0.95747
0.32966     0.56711     0.25106     0.32835     0.43194       0.771     0.83086
0.28954     0.49114      0.2287     0.31651      0.4862     0.63091     0.69734
0.25008     0.41813     0.20502     0.31158     0.58092     0.64472      0.5648
0.21028       0.354     0.18299       0.305     0.66905     0.61742     0.43391
0.17082     0.29612      0.1626     0.28954     0.70753     0.46516     0.31486
0.13169     0.24482     0.14287     0.25961     0.67793     0.20535     0.21818
0.093536     0.19417     0.12577     0.21357     0.58322   -0.082079     0.14287
0.057032     0.14155     0.11031     0.15799     0.45398    -0.30209    0.085315
0.024803    0.088275    0.093865     0.10176     0.33131    -0.38168    0.035327
-0.0061104    0.032367    0.076435    0.060321     0.25172    -0.26493   -0.013017
-0.037682   -0.028473    0.063938     0.04322     0.24383     0.02283   -0.056756
-0.064978   -0.091616    0.058676     0.05769     0.32539     0.34611   -0.092603
-0.089643    -0.15147     0.06065    0.095839     0.48324     0.50594    -0.12121
-0.11332    -0.20146    0.067227     0.13958     0.64702     0.31158    -0.15081
-0.13207    -0.22974    0.073147      0.1672     0.72102    -0.30571    -0.19192
-0.14456    -0.22941    0.070187     0.15799     0.64143     -1.2387    -0.24914
-0.15377    -0.20179    0.056374     0.10768     0.40563      -2.271    -0.31985
-0.16068     -0.1564    0.031709    0.027105    0.067556     -3.1494    -0.39516
-0.16726     -0.1051   0.0017824   -0.060045    -0.28532     -3.6029    -0.45995
-0.17022    -0.05281   -0.026171    -0.13272    -0.56847     -3.4027    -0.49711
-0.1689  -0.0057815    -0.04689    -0.18041    -0.71909      -2.515    -0.49645
-0.16594    0.029407   -0.060702    -0.19817    -0.72041     -1.1749    -0.46324
-0.16166    0.047824   -0.069911    -0.18962    -0.61287     0.20305    -0.41029
-0.15377    0.049797   -0.076817    -0.16298     -0.4537      1.2436    -0.35339
-0.14325    0.039931   -0.082736    -0.12911    -0.27019      1.8721    -0.29847
-0.12976    0.028092   -0.087998   -0.087341   -0.054783      2.2401    -0.24684
-0.11299    0.019212   -0.089314   -0.039326     0.20042      2.5219    -0.19192
-0.087012    0.019212   -0.081092    0.019212      0.4987      2.7935    -0.11727
-0.04393    0.034998   -0.059387    0.096496     0.84138      2.9948  -0.0024928
0.018884    0.067227   -0.025185     0.19877      1.2077      3.0165     0.15043
0.09551     0.11656    0.023488     0.31651      1.5409      2.8034     0.31289
0.17148     0.17115    0.077422     0.41879       1.755      2.3959     0.43885
0.2287     0.22048     0.11919     0.46943      1.7717      1.8954     0.48686
0.25698     0.25337     0.13892     0.45003      1.5606      1.3837     0.43852
0.25172     0.26455      0.1307     0.36452       1.162     0.84105     0.30533
0.21982     0.25731     0.10143     0.23955     0.67695     0.19779     0.12182
0.17608     0.23626    0.062294      0.1182     0.25337    -0.48626   -0.060045
0.1353     0.20897    0.027763     0.04322     0.01987     -1.0062    -0.17778
0.10899     0.18726   0.0096753    0.036314    0.021514     -1.1785    -0.18238
0.10801     0.17937    0.012306    0.089919     0.19549     -1.0009   -0.061031
0.13366     0.18628    0.032696     0.17707     0.42405      -0.628     0.15997
0.17641     0.20206    0.062623     0.25698     0.59177    -0.27644     0.42438
0.21982     0.21292    0.093208     0.29645     0.63288    -0.10576     0.66741
0.24975     0.21226      0.1113     0.28296     0.54639   -0.074515     0.83678
0.25929     0.19845     0.10965     0.22837     0.37505    0.017897     0.90584
0.24745       0.182    0.092879     0.15503     0.18167     0.25501     0.86999
0.21818     0.16687    0.068543    0.085972   0.0073732     0.49739     0.74502
0.17871     0.14944    0.044535    0.032367    -0.12713     0.54047     0.56283
0.13826     0.12741    0.029407  -0.0008485     -0.2133     0.30039     0.36913
0.10965     0.10242    0.025461   -0.013345    -0.25539    -0.12615     0.20338
0.08959    0.080382    0.030065   -0.016634    -0.27447     -0.5392    0.087617
0.069858    0.064596    0.032696   -0.025842    -0.30242    -0.76711    0.015595
0.041247     0.04881    0.027434   -0.050836    -0.36293    -0.77171   -0.035051
0.0040845    0.029736    0.013293    -0.09326    -0.47475    -0.64181   -0.085696
-0.037353    0.010004  -0.0087413    -0.14654     -0.6428    -0.51487    -0.14719
-0.077146   -0.010386   -0.031762    -0.19883    -0.84505    -0.48757     -0.2156
-0.11069   -0.031433    -0.05544    -0.24257     -1.0476    -0.58426    -0.28269
-0.13897   -0.051823   -0.076817    -0.27348     -1.2183    -0.77073    -0.33892
-0.16561   -0.072213   -0.091945    -0.29518     -1.3291    -0.98285    -0.38398
-0.18765   -0.092603   -0.095562    -0.31031     -1.3666     -1.1627    -0.41489
-0.2008    -0.10773   -0.088985     -0.3113     -1.3334     -1.2877    -0.42311
-0.20212     -0.1097   -0.071884     -0.2919     -1.2377     -1.3726    -0.41193
-0.18699   -0.092931   -0.047548    -0.25375     -1.0861     -1.4459    -0.38891
-0.16035   -0.058071   -0.021567    -0.20409    -0.89339     -1.5288    -0.36096
-0.12976   -0.017621  -0.0054526    -0.15805    -0.68654     -1.6271    -0.33629
-0.10313    0.015266  -0.0028217    -0.13009    -0.50994      -1.734    -0.32741
-0.083394    0.033354   -0.014661    -0.12812    -0.40207     -1.8326    -0.34057
-0.073528    0.040918   -0.034393    -0.14522    -0.37444     -1.8915    -0.37082
-0.077146    0.044535   -0.054783    -0.17219     -0.4093     -1.8636    -0.39878
-0.089314    0.046508   -0.069253    -0.20047    -0.46718     -1.7149    -0.40437
-0.10247     0.04322   -0.079448    -0.22612     -0.5152     -1.4574    -0.38299
-0.11168    0.031052   -0.086354    -0.24585    -0.54085       -1.14    -0.33794
-0.11529    0.012306   -0.094576    -0.26789    -0.55203    -0.82729    -0.27907
-0.12023  -0.0084125    -0.10313    -0.29091     -0.5711     -0.5642    -0.21987
-0.12615   -0.027158    -0.10937    -0.31031    -0.61156    -0.34583    -0.17613
-0.13371   -0.038997    -0.10905    -0.32149    -0.67305    -0.10411    -0.15443
-0.13766   -0.043601    -0.10543    -0.32511     -0.7362     0.25698    -0.14456
-0.13404   -0.048205   -0.096878    -0.32347    -0.77698     0.78876    -0.13009
-0.12516   -0.058071   -0.087341    -0.31393    -0.77138      1.4208   -0.099838
-0.11628   -0.073199   -0.077475    -0.29223    -0.70726       1.976   -0.059716
-0.10905   -0.089643   -0.070897    -0.26065    -0.59511      2.2473   -0.026829
-0.10444    -0.10247   -0.065307    -0.22283    -0.46291      2.0963   -0.013017
-0.09918    -0.10346   -0.057085    -0.17811    -0.33629      1.5185   -0.019594
-0.087998   -0.092274   -0.042615    -0.12384    -0.23237     0.65853    -0.02946
-0.068924   -0.075501   -0.022225   -0.063004    -0.16035    -0.24881   -0.032749
-0.045574   -0.060702  -0.0008485  -0.0067681    -0.13009    -0.97923   -0.031762
-0.026171   -0.053467    0.015595    0.036642    -0.14062     -1.4278   -0.033735
-0.014003   -0.051823    0.020528    0.057361    -0.18765     -1.5913   -0.048534
-0.010715   -0.052152    0.016581    0.060979    -0.24553     -1.5324   -0.074186
-0.010386   -0.051494   0.0057288    0.052757    -0.29157     -1.3328    -0.10313
-0.011701   -0.050507   -0.002164    0.034998    -0.31722     -1.0733    -0.12549
-0.015976   -0.051165  -0.0064392    0.013293     -0.3261    -0.80493    -0.13733
-0.022225   -0.056427  -0.0084125  -0.0074258    -0.32774    -0.57308    -0.13766
-0.029131   -0.063991   -0.011043     -0.0265    -0.32708    -0.41785    -0.13305
-0.032091   -0.067937   -0.014661   -0.046561    -0.33103    -0.36622    -0.13174
-0.032091   -0.064978   -0.020909   -0.065635    -0.34419    -0.43726     -0.1347
-0.030118   -0.059058   -0.031433   -0.087669    -0.37378     -0.6405     -0.1416
-0.026171    -0.05544   -0.041628    -0.10872    -0.42311    -0.94963    -0.14785
-0.020581   -0.057414   -0.051823    -0.13009     -0.4833     -1.2887    -0.15344
-0.012359   -0.059716   -0.063004     -0.1564    -0.53657     -1.5347    -0.15706
0.0021113   -0.057414   -0.076159    -0.18238    -0.56584     -1.5376    -0.15114
0.02283   -0.049521   -0.091945     -0.2008    -0.55992     -1.1858    -0.12483
0.042562   -0.043601    -0.10411    -0.20014     -0.5221    -0.52539   -0.079777
0.054072    -0.04985    -0.11332    -0.18304    -0.46521     0.23002   -0.032749
0.055388   -0.066293    -0.11858    -0.15673    -0.39845     0.83546   0.0014536
0.048482   -0.084052    -0.11694    -0.12779    -0.32314      1.1778    0.015266
0.036642   -0.085696    -0.11332    -0.10082    -0.23171      1.2886    0.013622
0.024145   -0.067609    -0.10905   -0.073528    -0.11529      1.2765   0.0073732
0.013951   -0.030775    -0.10444   -0.042944    0.025132       1.262   0.0073732
0.0090175    0.012635   -0.093918  -0.0028217     0.18595      1.3228    0.019541
0.010662     0.04881   -0.075501    0.050784     0.36748      1.4764    0.043877
0.017239    0.070516   -0.045246     0.12379     0.58125      1.6912    0.080711
0.029407    0.077751  -0.0064392     0.21259     0.84105      1.9066     0.12346
0.04618    0.062294    0.035656     0.30598       1.141      2.0658     0.16556
0.059663    0.018884    0.071173      0.3905      1.4314      2.1046     0.19022
0.058676   -0.053467     0.09255     0.44608      1.6313      1.9444     0.17904
0.036642    -0.14259     0.09551     0.45825      1.6695       1.529     0.12116
0.0014536    -0.23632    0.084986     0.42273      1.5274     0.88841    0.026119
-0.034064     -0.3284    0.065254     0.34644      1.2354     0.14056    -0.08175
-0.056098    -0.40864    0.042233     0.24679     0.86999    -0.56946    -0.17186
-0.053138    -0.46291    0.018884     0.14451     0.51317      -1.142    -0.22678
-0.027816    -0.47705  0.00046697    0.059663     0.22673     -1.5515    -0.24618
0.010991     -0.4389  -0.0087413    0.002769     0.03434     -1.8152    -0.23303
0.044864    -0.34583   -0.011043   -0.024198   -0.076159     -1.9744    -0.19455
0.071173    -0.21297  -0.0077547   -0.028473    -0.13503      -2.077    -0.13799
0.094852   -0.056756 -0.00019077   -0.022225    -0.16758     -2.1526   -0.068924
0.11919     0.10768   0.0073732   -0.015976    -0.18666     -2.1651    0.010991
0.14484     0.26652    0.013293   -0.016963    -0.19324      -1.932    0.097483
0.16293     0.41352    0.012635    -0.02354     -0.1689       -1.17     0.18759
0.17477     0.54277    0.010333   -0.022225   -0.097536     0.23133     0.28888
0.1797     0.65327    0.011977    0.002769     0.02283       1.997     0.40399
0.19022     0.74667    0.026119    0.061307     0.18989      3.6581     0.51975
0.20963     0.82888    0.056046     0.15438     0.40136      4.8568     0.61709
0.23692     0.89696     0.10307     0.27277     0.64538      4.9598     0.67465
0.27014     0.93577     0.15931     0.39675     0.88512      4.9604     0.68089
0.30138     0.91636     0.21588     0.50791      1.0709      4.3211     0.63683
0.32111     0.81902     0.25929     0.58618      1.1522      3.1487     0.55527
0.31782     0.64439     0.27737     0.61742      1.1012      1.9503     0.45332
0.28329     0.41846     0.26784     0.59736     0.94004     0.95188     0.35236
0.22048     0.18759     0.23331     0.53455     0.71838     0.25994     0.26948
0.14681  -0.0015062     0.18595     0.44214      0.4964    -0.11562     0.21094
0.074462    -0.12286     0.13728     0.33657     0.31552    -0.24355     0.17641
0.01691     -0.1735    0.097812     0.23331     0.18891     -0.2156     0.15405
-0.018936    -0.17449    0.071831     0.13958     0.10735    -0.10214     0.13399
-0.032749    -0.15048    0.056374    0.060321    0.058019    0.057032     0.11491
-0.028473    -0.12483    0.045851  -0.0011774     0.01987     0.21851     0.10669
-0.019594    -0.11562      0.0373   -0.047548    -0.02354     0.30533     0.11393
-0.018936    -0.13305    0.029078   -0.085039   -0.082736     0.23725     0.12774
-0.032749    -0.17054    0.020528    -0.12023    -0.15279   -0.015648     0.13201
-0.060045     -0.2202   0.0090175    -0.15147    -0.22645    -0.42048     0.11031
-0.096549    -0.27315   -0.004466    -0.17909    -0.29025    -0.90227    0.057361
-0.14029    -0.32182    -0.02354    -0.20277    -0.32807     -1.3926     -0.0265
-0.18205    -0.35997   -0.046232    -0.22546    -0.33268     -1.8333    -0.13207
-0.21198    -0.38135   -0.069253    -0.24191    -0.30801     -2.1914    -0.24651
-0.22349    -0.38529   -0.088985    -0.25112    -0.27545     -2.4802     -0.3603
-0.21297    -0.36819    -0.10313    -0.24947    -0.25243     -2.7206    -0.45896
-0.18238     -0.3261    -0.10576    -0.23632    -0.23665     -2.9399    -0.52243
-0.14095    -0.27249   -0.095891    -0.21034    -0.22481     -3.1754    -0.53855
-0.1028    -0.21955    -0.07879    -0.17613     -0.2156     -3.4119    -0.51224
-0.080763    -0.17613   -0.063004    -0.14095    -0.20475     -3.5178    -0.46126
-0.069582    -0.14292    -0.04985    -0.11069    -0.18107     -3.2925     -0.3968
-0.064978    -0.12023   -0.038997   -0.089314    -0.12812     -2.6456    -0.32248
-0.062018    -0.10313   -0.030447   -0.074515   -0.031762     -1.6768    -0.22645
-0.050507   -0.085696   -0.019265   -0.060373     0.10603    -0.59248   -0.099509
-0.026171   -0.062347  -0.0034794   -0.040313     0.25929      0.3734    0.056703
0.0070443   -0.030775    0.015924   -0.010386     0.39215      1.0706     0.23363
0.044206   0.0090175    0.034669    0.032367     0.48982       1.559     0.41616
0.08663    0.052757    0.053743    0.087946     0.57598      2.0865     0.59572
0.12511    0.094852    0.071831     0.15471     0.68747      2.9139     0.77002
0.14912     0.12083    0.087288     0.21489     0.82527      4.0567     0.93149
0.15175     0.12313    0.096825     0.24843     0.92919      4.9604      1.0519
0.1353      0.1011    0.098798     0.24153     0.93083      4.9601       1.093
0.10603     0.05769    0.088275     0.19614     0.79929      4.9601      1.0285
0.06624    0.002769    0.063938     0.12149     0.56184      4.9598     0.86769
0.021843   -0.052481    0.029407    0.036642     0.28198      3.8512     0.64899
-0.015319   -0.089314  -0.0018351   -0.034393    0.033025      2.5153     0.42438
-0.040313    -0.10082   -0.022883   -0.079777    -0.13667      1.3978     0.23363
-0.055769   -0.090958   -0.034393    -0.10148    -0.21593     0.62696    0.091563
-0.063004   -0.075501   -0.038997    -0.10576    -0.23467     0.17148  -0.0034794
-0.063333   -0.064649   -0.039655     -0.1005    -0.22678   -0.091616   -0.060702
-0.058071   -0.069911   -0.040313   -0.093918    -0.21856    -0.31722    -0.10444
-0.05281   -0.093589   -0.039326   -0.089643     -0.2179    -0.62767    -0.15476
-0.048205    -0.12878   -0.037353   -0.082408    -0.22185     -1.0542     -0.2179
-0.045246    -0.16397   -0.031104   -0.063004     -0.2179     -1.5337    -0.28663
-0.044917    -0.18863   -0.016963   -0.028144    -0.19784     -1.9609    -0.34945
-0.047877    -0.20409   0.0017824    0.018555    -0.16627     -2.2398    -0.39121
-0.048863    -0.21099    0.019541    0.062952    -0.14325     -2.3296    -0.40338
-0.049192    -0.21034    0.029078    0.091234    -0.15903     -2.2598    -0.38891
-0.049192    -0.20573    0.027434    0.099456    -0.23467     -2.1036    -0.35307
-0.047219     -0.2008    0.014937    0.090577    -0.37181     -1.9399     -0.3067
-0.047548    -0.19948  -0.0061104    0.065583    -0.55104     -1.8047    -0.26098
-0.048863    -0.19817    -0.02946    0.029736    -0.73718     -1.6768    -0.22678
-0.048534    -0.19028   -0.049192   -0.010057    -0.89668     -1.5008    -0.21132
-0.037353    -0.17054   -0.064978   -0.043601     -1.0059     -1.2229    -0.20968
-0.013017     -0.1347   -0.076159   -0.065635     -1.0585    -0.83157    -0.21494
0.015924    -0.08471   -0.086025   -0.076488     -1.0628    -0.39483    -0.21823
0.039602   -0.026171   -0.096878   -0.078461     -1.0256    -0.03242    -0.21264
0.053415    0.033354    -0.10839   -0.072213    -0.94667     0.13201    -0.19948
0.05473    0.086959    -0.11694   -0.057743    -0.82532    0.030723    -0.18962
0.045522     0.12905    -0.11957   -0.042286    -0.67601    -0.32051    -0.19587
0.030723     0.15799    -0.11464   -0.034064    -0.53296    -0.82729    -0.22053
0.010662     0.17411    -0.10444   -0.035051    -0.43232     -1.3518    -0.25441
-0.011701     0.17608   -0.094905   -0.045574    -0.38661     -1.7412    -0.28104
-0.031104     0.15997   -0.088327   -0.057743    -0.39187     -1.8882    -0.28565
-0.043601     0.12905   -0.083723   -0.065307    -0.42213     -1.7485    -0.26657
-0.051165    0.089919   -0.077146   -0.062018    -0.43594     -1.3495    -0.23665
-0.053467    0.047166   -0.066951   -0.044917    -0.39648     -0.8194    -0.20803
-0.055769   0.0077021   -0.049192   -0.013674    -0.28335    -0.32873    -0.19093
-0.06136   -0.031433   -0.022883    0.030394    -0.10411   0.0037556    -0.18041
-0.068924   -0.079448   0.0093464    0.087288     0.13004      0.2014    -0.16199
-0.066293    -0.13799    0.046508     0.15372     0.40103      0.3688    -0.11497
-0.04689    -0.19389    0.083342     0.22147      0.6776     0.56612   -0.035051
-0.012359    -0.22678      0.1113     0.27704     0.89827     0.71542     0.05769
0.028092    -0.22218     0.12445     0.30664      1.0124      0.6684     0.12807
0.065254    -0.17712     0.12017     0.30566      1.0104     0.33493     0.15076
0.094194   -0.097864     0.10735     0.27869     0.93807    -0.24125     0.12478
0.11294  0.00046697    0.094523     0.23791     0.86736     -0.9151    0.070516
0.11656     0.10011    0.085644      0.1991     0.84763     -1.5317    0.017239
0.10439     0.18365    0.080382     0.16918     0.87821       -1.98   -0.012688
0.082026     0.23659    0.075449     0.14747     0.91472     -2.2207   -0.015648
0.057032     0.25665      0.0692     0.12807     0.90321     -2.2342   0.0047422
0.036642     0.23857    0.063938    0.099456     0.80882     -1.9234    0.037958
0.018884     0.18726    0.061636     0.05769     0.63354     -1.1328    0.079395
0.0037556     0.11458    0.059005   0.0044134     0.40596     0.18858     0.11623
-0.010715    0.035985    0.053086   -0.056098     0.17214      1.7928      0.1432
-0.021896   -0.037024    0.040918    -0.11398   -0.022225      3.3026     0.16095
-0.029131     -0.0903    0.025461    -0.15377    -0.13667      4.3987     0.17773
-0.031762    -0.11793    0.013293    -0.15575    -0.15213      4.8674      0.2116
-0.024527    -0.12352    0.015595    -0.11299   -0.082408      4.5868     0.27014
-0.013017    -0.11595    0.033683   -0.041628    0.023817      3.5818     0.33591
-0.0041372    -0.10937     0.06065    0.026447    0.095181      2.0487      0.3711
-0.007097     -0.1005    0.080711    0.061636    0.074133     0.29974     0.34249
-0.02354   -0.080763    0.082355    0.047824   -0.056098     -1.2926     0.23955
-0.048863   -0.041628    0.059663   -0.013017    -0.26131     -2.4483    0.084657
-0.072213    0.022501    0.021186   -0.098851    -0.46751     -3.0797   -0.083065
-0.088656      0.1057   -0.017292    -0.17942     -0.5961     -3.2126    -0.22645
-0.096878     0.19285   -0.044588    -0.22875    -0.59051     -2.9587    -0.31985
-0.092931     0.27145   -0.055112    -0.22941    -0.43791     -2.4733    -0.35964
-0.079448     0.33427   -0.051494    -0.18271    -0.17581     -1.9158    -0.36063
-0.0584     0.37242   -0.038668    -0.10937     0.12182     -1.3867    -0.34024
-0.034064     0.37439   -0.027487   -0.040641     0.36452    -0.89076    -0.30933
-0.015648     0.33032   -0.024198   -0.004466      0.4862    -0.36063    -0.27578
-0.0090702     0.23495   -0.031104   -0.010715     0.46943     0.26257    -0.23698
-0.013345    0.088603   -0.043272   -0.042286      0.3563     0.95484    -0.19324
-0.020909   -0.086025   -0.049192    -0.07024     0.22574      1.5912     -0.1393
-0.018936    -0.25309   -0.039655   -0.069911     0.15931      2.0171   -0.059716
-0.0028217    -0.37346   -0.011043   -0.029131     0.19877       2.174    0.060321
0.026119    -0.42279    0.030394    0.047166     0.32506      2.1601     0.21127
0.061307    -0.40141    0.071173     0.13201     0.46417      2.1092     0.36288
0.094852    -0.32676    0.098141     0.19483     0.54112      2.0641     0.47897
0.11985    -0.22152     0.10307     0.21752     0.52139      1.9612     0.53455
0.1353    -0.10247    0.085644     0.20206     0.40333      1.6803     0.52567
0.14122    0.015595    0.053086     0.15898     0.21883      1.1413     0.46154
0.13267     0.12675    0.015266     0.10373    0.010662     0.38853     0.36091
0.11491     0.23166   -0.018278    0.049797    -0.17942    -0.41719     0.24646
0.099127     0.34084   -0.043272   0.0057288    -0.32643     -1.0887     0.13892
0.09255     0.45661   -0.055112   -0.020909    -0.43134     -1.5271     0.04881
0.099127     0.56974   -0.055112   -0.035051    -0.51454     -1.7175   -0.021238
0.11195     0.66281    -0.04689   -0.041957    -0.59314     -1.7067   -0.071884
0.12478     0.72595   -0.037682   -0.045574    -0.66023      -1.557    -0.10543
0.12905     0.76048     -0.0265   -0.047548    -0.70068     -1.3318    -0.12483
0.12445     0.77462   -0.015648   -0.041957    -0.70101     -1.0808    -0.13174
0.11557     0.77725  -0.0041372   -0.032091    -0.65694      -0.824     -0.1268
0.10899     0.77627    0.010333   -0.020909    -0.56913    -0.55795    -0.10543
0.10932      0.7789    0.029736  -0.0084125    -0.44778    -0.29617   -0.062347
0.11886     0.79074    0.052428   0.0060577    -0.32314   -0.072542  -0.0084125
0.12905     0.80323    0.075449    0.021514    -0.22941     0.09551    0.036314
0.13201     0.80619    0.090905    0.030723    -0.18567     0.22607    0.050126
0.12478     0.78679    0.090248    0.026447    -0.19422     0.34249    0.024145
0.10801     0.73483    0.074133   0.0067154    -0.24092     0.44246   -0.038339
0.086959     0.64834    0.052099   -0.025514    -0.30834     0.50232    -0.11628
0.065912     0.53225    0.032038   -0.056756     -0.3774     0.49607    -0.18074
0.050126       0.403    0.018884   -0.073857    -0.43331     0.41616    -0.20738
0.044864     0.27474    0.017897   -0.069582     -0.4708     0.27178    -0.19488
0.051441     0.15536    0.027763   -0.047219     -0.4879    0.097812    -0.16265
0.064596    0.051113    0.044206   -0.019594    -0.48034   -0.060373    -0.12713
0.07808   -0.039984    0.056046   0.0073732    -0.44679    -0.16528   -0.097536
0.082355    -0.11891    0.058019    0.025461    -0.39319     -0.1985   -0.083065
0.072489    -0.18962    0.050126    0.028421      -0.333    -0.16101   -0.091616
0.044864    -0.25408    0.032038     0.01132    -0.28137   -0.071884    -0.12089
0.0047422    -0.30933    0.012964   -0.022883    -0.25112     0.03434    -0.15575
-0.038668    -0.35208  -0.0054526    -0.06136    -0.24355     0.12938    -0.18271
-0.080434    -0.37937   -0.025185   -0.092274     -0.2452      0.2139    -0.19685
-0.10872    -0.39417   -0.046561    -0.10905    -0.23336     0.30796    -0.19916
-0.12023    -0.39516   -0.065635    -0.10806    -0.19652     0.42438    -0.19028
-0.11628    -0.38661   -0.079777   -0.088985     -0.1347     0.55954     -0.1689
-0.10378    -0.37411   -0.084052   -0.060045   -0.057085     0.69635    -0.13864
-0.0903    -0.36655   -0.079777   -0.032091    0.013622       0.796    -0.10872
-0.08175    -0.37148   -0.074515   -0.017621    0.058019     0.81376   -0.088327
-0.082079    -0.39319   -0.075173   -0.020581    0.067227      0.7174   -0.083723
-0.091287    -0.45008   -0.085367   -0.034722    0.047824     0.49706    -0.09622
-0.10707    -0.55631   -0.096549   -0.052152    0.020528     0.15964    -0.12648
-0.12911    -0.69542    -0.10378   -0.064649   0.0024402    -0.26657    -0.17877
-0.15838    -0.83124    -0.10674   -0.072542   0.0063866    -0.71679    -0.25276
-0.18863    -0.92562    -0.11135   -0.079777    0.036971     -1.1091    -0.33892
-0.21264    -0.95851    -0.11793   -0.091616    0.093208     -1.4012    -0.41588
-0.22481    -0.92529     -0.1245    -0.10411     0.15273     -1.6245     -0.4662
-0.22514    -0.83354    -0.13009    -0.11924     0.18595     -1.8563     -0.4879
-0.2156    -0.70364      -0.137    -0.13667     0.16424      -2.175    -0.48856
-0.20475    -0.55598    -0.14456    -0.15936    0.070845     -2.6071    -0.47869
-0.20376    -0.41128    -0.15377    -0.18765   -0.086354     -3.0889    -0.47212
-0.2156    -0.29288    -0.16232    -0.21593    -0.27151     -3.3971    -0.45995
-0.22941    -0.22678     -0.1643    -0.23599    -0.41851     -3.0804    -0.40832
-0.22875    -0.22415    -0.15706    -0.23336    -0.45797     -1.7251    -0.27019
-0.19718    -0.27052    -0.13371    -0.19291    -0.37839      0.6582   -0.017292
-0.13601    -0.32577   -0.095891    -0.11168    -0.22875      3.3924     0.33328
-0.057414    -0.35274   -0.050179  -0.0031506   -0.071226      4.9598     0.71937
0.023817    -0.32873   -0.007097     0.10866    0.040589      4.9601      1.0667
0.09551    -0.25046    0.027763       0.207    0.083342      4.9601      1.3173
0.14846    -0.13207    0.058348      0.2879     0.06065      4.9601      1.4307
0.17871   0.0044134    0.088275     0.34841  -0.0011774      4.9598      1.4021
0.18233     0.13958     0.12017     0.38689   -0.060702      4.1294      1.2452
0.16391     0.25764     0.14846     0.40267   -0.067937      2.4282      1.0006
0.13201     0.35071     0.16424     0.40103    0.021843     0.89729     0.72365
0.098798     0.42207     0.16457     0.38557     0.22837    -0.36392     0.46779
0.075449     0.47436     0.15602     0.35959     0.51054     -1.3397     0.27014
0.062952     0.51087     0.14648     0.32341     0.77495     -2.0158     0.14287
0.061965     0.53225     0.13826     0.27474     0.94629     -2.2345    0.079395
0.068871      0.5408     0.12905     0.22015       1.013     -1.8096    0.074791
0.080382     0.53948     0.12017     0.16918      1.0219    -0.83486     0.11985
0.094523     0.53455     0.11393     0.13464      1.0229     0.19549      0.1968
0.1057     0.52435     0.11097      0.1182       1.018     0.69898     0.27573
0.11064     0.50166     0.11195     0.11097     0.97852     0.44575     0.32539
0.1113     0.46351     0.11228     0.10472     0.87953    -0.27184     0.32901
0.10669     0.41385     0.10899    0.095181     0.72989    -0.82828     0.29908
0.098798     0.35926    0.098469    0.083013     0.55658    -0.80394     0.26488
0.09255     0.30829    0.084657     0.07216     0.38524    -0.26855     0.25106
0.082684     0.26521    0.069529    0.062952     0.22311     0.37143     0.25863
0.065254     0.22739    0.053743    0.047495    0.069858     0.78054     0.26751
0.041575     0.18792    0.036642    0.021514   -0.076488     0.92426     0.25633
0.018555     0.14352    0.017568   -0.016963    -0.20869     0.91965     0.21489
0.0001381    0.094194  -0.0034794   -0.063991    -0.31097     0.82362     0.15306
-0.013674    0.041247   -0.026171     -0.1074    -0.36885     0.59078     0.08959
-0.021567   -0.010057    -0.04393    -0.13272    -0.38135     0.19253    0.040589
-0.019594   -0.057085   -0.050836    -0.13009    -0.35109    -0.30998   0.0093464
-0.0008485   -0.094576   -0.043601    -0.10181    -0.28532    -0.78158  -0.0097279
0.028092    -0.12023   -0.025514   -0.062018     -0.1962     -1.1009   -0.028144
0.05473    -0.13404  -0.0041372   -0.024527   -0.098193     -1.2081   -0.056427
0.067885    -0.13568   0.0080309   0.0017824  -0.0008485     -1.1328     -0.1028
0.067227    -0.13141   0.0047422    0.023159    0.089261    -0.95325    -0.16331
0.056374    -0.12352   -0.007097    0.045193     0.17904    -0.75067    -0.21724
0.042233    -0.11431   -0.016963    0.068214     0.27836    -0.57505    -0.24849
0.026447    -0.10214   -0.016963    0.094194     0.38787    -0.45008    -0.25177
0.01691   -0.086354  -0.0057815      0.1205     0.48719    -0.37806    -0.23599
0.014937   -0.067609    0.011648     0.13991     0.55198    -0.35339     -0.2156
0.014279   -0.052481    0.027105     0.14155     0.55329    -0.36622    -0.21034
0.0090175   -0.048534    0.031052     0.11754     0.48292    -0.40996    -0.22481
-0.0034794     -0.0584    0.021514    0.069858     0.35005    -0.48198    -0.25473
-0.018278   -0.077475   0.0047422    0.012635     0.18661    -0.59182    -0.29255
-0.027816    -0.10214   -0.012688   -0.035051    0.034998     -0.7454    -0.32972
-0.028802    -0.12944   -0.027487   -0.065307   -0.074186    -0.93089    -0.35899
-0.026171    -0.16002    -0.04097   -0.077146    -0.13897      -1.119    -0.37346
-0.025842    -0.19521   -0.052481   -0.076817     -0.1712     -1.2801    -0.38069
-0.028802    -0.23073   -0.060373   -0.069582    -0.19225     -1.4038    -0.38365
-0.035051    -0.25671   -0.065964   -0.059716     -0.2179      -1.489    -0.38924
-0.039326    -0.26723    -0.07024    -0.05544    -0.25112     -1.5449    -0.39779
-0.038997    -0.26526   -0.075501   -0.059387      -0.284     -1.5689    -0.40042
-0.032091    -0.25572   -0.076159   -0.065964    -0.29551      -1.536    -0.38924
-0.020581    -0.23763    -0.06728   -0.063333    -0.25901      -1.436    -0.35964
-0.007097    -0.20968   -0.050507   -0.044917    -0.16726      -1.291    -0.31196
0.0057288    -0.16528   -0.029789   -0.007097   -0.036366     -1.1285    -0.25769
0.015266    -0.10839   -0.013674    0.040918     0.10899    -0.94733    -0.20902
0.019212   -0.045574  -0.0008485     0.08367     0.24482    -0.70561    -0.17219
0.01691    0.015595   0.0090175      0.1113     0.35466    -0.36359    -0.13832
0.015595    0.069529    0.017239      0.1182     0.41912    0.059992     -0.1005
0.01987      0.1113    0.021514     0.10801     0.42372     0.46022   -0.062676
0.023159      0.1307    0.020528    0.085644     0.36683      0.7072   -0.038668
0.016581     0.11952    0.014279     0.05769     0.26159     0.73022   -0.037024
-0.002164    0.077422   0.0070443    0.030723     0.12577      0.5648   -0.057414
-0.028144      0.0054   0.0030979   0.0047422   -0.027158     0.32144   -0.090958
-0.057085    -0.09326   0.0044134   -0.019265    -0.18929     0.11919    -0.12483
-0.087998    -0.20803   0.0070443   -0.046232    -0.35635    0.049468    -0.14193
-0.12615    -0.31952   0.0080309   -0.076817    -0.51684     0.14254     -0.1324
-0.16824    -0.40108   0.0070443    -0.10148    -0.65497     0.35236   -0.095562
-0.20047    -0.42772   0.0037556    -0.11431    -0.76382     0.58223   -0.039984
-0.21297    -0.39187   0.0030979    -0.11858    -0.84341     0.72134    0.018226
-0.20146    -0.31261   0.0017824    -0.11793    -0.89899     0.71016    0.066569
-0.17745    -0.22251  -0.0051238    -0.11529     -0.9345     0.57697    0.094523
-0.15575    -0.15443   -0.016634    -0.12056    -0.94272     0.40892    0.097812
-0.14391    -0.12253   -0.025514    -0.13634    -0.91378     0.28921    0.075778
-0.14588     -0.1268   -0.030118    -0.15246    -0.84078     0.22311    0.047166
-0.15706    -0.15344   -0.032091    -0.16265      -0.726      0.1626    0.028421
-0.16956    -0.18534   -0.036695    -0.16594    -0.56716    0.074133    0.029078
-0.17515    -0.20343   -0.042944    -0.15575    -0.35339   -0.018936    0.045193
-0.16758    -0.19324   -0.043601    -0.12319   -0.066951   -0.036037    0.071502
-0.14522     -0.1495    -0.03538   -0.068266     0.29316    0.088603    0.097812
-0.11497   -0.081092   -0.018278   0.0040845     0.69109     0.33756     0.11985
-0.079448   -0.010715   0.0001381    0.083342      1.0496     0.61841     0.13662
-0.041299    0.043549    0.016253     0.15405      1.2778     0.80915     0.14714
-0.004466    0.076106    0.027434     0.19746      1.3077     0.80685     0.14517
0.026119    0.093865    0.034998     0.19976      1.1219     0.57566     0.12116
0.048482      0.1057    0.039931     0.15931     0.77561     0.16819    0.076764
0.064596     0.11853    0.045193    0.094194     0.37505    -0.30143    0.027105
0.078737     0.14024    0.052099    0.034011    0.044206    -0.71614  -0.0051238
0.096496     0.16918    0.059992  -0.0011774    -0.13733     -1.0411  -0.0087413
0.11853     0.19713    0.065912  -0.0031506    -0.17153     -1.3147    0.010333
0.14188     0.21719    0.064925   0.0096753    -0.12812      -1.588    0.037958
0.16128     0.22541    0.056046    0.015924   -0.093918     -1.8682    0.060321
0.17214     0.21883    0.038616   0.0030979    -0.12615      -2.124    0.074462
0.17542     0.20338    0.015924   -0.034722    -0.23138     -2.3079    0.085315
0.17575     0.18957  -0.0051238   -0.087341    -0.37674      -2.371    0.097154
0.17181     0.18759   -0.020252    -0.13733    -0.50566     -2.2644     0.11162
0.16326     0.20305   -0.025185    -0.17153    -0.56946     -1.9583     0.12083
0.15306     0.23922   -0.020252    -0.18074    -0.53328     -1.4403     0.12313
0.14385     0.28921  -0.0051238    -0.16199    -0.39779    -0.77106     0.12346
0.13662     0.34315    0.013293    -0.12779    -0.20738   -0.073528     0.12971
0.12905     0.39017    0.028092   -0.095233   -0.043601     0.56086     0.14517
0.11261     0.42503    0.033025   -0.077803    0.024474      1.0874     0.17049
0.085315     0.44312    0.030065   -0.077803   -0.024856      1.4629     0.20239
0.054072     0.45167    0.021186   -0.090629     -0.1587      1.6392     0.23133
0.023159     0.45661   0.0093464    -0.10378    -0.30604      1.5981      0.2481
-0.0011774     0.46285  -0.0034794    -0.10477     -0.3899      1.3952     0.24317
-0.0087413     0.47371   -0.010057   -0.088327    -0.36194      1.1446      0.2162
0.00046697     0.48851   -0.012688   -0.052152    -0.20803     0.98608      0.1843
0.019541     0.50002  -0.0061104 -0.00019077    0.045522      1.0259     0.15997
0.04026     0.50199    0.010662    0.058348      0.3494      1.2959     0.14747
0.057361     0.49311    0.033025     0.11327     0.64603      1.7382     0.13497
0.069858     0.47042    0.055717     0.15668     0.89236      2.1858     0.10406
0.07512     0.43457    0.073804     0.18628      1.0693      2.4167    0.037629
0.072818     0.38952    0.083342     0.20897      1.1804      2.2693   -0.057414
0.0692      0.3415    0.081368     0.22706       1.235      1.7303    -0.14752
0.0692     0.29612    0.068871     0.23298      1.2245     0.89499    -0.19948
0.077093     0.25929    0.051113     0.21818      1.1403   -0.028144    -0.20606
0.087946     0.23166    0.033025      0.1797     0.98608    -0.69081    -0.17581
0.097154     0.21456    0.017239     0.12017     0.78251    -0.75231     -0.1268
0.10702     0.20239   0.0083598    0.057032     0.56119    -0.16594   -0.073528
0.12149     0.18134   0.0050711   0.0093464     0.34775     0.68681   -0.030775
0.13892     0.14254   0.0090175    -0.01203     0.13662      1.2663   -0.010715
0.15339    0.083013     0.01987  -0.0028217   -0.074186      1.2738   -0.016305
0.16293   0.0093464    0.035985    0.032367    -0.27381     0.77594   -0.030447
0.16852   -0.058729    0.058676    0.085644    -0.44613    0.071173   -0.028473
0.17477    -0.10477    0.083013     0.14517    -0.57702    -0.54414    0.002769
0.18003    -0.12812     0.10176     0.19779    -0.66911    -0.89997    0.056046
0.17542    -0.14029     0.11097     0.23462    -0.72929    -0.95522     0.11426
0.16424    -0.15114     0.11195       0.256    -0.75955    -0.79572     0.17049
0.15471    -0.16397     0.10768     0.26652    -0.76744    -0.58656     0.22278
0.15076    -0.17877     0.10307     0.27277    -0.76415    -0.46587     0.26521
0.14846    -0.19883    0.098469     0.27244    -0.75724     -0.4583     0.29743
0.14155    -0.23204    0.095839     0.26521    -0.72896    -0.45896     0.31585
0.12544    -0.27907    0.094194     0.25698     -0.6497    -0.30439     0.32868
0.10406    -0.33268    0.095181     0.25369     -0.5027    0.070845     0.34052
0.078409    -0.38168    0.098141     0.25468     -0.3113     0.55954     0.34512
0.04881    -0.41456    0.096167     0.25271    -0.12056      0.9749     0.32835
0.016253    -0.42739    0.084986     0.23824     0.02579      1.1837     0.28461
-0.016963    -0.42048    0.063281     0.20634     0.11327      1.1663     0.22607
-0.049521    -0.39516     0.03434     0.16095     0.16293      1.0098     0.16687
-0.073528     -0.3478    0.002769     0.11491      0.2139     0.83941     0.12248
-0.085696    -0.27874   -0.023869    0.082684     0.28428     0.74765     0.10274
-0.086025    -0.19521   -0.040641    0.066898     0.36189     0.73943     0.10834
-0.078461    -0.10609   -0.051494    0.058348     0.41287     0.75489     0.12807
-0.069253    -0.01795   -0.059716     0.04322     0.39938     0.72398     0.14813
-0.059716    0.061636   -0.070568    0.013293     0.30204     0.61348     0.14944
-0.051823     0.12905   -0.085367   -0.031104     0.13201     0.43326     0.11886
-0.043601     0.18759    -0.10115   -0.085696   -0.076817      0.2287    0.055717
-0.036037     0.24547    -0.11562    -0.14062    -0.29124    0.030723   -0.031104
-0.025842     0.29579    -0.12384    -0.19093     -0.4856    -0.14555    -0.12286
-0.013674     0.33098    -0.12713    -0.23632    -0.64806     -0.2988    -0.19948
-0.0074258     0.34315    -0.12582     -0.2771    -0.77632     -0.4389    -0.25145
-0.011372     0.33624    -0.12253    -0.31064    -0.87399    -0.58788    -0.28302
-0.027158     0.31486     -0.1199    -0.33629    -0.94634    -0.77073    -0.30242
-0.05281     0.28494    -0.12384    -0.35603    -0.99962    -0.99896    -0.31722
-0.083723     0.25205    -0.12911    -0.36819     -1.0374     -1.2644    -0.33169
-0.11694      0.2162    -0.12976    -0.37247     -1.0601     -1.5738    -0.35471
-0.15048     0.17444    -0.12582    -0.37346     -1.0687      -1.952    -0.39615
-0.18304     0.12609     -0.1176    -0.37806     -1.0614     -2.3713    -0.46422
-0.21034    0.066898    -0.10674    -0.38233     -1.0263     -2.7074    -0.54776
-0.23138  -0.0011774    -0.09622    -0.38332    -0.94536     -2.8337    -0.62668
-0.24553   -0.078461   -0.086025    -0.36885    -0.79901     -2.7114    -0.67799
-0.2498     -0.1541   -0.077475    -0.32643    -0.57045     -2.3924    -0.67996
-0.24125    -0.22283   -0.066293    -0.24651    -0.23928     -2.0073    -0.62175
-0.22152    -0.28203   -0.047548    -0.13634     0.18726     -1.7221    -0.51224
-0.1985    -0.33235   -0.020909   -0.015319      0.6411     -1.6613    -0.37346
-0.17811     -0.3705      0.0054    0.086959      1.0282     -1.7889    -0.23171
-0.15805    -0.39187    0.020857     0.14879      1.2745      -1.908   -0.096549
-0.13733    -0.39319    0.024145      0.1672      1.3613     -1.7748     0.03434
-0.11529    -0.37313    0.020528     0.15832      1.3153     -1.2565     0.17181
-0.091945    -0.33925    0.015266     0.13826      1.1939    -0.24224     0.33164
-0.068266    -0.30374    0.013622     0.12248      1.0601      1.4044     0.52665
-0.040641    -0.26657    0.019541     0.11919     0.94037      3.5272       0.747
-0.007097    -0.22514    0.033354     0.12281     0.81836      4.9594     0.94991
0.029078     -0.1712    0.045193     0.11952     0.65919      4.9601      1.0778
0.058676     -0.1097    0.046837    0.099456     0.45069      4.9601      1.0877
0.073476   -0.055112    0.033025    0.058348      0.2116      4.9598      0.9703
0.067556   -0.016634   0.0073732    0.002769   -0.014661      4.0761     0.75686
0.047495    0.010004   -0.023869   -0.055112    -0.18041      2.0352     0.50725
0.030394    0.036642   -0.049192   -0.096549    -0.24717     0.39116     0.28231
0.027434    0.071502    -0.06136    -0.10444    -0.20475    -0.56749     0.11952
0.039931     0.11656   -0.057085   -0.075173   -0.069253    -0.86676    0.032696
0.058676      0.1672   -0.039326   -0.016963     0.11097    -0.72962      0.0054
0.073147      0.2116   -0.013017    0.049139     0.27408    -0.42246    0.010004
0.071831      0.2389    0.014608     0.10373     0.37274    -0.15838    0.019212
0.054401      0.2435    0.035985     0.13136     0.38491   -0.039984    0.010662
0.029736     0.22179    0.044864     0.12577     0.31026   -0.060373   -0.026171
0.0067154     0.17115    0.039931     0.09255     0.17378    -0.14687   -0.090629
-0.011701    0.098469    0.026119    0.046508    0.011977    -0.21231    -0.16561
-0.024527    0.016581     0.01132   0.0001381     -0.1416     -0.2054    -0.22875
-0.039326   -0.066622   0.0001381   -0.040313    -0.26361    -0.11431    -0.26789
-0.056756    -0.14423  -0.0084125   -0.074186    -0.35701   0.0050711    -0.29091
-0.076159    -0.20902   -0.015648    -0.10346     -0.4389    0.038944    -0.32248
-0.093918    -0.25769   -0.026171    -0.13338    -0.52177    -0.11497    -0.38233
-0.10444    -0.29486    -0.04097    -0.16528    -0.61616    -0.47935    -0.46751
-0.11069    -0.32544   -0.056756     -0.1985    -0.71252    -0.97627    -0.55861
-0.12154    -0.35175   -0.071884    -0.22744    -0.79572     -1.4725    -0.63951
-0.13733    -0.37181   -0.085039    -0.25046    -0.85294     -1.8511    -0.69311
-0.15213    -0.37773   -0.097207    -0.26394    -0.87564     -2.0569    -0.71219
-0.1587    -0.36589    -0.10707    -0.26197    -0.85557     -2.1095    -0.70068
-0.15805    -0.34156    -0.11365    -0.24092    -0.77665     -2.0441    -0.66582
-0.15114      -0.309    -0.11529    -0.19916    -0.62866     -1.8734    -0.60333
-0.13601     -0.2748    -0.11266    -0.13568    -0.41292     -1.6139    -0.51257
-0.11168    -0.23698    -0.10674     -0.0584    -0.14983     -1.2923     -0.3922
-0.081421    -0.19883   -0.096549    0.021843     0.11853    -0.93253    -0.24487
-0.04985    -0.16265   -0.083723    0.092879     0.34644    -0.54644    -0.08471
-0.018936    -0.13042    -0.07024     0.14517     0.50659    -0.11529    0.069858
0.012306    -0.09918   -0.056427     0.17279     0.58421     0.38491     0.20765
0.040589   -0.069911   -0.041628     0.18036     0.57303     0.91472     0.32045
0.062294   -0.037682   -0.030447     0.17641     0.48719       1.387     0.38985
0.07512  -0.0018351   -0.022554      0.1751       0.354      1.6915     0.40136
0.08367    0.031709   -0.012359     0.17674     0.20469      1.7372     0.35137
0.091234    0.059992  -0.0015062     0.17838    0.073147      1.5077     0.25468
0.10209    0.081039    0.010004     0.17641   -0.025185      1.0348     0.13596
0.11261     0.09551     0.02579      0.1695   -0.093918     0.33098    0.015924
0.11985     0.10209    0.049139     0.16095    -0.14423    -0.60136   -0.089314
0.12774     0.10669    0.083342     0.15701    -0.17581     -1.6909    -0.16166
0.13991     0.12017     0.12379     0.16293    -0.16693     -2.7666    -0.18501
0.15832     0.14681     0.16194     0.18299   -0.084381      -3.527     -0.1564
0.17707     0.18003     0.19055     0.21818    0.099785     -3.6388   -0.080763
0.1945     0.21292     0.20568     0.27211     0.39248     -2.9143    0.030723
0.21094     0.23298     0.20667      0.3392     0.75686     -1.5186     0.16095
0.22475     0.22212     0.19614     0.40169      1.1163    0.055059      0.2879
0.23002     0.17411     0.17773      0.4451      1.4011      1.2551     0.38261
0.22475    0.097483     0.15405     0.45759      1.5669      1.8477     0.41912
0.20667    0.015266     0.13037      0.4372       1.609      1.9362     0.38952
0.18167   -0.046561     0.10998     0.39017      1.5534      1.7964     0.30829
0.15898   -0.071555    0.092879      0.3267      1.4508      1.6566     0.20765
0.14451   -0.056756    0.080382     0.26488      1.3396      1.5757     0.12544
0.13793    -0.01203    0.074462     0.21653      1.2327      1.4695    0.076764
0.13728    0.047824    0.071173     0.18332      1.1295      1.2189    0.059663
0.14221     0.10965    0.069529      0.1603      1.0302     0.81737    0.063281
0.14583      0.1649    0.069858     0.14517     0.94004     0.39577    0.079395
0.14221     0.21588    0.070187     0.13728     0.85519     0.13103     0.10143
0.1284     0.27343    0.070516     0.13103      0.7539     0.10505     0.12182
0.10866     0.34183    0.071173     0.11754     0.60262     0.25501     0.13695
0.087946     0.41681    0.073476    0.095839     0.37998     0.45398     0.14287
0.072818     0.48686    0.076106    0.064267    0.094194     0.62038     0.14024
0.06624     0.53948    0.080711    0.027763    -0.20902      0.8029      0.1455
0.067885     0.55954    0.087946  -0.0093991    -0.46784      1.1459       0.182
0.074133     0.53389    0.094523   -0.041628    -0.64082      1.7158     0.26455
0.07808     0.45595    0.099785   -0.063333    -0.72008      2.4213     0.38886
0.073804     0.32835    0.098469   -0.074515    -0.72041      3.0425     0.53323
0.057361     0.17016    0.093208   -0.074515    -0.67536      3.2908      0.6684
0.031709    0.022172    0.084986   -0.059058    -0.62142      2.9142     0.75851
0.0083598   -0.076817    0.077093   -0.030775    -0.59544      1.8678     0.77627
-0.0024928    -0.10346    0.070516 -0.00019077    -0.60761     0.37011     0.71641
0.002769   -0.066622    0.061965    0.014608    -0.65529     -1.1664     0.59341
0.015924   0.0057288    0.049797   0.0044134    -0.72567     -2.3361     0.42931
0.023488    0.085315     0.02875   -0.032091    -0.80361     -2.9695     0.25567
0.021186     0.15339  -0.0011774   -0.087341    -0.87366     -3.1086    0.091563
0.0067154     0.20108   -0.040313    -0.14851    -0.92924     -2.9452   -0.059387
-0.012688     0.22936    -0.08175    -0.20343    -0.97528     -2.6864    -0.18896
-0.030775      0.2412    -0.11431    -0.24355     -1.0151     -2.4565    -0.28696
-0.04393     0.23594    -0.13338    -0.26493     -1.0404     -2.2473    -0.34978
-0.050836     0.21818      -0.137    -0.26657     -1.0259     -1.9787    -0.37773
-0.049192     0.19318    -0.12779    -0.25079     -0.9424     -1.5876    -0.37181
-0.043272     0.16622    -0.10905    -0.21889    -0.77369     -1.0848      -0.333
-0.035708     0.14254   -0.084381    -0.17811    -0.53822    -0.57012    -0.26888
-0.027487     0.12346   -0.057085    -0.13536    -0.29551    -0.17383    -0.19192
-0.019594     0.10406    -0.03538     -0.1051    -0.11694    0.069858    -0.11858
-0.016963    0.080053   -0.023211   -0.094905   -0.055769     0.22015   -0.063333
-0.022883    0.049797   -0.020909    -0.11102    -0.10905     0.33756   -0.031104
-0.042615    0.012964   -0.025842    -0.14687    -0.23632     0.43983   -0.024856
-0.074844   -0.029131   -0.038339    -0.18732    -0.38497     0.52238   -0.042615
-0.11431   -0.073528   -0.057085    -0.21264    -0.51158     0.58947   -0.080434
-0.15607    -0.11431   -0.080106    -0.21297     -0.5813     0.66675    -0.13568
-0.19422    -0.14522    -0.10148    -0.18929     -0.5711     0.78153    -0.19981
-0.2179    -0.16462    -0.11497    -0.15048    -0.46455     0.92261    -0.25934
-0.2202    -0.17087    -0.11299     -0.1051    -0.28071      1.0436    -0.30242
-0.19784    -0.16331   -0.098193   -0.057743   -0.064649      1.0976    -0.32676
-0.15706    -0.14884   -0.076817   -0.016634     0.13004      1.0502    -0.34221
-0.11398    -0.13634   -0.056756   0.0096753     0.26619     0.86144    -0.35899
-0.086683     -0.1324   -0.042944    0.022501     0.33986     0.50232    -0.37839
-0.082079     -0.1324   -0.038011     0.02875     0.37176   -0.013017     -0.3899
-0.096549    -0.13371   -0.038339    0.029078     0.38458    -0.64609    -0.38168
-0.11793    -0.13272   -0.042286    0.026447     0.38853     -1.3584    -0.35011
-0.13568    -0.12878   -0.042615    0.023817     0.39017       -1.95     -0.2942
-0.14226    -0.11825   -0.039326    0.026447     0.40892     -2.0428    -0.21626
-0.13667    -0.10017   -0.029789    0.036642     0.46351     -1.4068    -0.12319
-0.12779   -0.074515   -0.015319     0.05473      0.5408    -0.28006   -0.039326
-0.11694   -0.051823  -0.0024928    0.069529     0.60361     0.77561   0.0067154
-0.10839   -0.044588  0.00046697    0.071502     0.61578      1.2811  -0.0018351
-0.10346    -0.05544  -0.0077547    0.059663     0.56743      1.1235   -0.057085
-0.10576   -0.077146   -0.024527    0.041247     0.47469     0.53389    -0.13601
-0.11003    -0.10378   -0.047219    0.025461      0.3665   -0.077146    -0.21264
-0.11069    -0.13437   -0.065307    0.019212     0.26619    -0.35076    -0.26263
-0.10576    -0.16561   -0.073528    0.027105     0.18989    -0.11957     -0.2748
-0.095891    -0.19291   -0.069911    0.043877     0.15207     0.55527    -0.25013
-0.08175    -0.21395     -0.0584    0.059992     0.14352      1.3988    -0.20343
-0.063004    -0.22875   -0.041957    0.068871     0.14089      2.0756    -0.15673
-0.040641    -0.24421   -0.024856    0.068871     0.11294      2.3239    -0.12976
-0.011701    -0.25605  -0.0074258    0.060979    0.033354      2.0687    -0.12746
0.021186    -0.25737    0.010991    0.050784     -0.1051      1.4702     -0.1347
0.057032    -0.25079    0.032367    0.044864    -0.28006     0.79008    -0.12417
0.08959    -0.24059    0.058019    0.048482    -0.45304     0.18726   -0.076159
0.11853    -0.22908     0.08367    0.065912    -0.59281    -0.33268   0.0083598
0.13991    -0.21231     0.10274    0.093536    -0.68752    -0.82663     0.10801
0.15109    -0.18765     0.10932     0.12215     -0.7431     -1.3334     0.19516
0.15273     -0.1495     0.10373     0.13662    -0.76941     -1.8366     0.24909
0.14484    -0.10477    0.090577     0.12708    -0.76382     -2.2444     0.26849
0.1353   -0.063991    0.075449    0.097812    -0.71054     -2.4108     0.26323
0.12577   -0.034064    0.066569    0.067556    -0.58327     -2.1941     0.25008
0.11721   -0.016634    0.065912    0.057361    -0.35964      -1.587     0.24218
0.10899  -0.0047949    0.071173    0.076106   -0.048863     -0.7681     0.23791
0.1011   0.0014536    0.079724     0.11853     0.30105   -0.024198     0.22936
0.094523   0.0044134    0.085644     0.16622     0.60821     0.38919      0.2139
0.084657   0.0040845     0.08663     0.19351     0.79337     0.35499     0.18726
0.06624   0.0040845    0.080382     0.18463     0.81704   -0.076817     0.15175
0.039931   0.0057288    0.065912     0.13925     0.69306    -0.70298     0.10603
0.010662   0.0096753    0.042891    0.067885     0.47864     -1.2795     0.04618
-0.016963    0.015924    0.015924   -0.010386     0.23955     -1.6271   -0.028144
-0.04097    0.020528   -0.011372   -0.080106    0.033354     -1.6659    -0.11069
-0.063662    0.021843   -0.038011    -0.13042    -0.10148     -1.3864    -0.18534
-0.082736    0.020199   -0.060702    -0.15772    -0.14456     -0.8148    -0.23007
-0.088327    0.021514   -0.073528    -0.15805    -0.10017   -0.017292    -0.22086
-0.074844    0.034998   -0.072542    -0.12746   0.0070443     0.85256    -0.14884
-0.042944    0.067556   -0.057085   -0.068924     0.14188       1.555   -0.019594
0.0021113     0.11787   -0.030447    0.002769     0.26323      1.8517     0.14188
0.04618     0.17641  -0.0028217    0.062952     0.33262      1.6007     0.28494
0.076435     0.22903    0.019212    0.091563     0.32177     0.84664     0.36485
0.089919     0.26652    0.031709    0.083342     0.22443    -0.19291     0.36288
0.085972     0.28296    0.034011    0.043549    0.058348     -1.2032     0.29612
0.073147     0.28099    0.027763   -0.019265    -0.14127     -1.8589     0.20305
0.055717      0.2606    0.012964     -0.0903    -0.33268     -1.8086     0.12741
0.038616     0.22508  -0.0034794    -0.14719    -0.47475     -0.8513     0.10603
0.027105     0.18069   -0.013017    -0.17811    -0.54973     0.79435     0.14155
0.021186     0.13234   -0.019923    -0.18403    -0.57275      2.4903     0.20338
0.020528    0.088275   -0.024198    -0.17054    -0.56946      3.6476     0.25402
0.02875     0.06361   -0.025842    -0.15114    -0.55795      3.9742      0.2708
0.04881     0.07216   -0.023869     -0.1347    -0.54184      3.5266     0.25041
0.074791      0.1136   -0.022225    -0.12812    -0.52112      2.6031     0.20239
0.097483      0.1774   -0.028144    -0.13009    -0.49579       1.531     0.13662
0.10735     0.24909   -0.039326    -0.13733    -0.46093      0.5089    0.062294
0.096167     0.31848   -0.047877    -0.14292    -0.40437     -0.3945    -0.01203
0.074133     0.37965    -0.04393     -0.1393     -0.3113     -1.1591   -0.069253
0.055717     0.43523   -0.024198    -0.11266    -0.17022     -1.6981   -0.087998
0.054401     0.48653   0.0083598   -0.056427    0.033025      -1.783   -0.058071
0.075449     0.52929    0.042891    0.026119     0.30072     -1.1877    0.016253
0.1113     0.55033     0.07512     0.11623     0.60131    0.056703      0.1159
0.14188     0.53422    0.099785     0.18924      0.8598      1.5688     0.20798
0.15142      0.4691     0.11064     0.22541      1.0019      2.8432     0.25797
0.12873     0.35762     0.10801     0.21653     0.98641      3.5282     0.25074
0.078409     0.21028    0.094852     0.17082     0.82888      3.5016     0.19121
0.012635     0.04881    0.073476      0.1113     0.59933      2.8836     0.10603
-0.057414    -0.11168    0.049797    0.063281     0.37406      1.9339    0.020857
-0.11891    -0.25046    0.030723    0.034669     0.19943     0.91143   -0.047219
-0.16693    -0.34945     0.01987    0.018226    0.088603  -0.0087413   -0.091287
-0.19652    -0.39056    0.015924   0.0063866    0.027105    -0.74409    -0.11858
-0.20179    -0.36392    0.018226   -0.007097   -0.010386     -1.2884    -0.13272
-0.18008    -0.28236    0.023159   -0.021238   -0.037024      -1.662    -0.12944
-0.13338    -0.17646    0.024145   -0.032091   -0.046561     -1.8589    -0.10313
-0.080106    -0.08471    0.021843   -0.039984   -0.027487     -1.8685    -0.05281
-0.035708   -0.034722    0.017239   -0.039326    0.011977     -1.7514    0.020528
-0.0090702   -0.028802    0.013622   -0.025185     0.04881     -1.6409     0.10472
-0.0015062   -0.049521    0.012635   0.0021113     0.06065     -1.6409     0.18365
-0.0074258   -0.078461    0.015924    0.039931     0.04322     -1.7468     0.23857
-0.017292   -0.097864    0.021186    0.081368    0.010662      -1.856     0.25665
-0.025185    -0.10313    0.025132     0.11919   -0.011372     -1.8566     0.23298
-0.027158    -0.10017     0.02283     0.14188   -0.011043     -1.7083     0.17477
-0.018278   -0.097536    0.012306     0.14418    0.020528     -1.4156     0.10044
-0.00051963   -0.098522  -0.0008485     0.13169    0.090248    -0.99567    0.031709
0.024803    -0.10609   -0.013674     0.11952     0.20338    -0.47771    -0.01203
0.052428    -0.12352   -0.018936     0.11656      0.3586    0.085644   -0.019265
0.071502    -0.15279   -0.015648     0.12544       0.526     0.59276   0.0057288
0.076764    -0.18896  -0.0054526      0.1376     0.64143     0.92886    0.038944
0.068214    -0.22711   0.0063866     0.14188     0.63485      1.0144     0.05769
0.053086    -0.26098    0.013293     0.12642     0.47436     0.84335    0.055388
0.040918    -0.27874    0.013951     0.08663     0.18167     0.47765    0.038616
0.038287    -0.27414    0.010004    0.026119    -0.18501    0.036642    0.013293
0.043549    -0.24849      0.0054   -0.039984    -0.54644     -0.3797   -0.012688
0.055388    -0.21823   0.0044134   -0.097864    -0.83814    -0.72304   -0.042286
0.0692    -0.20376    0.010333    -0.13568     -1.0322      -0.996   -0.078132
0.085315    -0.21297    0.017239    -0.14983     -1.1348     -1.2229     -0.1176
0.096496     -0.2452    0.026776    -0.14456      -1.167     -1.4051    -0.16134
0.095839    -0.29288    0.030394    -0.13272     -1.1443     -1.5176    -0.21264
0.080053     -0.3455    0.020199    -0.12615     -1.0795     -1.5281    -0.27151
0.048153    -0.39352  -0.0064392    -0.13568    -0.98383      -1.417    -0.33235
0.0030979     -0.4241   -0.046561    -0.16265    -0.86347     -1.1913    -0.38661
-0.046232    -0.42344   -0.088656    -0.19587    -0.70594    -0.85788    -0.42673
-0.089314    -0.38431    -0.12121    -0.21132     -0.4754    -0.38628    -0.44482
-0.11102    -0.30735    -0.12911     -0.1814    -0.13272     0.28592    -0.42607
-0.10378    -0.20277    -0.10806   -0.097864     0.31552      1.1939    -0.36063
-0.069911   -0.091287   -0.066951    0.026447       0.796      2.2614    -0.25506
-0.021567   0.0086887   -0.021896     0.15207      1.1995      3.2845    -0.13536
0.023488    0.083999   0.0070443     0.23758      1.4307      4.0255   -0.029789
0.050126     0.13366    0.010333     0.25501      1.4396      4.2984    0.043549
0.055059     0.16194  -0.0087413     0.20634       1.237      3.9738    0.077093
0.042562     0.18003   -0.035051     0.11919     0.90617      2.9961    0.074133
0.021186     0.19812   -0.054783     0.03434     0.56316      1.4971     0.04322
0.0001381     0.22015   -0.057085   -0.018278     0.30993    -0.20014   -0.002164
-0.011701     0.24317   -0.040641     -0.0265      0.1922     -1.7018   -0.051494
-0.0077547     0.25994   -0.014003   0.0063866     0.19121     -2.7982   -0.092603
0.0040845     0.26356    0.016253    0.064925     0.25271     -3.4655    -0.11201
0.015595     0.24975    0.042233     0.13267     0.33098     -3.7644    -0.10313
0.020199     0.21949    0.061307     0.19614     0.40826     -3.7999   -0.063991
0.025132     0.18233    0.076764     0.25106      0.4941     -3.6901   0.0077021
0.039273     0.15175    0.093536     0.29941     0.60295     -3.5026      0.1034
0.065254     0.13958     0.10834     0.34315     0.73318     -3.2211       0.207
0.091892     0.14912     0.11721     0.37011     0.84862     -2.8143     0.29184
0.10472     0.17279     0.11491     0.37077     0.89729      -2.319     0.33328
0.095181     0.19516    0.099785     0.33723     0.84171     -1.7639     0.32703
0.066569     0.20371    0.072489     0.27145     0.69306    -0.99863     0.29941
0.032038     0.19812    0.039273     0.18693     0.51876     0.22179     0.30368
0.0093464     0.18661    0.010662     0.10603     0.38557      1.8934     0.38031
0.0083598     0.18266   -0.004466     0.04322     0.30368      3.6848     0.52863
0.026776     0.18825  -0.0051238  0.00046697     0.23955      4.9601      0.6901
0.052099     0.19779 -0.00019077   -0.027487     0.16326      4.9598     0.78646
0.066569     0.20371   0.0011247   -0.052481    0.065912      4.9601     0.78087
0.060321     0.20206  -0.0051238   -0.089643   -0.044259      4.9594     0.68451
0.036314     0.19022   -0.016305    -0.14029    -0.15706      3.5302     0.53422
0.0054     0.17115   -0.032091    -0.20146    -0.26657      1.6586     0.37242
-0.018936     0.15273    -0.04985    -0.26131    -0.36951   -0.080434     0.23396
-0.031104     0.14056   -0.065307    -0.30867    -0.45534     -1.2831      0.1376
-0.030447     0.13563   -0.076159     -0.3284    -0.50467     -1.8356    0.081039
-0.021567     0.13629   -0.074186    -0.30768    -0.48757     -1.7961    0.053086
-0.010057     0.14056   -0.059716    -0.24289    -0.38201     -1.1789    0.044206
0.0057288     0.14155   -0.036695    -0.14818    -0.20113   -0.047219    0.046837
0.01987     0.13432   -0.012359   -0.046561   0.0034268      1.2742     0.05177
0.029736     0.11721   0.0080309    0.045193      0.1695      2.2844    0.044535
0.034669    0.097154    0.024145     0.11524     0.25369      2.6021     0.01691
0.034998    0.079724    0.039273     0.15865     0.22015         2.1   -0.034393
0.033025    0.069858    0.048482     0.16128    0.039931     0.94596    -0.10641
0.027434    0.061965    0.047824     0.11853    -0.29255    -0.52013    -0.18962
0.016581    0.050126    0.034998    0.036971     -0.7408     -1.8912     -0.2748
0.0021113    0.029078   0.0093464    -0.07024     -1.2279     -2.8867    -0.35339
-0.014661   0.0014536    -0.02354    -0.18666     -1.6708     -3.3783    -0.41423
-0.034722   -0.029131   -0.057414    -0.29683     -2.0145     -3.3757    -0.44909
-0.058071   -0.061031    -0.08471    -0.38825      -2.249     -3.0028    -0.45271
-0.086025   -0.091945    -0.11069    -0.45962     -2.3901     -2.4193     -0.4366
-0.11365    -0.12121     -0.1393    -0.51618     -2.4585     -1.7409     -0.4116
-0.13536    -0.14687    -0.16726    -0.55729     -2.4654     -1.0243    -0.38727
-0.15015    -0.16824    -0.18797    -0.57933      -2.395    -0.29847    -0.36425
-0.15673     -0.1814    -0.19916     -0.5711     -2.2227     0.38228    -0.32972
-0.15081    -0.18501     -0.1985    -0.52408     -1.9445     0.91439    -0.27381
-0.13766    -0.18107    -0.18469    -0.44054     -1.5765      1.2281    -0.19883
-0.11497    -0.17975    -0.15969    -0.32544     -1.1269      1.3156    -0.11924
-0.079448    -0.20179    -0.12878     -0.1837    -0.59314       1.237    -0.05544
-0.031762       -0.26   -0.092931   -0.014661    0.035656      1.0841   -0.018278
0.024145    -0.33761   -0.053796     0.17345     0.74535     0.92754  -0.0061104
0.07808    -0.40766   -0.013017     0.36058       1.461     0.79172   -0.027158
0.11919    -0.44811    0.025461     0.52139      2.0723     0.66313   -0.090629
0.13432    -0.45074    0.056374     0.63123      2.4745     0.49541     -0.2031
0.12215    -0.42673    0.072489     0.67662      2.6235     0.26356    -0.35537
0.087946    -0.38365    0.071502     0.65787      2.5485  -0.0093991    -0.51684
0.047495    -0.31853    0.056374     0.58947      2.3315    -0.25145     -0.6576
0.0057288    -0.23698    0.032038     0.48916      2.0641    -0.39549    -0.75165
-0.038668    -0.15805   0.0024402      0.3757      1.7987    -0.43824    -0.78947
-0.088985     -0.1051     -0.0265     0.26389      1.5501    -0.45765    -0.77467
-0.13864   -0.080763    -0.04689      0.1695      1.3146    -0.60827    -0.72205
-0.18403   -0.065635   -0.055769    0.099127       1.088     -1.0437    -0.64707
-0.2202    -0.04097   -0.054125    0.049139     0.86473     -1.8228     -0.5665
-0.24454   -0.002164   -0.045903    0.012964     0.63683     -2.7341    -0.48231
-0.25967    0.038287   -0.036366   -0.016305     0.41221     -3.1803     -0.3728
-0.26756    0.067556   -0.030118   -0.035708     0.22245     -2.4772    -0.19652
-0.26197    0.082026   -0.020581   -0.027158     0.10143    -0.46455    0.067885
-0.23862    0.087946  -0.0041372    0.014279    0.052757      2.1592     0.39873
-0.20244    0.090905    0.022172    0.082355    0.055388      4.3113     0.73022
-0.16002    0.098469    0.056703     0.16359    0.084657      4.9594     0.98345
-0.11924     0.12182    0.091892     0.24416     0.10899      4.9601      1.1071
-0.079777      0.1672     0.11721     0.31125     0.10834      3.7864      1.0884
-0.037682     0.23824     0.13399     0.36485    0.081039      2.0161     0.94695
0.0093464     0.32999      0.1432      0.4053    0.048153     0.33164     0.72661
0.05769     0.42767     0.14977     0.43128    0.044535     -0.8217     0.48588
0.10044     0.51613     0.15142     0.43589    0.088603     -1.2907     0.27935
0.13464     0.58815     0.14747     0.42076     0.17773     -1.1884     0.12971
0.15964     0.63913     0.13991     0.39182     0.29086    -0.73258    0.035327
0.17345      0.6684     0.13037       0.354     0.39675    -0.15772   -0.015648
0.17773      0.6776      0.1205     0.30796      0.4668      0.3665    -0.04393
0.17148     0.66412     0.11261     0.25205     0.47667     0.68024   -0.069911
0.15668     0.62531     0.10603     0.18463     0.40991     0.59868    -0.10773
0.13333     0.56415    0.098798     0.10965     0.26521    0.014608    -0.15673
0.10669     0.48719    0.087288    0.027105     0.05769    -0.98942    -0.20771
0.082684     0.40103    0.070845   -0.056427    -0.18732     -2.2046     -0.2452
0.067885     0.30039    0.052428    -0.12845    -0.44022     -3.4244    -0.24914
0.069529     0.18562    0.038616    -0.17383    -0.66779     -4.4024    -0.20869
0.090248    0.070516    0.034998    -0.18534    -0.83223     -4.6882    -0.11003
0.1284   -0.030775    0.045522    -0.15903    -0.90458     -3.7973    0.056046
0.17641    -0.10905    0.066898    -0.10477    -0.89471     -1.8636     0.26882
0.22245    -0.15805     0.09255   -0.037353    -0.84571     0.21193     0.47535
0.26257    -0.17383     0.11656    0.027105    -0.79967      1.3468     0.62071
0.29743    -0.16035     0.13826    0.076435    -0.76547      1.1959     0.69142
0.33164     -0.1222     0.15832     0.10932    -0.72863     0.17641     0.71279
0.36354   -0.072542     0.17608     0.13037    -0.67404    -0.90227      0.7197
0.38097   -0.024856     0.18365     0.14024    -0.59347     -1.3035     0.73253
0.37899    0.010333     0.17937     0.13432    -0.49218    -0.66746     0.75127
0.35466    0.030065     0.16063     0.10603    -0.38529     0.82264     0.75884
0.30237    0.041575     0.12708    0.057361    -0.29847       2.493     0.72858
0.22475    0.056046    0.085972   -0.004466    -0.25506      3.6792     0.64143
0.13695    0.079724     0.04618   -0.073199     -0.2669      4.0067     0.49673
0.058019     0.11426     0.01132    -0.14621    -0.33136      3.4799     0.31158
-0.0038083     0.15602   -0.019265     -0.2202    -0.44153      2.4104     0.10801
-0.051494     0.18957   -0.044588    -0.29025    -0.57768      1.2278   -0.083065
-0.089643      0.1991    -0.06432    -0.35175    -0.71252     0.28395    -0.23073
-0.12187     0.18102    -0.07879    -0.39812     -0.8148    -0.25802    -0.32182
-0.14555     0.14714   -0.089314    -0.42706    -0.86248    -0.37411    -0.35405
-0.15706     0.11557   -0.097207    -0.44482    -0.85722    -0.11858    -0.33728
-0.15903    0.096496     -0.1051    -0.45666    -0.81249     0.34611    -0.28795
-0.15706    0.091892    -0.11628    -0.46751    -0.75428     0.76903    -0.23106
-0.15443    0.089919    -0.13174    -0.47672    -0.70791     0.94695    -0.19356
-0.14983    0.079395    -0.14687    -0.48363    -0.68687     0.81343    -0.19225
-0.1416    0.049139    -0.15607    -0.47968    -0.67733      0.4132    -0.22612
-0.13305   -0.011701    -0.15509    -0.45666    -0.64247    -0.10346    -0.27644
-0.12352    -0.10115    -0.14555    -0.41752     -0.5471    -0.53164    -0.31821
-0.11661    -0.20573    -0.12944     -0.3705    -0.38398    -0.72534    -0.33958
-0.11398    -0.31097    -0.11431    -0.33366    -0.18633    -0.72633    -0.34287
-0.11924    -0.39878    -0.10181     -0.3136   -0.019594    -0.72666    -0.34353
-0.13108    -0.45765   -0.095233     -0.3136     0.05769    -0.89109    -0.36129
-0.14917    -0.48198   -0.095891    -0.32774    0.015924     -1.2275    -0.40338
-0.17153    -0.48527    -0.10115    -0.34945    -0.12944     -1.6393    -0.45403
-0.18929    -0.48001    -0.10674    -0.36589    -0.32774     -1.9267    -0.49119
-0.20212    -0.47968    -0.10773    -0.36655    -0.51388     -1.8586     -0.4981
-0.20771    -0.49251    -0.10247    -0.34123    -0.63129     -1.4449    -0.47606
-0.20179    -0.51881   -0.091945    -0.28762    -0.66121     -1.0256    -0.43758
-0.1837    -0.54907   -0.081421    -0.21198    -0.62208     -1.0124    -0.38891
-0.16265    -0.57209   -0.070568    -0.12812    -0.55894     -1.5534    -0.33465
-0.14752    -0.58163   -0.063662   -0.053467    -0.52079     -2.4374    -0.27874
-0.14259    -0.57604   -0.065307  -0.0057815    -0.54348     -3.2803    -0.22711
-0.14719    -0.55729   -0.077803    0.002769    -0.63523     -3.7809    -0.18567
-0.16068    -0.53033   -0.097864   -0.029789      -0.775      -3.798    -0.15903
-0.17745    -0.49711    -0.12253   -0.088327    -0.91444     -3.2747    -0.15015
-0.18995    -0.45469    -0.14226    -0.14851     -0.9766     -2.1418    -0.14884
-0.18436    -0.39779    -0.15114    -0.18008    -0.87662    -0.39417    -0.13207
-0.15311    -0.33037    -0.13832    -0.15903    -0.57735      1.6705   -0.086683
-0.097864    -0.25967    -0.10346   -0.088656    -0.13009      3.5233   -0.025514
-0.031104    -0.19225   -0.060045   0.0057288      0.3415      4.7805    0.029736
0.027434    -0.13437   -0.024856    0.087288      0.7151      4.9598    0.067227
0.060321   -0.096549  -0.0087413     0.13201     0.92919      4.9594    0.082026
0.062623   -0.082408   -0.011372     0.13399      1.0025         4.4    0.073804
0.04322   -0.087669   -0.024527     0.10834      1.0104      3.4749    0.051441
0.020528    -0.10247   -0.040641    0.087946      1.0469      2.5028    0.023817
0.010004    -0.11266    -0.04985     0.10077       1.188      1.6014  -0.0015062
0.015924    -0.10872   -0.043272     0.15043      1.4537     0.83283   -0.012688
0.034011   -0.084052   -0.021238     0.22508      1.8161     0.29842      0.0054
0.058676   -0.040313    0.010662     0.30993      2.2026     0.12774     0.06065
0.085644    0.015595    0.039602      0.3905      2.5225     0.31552      0.1455
0.11294    0.068214    0.060979     0.45562      2.7153     0.67629     0.24514
0.13695     0.11064    0.074133     0.50298      2.7692     0.96668     0.34282
0.15471      0.1432    0.085315     0.54178      2.7163      1.0542     0.41583
0.16457      0.1774    0.095839     0.57401      2.6035     0.97655     0.44444
0.1672     0.21588     0.10439     0.59473      2.4472     0.83711     0.42306
0.16424     0.25764     0.10702     0.59802       2.223     0.66313     0.35827
0.15536     0.29053     0.10011     0.57303      1.8941     0.38985     0.25896
0.14122     0.30796     0.08663     0.51646       1.457   -0.015648     0.13859
0.12281     0.31256     0.07216     0.44016     0.96076    -0.49086    0.022501
0.10636      0.3073    0.064596     0.36946     0.49081    -0.88024   -0.052481
0.097812     0.30434    0.066569     0.32736     0.11754     -1.0118   -0.060702
0.097812     0.30204    0.080053     0.31914    -0.13996    -0.84439   -0.007097
0.10242     0.29776     0.10011     0.32901    -0.30538    -0.54414    0.083999
0.10472     0.27704     0.11721      0.3346    -0.40075    -0.34451     0.17773
0.10439     0.22377     0.12642     0.32243    -0.42969    -0.37148     0.24482
0.10505     0.13497     0.12642      0.2925    -0.37905    -0.56223     0.28099
0.10932    0.036642     0.12379     0.25534    -0.24191    -0.71679     0.29415
0.11754   -0.037353     0.12346     0.22212   -0.051823    -0.66286     0.29546
0.13037   -0.065964     0.12807     0.19253     0.11491     -0.3774     0.28855
0.14352   -0.048863     0.13432     0.15503      0.1649 -0.00051963     0.27047
0.14879  -0.0084125     0.13399    0.099785    0.027105      0.2583     0.23133
0.13892     0.03434     0.12379     0.02579    -0.30702      0.2287     0.16063
0.11327    0.068543     0.10406    -0.06432    -0.77106    -0.14292    0.058019
0.076106    0.097154    0.076435    -0.16068     -1.2551    -0.76875   -0.062018
0.032367     0.12215    0.044535    -0.25112     -1.6504     -1.4515    -0.17318
-0.013345      0.1478    0.012306    -0.33037     -1.8774     -1.9974     -0.2521
-0.055769     0.17477    -0.01795    -0.39286     -1.9188     -2.3503    -0.28269
-0.087012     0.20601   -0.040313    -0.42936      -1.805     -2.6186    -0.26493
-0.099838     0.24021   -0.053467    -0.43758      -1.585     -2.8604    -0.21659
-0.095233     0.27178   -0.053467     -0.4116      -1.287      -2.883    -0.15509
-0.076488     0.29776   -0.042615    -0.34583    -0.92332     -2.4493   -0.098193
-0.053467     0.31289   -0.024198    -0.24224    -0.52243     -1.5949   -0.059058
-0.032749     0.31388  -0.0038083    -0.11891    -0.14555    -0.60235   -0.038668
-0.020581     0.30302    0.015595  -0.0061104     0.14287     0.18496   -0.033406
-0.01795     0.28527    0.031052      0.0692     0.30796     0.49607   -0.048534
-0.019594     0.27047    0.037958    0.095181     0.35334     0.25041   -0.090958
-0.020581     0.26356    0.034669    0.080711     0.32144    -0.43495    -0.15509
-0.020909     0.26356    0.023488    0.046508     0.27112     -1.3078    -0.22842
-0.020909     0.26553   0.0067154    0.010991     0.26422     -2.1171    -0.28499
-0.018936     0.26685   -0.011701  -0.0064392     0.34742     -2.6384     -0.2988
-0.014661     0.26784   -0.021238   0.0073732     0.53225     -2.6887    -0.24322
-0.0015062     0.27573   -0.014003    0.061307     0.80192     -2.1181    -0.11102
0.024474     0.29382    0.012306     0.15306      1.1078    -0.88419     0.08959
0.064267     0.31684    0.052428     0.26586      1.3797     0.92787     0.32605
0.11228     0.33821    0.093536     0.36946      1.5376      2.9478     0.54869
0.15964     0.34578     0.12248     0.43655      1.5159      4.5868     0.70885
0.1922     0.33657     0.13234     0.45299      1.2946      4.9601     0.77791
0.20305     0.31519     0.12971     0.42175     0.90255      4.7026     0.76081
0.18825     0.28461     0.12083     0.35893     0.41912      3.6361     0.67695
0.15175     0.24745     0.10932     0.27343   -0.076488      2.8577     0.54376
0.1057     0.20601    0.090905      0.1672    -0.52934      2.5699     0.37505
0.060321      0.1626    0.060979    0.041575    -0.93582      2.3423     0.18957
0.018555     0.10636    0.018884   -0.095891     -1.3097      1.6846    0.002769
-0.018607    0.035327   -0.026829    -0.22579     -1.6501     0.43227    -0.16035
-0.052481   -0.048205   -0.066951     -0.3284     -1.9359     -1.2108    -0.28269
-0.077146    -0.13601     -0.0903    -0.38266     -2.1289     -2.7771    -0.36129
-0.082079    -0.21691   -0.092931    -0.37477     -2.1727     -3.9048    -0.39615
-0.063662    -0.28039   -0.077146    -0.30933     -2.0244     -4.3899    -0.39121
-0.027487     -0.3136   -0.050179    -0.21001      -1.681     -4.1906    -0.34978
0.01132    -0.31426   -0.022554    -0.10773     -1.2019     -3.4415    -0.28335
0.038287      -0.284  -0.0067681    -0.03538    -0.69542     -2.3546    -0.21494
0.042562    -0.22612  -0.0051238  -0.0061104    -0.26427     -1.1236     -0.1643
0.027763    -0.15311    -0.01499  -0.0064392    0.050126     0.11557    -0.14259
0.0057288   -0.073199   -0.027158  -0.0008485      0.3027      1.2633    -0.14226
-0.0064392    0.002769   -0.034393    0.041904     0.60164       2.268    -0.14062
-0.0024928    0.065254   -0.029789     0.13366      1.0357      3.1342    -0.11431
0.01691     0.11031  -0.0084125     0.26882      1.6356      3.8864   -0.056098
0.051441     0.14254    0.028421     0.42799       2.368       4.548    0.041575
0.099127     0.16819    0.075778     0.58486      3.1369      4.9594     0.18496
0.14944     0.19384     0.12182     0.71542      3.7966      4.9598     0.36913
0.19549     0.21883     0.15142     0.79961      4.1912      4.9601      0.5773
0.22607     0.23692     0.15997     0.82757      4.2096      4.9601     0.76837
0.23561     0.24383     0.15339     0.79665      3.8272      4.9598     0.88019
0.21851     0.23988      0.1376     0.70852      3.1125      4.9598     0.86703
0.17312     0.22739     0.11524     0.57368      2.1943      4.9594     0.71937
0.10932     0.20173    0.088932     0.41089      1.2143      2.3565     0.47831
0.040918     0.16063    0.063281     0.24251     0.30401     -0.4435      0.2264
-0.016634    0.098141    0.038616    0.093865    -0.43232     -2.5673    0.051441
-0.053796    0.014937    0.017897   -0.019265     -0.9516     -3.7411   0.0030979
-0.074186   -0.077475  -0.0008485   -0.097207     -1.2874     -4.1831      0.0692
-0.088656    -0.16791   -0.016963    -0.15706     -1.5163     -4.2367     0.19516
-0.10609    -0.24322   -0.031104    -0.22185     -1.7172     -4.1173     0.31454
-0.12746    -0.29782   -0.045574    -0.30374       -1.93     -3.8272     0.38491
-0.14719     -0.3284   -0.063004    -0.39582      -2.151     -3.2004     0.38985
-0.16364    -0.34649   -0.082079    -0.48067     -2.3529     -2.1599     0.33525
-0.17778    -0.36523    -0.10115    -0.54743     -2.5052    -0.96311      0.2412
-0.19389    -0.38957     -0.1199    -0.58952      -2.589    -0.10937     0.12873
-0.21067     -0.4116    -0.13766    -0.60958     -2.5989    0.017897    0.017568
-0.22382    -0.41983    -0.15213    -0.60827     -2.5361     -0.5619   -0.086354
-0.2281    -0.40766    -0.16166    -0.59281     -2.4045     -1.4729    -0.18501
-0.22316    -0.37576    -0.16693    -0.57176     -2.2168     -2.2671    -0.27611
-0.20902    -0.32972    -0.16627    -0.54776     -1.9839     -2.6666    -0.35504
-0.18633    -0.27973     -0.1564    -0.51783     -1.7106     -2.6305    -0.41522
-0.15969    -0.23533      -0.137    -0.47113     -1.3808     -2.2779    -0.45337
-0.12944    -0.20113    -0.10707    -0.39516    -0.96903     -1.7754    -0.46324
-0.097864    -0.17778    -0.07024    -0.29058    -0.48363     -1.2673    -0.44482
-0.069582    -0.16199   -0.038997    -0.17942  -0.0051238    -0.86774    -0.40963
-0.048205    -0.15114   -0.021896   -0.099838     0.33098    -0.63195    -0.38398
-0.039326    -0.14621   -0.023211   -0.076159     0.41977     -0.5642    -0.38431
-0.048863    -0.14818   -0.040313    -0.11431     0.24843    -0.61978    -0.41555
-0.074515    -0.15443   -0.065635    -0.19455   -0.098193    -0.73192    -0.46291
-0.10937     -0.1541   -0.092603    -0.28104    -0.46981    -0.83519    -0.50928
-0.13503    -0.13667    -0.11727    -0.34221    -0.72469    -0.88517    -0.54447
-0.13963   -0.097207    -0.13305    -0.36194    -0.79276    -0.87662    -0.56321
-0.12023   -0.039326     -0.1347    -0.34024    -0.68983     -0.8342     -0.5642
-0.087341    0.021186    -0.12253    -0.28959     -0.4833    -0.80657    -0.55269
-0.053796    0.069529    -0.10576     -0.2281    -0.24816    -0.84637    -0.53394
-0.030775     0.10209   -0.088985    -0.16824   -0.038339    -0.99797    -0.51224
-0.018278     0.12182   -0.077146    -0.12516     0.11162     -1.3114    -0.48922
-0.011043     0.13497   -0.070568     -0.1028     0.19713     -1.8136    -0.46093
0.00079584     0.14714   -0.063662     -0.0903     0.23561     -2.4315    -0.42443
0.021843     0.16227   -0.048534   -0.066293     0.25961      -2.909    -0.37576
0.047824     0.18397   -0.024198   -0.020252     0.30138     -2.8544    -0.30604
0.074133     0.20634   0.0096753    0.043877     0.36847     -2.1296    -0.21593
0.096496     0.21851    0.046508     0.11064      0.4372     -1.0881    -0.12154
0.10998     0.20831    0.077093     0.16391     0.47469    -0.27085   -0.039326
0.11754     0.17707    0.099127     0.19351     0.47798     0.12412    0.031709
0.12577     0.13366      0.1113       0.207     0.46647     0.33657      0.1011
0.13991    0.087617     0.11458     0.21489     0.44806     0.53159     0.18003
0.15865     0.04618     0.11195      0.2264     0.40695     0.51416     0.24909
0.1695   0.0086887     0.10669     0.23594     0.32802   -0.055112     0.27606
0.15635   -0.021238    0.099785     0.23331     0.21094     -1.2568     0.23594
0.11162   -0.042944    0.084328     0.21324    0.080053     -2.6699     0.12609
0.043549   -0.052152    0.055388     0.17641   -0.020252     -3.5516   -0.016305
-0.024527   -0.045246    0.018884     0.12675   -0.060373     -3.3254     -0.1416
-0.068595   -0.022225   -0.018278    0.064925   -0.063991     -2.0083    -0.21955
-0.091945   0.0060577   -0.051494   -0.015976    -0.11628     -0.2475    -0.26098
-0.10872    0.023159   -0.083723    -0.12352    -0.31393      1.0403    -0.30735
-0.1347    0.012306    -0.12187    -0.26394    -0.70035      1.2857    -0.39352
-0.17548   -0.030118    -0.16495    -0.42871     -1.2328     0.53389    -0.52441
-0.22349    -0.10115    -0.20639    -0.59774     -1.8155    -0.74672    -0.67371
-0.27315    -0.18501    -0.23994    -0.74705     -2.3371     -1.9573    -0.80131
-0.31722    -0.26361    -0.26131    -0.85689     -2.7055     -2.6351    -0.86117
-0.34353    -0.31788    -0.27085     -0.9151     -2.8544     -2.4674    -0.80986
-0.34123    -0.33564    -0.26953    -0.91938     -2.7614     -1.4031    -0.62504
-0.3067    -0.31952    -0.26032    -0.87432     -2.4407     0.27836    -0.32347
-0.24553    -0.27677    -0.24257    -0.78586     -1.9474      2.1039    0.046837
-0.17285    -0.21889    -0.21297    -0.66121     -1.3548      3.7956     0.42964
-0.10181    -0.15575    -0.17285    -0.50566    -0.72501      4.9598     0.78186
-0.036366   -0.096878     -0.1199    -0.31064   -0.076159      4.9598       1.065
0.024145   -0.050836   -0.050507   -0.068924     0.60986      4.9601      1.2587
0.087288   -0.018278    0.035327     0.21653      1.3508      4.9601      1.3626
0.15109   0.0057288     0.13267     0.52698      2.1259      4.9601      1.3935
0.21324    0.021186     0.23035     0.83086      2.8692      4.9601      1.3702
0.26455    0.026447     0.31717      1.0976      3.5068      4.9598      1.3146
0.3073    0.023488      0.3882       1.311      3.9903      4.8098      1.2607
0.34282    0.021186     0.44148      1.4662      4.3037      4.6092      1.2344
0.36979    0.028092     0.47568      1.5685      4.4474      4.4132      1.2364
0.38623    0.042562     0.49015      1.6208        4.43      4.0853      1.2347
0.39313    0.056374     0.48719      1.6224       4.256      3.5815      1.1821
0.38557    0.062294     0.46943      1.5744      3.9377      2.9708      1.0522
0.36617    0.061965      0.4372      1.4708      3.4907      2.4094     0.86276
0.33558    0.061307     0.39149      1.3209      2.9458      2.0339     0.65952
0.29908    0.064925     0.33394      1.1472      2.3509      1.8546     0.49278
0.2606    0.075449     0.26882     0.96832      1.7599      1.6856     0.38491
0.22245    0.091563     0.20469     0.79337      1.2064      1.2715     0.31223
0.1843     0.10998      0.1455     0.62433     0.70589      0.5135     0.23791
0.14418     0.12577    0.091563      0.4622     0.26619    -0.45995     0.13333
0.1034     0.13629    0.043549     0.31223     -0.1005     -1.3916  -0.0067681
0.067556     0.13826   0.0021113     0.17937    -0.38858     -2.0846    -0.16561
0.035327     0.13662   -0.034722    0.064925    -0.60662     -2.4664    -0.31722
0.0080309     0.13826    -0.06728   -0.031104    -0.78026     -2.5677     -0.4412
-0.013345     0.15109   -0.094247    -0.11562    -0.94404     -2.4752     -0.5221
-0.029131     0.17279    -0.11398     -0.1985     -1.1243        -2.3    -0.56716
-0.042944      0.1968    -0.13042    -0.28696     -1.3318      -2.152    -0.59314
-0.058071     0.21949    -0.14456    -0.37674      -1.562     -2.0987    -0.62307
-0.079119     0.23659    -0.15739    -0.46291     -1.7909     -2.1378    -0.66615
-0.10609     0.24284    -0.17087    -0.54019     -1.9754     -2.2148    -0.71942
-0.13536     0.23528    -0.18304    -0.59774     -2.0806     -2.2799    -0.77599
-0.16331     0.21292    -0.19093     -0.6303     -2.0931     -2.2924    -0.82302
-0.18469     0.17641    -0.19784    -0.63425     -2.0244     -2.2207    -0.84374
-0.19159     0.12741    -0.20244    -0.61912     -1.9218     -2.1013    -0.83354
-0.18732    0.071502     -0.2054    -0.60794     -1.8511     -2.0579    -0.80953
-0.1814    0.015595     -0.2054    -0.61912     -1.8616     -2.1553    -0.80098
-0.18173   -0.034722    -0.20212    -0.65431      -1.951     -2.2503    -0.81907
-0.18501   -0.074515    -0.19455    -0.69772     -2.0701     -2.1211    -0.85294
-0.18534   -0.099509    -0.18205    -0.72469     -2.1382     -1.7267    -0.87037
-0.17416    -0.11431    -0.16035    -0.71811     -2.0934     -1.2443    -0.84012
-0.15048    -0.12911     -0.1268    -0.67832     -1.9152    -0.94536    -0.75001
-0.12121    -0.15213    -0.08471    -0.60794     -1.6146     -1.0108    -0.61287
-0.10017    -0.18896   -0.046232    -0.51914     -1.2219     -1.4354    -0.45436
-0.091945    -0.25046   -0.020909    -0.43199        -0.8     -2.0655    -0.30867
-0.099509    -0.35076   -0.014003    -0.36458     -0.4218     -2.7041    -0.20113
-0.12089    -0.48955   -0.019923    -0.32149    -0.12319     -3.2037    -0.14193
-0.14719    -0.63852   -0.030775    -0.28335     0.12445     -3.4964    -0.11661
-0.16791    -0.74869    -0.03242    -0.22349     0.40892      -3.547   -0.093589
-0.16791    -0.77928   -0.019594    -0.12056     0.82987     -3.2685   -0.021238
-0.13864     -0.7112    0.010991    0.030065      1.4337     -2.4526     0.13234
-0.079777    -0.55466    0.057032     0.21259       2.168     -0.9276     0.37011
0.0011247    -0.34451     0.11064     0.39708      2.8761      1.0949     0.65393
0.090905    -0.12121      0.1626     0.55132      3.3575      2.9721     0.93149
0.17378     0.08663     0.20502     0.64768      3.4631      4.1587      1.1453
0.23495     0.26356     0.22903      0.6707      3.1635      4.3626      1.2446
0.26389     0.40333     0.23133     0.62137      2.5623      3.6539      1.2091
0.26093     0.50791     0.21259     0.52106      1.8484      2.4111      1.0581
0.23133      0.5819     0.17904     0.40596      1.2114      1.0963     0.83842
0.18792     0.63222     0.14024     0.31026      0.7858    0.080053      0.6092
0.14418     0.66379     0.11031     0.25238     0.62301    -0.45337     0.41583
0.10866     0.68352    0.096167     0.23824     0.68648    -0.52967     0.27672
0.089261     0.69767    0.095181     0.25698     0.89038    -0.29617     0.18628
0.090577     0.70359    0.099456     0.28066       1.114    0.058676     0.12478
0.10373     0.69471    0.098798     0.28165      1.2367     0.35203    0.074133
0.11327     0.66083    0.088603      0.2481       1.186     0.47272    0.024803
0.10932     0.58158    0.068214     0.18496     0.96339     0.41813   -0.027487
0.098141     0.44871    0.040918     0.10472     0.63452     0.29086   -0.073528
0.08959     0.27507    0.011977    0.022501     0.28987     0.24482    -0.10313
0.08959    0.099127    -0.01499   -0.046561 -0.00019077     0.34249    -0.11299
0.10077   -0.036695   -0.036366   -0.095891    -0.21889     0.49508    -0.11431
0.12215    -0.10543   -0.048863    -0.12845    -0.39089     0.54737    -0.11201
0.15273   -0.099509   -0.053796    -0.15015    -0.55795     0.40563    -0.10707
0.18792   -0.032749   -0.056756    -0.17087    -0.74968     0.10176    -0.09918
0.22179    0.074791    -0.06432    -0.19587    -0.96903    -0.25572   -0.091945
0.2481     0.19713   -0.077475    -0.23204      -1.196    -0.58196   -0.094247
0.25961     0.31125   -0.093918    -0.27414     -1.3995     -0.8707    -0.10707
0.25797      0.4007    -0.11233    -0.30998     -1.5403      -1.171     -0.1222
0.24153     0.45891    -0.12582    -0.32873      -1.588     -1.5521     -0.1347
0.20732     0.47634     -0.1268    -0.31919     -1.5311     -2.0438    -0.14062
0.15372     0.44641    -0.11398    -0.28071     -1.3844      -2.591    -0.14062
0.086959     0.36452   -0.089972    -0.21494     -1.1887     -2.9745    -0.12483
0.020528     0.23955   -0.066951    -0.13832    -0.99962     -2.8258    -0.08471
-0.032091    0.098798   -0.047548   -0.068595    -0.86544     -1.9438   -0.025514
-0.065635   -0.023211   -0.032091   -0.018278    -0.80098    -0.55137    0.037958
-0.086354     -0.1051   -0.019594   0.0096753    -0.78224     0.80455     0.09551
-0.10411    -0.14259  -0.0087413    0.020528    -0.76777      1.6422     0.13695
-0.12878    -0.15048  0.00046697    0.019212    -0.72008      1.8566     0.15536
-0.15969    -0.14259   0.0096753    0.013622    -0.62372      1.6366     0.14879
-0.18666     -0.1176    0.018226   0.0063866    -0.48099      1.3094     0.11754
-0.19981   -0.078132    0.024474   0.0044134     -0.3067      1.1482     0.06624
-0.19356   -0.021896     0.02579     0.01132    -0.11464      1.2758   0.0011247
-0.17548     0.04618    0.025461    0.028421    0.090905      1.6501   -0.061689
-0.15509     0.11886    0.024145    0.054072     0.29842      2.1105    -0.10905
-0.13536     0.17871    0.024474    0.083013     0.48423       2.466      -0.137
-0.12417     0.20963    0.029078     0.11195     0.61644      2.6008    -0.14522
-0.12286     0.20502    0.039273     0.14089     0.67465      2.4992    -0.14292
-0.13272     0.16983    0.055059     0.16457      0.6559      2.2253    -0.14029
-0.14654     0.11623    0.073804     0.17641     0.57204      1.8727    -0.14456
-0.16232    0.051113    0.089261     0.17148     0.43819      1.4968    -0.15936
-0.17811   -0.020909     0.09551     0.14944     0.27277      1.1041    -0.18403
-0.1883   -0.091945    0.090577     0.11656    0.094852     0.70391    -0.20343
-0.18797    -0.14917    0.076435    0.077093   -0.077475     0.35696    -0.20376
-0.17909    -0.18304    0.054401    0.036642    -0.23994     0.14352    -0.18008
-0.16298    -0.18929    0.032038  -0.0018351     -0.3922     0.09551    -0.13667
-0.1393    -0.16923    0.013622   -0.031433    -0.53361     0.17246     -0.0903
-0.11858    -0.13272 -0.00019077   -0.054125    -0.65793     0.29711   -0.058729
-0.1051    -0.09326    -0.01499   -0.075173    -0.75428     0.39478   -0.049521
-0.097207    -0.06136   -0.033078     -0.1051    -0.82269     0.42701   -0.059387
-0.085367   -0.042286   -0.051165    -0.14621    -0.86215     0.37735   -0.077475
-0.060045   -0.038339   -0.069911    -0.19159    -0.87235     0.23561   -0.098193
-0.024198   -0.048863   -0.090629    -0.23171    -0.85689   0.0040845    -0.12187
0.014279   -0.080106     -0.1074    -0.25342    -0.81611    -0.27743    -0.14917
0.051441    -0.13667    -0.11299    -0.24388    -0.75264    -0.55104    -0.17383
0.08367    -0.20771    -0.10609     -0.2054    -0.68489    -0.77467    -0.18962
0.10899    -0.27315   -0.093589    -0.15246    -0.63063    -0.92793    -0.18896
0.13004    -0.31426   -0.082079    -0.10214    -0.59807     -1.0138    -0.16627
0.14616    -0.33169   -0.074186   -0.068924    -0.59445     -1.0539    -0.13042
0.15569      -0.333   -0.068266   -0.056098    -0.61747     -1.0937   -0.094905
0.15734    -0.32544   -0.060045   -0.053796    -0.65365     -1.1983   -0.066951
0.15273    -0.31261   -0.045903   -0.045574    -0.66779      -1.466   -0.056427
0.14122    -0.29617   -0.029789   -0.022554    -0.61452     -2.0056   -0.075173
0.12281    -0.27775   -0.013674    0.021186    -0.47902     -2.8521    -0.12911
0.099785    -0.25605   0.0040845    0.075449    -0.28499     -3.8706    -0.20508
0.073147     -0.2304    0.019212     0.13267   -0.076488     -4.7408    -0.26986
0.048482    -0.20836    0.032696     0.18003     0.10998     -4.9671    -0.29782
0.02579    -0.19422    0.044206     0.20864     0.26389     -4.8161    -0.28532
0.0044134    -0.19554     0.05473     0.21357      0.3859     -3.9124    -0.25079
-0.016634    -0.21165    0.067227     0.19647     0.48686     -2.6676    -0.21922
-0.036366    -0.23533    0.074791     0.16457     0.57894     -1.3877     -0.2031
-0.055112    -0.24947    0.072489     0.12774     0.68287    -0.24355    -0.19916
-0.074186    -0.23829    0.059005    0.099127      0.8325     0.84368     -0.1883
-0.088656    -0.19225    0.038944    0.089919      1.0591       2.075    -0.13042
-0.090629    -0.11727    0.020528     0.10866      1.3574      3.5871    0.013293
-0.070568   -0.030775    0.012964     0.15372      1.6737      4.9594     0.26751
-0.021567    0.054072    0.020857     0.21489       1.923      4.9601     0.62071
0.046508     0.13004    0.040589     0.27408       2.025      4.9598       1.017
0.11228     0.19285    0.062952     0.30862      1.9428      4.9598      1.3764
0.15372     0.23725    0.075449     0.30894      1.6872      4.9601      1.6261
0.16753     0.26685    0.073476     0.27507      1.3057      4.9601      1.7116
0.16194     0.28198    0.059005     0.20897     0.85059      4.9594      1.6224
0.14912     0.28757    0.040918      0.1205      0.3711      4.9598      1.3945
0.13596     0.28724    0.028092    0.021514   -0.071555      3.0704      1.0946
0.12544     0.28527    0.023159   -0.067609    -0.41785      1.3761     0.79337
0.11228     0.27836    0.023159     -0.1324    -0.63852     0.12445     0.53553
0.096167     0.25764     0.02579    -0.17153    -0.74409     -0.6474     0.33723
0.075778     0.21489    0.027434    -0.19455    -0.77533     -1.0536     0.18989
0.052757     0.14714    0.027763    -0.21231    -0.77698     -1.2604    0.079724
0.02875     0.05473    0.021843     -0.2327    -0.78092     -1.3936  -0.0028217
0.0017824    -0.04689   0.0070443    -0.25835     -0.7921     -1.5113   -0.071555
-0.03242    -0.14785   -0.018936    -0.28532    -0.79079     -1.6222    -0.13305
-0.07583    -0.23369   -0.050179    -0.30834    -0.74409     -1.7027      -0.186
-0.11957    -0.29617   -0.076159    -0.31196    -0.62372     -1.7202    -0.22579
-0.15213     -0.3284   -0.092274    -0.28104    -0.41095     -1.6452    -0.24421
-0.16101      -0.333    -0.09622    -0.21099    -0.10378     -1.4663    -0.23632
-0.14555     -0.3136   -0.086354    -0.11036     0.26619     -1.2361    -0.20968
-0.11628    -0.27775   -0.066951  0.00046697     0.63091     -1.0427    -0.18238
-0.083723    -0.23467   -0.044588     0.10176      0.9065    -0.95358     -0.1735
-0.059716    -0.19718   -0.025514     0.17444      1.0305     -1.0072    -0.19981
-0.050179    -0.17416   -0.014003     0.20404     0.97687     -1.1946    -0.26263
-0.056098    -0.16693   -0.011701     0.18726     0.77067     -1.4765    -0.35307
-0.075173    -0.17712   -0.017621     0.14024     0.48555     -1.8086    -0.45173
-0.098193    -0.20047   -0.022883    0.087288     0.20634     -2.1835    -0.53592
-0.1176    -0.22251   -0.024856    0.052757  -0.0028217     -2.6157    -0.59478
-0.1245    -0.23237   -0.024856    0.043549    -0.11233     -3.1165    -0.62274
-0.1199    -0.22645    -0.02354    0.056374    -0.12023     -3.6865    -0.62504
-0.10641    -0.21001   -0.019923    0.086959   -0.050507     -4.2396    -0.60432
-0.090958    -0.18501   -0.011372     0.12905    0.088932     -4.5257    -0.54776
-0.073857    -0.15246   0.0014536     0.17411      0.3096     -4.2252    -0.44613
-0.057085    -0.11793    0.014608     0.21489     0.60098     -3.1152    -0.29946
-0.040641   -0.091945    0.025461     0.24613     0.90419     -1.2229    -0.12878
-0.021238   -0.080434    0.032038     0.26521      1.1242     0.99858    0.030065
0.0024402   -0.083723    0.033025     0.26784      1.1959      2.7939     0.14714
0.030065     -0.0903    0.030065     0.25896      1.1242       3.717     0.22015
0.061307   -0.090958    0.029736     0.25567     0.96734      3.6404     0.26389
0.094852   -0.077475    0.042233     0.26751       0.796      2.7343     0.29053
0.12807   -0.052481    0.073476     0.30105     0.65162      1.3702     0.30566
0.15734   -0.022225     0.11491     0.33986     0.54507   -0.038011     0.30237
0.16983   0.0017824     0.14681      0.3586     0.45562     -1.1371     0.26685
0.16391    0.013293     0.15471     0.33821       0.354     -1.7313     0.19318
0.13695    0.015595     0.13464     0.27474     0.21883     -1.7797     0.08959
0.097812   0.0083598    0.095839       0.182    0.037958     -1.4156   -0.031104
0.053086  -0.0028217    0.048482    0.076764    -0.19192    -0.93187    -0.15969
0.0080309    -0.01499  0.00046697   -0.023869    -0.45534    -0.62964    -0.29518
-0.034393   -0.018278   -0.039984    -0.10937    -0.71811    -0.68884    -0.44219
-0.070897   -0.011043    -0.07024    -0.17877    -0.93582     -1.1134    -0.59939
-0.1028   0.0014536   -0.087669    -0.23336     -1.0779     -1.7386     -0.7431
-0.12812     0.01132   -0.096549    -0.26888     -1.1361     -2.3095     -0.8388
-0.14752    0.017239    -0.10378    -0.28039     -1.1121     -2.6005    -0.86643
-0.15607    0.018226    -0.11201     -0.2669     -1.0121     -2.4937    -0.82696
-0.1495    0.018555    -0.11957     -0.2373    -0.84571     -2.0921    -0.74047
-0.13108    0.019541    -0.12187    -0.20376    -0.64148      -1.656     -0.6326
-0.10905    0.021514    -0.11497    -0.18074     -0.4435      -1.293    -0.52079
-0.092274    0.027434    -0.10214    -0.16989    -0.28137    -0.79177    -0.40568
-0.082736    0.038944   -0.085367    -0.16364    -0.16232     0.20667    -0.26855
-0.073857    0.056046   -0.067937    -0.15147   -0.076817      1.8632   -0.084052
-0.054125    0.078737   -0.047548    -0.12417   -0.016963      3.8959      0.1626
-0.01203     0.10965   -0.021896   -0.081092    0.024145      4.9598     0.46154
0.046508      0.1524     0.01132   -0.023869    0.033354      4.9594     0.77199
0.1113     0.20108    0.045522    0.034669    -0.01499      4.9598      1.0315
0.16983      0.2481     0.07216    0.079395    -0.14818      3.6285       1.185
0.21226     0.28592     0.08663    0.096167    -0.36918      1.2202      1.2087
0.23429     0.31059    0.090905     0.08367    -0.65529    -0.82696       1.116
0.23659      0.3221    0.092221    0.047495    -0.96048     -1.8978     0.94662
0.22541     0.31848    0.091892  -0.0024928     -1.2334     -1.9655     0.74634
0.20404     0.30072    0.086959   -0.057414     -1.4252     -1.3532     0.55198
0.17411     0.27277    0.075778    -0.11365     -1.5002    -0.52243     0.38721
0.14188     0.23758    0.056703    -0.16561      -1.438     0.14977     0.25929
0.11064     0.20502    0.030723    -0.20014     -1.2259     0.47338     0.16326
0.083013     0.17937   0.0080309     -0.1985    -0.86018     0.45266    0.091234
0.059334     0.16227  -0.0028217    -0.14851    -0.36129     0.20338    0.038287
0.040918     0.15471  0.00046697   -0.056098      0.2162    -0.14259   0.0030979
0.028421     0.15964    0.015266    0.061307     0.78087    -0.49645   -0.017621
0.021186     0.17838    0.034998     0.17904      1.2511    -0.79441   -0.023211
0.024474     0.20601    0.056703     0.26981      1.5567    -0.95193   -0.016634
0.038287     0.23955    0.072489     0.31322      1.6593    -0.88123  -0.0028217
0.049797     0.27441    0.071173     0.30204      1.5524    -0.53296   0.0083598
0.049468     0.30566    0.051441      0.2412        1.26    0.015924   0.0077021
0.035327     0.33131    0.015266     0.14517     0.83776     0.56743   -0.015976
0.016581     0.35203   -0.026171    0.035985     0.36617      0.9453    -0.06136
0.0040845     0.37373   -0.059058   -0.062018   -0.064978      1.0936    -0.11036
0.0054     0.39971   -0.074186    -0.13141    -0.38825      1.0729    -0.14423
0.019541     0.42569   -0.069582    -0.17186    -0.58327     0.98246    -0.15607
0.043877     0.44246   -0.056756    -0.19324    -0.67272     0.87197    -0.15015
0.070516     0.44542   -0.044588    -0.21132    -0.70232     0.72233    -0.13996
0.094194     0.43687   -0.045246    -0.23533    -0.71942     0.48522     -0.1393
0.10998     0.42372   -0.059058    -0.26263     -0.7533      0.1376    -0.15673
0.11557     0.40563   -0.079119    -0.27874    -0.79145    -0.29979    -0.19554
0.10801     0.37866   -0.094247     -0.2748    -0.79704    -0.78684     -0.2452
0.093536      0.3438   -0.092603    -0.24289    -0.72929     -1.2699    -0.28269
0.077422     0.30796   -0.069253    -0.18403    -0.55828     -1.6873    -0.28861
0.062952     0.26882   -0.028473   -0.098851    -0.26526     -1.9622    -0.25704
0.051441     0.21588    0.018226      0.0054     0.13563     -2.0254     -0.2031
0.036971     0.14155    0.066569     0.10735     0.57039     -1.8701    -0.14884
0.011648     0.04026     0.10472     0.18759     0.92393     -1.5646    -0.11497
-0.031762   -0.085039     0.12741     0.22541        1.09      -1.214    -0.11069
-0.092931    -0.22119     0.13103     0.21752      1.0196     -0.8684    -0.13009
-0.16134    -0.35076     0.11919     0.17016     0.74864    -0.49974    -0.15246
-0.21889    -0.45962    0.097154    0.096496      0.3882   -0.081092    -0.15607
-0.25112    -0.53493    0.071831    0.023159    0.069529     0.35367    -0.12746
-0.25342    -0.57341    0.047495   -0.028802     -0.1222     0.73022   -0.065635
-0.23467    -0.57637    0.026447   -0.057414    -0.17219     0.99167    0.017897
-0.20771      -0.554   0.0090175    -0.07024    -0.12976      1.1183     0.10143
-0.1837    -0.51026  -0.0051238   -0.073199   -0.055112      1.1051      0.1649
-0.16298    -0.44778   -0.013674   -0.065635    0.024803       0.943     0.19812
-0.13897    -0.37411    -0.01499   -0.045903     0.11754     0.62071     0.20206
-0.10839    -0.30045  -0.0077547   -0.013017     0.23265     0.18299     0.18365
-0.073857    -0.23402   0.0047422     0.03434     0.36091    -0.26065     0.15405
-0.036366    -0.17613    0.022172    0.099456      0.4691     -0.5984     0.12412
0.00046697    -0.12648    0.038944     0.17345     0.52501    -0.77698     0.10834
0.037958   -0.082079     0.05177     0.24284     0.51482    -0.81545     0.10834
0.075449   -0.041628    0.059663     0.29513      0.4395     -0.7875     0.11458
0.10603   -0.007097    0.064925     0.32539     0.31552    -0.77138      0.1159
0.12675    0.020199    0.073804     0.32966     0.16687    -0.79473     0.10702
0.1353      0.0373    0.083999     0.30763    0.013293    -0.83321    0.087946
0.12938    0.040589    0.088275     0.25764     -0.1416    -0.83847    0.058676
0.10801    0.031381    0.075778     0.18233    -0.30045    -0.78092    0.013622
0.074133    0.015595    0.046837    0.088932    -0.46817    -0.66319   -0.045574
0.034669 -0.00019077   0.0044134   -0.012688    -0.63688    -0.51618    -0.11464
-0.0061104   -0.016305   -0.041299    -0.10872    -0.79079    -0.37937    -0.18534
-0.04097   -0.034064   -0.080763    -0.18863    -0.90523    -0.27348    -0.24684
-0.066951   -0.050836    -0.10576    -0.23862    -0.94536    -0.18436    -0.28828
-0.07879     -0.0584    -0.11168    -0.24454    -0.87531   -0.079448    -0.29716
-0.071884    -0.04985    -0.10148    -0.20508    -0.67766    0.074462    -0.26822
-0.04985   -0.027487   -0.085367    -0.13207    -0.37543     0.28033    -0.21297
-0.020581  0.00079584   -0.073857   -0.053138   -0.026171     0.50725    -0.16035
0.0057288    0.027763   -0.067937    0.013622     0.28165      0.7095    -0.12944
0.023159    0.040589   -0.068266    0.056374     0.47634     0.84697    -0.12648
0.030394    0.036971   -0.073199    0.066898     0.53422     0.90946    -0.14292
0.029407    0.023817   -0.078461     0.05177      0.4816     0.89203    -0.16824
0.022501    0.014608   -0.080106    0.020857     0.37077     0.73285    -0.21099
0.012635    0.020528   -0.077803   -0.016634     0.23922     0.31388    -0.29584
0.0021113    0.040589   -0.074515   -0.053138     0.10866    -0.44581    -0.43627
-0.0090702    0.069529   -0.072542   -0.086683  0.00079584     -1.4959    -0.62142
-0.020581    0.098469    -0.07287    -0.11694   -0.064978     -2.6298    -0.81512
-0.034722     0.12083    -0.07287    -0.13503   -0.076488     -3.5829    -0.97265
-0.050179     0.13234   -0.075501    -0.13568   -0.034064     -4.1817     -1.0631
-0.065635     0.13037   -0.083723    -0.12746    0.029736     -4.3508     -1.0726
-0.082408     0.11097   -0.092931    -0.12319    0.067227     -4.0929     -1.0108
-0.10576    0.071502    -0.10247    -0.13766    0.036642     -3.4911    -0.90523
-0.14029   0.0067154    -0.11365    -0.17679   -0.068266     -2.6706     -0.7829
-0.17745   -0.076488    -0.12549    -0.22974    -0.20508     -1.6985    -0.64642
-0.20244    -0.16397    -0.13141    -0.27447    -0.30078    -0.44844    -0.46751
-0.19883    -0.23467    -0.12615    -0.28696    -0.27512      1.3939    -0.19389
-0.15476    -0.26888    -0.10872    -0.24914   -0.068266      4.0472     0.23199
-0.071226    -0.25342   -0.069253    -0.15607     0.30894      4.9598     0.82625
0.034669    -0.19389  -0.0084125   -0.020252     0.76837      4.9601      1.5129
0.13662    -0.11036    0.063281     0.13432      1.1755      4.9598      2.1473
0.20963   -0.026171     0.13037     0.27507      1.4169      4.9598      2.5719
0.2435    0.040918     0.17773     0.37866      1.4445      4.9601      2.6932
0.23988    0.082684     0.20305     0.44016      1.2748      4.9601      2.5124
0.2116      0.1011      0.2093     0.46285     0.98542      4.9601      2.1203
0.1774     0.10834     0.20436     0.46088     0.67267      2.4683      1.6435
0.15273     0.11261     0.19351      0.4497     0.41977    -0.81414      1.2035
0.14385     0.11952     0.18496     0.43523     0.26882     -2.5693     0.87788
0.14747     0.13201     0.18036      0.4224     0.22245     -2.9998     0.68287
0.15701     0.15142     0.18003     0.41484     0.24021      -2.614     0.58289
0.16918     0.17937     0.18069     0.40991     0.26126      -1.979     0.52139
0.17838     0.20864     0.18069     0.39346     0.22837      -1.508     0.45496
0.17904     0.22673     0.17082     0.34874     0.11656     -1.3591     0.36091
0.16687     0.22706     0.15076     0.26751   -0.063004     -1.4748     0.23692
0.14352     0.20765     0.12017     0.15997    -0.27447     -1.6902    0.097812
0.11458     0.17674    0.078409    0.045193     -0.4754     -1.8629   -0.039655
0.084328     0.13991    0.030394   -0.057414    -0.63326     -1.9228    -0.16166
0.051441     0.10274   -0.015976    -0.13601    -0.73422     -1.8688    -0.26032
0.013622    0.065912   -0.051823    -0.18962    -0.78224     -1.7386     -0.3307
-0.027158    0.034011   -0.070897    -0.22382    -0.79506     -1.5837    -0.37576
-0.065635    0.018226   -0.073528    -0.24289    -0.78881     -1.4479     -0.4024
-0.093589    0.027763   -0.067937     -0.2498    -0.77303     -1.3709    -0.41884
-0.10444    0.059334   -0.058071    -0.24849    -0.75428     -1.3804    -0.42739
