-0.018607    -0.24322    -0.67404      0.2583    0.046508     0.27737   -0.044917
-0.040641    -0.31229     -1.6212     0.27474     0.07216        0.28   -0.045246
-0.051165    -0.42279     -2.3138     0.27047    0.077422     0.27474   -0.039984
-0.054125    -0.59117     -2.6075     0.24251    0.066569     0.26619   -0.038011
-0.051823    -0.77862     -2.5104     0.18595    0.050126     0.25764   -0.041628
-0.04985    -0.90392     -2.1165     0.10472    0.039273     0.24547   -0.049521
-0.048534     -0.8707     -1.5482    0.010662    0.039931     0.23232   -0.055769
-0.041957    -0.60958    -0.88254   -0.081421    0.049468     0.21226   -0.058729
-0.022883    -0.11891    -0.15969    -0.15443    0.059992     0.18792   -0.056427
0.010662     0.52304     0.53817    -0.18962    0.060321     0.15799   -0.044588
0.054072      1.1785      1.0959    -0.18107    0.052099     0.12675   -0.028802
0.10274      1.7264      1.4287    -0.14259    0.034669    0.094523   -0.015648
0.14681      2.1108      1.5142   -0.098522    0.013622    0.059992  -0.0080836
0.17904      2.3552      1.3968   -0.067937  -0.0038083    0.024803  -0.0057815
0.19746      2.5068       1.161   -0.060045   -0.016963  -0.0084125  -0.0084125
0.19779      2.5923     0.89696   -0.075501   -0.029131   -0.037682   -0.010386
0.17707      2.6196      0.6684    -0.10346   -0.046232   -0.068595   -0.010386
0.13859      2.6041     0.50725    -0.12253   -0.060373    -0.10806   -0.011043
0.091563      2.5732      0.4201    -0.10609   -0.045574     -0.1587   -0.013017
0.04881       2.542     0.39248   -0.041299    0.029407    -0.21034   -0.013674
0.023817      2.4939     0.40004    0.062294     0.17806     -0.2521   -0.014003
0.02283      2.3795     0.41813     0.18595     0.35992    -0.27644  -0.0090702
0.039931       2.146     0.42273     0.30368     0.49607    -0.28203   0.0014536
0.064596      1.7632     0.39379     0.39346     0.50232     -0.2748    0.010991
0.085972       1.241     0.31585     0.43523     0.35071    -0.25506    0.018226
0.096825     0.62959     0.18924     0.41846    0.087617    -0.22316    0.020528
0.089919    0.010662    0.039602     0.34052    -0.19422    -0.18469    0.016581
0.063281    -0.52276   -0.097207     0.21686    -0.41193    -0.14785   0.0096753
0.023817    -0.91017    -0.19192     0.07808    -0.52441    -0.11957   0.0044134
-0.019265     -1.1354    -0.22678   -0.040313    -0.53164     -0.1028   0.0047422
-0.060373     -1.2209     -0.2054    -0.11431    -0.46093    -0.10017    0.010991
-0.094247     -1.2219    -0.15706    -0.14193     -0.3432     -0.1074    0.020199
-0.1222     -1.1956    -0.13634     -0.1393    -0.21034    -0.11562    0.024145
-0.14588      -1.189    -0.18896    -0.12845   -0.098851    -0.12253    0.021514
-0.1666     -1.2249    -0.32478    -0.12779   -0.036366    -0.12615    0.010004
-0.18403     -1.2956    -0.51783    -0.14127   -0.029789    -0.12713  -0.0084125
-0.19324     -1.3811    -0.71252    -0.16199   -0.058729    -0.12648   -0.022554
-0.19126     -1.4613     -0.8513    -0.18205   -0.091287    -0.12549   -0.028473
-0.18173     -1.5219    -0.88156    -0.19817   -0.099509    -0.11924   -0.021567
-0.16791     -1.5495    -0.76678    -0.20113   -0.075501     -0.1051  -0.0084125
-0.14983     -1.5373    -0.49514    -0.18041     -0.0265   -0.085039   0.0047422
-0.12615     -1.4886   -0.090958    -0.12779    0.034669   -0.062018    0.015266
-0.098851     -1.4091     0.39116   -0.044588    0.094523   -0.036695    0.023817
-0.077146     -1.3065     0.87986    0.049797     0.14155   -0.010715    0.028421
-0.06432     -1.1943      1.2834     0.12412     0.16457    0.010004    0.031381
-0.060702     -1.0871      1.4962     0.15306     0.15701    0.016581    0.030065
-0.062347    -0.99173      1.4363     0.12938     0.12149  -0.0034794    0.021186
-0.070568    -0.90951      1.1081    0.070187    0.070187   -0.051823 -0.00019077
-0.084052    -0.84702       0.624    0.002769    0.011977    -0.11464   -0.028144
-0.1005    -0.81216     0.14714   -0.051823   -0.046232    -0.17219    -0.04985
-0.11694    -0.80986    -0.18238   -0.080106   -0.094247    -0.20606   -0.062347
-0.12944    -0.83124    -0.31656   -0.081421    -0.12319     -0.2008   -0.068924
-0.13305    -0.86215    -0.29814   -0.063991    -0.12845    -0.15377   -0.069253
-0.12976    -0.88649    -0.20968   -0.040313    -0.11102   -0.071884    -0.06432
-0.12121    -0.89833    -0.13009   -0.025514   -0.075173    0.034998   -0.054125
-0.11168      -0.898   -0.099509   -0.023869   -0.030447     0.15471   -0.044259
-0.10115    -0.89109    -0.11924   -0.034393    0.011977     0.26225   -0.035708
-0.092931    -0.87827    -0.16627   -0.051494    0.042562     0.33591   -0.031433
-0.085696    -0.86117    -0.21428   -0.072542     0.06065     0.36156   -0.032749
-0.079777    -0.83979     -0.2452   -0.093918    0.074462     0.34315   -0.033735
-0.077803    -0.81184    -0.25309     -0.1074    0.094194     0.29842   -0.030447
-0.080763    -0.78059    -0.23961    -0.10411      0.1205     0.25008   -0.020581
-0.085367    -0.74442    -0.21626   -0.090629     0.14944     0.21193  -0.0054526
-0.089643    -0.70495     -0.1962   -0.079119     0.17016     0.18825    0.010004
-0.094247    -0.66549    -0.18863   -0.076488      0.1649     0.16918     0.02579
-0.10017    -0.62964    -0.19159   -0.082736     0.11985     0.14451    0.036314
-0.10609    -0.60235    -0.20277   -0.086683    0.034998     0.10702     0.04026
-0.11036    -0.58426     -0.2202   -0.077803   -0.063333    0.059334    0.038287
-0.11135    -0.57439    -0.23928   -0.054783     -0.1268      0.0054     0.03434
-0.11398     -0.5688    -0.25539   -0.023869    -0.11168   -0.046561    0.026447
-0.12286    -0.56124    -0.26164     0.01691   -0.020581   -0.088656    0.015266
-0.13272    -0.55104    -0.25441    0.074133    0.097812    -0.11957   0.0024402
-0.13536    -0.53657    -0.23665     0.14813     0.18661    -0.14325   -0.012688
-0.12878    -0.51454    -0.23138     0.22673     0.21456    -0.16002   -0.028473
-0.11069    -0.48231    -0.27184      0.2902     0.18628    -0.16791   -0.041628
-0.086354    -0.43791    -0.37444     0.32243     0.12774    -0.16462   -0.046232
-0.057414    -0.38431    -0.52441     0.31026    0.059663    -0.15279   -0.040641
-0.031433    -0.32478    -0.67601     0.24778   -0.015319    -0.13305   -0.022883
-0.0097279    -0.26098    -0.78059     0.14155   -0.097864    -0.10477   0.0017824
0.010333    -0.18995    -0.82203    0.012635    -0.18896   -0.067609     0.02283
0.027763    -0.11299    -0.80953    -0.10641    -0.27578   -0.026829    0.029736
0.043549   -0.032749     -0.7454    -0.17186    -0.31097    0.014279    0.024145
0.056703    0.053743    -0.62307    -0.15607    -0.24684    0.055388    0.011977
0.065912     0.15635    -0.42542   -0.067937   -0.077146    0.090905   0.0017824
0.072489      0.2777    -0.14259    0.052757     0.13432     0.11656   0.0030979
0.078737     0.40892      0.1991     0.15734     0.30039     0.13464    0.021186
0.08959     0.52764     0.52238     0.21686     0.36715     0.15569    0.048482
0.10373     0.61413     0.70326     0.23429      0.3369     0.18496    0.075778
0.11426      0.6559     0.68879     0.22771     0.25008     0.22015    0.092879
0.11721     0.66281     0.56842     0.21259     0.15997     0.25369    0.096825
0.11162      0.6536      0.4964     0.19713    0.097154     0.27573    0.092221
0.10176     0.64307     0.56151     0.18463    0.064925     0.27573    0.081039
0.088932     0.63715     0.74371     0.16622    0.045522     0.24745    0.063938
0.076435     0.63025     0.94136     0.13629    0.018884      0.2014    0.042562
0.062952     0.61709      1.0476    0.097812   -0.024198     0.15175    0.021186
0.052757     0.59374      1.0035    0.060321   -0.078132     0.11162   0.0060577
0.042891     0.55527     0.81178    0.033025    -0.12845    0.081697   0.0040845
0.03434     0.50725      0.5283     0.01132     -0.1541    0.059005    0.012635
0.028421     0.45825     0.24153   -0.011043    -0.14785    0.035656    0.029407
0.02875     0.41977    0.032367   -0.045574    -0.11694    0.010333    0.044206
0.032696     0.39708   -0.070568   -0.094905   -0.078132   -0.014332    0.051441
0.037629     0.38228   -0.087998    -0.14588   -0.051823   -0.041957     0.04881
0.041904     0.37242   -0.060045      -0.186   -0.052481   -0.078132    0.039602
0.044206     0.36551   -0.026171    -0.20442   -0.077803    -0.12648    0.027763
0.039273     0.36189   -0.010386    -0.19587    -0.11266    -0.18534    0.015924
0.032696     0.36584   -0.015319    -0.16232    -0.14555    -0.25046   0.0057288
0.030065     0.37768   -0.034064    -0.12121    -0.16857    -0.32149  -0.0041372
0.036642     0.39741   -0.055112   -0.085696    -0.18304    -0.39516   -0.011372
0.053415     0.42175   -0.065964   -0.066293    -0.19225    -0.47244  -0.0087413
0.073147     0.44707   -0.068266   -0.067609     -0.1962    -0.55269  -0.0031506
0.087946     0.46647   -0.070897   -0.084381    -0.19422    -0.63392   0.0037556
0.09255     0.47075   -0.081092    -0.11036    -0.18699    -0.71416   0.0080309
0.088932     0.46055    -0.10214    -0.13864    -0.17219    -0.79506   0.0086887
0.082355     0.44016    -0.13141    -0.16199    -0.14456    -0.87169   0.0080309
0.074791     0.41583    -0.16068    -0.16989   -0.097864    -0.93417    0.010333
0.070187     0.39313    -0.18337    -0.15739    -0.02946     -0.9572    0.015266
0.070845     0.37373    -0.19587    -0.12516    0.047166    -0.92069    0.015595
0.068871     0.35334    -0.20047   -0.076159     0.11064    -0.81776    0.010333
0.056703     0.32703    -0.20047   -0.016305     0.14122    -0.65891   -0.007097
0.030723     0.29612    -0.20146     0.04618     0.13169    -0.45962   -0.035051
-0.00019077     0.26455    -0.20672    0.090248    0.094852    -0.22974    -0.06432
-0.027487     0.22541    -0.22448    0.094523    0.046508     0.01691   -0.080106
-0.044917     0.14484    -0.25572    0.050455  -0.0031506     0.27376   -0.077146
-0.055112   -0.044588    -0.30472   -0.027487   -0.044917      0.5408   -0.065635
-0.066951    -0.38562     -0.3626    -0.11299   -0.077146     0.79501   -0.052481
-0.083723    -0.85459    -0.41555    -0.17909   -0.089972     0.98674   -0.035708
-0.10214     -1.3607    -0.44219    -0.20573   -0.080434      1.0768   -0.015976
-0.11529     -1.7813    -0.41752    -0.18304   -0.052481      1.0647   0.0050711
-0.1199     -2.0352    -0.33564    -0.11661   -0.013674     0.98049    0.020528
-0.11793     -2.1201    -0.20606   -0.020581    0.023488     0.86506     0.02875
-0.11497     -2.0737   -0.060045    0.081697    0.052428     0.74831    0.031709
-0.11168     -1.9277    0.058019      0.1649    0.068214     0.64834    0.029078
-0.10247     -1.6879     0.11393     0.21292    0.067885     0.57401    0.021514
-0.080106     -1.3508     0.09551     0.21653    0.050455     0.52008   0.0090175
-0.049192    -0.91017    0.017568     0.18069    0.017568     0.47239  -0.0028217
-0.012688    -0.36819   -0.091287     0.11754    -0.03242     0.41747  -0.0097279
0.025461     0.24284    -0.19948    0.047166   -0.095233     0.35104  -0.0097279
0.061307     0.86703    -0.27085   -0.010057    -0.15377     0.27639  -0.0011774
0.093865      1.4554    -0.27381   -0.042286    -0.16956     0.19746   0.0083598
0.11952      1.9839    -0.19521   -0.048863    -0.10773     0.12346   0.0093464
0.13464      2.4525   -0.042286   -0.042944   0.0067154    0.053415 -0.00019077
0.13991      2.8787     0.15076    -0.03538      0.1057   -0.023211   -0.020909
0.14418      3.2658     0.33098    -0.04393     0.12807    -0.11661   -0.047548
0.15339      3.5733     0.44148   -0.089314     0.07512    -0.22218   -0.074186
0.16786      3.7387     0.45332    -0.17022  -0.0015062    -0.31689   -0.087012
0.18266      3.7206     0.38689    -0.25802   -0.045574    -0.38233   -0.079119
0.1922      3.4986     0.29743    -0.31426   -0.025185    -0.41062   -0.054454
0.19384      3.0843     0.24218    -0.31031    0.050784    -0.41654   -0.022225
0.17707       2.516     0.23758    -0.23763     0.12215    -0.41522   0.0057288
0.14122      1.8678     0.25534   -0.092931     0.10899    -0.41983    0.017568
0.090905      1.2242     0.25468     0.10998   -0.016634    -0.43693    0.010333
0.041247     0.66642     0.21653     0.33591    -0.21527    -0.47244   -0.007097
0.0030979     0.25041     0.15076     0.53521    -0.41292    -0.51487   -0.025842
-0.018607  -0.0057815    0.086959     0.66577    -0.53822     -0.5448   -0.036695
-0.024856     -0.1222    0.042233     0.70655    -0.55762    -0.54249   -0.038339
-0.018278     -0.1393    0.014937     0.65919    -0.48428    -0.49941   -0.034393
-0.004466    -0.10937   -0.011701     0.54343     -0.3557    -0.41983    -0.02946
0.0073732   -0.072542   -0.051494     0.38886    -0.21363    -0.31853   -0.024856
0.013293   -0.054454    -0.10082     0.22837   -0.095233    -0.21494   -0.024198
0.013293   -0.075173    -0.15805    0.085972   -0.018278    -0.12352   -0.028802
0.0096753    -0.15903    -0.22152    -0.02946    0.018555   -0.048534   -0.028802
0.0037556    -0.31788    -0.29091    -0.11858    0.025132    0.012635   -0.019265
-0.0008485    -0.54151    -0.35734     -0.1883    0.015924    0.065583 -0.00051963
-0.0080836     -0.7921    -0.40897    -0.24191  -0.0047949     0.11393    0.019541
-0.019594     -1.0157    -0.42673    -0.27808   -0.032091     0.16128    0.029736
-0.035051     -1.1742    -0.37477    -0.29025   -0.058729     0.20765    0.026447
-0.049521     -1.2525    -0.23237    -0.27249   -0.061689     0.25534    0.018226
-0.057414     -1.2509   -0.022883    -0.22514  -0.0087413     0.29941    0.013622
-0.056756     -1.1818     0.19845    -0.14226     0.10669     0.33229    0.015924
-0.049192      -1.067     0.39412   -0.015648     0.26027     0.35203    0.023159
-0.038339    -0.93023     0.56349      0.1478     0.42142     0.36156    0.034669
-0.027487    -0.78553     0.70655      0.3175     0.54902     0.36091    0.044535
-0.015648     -0.6497     0.80192     0.43655     0.58782     0.34874    0.053086
-0.0077547    -0.53033     0.79139     0.45003     0.50035     0.32374     0.05769
-0.0047949    -0.42969     0.60229     0.34874     0.29941     0.28099    0.055059
-0.0024928    -0.33432     0.19845     0.16753    0.053415     0.22114    0.049797
0.0037556    -0.22842    -0.34287   -0.031104    -0.15246     0.15273    0.047166
0.013622   -0.098522    -0.84242    -0.18765    -0.25967    0.087946    0.046508
0.024145    0.052428      -1.118     -0.2669    -0.25506    0.036971    0.046837
0.035327      0.1945     -1.0562    -0.27019     -0.1712   0.0063866    0.047166
0.050126     0.28954    -0.68062    -0.22152   -0.060702  -0.0051238    0.050455
0.067885     0.30664    -0.14095    -0.15936    0.036971  -0.0041372    0.060321
0.081039     0.23857      0.3757    -0.11398     0.10143   -0.002164    0.075778
0.08367    0.097812     0.72825   -0.093589     0.13201  -0.0074258    0.089919
0.070187   -0.088985     0.83809   -0.096878     0.13103   -0.024198    0.098141
0.0373    -0.30505     0.67366     -0.1097     0.10768   -0.045903     0.09255
-0.016305    -0.54973     0.25731    -0.13075    0.072489   -0.063333    0.071831
-0.082736    -0.83025    -0.35372    -0.15706     0.03434   -0.076159    0.042891
-0.15311     -1.1312     -1.0851    -0.18534   0.0011247   -0.085039    0.020528
-0.21395     -1.4133     -1.8576     -0.2031   -0.018936   -0.090958    0.014279
-0.25934     -1.6636     -2.5532    -0.20705   -0.019594   -0.091616    0.025132
-0.28631     -1.8882     -3.0225     -0.2179   0.0044134   -0.084052    0.042562
-0.3011     -2.0961     -3.1557    -0.26559    0.053086   -0.058729    0.055388
-0.30702      -2.294      -2.937    -0.36655     0.12807   -0.017621    0.054401
-0.30768     -2.4864     -2.4039    -0.52079     0.22147    0.026776     0.04026
-0.30078     -2.6459      -1.608    -0.71318     0.31125    0.056703    0.021186
-0.28236     -2.7104    -0.63589    -0.89833     0.38097    0.065254   0.0073732
-0.25079     -2.6088     0.35203     -1.0151     0.44345    0.059334   0.0047422
-0.21132     -2.3138      1.1584     -1.0009     0.53126    0.055388    0.014937
-0.16495     -1.8389      1.7208    -0.80329     0.65952    0.057032    0.035656
-0.11529     -1.2321      2.1164    -0.39483     0.75851    0.053743    0.058676
-0.068266    -0.59314       2.466     0.18102     0.72398    0.032038    0.074462
-0.030775   -0.065964      2.7995     0.78218     0.53093   -0.011043    0.079724
0.0001381     0.23791      3.0287       1.237      0.2708   -0.066293     0.07512
0.033683     0.33854      3.0389      1.4393    0.064925    -0.11694    0.064925
0.071173     0.35499      2.8057      1.3909   -0.048534    -0.15377    0.048153
0.10669     0.42142      2.4265      1.1781    -0.13207    -0.17449    0.022172
0.13958     0.62203       2.047      0.8963    -0.25506    -0.17844   -0.011043
0.16983      0.9795      1.7612     0.61117    -0.42114    -0.16561    -0.04393
0.19812      1.4695       1.558     0.35926    -0.57834    -0.13667   -0.069253
0.22443      2.0273      1.3541      0.1501    -0.66648   -0.092603   -0.083723
0.25041      2.5597      1.0811   -0.015319    -0.66023   -0.048863   -0.090629
0.27277      2.9734     0.73121     -0.1393      -0.579   -0.013017   -0.088656
0.28461       3.201     0.35762    -0.21987    -0.48165    0.013622   -0.077146
0.27869      3.2273    0.038944    -0.24783    -0.43989     0.03434   -0.058071
0.25337      3.0816    -0.17449    -0.21757    -0.45074    0.047166   -0.037353
0.21193      2.8304    -0.28137    -0.15081    -0.41687    0.045851     -0.0265
0.16819       2.565    -0.31459   -0.082079     -0.2304    0.023817   -0.027158
0.13826      2.3788    -0.30834   -0.021238     0.10603   -0.014661   -0.038339
0.13629      2.3318    -0.29058    0.040918     0.45036   -0.054454   -0.054783
0.16359       2.414    -0.27151     0.11228     0.61742   -0.080106   -0.069253
0.20667      2.5443     -0.2498     0.17871     0.52106   -0.082736   -0.075501
0.24449      2.5992    -0.22251     0.21916     0.21357   -0.058071   -0.073199
0.25961       2.467    -0.19291     0.22114    -0.15443  -0.0080836   -0.068924
0.24218       2.097    -0.17022     0.19022    -0.43331    0.049468   -0.068595
0.19746      1.5284    -0.15772     0.14418    -0.54611    0.093865   -0.068924
0.13662      0.8598    -0.15838     0.10373    -0.50336     0.10801   -0.067609
0.078409     0.20601     -0.1666    0.084657    -0.36754    0.088932   -0.058729
0.029078    -0.34254    -0.18205    0.088932    -0.21001     0.05473   -0.041957
-0.013017    -0.74573    -0.21297     0.11064   -0.078132    0.024803   -0.022883
-0.048205     -1.0141    -0.27085     0.13464     0.01691    0.019541   0.0011247
-0.075501     -1.1835    -0.35931     0.13695    0.079395    0.041247    0.021843
-0.092931     -1.3101    -0.46554     0.10044     0.11853     0.08367    0.036314
-0.1005     -1.4502    -0.57834    0.022501     0.14517     0.13136    0.040589
-0.10313     -1.6343    -0.68719   -0.090629     0.16424     0.16885    0.037958
-0.10839     -1.8553    -0.77829    -0.21987     0.17246     0.18299    0.029078
-0.12056      -2.074    -0.83321    -0.33235     0.17115     0.17575    0.019541
-0.14029     -2.2381    -0.83617    -0.38957     0.16063      0.1626    0.011648
-0.16364     -2.3062    -0.77533    -0.36819      0.1432     0.15668   0.0044134
-0.17712     -2.2628    -0.65168    -0.27907     0.11985     0.15799    0.002769
-0.17482     -2.1224    -0.49086    -0.15575    0.089919     0.16128   0.0077021
-0.16068     -1.9178    -0.33004   -0.038668    0.058019     0.16622    0.015595
-0.14391     -1.6784    -0.21034     0.04026    0.023488     0.16654    0.025461
-0.13042     -1.4294     -0.1643    0.065583   -0.018936     0.15799    0.032367
-0.12417     -1.1887    -0.20146    0.041247   -0.070568     0.13892    0.029078
-0.12648    -0.97101    -0.29946   -0.014661    -0.12483     0.10274    0.015266
-0.13272    -0.78421    -0.42114   -0.074186    -0.17054     0.05473  -0.0041372
-0.137    -0.64378    -0.53361     -0.1199    -0.20376   0.0080309   -0.017292
-0.13864    -0.56617    -0.62175    -0.14588    -0.22382   -0.030447   -0.022554
-0.14095    -0.54677    -0.67766    -0.15542    -0.23171   -0.059387   -0.021238
-0.14259    -0.55104    -0.69871    -0.15673    -0.22415   -0.083723   -0.015319
-0.137    -0.54118    -0.67733    -0.15377     -0.2031    -0.10247  -0.0074258
-0.1222     -0.5073    -0.61057    -0.14851    -0.16857    -0.11464   0.0014536
-0.10313    -0.46554    -0.50467    -0.13733    -0.12121    -0.12056   0.0073732
-0.090958    -0.44416    -0.37609    -0.11661   -0.064649    -0.12089   0.0096753
-0.092603    -0.46916    -0.25342   -0.087341  -0.0034794    -0.11398   0.0080309
-0.10773    -0.53986    -0.16166   -0.051823    0.053415    -0.10411   0.0063866
-0.12911    -0.62339     -0.1051    -0.01499    0.094523   -0.096549   0.0067154
-0.14983    -0.68456   -0.069582    0.014279      0.1136   -0.090629   0.0050711
-0.1666    -0.70002   -0.041628    0.024145     0.11195   -0.084052   0.0011247
-0.17515    -0.65793    -0.01795    0.012964    0.092221   -0.077803  -0.0038083
-0.17581    -0.56584  -0.0041372   -0.014661    0.063281    -0.07024   -0.011701
-0.17022    -0.44745   -0.013674   -0.042286    0.028092   -0.065307   -0.023211
-0.15969    -0.31821   -0.063004   -0.058729  -0.0054526   -0.063333   -0.030447
-0.14325    -0.17778    -0.15213   -0.065964   -0.036695   -0.063991   -0.026829
-0.12253  -0.0087413       -0.26   -0.074186   -0.062018   -0.069253   -0.014332
-0.10313     0.19746    -0.35767   -0.090629   -0.088327   -0.082736   0.0001381
-0.089314     0.40432    -0.41489    -0.11628    -0.11858    -0.10411   0.0083598
-0.08471     0.55198    -0.41423    -0.14391    -0.14785    -0.13174     0.01132
-0.087341     0.59868    -0.35964    -0.16166    -0.16791     -0.1564    0.010004
-0.091287     0.53488     -0.2646    -0.15969    -0.17745     -0.1712      0.0054
-0.088985     0.38557    -0.14456    -0.13733    -0.17613    -0.17219  -0.0031506
-0.081092     0.19713   -0.019594   -0.097536    -0.16726    -0.16627   -0.010057
-0.063662    0.023817    0.085644   -0.048205    -0.15344    -0.16068   -0.013674
-0.037024   -0.097207     0.15536  0.00079584    -0.14095    -0.16068   -0.012359
-0.0051238    -0.15443     0.18299      0.0373    -0.12911    -0.16627  -0.0064392
0.029078    -0.15805     0.17575    0.057361    -0.11036    -0.17087   0.0011247
0.052428    -0.12417     0.14352    0.062294   -0.082079    -0.16857   0.0073732
0.059334    -0.07024     0.10307    0.059005   -0.049192    -0.16199    0.011648
0.049468   -0.013345    0.067227    0.049797    -0.01795    -0.15706    0.014937
0.029736    0.039931    0.041247      0.0373   0.0096753    -0.15607    0.018226
0.013622    0.088932    0.032038    0.025461    0.034669    -0.15706    0.017568
0.0096753     0.13695    0.041904    0.012306    0.058019     -0.1564    0.010991
0.018884      0.1797    0.067556  -0.0067681    0.074133    -0.16101   0.0040845
0.034998     0.21292     0.10143   -0.034722    0.084657    -0.18567   0.0024402
0.05177     0.22837     0.13596   -0.065964    0.094852    -0.24289      0.0054
0.06624     0.22212      0.1626   -0.087341     0.10636    -0.33958   0.0073732
0.079066     0.19976     0.17937   -0.089314     0.11721     -0.4537   0.0050711
0.089919     0.17641     0.19351   -0.073199     0.12346    -0.55006  -0.0008485
0.098469     0.16654     0.21851   -0.045903     0.12116    -0.58952  -0.0057815
0.10505      0.1797     0.26323   -0.022554     0.11064    -0.54677   -0.012688
0.11162     0.21588     0.32999    -0.01203    0.097483    -0.41687   -0.019594
0.11557     0.26126     0.39379  -0.0090702    0.087288     -0.2156    -0.02354
0.1136     0.29776     0.38886   0.0044134    0.088275    0.025132   -0.015319
0.10603      0.3119     0.24942    0.042233     0.10965     0.27211   0.0073732
0.094194     0.29908   0.0093464     0.10307     0.14977     0.51547    0.040589
0.080053     0.26159    -0.18008     0.17477     0.20042     0.75226     0.07216
0.063938     0.20996    -0.16199      0.2412     0.24449     0.95122    0.086959
0.04881     0.15372    0.093536     0.28855     0.26126      1.0614    0.083013
0.038287     0.10143     0.45661     0.30598     0.24021      1.0459    0.061636
0.035985    0.055059     0.74831      0.2948     0.18792     0.90946    0.035656
0.038944    0.012306     0.84401     0.26323     0.12149     0.69898    0.013293
0.039602   -0.034393     0.72398     0.21916    0.057032     0.47042   -0.002164
0.027763   -0.092931     0.45759     0.17411   0.0073732     0.27112  -0.0084125
0.0021113    -0.16824     0.15175      0.1376   -0.022225     0.12642   -0.011043
-0.029789    -0.25572     -0.1005     0.11228   -0.034064    0.040918   -0.012688
-0.054783    -0.33531    -0.25177    0.095839   -0.031433 -0.00051963   -0.013017
-0.066622    -0.37609    -0.30242    0.081039    -0.02354   -0.014332   -0.014332
-0.064649    -0.35504    -0.28466     0.06065   -0.013345    -0.01795   -0.017292
-0.045903    -0.27512    -0.23928    0.036314   0.0034268   -0.020581   -0.018936
-0.019923    -0.15969    -0.19521    0.013293    0.026776   -0.029789   -0.013674
0.00079584   -0.043272    -0.16199  -0.0024928    0.046508   -0.048534  -0.0077547
0.010004    0.047166    -0.13568  -0.0077547    0.049468   -0.076159  -0.0064392
0.012635     0.10603    -0.10411  0.00046697    0.032038    -0.11135   -0.010715
0.017568     0.15799   -0.054125    0.023817   0.0044134    -0.14588   -0.017292
0.031709       0.231    0.019541     0.06065   -0.016634    -0.17022   -0.022883
0.053743      0.3415     0.11294     0.11064   -0.011701    -0.18337   -0.020252
0.079066     0.48259     0.21226     0.16753    0.029407    -0.18304   -0.010715
0.10406     0.63123     0.30105     0.23232     0.10406    -0.17022  -0.0031506
0.12313     0.75818     0.35827     0.30007     0.18397    -0.14687   0.0014536
0.13234     0.83645     0.37143     0.33493     0.22015    -0.11628      0.0054
0.1284     0.85585     0.34446     0.29316     0.16556     -0.0903    0.010004
0.11426     0.81869     0.29809      0.1672    0.020199   -0.079448    0.011977
0.091892     0.73549     0.25271   0.0060577    -0.15772   -0.086683   0.0086887
0.063938     0.61446     0.21949    -0.12056     -0.3011    -0.10148  -0.0024928
0.032367     0.47173     0.20206    -0.16594    -0.38069     -0.1176   -0.018607
-0.00019077     0.32111     0.19088    -0.13141    -0.40503    -0.12483   -0.032749
-0.031104     0.17871     0.17641   -0.063662     -0.3968    -0.11825    -0.03242
-0.054454     0.04881     0.15339   -0.011701    -0.37576    -0.10017   -0.020909
-0.068266   -0.089314     0.12149  -0.0015062    -0.34912   -0.083394  -0.0067681
-0.070897     -0.2794    0.082684   -0.023211    -0.31327   -0.073199   0.0077021
-0.066293    -0.53986    0.032038   -0.057085     -0.2646   -0.065964    0.019212
-0.053138    -0.82992   -0.042615   -0.086354     -0.2008   -0.061689    0.027763
-0.030775     -1.0654    -0.14621    -0.10905    -0.13075   -0.062347    0.031381
-0.004466     -1.1631    -0.26624    -0.12812    -0.06432   -0.069253    0.031709
0.016253     -1.0789    -0.36655    -0.14983   -0.013345   -0.079448    0.029407
0.029736    -0.81085    -0.41423    -0.17186     0.01691    -0.09326    0.026447
0.039602    -0.41325    -0.39023    -0.18337    0.024474    -0.11299    0.022172
0.045193    0.024803     -0.3067    -0.16857    0.010333    -0.14226    0.015595
0.048482     0.42175    -0.19324    -0.12582   -0.020252    -0.17712    0.010333
0.049797     0.73549   -0.084052   -0.063662   -0.055769    -0.20672   0.0093464
0.050455     0.95846  -0.0024928  -0.0038083   -0.081421    -0.22218   0.0096753
0.052428      1.1028    0.049797    0.035327   -0.085696    -0.21527   0.0086887
0.056374      1.2028    0.081697    0.044864   -0.068924    -0.18534   0.0073732
0.067227      1.2906      0.1011    0.026447   -0.040641    -0.13897      0.0054
0.083342      1.3899      0.1159   -0.011372   -0.012359   -0.087012   0.0034268
0.1011      1.5241     0.12511   -0.056756   0.0096753   -0.043601      0.0054
0.11952      1.6869     0.12478    -0.10017    0.024474   -0.013674    0.011648
0.1376      1.8352     0.11426    -0.14062    0.036971   0.0086887    0.020199
0.15438       1.904    0.096496    -0.17975    0.053086    0.029407    0.025461
0.16622      1.8487    0.077422    -0.21264    0.074462    0.049468    0.026119
0.16885      1.6586    0.064925    -0.22941      0.1057    0.067885    0.026447
0.15405      1.3643     0.06065    -0.21691     0.14583    0.076106    0.030394
0.12215       1.017    0.059663    -0.17054     0.17214    0.067556    0.033683
0.080711     0.67004     0.05473   -0.099838     0.15076    0.044864    0.029736
0.036642     0.36485    0.042562   -0.022225    0.044206    0.014937    0.018884
-0.0041372      0.1205    0.025132    0.040918    -0.13963  -0.0057815   0.0073732
-0.037024    -0.06432   0.0063866    0.080382    -0.32413  -0.0087413   0.0014536
-0.057743    -0.20705  -0.0090702    0.087617    -0.41358   0.0067154   0.0014536
-0.071555    -0.34846   -0.027158    0.059005    -0.34846    0.027434   0.0057288
-0.083723    -0.54808    -0.05281  -0.0047949    -0.14292    0.044206    0.012306
-0.09918    -0.83913   -0.084052   -0.093589     0.12478    0.051441    0.018555
-0.1176      -1.192    -0.11628    -0.18238     0.36321    0.052757    0.021514
-0.13338     -1.5265    -0.14193    -0.24059     0.51054    0.057032    0.021514
-0.14391     -1.7662    -0.15443    -0.24783     0.55428    0.068214    0.013293
-0.14752     -1.8685    -0.15114    -0.19258     0.53849    0.084986 -0.00051963
-0.14226     -1.8238    -0.13272   -0.078132      0.5306     0.10274   -0.013674
-0.12976      -1.662    -0.10641     0.07216     0.56151      0.1159   -0.022225
-0.11431     -1.4242    -0.08175     0.20239      0.5875      0.1136   -0.027158
-0.09622     -1.1328   -0.065635     0.25468     0.54211    0.092879   -0.028473
-0.070897    -0.79375   -0.054125     0.22245     0.41352    0.064267   -0.027158
-0.036366    -0.41095   -0.037024     0.15438     0.23331    0.042891   -0.022225
0.00046697  -0.0051238   -0.014661     0.11721    0.024803    0.035656   -0.014661
0.029736     0.38557   0.0060577      0.1376    -0.20672    0.045851  -0.0093991
0.04322     0.70523    0.018555     0.19581    -0.44877    0.068871  -0.0061104
0.042233     0.90123     0.02283     0.24251    -0.66023    0.094523   -0.004466
0.033025     0.96405    0.027763     0.23988    -0.79112     0.11261  -0.0057815
0.016581     0.92952    0.041904     0.17444    -0.81151     0.11886   -0.013345
-0.0064392     0.86341    0.068543    0.057361    -0.72469     0.10998   -0.029789
-0.030447     0.82329     0.10702   -0.087998    -0.56716     0.09255   -0.052152
-0.04393      0.8154     0.14188    -0.22842    -0.39944    0.071173   -0.073528
-0.038339     0.80126     0.13333    -0.32117    -0.27216    0.049468   -0.087669
-0.016634      0.7368    0.059992    -0.33695    -0.20573    0.030065    -0.09326
0.013951     0.60394   -0.054783    -0.27973    -0.18238    0.011977     -0.0903
0.04881      0.4132    -0.16364    -0.17613    -0.15279   -0.011701   -0.086683
0.080711     0.20009    -0.24783   -0.068924   -0.079448   -0.044259   -0.083394
0.1034    0.013293    -0.31788    0.016581    0.028421   -0.079448   -0.083065
0.11393    -0.10543    -0.39154    0.082684     0.12478    -0.11365   -0.085367
0.11327    -0.14226    -0.47179     0.13629     0.16687    -0.14226   -0.089314
0.10965    -0.11825    -0.54808     0.17707     0.14188    -0.16495   -0.093918
0.10538   -0.073528    -0.59972     0.19581    0.071502    -0.18271   -0.099838
0.098469    -0.04985    -0.60169     0.19022  -0.0074258    -0.19192    -0.10313
0.083013   -0.074844    -0.52802     0.16589   -0.070568    -0.18896   -0.098522
0.060979    -0.15246    -0.35438     0.14583   -0.099509    -0.17646   -0.081092
0.038616    -0.27512    -0.07583     0.15701   -0.087998     -0.1587   -0.053467
0.015595    -0.42871     0.29283     0.21324   -0.040641    -0.13437   -0.021567
-0.0054526    -0.59347     0.70819     0.29612    0.026447    -0.10444   0.0080309
-0.025842    -0.75461      1.0926     0.36748     0.08959   -0.070568    0.028421
-0.048534    -0.90162      1.3396      0.3905     0.13201   -0.043272    0.034669
-0.074515     -1.0223      1.3455     0.34874     0.14484   -0.032749    0.029078
-0.097207     -1.0956      1.0762     0.24975     0.12971   -0.037024    0.021514
-0.11102     -1.1075     0.60394     0.12708     0.10077   -0.044259    0.019541
-0.11266     -1.0703    0.080711    0.016581    0.072818   -0.039326    0.026447
-0.10477      -1.021    -0.33629     -0.0584    0.056046   -0.017621    0.042233
-0.096878    -0.99666    -0.56288   -0.090958    0.050784    0.020199    0.060321
-0.099838     -1.0046    -0.60761   -0.091287    0.055388    0.068214    0.076764
-0.11825     -1.0154    -0.53361   -0.072213    0.067885     0.12544    0.087946
-0.14029    -0.95588    -0.41522   -0.042286    0.088603     0.19877    0.093536
-0.14719    -0.76119    -0.30735  -0.0087413     0.11557     0.28757    0.096825
-0.12812    -0.41983    -0.22678    0.020199     0.14089     0.38557    0.097154
-0.082408    0.019212    -0.15311    0.038616     0.15997     0.47601    0.098141
-0.024198     0.45299   -0.063991    0.042891     0.17378     0.53849     0.10636
0.029736      0.7812    0.032038    0.030394     0.18003     0.55954      0.1205
0.067885     0.94859     0.11557   -0.004466     0.17181     0.53882     0.13267
0.088932     0.95418     0.17575    -0.05281     0.13925     0.49114     0.13464
0.094852     0.84598       0.207    -0.10214    0.073804     0.42865     0.12478
0.086959     0.69471     0.19877      -0.137    -0.02354     0.36058     0.10702
0.068871     0.57434     0.13497    -0.14456    -0.12878     0.28954    0.085644
0.044864     0.52896  -0.0028217     -0.1222    -0.18337     0.22114    0.062623
0.021843     0.55592    -0.21922    -0.07583     -0.1005     0.16063    0.039602
0.0014536      0.6217    -0.48132   -0.011701     0.16457     0.11064    0.019541
-0.018607     0.67169    -0.73258    0.056703     0.53159      0.0692   0.0057288
-0.039655     0.64274    -0.91543     0.10768     0.82395    0.034998  0.00046697
-0.059058     0.49903    -0.98482     0.11787     0.88348   0.0021113   0.0017824
-0.07583      0.2412    -0.91313    0.080711     0.67892    -0.03538   0.0047422
-0.086683    -0.11266    -0.68983   0.0067154     0.31059   -0.072213   0.0050711
-0.096549    -0.51783    -0.32939   -0.084052   -0.056098    -0.10082   0.0017824
-0.10674    -0.90096     0.10077    -0.16265     -0.2942    -0.11529   -0.002164
-0.11431     -1.1805     0.49212    -0.21395     -0.3626    -0.11694  -0.0024928
-0.11431     -1.3022     0.75818    -0.23961    -0.29387    -0.11266   0.0067154
-0.10346     -1.2874     0.86572    -0.25901    -0.15443    -0.10872    0.021186
-0.087998     -1.2022     0.84664    -0.28894   -0.007097    -0.11003    0.032038
-0.069911     -1.1068     0.77199    -0.31689     0.10702    -0.11891    0.035985
-0.049192     -1.0259     0.70687    -0.30078     0.16128    -0.13864    0.032696
-0.028802    -0.94601     0.67695    -0.20409     0.12905    -0.16989    0.023159
-0.01203    -0.83124     0.67695   -0.034064   0.0024402    -0.20869    0.015266
0.0054    -0.64773     0.69142     0.15964    -0.18962    -0.24257     0.01132
0.029407     -0.3751     0.69668     0.29908    -0.38694    -0.25671    0.013293
0.053086   -0.036366     0.65426     0.31947     -0.5323    -0.24618    0.021843
0.074791     0.32045     0.53488     0.20502    -0.60004    -0.21691    0.038616
0.094523      0.6559     0.34348    0.002769    -0.59314    -0.18238    0.059663
0.10768     0.96832     0.12609     -0.2054     -0.5323    -0.15213    0.078737
0.11656      1.2627   -0.069911    -0.34451    -0.43956    -0.13009    0.088275
0.12478      1.5333    -0.23007    -0.37707     -0.3307    -0.12023    0.088932
0.13497      1.7764    -0.36392     -0.3136    -0.21626    -0.11924    0.084328
0.15043      1.9937    -0.48264    -0.18962    -0.09918    -0.12319    0.081039
0.16885      2.1861    -0.57735   -0.056756    0.013951    -0.12286    0.081368
0.18628      2.3469    -0.62175    0.042891     0.10603    -0.11825     0.08367
0.19549      2.4627    -0.58459     0.08663     0.15372     -0.1176     0.07808
0.19647      2.5156    -0.46521     0.08367     0.14254    -0.12582    0.061636
0.18661      2.4837    -0.29551    0.053743    0.086959    -0.13897    0.038616
0.16622      2.3456   -0.097207    0.024474     0.02283    -0.15476    0.018555
0.13793      2.0822     0.15175    0.011648   -0.027487    -0.17153      0.0054
0.1057      1.6836     0.45233    0.013622   -0.056098    -0.18797  -0.0057815
0.068214      1.1617     0.72661    0.024803   -0.069253     -0.2008   -0.016305
0.023817     0.55428      0.8496    0.041247   -0.074515    -0.20771   -0.030775
-0.028802   -0.062676     0.72891    0.058348   -0.078461    -0.21165   -0.042615
-0.080434    -0.59906      0.3688    0.070187   -0.080106    -0.21165   -0.049192
-0.12286     -1.0003    -0.12779    0.069858   -0.086025    -0.20244   -0.044588
-0.15048     -1.2601    -0.60235    0.051113   -0.097864    -0.18633   -0.033406
-0.16594     -1.3969    -0.92497    0.017239    -0.11957    -0.17087   -0.021567
-0.17383     -1.4436     -1.0345   -0.026829    -0.15443    -0.15805   -0.016305
-0.17712     -1.4324    -0.94141   -0.073857    -0.19028    -0.14621    -0.01795
-0.17745      -1.392    -0.71679    -0.10609    -0.22316    -0.12549   -0.022225
-0.17252     -1.3384    -0.45501     -0.1051     -0.2373   -0.086683   -0.020581
-0.16035     -1.2739     -0.2327     -0.0584    -0.19389   -0.027816  -0.0080836
-0.14292     -1.1996   -0.084052    0.022172   -0.050507    0.038944    0.012964
-0.11891     -1.1216   -0.010057      0.1113      0.1774    0.085644    0.028421
-0.094247     -1.0443  -0.0061104     0.17806      0.4155     0.10307    0.028421
-0.073528    -0.97594   -0.078132     0.20765       0.575    0.088932    0.013293
-0.059387    -0.91543     -0.2156     0.20436     0.60591    0.055388   -0.010057
-0.050836    -0.86248    -0.37181     0.18003     0.51778    0.013293   -0.030118
-0.045246    -0.82762    -0.49185     0.15306     0.36255    -0.03242   -0.037353
-0.043601    -0.85097    -0.54052     0.13563     0.19943   -0.073857   -0.032749
-0.046561    -0.97561    -0.50533     0.12511    0.070516    -0.10609   -0.024527
-0.057743     -1.1933    -0.39944     0.11458   -0.014661    -0.13108   -0.026171
-0.075173     -1.4544    -0.25441    0.091563   -0.065635    -0.14983   -0.039655
-0.094247     -1.6797    -0.10641    0.049139    -0.10214    -0.16035   -0.058729
-0.11266     -1.8004    0.015595  -0.0018351    -0.13503    -0.16134   -0.072213
-0.12845     -1.7905    0.093865   -0.048534    -0.16726    -0.14654   -0.077803
-0.1393     -1.6531     0.12741   -0.082079    -0.19258    -0.11431   -0.074844
-0.14588     -1.4166     0.12379    -0.10115    -0.20475   -0.064649   -0.070897
-0.14983     -1.1331    0.090577    -0.10444    -0.19981  -0.0057815    -0.06728
-0.1495     -0.8536    0.042233   -0.096878    -0.17975    0.050126    -0.06432
-0.14358    -0.60235   -0.014003   -0.087341    -0.15015    0.095181   -0.062347
-0.13075    -0.37543   -0.071555   -0.081421    -0.11628     0.12379   -0.062018
-0.11266    -0.15509    -0.11825   -0.076488   -0.087998     0.13464   -0.064649
-0.0903    0.081368    -0.14292   -0.073199   -0.070568     0.12905    -0.06432
-0.066293     0.34644    -0.13832   -0.067937   -0.065964     0.11491     -0.0584
-0.04393     0.63222    -0.10082   -0.059716   -0.069582     0.10242   -0.045903
-0.025514     0.91899   -0.037682   -0.045246   -0.079448    0.097154   -0.026829
-0.0047949      1.1841     0.03434    -0.01795   -0.084381      0.1034  -0.0028217
0.023488      1.3982    0.094852    0.021186   -0.080106     0.12313    0.024474
0.058676      1.5248     0.13399    0.051113   -0.063991      0.1524    0.049468
0.090248      1.5188     0.14944    0.034998   -0.033406     0.17937     0.06065
0.10932      1.3669     0.14484   -0.039326   0.0086887     0.19516    0.058676
0.11261      1.0992     0.12017     -0.1541    0.059992      0.1922    0.052428
0.10472     0.78186     0.07808    -0.27282     0.13596      0.1751    0.050784
0.093536     0.48292    0.030723    -0.35307     0.26027     0.15832    0.053743
0.083999     0.24778   -0.015319    -0.35142     0.42832     0.15602    0.058676
0.076764    0.083013    -0.05544    -0.24881     0.56579      0.1649    0.060979
0.068214   -0.020909   -0.087669    -0.06136     0.57664     0.17279    0.055388
0.054401   -0.082408     -0.1176     0.15898     0.41846     0.16391     0.04322
0.032696    -0.12417    -0.15443      0.3517     0.14583     0.13366    0.029407
0.0047422    -0.16528    -0.19981     0.48324    -0.12582     0.08959    0.016253
-0.028144    -0.21527    -0.24158      0.5431     -0.2771    0.045522   0.0080309
-0.0584    -0.26953    -0.25243     0.53619    -0.24816    0.013293   0.0063866
-0.074844    -0.32051    -0.19883     0.47305   -0.085696   0.0083598    0.010004
-0.078132    -0.35635   -0.054454     0.36617    0.090248    0.032696    0.015924
-0.072213    -0.36754     0.16457     0.23331     0.17378    0.075449    0.016253
-0.059387    -0.34978     0.39873    0.093865     0.12642     0.11985    0.010662
-0.042286    -0.30834     0.58125   -0.035051   -0.013674     0.15076   0.0001381
-0.025842    -0.25441     0.66807    -0.13799    -0.16956     0.16194  -0.0080836
-0.014003    -0.21132     0.64011     -0.2133    -0.27611     0.15405  -0.0064392
-0.0061104     -0.2179     0.51186    -0.26789    -0.30209      0.1432   0.0030979
-0.002164    -0.30801     0.31914    -0.30637    -0.25441     0.14024    0.012306
-0.00019077    -0.48363     0.12807    -0.32906    -0.16364      0.1455    0.015924
0.00079584    -0.71548     0.01987    -0.33432   -0.071884     0.15273    0.013293
-0.0015062    -0.96147    0.043877    -0.32281  -0.0024928      0.1478   0.0090175
-0.0084125     -1.1664     0.19877    -0.29255    0.041575     0.12675   0.0083598
-0.014661     -1.2713     0.42471    -0.23928    0.079724    0.091234      0.0054
-0.014003     -1.2387     0.63156    -0.15476      0.1205    0.046837  -0.0011774
-0.0051238      -1.069     0.74469    -0.03538     0.15175  -0.0015062   -0.012688
0.0063866    -0.79802     0.74042     0.10439     0.15076   -0.051494   -0.024527
0.013293    -0.47968     0.63617     0.22936     0.10801   -0.097207   -0.036695
0.010333    -0.18074     0.44115       0.305    0.031381    -0.13568   -0.045903
-0.0034794    0.026119     0.13629     0.30533   -0.063991    -0.16594   -0.051823
-0.022883    0.087288    -0.24585     0.23659    -0.16298    -0.19291   -0.057085
-0.045574   0.0086887    -0.58492     0.12577    -0.25342    -0.22053   -0.063662
-0.066293     -0.1324    -0.80559    0.012306    -0.32741    -0.24783   -0.073528
-0.088985    -0.22218    -0.91214   -0.065635    -0.37082    -0.27348   -0.087341
-0.10609    -0.17087    -0.92497   -0.098851    -0.37017    -0.29321   -0.099838
-0.11266    0.028421    -0.84637   -0.098851    -0.31294    -0.29913    -0.10641
-0.10872     0.31059    -0.67404   -0.074515    -0.19817    -0.29288    -0.10773
-0.10247     0.59013    -0.44022   -0.027816   -0.046561    -0.28236    -0.10543
-0.09622     0.81869    -0.20573    0.031052      0.1034    -0.27348   -0.096549
-0.078461     0.98773   -0.028802    0.087946     0.20732    -0.26624   -0.082079
-0.041628      1.1094    0.060321     0.13497     0.22179    -0.25704   -0.068266
0.013951      1.1966    0.059992     0.16194     0.13037    -0.24717   -0.055112
0.074791      1.2574  -0.0011774     0.16293   -0.038997    -0.23434   -0.040641
0.1307      1.2985   -0.085696     0.13662    -0.22481    -0.21461   -0.024856
0.17411      1.3445    -0.15739    0.094194    -0.35997    -0.18107  -0.0077547
0.20634      1.4333    -0.19587    0.056703    -0.39845    -0.13404    0.011977
0.23265      1.5942    -0.20573    0.039931    -0.33366   -0.078461    0.030394
0.25468      1.8204    -0.20508    0.041575    -0.19587   -0.025185    0.040918
0.27376      2.0618    -0.19652     0.04618   -0.041299    0.021843    0.037958
0.28823      2.2368    -0.17318    0.033354    0.077422    0.055388    0.024474
0.29382       2.267    -0.13272  -0.0041372     0.13004    0.070187   0.0083598
0.2879      2.1269   -0.087012   -0.056756     0.11557    0.070187   -0.010715
0.26586      1.8484   -0.058071    -0.11266    0.057032    0.057032   -0.027487
0.22969      1.4929    -0.05544    -0.16068   -0.015976    0.036642   -0.033406
0.18989      1.1344   -0.068924    -0.18896   -0.076817    0.014279   -0.026829
0.15175     0.82329   -0.085039     -0.1962    -0.11168   -0.002164    -0.01203
0.11853     0.57763   -0.097864     -0.1814    -0.11891  -0.0051238   0.0044134
0.089919     0.39478    -0.10773    -0.15246    -0.10148   0.0077021    0.014279
0.068543     0.25567    -0.10839    -0.12878   -0.056756    0.033025    0.014279
0.054401     0.14221   -0.085039    -0.12944   0.0093464    0.065254   0.0083598
0.046837    0.032367  -0.0015062    -0.15772    0.071502    0.099785   0.0040845
0.042233   -0.091616     0.19088     -0.1985    0.084328     0.13629   0.0060577
0.041247    -0.23829     0.52041     -0.2373    0.021843     0.17246    0.014937
0.041575    -0.39253     0.96668    -0.25473    -0.10181      0.1991    0.027434
0.035985    -0.52737      1.4449    -0.23599    -0.21757     0.21226    0.042233
0.023817    -0.62931      1.7948    -0.16495    -0.23829     0.21324    0.056046
0.0096753     -0.6941      1.8638   -0.035708   -0.089643     0.20338     0.06361
-0.0054526      -0.726      1.5965     0.11557     0.23955     0.19154    0.063938
-0.018607    -0.73389      1.0782     0.23265     0.66741     0.17937    0.059005
-0.026829    -0.72534     0.47963     0.28954       1.042     0.15997    0.054401
-0.037024    -0.70134   -0.021896     0.30697      1.2127     0.12445     0.04618
-0.04985     -0.6622    -0.31623     0.32341      1.1255    0.068214     0.03434
-0.063004    -0.59511    -0.39713     0.35992      0.8256  -0.0064392    0.015595
-0.074844     -0.4981    -0.32544     0.40826     0.39017   -0.087998  -0.0057815
-0.080106    -0.38694    -0.17778      0.4349   -0.082408    -0.16758   -0.028144
-0.076817    -0.28203   -0.025185     0.41385     -0.4879    -0.24092   -0.047548
-0.068595    -0.19554     0.07216     0.35203    -0.74277     -0.3067   -0.057085
-0.058729    -0.13207    0.084328     0.27836    -0.80986    -0.36556    -0.05281
-0.052481   -0.084381    0.012306     0.21851    -0.71778    -0.42246   -0.032749
-0.04689   -0.044588    -0.11694     0.16523    -0.54841    -0.48527  -0.0047949
-0.040641   -0.010386    -0.26789    0.080053    -0.40009    -0.55499    0.021843
-0.037682    0.012635     -0.4093   -0.058071    -0.32215    -0.62208    0.035656
-0.040641    0.017897    -0.52605     -0.2179    -0.31064    -0.66845    0.034669
-0.050507   0.0024402     -0.6349    -0.34221    -0.32676    -0.66648    0.022172
-0.061689   -0.038668    -0.77007    -0.38793    -0.34451    -0.59478   0.0037556
-0.069582    -0.10872    -0.92431    -0.35109    -0.35372    -0.44383   -0.010386
-0.07583    -0.21395      -1.023     -0.2692    -0.34813    -0.22349   -0.013017
-0.080763    -0.37674    -0.96969    -0.18765    -0.32544    0.036642  -0.0008485
-0.086354    -0.61452    -0.71909    -0.13897    -0.27578     0.31026     0.01987
-0.092931    -0.90195    -0.32117    -0.12845    -0.19356     0.58158    0.045193
-0.097536     -1.1792    0.094852    -0.14325   -0.082736     0.82757    0.072818
-0.096878     -1.3772     0.37702    -0.16166    0.041904      1.0052    0.096496
-0.087341     -1.4587     0.45759    -0.16594     0.15372      1.0729     0.11162
-0.07287     -1.4137     0.37636    -0.14456     0.22903      1.0229     0.11656
-0.0584     -1.2611     0.23429   -0.094576     0.26356     0.87821     0.11294
-0.051494     -1.0361     0.11524   -0.022554     0.26652     0.68451     0.10242
-0.050836    -0.78191   0.0021113    0.052099     0.24876     0.49179    0.088932
-0.048534    -0.53789    -0.24158     0.10998     0.22377      0.3346    0.076764
-0.039984    -0.33596    -0.73126     0.12807     0.20371     0.22936    0.071173
-0.026171    -0.18173     -1.4291    0.082355     0.19647     0.17575     0.07512
-0.013017   -0.065635     -2.1161   -0.036366     0.20272     0.16063    0.085972
-0.0054526    0.024803      -2.443    -0.21593     0.22607     0.16293    0.094194
-0.002164     0.10373     -2.0819    -0.41884     0.28461     0.16063    0.098798
0.0044134     0.18102    -0.95917    -0.59281     0.39478     0.14155    0.096167
0.017239     0.26882     0.63551     -0.6895     0.56316     0.10866    0.088603
0.035985     0.38097      2.0759    -0.67864     0.78153    0.067227    0.076764
0.054072     0.51547      2.9257    -0.53592      1.0144    0.020199    0.059992
0.06361     0.64603      3.0369     -0.2498      1.1824   -0.034064    0.036314
0.052099     0.72825      2.5433     0.14977      1.1831   -0.097207   0.0050711
0.016581     0.74173      1.7599     0.58355     0.94234    -0.16561   -0.036366
-0.031433     0.69931       0.992     0.94793     0.47305    -0.23007   -0.081421
-0.079777     0.61446     0.43359      1.1601    -0.10773    -0.27545    -0.11793
-0.11661     0.49212     0.13728      1.1732    -0.62635    -0.28992    -0.13404
-0.1393     0.33295    0.033683     0.99957     -0.9595     -0.2692    -0.12352
-0.14456      0.1478    0.017897      0.7095     -1.0628    -0.22283    -0.09326
-0.13503   -0.038011    0.010991     0.39544    -0.97035    -0.16791    -0.06432
-0.11529    -0.19389   -0.019923     0.12774    -0.76711    -0.12911   -0.046561
-0.092931    -0.28499   -0.076159   -0.061689    -0.54808    -0.11529   -0.041299
-0.066622    -0.29157    -0.14555    -0.17383    -0.37872    -0.12352   -0.044259
-0.038339    -0.21461     -0.1985    -0.22908    -0.27973    -0.14456   -0.050179
-0.0090702   -0.075173    -0.21494    -0.24684    -0.23171    -0.16758   -0.054125
0.017568    0.085644    -0.19192    -0.24158    -0.20705    -0.18337   -0.054125
0.039273     0.23035    -0.14719    -0.22481    -0.18271    -0.18896   -0.051494
0.052428     0.34808   -0.099509    -0.20475    -0.14621    -0.18699   -0.047219
0.053086     0.45463   -0.055769    -0.18469   -0.099509    -0.18173   -0.042944
0.048482      0.5648   -0.015648    -0.16495   -0.054454    -0.17449   -0.042286
0.046837     0.66478    0.021186    -0.14358   -0.020581    -0.16561   -0.040641
0.053086     0.73516     0.04618    -0.11595  -0.0064392    -0.15607   -0.038668
0.0692     0.77594    0.049139   -0.084052  -0.0097279    -0.14456    -0.03538
0.094523     0.80652    0.018226   -0.048205   -0.024856    -0.13108     -0.0265
0.12215     0.86506   -0.056098   -0.014332   -0.039326    -0.11201   -0.010386
0.14616     0.95155    -0.17022    0.012306   -0.038997   -0.089643   0.0093464
0.16063      1.0305    -0.29321    0.029407   -0.019923   -0.065307    0.023817
0.16391      1.0443    -0.40009    0.033025    0.012306   -0.035051    0.029407
0.1524     0.95583    -0.48363     0.02283    0.049468  -0.0024928     0.02875
0.12807     0.75555    -0.54874   0.0034268    0.082026    0.027434    0.023817
0.092221     0.47535    -0.58853   -0.022225     0.10011    0.046508    0.015924
0.05473     0.16391    -0.59676   -0.047219    0.096825    0.053743   0.0086887
0.025132     -0.1347    -0.56486   -0.065307    0.073804    0.046508   0.0044134
0.0093464    -0.39976    -0.48165   -0.074515    0.038287    0.021843    0.002769
0.0011247    -0.62734    -0.33333   -0.078461   0.0011247   -0.013345    0.002769
-0.0074258    -0.80888    -0.11727   -0.081421   -0.030775   -0.051165   -0.002164
-0.022225    -0.93713     0.12873   -0.091616   -0.054783   -0.078132   -0.011701
-0.041957     -1.0082     0.31322    -0.10839   -0.074515   -0.092603   -0.022225
-0.061689     -1.0269     0.31256    -0.12121   -0.088327   -0.094247    -0.02354
-0.074844     -1.0009    0.052757    -0.11431   -0.090629   -0.082408   -0.012359
-0.082736     -0.9424    -0.38201   -0.084052    -0.08175   -0.061031   0.0030979
-0.089643    -0.86018    -0.76645   -0.034722   -0.066293   -0.035051    0.014937
-0.097207     -0.7602    -0.89142    0.022172   -0.043272   -0.011043    0.020199
-0.10641    -0.64477    -0.70956    0.071831   -0.017292   0.0001381     0.01691
-0.1176    -0.52177    -0.34024     0.10242   0.0011247   -0.011043   0.0047422
-0.12713    -0.40864    0.024145     0.10834   0.0030979   -0.038997  -0.0080836
-0.13371     -0.3261     0.23955    0.099456   -0.010386   -0.074844   -0.014661
-0.1324     -0.2988     0.26784    0.083342   -0.031104    -0.10148   -0.012359
-0.12286    -0.32676     0.16326    0.070845    -0.04689    -0.11365  -0.0038083
-0.10674    -0.38135    0.018884    0.063281   -0.052152    -0.11036   0.0070443
-0.085367    -0.40766   -0.087341    0.061307   -0.043272    -0.09326    0.021186
-0.056098    -0.36194    -0.12286     0.06065   -0.020909   -0.064978    0.034998
-0.023211    -0.24092   -0.094576    0.059005   0.0073732   -0.030447    0.045193
0.0083598     -0.0903   -0.033406    0.050455    0.034011   0.0030979    0.049797
0.030065   0.0077021     0.02283    0.029078    0.051113    0.030723    0.047495
0.02875     -0.0265    0.052428   -0.013017    0.059334     0.04618    0.039931
0.002769    -0.22415    0.044206   -0.079448    0.054401    0.045522    0.030065
-0.044588     -0.5471   0.0040845    -0.16232    0.031381    0.028421     0.01691
-0.099838     -0.9003   -0.054125    -0.24487   -0.012688   0.0017824   0.0047422
-0.15246     -1.1795     -0.1074    -0.30571   -0.069253    -0.02354  -0.0047949
-0.19192     -1.3163    -0.13864    -0.33202    -0.10313   -0.044588   -0.013345
-0.21626     -1.2986    -0.14259    -0.33399   -0.063333   -0.057085   -0.019265
-0.23007     -1.1489    -0.11661    -0.32478    0.062294   -0.055112   -0.024198
-0.23599    -0.90885   -0.059058     -0.3011     0.23133   -0.042286   -0.024527
-0.23138    -0.61123    0.018555    -0.24421     0.35992   -0.030447   -0.018278
-0.20935    -0.27841    0.099785    -0.13009     0.35466     -0.0265  -0.0074258
-0.1666    0.065583     0.16885    0.041904     0.19187   -0.028473   0.0080309
-0.10477     0.37636     0.20601     0.23659   -0.025514   -0.025514    0.025132
-0.028144      0.5967     0.18496      0.4007    -0.12878  -0.0064392    0.040589
0.057361     0.68484     0.09551     0.49903   -0.020909    0.030394    0.050126
0.13728     0.65722   -0.050507     0.53027     0.23133    0.073804    0.054072
0.20009     0.58815    -0.21922     0.51876     0.43622     0.10768    0.054401
0.23857     0.55033    -0.36786     0.48061      0.4326     0.11886    0.051441
0.25402     0.57598    -0.45863     0.41352     0.19549      0.1057    0.045522
0.24909     0.64669     -0.4856       0.305    -0.17219    0.077093    0.035327
0.23067      0.7026    -0.46784     0.14944     -0.5152    0.050455    0.022172
0.20535     0.69931    -0.42311   -0.038011    -0.71646    0.034669    0.013951
0.18069     0.64307    -0.35142    -0.21527    -0.73685    0.033354    0.014937
0.15602     0.57303    -0.24487    -0.33103    -0.60827    0.045193    0.020199
0.12938     0.52797   -0.095891    -0.35109    -0.40042    0.069858    0.023159
0.094852     0.49114    0.079724    -0.27611    -0.18271     0.10801     0.01987
0.050455     0.42109     0.24087    -0.14062  -0.0034794     0.15372    0.013293
0.0044134      0.2948     0.33986    0.011648     0.11754     0.20667   0.0077021
-0.03242     0.12478     0.35236     0.13958     0.18496     0.25896   0.0073732
-0.058729   -0.052481     0.29184     0.22048     0.21456     0.30533     0.01691
-0.070568    -0.18271      0.1991     0.24975     0.22936     0.34084      0.0373
-0.065964    -0.21231     0.12248     0.23988     0.24284     0.35959    0.059992
-0.045574    -0.12549    0.089919     0.19812     0.25172     0.35038    0.074462
-0.014003    0.029078     0.08663     0.12445     0.24942      0.3027    0.076764
0.017897     0.18102    0.086959     0.02579     0.22443      0.2162    0.066898
0.039931     0.29086    0.068543   -0.074186     0.17214     0.10373    0.050784
0.041575     0.36485    0.019541    -0.14325     0.10077   -0.014332    0.029407
0.030723     0.43589   -0.074844    -0.16561    0.026447    -0.11727   0.0077021
0.025132     0.54178    -0.21264    -0.14719   -0.034722    -0.18567   -0.011043
0.038616      0.7072    -0.35603    -0.10641   -0.074515    -0.21955    -0.01795
0.075778     0.93807    -0.45929    -0.06728   -0.093589    -0.23533  -0.0087413
0.12774      1.2281    -0.50303   -0.048863   -0.098522    -0.24717    0.011977
0.18332      1.5636    -0.50303   -0.055112   -0.091616    -0.25408    0.036971
0.23363      1.8967     -0.4685   -0.068924   -0.064978     -0.2475    0.061307
0.27178      2.1539    -0.35997   -0.077803   -0.018278    -0.21593    0.076435
0.28987      2.2769    -0.12976    -0.07879    0.041247    -0.15509    0.077751
0.2879      2.2456     0.18628    -0.07583     0.10176   -0.072213    0.067556
0.27178      2.0773     0.47075   -0.072542     0.15142    0.014937    0.053743
0.24383      1.8096     0.62367   -0.065635     0.17773    0.085972    0.041247
0.20634      1.4781      0.6388   -0.049192     0.17806     0.12445    0.029407
0.1649      1.1111     0.59901   -0.019594     0.15536     0.12971    0.012635
0.12873     0.72628     0.60953    0.021514     0.11656     0.10538   -0.012688
0.10011     0.34084     0.72365    0.072489      0.0692    0.064267   -0.037353
0.076764   -0.022225     0.93281     0.13662    0.021843     0.01987   -0.053796
0.05473    -0.33268      1.2146     0.20436    -0.02354    -0.01795    -0.05544
0.032696    -0.57374      1.5478     0.25633   -0.063333   -0.046561   -0.048534
0.0067154     -0.7454      1.8642     0.26784   -0.098193   -0.072213   -0.043601
-0.027158    -0.86511      2.0312     0.22212    -0.13174   -0.098193   -0.049192
-0.069253    -0.95226      1.9135     0.12544    -0.16594    -0.12286   -0.065307
-0.11069      -1.017      1.4731  -0.0024928    -0.20244    -0.14095   -0.085367
-0.14621     -1.0657     0.81803    -0.12812    -0.23336     -0.1495    -0.10148
-0.16956     -1.1019     0.14056    -0.22218    -0.24783     -0.1518     -0.1074
-0.17909     -1.1262    -0.36984    -0.26888    -0.23961    -0.15279    -0.10346
-0.18238     -1.1433    -0.63293     -0.2646    -0.20606    -0.15607   -0.097864
-0.18534     -1.1644    -0.68128    -0.22218    -0.14917    -0.16627   -0.091616
-0.19948     -1.1996    -0.60235    -0.16035    -0.07879    -0.18074   -0.087998
-0.22218     -1.2486     -0.4833   -0.099838  -0.0087413    -0.18929   -0.087012
-0.24289     -1.3101     -0.3728    -0.04985    0.048153    -0.19159   -0.089972
-0.25342     -1.3801    -0.27677  -0.0047949    0.081368    -0.19521    -0.09326
-0.25243     -1.4535      -0.186    0.049468     0.07808    -0.20508    -0.09622
-0.24421     -1.5321    -0.10313      0.1159    0.044864    -0.22481   -0.098851
-0.24158     -1.6534   -0.041628     0.18167   0.0073732     -0.2498    -0.09918
-0.25046     -1.8849   -0.019265     0.21785   -0.016634    -0.27184   -0.091945
-0.27118     -2.2888   -0.040313       0.207   -0.024856    -0.27611   -0.073857
-0.29683     -2.8229   -0.092274     0.14648     -0.0265    -0.25408   -0.049192
-0.31919     -3.3609    -0.16134    0.061965   -0.025514    -0.20869    -0.02946
-0.33728     -3.7578    -0.24684   -0.012359   -0.027158     -0.1495   -0.018278
-0.34451     -3.8983    -0.35175   -0.049521   -0.033406   -0.089643    -0.01203
-0.33958     -3.7184    -0.49744   -0.046232   -0.041628   -0.041957   -0.007097
-0.31952     -3.2136    -0.71252  -0.0097279   -0.047548   -0.013017   -0.002164
-0.28565     -2.4512    -0.97495    0.040918   -0.048534   0.0030979   0.0001381
-0.24158     -1.5373     -1.1989    0.080711   -0.045903    0.011648 -0.00051963
-0.19159    -0.58229      -1.289    0.082684   -0.041628    0.024474  -0.0011774
-0.13536     0.31848     -1.2038    0.038944   -0.039984    0.046508   0.0014536
-0.07583      1.0966    -0.98285   -0.039326   -0.042286    0.077422   0.0090175
-0.016634      1.7468    -0.72271    -0.13503   -0.047219     0.11853     0.02283
0.043877       2.292    -0.52572    -0.23138   -0.049521     0.17773    0.042891
0.11689       2.763    -0.44087    -0.32149    -0.04097     0.26093    0.064267
0.20305      3.1816     -0.4366    -0.39154   -0.018607      0.3711    0.078409
0.2948      3.5506    -0.43561    -0.43199    0.010004     0.49147    0.082684
0.3757      3.8673    -0.35603    -0.43002    0.035327     0.60361    0.080053
0.43095      4.1041    -0.17416    -0.38003    0.050126     0.68484    0.076764
0.45496      4.1988    0.050455    -0.28927    0.056374     0.72628     0.07216
0.44937      4.1014     0.22475    -0.16824    0.056374     0.72134    0.068214
0.42372      3.8242     0.32473   -0.028802     0.05769     0.67267    0.064925
0.39116      3.4217     0.40563     0.11754    0.064925     0.58815    0.062952
0.35959      2.9346     0.51383     0.25139    0.075449     0.48127    0.061636
0.3267       2.392     0.61972     0.34315    0.082355     0.36683    0.063281
0.28033      1.8135     0.65162     0.36814    0.077422     0.25797    0.066569
0.21324      1.2143     0.57303     0.32506    0.058348     0.16687    0.065912
0.13267     0.60953     0.43194     0.23692    0.032696    0.096167    0.059663
0.055388    0.020199     0.32473     0.14221   0.0093464    0.050455    0.053086
-0.0054526    -0.53822     0.32539    0.076435  -0.0041372    0.021514    0.046508
-0.038668     -1.0588     0.42306    0.057032   -0.010715 -0.00019077    0.040918
-0.046232     -1.5324     0.52041    0.073147    -0.01203   -0.022883    0.036314
-0.045246      -1.952     0.50561     0.10044   -0.010057   -0.048205    0.037629
-0.054125     -2.3108     0.32506     0.11426  -0.0015062   -0.077803    0.044864
-0.079119     -2.5848    0.019541    0.097812   0.0086887    -0.11529    0.051441
-0.11464     -2.7265    -0.30078    0.050455  -0.0031506     -0.1587    0.046508
-0.15147     -2.6969    -0.52342   -0.020581   -0.076817     -0.2008    0.030065
-0.18074      -2.491    -0.59084   -0.092603    -0.22875     -0.2281   0.0044134
-0.19587     -2.1655    -0.49678    -0.13864    -0.40568    -0.23763   -0.021896
-0.19981     -1.8037    -0.28631    -0.14654    -0.51191    -0.23796    -0.04097
-0.19488     -1.4781   -0.044259    -0.11957    -0.47409    -0.23829   -0.050507
-0.18633     -1.2265     0.14254   -0.070897    -0.28927    -0.24059    -0.05544
-0.17482     -1.0315     0.22739    -0.01499   -0.023211    -0.23698   -0.057414
-0.15706    -0.83519     0.21489    0.025132      0.2241     -0.2202   -0.054454
-0.12582    -0.56749     0.14155    0.020199     0.37965    -0.18304   -0.041957
-0.077803    -0.17022    0.041575    -0.04689     0.42865    -0.12976   -0.020252
-0.014332     0.37735   -0.079448    -0.15969     0.40728   -0.069253   0.0070443
0.061307      1.0417    -0.22415    -0.27907      0.3734    -0.01499    0.030723
0.14418      1.7372    -0.39023    -0.36622     0.37011    0.020199    0.045522
0.21883      2.3436    -0.55696    -0.39779     0.38327    0.031381    0.049139
0.27211      2.7524    -0.69838     -0.3603     0.35367    0.016253    0.041247
0.29283      2.8938    -0.79671    -0.25276     0.23363   -0.019594    0.023817
0.27408      2.7514    -0.84505   -0.093589    0.033354   -0.066293   0.0021113
0.21851      2.3647    -0.84143    0.085972    -0.18863    -0.11069   -0.015319
0.14155      1.8198    -0.76777     0.24876    -0.37247    -0.14522   -0.025185
0.059992      1.2331    -0.57604      0.3711    -0.48527     -0.1735   -0.029789
-0.012359     0.72233    -0.19455     0.44608    -0.53427    -0.20146   -0.033406
-0.06728     0.37242     0.42207     0.47963    -0.53855    -0.22974   -0.040641
-0.094247     0.20108      1.1844     0.48982    -0.49382    -0.25243   -0.051165
-0.093918     0.15569      1.8694     0.48949    -0.36951    -0.26164   -0.063333
-0.073857     0.10899      2.2279     0.47239    -0.15805    -0.25342   -0.068924
-0.048863   -0.064978      2.1197     0.42503    0.091234    -0.23599   -0.067609
-0.031104    -0.39582      1.5849     0.34282      0.2902    -0.22086   -0.063333
-0.022554    -0.79704      0.8006     0.23758     0.37242    -0.21494   -0.058729
-0.016963     -1.1404    0.010662     0.12544     0.32933    -0.21626   -0.054783
-0.018607     -1.3407     -0.5665    0.024803     0.19549    -0.21889   -0.050836
-0.029789     -1.3762    -0.84012   -0.046561    0.028092    -0.21691   -0.044917
-0.051494     -1.2808    -0.84374   -0.079448    -0.10378    -0.21231   -0.032749
-0.075501     -1.1088    -0.67667   -0.073528    -0.13404    -0.20442   -0.015976
-0.091616    -0.91082    -0.45337   -0.040641   -0.044917    -0.18995   0.0011247
-0.096549    -0.71745     -0.2623   0.0014536    0.097154    -0.17219    0.014937
-0.088985    -0.53756    -0.14621    0.034669     0.18496    -0.15542    0.021186
-0.074515    -0.37576    -0.11003    0.044206     0.16227    -0.14292    0.020528
-0.057743    -0.24257    -0.13568    0.028421    0.060321    -0.13042     0.01987
-0.040641    -0.15772    -0.19258   -0.010386   -0.055769    -0.11299    0.024474
-0.021238    -0.13272    -0.25408   -0.062347    -0.14687   -0.092603    0.035985
0.0057288    -0.14785    -0.29486    -0.10247    -0.20442   -0.075501    0.052428
0.043877    -0.15443     -0.2988   -0.096549    -0.19916   -0.060373    0.069529
0.093208   -0.090958     -0.2623   -0.014003   -0.057414   -0.048205    0.083999
0.1432    0.074791    -0.19356     0.14254     0.26718   -0.037024    0.091234
0.18069     0.31092    -0.10082     0.32045     0.67695    -0.02946    0.088932
0.18989     0.52863  -0.0041372     0.42832     0.94859   -0.033078    0.077422
0.15931     0.64242     0.07512     0.39149     0.90387   -0.053467     0.05473
0.094852     0.62268     0.12379     0.21357     0.54573   -0.082408    0.021514
0.011977     0.49475     0.14385   -0.019923    0.054072    -0.10872   -0.014003
-0.066951     0.31322     0.14681    -0.20475    -0.34813    -0.11694    -0.04393
-0.12417      0.1307     0.14944    -0.27644    -0.54216    -0.10115   -0.063662
-0.15509   -0.023869     0.15734      -0.235    -0.56255   -0.069582   -0.071884
-0.16068    -0.15015     0.15865    -0.12976    -0.51618   -0.033406   -0.075173
-0.15213    -0.25671     0.11656   -0.020581    -0.49185   0.0014536   -0.073528
-0.13864    -0.34715  -0.0077547     0.04881    -0.51454    0.032696   -0.063991
-0.1268    -0.42377    -0.20475    0.054401    -0.55104    0.057361   -0.050179
-0.11595    -0.48231    -0.41752  -0.0034794    -0.55861    0.074133   -0.036366
-0.10346    -0.52046    -0.58755    -0.10543    -0.51881    0.083999   -0.021238
-0.091287     -0.5392     -0.6645    -0.21691    -0.44087    0.085644  -0.0064392
-0.082736    -0.54545    -0.64378    -0.30768    -0.34879    0.081697    0.002769
-0.082736    -0.54216    -0.56946    -0.36523    -0.26789    0.071831   0.0021113
-0.087341    -0.52737    -0.49941     -0.3876    -0.21363    0.056046  -0.0084125
-0.094247    -0.49711    -0.46554    -0.38793    -0.18732    0.035985   -0.028473
-0.09326    -0.45929    -0.45633    -0.37872    -0.18337    0.014608   -0.049192
-0.085039    -0.42509     -0.4366    -0.36523    -0.19784   -0.004466   -0.063333
-0.072213      -0.407    -0.38365    -0.34846    -0.21724   -0.019265   -0.060702
-0.060702    -0.40174    -0.31327    -0.32708    -0.22579   -0.024198   -0.045574
-0.056756    -0.40141    -0.26493    -0.29979    -0.21659   -0.018607   -0.024527
-0.0584     -0.3945    -0.25079    -0.26493    -0.18666   -0.002164  -0.0031506
-0.060373    -0.37543    -0.24454     -0.2281    -0.12976    0.023159    0.016253
-0.054783    -0.34156    -0.19225    -0.19093   -0.039984    0.054072     0.03434
-0.038011    -0.29584   -0.039984     -0.1541    0.079724    0.091234    0.048482
-0.015648    -0.24947     0.23988    -0.12417     0.21094     0.13004    0.062294
0.0050711    -0.21626     0.63025    -0.10543     0.32045     0.16523    0.072489
0.016253    -0.19981      1.0519   -0.097864     0.38294     0.18496    0.078409
0.019212    -0.19521      1.3982   -0.097864     0.38458     0.18397    0.076764
0.01987     -0.1962      1.5856    -0.09918     0.32933     0.16753    0.067556
0.018226    -0.19883      1.5843   -0.088327     0.24054     0.13826    0.053743
0.010991     -0.1985      1.4215   -0.052481     0.15109     0.10373    0.036642
0.0017824    -0.19718      1.1831    0.012306    0.093208     0.07216    0.019212
-0.004466    -0.21132     0.96536    0.096825     0.07808     0.04618   0.0070443
-0.007097    -0.25408     0.81573     0.18496    0.096496    0.031709    0.002769
-0.007097    -0.31689     0.72496     0.25961     0.12741    0.030065   0.0047422
-0.0018351    -0.37674     0.62005     0.31585     0.14813    0.039602   0.0093464
0.010333    -0.40371     0.39215     0.34709     0.15076    0.054401    0.016581
0.026119    -0.37082    -0.02354     0.34644      0.1501    0.074133    0.028421
0.04618    -0.27085    -0.56387     0.29612     0.15799    0.098141    0.043877
0.068871    -0.11924     -1.0703     0.19516     0.17444     0.13432    0.056703
0.093208    0.049468      -1.392    0.071173     0.19746     0.18726    0.064925
0.11491     0.19384     -1.4442   -0.022883     0.24186      0.2481    0.067556
0.12544      0.2754     -1.2302   -0.049192     0.32999     0.29941    0.060321
0.1205     0.26849    -0.83847   0.0024402     0.45134     0.32144     0.04881
0.099127       0.182    -0.40075     0.12708     0.56842     0.30566    0.037958
0.067556     0.05177   -0.035708     0.31585     0.64373      0.2606    0.030065
0.031381   -0.081421     0.17937      0.5181     0.67234     0.20601    0.027105
-0.0074258    -0.18633     0.22311     0.65064     0.67267     0.15898    0.029078
-0.045903    -0.25145     0.11228     0.63387     0.64373      0.1307    0.032696
-0.07879    -0.28894     -0.1051     0.45463     0.54573     0.12313    0.033025
-0.09918    -0.32511    -0.37773     0.18693     0.33361     0.12412    0.031052
-0.10707     -0.3774    -0.65398   -0.074844   0.0014536     0.12609    0.031709
-0.1005    -0.43923    -0.89372    -0.27315    -0.40897     0.12379    0.036642
-0.084052     -0.5073     -1.0661     -0.3922        -0.8     0.11721    0.043549
-0.063991    -0.58327     -1.1476    -0.44022     -1.0466     0.10603    0.050784
-0.041957    -0.65661     -1.1371    -0.43495     -1.0654    0.092221    0.056374
-0.026171    -0.70166     -1.0572     -0.3968    -0.86051    0.077422     0.05769
-0.021567    -0.68029    -0.93286    -0.34846    -0.51783     0.05769    0.050784
-0.024856    -0.55663    -0.75659    -0.30242    -0.13437    0.029736      0.0373
-0.032749    -0.31623    -0.49086    -0.25769     0.22081  -0.0061104    0.010333
-0.034064    0.042891    -0.13207    -0.19554     0.49739    -0.04985   -0.032091
-0.024527     0.48686     0.26488   -0.083065     0.65261    -0.10477   -0.079448
-0.004466     0.94333     0.62137      0.1034     0.64011    -0.17318    -0.11365
0.020528      1.3399     0.88249     0.34479     0.43687     -0.2521    -0.12911
0.046837      1.6198      1.0242      0.5727    0.087946    -0.33268    -0.12713
0.071502      1.7579      1.0591      0.7049    -0.30374    -0.39944    -0.11694
0.091563      1.7655       1.041     0.69175    -0.62372    -0.44975    -0.09918
0.10603      1.6882      1.0538     0.54704    -0.79145    -0.49086   -0.078461
0.11656      1.5856      1.1591     0.33328     -0.7875    -0.52802   -0.060373
0.12281      1.5136      1.3478     0.12445    -0.65661    -0.55499   -0.045903
0.12642      1.4998      1.5304   -0.027158     -0.4662    -0.55762   -0.028802
0.12609      1.5277      1.5869     -0.1028     -0.2771     -0.5152  -0.0090702
0.12445       1.532      1.4465    -0.11365    -0.12615    -0.41062    0.016253
0.11985      1.4406      1.1239   -0.092274   -0.025842    -0.24388    0.042562
0.11097      1.2219     0.71049   -0.071555    0.026776   -0.026829      0.0692
0.099785     0.90518     0.32407   -0.072213    0.053086     0.20798    0.092221
0.092879      0.5579    0.057032   -0.092931    0.073476     0.43095     0.10505
0.090248     0.25994   -0.084052    -0.11595    0.099127     0.63452     0.10866
0.092879    0.071173    -0.16989    -0.11891     0.12873     0.81376     0.10702
0.098798    0.014937    -0.24322   -0.086683     0.15438     0.93807     0.10307
0.1057    0.068543    -0.29288    -0.02946     0.16819     0.97326    0.098798
0.11162     0.19055    -0.33037    0.031052     0.16622     0.90222     0.09551
0.11393     0.33361    -0.40371    0.072489     0.14879     0.73318    0.091892
0.10768     0.46417    -0.55729     0.07808     0.11787     0.50528    0.085972
0.093536     0.56645    -0.78026    0.044864    0.081039     0.26981    0.076106
0.076106     0.63847    -0.99732   -0.014332    0.045851    0.070845    0.059992
0.059663     0.68056     -1.1154   -0.079777    0.018555   -0.066951    0.038616
0.048482     0.68944     -1.0707    -0.13075   0.0030979    -0.14522    0.017239
0.041904     0.66774    -0.86478    -0.15903  -0.0031506    -0.17613 -0.00051963
0.0373      0.6217    -0.56354    -0.16298  -0.0057815    -0.17416  -0.0087413
0.033025     0.55592    -0.25539     -0.1495   -0.013345     -0.1587  -0.0097279
0.026776     0.46976   -0.011043    -0.12944    -0.03538    -0.14818  -0.0064392
0.017897     0.35729     0.14056    -0.11168   -0.085039    -0.15509   -0.004466
0.0057288     0.22081     0.21226    -0.10378    -0.15476    -0.17087  -0.0061104
-0.010386    0.072489     0.23495    -0.10806    -0.21395    -0.18008   -0.007097
-0.024527   -0.065635     0.23692    -0.11497    -0.20672    -0.17416  -0.0018351
-0.028802    -0.17482     0.24087    -0.10181     -0.0903    -0.15344    0.011977
-0.024527    -0.24849     0.25172   -0.057085      0.1113    -0.12713    0.027763
-0.016305    -0.29551     0.25994    0.010004     0.29711    -0.11168    0.037958
-0.010057    -0.33531     0.25106    0.078737     0.37176    -0.12187    0.033025
-0.015976    -0.39944       0.207     0.12511     0.31059    -0.15772   0.0086887
-0.037024    -0.53624     0.11426      0.1376     0.15734    -0.20672   -0.027487
-0.065307    -0.77763   -0.023211     0.11524   -0.016634    -0.24816   -0.068266
-0.090958     -1.1012    -0.17613    0.065912    -0.14654    -0.26756    -0.10148
-0.11201     -1.4393    -0.30439  0.00046697    -0.20212    -0.25441     -0.1176
-0.13207     -1.7139    -0.38365   -0.072213    -0.18863    -0.21823    -0.11365
-0.15015     -1.8744    -0.42509     -0.1393     -0.1347    -0.17942    -0.09622
-0.16594      -1.905    -0.46192    -0.18633   -0.071884    -0.15377   -0.077146
-0.17778     -1.8155    -0.51257    -0.20606   -0.022883    -0.14522   -0.067937
-0.18271     -1.6337    -0.56584    -0.20277   0.0037556    -0.14687    -0.07024
-0.17975     -1.3837    -0.58656    -0.18699   0.0044134    -0.16134   -0.077475
-0.16989     -1.0832    -0.54677    -0.16824   -0.011043     -0.1814   -0.080434
-0.15311    -0.74869    -0.44482    -0.15607   -0.028144    -0.19981   -0.075501
-0.1324    -0.39911    -0.30176    -0.15311   -0.039655    -0.21165   -0.066951
-0.10674   -0.059387    -0.15279    -0.15114   -0.040641    -0.21363   -0.057743
-0.076817     0.24416   -0.030118    -0.14259   -0.035051    -0.20771   -0.048205
-0.04689     0.50626    0.053086    -0.12187   -0.024856    -0.19521    -0.03538
-0.015648     0.74272    0.094523   -0.089972   -0.010715    -0.18074   -0.019265
0.021514     0.98016     0.10636   -0.055112   0.0050711     -0.1689  -0.0028217
0.060979      1.2377     0.10669   -0.027816    0.015924    -0.16693   0.0063866
0.10077      1.4988     0.11031   -0.013345     0.01691    -0.17548   0.0034268
0.13464      1.7086     0.12577  -0.0084125   0.0083598    -0.19093  -0.0090702
0.15536      1.7977     0.14912  -0.0077547  -0.0057815     -0.2031   -0.021238
0.15767      1.7175     0.17049  -0.0057815   -0.023211    -0.20508    -0.02354
0.14089      1.4603     0.18167   0.0093464   -0.034393    -0.19521   -0.019265
0.10932      1.0683     0.17773    0.036642   -0.036037    -0.17778   -0.016963
0.070845     0.61052     0.15931    0.070845   -0.035051    -0.16134   -0.020909
0.032038     0.16589     0.12905    0.099785   -0.038997    -0.14851   -0.024856
-0.0011774     -0.2031    0.097154     0.11623   -0.052152    -0.13766   -0.023869
-0.028144    -0.46554    0.073147      0.1182   -0.073857    -0.13108   -0.016305
-0.048205    -0.62274    0.061636     0.11228   -0.096549    -0.13108  -0.0064392
-0.062676    -0.69969    0.063281     0.10932    -0.11233     -0.1393  0.00046697
-0.072213      -0.726    0.073476     0.11952    -0.11266    -0.14588   0.0021113
-0.077475    -0.72534    0.085644     0.13859   -0.093589     -0.1393  -0.0057815
-0.076817    -0.71153    0.098798     0.15372   -0.053138    -0.11464   -0.018278
-0.07287    -0.68785     0.10801     0.15306   0.0073732   -0.078132   -0.026171
-0.072213     -0.6576     0.11031     0.13201    0.080053   -0.034722     -0.0265
-0.074844    -0.62701      0.1034    0.097812     0.15438    0.012964   -0.017621
-0.08175    -0.60695    0.086301    0.064596     0.21785    0.066898   0.0001381
-0.088327    -0.61123    0.061636    0.039273     0.26849     0.12807    0.021843
-0.099509    -0.64247    0.032367     0.02579      0.3027      0.1968      0.0373
-0.1176    -0.69838  -0.0028217    0.023817     0.32177     0.26948     0.04322
-0.14259    -0.78125   -0.040641    0.027434     0.32243     0.34183    0.044864
-0.17087    -0.90523   -0.085367    0.031052     0.30927     0.40925    0.051113
-0.2008     -1.0759    -0.13536    0.030394     0.28264     0.47535    0.059334
-0.2304     -1.2759    -0.19028    0.023159     0.24909     0.54178    0.065583
-0.25177     -1.4633    -0.24355   0.0047422      0.2162     0.60525    0.066569
-0.25868      -1.587     -0.2817   -0.036695     0.19549     0.65097    0.059992
-0.25112      -1.613     -0.2817    -0.10872     0.19351     0.66905    0.047495
-0.22711      -1.535    -0.22579    -0.20902     0.21851     0.65623    0.039602
-0.18797     -1.3699    -0.10773    -0.32182      0.2731     0.61578    0.039602
-0.13832     -1.1542    0.041904    -0.42279       0.354     0.55395     0.04618
-0.083394    -0.91576     0.13991    -0.49283     0.44246     0.48061    0.055717
-0.027816    -0.67864    0.087946    -0.50829     0.51778     0.39544    0.059334
0.018226     -0.4685    -0.16068    -0.43989     0.56513     0.30039    0.055717
0.04618    -0.28598    -0.55203    -0.25243     0.57237     0.19614    0.040918
0.055388    -0.10148    -0.97462    0.061636     0.52304    0.085644   0.0080309
0.057361      0.1205     -1.3387     0.45759      0.4053     -0.0265   -0.034722
0.065583     0.39938     -1.6008     0.84927     0.21588    -0.12779   -0.068595
0.084986     0.73121     -1.7461      1.1285   -0.044259    -0.20244   -0.080106
0.11393      1.0887     -1.7738      1.1841    -0.36425    -0.24487   -0.071884
0.1455      1.4363     -1.6784     0.96997    -0.70495    -0.25835   -0.051823
0.17345      1.7398     -1.3696     0.55494     -0.9891     -0.2498   -0.028473
0.19713      1.9678    -0.69871    0.097483     -1.1354    -0.23204   -0.004466
0.21916      2.0832     0.36715    -0.24289     -1.1236     -0.2156     0.01691
0.23331      2.0631      1.5925    -0.39121     -1.0003    -0.20902    0.033354
0.23495      1.9122      2.6215     -0.3705    -0.84012    -0.21395    0.040589
0.22015      1.6629      3.1523    -0.26328    -0.70035    -0.22086    0.036642
0.20009      1.3738      3.0836    -0.14851    -0.60333     -0.2202    0.026119
0.17838      1.1025      2.5591   -0.070897    -0.53164    -0.21099    0.016253
0.15931     0.88052      1.8892   -0.038011    -0.46291    -0.19652    0.012306
0.13991     0.70852      1.3745   -0.031104    -0.38233    -0.18567    0.013951
0.11656     0.56579      1.1893   -0.021896    -0.29913    -0.18469    0.023817
0.086959     0.43063       1.313   0.0080309    -0.22481    -0.19455    0.035985
0.053743     0.28823      1.5695    0.059992    -0.16134    -0.21363    0.045851
0.026119      0.1353      1.7352     0.11985    -0.10839    -0.23434    0.050784
0.0057288   -0.023211      1.6603     0.17279    -0.06136    -0.24322    0.053415
-0.0047949    -0.17679      1.3304     0.20404   -0.021238    -0.23434    0.057361
-0.012688     -0.3159     0.85158     0.21259    0.013951    -0.21165     0.06065
-0.023869    -0.43101     0.37768     0.20272    0.048153    -0.18337    0.059663
-0.038011    -0.51849    0.027434      0.1797    0.080382    -0.15344    0.050784
-0.050836    -0.57604    -0.16199     0.14385     0.10932     -0.1245    0.042562
-0.060702    -0.59807    -0.22382     0.08367     0.13892   -0.094247    0.042562
-0.069911    -0.59643    -0.21856   -0.010386     0.16983   -0.068595     0.04881
-0.079777      -0.603    -0.20277    -0.13207     0.19253   -0.050836    0.055388
-0.091287    -0.63918    -0.21659    -0.25671     0.19384   -0.048205    0.057032
-0.10707    -0.71054    -0.27677    -0.35109     0.16687   -0.061689    0.049797
-0.12812    -0.81019    -0.39779    -0.38365     0.11689   -0.083723    0.036314
-0.15147    -0.93056    -0.61517    -0.34682    0.059992    -0.10082    0.017239
-0.17219     -1.0776    -0.93845    -0.26032    0.010333    -0.10148   0.0017824
-0.18863     -1.2522     -1.2765    -0.15575   -0.022883   -0.088985  -0.0077547
-0.20212     -1.4341     -1.4738   -0.070897   -0.036695   -0.070568   -0.013345
-0.21856     -1.5926     -1.4022   -0.022883   -0.033735    -0.05281   -0.020909
-0.24059     -1.7044     -1.0585  -0.0087413   -0.018936   -0.041957   -0.028802
-0.2646     -1.7609    -0.58097   -0.017292   0.0034268   -0.039326   -0.034393
-0.28663     -1.7646     -0.1712   -0.034722    0.026776   -0.045574   -0.035708
-0.29518     -1.7231  -0.0018351   -0.053796    0.043877   -0.055112   -0.036037
-0.284     -1.6373    -0.11694   -0.076159    0.046508    -0.06136   -0.036037
-0.25671     -1.5094    -0.44153    -0.10674    0.035985   -0.057743   -0.036366
-0.22218     -1.3624    -0.83387    -0.14391     0.01691   -0.041957   -0.037353
-0.1883     -1.2298     -1.1571    -0.18271  -0.0064392   -0.019594   -0.038997
-0.15772     -1.1315     -1.3285    -0.21461   -0.032091   0.0001381   -0.038997
-0.13305     -1.0585     -1.3242    -0.22941   -0.054454    0.018555   -0.035708
-0.10641    -0.98252     -1.1611    -0.22316   -0.068924    0.041904   -0.030447
-0.068266    -0.86182    -0.87202    -0.18403    -0.06728    0.079724   -0.024198
-0.016634    -0.66417    -0.48395    -0.10115   -0.034393     0.13958   -0.017621
0.041247    -0.38069   -0.024527    0.019541    0.037958     0.21785  -0.0097279
0.096825   -0.023211     0.45924     0.15043     0.14024     0.30368   0.0021113
0.14747     0.36123     0.88216     0.25567      0.2389     0.37505    0.021514
0.1922     0.71444      1.1387     0.30072     0.29283     0.41221    0.044864
0.23166      1.0032       1.142     0.27474     0.27145     0.40333    0.062294
0.26718      1.2275     0.88709     0.18693     0.18233      0.3563    0.071173
0.29908       1.411     0.47371    0.069529     0.07808     0.28921    0.071831
0.32309      1.6027    0.051441   -0.033406    0.040918     0.21752    0.069529
0.33953      1.8517     -0.2498   -0.083723     0.13596     0.15503    0.067227
0.35236      2.1838    -0.37313   -0.062347     0.36913     0.10735    0.061636
0.35926      2.6021    -0.34024    0.017897     0.65393    0.077422     0.04881
0.35071      3.0691    -0.22053     0.11754     0.84566    0.053743    0.023817
0.32769      3.4891   -0.095562     0.18463     0.82855    0.023159  -0.0084125
0.29941      3.7617   -0.022883     0.18825     0.58782   -0.020909   -0.041957
0.28132       3.841   -0.024856     0.13991     0.20765   -0.074186   -0.069582
0.28527      3.7453   -0.078132    0.080382    -0.17975    -0.12845   -0.083723
0.30763      3.5338    -0.13404    0.040918    -0.46587    -0.17778   -0.085696
0.33197      3.2576    -0.16101     0.02875     -0.6086    -0.21889   -0.078132
0.33854      2.9461    -0.16166    0.038616    -0.62043    -0.24783   -0.070568
0.31486      2.6258    -0.16528    0.062294    -0.54381     -0.2623   -0.063991
0.26849       2.321    -0.21363    0.091234     -0.4264    -0.26131   -0.054783
0.21423      2.0575    -0.32215     0.11491    -0.30143    -0.24092   -0.041628
0.1672      1.8609    -0.47442     0.12511     -0.1837    -0.19554   -0.025842
0.13464      1.7227    -0.62274     0.11228    -0.07287    -0.12582   -0.011372
0.11754      1.5889    -0.71712    0.073804    0.036971   -0.037682   0.0017824
0.11426      1.3991    -0.72765    0.013293      0.1432    0.058019    0.012964
0.11754      1.1262    -0.65825   -0.056756     0.22903      0.1478    0.019541
0.12017     0.79008    -0.54348     -0.1222     0.27869     0.21883     0.01691
0.11426     0.44542    -0.41752    -0.17153     0.28461     0.26126   0.0017824
0.098469     0.13629     -0.3067    -0.19685     0.25271     0.27211   -0.022883
0.072489     -0.1518    -0.23171    -0.19093     0.19976     0.25369   -0.050507
0.038944    -0.45205     -0.1666    -0.15476     0.14484     0.21489   -0.073857
0.0017824    -0.77106   -0.047548     -0.1074     0.10307     0.17246   -0.089314
-0.033735     -1.0749     0.15536   -0.064978    0.083013      0.1353   -0.090629
-0.063333     -1.3163     0.39905   -0.035708    0.066569     0.10735   -0.083065
-0.083065     -1.4541     0.62104   -0.017621    0.020857    0.082355   -0.068924
-0.093918     -1.4653     0.79008 -0.00051963   -0.085367    0.056374   -0.052481
-0.090958     -1.3518     0.90617    0.027434    -0.25934    0.034669   -0.036366
-0.077146     -1.1368     0.97622    0.071173     -0.4708    0.017897   -0.022225
-0.058071    -0.86972     0.97753     0.12215    -0.64839   0.0057288   -0.014332
-0.041957    -0.61813     0.87197     0.16095    -0.71318   -0.004466    -0.01203
-0.038668    -0.44613     0.63419      0.1603    -0.63721   -0.025514   -0.011043
-0.055769     -0.3945     0.30533     0.10801    -0.45732   -0.067609   -0.010715
-0.085696    -0.46488   -0.012359     0.02283    -0.24849    -0.12483  -0.0077547
-0.11727    -0.61945    -0.22481    -0.05544   -0.076488      -0.186  -0.0047949
-0.14719    -0.80033    -0.29617   -0.091945    0.025132    -0.23303  0.00079584
-0.16923     -0.9641    -0.23138   -0.081092    0.059005    -0.25408   0.0096753
-0.17646     -1.0871   -0.064978   -0.040641    0.046837    -0.24881    0.019212
-0.16857     -1.1647     0.15043   0.0086887    0.018884    -0.22579    0.025132
-0.15081     -1.2154      0.3494    0.047824  -0.0041372    -0.19554    0.027763
-0.137     -1.2607     0.46581    0.068543   -0.013345     -0.1643    0.031709
-0.1347     -1.3068      0.4668    0.067885  -0.0054526    -0.13272    0.036642
-0.14752     -1.3449     0.35762    0.047166    0.017239    -0.10017     0.04026
-0.17153     -1.3703     0.17806   0.0090175     0.04322   -0.068924     0.04322
-0.19685     -1.3814   -0.021238   -0.042615    0.065254    -0.04097    0.050455
-0.21823      -1.386    -0.19751    -0.09918    0.086959   -0.014332     0.05769
-0.23204     -1.3864    -0.31821    -0.14818     0.10866    0.010662     0.06065
-0.23829     -1.3821    -0.37444    -0.17515     0.13103    0.030394    0.061965
-0.23961     -1.3732    -0.37346    -0.17087     0.14912    0.041904     0.06361
-0.24026     -1.3637    -0.33662    -0.13503     0.16128    0.045851    0.063281
-0.24158     -1.3683    -0.28795   -0.073857      0.1649     0.04881    0.053743
-0.24651     -1.4252    -0.24783   -0.002164     0.16063     0.05473    0.039273
-0.25342     -1.5982    -0.23566     0.05769     0.15438    0.062623    0.027763
-0.25835      -1.906    -0.26065    0.088275     0.15405    0.070187    0.024803
-0.25802     -2.2944    -0.31985    0.080711     0.16227    0.070516    0.028421
-0.25079     -2.6588    -0.39516    0.031052     0.16753    0.062952    0.030723
-0.23763     -2.8883    -0.47047   -0.055769     0.16063    0.048153    0.028092
-0.22218     -2.9186    -0.53197    -0.16298     0.14221    0.028421    0.021186
-0.21231     -2.7462    -0.56847       -0.26      0.1159   0.0014536    0.013951
-0.2133     -2.4167    -0.56716    -0.31755    0.078737   -0.028473   0.0063866
-0.21955     -2.0033    -0.52177    -0.31722    0.030723   -0.056756   -0.004466
-0.22612     -1.5791    -0.44153    -0.26263   -0.022883   -0.082079   -0.022225
-0.22481     -1.1861    -0.34813    -0.17219   -0.074844    -0.10905   -0.050836
-0.21428    -0.82598    -0.26526   -0.075501    -0.11299    -0.13503   -0.082408
-0.19093    -0.47672    -0.21395   0.0057288    -0.12878    -0.14983     -0.1028
-0.16134    -0.11957    -0.21165    0.060979    -0.12121    -0.15081    -0.10773
-0.13075       0.256    -0.25572    0.093536   -0.099838     -0.1416   -0.097207
-0.10148     0.64143     -0.2988     0.11491   -0.074844    -0.13075   -0.079777
-0.068266      1.0157    -0.25769     0.12642   -0.054454    -0.12056   -0.059716
-0.027816      1.3511   -0.081421     0.12807   -0.045246     -0.1051   -0.039655
0.021843      1.6159     0.19285     0.11754   -0.049521   -0.080106   -0.026829
0.079066       1.778     0.45595    0.096496   -0.060045   -0.050507   -0.021896
0.14287      1.8191     0.60624      0.0692   -0.070897   -0.022225   -0.021896
0.20535      1.7566     0.60525    0.045851    -0.07879  -0.0034794    -0.02354
0.25896      1.6297     0.47371    0.037629    -0.08175   0.0080309   -0.027158
0.29743      1.4646      0.2629    0.050784   -0.080434    0.014279    -0.03242
0.31223      1.2597    0.027763    0.087946   -0.076159    0.015266   -0.034722
0.30204     0.99924    -0.18337     0.13991    -0.07024    0.019541   -0.028144
0.27047     0.69175    -0.34353     0.19647   -0.063662    0.031052   -0.011701
0.22508     0.39083    -0.43134     0.24284   -0.051165    0.052428   0.0093464
0.17345     0.16424    -0.45238     0.26553    -0.03242    0.078737    0.028092
0.12379    0.032367    -0.41423     0.24021   -0.010386     0.10538    0.037629
0.087288   -0.026171    -0.27118      0.1455    0.015924     0.12938    0.039273
0.072489    -0.04393    0.040589   -0.020252    0.051441      0.1432    0.035327
0.076764   -0.040313     0.49771    -0.22053      0.1034     0.14254    0.028092
0.088275   -0.021238     0.97852    -0.40042     0.17641     0.12741    0.022172
0.092221    0.012306      1.3436    -0.51717     0.26126    0.094852    0.017568
0.081039    0.062623      1.5064     -0.5392     0.31454    0.038616    0.014937
0.059992     0.13563      1.4468    -0.44942     0.27836   -0.038997    0.011648
0.041904     0.23594      1.2173    -0.25276       0.133    -0.13272   0.0017824
0.036314     0.35236     0.91242    0.014937   -0.083394      -0.235   -0.016963
0.039931      0.4668     0.62564     0.29809    -0.30439    -0.34221   -0.039326
0.043549     0.56908     0.41616     0.53093    -0.47179    -0.44877   -0.057085
0.043549     0.66807     0.28691     0.66313    -0.55959    -0.55696   -0.064978
0.040918     0.79008     0.20963     0.67629    -0.56387    -0.66417   -0.059058
0.037958     0.94333      0.1478     0.57566    -0.47442    -0.74935   -0.042286
0.033683      1.0956    0.074462     0.39873    -0.29058    -0.77994   -0.021238
0.032367      1.1844   -0.011701     0.19943   -0.075501    -0.73061   0.0024402
0.033354      1.1541   -0.091616    0.028092    0.065912     -0.6007    0.023817
0.031381     0.99069    -0.14423   -0.091616    0.089919    -0.40897    0.035656
0.018884     0.72693    -0.16495    -0.15739    0.080053     -0.1712    0.034998
-0.0028217     0.42799    -0.18041    -0.17778     0.18102    0.095181    0.028421
-0.029789     0.15799    -0.22185    -0.15838     0.45102      0.3688    0.028092
-0.058729   -0.048205    -0.31163    -0.10115     0.77528     0.63748    0.036314
-0.084052    -0.18765    -0.44975   -0.010386       0.943     0.88117    0.047495
-0.10477    -0.28039    -0.61484    0.090577     0.81869      1.0601    0.049139
-0.12253    -0.35372    -0.77171     0.17575     0.43983      1.1305    0.041247
-0.13634    -0.42542    -0.88813     0.22114    -0.02946      1.0752    0.027763
-0.14259    -0.48955    -0.93385     0.21193    -0.41029     0.91899     0.01132
-0.13832    -0.53164    -0.88846     0.15372    -0.60892     0.71411  -0.0031506
-0.12417     -0.5392     -0.7431    0.063938    -0.62471     0.51778   -0.010715
-0.10839     -0.5129    -0.51059   -0.022554    -0.52046     0.36321  -0.0067681
-0.099509    -0.46455    -0.22448   -0.076159    -0.36556     0.25369   0.0040845
-0.097207    -0.41128    0.058676   -0.083394    -0.21001     0.18332    0.018884
-0.094905    -0.37082     0.27606   -0.048534   -0.078132     0.14024    0.035656
-0.088656    -0.34353     0.35729   0.0086887    0.010662     0.11393    0.048482
-0.074515    -0.31722      0.2435    0.051441    0.028421     0.08663     0.05473
-0.058729    -0.27743   -0.074515    0.048153    -0.05281    0.050126     0.05473
-0.043601    -0.20935    -0.50533   -0.011701    -0.23138   0.0034268     0.05177
-0.028144    -0.11661    -0.88616    -0.11135    -0.42903   -0.044917     0.04618
-0.0057815   -0.013674     -1.0555    -0.22152    -0.53789   -0.083394    0.036971
0.02283    0.085644    -0.91872    -0.31097    -0.49579     -0.1074    0.026447
0.056374     0.18266    -0.45699      -0.358    -0.31985    -0.11891    0.013951
0.092221      0.2948     0.24646    -0.34813   -0.094576    -0.12319   0.0040845
0.12313     0.43359      1.0107     -0.2771    0.073147    -0.12253   -0.002164
0.14287     0.59802      1.6418    -0.15377     0.12346    -0.11595  0.00079584
0.15503     0.77824      2.0391   0.0001381    0.090248    -0.10444    0.013293
0.16983     0.95352      2.2065     0.15734    0.064596   -0.087012    0.030065
0.18693      1.1025      2.1592     0.28362     0.11853   -0.061689    0.045193
0.20009      1.2068      1.8283     0.35203     0.24251   -0.031433    0.052099
0.20042      1.2413      1.1459     0.35203     0.36452  -0.0080836    0.045522
0.18167      1.1841     0.19779     0.28165     0.41517  -0.0008485    0.026447
0.14813      1.0318    -0.69706     0.14813     0.37274   -0.014003   0.0037556
0.11031     0.80817     -1.1999   -0.020581     0.26389    -0.04393   -0.015319
0.077093     0.54902     -1.2167    -0.18633     0.13695   -0.079777   -0.028802
0.049139     0.27672    -0.89142    -0.30505    0.032038    -0.11003   -0.033735
0.026776  -0.0064392    -0.47475    -0.35767   -0.025514    -0.12878   -0.028802
0.0067154    -0.28598    -0.16956    -0.34451   -0.036037    -0.12746   -0.017292
-0.011372    -0.53361  -0.0047949     -0.2748   -0.012688    -0.10609   -0.007097
-0.022554     -0.7066     0.11064    -0.17022    0.030723   -0.075501  -0.0038083
-0.023869    -0.77369     0.28198   -0.065307    0.096825   -0.043601   -0.004466
-0.014661    -0.72765     0.53455 -0.00051963     0.17904   -0.016305  -0.0064392
-0.0015062    -0.58985     0.78712 -0.00051963     0.24778  0.00046697  -0.0097279
0.0080309    -0.39615     0.91439   -0.067609     0.26455 -0.00051963    -0.01499
0.0086887    -0.18238     0.84763    -0.17942     0.19614    -0.01795    -0.02354
0.0011247    0.024803     0.60065    -0.30012    0.035327   -0.045246   -0.033735
-0.0097279     0.20206     0.26093    -0.39056    -0.15476    -0.07287   -0.040313
-0.015648     0.33788    -0.07024    -0.42739    -0.23566   -0.095233   -0.043272
-0.010057     0.43819    -0.32445    -0.39187    -0.10181    -0.11102   -0.043601
0.0086887     0.52041    -0.47902    -0.26822     0.21522    -0.13042   -0.039326
0.033683     0.59999    -0.53592   -0.060373     0.54112     -0.1643   -0.031433
0.056703      0.6832    -0.51421     0.18365     0.67465    -0.21264   -0.021896
0.07216     0.76344    -0.44186     0.38458     0.51909     -0.2623   -0.013674
0.080382     0.82625    -0.35043     0.47798     0.12642    -0.30341  -0.0093991
0.081368     0.83908    -0.26526     0.44838    -0.34221    -0.32643  -0.0087413
0.074462     0.75949    -0.20113     0.33131    -0.71811      -0.333  -0.0067681
0.058676     0.55033    -0.15772     0.18562    -0.90359    -0.33498  -0.0011774
0.033683     0.19845    -0.14292     0.06624    -0.89175    -0.33366   0.0011247
-0.0054526    -0.26296    -0.18008      0.0054    -0.74442    -0.32873  -0.0015062
-0.051823    -0.74738    -0.29124  -0.0018351     -0.5471    -0.31886  -0.0038083
-0.096878     -1.1601    -0.45962    0.024145    -0.36622    -0.29847  -0.0028217
-0.13305     -1.4357    -0.63227    0.050455    -0.23336     -0.2623   0.0021113
-0.16199     -1.5478    -0.75395    0.056374    -0.14785    -0.21428   0.0080309
-0.18534     -1.5084    -0.79177    0.031381   -0.091945    -0.16298    0.010004
-0.2031     -1.3449    -0.75363   -0.012688   -0.046561    -0.11694   0.0050711
-0.21264     -1.0943    -0.66615   -0.057743  0.00079584   -0.086354   -0.011043
-0.20968    -0.80098    -0.55696   -0.091945    0.050455   -0.076159   -0.038011
-0.19422    -0.49941    -0.44646    -0.11398    0.094852   -0.080434   -0.065307
-0.1643    -0.21626    -0.33827    -0.13404     0.12412   -0.086354   -0.074844
-0.11365    0.054072    -0.22448     -0.1518     0.12938   -0.081092   -0.062018
-0.041299     0.34019    -0.09326    -0.15443     0.11656   -0.053138   -0.028802
0.043877     0.66971    0.036971     -0.1176     0.10373   0.0030979    0.018226
0.12609      1.0219     0.12412   -0.022883     0.11228    0.077422    0.067885
0.19746       1.339     0.14681     0.13399     0.15142     0.15471     0.10735
0.25304      1.5609     0.11985     0.32078     0.20864     0.21818     0.13004
0.29447      1.6626     0.08663      0.4816       0.256     0.26619     0.13991
0.31618      1.6392    0.083013     0.56316     0.27441     0.30631     0.14418
0.31848      1.4912     0.11228     0.54968     0.25961     0.34315     0.14681
0.29908      1.2324     0.15405     0.45693     0.22245     0.37834     0.14648
0.25797     0.90025     0.18102     0.32539     0.18266     0.41122     0.14418
0.19812     0.53784     0.17773     0.19253     0.15503     0.43556     0.13563
0.12577     0.18924     0.14056     0.07808     0.14287     0.45036     0.12248
0.049797   -0.098522    0.077751   -0.010715     0.13333     0.45102     0.11064
-0.017292    -0.28959   0.0080309   -0.078461     0.11261     0.42898     0.10274
-0.06728     -0.3774    -0.05281    -0.12878     0.07216     0.38327     0.10011
-0.096549    -0.37214   -0.095891    -0.16758    0.017239      0.3221    0.099456
-0.10773    -0.29683    -0.12319    -0.19718   -0.037024     0.25205    0.094852
-0.1074    -0.17909    -0.13503    -0.21395   -0.076159     0.18266    0.083013
-0.097207   -0.040313    -0.13503    -0.21527   -0.093589     0.12017    0.067556
-0.079448     0.12281    -0.12319    -0.19817   -0.090629    0.068871    0.056046
-0.056427     0.30664    -0.10641    -0.16594   -0.069911    0.032367    0.056703
-0.033735     0.47108   -0.087669    -0.13009   -0.035051   0.0060577    0.068871
-0.011701     0.56842   -0.063004    -0.10017   0.0070443   -0.013017    0.087617
0.0063866     0.57566   -0.018936   -0.079448    0.045193   -0.033078     0.10768
0.016581     0.50955    0.052099   -0.067609    0.068214   -0.058729     0.12182
0.018884     0.41089     0.13695   -0.059387    0.076435   -0.090629     0.12577
0.01691     0.31717     0.20897   -0.054454    0.077093    -0.12549     0.12182
0.014279     0.24975     0.24712    -0.05281    0.073147    -0.15739     0.11064
0.010333     0.20732     0.25271    -0.04985    0.062294    -0.18501     0.09255
0.0060577     0.17773     0.24712   -0.041299    0.044535    -0.20869    0.071831
0.0017824      0.1432     0.24975   -0.026171    0.027105    -0.22744    0.052099
-0.0038083    0.087617     0.26948  -0.0087413    0.011977    -0.23829    0.033025
-0.016305   0.0024402     0.30796    0.022172   0.0060577    -0.24158    0.015595
-0.038997    -0.10839     0.35959    0.080382   0.0077021    -0.24487   0.0021113
-0.067937     -0.2281     0.41089     0.17016    0.017239    -0.25112  -0.0061104
-0.094576    -0.33202     0.44378     0.26356     0.03434    -0.25112  -0.0067681
-0.10905    -0.40338     0.43852     0.32637    0.057032     -0.2373  -0.0008485
-0.10444    -0.43495     0.37834     0.33197    0.080382    -0.20606    0.010333
-0.083065    -0.44153     0.25238     0.27869    0.092221    -0.15903    0.022172
-0.055769     -0.4412    0.051441     0.18167    0.081697    -0.10609    0.028092
-0.035708    -0.45337    -0.21922    0.073804    0.050784   -0.053138    0.027105
-0.03242    -0.48428     -0.5221   -0.015319    0.011977  -0.0018351     0.02283
-0.040641       -0.53    -0.79112   -0.072213   -0.025185     0.04322    0.017897
-0.052481    -0.57637    -0.95489    -0.10115    -0.06136    0.080382    0.013293
-0.060045    -0.60991    -0.97693    -0.12121   -0.098851     0.10998   0.0050711
-0.06728    -0.62175    -0.86676    -0.15575    -0.13667     0.13333  -0.0054526
-0.07583     -0.6109    -0.67174    -0.21527    -0.16232     0.15207   -0.019923
-0.082079    -0.58919     -0.4685    -0.29683    -0.16495     0.17312   -0.030447
-0.080763    -0.56814    -0.34123    -0.38135    -0.14489     0.20075   -0.034722
-0.072213    -0.55861    -0.34747    -0.44581    -0.11102     0.23298   -0.031104
-0.058729    -0.56288    -0.49152    -0.47179   -0.071226     0.26521   -0.024856
-0.046561    -0.57768    -0.72041    -0.45863   -0.031433     0.28823   -0.015319
-0.036695    -0.60169    -0.95095    -0.40864 -0.00051963     0.29119  -0.0057815
-0.032091    -0.62899     -1.1062    -0.31294   0.0037556     0.27737   0.0034268
-0.034722    -0.65069     -1.1423    -0.16166   -0.037682     0.25402   0.0093464
-0.039984    -0.65825     -1.0618    0.026447    -0.12023     0.22936    0.012635
-0.041957    -0.64642    -0.89537     0.20206    -0.21198      0.2093    0.015924
-0.036695     -0.6178    -0.62339     0.31717    -0.28532     0.19581    0.018226
-0.027158    -0.58689    -0.16956     0.36091    -0.32347     0.17937     0.01691
-0.020909    -0.58393     0.50133       0.354    -0.31623     0.15306     0.01132
-0.023869    -0.62208      1.2844     0.32506    -0.26328     0.11261  -0.0011774
-0.034722    -0.69344      1.9687      0.2925    -0.17909    0.061307   -0.027158
-0.053467     -0.7898      2.3499     0.26356   -0.075501   0.0017824   -0.064978
-0.087998    -0.93713      2.3397     0.22607    0.068871   -0.062347    -0.10674
-0.14226     -1.2121      2.0095     0.15865     0.26718    -0.12746    -0.14687
-0.21034     -1.6567      1.5399     0.06065     0.46022    -0.19521    -0.18173
-0.27512     -2.1954      1.1022   -0.035708     0.53553    -0.26164    -0.20639
-0.32281     -2.6759     0.78547   -0.091287     0.40399    -0.32248    -0.21659
-0.34353      -2.963     0.58684   -0.093918    0.055717    -0.36852    -0.21395
-0.333     -2.9929     0.44904   -0.065307    -0.40832    -0.38661    -0.20475
-0.29124     -2.7597     0.32309   -0.035708    -0.78487    -0.37082    -0.18732
-0.22974     -2.3167     0.18693   -0.015319    -0.86939     -0.3284    -0.16265
-0.16693     -1.7508    0.052757  -0.0011774    -0.57209    -0.27611    -0.13174
-0.11299     -1.1706   -0.053796     0.01691  -0.0087413    -0.23632   -0.094905
-0.07024    -0.65727    -0.11562    0.038287     0.54014    -0.22053   -0.055769
-0.03538    -0.21428     -0.1222    0.050784     0.81244    -0.23303   -0.021238
0.0017824     0.19746    -0.08471    0.044535     0.70655    -0.26526   0.0030979
0.045851     0.61183   -0.030118     0.01691      0.3096    -0.30505    0.011977
0.094523      1.0456    0.015595   -0.022883    -0.17581    -0.34123   0.0040845
0.14418      1.5096    0.039273   -0.058071    -0.55137    -0.36392   -0.015319
0.19154      2.0174    0.032367   -0.069911    -0.72436    -0.35833   -0.035708
0.22969      2.5692   -0.007097    -0.04985    -0.70331    -0.31985   -0.048534
0.25698      3.1267   -0.082736   -0.004466    -0.55762    -0.25506   -0.048534
0.27474      3.6058    -0.19948    0.049797    -0.36852    -0.17942   -0.040313
0.28428      3.9035    -0.34057    0.098798    -0.19587    -0.10313   -0.026829
0.28625      3.9327    -0.47771     0.13169   -0.068595   -0.024856  -0.0090702
0.28033       3.668    -0.57867     0.15142    0.017568    0.059334    0.010662
0.26093      3.1602    -0.62899      0.1626    0.081697     0.15898    0.025132
0.22936       2.516    -0.64082     0.16589     0.13662     0.26455    0.032367
0.18792      1.8451    -0.63622     0.15701     0.18365     0.35696    0.032696
0.14155      1.2285    -0.62997     0.12905     0.21588     0.41879    0.035327
0.099456      0.7026     -0.6178     0.07216     0.22739     0.43589     0.04618
0.062952     0.28592    -0.55762   -0.014661     0.21851     0.40596    0.061965
0.034998   -0.024856    -0.37707    -0.12121     0.19253     0.33657    0.073147
0.018555    -0.23796   -0.045246    -0.22053     0.16326     0.24416    0.079724
0.013622    -0.36589     0.38393    -0.28203     0.14254     0.14714    0.078409
0.013951    -0.41752     0.78218    -0.28795     0.13728    0.062952    0.071502
0.012964    -0.38595      1.0065    -0.24257     0.14287  -0.0024928    0.064596
0.0083598     -0.2646     0.97194     -0.1712     0.14879   -0.053467    0.054072
-0.0018351   -0.055112     0.67497    -0.10937     0.13958    -0.10214     0.04026
-0.012688     0.22179     0.19746   -0.080763     0.11623     -0.1518    0.028092
-0.016963     0.52698    -0.30965   -0.085367     0.08663    -0.20179    0.023159
-0.0093991     0.81244     -0.7066    -0.10707    0.057032    -0.24125    0.023817
0.01132      1.0387    -0.94338    -0.13075    0.036642    -0.26164    0.029078
0.04026      1.1808     -1.0407    -0.14917    0.030723    -0.26197    0.041247
0.068214      1.2337     -1.0299    -0.15607    0.041247    -0.24322    0.057032
0.091892      1.2045    -0.91839    -0.14391    0.064267    -0.21132    0.064925
0.1136      1.1058    -0.68983    -0.10609     0.10176    -0.16923    0.059663
0.13629     0.96208    -0.33366   -0.034393     0.15372    -0.11891    0.047166
0.16161     0.79304     0.12642    0.066569     0.21061    -0.06728    0.038616
0.18463     0.60854     0.59605     0.18069     0.25797   -0.019265     0.04026
0.19581     0.40991     0.94859     0.27573     0.28165    0.017239    0.045193
0.18036     0.19877      1.1055     0.32144      0.2708     0.04026    0.047495
0.13662   -0.015976      1.0578     0.29974     0.22245    0.049139    0.038944
0.075449    -0.22481      0.8325     0.21686     0.14813    0.044206    0.018884
0.0067154    -0.41391     0.47108      0.1011    0.059992    0.027105   -0.010057
-0.055769    -0.57834 -0.00019077   -0.010386   -0.025185   0.0090175   -0.042944
-0.10477    -0.72337    -0.57308   -0.086354     -0.0903    0.002769   -0.069911
-0.1393    -0.85327     -1.2012     -0.1176    -0.12878   0.0096753   -0.081421
-0.16364    -0.96936     -1.7399    -0.11529    -0.15081     0.01987   -0.081421
-0.18107      -1.071     -1.9875   -0.093918    -0.16528     0.02875   -0.079448
-0.18896     -1.1473      -1.805   -0.063333    -0.17712      0.0373   -0.080434
-0.18271     -1.1677     -1.1969   -0.029789    -0.18107    0.052099   -0.078132
-0.15903     -1.1045    -0.31031   0.0086887    -0.16923    0.069529   -0.066293
-0.12417     -0.9516     0.60723    0.058019     -0.1393    0.084986   -0.047877
-0.088327    -0.73751      1.2988     0.11985   -0.094247    0.098798   -0.021238
-0.056098    -0.50073      1.6145     0.18299   -0.047219     0.11327   0.0086887
-0.033078    -0.28236       1.532     0.23166   -0.010057     0.12774    0.034669
-0.018278    -0.11661      1.1857     0.24909    0.011977     0.13563    0.042891
-0.010386    -0.02354     0.82296     0.23199    0.019541     0.12873    0.031709
-0.0084125  -0.0034794     0.67234     0.18628    0.017239     0.10538     0.01132
-0.0077547   -0.041628      0.7835     0.12248   0.0093464    0.073804  -0.0097279
-0.004466    -0.11233     0.99891    0.045193   0.0034268     0.04322   -0.028802
-0.0034794    -0.19554      1.1038   -0.041957    0.012306    0.021514   -0.042615
-0.0077547    -0.28992     0.96339    -0.12713    0.036314    0.013293   -0.052152
-0.02354    -0.41917     0.58388    -0.18205    0.070187    0.013622   -0.054454
-0.049521    -0.60728    0.079395    -0.18041     0.11689    0.012964   -0.057743
-0.083394    -0.84801    -0.40766     -0.1176     0.20075     0.01132    -0.06432
-0.11858     -1.0953    -0.76711   -0.011043     0.32999    0.011977   -0.069253
-0.15213     -1.3045    -0.95621    0.090577     0.45792   0.0073732   -0.071226
-0.17877     -1.4456    -0.97693     0.12708     0.51218  -0.0061104   -0.074186
-0.19422     -1.5051    -0.86544    0.077093     0.47141   -0.028802   -0.080434
-0.18995     -1.4893    -0.66944   -0.024856     0.36485   -0.054454   -0.083723
-0.16561     -1.4061    -0.43495    -0.13568     0.20864   -0.076488   -0.076159
-0.12319      -1.266    -0.18666    -0.23763  -0.0011774   -0.089314   -0.063004
-0.069582     -1.0795    0.064596    -0.33629    -0.25046   -0.092274   -0.047877
-0.011701    -0.86149     0.31848    -0.42673    -0.48823   -0.084052   -0.036366
0.041247    -0.63951      0.5602    -0.49415    -0.65595   -0.067937   -0.025185
0.082026    -0.44219     0.73812    -0.52901    -0.71285   -0.046561   -0.014003
0.10274    -0.29551     0.78284    -0.55302    -0.63359   -0.025842  -0.0028217
0.098141    -0.21889     0.65031    -0.59807    -0.40305   -0.014003   0.0034268
0.069529    -0.19554     0.37636    -0.65365   -0.057743   -0.018936  -0.0015062
0.031709    -0.19093    0.059663    -0.65464     0.30138    -0.04097   -0.016963
0.00079584    -0.18074    -0.19422    -0.54184     0.56283   -0.073528   -0.038668
-0.013345    -0.16495    -0.33004    -0.31656     0.66445    -0.10674   -0.059716
-0.010057    -0.15509    -0.35438   -0.019594      0.5773    -0.12878   -0.074844
0.0047422    -0.15706    -0.31196     0.31914     0.30697    -0.13503   -0.079119
0.018884    -0.16561    -0.25408     0.68484   -0.097864    -0.13075   -0.074844
0.025132    -0.16528     -0.2156      1.0473    -0.55203    -0.11793   -0.069582
0.019541     -0.1393    -0.20475      1.3498    -0.96246    -0.10181   -0.063662
0.0083598    -0.07583    -0.21132      1.5188     -1.2535   -0.083723   -0.057414
-0.0024928    0.029407     -0.2202      1.4922     -1.3926   -0.060373   -0.050179
-0.0080836     0.17542    -0.22053      1.2686     -1.3893   -0.028802   -0.045903
-0.0054526     0.35005    -0.21691     0.90946     -1.2719     0.01132    -0.04393
0.00046697     0.51843    -0.23632      0.5181      -1.073    0.050784   -0.036695
0.0021113      0.6457    -0.31327     0.18957     -0.8319    0.080382   -0.024856
-0.0008485      0.7243    -0.45238   -0.025842    -0.59084    0.096496   -0.010057
-0.0051238     0.77955    -0.61353    -0.13272    -0.38299    0.097483   0.0030979
-0.0084125     0.83612    -0.72732    -0.16561    -0.22119    0.090248    0.015924
-0.01499     0.88183    -0.74442    -0.16397     -0.1051    0.089261    0.030065
-0.028802     0.87361    -0.65497    -0.16101   -0.017621      0.1011     0.04881
-0.053138     0.76837    -0.47639    -0.17022    0.055059      0.1284    0.068543
-0.085039     0.56612    -0.25408    -0.18863     0.12248     0.15832    0.080711
-0.11661     0.31092   -0.041299    -0.20902     0.18463     0.18069    0.084328
-0.13536    0.063281      0.1205    -0.22415     0.23758     0.18562    0.081368
-0.13338    -0.12549     0.21588    -0.22974     0.27902     0.17641    0.079066
-0.11168    -0.23336     0.24942    -0.22349     0.30368     0.16687    0.082684
-0.076817    -0.26065     0.24087    -0.19784     0.31289      0.1672    0.093208
-0.035708    -0.22053     0.21686    -0.16068     0.30335       0.182      0.1057
0.0011247    -0.13799     0.20108    -0.12746     0.27737     0.20371      0.1136
0.025132    -0.03538     0.19351    -0.10378     0.24218     0.21916     0.11195
0.030723    0.068871     0.17608   -0.092603     0.21555     0.22245     0.10011
0.01987     0.15964     0.11689   -0.095562     0.23462     0.21719     0.07808
0.0057288     0.23363      0.0054    -0.10707     0.33131     0.20371     0.05473
0.00079584     0.29217    -0.15213    -0.12417      0.4793     0.18233    0.033354
0.010991     0.33164    -0.34188    -0.14555     0.59407     0.15471    0.014608
0.035656     0.35038    -0.53624    -0.17087     0.60262     0.12412   0.0037556
0.067227     0.34808    -0.69048    -0.18765     0.50133    0.095181  -0.0008485
0.092221     0.32802    -0.76218    -0.18732     0.34578    0.071831   0.0034268
0.10505     0.30467    -0.73061    -0.16495     0.20272    0.054072    0.018226
0.11228     0.30039    -0.60794    -0.13042     0.11689    0.037629    0.041247
0.11886     0.33394    -0.43002   -0.092274    0.099785    0.017568    0.067227
0.12544     0.41056    -0.24322   -0.054454     0.13037   -0.013017    0.082684
0.12938      0.5158   -0.087669   -0.016305     0.17246   -0.063333    0.076435
0.12478     0.62663    0.014279    0.017239     0.19549    -0.14029    0.053086
0.10636     0.70918    0.085644     0.04618     0.18496    -0.24717    0.021514
0.074462     0.70918     0.17707    0.068543     0.15207    -0.37378  -0.0051238
0.035327     0.57862     0.28921    0.083013      0.1136    -0.50533   -0.017621
-0.0054526     0.30335     0.37011    0.083013    0.084328     -0.6303   -0.017621
-0.045574   -0.095233     0.36255    0.058348    0.067556    -0.73883  -0.0084125
-0.079119    -0.56288     0.25008   0.0083598    0.058019    -0.82269  -0.0008485
-0.099509     -1.0144    0.071173   -0.060702    0.046508    -0.86741  -0.0011774
-0.10115      -1.361    -0.11464    -0.13503    0.035327     -0.8559  -0.0038083
-0.087669     -1.5232    -0.25539    -0.20277    0.029078    -0.77171   -0.002164
-0.071555     -1.4715    -0.32708    -0.25309    0.033683     -0.6109   0.0070443
-0.06432     -1.2394    -0.33136    -0.27841    0.044535    -0.38299    0.023817
-0.065635      -0.898    -0.28861    -0.27052    0.055059    -0.11233    0.044206
-0.067937    -0.53427    -0.22349    -0.23007    0.058019     0.16589    0.057032
-0.06432    -0.21856    -0.14917    -0.17087    0.052099     0.42898    0.063938
-0.048863    0.031052   -0.066293    -0.10806     0.04026     0.65853     0.06624
-0.018607     0.23791    0.030065   -0.051823    0.028421     0.82264    0.061636
0.020199      0.4395     0.13728   -0.010057    0.020857     0.88742    0.049139
0.060321     0.68056     0.23626     0.01132    0.023159     0.84862    0.036971
0.096825     0.98411     0.33065    0.010991    0.043549     0.73516    0.033025
0.12905      1.3173     0.47502   -0.007097     0.08367     0.59868    0.042562
0.15602      1.6076     0.72562    -0.03242      0.1376     0.48324    0.055388
0.18496      1.7958      1.0749    -0.04689     0.19812     0.41517    0.064925
0.21653      1.8674      1.4498   -0.044588     0.25501     0.39905    0.068214
0.24251      1.8352      1.7421   -0.028473     0.29711     0.41648    0.065583
0.25534      1.7241      1.8563  -0.0090702     0.31947     0.43786    0.063281
0.25074      1.5586      1.7537   0.0090175     0.32013     0.43852    0.061965
0.22739      1.3593      1.4646    0.021843     0.29743     0.40596    0.059005
0.1922      1.1462      1.0739    0.030723     0.25238     0.34348    0.053415
0.15043     0.94201       0.673      0.0373     0.19285     0.26718    0.047495
0.10603     0.76969     0.33788    0.045522     0.13169     0.18891    0.040589
0.061307     0.62038     0.11031    0.063281    0.076106     0.11787    0.030394
0.01691     0.45332  -0.0061104     0.08663    0.030394    0.057032     0.01691
-0.024856     0.23331   -0.036366     0.10735   -0.004466   0.0044134   0.0073732
-0.059716   -0.044259   -0.022225     0.12182   -0.030775   -0.040641   0.0073732
-0.086683    -0.34649  -0.0018351     0.12741   -0.057743    -0.07879    0.013622
-0.11233     -0.6109   0.0011247     0.12807    -0.10082    -0.11365    0.020857
-0.13601    -0.76316   -0.014332     0.12577    -0.16627    -0.14785    0.017239
-0.15673    -0.76514   -0.041957     0.12149    -0.24585    -0.18173  -0.0011774
-0.17022    -0.62603   -0.078461     0.11491    -0.29979    -0.21593   -0.028802
-0.17449    -0.40404    -0.12944     0.10505    -0.26822    -0.24684   -0.056427
-0.16627    -0.18074    -0.20244    0.097812    -0.10378    -0.26953   -0.079119
-0.14785   -0.024198    -0.30505    0.087946     0.15865    -0.28039   -0.093918
-0.12516    0.035327    -0.43298    0.066569     0.39905    -0.28729    -0.10017
-0.10346   0.0073732    -0.56486    0.040589     0.49508    -0.30406     -0.1005
-0.085367   -0.071555    -0.67897    0.027105     0.41056     -0.3307   -0.097864
-0.06728    -0.14687    -0.75395    0.039602     0.20864    -0.35931    -0.09326
-0.04393    -0.16035    -0.77237    0.077751   -0.014003    -0.37378   -0.091945
-0.011372   -0.069582    -0.72337      0.1182     -0.1962    -0.35635   -0.092603
0.022172     0.12873    -0.60629     0.12675    -0.31689    -0.29716   -0.088327
0.04881     0.39774    -0.43824    0.083342    -0.38562    -0.20343   -0.074186
0.061636     0.67103    -0.24881  -0.0024928    -0.41423   -0.092603   -0.051165
0.067556     0.86637   -0.077146    -0.11168    -0.40305    0.015266   -0.027487
0.067885     0.90814    0.040589     -0.2156    -0.35767     0.10274  -0.0097279
0.061636     0.76179    0.085644    -0.28894    -0.29321     0.15339   0.0017824
0.043877     0.43622    0.057361    -0.31623    -0.22514      0.1626   0.0044134
0.012635   -0.023211   -0.025514     -0.2988    -0.16693     0.13333  -0.0038083
-0.027487    -0.54085    -0.13338    -0.24355    -0.12319    0.072489   -0.020581
-0.076159     -1.0381    -0.23533    -0.16923    -0.10313  -0.0074258   -0.038997
-0.12944     -1.4482    -0.31064    -0.10017    -0.10773   -0.089643   -0.056756
-0.18699       -1.73    -0.34879   -0.054125    -0.13305    -0.15969   -0.069911
-0.2452     -1.8803    -0.35339   -0.035708    -0.16726    -0.21067    -0.07879
-0.29584     -1.9306    -0.33465   -0.037682    -0.19455    -0.24059   -0.081421
-0.33136     -1.9204    -0.30078   -0.044259    -0.19981     -0.2498   -0.082079
-0.34682     -1.8737       -0.26   -0.047877    -0.18534    -0.24059   -0.081092
-0.33958     -1.7955     -0.2031   -0.049192    -0.16693    -0.22119   -0.079448
-0.3136     -1.6738    -0.11891    -0.05281    -0.16002    -0.20047   -0.078132
-0.27151     -1.4946  -0.0064392   -0.057743     -0.1643    -0.18436   -0.072542
-0.21823     -1.2627      0.1205   -0.053138    -0.17252    -0.17219   -0.059387
-0.15772    -0.99929     0.24416   -0.022883     -0.1712     -0.1564   -0.039655
-0.093589    -0.71548     0.36058    0.042891    -0.15377    -0.13733    -0.01795
-0.028144    -0.40568     0.45891     0.13497    -0.12319    -0.11891  -0.0011774
0.03434   -0.049521     0.52172     0.22048    -0.09326   -0.099838      0.0054
0.088275     0.35137     0.51613     0.26619   -0.073857   -0.075173   0.0024402
0.13629     0.77002      0.4178     0.25797    -0.06136   -0.044259  -0.0061104
0.17641      1.1594     0.21883     0.21916   -0.044917   -0.013674   -0.010715
0.2093      1.4639   -0.078461     0.18858   -0.023869    0.010004   -0.004466
0.23725       1.634    -0.46028     0.19516 -0.00051963    0.023159    0.017897
0.25797      1.6609    -0.86084     0.23002    0.019541    0.022501    0.046508
0.26652      1.5744     -1.1585     0.26323    0.024145   0.0093464    0.064596
0.26553      1.4304     -1.2473     0.25961   0.0083598   -0.010386    0.066569
0.25337      1.2742     -1.0897     0.20996   -0.025185   -0.027816    0.053415
0.23002      1.1153    -0.72666     0.12577   -0.066951   -0.040313     0.03434
0.19351     0.90979    -0.26131    0.028421    -0.10148   -0.051823    0.010991
