-0.20244     -1.7409     0.98246       0.305      0.2014   0.0030979   -0.096878
-0.22251     -1.6264     0.53751     0.19285     0.16852   0.0096753     -0.1028
-0.21757      -1.439    0.053743    0.064596     0.13958    0.012964   -0.099509
-0.19422     -1.1923    -0.30933   -0.041299     0.15339    0.014937   -0.087341
-0.15936    -0.91543    -0.46817     -0.1051     0.21357    0.013622   -0.067937
-0.12253    -0.63425    -0.44449    -0.13042     0.25337   0.0096753   -0.046232
-0.087341     -0.3626    -0.32708    -0.14062     0.21193  -0.0047949   -0.026829
-0.056427   -0.095562    -0.20409    -0.15081     0.10801   -0.022883   -0.015976
-0.026829     0.18759    -0.12549    -0.16035    0.030065   -0.030118   -0.011372
0.010004     0.50791   -0.088656    -0.15969     0.03434   -0.016305  -0.0061104
0.05473     0.86703   -0.045574    -0.14095    0.094523   0.0093464   0.0034268
0.10406      1.2192    0.053743    -0.10181     0.13958    0.032038    0.015924
0.14912      1.4899     0.19581   -0.056756     0.11886    0.041904    0.026447
0.18562      1.6172     0.31585   -0.019265     0.03434      0.0373    0.029078
0.207      1.5902     0.35466   0.0060577   -0.076159    0.026776    0.020528
0.21226      1.4432     0.30204    0.018884    -0.16758    0.017897     0.01132
0.20469      1.2216      0.1991    0.021186    -0.21001    0.014279   0.0070443
0.18726     0.95944     0.10538     0.01132     -0.2054   0.0096753   0.0047422
0.16095      0.6707    0.058676  -0.0087413    -0.17252   0.0024402   0.0040845
0.12544     0.35137    0.052099   -0.035051    -0.12319  -0.0067681   0.0044134
0.083999   0.0080309    0.029407   -0.057743     -0.0584   -0.013674   0.0067154
0.046508    -0.31985   -0.044259   -0.068266    0.025461   -0.017292    0.010004
0.026119    -0.57143    -0.11299   -0.053467     0.12478   -0.015648    0.013951
0.022501    -0.69279   -0.059058  -0.0034794     0.22903   -0.010715    0.025132
0.027434    -0.65793     0.17312     0.07512     0.31782  -0.0077547     0.04026
0.028092    -0.48527     0.50988     0.14385      0.3494   -0.012688    0.048482
0.016253    -0.22875     0.79041     0.14912     0.28264   -0.033735    0.044864
-0.0087413    0.044864     0.85519    0.064925     0.11491   -0.070897    0.027434
-0.039326     0.28987     0.61512   -0.079448    -0.10346    -0.11431    0.002769
-0.066293     0.49936      0.1284    -0.21823    -0.30341    -0.15344   -0.018936
-0.086354     0.68451    -0.39483    -0.29157    -0.43528    -0.18271    -0.02946
-0.098851      0.8348     -0.7043    -0.28894    -0.49448    -0.19784   -0.028473
-0.10477     0.89926    -0.67437    -0.24191    -0.50303     -0.2031   -0.019265
-0.10543      0.8256    -0.35504    -0.19488    -0.48889     -0.2031  -0.0034794
-0.10477     0.62104    0.073804     -0.1814    -0.45271    -0.19587    0.014937
-0.099509     0.36814     0.41385    -0.21034    -0.39023    -0.18074    0.031052
-0.08471     0.18299     0.55428    -0.26559    -0.30604    -0.16035    0.036642
-0.059716     0.13892     0.49278    -0.30406     -0.2202    -0.13864    0.032038
-0.029789     0.23363     0.30566    -0.27019    -0.16232    -0.12352    0.022501
-0.0015062     0.40201    0.097483    -0.14226    -0.14456    -0.11727    0.011977
0.017897     0.55033   -0.054454    0.048153    -0.15081    -0.11398   0.0044134
0.025461      0.6092    -0.12384     0.22936    -0.15213    -0.10477   0.0044134
0.018555      0.5556     -0.1268     0.34348    -0.13174   -0.083394   0.0086887
0.002769     0.42767   -0.099509     0.36715   -0.093589   -0.051823    0.012306
-0.016634     0.28823   -0.073528      0.3119   -0.048534   -0.016305    0.014937
-0.031104     0.19549   -0.060045     0.21719   -0.010057    0.019212    0.020199
-0.030118     0.19417   -0.055112     0.12478    0.019541     0.06065    0.031709
-0.0064392     0.29941   -0.047219     0.06624    0.040918     0.10735    0.045193
0.038287      0.4987   -0.034064    0.045522    0.059334     0.15372    0.054401
0.094523     0.74831   -0.018936    0.049468    0.079066     0.19088    0.056374
0.15043     0.99003  0.00079584    0.055388    0.097483     0.21061    0.052757
0.19647      1.1749    0.028421    0.048153     0.10801     0.20897    0.047824
0.22475      1.2613    0.047824    0.024803     0.10505     0.18628    0.042562
0.2264       1.241    0.025132  -0.0057815    0.090577     0.14879    0.034011
0.19746      1.1278   -0.068266   -0.036695    0.067556    0.099127    0.023817
0.15076     0.95517    -0.22875   -0.061031    0.045851    0.045851    0.011648
0.10439      0.7539    -0.42607    -0.07583    0.030065  0.00046697   0.0047422
0.070845     0.54869    -0.60827   -0.080106    0.018555   -0.026829   0.0057288
0.047495     0.36058     -0.7283   -0.077475    0.010662   -0.036695    0.015924
0.030394     0.20732    -0.79375   -0.072542   0.0044134   -0.038339    0.029736
0.01691    0.098469    -0.84933   -0.065964 -0.00019077    -0.03538    0.033354
0.010991    0.034669     -0.8684   -0.056098  -0.0051238    -0.02946    0.021843
0.014608    0.016253    -0.76777   -0.038997  -0.0057815   -0.019265   0.0011247
0.031381    0.037629    -0.51849   -0.011701   0.0030979  -0.0034794   -0.022554
0.054072    0.081039    -0.17318    0.024145    0.022172    0.013293   -0.038997
0.074133      0.1182     0.21653    0.064925    0.050784    0.027763    -0.04097
0.081697     0.11787     0.62367     0.10011    0.077093    0.034998   -0.030447
0.073804     0.05473     0.99924     0.11952    0.090248    0.034669   -0.018607
0.051441   -0.071884      1.2607     0.11393    0.089919    0.028421   -0.014332
0.018884    -0.23467      1.3327    0.082026    0.077422    0.019212   -0.015648
-0.020581    -0.40503      1.1827    0.034998    0.055717   0.0063866   -0.021896
-0.059058    -0.56091     0.81244   -0.014003    0.031381  -0.0090702   -0.030775
-0.095562    -0.69015     0.23594    -0.04985    0.015595   -0.024856   -0.035051
-0.12648    -0.79013    -0.48132    -0.07024   0.0093464   -0.038011   -0.035708
-0.14983    -0.87465     -1.1943   -0.075173      0.0054   -0.045574   -0.039655
-0.16923    -0.97528     -1.7632   -0.072542  -0.0024928   -0.049192   -0.049521
-0.1883     -1.1259     -2.0878   -0.068266   -0.015976   -0.049521   -0.063333
-0.20902     -1.3324     -2.1421   -0.063662   -0.028802   -0.047877   -0.074844
-0.23533     -1.5896     -1.9708   -0.059716   -0.035708   -0.045574    -0.07583
-0.26723     -1.8807     -1.6682   -0.053467    -0.03538   -0.042944   -0.066293
-0.30472     -2.1674     -1.2976   -0.044588   -0.029789   -0.037682   -0.053796
-0.34156     -2.3861    -0.83025   -0.031433   -0.017292   -0.027487   -0.047877
-0.37115     -2.4723    -0.20409  -0.0097279   0.0067154  -0.0097279   -0.053138
-0.39023     -2.4032      0.5579    0.019541    0.043549   0.0093464   -0.063662
-0.3945     -2.2059      1.2985    0.050126     0.08663     0.02283   -0.071226
-0.38562     -1.9464      1.8076    0.067556     0.12346    0.023159   -0.067609
-0.37082     -1.7106      1.9385    0.066569     0.14583    0.010662    -0.05544
-0.35011     -1.5705      1.6984     0.04618     0.14813  -0.0093991   -0.041628
-0.32117      -1.534      1.2495    0.018555     0.13399   -0.028473   -0.026171
-0.27611     -1.5324     0.81277  -0.0038083     0.11195   -0.038997  -0.0090702
-0.20935     -1.4465     0.53553   -0.015319    0.087617   -0.041957   0.0093464
-0.12121     -1.1746     0.46351   -0.019265     0.05473   -0.039326    0.026119
-0.016634     -0.6747     0.55264   -0.020909  -0.0093991   -0.033406    0.042233
0.098798    0.015924     0.72595   -0.019594    -0.13897   -0.018936    0.059663
0.2162     0.78613     0.90748   -0.010057    -0.32051   0.0011247    0.076435
0.31914      1.5083      1.0249    0.010662    -0.46883    0.020199    0.089919
0.38886      2.0806      1.0278    0.039273    -0.48922    0.029078    0.096167
0.41977      2.4564     0.91077    0.060979    -0.34451    0.026119    0.094194
0.41846      2.6429      0.7072    0.067885   -0.074844    0.022501    0.087617
0.39807      2.6936      0.4793    0.064925     0.21324    0.016581    0.076106
0.3688      2.6705     0.28428    0.058019      0.4155   0.0050711    0.056046
0.33295      2.6182     0.14912    0.049139     0.47798   -0.010386    0.032367
0.28757      2.5686    0.068214    0.039602     0.41089   -0.018278    0.012635
0.23824       2.539    0.015266    0.026776     0.26586   -0.012359   0.0014536
0.19351      2.5492   -0.056098   0.0093464      0.1136   0.0021113 -0.00019077
0.15832      2.6021     -0.1883  -0.0064392     0.01132     0.02283   0.0034268
0.13695      2.6554    -0.39582   -0.016305   -0.017292    0.048482   0.0080309
0.12873      2.6215    -0.63951   -0.020581    0.014937    0.077751    0.016581
0.12938       2.416    -0.84867   -0.021896    0.075449     0.10538    0.031709
0.13366      2.0105    -0.95128   -0.020909     0.12938     0.12215    0.052099
0.13169      1.4524    -0.91313   -0.014661     0.15668     0.11985    0.072489
0.12116     0.85158    -0.75001   0.0047422     0.15207    0.097483    0.087617
0.10472     0.33328    -0.51816    0.034669     0.12478    0.061307    0.088603
0.088275   -0.024856    -0.29518    0.065912     0.08663    0.024474    0.077422
0.070516    -0.21691    -0.14621    0.078409    0.048482  -0.0061104    0.065912
0.044206    -0.29058     -0.1051    0.062952    0.012306   -0.024527    0.058019
0.0083598    -0.30998    -0.16232    0.020199   -0.013674   -0.035708    0.048482
-0.033078    -0.32084    -0.27216    -0.03538   -0.028473   -0.040641    0.036971
-0.067937    -0.35372     -0.3751   -0.085039   -0.037353   -0.041628    0.024145
-0.089643    -0.42706    -0.43166    -0.11398   -0.044917   -0.041299    0.011648
-0.10148    -0.54184    -0.43101    -0.11924   -0.053796    -0.04097   0.0037556
-0.1097    -0.67963     -0.3899    -0.10247   -0.063991   -0.040641  -0.0015062
-0.12089    -0.81611    -0.33432   -0.072213   -0.070897   -0.039984  -0.0054526
-0.13634    -0.93154    -0.28663   -0.040641   -0.068595   -0.038668  -0.0041372
-0.15344     -1.0101    -0.25309   -0.017621   -0.050836   -0.038339  0.00046697
-0.16627     -1.0427    -0.22974  -0.0084125   -0.019594   -0.036366   0.0070443
-0.16824     -1.0299    -0.20606   -0.010057    0.014279   -0.029131    0.012306
-0.15969    -0.98252    -0.17745   -0.014332     0.02283   -0.017621    0.015924
-0.14358     -0.9197    -0.14292   -0.014661   -0.016305  -0.0024928    0.018555
-0.12549    -0.86018    -0.11003  -0.0028217    -0.10872     0.01132    0.020199
-0.1097    -0.82006   -0.086025    0.020199    -0.23796    0.020857    0.017239
-0.098851    -0.80033   -0.072542    0.057032    -0.35537    0.027105    0.015266
-0.087012    -0.79112   -0.065635     0.10143    -0.38201     0.03434    0.012964
-0.073199    -0.78026   -0.063004     0.14221    -0.27085    0.044535    0.011648
-0.059387    -0.76152   -0.065635     0.16128   -0.052481    0.050455    0.010662
-0.048534    -0.74738   -0.069253     0.14616     0.16819    0.045851   0.0067154
-0.048534    -0.76744   -0.072542    0.096825     0.29382    0.029736  -0.0008485
-0.059058     -0.8388   -0.071555    0.033354     0.29151   0.0090175   -0.010057
-0.073528    -0.93944   -0.068595   -0.022225     0.19516  -0.0097279   -0.016963
-0.081092     -1.0243   -0.062676   -0.049192    0.072818   -0.020581   -0.019594
-0.078461     -1.0588   -0.057085    -0.04097    -0.01499   -0.024198   -0.020252
-0.073199     -1.0299   -0.052481  -0.0087413   -0.043272   -0.023869   -0.020581
-0.069582    -0.94536   -0.048534    0.027105   -0.022554   -0.018607   -0.022883
-0.068595    -0.82696   -0.042944    0.050784    0.015595   -0.010386   -0.028144
-0.062676    -0.69706   -0.039326    0.058019    0.041575   0.0001381   -0.034064
-0.051165    -0.56814    -0.03538    0.052757    0.042233   0.0093464   -0.038668
-0.036037    -0.44252   -0.034064    0.041247    0.022172    0.013293   -0.041628
-0.017292    -0.32182   -0.037024    0.023817  -0.0028217    0.013293   -0.041299
-0.0015062    -0.22316    -0.04393   0.0030979   -0.022225    0.011648   -0.034722
0.0021113    -0.17087   -0.052152    -0.01499   -0.032749    0.012635     -0.0265
-0.01203    -0.17383   -0.060373   -0.023211   -0.040313    0.013951   -0.022554
-0.035051    -0.21165   -0.067937   -0.024198   -0.048205    0.014937   -0.022883
-0.054454    -0.24585   -0.069582   -0.031104   -0.057085    0.014937   -0.022225
-0.062018    -0.24454   -0.065635    -0.06728   -0.059716     0.01132   -0.018936
-0.054125     -0.2156   -0.056098     -0.1393   -0.041957   0.0047422   -0.012688
-0.032091    -0.19258   -0.046561    -0.22875   0.0070443  -0.0024928  -0.0067681
-0.0080836    -0.20803   -0.039655    -0.30374    0.080711  -0.0090702  -0.0034794
0.011977    -0.26559   -0.033406    -0.34057     0.16523   -0.015976  -0.0034794
0.020857    -0.33728   -0.022554    -0.32577     0.23166   -0.023869  -0.0034794
0.018555    -0.38661  -0.0090702    -0.24717     0.23594    -0.03242   -0.002164
0.0073732    -0.38628   0.0034268     -0.1028     0.15569   -0.044917   -0.004466
-0.004466    -0.31557    0.015924     0.08663    0.019541   -0.063333   -0.015976
-0.012359    -0.17219    0.034998     0.28921    -0.11793   -0.082408   -0.036695
-0.018936     0.01987    0.061636     0.46976    -0.22415   -0.094576   -0.059058
-0.023869     0.22114    0.095839      0.5875    -0.30242    -0.10148    -0.07879
-0.022225     0.39577     0.13432     0.62137    -0.36293    -0.10181   -0.091287
-0.010057     0.52797     0.16852     0.56842    -0.40437   -0.094247   -0.096878
0.017568     0.62926     0.19154     0.44904    -0.41193   -0.076817   -0.091287
0.056703     0.72595     0.20272     0.29809    -0.38201   -0.054783   -0.076488
0.099456     0.82888     0.20667     0.15405    -0.32215   -0.037024   -0.059716
0.13793     0.92195     0.20338    0.045522    -0.24651   -0.027816   -0.042615
0.1626     0.96964     0.20009   -0.012688    -0.16528   -0.025842   -0.025514
0.16786     0.94465     0.19614   -0.020252   -0.090629   -0.023869  -0.0077547
0.15635      0.8519     0.18825   0.0096753   -0.037353   -0.019923    0.010004
0.13793     0.71115     0.17279    0.050126   -0.007097   -0.018607    0.025132
0.11787     0.55033     0.15076    0.076106   0.0037556   -0.020909    0.031709
0.098798     0.35959     0.12478    0.079066  -0.0064392   -0.021896    0.030065
0.081697     0.10735    0.097483    0.068543   -0.032091   -0.018278    0.024803
0.063281    -0.22152     0.07216    0.055717   -0.060045   -0.010386    0.019541
0.041575    -0.61715    0.045851    0.043549   -0.071226  -0.0031506    0.017897
0.015266     -1.0555    0.014937    0.024803   -0.053467   -0.002164    0.023817
-0.015648     -1.4877   -0.018278   -0.012359   0.0080309  -0.0087413    0.032696
-0.044917     -1.8428   -0.051165   -0.076817     0.11195   -0.019594    0.038616
-0.068924     -2.0398    -0.07879    -0.16101     0.23331   -0.032091    0.038616
-0.085696     -2.0217   -0.098193    -0.24224     0.32637   -0.044259    0.032038
-0.093589     -1.7853    -0.10576    -0.29782     0.34709   -0.055112    0.021843
-0.093589     -1.3768   -0.097207    -0.30933     0.26225    -0.06432    0.013293
-0.091945    -0.86774   -0.063662    -0.27578    0.084657    -0.07583   0.0060577
-0.089972    -0.31623  -0.0067681    -0.21067    -0.12253   -0.087012   0.0011247
-0.084381     0.23955    0.061307    -0.13075    -0.28499   -0.096549  -0.0008485
-0.07024     0.77429     0.12248   -0.053138    -0.35833   -0.095233  -0.0011774
-0.04097      1.2821     0.16687   0.0030979    -0.33892   -0.081092   0.0017824
0.0050711      1.7583     0.19285    0.029078    -0.25375   -0.062018     0.01132
0.053743      2.1818     0.19976    0.026776    -0.14588   -0.043601    0.027434
0.090905      2.5199     0.18134   0.0070443   -0.059387   -0.032091    0.047495
0.10866      2.7406     0.13432   -0.023211   -0.012359    -0.02354    0.069529
0.11327      2.8133    0.064596   -0.053138  0.00079584  -0.0028217    0.087288
0.10735       2.733  -0.0047949   -0.077146  -0.0015062    0.039931    0.097483
0.094523      2.5291   -0.050179   -0.086683   -0.002164     0.10307     0.10242
0.075449      2.2331   -0.063662   -0.078461    0.011977     0.17312     0.10176
0.048482       1.854   -0.049192   -0.053796    0.040918       0.231    0.097154
0.013293      1.3909   -0.013017   -0.023869    0.072489     0.26521    0.088275
-0.030118     0.86473    0.039273  -0.0034794    0.091234     0.26784    0.074791
-0.075173     0.33295     0.10406   0.0047422    0.090577     0.23988    0.056046
-0.10937    -0.13404     0.17312   0.0014536      0.0692      0.1922    0.035327
-0.12648    -0.46718     0.23758    -0.01203    0.029078     0.13859    0.017239
-0.12417    -0.63458     0.29184   -0.030775   -0.019923    0.087946   0.0040845
-0.10543    -0.63392     0.32506    -0.04393   -0.053796    0.044206   -0.002164
-0.071226    -0.49678      0.3175   -0.042944   -0.039326   0.0047422  -0.0047949
-0.0265    -0.27348     0.25172   -0.024198    0.056374   -0.025842  -0.0067681
0.020199   -0.022554     0.13103    0.015266     0.22706   -0.046232  -0.0061104
0.065583     0.20963   -0.011701    0.074133     0.41846     -0.0584   -0.002164
0.10603     0.40432    -0.12911     0.14024     0.54573   -0.065635   0.0011247
0.13925     0.56086     -0.1985     0.18167     0.53948   -0.065635   -0.002164
0.16194     0.68714    -0.24289     0.17181      0.3836   -0.060045   -0.014661
0.17214     0.77922    -0.29716     0.10998     0.12741   -0.051823   -0.033406
0.1695      0.8256    -0.37872   0.0070443     -0.1393   -0.047219   -0.050507
0.15536     0.81343    -0.46587    -0.12187    -0.32511   -0.044917   -0.056756
0.13793     0.73647    -0.50994    -0.25605    -0.37082   -0.037024   -0.047877
0.12116     0.59999     -0.4754    -0.35866    -0.25737   -0.019923   -0.026171
0.10866     0.42109    -0.35734    -0.39483     -0.0265   0.0034268 -0.00051963
0.093208     0.22048    -0.18173     -0.3557     0.22147    0.024145    0.013293
0.074462    0.024145    0.014608    -0.25934     0.37307    0.024474    0.010662
0.049468    -0.14818     0.19384    -0.14259     0.37242  -0.0011774   -0.007097
0.022501      -0.284      0.3369   -0.040313     0.23594   -0.045574   -0.029131
-0.0028217    -0.37477     0.44411    0.043549    0.044864   -0.089314   -0.049192
-0.015976    -0.42279      0.5477     0.10866    -0.11825    -0.11529   -0.061031
-0.015319    -0.43791     0.69339     0.15405    -0.20277    -0.11825   -0.062018
-0.0024928    -0.43331     0.89268     0.17411    -0.21001     -0.1051   -0.053467
0.015924    -0.41095      1.1035     0.17049     -0.1712   -0.088656   -0.039984
0.035985    -0.37806      1.2498     0.14912     -0.1222   -0.074844   -0.027158
0.056046    -0.34715       1.265     0.12478   -0.087012   -0.073199   -0.017292
0.069529    -0.34057      1.1262     0.10932   -0.069911   -0.076159   -0.012688
0.070516    -0.36984     0.87065     0.10801   -0.073199   -0.076817   -0.010057
0.058348    -0.43528     0.56941     0.11754   -0.096549   -0.073528  -0.0087413
0.037629    -0.52638      0.2879     0.12807    -0.13174   -0.070568   -0.010386
0.0096753    -0.62504     0.06065     0.12708    -0.16331   -0.068595  -0.0084125
-0.019923    -0.71285    -0.11102      0.1113    -0.17285   -0.065307  -0.0061104
-0.046232     -0.7773    -0.23895    0.082684    -0.15344   -0.058071   -0.002164
-0.065964    -0.81447    -0.33564    0.047824    -0.10806   -0.046561 -0.00019077
-0.076817    -0.82729    -0.40305    0.013622   -0.048534   -0.033078  0.00046697
-0.077803    -0.82072    -0.44515   -0.010386    0.010333   -0.022883   -0.002164
-0.073199     -0.8023    -0.46883   -0.023211    0.055059    -0.01795  -0.0064392
-0.07287    -0.78191    -0.47804   -0.028144    0.076764   -0.018278  -0.0084125
-0.083394    -0.76218     -0.4708   -0.032091     0.07512   -0.025514  -0.0057815
-0.096549    -0.74212    -0.45238   -0.038011    0.058019   -0.038011  -0.0008485
-0.10444    -0.72107    -0.42607   -0.042944    0.036314    -0.04985  0.00046697
-0.10674    -0.70265    -0.39779   -0.045574    0.016253   -0.058729  -0.0011774
-0.11168    -0.70068    -0.37181    -0.04393   0.0030979   -0.064978  -0.0024928
-0.12023    -0.72699    -0.35011   -0.038997  -0.0015062   -0.069582  -0.0047949
-0.13207    -0.79309    -0.33596   -0.031433  -0.0015062    -0.07583  -0.0057815
-0.14621     -0.8957    -0.32774   -0.021567  -0.0011774   -0.078132  -0.0057815
-0.15805     -1.0085    -0.32215  -0.0097279  -0.0011774    -0.07024   -0.004466
-0.1666     -1.0907    -0.31426   0.0044134   0.0017824   -0.051823  -0.0008485
-0.16791     -1.1045    -0.30308    0.019212   0.0090175   -0.030447   0.0093464
-0.15903     -1.0427    -0.28894    0.030065     0.01987   -0.011701    0.022172
-0.14029    -0.92234    -0.27052    0.035327    0.030394   0.0040845    0.033683
-0.11398    -0.77336    -0.25243    0.030723    0.034011    0.015924    0.042562
-0.087998    -0.62208    -0.23763    0.018555    0.027105    0.020199    0.047495
-0.075501    -0.48297    -0.22349    0.002769   0.0086887    0.019541    0.048482
-0.077146    -0.36425    -0.21363   -0.013345   -0.015976    0.015924    0.045522
-0.088656    -0.29551    -0.20902   -0.026171   -0.035051    0.016253    0.041247
-0.10346    -0.36326    -0.21659   -0.036366   -0.040641    0.025461    0.038616
-0.1199    -0.64642    -0.24355   -0.048534   -0.029131    0.046508    0.039602
-0.13864     -1.1414    -0.29453   -0.068266  -0.0067681    0.071831    0.050126
-0.15739     -1.7271    -0.35997   -0.091616    0.010991    0.095181     0.06624
-0.17482     -2.2066    -0.42936    -0.11135    0.010991     0.10801    0.080053
-0.18666     -2.3878    -0.48691    -0.12483   -0.011372     0.11162    0.085315
-0.18337     -2.1839    -0.52769    -0.13305   -0.049521     0.11195    0.080053
-0.16265     -1.6439    -0.54249    -0.13799   -0.091616     0.11721    0.069529
-0.13042    -0.91181    -0.52013    -0.13897    -0.12549      0.1307    0.058676
-0.092931    -0.16232    -0.44219    -0.13733    -0.14555     0.14583    0.052757
-0.051823      0.4645    -0.30209    -0.13305    -0.14884     0.15767    0.047495
-0.0034794     0.92689    -0.11431    -0.12648    -0.13272     0.16095     0.04322
0.052428      1.2617    0.094194    -0.11858    -0.10017     0.15635    0.044206
0.11426      1.5267     0.29053    -0.11102   -0.053796     0.14221    0.054401
0.17806      1.7714     0.42898    -0.10609   0.0044134     0.11853    0.069529
0.23791      2.0358     0.44871    -0.10214    0.068871    0.087288    0.077422
0.2902      2.3482     0.32309   -0.097536     0.12873    0.049797    0.070187
0.33328      2.7215     0.10669   -0.085039     0.17246   0.0080309    0.051441
0.36847      3.1152   -0.087669   -0.060373     0.18858   -0.034722    0.030723
0.39412      3.4052    -0.17581   -0.018607     0.17181   -0.077146    0.012306
0.40201      3.4164    -0.14095    0.040918     0.13464    -0.11661  -0.0024928
0.38327      3.0089    -0.02946     0.11426     0.10143    -0.14687   -0.011701
0.33131      2.1657    0.081039     0.18759    0.080382    -0.17022   -0.017621
0.24876       1.018     0.12873     0.24843    0.061307    -0.18304   -0.023211
0.14254    -0.20014    0.098141     0.28329    0.026447    -0.17712   -0.029789
0.029407     -1.1973    0.010991     0.28362   -0.041628    -0.14785   -0.036695
-0.073528     -1.8139   -0.095562     0.24317    -0.14029   -0.094576   -0.040313
-0.15344     -2.0086    -0.19093     0.17049    -0.24092   -0.024527   -0.040641
-0.20475      -1.829    -0.25934    0.083999    -0.31031    0.049468    -0.03538
-0.23106     -1.3946    -0.30571   0.0044134    -0.32445     0.10932   -0.027816
-0.23665    -0.84143    -0.34616   -0.047548    -0.27644     0.13859   -0.021896
-0.22711    -0.28137    -0.40305   -0.069253    -0.18666     0.13136   -0.021567
-0.20277     0.20996    -0.49053   -0.072542   -0.091287    0.097812    -0.02354
-0.16989     0.61676    -0.60136   -0.076159   -0.025842    0.057361   -0.025842
-0.12549     0.98608     -0.6816   -0.087669   -0.013345    0.023817   -0.027816
-0.06728      1.3893    -0.64247    -0.10378   -0.056427  -0.0008485   -0.025842
-0.0047949       1.876    -0.39878    -0.11135    -0.13634   -0.019923   -0.019923
0.05177      2.4219    0.064267   -0.096878    -0.21034   -0.037682  -0.0074258
0.10011      2.9287     0.65294    -0.06432    -0.22612   -0.057743   0.0083598
0.14122      3.2664      1.2137   -0.024856    -0.12944   -0.071555    0.027105
0.17904      3.3312      1.5945    0.015266    0.083999   -0.070897    0.045193
0.21259      3.0902      1.6981    0.058676     0.33887   -0.053138    0.056703
0.23363      2.6094      1.5185     0.11327     0.51712   -0.026829    0.060321
0.23725      2.0115      1.1492     0.17641     0.53817  -0.0087413    0.058676
0.22574      1.4182     0.72726     0.23429     0.40793   -0.002164    0.051441
0.20667     0.92195     0.37439     0.26488     0.20634   0.0044134    0.043549
0.18726     0.56217      0.1455     0.25435    0.025132    0.026447    0.039931
0.16161      0.3267    0.029407     0.20469   -0.078461     0.06624    0.042562
0.12642     0.16622    -0.01499       0.133    -0.10017     0.11261    0.051113
0.08959    0.022172   -0.034064    0.060979   -0.067937     0.14846    0.058348
0.062952    -0.13338   -0.052481   0.0001381   -0.022883     0.15997    0.059005
0.05473     -0.2919   -0.077475   -0.043272   0.0024402     0.14221    0.053415
0.063938    -0.43528    -0.10082   -0.067609  -0.0008485     0.10143    0.038287
0.084328    -0.55433    -0.11431   -0.068924     -0.0265    0.049797    0.012635
0.099456    -0.63885    -0.11529   -0.051165   -0.058729  -0.0057815   -0.016634
0.095839    -0.69147    -0.10411   -0.023211   -0.084381     -0.0584   -0.045903
0.0692    -0.71975   -0.085039   0.0073732   -0.098193    -0.10411   -0.076159
0.024803    -0.74179   -0.065635    0.031052   -0.096549    -0.13897    -0.10576
-0.028144    -0.77171    -0.05281    0.044864   -0.080434    -0.16166    -0.12845
-0.080763    -0.82367   -0.047548    0.049139   -0.056098    -0.17153    -0.13766
-0.1245    -0.91378   -0.051494    0.043877   -0.027158    -0.16791    -0.13141
-0.1564     -1.0588   -0.067937    0.032696    0.002769     -0.1541    -0.11365
-0.17844      -1.264   -0.095562    0.013622    0.032696    -0.13338   -0.090958
-0.18797     -1.5051    -0.13174   -0.012688    0.061307    -0.11168   -0.066951
-0.186     -1.7304    -0.16693   -0.042944    0.089919   -0.094576   -0.048205
-0.17186     -1.8833      -0.186   -0.059058     0.11524   -0.085696   -0.036037
-0.15673     -1.9329    -0.17515   -0.041299     0.12675    -0.08471   -0.033078
-0.14818     -1.8859     -0.1222    0.013293     0.11754   -0.087669   -0.035708
-0.14391     -1.7794    -0.02946    0.084986    0.085644   -0.086354   -0.045574
-0.1393     -1.6478    0.072818     0.14484    0.033354   -0.078132    -0.05544
-0.13536     -1.5169     0.14944      0.1695   -0.027158   -0.066622   -0.056756
-0.13108     -1.4012     0.19976     0.15865   -0.081421   -0.053138   -0.047548
-0.12812     -1.3252     0.23035     0.13234    -0.11694   -0.038011   -0.031433
-0.12746     -1.3005     0.21916     0.10735    -0.12878   -0.020909   -0.015319
-0.13207     -1.2976     0.13662    0.078737     -0.1199  -0.0041372  -0.0047949
-0.14489     -1.2696   -0.032749    0.035656    -0.10214    0.011977   0.0001381
-0.16561     -1.1782    -0.26493   -0.030447   -0.086354    0.026447 -0.00051963
-0.19225     -1.0049    -0.49481    -0.11727    -0.07583    0.032367  -0.0074258
-0.21494    -0.74244    -0.63852    -0.19916   -0.074515    0.033354   -0.016305
-0.21987    -0.40832    -0.61912     -0.2475   -0.073199      0.0373   -0.016963
-0.20475   -0.056427    -0.39417    -0.23632   -0.059387    0.050455  -0.0080836
-0.17186     0.23462    0.015266    -0.15509   -0.031104    0.071502   0.0083598
-0.1245     0.40366     0.52501   -0.015648   0.0011247    0.093536    0.024145
-0.069911     0.43819      1.0246     0.14681    0.022501     0.10077    0.038616
-0.019594     0.36452        1.41     0.27803    0.022501    0.090577    0.048153
0.012635     0.23298      1.6011     0.33394    0.011977    0.067885    0.051113
0.023159     0.10866      1.5386     0.30368    0.028421    0.039602     0.04618
0.02283    0.058019      1.1726     0.21653     0.10538    0.015924    0.037629
0.028092     0.12642     0.47371     0.11162      0.2139   0.0014536    0.029736
0.047166     0.31914    -0.48264    0.010004     0.28132  -0.0067681    0.021186
0.073147     0.59901     -1.4541    -0.08175     0.25205   -0.010715    0.014937
0.095839     0.88775      -2.173    -0.15838     0.13497   -0.010715    0.014279
0.10636      1.0959     -2.4611    -0.20869   -0.013674  -0.0090702    0.014279
0.096496       1.162     -2.2924    -0.22579    -0.13568  -0.0061104   0.0080309
0.068214      1.0699     -1.7869     -0.2179    -0.20146  -0.0047949  -0.0080836
0.030065     0.84927     -1.1384    -0.20146    -0.21264  -0.0074258   -0.029131
-0.007097     0.55757    -0.54151    -0.18567    -0.19126    -0.01499   -0.045246
-0.035708     0.26751    -0.14292    -0.17416    -0.15673   -0.022883   -0.047548
-0.04985     0.02579    0.020857    -0.16824    -0.12286   -0.025185   -0.034722
-0.050836    -0.17153    0.049468    -0.16068   -0.096549   -0.022225   -0.019594
-0.045574    -0.36754     0.10965    -0.14423   -0.075501    -0.01795   -0.012359
-0.048205     -0.5961     0.29579    -0.11332   -0.059058   -0.020581   -0.015976
-0.063004    -0.83814     0.57171   -0.070897   -0.050179   -0.028802   -0.020581
-0.085039     -1.0325     0.81935   -0.028473   -0.053138   -0.039655   -0.020909
-0.1028     -1.1272     0.92491   0.0034268   -0.063333   -0.050179   -0.017292
-0.11003       -1.12     0.85223    0.021843   -0.076817   -0.055112   -0.014332
-0.1051     -1.0361     0.64307    0.023488   -0.085367   -0.053138   -0.011701
-0.089972    -0.92135     0.38261    0.016581   -0.085367   -0.044917   -0.011372
-0.074186    -0.80855     0.15405    0.010333   -0.076817   -0.040641   -0.014003
-0.057743    -0.70758  -0.0018351   0.0086887   -0.065964   -0.043272   -0.020252
-0.040313    -0.59873   -0.078461   0.0093464   -0.056427   -0.050179     -0.0265
-0.014661    -0.43594   -0.091945   0.0080309    -0.04985   -0.055112   -0.030118
0.023159    -0.18074   -0.063333    0.011977   -0.044588   -0.053467   -0.028802
0.067556     0.16654   -0.014661    0.028421   -0.034064   -0.041628   -0.020581
0.1113     0.56415    0.037629    0.050784   -0.019594   -0.024198  -0.0067681
0.14484     0.94465    0.081039    0.059334  -0.0057815  -0.0077547   0.0080309
0.16589      1.2436     0.10834    0.041575   0.0017824 -0.00051963    0.017897
0.17345      1.4317     0.11721  -0.0008485  -0.0038083  -0.0034794    0.017239
0.16918       1.505     0.10932   -0.056098   -0.024856   -0.011701   0.0093464
0.15832      1.4702    0.092879     -0.1028    -0.05544    -0.01795  -0.0041372
0.14385      1.3258     0.07512    -0.12483   -0.083723   -0.020581   -0.015976
0.12379      1.0683    0.060321    -0.11529   -0.098851   -0.022225   -0.019594
0.094852     0.71049    0.052099   -0.079448   -0.093589     -0.0265   -0.016634
0.058348     0.28987    0.049139   -0.031433   -0.071555   -0.036366   -0.014332
0.017239    -0.15377     0.04618    0.017239   -0.039326   -0.046232   -0.020252
-0.025514    -0.59478    0.032038    0.057032  -0.0011774   -0.051165   -0.029789
-0.062676     -1.0128      0.0054    0.084328    0.038287   -0.053138   -0.036695
-0.088327     -1.3663   -0.029789     0.10077    0.068214   -0.056427   -0.037024
-0.097864     -1.5899   -0.063004     0.10603     0.08367   -0.063333   -0.033078
-0.093918     -1.6314   -0.087998     0.10143    0.090248   -0.069582   -0.027158
-0.079777     -1.4827    -0.10313    0.093536    0.098798    -0.07024   -0.018278
-0.062018     -1.1848    -0.10905    0.087946     0.10965   -0.059716  -0.0064392
-0.050179    -0.80723    -0.10444    0.083342     0.11031   -0.040641   0.0047422
-0.045246    -0.41621     -0.0903    0.071831    0.087288   -0.020581    0.013622
-0.042944    -0.07024   -0.069253    0.050455    0.050455  -0.0047949    0.017239
-0.037024     0.16391   -0.045246    0.024474     0.04322    0.010991    0.018884
-0.031433      0.2264   -0.021896   0.0080309     0.11162     0.03434    0.018884
-0.029789     0.10274  -0.0018351    0.010333     0.24942    0.068871    0.022501
-0.033406    -0.16166    0.012306     0.02875     0.38228     0.10143    0.026119
-0.043601    -0.46652    0.018555    0.048482     0.42372     0.12182    0.026119
-0.056756    -0.70035    0.021514    0.050126     0.34479     0.12116    0.020199
-0.069253    -0.77895    0.031052    0.027763     0.18069     0.10209   0.0096753
-0.077475     -0.6576     0.05473    -0.01203  -0.0031506    0.073804  -0.0038083
-0.076817    -0.33136    0.077751   -0.053138    -0.14456    0.047824   -0.016305
-0.06136     0.14122    0.063938   -0.086025    -0.21297    0.034011     -0.0265
-0.0265     0.65195  -0.0077547    -0.11299    -0.20902    0.034998   -0.030775
0.021186      1.1002    -0.11628    -0.14358    -0.14621    0.047824   -0.028802
0.070187      1.4264     -0.2133     -0.1814   -0.048205    0.065254   -0.020909
0.10965      1.6139    -0.25375    -0.20606    0.060979    0.078737  -0.0090702
0.13432      1.6928    -0.21626     -0.1814     0.16753    0.083342   0.0037556
0.14484      1.7241    -0.11168   -0.088327     0.27474    0.079724    0.015266
0.14648       1.774    0.022172    0.050126     0.36748    0.070187    0.026447
0.14517      1.8816      0.1353     0.16819     0.39379    0.049139    0.033354
0.14616      2.0483     0.19384     0.20996     0.28559    0.014937    0.033025
0.1501      2.2397     0.19088      0.1774    0.032367   -0.031433    0.024474
0.15175       2.391     0.14714     0.12313    -0.29058   -0.078132   0.0093464
0.14648      2.4272    0.092879     0.10603    -0.57604    -0.10806   -0.010057
0.13234      2.2992    0.052757     0.15471    -0.74705    -0.10806   -0.025842
0.11327       1.999    0.033683     0.24876    -0.78191   -0.075501   -0.031762
0.095839      1.5616    0.017239     0.33558    -0.70923   -0.023869   -0.023869
0.081697      1.0607   -0.025185     0.36321    -0.57571    0.030723  -0.0061104
0.074462     0.57796     -0.1097     0.31092     -0.4264    0.071502    0.015924
0.069529     0.17641    -0.21823     0.19647    -0.28894    0.089919    0.039931
0.065583    -0.11825    -0.31031    0.061965    -0.17153    0.084328     0.06065
0.063938    -0.30998     -0.3478   -0.045903   -0.064978    0.061636    0.077751
0.064925    -0.42147     -0.3113     -0.1005     0.04026    0.031381    0.090248
0.067885    -0.48034    -0.21395   -0.099838     0.13859   0.0070443    0.097812
0.072818     -0.5073   -0.086683   -0.061031     0.22048  -0.0034794     0.10077
0.08367    -0.52868     0.02875   -0.013017     0.27244   0.0060577    0.098798
0.092879    -0.58689     0.10768    0.014937        0.28    0.031381    0.096167
0.096167    -0.70956     0.13991     0.01132     0.24251    0.058676    0.094852
0.093208    -0.88978     0.13563   -0.020581     0.17641    0.073476    0.092879
0.081368     -1.0802     0.11162   -0.063333      0.1057     0.07216    0.088275
0.064267     -1.2256    0.085972    -0.10313    0.050455    0.063938    0.081697
0.042562     -1.2864    0.068543    -0.12911    0.021843    0.057361    0.069529
0.020199     -1.2512    0.061307    -0.13667    0.014608    0.052428    0.054072
-0.0024928     -1.1397    0.059992    -0.12878    0.018884    0.050126    0.038616
-0.028473    -0.98778    0.059992    -0.11003     0.01987    0.043877    0.021843
-0.056427    -0.82828    0.055059   -0.088656   0.0093464    0.031709   0.0017824
-0.085696     -0.6793     0.04026   -0.073857   -0.010057    0.010991   -0.019265
-0.11299    -0.54677    0.020199    -0.07024   -0.035051   -0.014003   -0.034064
-0.13404    -0.42443  -0.0034794   -0.076488   -0.056756   -0.037682   -0.041957
-0.14292    -0.29946   -0.028473   -0.092274   -0.071884     -0.0584   -0.044588
-0.13996    -0.16364   -0.050179    -0.10806   -0.076159   -0.075501   -0.043272
-0.13141   -0.012688    -0.06432    -0.11694   -0.065964   -0.086683   -0.038668
-0.1176     0.16424   -0.066622    -0.11562   -0.038339   -0.088985   -0.030447
-0.10181     0.36485   -0.056427    -0.10148 -0.00019077   -0.080434   -0.021896
-0.086025     0.55592    -0.03242   -0.077803    0.034011   -0.063333   -0.016963
-0.073199     0.67859      0.0054   -0.050836    0.054401   -0.044259   -0.013017
-0.063662     0.68484    0.059334   -0.027158    0.058019   -0.031104  -0.0074258
-0.057085     0.56513     0.12708   -0.010057    0.045851   -0.026171   0.0017824
-0.055112     0.35268     0.19121  -0.0018351    0.031709   -0.027816   0.0086887
-0.056098     0.10077     0.23363  -0.0051238    0.026447   -0.031762    0.010991
-0.057414    -0.13864     0.25205    -0.01203    0.032696   -0.030118   0.0086887
-0.053796    -0.32972     0.25665    -0.01795    0.045522   -0.024198   0.0060577
-0.041957    -0.45929     0.26192   -0.019265    0.058676   -0.019923      0.0054
-0.024527    -0.52901     0.27376   -0.014003    0.065583   -0.016634   0.0077021
-0.0047949    -0.55631     0.28855  -0.0031506    0.065583    -0.01499    0.012306
0.0034268    -0.56387      0.2708    0.012635    0.062952   -0.012359     0.01691
-0.0031506    -0.58229     0.15799    0.027434    0.063281  -0.0061104    0.018226
-0.025514    -0.63819   -0.059058    0.041575    0.068214   0.0014536    0.013622
-0.054783    -0.74475    -0.31821    0.053415    0.077422   0.0086887   0.0030979
-0.087012    -0.89208     -0.5198     0.05473    0.085644    0.014279   -0.010057
-0.11464     -1.0443    -0.59182    0.047166     0.08663    0.020199   -0.020909
-0.13404     -1.1621    -0.52539    0.034998     0.07512     0.02579   -0.024856
-0.14621     -1.2157    -0.37378    0.021843    0.049797    0.023159   -0.018278
-0.15048      -1.193    -0.20672   0.0083598    0.010662    0.012964  -0.0064392
-0.1495      -1.095    -0.08175  -0.0028217   -0.037024  -0.0015062   0.0017824
-0.14719    -0.93977   -0.019923   -0.012688   -0.086683   -0.019923   0.0034268
-0.14719    -0.76086   -0.014003   -0.021896    -0.12549   -0.042944   -0.002164
-0.14917    -0.58985   -0.038997   -0.029131    -0.14456   -0.069582  -0.0077547
-0.14851    -0.44581   -0.071226   -0.035051    -0.14062   -0.097207  -0.0057815
-0.13536    -0.32939   -0.096878   -0.036695    -0.11398    -0.11431   0.0050711
-0.10313    -0.22678    -0.10839   -0.032091   -0.071884    -0.11595    0.020528
-0.050836    -0.11661     -0.1005   -0.018607    -0.02354    -0.10378    0.033683
0.01691    0.023488   -0.070897   0.0044134    0.019212   -0.086025    0.038287
0.089261     0.19647   -0.026171    0.031052    0.045522   -0.068266    0.030394
0.15175     0.38787    0.021514    0.055717    0.054072   -0.062018     0.01691
0.18628     0.58388    0.064267    0.071831    0.049797   -0.071884   0.0014536
0.18562     0.74831    0.098798    0.073804    0.035327   -0.097207   -0.017621
0.15569     0.81343     0.12609     0.06624    0.012635    -0.12582   -0.038339
0.11031     0.70227     0.14616    0.058019    -0.01499    -0.14719   -0.054454
0.066898      0.3905     0.15207    0.054401   -0.045903     -0.1541   -0.055112
0.033354   -0.063004     0.13333    0.052428   -0.075501    -0.14127   -0.040641
0.0086887    -0.53493    0.088603    0.050126   -0.092931    -0.11201   -0.020909
-0.0084125    -0.91609    0.031709    0.052099   -0.089972   -0.073528  -0.0074258
-0.020581     -1.1558  -0.0077547    0.060321   -0.069253   -0.037353  -0.0041372
-0.02946     -1.2551  -0.0041372    0.078737   -0.041957   -0.011701  -0.0087413
-0.037682     -1.2308    0.044535     0.10669   -0.019923      0.0054   -0.012359
-0.047219     -1.0914     0.10801      0.1376  0.00046697    0.020528  -0.0084125
-0.050507    -0.83716     0.11623     0.15701    0.023488    0.040589   0.0024402
-0.045246    -0.49283  -0.0084125     0.14912    0.049139    0.064925    0.013293
-0.027816    -0.10477     -0.2475     0.10801    0.074133    0.084328    0.019541
-0.0024928     0.27704    -0.46948    0.041247    0.090905    0.096167     0.02283
0.026776     0.61874    -0.51618   -0.034722    0.094194     0.10472     0.01987
0.055388     0.90979    -0.31985    -0.10082    0.086959     0.11721    0.016253
0.077422      1.1722    0.045193    -0.13832    0.074462     0.13136    0.013293
0.096496      1.4402     0.41846      -0.137    0.061307     0.14254    0.016253
0.1182      1.7471     0.66511    -0.10017    0.050126     0.14813    0.022501
0.14583       2.098     0.73055   -0.043601    0.040918     0.14484    0.028092
0.1797      2.4466      0.6434    0.012306     0.03434     0.13432    0.029736
0.21423      2.7067     0.47963     0.05177    0.034998     0.12017    0.031052
0.24054      2.8027     0.31848    0.056703    0.050455     0.10669    0.038287
0.25238      2.7179     0.20436   0.0083598    0.082684    0.099127    0.051441
0.24745      2.4992     0.14714   -0.090629     0.12577    0.098141    0.065254
0.22278       2.218     0.12905    -0.20935     0.17148    0.098469    0.073804
0.18299      1.9122     0.12281     -0.3067     0.21588    0.089919     0.07216
0.13366      1.5896     0.10834    -0.35504       0.256    0.065912    0.060321
0.082355      1.2429    0.078737    -0.34451     0.27441    0.027434    0.042233
0.031709     0.87427    0.033025    -0.27085     0.23659   -0.018607    0.021843
-0.018278     0.50035   -0.023211    -0.13371     0.11458   -0.064978   0.0024402
-0.062676     0.15405   -0.080434     0.04881    -0.07024    -0.10576    -0.01499
-0.093589    -0.13667    -0.12417     0.23758     -0.2623    -0.13404   -0.027816
-0.1051    -0.35767    -0.14588     0.38228    -0.39944    -0.14654   -0.035051
-0.094905    -0.50763     -0.1393     0.44806    -0.44975    -0.14851   -0.036695
-0.064978    -0.59347    -0.11233     0.42668    -0.41358    -0.14522   -0.032749
-0.028144    -0.63227   -0.074186     0.34052    -0.31788    -0.13733    -0.02354
0.0021113    -0.64346   -0.035708     0.23002    -0.20639    -0.11661    -0.01203
0.022172    -0.64115  -0.0057815     0.14024     -0.1176    -0.07879 -0.00051963
0.033354    -0.62471 -0.00051963    0.093865   -0.068266   -0.033406   0.0090175
0.033354    -0.59117   -0.047877     0.08663   -0.054783   0.0080309    0.014937
0.022172    -0.54118    -0.15936    0.096167   -0.068595    0.034998    0.014279
0.00046697    -0.48659    -0.31689    0.096167   -0.094247    0.039602   0.0067154
-0.026829    -0.44975     -0.4754    0.070187    -0.12023    0.024803  -0.0080836
-0.053467    -0.45403    -0.59084    0.018226    -0.14127    0.002769   -0.022883
-0.076159    -0.50007    -0.63162   -0.042944    -0.15213   -0.015319   -0.028802
-0.092931     -0.5711    -0.58722   -0.096549    -0.14687   -0.021238    -0.02354
-0.098193    -0.64346    -0.48034    -0.12648    -0.11891   -0.013674   -0.012359
-0.094247    -0.69706    -0.33202    -0.13141   -0.062018  -0.0008485  -0.0015062
-0.089972    -0.71745    -0.16857    -0.11661    0.013293    0.010333   0.0070443
-0.087341    -0.70791   0.0011247   -0.089643    0.095181    0.020199    0.014937
-0.086354     -0.6918     0.18102   -0.053138     0.16819    0.030723    0.019541
-0.086354    -0.69871     0.38623   -0.010715      0.2162    0.042891    0.019541
-0.085696    -0.74212       0.624    0.032696     0.23002    0.053415    0.012306
-0.086683    -0.81282     0.84927    0.065583     0.20732    0.055059   0.0017824
-0.091287    -0.89603     0.98806     0.07808     0.15273    0.041575  -0.0041372
-0.10082    -0.97726     0.98444    0.061636    0.077751    0.015266  -0.0067681
-0.11562     -1.0466     0.83974    0.022501  -0.0038083   -0.015648  -0.0064392
-0.13536     -1.0924     0.60197   -0.019923   -0.067609   -0.043601  -0.0067681
-0.15772     -1.0858     0.34117   -0.051823    -0.10181   -0.064649  -0.0074258
-0.17285     -1.0036     0.11458    -0.07024     -0.1051   -0.079448  -0.0074258
-0.17087     -0.8388   -0.050179   -0.077803   -0.087669   -0.087341  -0.0074258
-0.15279    -0.60596    -0.15377   -0.082079   -0.060373   -0.086683  -0.0057815
-0.12253    -0.33991    -0.21001   -0.083723   -0.034064   -0.080434  -0.0057815
-0.087998   -0.083065    -0.24026   -0.085039   -0.012359   -0.073528  -0.0064392
-0.056098      0.1307    -0.25802   -0.087998  -0.0011774   -0.068595  -0.0057815
-0.027487     0.29151    -0.27348    -0.09326  -0.0011774   -0.067609  -0.0051238
-0.0028217     0.41813     -0.2919   -0.096549   -0.016305   -0.074844  -0.0080836
0.020199     0.54573    -0.30702   -0.099838   -0.045574   -0.087669  -0.0097279
0.04026     0.69734    -0.31294    -0.10247   -0.079777    -0.10444   -0.011372
0.055059     0.85651    -0.30275    -0.10247    -0.10905    -0.11661   -0.016963
0.070516     0.97655    -0.27381    -0.09326    -0.12023    -0.12319   -0.028473
0.086301      1.0121    -0.22875   -0.070568   -0.099509    -0.12483   -0.038339
0.097483     0.93807    -0.17778   -0.038339   -0.039984    -0.11825    -0.04393
0.10505     0.76147     -0.1324  -0.0080836    0.059992    -0.10115    -0.04097
0.10866     0.52534     -0.1005    0.012964     0.18693   -0.072542   -0.035051
0.10965     0.28132   -0.083065    0.030065     0.29184   -0.038997   -0.028144
0.1011    0.074462   -0.077475    0.047166     0.32144   -0.016963    -0.02354
0.080382   -0.073528   -0.077146    0.071831       0.256   -0.011372   -0.024198
0.053415    -0.16791    -0.07879     0.10242     0.12379   -0.014332   -0.027816
0.026119    -0.22875   -0.083065      0.1307   -0.021238   -0.019594   -0.029789
0.0070443    -0.28466   -0.085039     0.14879    -0.13371    -0.02354   -0.029131
-0.007097    -0.37806   -0.082079      0.1501     -0.1906   -0.022554   -0.027158
-0.015648    -0.55335   -0.077146     0.13464    -0.19554   -0.014661    -0.02946
-0.023869    -0.81085    -0.07583     0.10636    -0.16298  -0.0041372   -0.034722
-0.034064     -1.0966    -0.08471    0.066569    -0.11332   0.0057288   -0.042615
-0.046561     -1.3314     -0.1028    0.019541   -0.063991    0.015266   -0.049521
-0.056098     -1.4548    -0.13371   -0.038011   -0.031762    0.024474   -0.049192
-0.059058     -1.4571    -0.17679    -0.10707   -0.017292    0.031381   -0.041628
-0.06432     -1.3897    -0.22711    -0.18041   -0.020581    0.036314   -0.029789
-0.077803     -1.3364    -0.27052    -0.24322   -0.030118    0.041247   -0.020909
-0.10444     -1.3443    -0.29814    -0.27545    -0.03538    0.040918   -0.016634
-0.1416     -1.3877    -0.30571    -0.26953   -0.031762    0.036314   -0.014332
-0.17877     -1.4012    -0.29782    -0.23007   -0.019923    0.031381  -0.0087413
-0.20836     -1.3298    -0.27775    -0.17548  -0.0047949    0.032038   0.0024402
-0.22283     -1.1578     -0.2498    -0.11957     0.01132    0.039931    0.015266
-0.22218    -0.89734    -0.21856   -0.075501    0.023159    0.052428    0.027105
-0.20902    -0.57735    -0.19455   -0.050179    0.015924    0.066569    0.033354
-0.18403    -0.23928     -0.1814   -0.042286    -0.02354    0.074791    0.032038
-0.1518    0.093208    -0.17515   -0.048534     -0.1028    0.067227    0.027763
-0.11036     0.40826     -0.1643   -0.059716    -0.20771    0.050126    0.022501
-0.054454      0.7174    -0.13108   -0.063004    -0.30505    0.033354    0.018555
0.013293      1.0315   -0.066951   -0.041628     -0.3307    0.026119    0.017897
0.081697      1.3524    0.015595   0.0086887    -0.23994    0.031709    0.021843
0.13563      1.6514    0.085315      0.0692    -0.04985    0.038944     0.02579
0.16457      1.8767     0.11952     0.11294     0.15635    0.039931    0.027105
0.16589      1.9395     0.11031     0.11623     0.28527    0.031381    0.018884
0.14714      1.7685    0.065583    0.079066     0.29349    0.010662   0.0037556
0.11689      1.3672   0.0030979    0.019541     0.20239   -0.020252   -0.013674
0.080711     0.80619   -0.064978   -0.038668    0.070516   -0.056098   -0.028802
0.04322       0.207    -0.13305   -0.073857    -0.04097   -0.086683   -0.040641
0.0073732    -0.30472    -0.20212    -0.08175   -0.099838    -0.10115   -0.047877
-0.027816    -0.65595    -0.26164   -0.066622    -0.10872   -0.096878   -0.045574
-0.06136    -0.85952    -0.29683   -0.037353    -0.08175   -0.076488   -0.033078
-0.085367    -0.96311    -0.29058  -0.0061104   -0.045246   -0.048205   -0.016963
-0.094247    -0.99929     -0.2202    0.017568   -0.016305   -0.019923   0.0034268
-0.087998    -0.96377   -0.066293    0.030065   0.0037556   0.0073732    0.024803
-0.06728    -0.82302     0.15536    0.033354    0.020857    0.030723    0.039602
-0.034722    -0.55006     0.38491    0.034998    0.040589    0.054072    0.044206
0.0037556    -0.14456     0.55987    0.048482    0.058019     0.07216    0.041904
0.041904     0.35795     0.64801    0.079724    0.068871    0.085972    0.038944
0.074133     0.89466     0.65064     0.11985    0.071173    0.093536    0.040589
0.097483      1.3873     0.58256      0.1501    0.063938    0.096496    0.049139
0.11195      1.7675     0.46417     0.15865    0.044206    0.091563    0.062623
0.12379      2.0092     0.28296     0.14846    0.017239    0.075778    0.079395
0.14089      2.1342    0.012964     0.13201  -0.0097279    0.053743     0.09255
0.16753      2.1822    -0.30867     0.12478   -0.029789    0.029078    0.091892
0.20239      2.1736    -0.56913     0.13728   -0.034064   0.0086887    0.075778
0.23232       2.099    -0.70068     0.16391   -0.021896  -0.0038083    0.049797
0.24153      1.9678    -0.71877     0.18595  -0.0011774   -0.013017    0.025132
0.22706      1.8227    -0.65595     0.17477    0.020528   -0.018278   0.0047422
0.19976       1.728    -0.51388     0.10965    0.034998   -0.021896   -0.010057
0.17181       1.728    -0.29782  -0.0038083    0.038287   -0.022554   -0.018278
0.15207      1.8102   -0.041628    -0.12615    0.031709   -0.021567   -0.020909
0.14583      1.9069     0.20239    -0.21527     0.01691   -0.023211    -0.01795
0.14879      1.9447     0.38261    -0.24421  -0.0067681   -0.030447   -0.012359
0.15471      1.8826     0.47404    -0.21165   -0.037024   -0.041957  -0.0074258
0.15865      1.7218     0.49114    -0.13897   -0.069253   -0.047877  -0.0087413
0.15734      1.4965     0.50002   -0.058071   -0.096549    -0.04097   -0.010057
0.15536      1.2633     0.57796   0.0083598    -0.10872   -0.016963  -0.0024928
0.15438      1.0542     0.74765    0.051441   -0.097207     0.02283    0.017897
0.15043     0.85717     0.96109    0.073476   -0.063004    0.071502     0.04322
0.14287     0.63419      1.1134    0.081368   -0.013017      0.1182    0.062952
0.12544     0.35367      1.1097    0.077751    0.042562     0.15076    0.072489
0.093536   0.0093464     0.92491    0.061636    0.093536     0.16293    0.075449
0.049797     -0.3728      0.6115    0.037629      0.1284     0.15997    0.072818
0.002769    -0.74836      0.2629   0.0080309      0.1284     0.14616    0.062952
-0.038997     -1.0703   -0.022554    -0.02354     0.08367     0.12675    0.047166
-0.072213     -1.3078    -0.19784   -0.045903   0.0063866     0.10439    0.026776
-0.095562     -1.4518    -0.26394   -0.048863    -0.07583    0.081697   0.0090175
-0.11233     -1.5113    -0.25572   -0.033406    -0.12516    0.059663   0.0001381
-0.12417     -1.5057    -0.21001   -0.011701    -0.11135    0.042891 -0.00019077
-0.13174     -1.4617    -0.16166   0.0037556   -0.028802    0.029736    0.002769
-0.13272     -1.4081    -0.13404    0.010333    0.084328    0.012635   0.0011247
-0.12779      -1.367    -0.13009     0.01691     0.17904  -0.0087413  -0.0077547
-0.11825     -1.3472    -0.13996    0.035656     0.21851   -0.034393   -0.016305
-0.1097      -1.341    -0.15476    0.065254     0.18693   -0.057085   -0.016634
-0.10641     -1.3334    -0.16726    0.088603    0.082355   -0.070568  -0.0057815
-0.10773     -1.3143    -0.17482    0.092879   -0.087341   -0.075173   0.0067154
-0.10576     -1.2755    -0.17679    0.082355    -0.30439   -0.071226   0.0096753
-0.095233     -1.2147    -0.17219    0.070187    -0.50237   -0.060045    0.002769
-0.07879     -1.1364    -0.15838    0.062294    -0.59149   -0.048863   -0.002164
-0.063662     -1.0539    -0.13733    0.051441    -0.51651   -0.048534  -0.0024928
-0.0584    -0.98416    -0.11694     0.03434    -0.28795   -0.059387  -0.0018351
-0.063333    -0.93878     -0.1051    0.017897    0.011977    -0.07879  -0.0047949
-0.07287    -0.92332    -0.10148    0.011648     0.26948     -0.1051  -0.0097279
-0.085367    -0.93878    -0.10674    0.016581     0.39873    -0.14029   -0.018278
-0.09918    -0.97364    -0.11628    0.026776     0.37965    -0.17811   -0.028802
-0.11299     -1.0026    -0.12384    0.033683     0.25764    -0.20705   -0.035708
-0.11825     -1.0062     -0.1245    0.031052     0.11426    -0.22152   -0.037682
-0.11595    -0.97758    -0.12483    0.019541  0.00046697    -0.22283    -0.03242
-0.10543    -0.92332    -0.13371  0.00046697   -0.074186    -0.21527   -0.021896
-0.093589    -0.85821    -0.15509   -0.016963    -0.12187    -0.20244  -0.0084125
-0.086683    -0.80263    -0.18041   -0.028473    -0.15048    -0.18699   0.0050711
-0.086683    -0.76382    -0.20244   -0.033735     -0.1587    -0.16923    0.013293
-0.093589     -0.7431    -0.21428   -0.038668    -0.12417    -0.15344    0.014279
-0.10905    -0.73192    -0.21165   -0.052481   -0.035708    -0.14095    0.010004
-0.12911    -0.72337    -0.19652   -0.068266    0.093208    -0.13207   0.0030979
-0.14226    -0.70791    -0.16956   -0.061689     0.22837    -0.11529   -0.004466
-0.14851    -0.67963    -0.12417   -0.019923      0.3244   -0.083723  -0.0067681
-0.14917     -0.6349   -0.060045    0.055717     0.35236   -0.033406  -0.0024928
-0.14391    -0.57078    0.018884     0.14714     0.32243    0.031709   0.0067154
-0.1245    -0.49448    0.096496     0.22706     0.25238     0.10472    0.017568
-0.091945    -0.42048      0.1524      0.2731     0.14879     0.17477    0.028421
-0.051823    -0.35833     0.16622      0.2708    0.023159     0.23166      0.0373
-0.012688    -0.31163     0.13267     0.22147   -0.089314     0.27277    0.044206
0.01132    -0.28203    0.065254     0.14254    -0.15114     0.29678    0.049797
0.016253    -0.26296   -0.011372     0.05769    -0.15344     0.30368     0.05769
0.010662    -0.24717   -0.077803   -0.011701    -0.11694     0.29283    0.067885
0.0017824    -0.22974    -0.12483   -0.056756   -0.068924     0.26521    0.076764
-0.0038083    -0.20409    -0.15048   -0.081092   -0.026171     0.22574    0.081697
-0.0034794    -0.16627    -0.16166   -0.094576   0.0014536     0.18299     0.08367
0.0021113    -0.12089    -0.16397    -0.10115    0.011648     0.14616    0.080382
0.0060577   -0.080106    -0.16002    -0.10115    0.011648      0.1182    0.071173
0.0063866   -0.051494    -0.15311   -0.097207    0.010004     0.10176    0.055717
0.0073732   -0.030447    -0.14489   -0.091945   0.0096753    0.093865    0.034998
0.0093464   -0.015319    -0.13634   -0.086025    0.010004    0.088932    0.015924
0.0093464    -0.01203    -0.12812   -0.079119   0.0047422    0.081039    0.002769
0.0014536   -0.039326    -0.14029   -0.071226   -0.010057    0.064267   -0.004466
-0.015319    -0.11398    -0.20508   -0.063662   -0.030118    0.044535  -0.0077547
-0.038011    -0.23665    -0.33662   -0.058729   -0.051165    0.032038   -0.011372
-0.057743    -0.40042    -0.51388   -0.059716    -0.07287    0.029078   -0.016963
-0.07287    -0.60004    -0.70101   -0.068595   -0.094576    0.032696   -0.026829
-0.08471    -0.84143    -0.85327   -0.085696     -0.1097    0.035985   -0.039326
-0.096549     -1.1042     -0.9345    -0.10477     -0.1176    0.034669   -0.050179
-0.1051     -1.3377    -0.93779    -0.11924    -0.11957    0.030723   -0.055769
-0.10773     -1.4785    -0.88419    -0.12549    -0.11661    0.021843   -0.057414
-0.10313     -1.4732    -0.80592    -0.11562    -0.10937   0.0067154   -0.054783
-0.085039     -1.2986    -0.67766   -0.084052   -0.098522   -0.010386   -0.041957
-0.053138    -0.97002    -0.39516   -0.028802   -0.082736   -0.022554   -0.015319
-0.012688    -0.52276     0.11327    0.035327   -0.063991   -0.023211     0.01987
0.027105   -0.021896     0.77232    0.083999    -0.04097   -0.016634     0.04881
0.059663      0.4645      1.3853    0.098141   -0.019923   -0.010386     0.06361
0.079066     0.90255      1.7566    0.075778  -0.0047949   -0.014661    0.064267
0.086301      1.2962        1.78    0.037629   0.0014536   -0.033735    0.052428
0.087288      1.6589      1.4955    0.010333   0.0070443   -0.063991    0.039273
0.086301      2.0062      1.0972   0.0080309    0.016253   -0.096878    0.029407
0.088932      2.3358     0.78317    0.027434    0.032367     -0.1222     0.02579
0.09551      2.6242     0.61413    0.049797     0.05177     -0.1347     0.01987
0.10505      2.8248     0.53685    0.060979    0.073804    -0.14029   0.0044134
0.10801      2.8915     0.47535    0.056703    0.091892    -0.14292   -0.020581
0.097483       2.811     0.38031    0.035985    0.098141    -0.14456   -0.054125
0.075778      2.5985     0.23298   0.0050711    0.088603    -0.14654   -0.085696
0.052099      2.2838    0.042233   -0.026829    0.064596    -0.15476     -0.1074
0.032367      1.9086    -0.17515    -0.05281    0.029407    -0.17153    -0.11431
0.017897      1.5202    -0.39056   -0.073199  -0.0097279    -0.18929    -0.11036
0.011648      1.1647    -0.56288   -0.085039   -0.039326    -0.19685    -0.09622
0.017568     0.88249    -0.65398   -0.084052   -0.055112    -0.18403   -0.076488
0.036314     0.69898    -0.63326   -0.076488    -0.04985    -0.15213   -0.054783
0.068871     0.61413    -0.49251   -0.065307   -0.028144    -0.11266   -0.032749
0.11228     0.60065    -0.24816   -0.038339   0.0050711   -0.082736   -0.014003
0.15569     0.62104    0.084657    0.022501    0.038287   -0.068266   0.0014536
0.19088     0.63946     0.49706     0.12379    0.067556   -0.066951    0.014279
0.2116     0.63025     0.96438     0.25008    0.084657    -0.07287    0.021843
0.21423     0.58289      1.3926     0.36617    0.082355   -0.083723    0.018555
0.19877     0.49344       1.632     0.42503    0.059005   -0.099838   0.0086887
0.16753     0.36847      1.5389     0.39807    0.016581    -0.12187  -0.0015062
0.1284     0.22377      1.0775     0.28461   -0.039655    -0.14555  -0.0077547
0.089919    0.076435     0.36584     0.10899   -0.098522    -0.16462  -0.0093991
0.059334   -0.059387    -0.36359   -0.080106    -0.15739    -0.17153   -0.012359
0.036314    -0.17054    -0.88156    -0.23434    -0.21428    -0.16561   -0.020252
0.01691     -0.2498     -1.0999    -0.31919    -0.25408    -0.14983    -0.03538
-0.00051963    -0.30242      -1.067    -0.32676    -0.24651    -0.13042   -0.053796
-0.014661    -0.33333    -0.90195    -0.27348    -0.16068    -0.10576   -0.068595
-0.024198    -0.34682    -0.71975    -0.19422   -0.014332   -0.074844   -0.073199
-0.029789    -0.35043    -0.57933    -0.12746     0.11524   -0.048534   -0.064649
-0.034393    -0.34945    -0.48626   -0.093918     0.15142   -0.034722    -0.04689
-0.04097    -0.35043    -0.41358   -0.093918    0.075449   -0.038339   -0.028144
-0.050507    -0.35339      -0.333    -0.11299   -0.074515   -0.058729   -0.018607
-0.058071    -0.35504    -0.25967    -0.12812    -0.23928   -0.088327   -0.019923
-0.060045    -0.34945    -0.22974     -0.1222    -0.36556    -0.12319     -0.0265
-0.053467    -0.33136     -0.2304   -0.091945    -0.41489    -0.15311   -0.033735
-0.034722    -0.29814    -0.19883    -0.04393      -0.358    -0.16561   -0.035051
-0.0084125    -0.24717   -0.087341    0.014937    -0.17811    -0.15279   -0.027158
0.017897    -0.18501    0.085315    0.076106    0.094194    -0.11398   -0.010386
0.035656    -0.12352     0.25041     0.12017     0.36551   -0.058729   0.0086887
0.04026   -0.079777     0.33821     0.11721     0.52961  -0.0028217    0.020857
0.029078   -0.069253     0.31881    0.053086     0.52665    0.039602    0.024803
0.0060577    -0.10872     0.20404   -0.057085     0.37932    0.065583    0.024145
-0.023869    -0.21987    0.041247    -0.16693      0.1695    0.077751     0.02283
-0.057085    -0.39713    -0.11727    -0.23138  -0.0087413    0.081039    0.020857
-0.088985    -0.62109    -0.22777    -0.23171    -0.10214    0.077751    0.018884
-0.11825    -0.85952    -0.27644    -0.17252    -0.11332    0.076764    0.018226
-0.14095     -1.0749    -0.26986   -0.078461   -0.087669    0.079395     0.01691
-0.16035     -1.2305    -0.23171    0.023817    -0.07879    0.084986    0.014279
-0.17712     -1.3012    -0.18797     0.10768    -0.11135    0.092879   0.0044134
-0.18797     -1.2877    -0.15805     0.15109    -0.17745     0.10439  -0.0097279
-0.19126     -1.2032    -0.14719     0.14616    -0.24388     0.12083   -0.024198
-0.19093     -1.0575    -0.15476      0.1034    -0.27348     0.14089   -0.033406
-0.18633    -0.85985    -0.17054    0.042562     -0.2521     0.16556    -0.03242
-0.17581    -0.61879    -0.18534    -0.01499    -0.18929     0.19417   -0.019265
-0.15936    -0.34747    -0.19225   -0.059058    -0.11036     0.21851  -0.0024928
-0.13404   -0.058071    -0.18633   -0.084381   -0.035051     0.23232    0.012635
-0.10017     0.23561    -0.16989   -0.089972    0.022172     0.23462    0.025132
-0.060045     0.52041    -0.14555    -0.08175    0.057032     0.23199    0.036642
-0.018278     0.78317    -0.11266   -0.060373     0.07808     0.22903    0.049139
0.021186      1.0177   -0.066622   -0.021567     0.09551     0.22607    0.061636
0.06065      1.2225  -0.0087413    0.037629     0.11458     0.22245    0.065912
0.10439       1.387    0.053415     0.10735      0.1353     0.21588     0.05769
0.15339      1.4833     0.10735      0.1695     0.15471     0.20601    0.045522
0.20305      1.4814      0.1432     0.20404      0.1695     0.19614    0.037629
0.24087      1.3672     0.15372     0.20173     0.17214     0.18693    0.035656
0.25369      1.1479     0.13892     0.16556     0.15569     0.17937    0.041247
0.23758     0.83908     0.10702     0.10768      0.1205     0.17115     0.04618
0.19647     0.46877    0.067885     0.04618    0.073804     0.15701    0.049139
0.14681    0.087288    0.031381  -0.0015062    0.029078     0.13497    0.050126
0.10702     -0.2498   0.0044134   -0.024856  -0.0038083     0.10866    0.046837
0.081697    -0.49382   -0.010386   -0.024856   -0.015319    0.084328     0.04026
0.065912    -0.63227   -0.017621  -0.0057815  -0.0051238     0.06624    0.034998
0.05177    -0.67634   -0.021896    0.015595    0.013951    0.056046    0.034669
0.031709    -0.64773   -0.028802    0.018884    0.033025    0.046837    0.036971
0.0093464    -0.56486   -0.038011   -0.004466    0.044864    0.037958    0.036642
-0.010057    -0.43824   -0.049521   -0.053467    0.046508    0.029078    0.032367
-0.022883    -0.27973   -0.063662    -0.11398    0.028421    0.024145    0.026119
-0.031433    -0.10937    -0.07583    -0.16594  -0.0067681    0.021514    0.023159
-0.035708    0.055717   -0.073528    -0.19554   -0.041628    0.018555    0.023488
-0.031104     0.20206   -0.055769    -0.20573   -0.042286    0.021186    0.026447
-0.02354     0.31914   -0.027158     -0.2008    0.029078    0.030394    0.030723
-0.017621     0.39971  -0.0008485    -0.16495     0.16457    0.042891    0.034669
-0.019923     0.44345    0.019541   -0.067609     0.30138    0.043549    0.031381
-0.025842     0.45134    0.043877    0.098469     0.34808    0.019212    0.019212
-0.030118     0.42503    0.090577     0.29546     0.25698   -0.025185   -0.002164
-0.027816     0.36419     0.15832     0.45693     0.06361   -0.080434   -0.028144
-0.020909     0.27145     0.22837     0.53225    -0.14752    -0.13075   -0.046561
-0.007097     0.15207     0.28494     0.50561    -0.29683    -0.16364   -0.050836
0.0080309 -0.00051963     0.31486     0.40037    -0.35076    -0.17153   -0.044588
0.011977    -0.19488     0.31519     0.25863    -0.32445    -0.16166   -0.034393
-0.00051963     -0.4435        0.28      0.1284    -0.25638    -0.14062   -0.027487
-0.029789    -0.74409     0.20371    0.032367    -0.18436    -0.11891   -0.025842
-0.073528     -1.0782    0.095839   -0.028802    -0.13634    -0.10641   -0.033735
-0.11957     -1.3982   -0.024856   -0.068924    -0.12319    -0.10641   -0.052481
-0.15443     -1.6389    -0.13996    -0.10214    -0.13667    -0.11135   -0.074515
-0.17515     -1.7573    -0.23402    -0.13766    -0.15903    -0.11727   -0.091287
-0.18337     -1.7438    -0.29453    -0.17909    -0.17482    -0.12187   -0.097207
-0.18797     -1.6153    -0.31853    -0.22514    -0.17186    -0.12154   -0.088985
-0.18765     -1.4114    -0.33235    -0.26657    -0.14423    -0.11266   -0.066951
-0.18041      -1.195    -0.36655    -0.28499   -0.095233   -0.092603   -0.035051
-0.16265     -1.0529    -0.43528    -0.26164    -0.02946   -0.062018  -0.0015062
-0.14522     -1.0618     -0.5346    -0.19192    0.048153   -0.027816    0.024145
-0.13864     -1.2512    -0.63589   -0.092603     0.12083  -0.0061104    0.041904
-0.1495     -1.5646    -0.68983    0.012306     0.16983  -0.0064392    0.049468
-0.17515     -1.8636    -0.64938     0.10505     0.18299   -0.028144     0.04618
-0.20508     -2.0089    -0.50434      0.1774      0.1603   -0.064649    0.029078
-0.22316     -1.9119    -0.28499     0.22081     0.11491    -0.10181   0.0040845
-0.21823     -1.5531    -0.04985     0.23166    0.064596    -0.12845   -0.015319
-0.18633    -0.97265     0.14484     0.21226    0.025132     -0.1347   -0.024527
-0.13108    -0.25342     0.27408     0.17016   0.0063866    -0.12944   -0.019923
-0.060373     0.49739     0.34578     0.12083    0.010004    -0.11793  -0.0031506
0.020528      1.1854      0.3882    0.083342    0.040918     -0.1005    0.021514
0.11426      1.7619     0.42339    0.070516     0.10505    -0.07879    0.050784
0.21785      2.2137     0.45957     0.09255     0.19812   -0.051823    0.080053
0.32933      2.5706     0.49475     0.15207     0.29678   -0.019265     0.10439
0.43753       2.884     0.51876      0.2241     0.36025    0.014937     0.12017
0.52633       3.203     0.52041     0.24975     0.34216    0.040589     0.12215
0.58552        3.57     0.50824     0.18332     0.22706    0.052099     0.11195
0.61216       3.984     0.50298    0.035327    0.051441    0.053086    0.099456
0.60986       4.378     0.52172    -0.12154    -0.11727    0.053086    0.087946
0.58618      4.6365     0.56151    -0.21165    -0.22448     0.05473    0.076764
0.5408      4.6444     0.60723    -0.20277    -0.26197    0.058348    0.064267
0.47272       4.328     0.63683    -0.12286    -0.25473    0.063281     0.04881
0.38327      3.6683     0.63452   -0.026829    -0.23369    0.064267    0.031709
0.27803      2.6939     0.59309    0.040918    -0.21659    0.053415    0.016253
0.16457      1.5008     0.51745    0.062623     -0.2054    0.028092      0.0054
0.052428     0.25764     0.41352    0.047495    -0.18962   -0.004466  -0.0034794
-0.044588    -0.81973     0.25896    0.013293    -0.15969    -0.03538  -0.0090702
-0.11891     -1.5748     0.01691   -0.022554     -0.1176   -0.057085  -0.0087413
-0.16824      -2.001    -0.29946   -0.048205   -0.069253   -0.063662  -0.0064392
-0.19652     -2.1835     -0.6086   -0.062676   -0.023211    -0.05544  -0.0047949
-0.20771     -2.2348     -0.8092   -0.071555    0.018884   -0.042944  -0.0031506
-0.20475      -2.221    -0.84176   -0.077146    0.057361    -0.02946 -0.00051963
-0.19324      -2.149    -0.72699   -0.082736    0.083342   -0.021238   0.0044134
-0.18008     -1.9984    -0.54447   -0.094247    0.089261   -0.022883   0.0083598
-0.17186     -1.7609    -0.38266    -0.11332    0.074791   -0.038011   0.0067154
-0.17186     -1.4512    -0.28762    -0.13963    0.047495   -0.065635   0.0017824
-0.1837     -1.1078    -0.25835    -0.16693    0.014608   -0.094247  -0.0061104
-0.20277    -0.77171    -0.25769    -0.19028   -0.016305    -0.11398   -0.014332
-0.21757    -0.46126    -0.25112    -0.20014   -0.036366    -0.12384   -0.019265
-0.21264    -0.16824     -0.2202    -0.18765   -0.046232    -0.12187   -0.022554
-0.18008     0.13267    -0.16462    -0.15542   -0.048205    -0.10707   -0.020581
-0.12352     0.45398    -0.09326    -0.11398   -0.043272   -0.080763  -0.0077547
-0.059716     0.77528   -0.010057   -0.071226   -0.030118   -0.045574     0.01691
-0.0031506      1.0449    0.092879    -0.04097  -0.0093991   -0.011043    0.043549
0.035327      1.2051     0.21949   -0.026171     0.01132    0.013951    0.061636
0.047166      1.2294      0.3688   -0.022225    0.023488    0.022172     0.06361
0.034011      1.1301     0.51186   -0.020581    0.019541    0.014279    0.047166
0.0077021     0.93248     0.60723   -0.027487  -0.0024928  -0.0051238     0.01987
-0.015648     0.65557     0.61907   -0.064649   -0.038011   -0.026829   -0.004466
-0.025842     0.31158     0.54507    -0.14292    -0.06432   -0.042286   -0.015976
-0.020581   -0.063004     0.41879    -0.24487   -0.056756   -0.042615   -0.010386
-0.004466    -0.40733     0.28691    -0.33333  -0.0054526   -0.023211   0.0073732
0.010333    -0.67272     0.18661     -0.3774    0.085315   0.0047422    0.029736
0.018226    -0.83913     0.12807    -0.36425     0.19549    0.028421    0.041904
0.012306    -0.91444    0.098141    -0.29354      0.2708    0.042562    0.036642
-0.010715    -0.92661    0.071502    -0.16989     0.25304    0.041247    0.012306
-0.047877    -0.90819    0.027105   -0.007097     0.12774    0.025132   -0.019265
-0.089972    -0.88287   -0.038997     0.17312   -0.065307 -0.00051963   -0.050179
-0.12417    -0.86018     -0.1097     0.33953    -0.25704   -0.027487   -0.069253
-0.14095    -0.83683     -0.1587     0.45792    -0.38332    -0.04985   -0.074844
-0.14029    -0.81184    -0.17022     0.50495    -0.42048   -0.062018   -0.067937
-0.12812    -0.78783    -0.14719     0.47404    -0.37773   -0.062347   -0.052481
-0.10773    -0.77204    -0.10543     0.38327    -0.28598   -0.053467   -0.039326
-0.090629    -0.76908   -0.066293      0.2708    -0.17416   -0.043272   -0.030775
-0.086354    -0.78092    -0.04689     0.16885   -0.068595   -0.033078   -0.025514
-0.094576    -0.80789   -0.052481    0.094194    0.014608   -0.021567   -0.023211
-0.10872    -0.84439   -0.073528     0.04618    0.067885  -0.0064392   -0.026829
-0.12089    -0.88123   -0.095562    0.020857    0.090905   0.0070443   -0.030447
-0.12286    -0.90392    -0.10641   0.0080309    0.091892    0.017239   -0.030775
-0.11299    -0.90589   -0.099838  -0.0008485    0.082026    0.029078   -0.027487
-0.096549     -0.8878   -0.081092   -0.010057      0.0692    0.042562   -0.021238
-0.079119    -0.85952   -0.066622   -0.022225    0.056046    0.050784   -0.014661
-0.067609    -0.83091   -0.073528   -0.038997    0.041247    0.043877   -0.011701
-0.060702    -0.80493    -0.10477   -0.058071    0.020199    0.025132  -0.0090702
-0.056427    -0.77434    -0.14489    -0.07583  -0.0074258   0.0001381  -0.0074258
-0.04985    -0.73587    -0.16824   -0.084052   -0.042286   -0.025514  -0.0051238
-0.041628    -0.69311    -0.16035   -0.081092   -0.081092   -0.051165  -0.0024928
-0.035051    -0.65332    -0.13503   -0.068924    -0.11793   -0.079448   0.0011247
-0.031762    -0.62405    -0.14358   -0.050507    -0.14851     -0.1051   0.0017824
-0.032749    -0.60695    -0.26098   -0.031433     -0.1735    -0.12319  -0.0018351
-0.036695    -0.59314    -0.49382   -0.017292    -0.18995    -0.13272  -0.0080836
-0.043601    -0.57439    -0.73652   -0.010715    -0.17877    -0.13568   -0.014332
-0.053138    -0.54743    -0.82795  -0.0084125    -0.11168    -0.13568   -0.020909
-0.064649    -0.52835    -0.66582    0.002769    0.032696    -0.13766   -0.026829
-0.078132    -0.53822    -0.29453      0.0373     0.23988    -0.14423   -0.034393
-0.091945    -0.59774     0.13267     0.10011     0.45562    -0.15739   -0.044259
-0.10378    -0.70693     0.45529     0.17575      0.5898    -0.17219     -0.0584
-0.11727    -0.84275     0.58421     0.23528     0.56086    -0.18501    -0.07879
-0.13503    -0.96673     0.52106     0.25468      0.3586    -0.18896   -0.098193
-0.15311      -1.043     0.34084       0.231    0.058348    -0.17712    -0.10806
-0.16265     -1.0565     0.13366     0.17345    -0.22711    -0.14292    -0.10477
-0.15903     -1.0105   -0.036037    0.099785    -0.40437   -0.085367   -0.089643
-0.14818    -0.92266    -0.14095    0.023488    -0.44054  -0.0097279   -0.064978
-0.13371    -0.81677    -0.18732   -0.042944    -0.35866     0.07512   -0.040313
-0.11529     -0.7214     -0.1985   -0.094247     -0.2179     0.15898   -0.017621
-0.098522    -0.66154    -0.19389    -0.13042    -0.08175     0.22443   0.0014536
-0.084052    -0.64017    -0.18501    -0.15542   0.0080309     0.26521    0.017239
-0.073199    -0.63195    -0.17383    -0.16923    0.042562     0.28691     0.02875
-0.060373    -0.58722    -0.16265     -0.1689    0.039931      0.2925    0.036314
-0.043601    -0.46356    -0.15476    -0.14851    0.024145     0.28954     0.04322
-0.02354    -0.23796    -0.15279     -0.1051     0.01132     0.28099    0.046837
-0.00051963    0.090577    -0.15114   -0.039984   0.0080309     0.26817    0.043877
0.024803     0.50331    -0.14095    0.033354    0.010991     0.25106    0.036642
0.049468     0.95024    -0.12089    0.098141    0.011648     0.22837    0.032038
0.073804      1.3593   -0.094247     0.13432   0.0024402     0.20436    0.034011
0.093536       1.655   -0.062018     0.13695    -0.01499     0.18562    0.038944
0.10965      1.7888    -0.02946     0.11195   -0.033078     0.17082    0.042233
0.1205      1.7635  -0.0031506    0.070516   -0.043272     0.15602    0.040918
0.12445      1.6316   0.0080309    0.024474   -0.040641     0.13695    0.039273
0.12215      1.4748 -0.00019077   -0.014003   -0.026171     0.10965    0.034998
0.11985      1.3616   -0.025514   -0.038668   -0.004466    0.074462     0.02579
0.12346      1.3284   -0.064649   -0.050836    0.018884    0.037629    0.014279
0.13596      1.3801    -0.11595   -0.060373    0.040918   0.0090175   0.0063866
0.15832      1.4823    -0.16857   -0.071555    0.059005  -0.0061104   0.0040845
0.18726      1.5695    -0.20902   -0.079777     0.06624   -0.010715   0.0044134
0.20831      1.5764    -0.22842   -0.076159    0.059334   -0.014003   0.0073732
0.2162      1.4689    -0.21297   -0.055769    0.039602   -0.022554    0.012635
0.20831      1.2574    -0.15509   -0.026829    0.011648   -0.036366    0.013622
0.19351     0.98477   -0.057085   -0.004466   -0.018936    -0.05544    0.010004
0.17608     0.70556    0.064267   0.0080309   -0.043272   -0.071555   0.0073732
0.15997     0.46812     0.18463   0.0050711   -0.058729   -0.076488   0.0093464
0.14418     0.30401     0.26981  -0.0093991   -0.068924   -0.069582    0.015266
0.12873     0.22048     0.28691   -0.031104   -0.072213   -0.059387    0.020528
0.11458     0.20009     0.22969   -0.054454   -0.071884   -0.051494    0.022501
0.10209     0.21555      0.1307   -0.077803   -0.071555    -0.04985    0.025461
0.090248      0.2389    0.042233    -0.10674   -0.072542   -0.055112    0.027434
0.077751     0.25961   0.0083598    -0.14226   -0.079448   -0.062347    0.029407
0.063938     0.26948    0.036314    -0.17383     -0.0903   -0.066622    0.029407
0.051113     0.26455     0.10209    -0.19126   -0.099838   -0.070568    0.029078
0.044535     0.24547     0.15997    -0.18863    -0.10247   -0.075173    0.030065
0.042233      0.2139      0.1751    -0.16495   -0.097536   -0.085039    0.032696
0.037958     0.17214     0.14385    -0.12384   -0.085696   -0.098851    0.032696
0.025132      0.1159    0.088275   -0.073857   -0.069582    -0.11299    0.026776
0.0037556     0.01132    0.034669   -0.028473    -0.05544    -0.12582    0.018555
-0.017621    -0.18205  -0.0038083   0.0037556   -0.046232    -0.13799    0.010004
-0.030118    -0.46028   -0.038011    0.021186   -0.040641    -0.15081   0.0047422
-0.030447    -0.77138   -0.094247    0.027763   -0.038011    -0.15969   0.0034268
-0.024856     -1.0443    -0.18633    0.029078   -0.035051    -0.15969   0.0050711
-0.022225     -1.2387    -0.30374    0.031052   -0.022883    -0.14654      0.0054
-0.028802     -1.3627    -0.42213    0.036971   0.0017824     -0.1199   0.0040845
-0.048863     -1.4459     -0.5175    0.047166    0.034669   -0.085367   0.0024402
-0.082079     -1.4913    -0.57702    0.055388    0.068543   -0.049192   0.0017824
-0.11793     -1.4719    -0.60037    0.057032    0.093865   -0.018936    0.002769
-0.14456     -1.3551    -0.59182    0.050126     0.10834   0.0040845   0.0060577
-0.15607      -1.122    -0.55598    0.039931     0.11031    0.015266   0.0077021
-0.1495    -0.78125    -0.49974    0.032696    0.099127    0.011977   0.0077021
-0.12976    -0.37214    -0.43166    0.026447    0.079724 -0.00019077   0.0067154
-0.1028    0.053415    -0.35833    0.019212    0.053086   -0.015648   0.0024402
-0.078132     0.44773    -0.27545    0.010991    0.024474   -0.029131  -0.0064392
-0.061031     0.78843    -0.19258   0.0034268   0.0034268   -0.038997   -0.014332
-0.047877      1.0867    -0.11825  -0.0018351  -0.0064392   -0.044259   -0.014661
-0.027158      1.3669   -0.038011   0.0001381  -0.0057815   -0.038011  -0.0064392
0.0093464      1.6392    0.096825    0.013951   0.0060577   -0.016963   0.0063866
0.059334      1.8911     0.33131    0.039602    0.029078    0.015924    0.022172
0.11031      2.0845     0.66313    0.069858    0.057032    0.052099    0.031709
0.14879      2.1851       1.017    0.097483    0.082684    0.085644    0.026447
0.1649      2.1815      1.2729     0.11853    0.099127     0.10768      0.0054
0.15569      2.0898      1.3297     0.13662     0.10636     0.11064   -0.018278
0.12938      1.9424      1.1673     0.15503     0.10801    0.096825   -0.033078
0.097812      1.7579     0.86605     0.16786     0.10768    0.073476   -0.034393
0.070516       1.534     0.56349     0.16786     0.10274    0.051441    -0.02354
0.055717       1.261     0.40432     0.15668    0.087946    0.036971  -0.0080836
0.05473     0.95385     0.46647      0.1478    0.058676    0.033354   0.0040845
0.06361     0.64768     0.71148     0.15306    0.015924    0.039273   0.0090175
0.071502     0.38458      1.0042      0.1751   -0.027158    0.050126    0.010333
0.074791     0.18365      1.1712     0.20108   -0.036695     0.06065    0.010991
0.071502    0.036971      1.0792     0.21522    0.013951    0.068543    0.013951
0.062623   -0.074515     0.70589      0.2093     0.10636    0.074462    0.017897
0.052757    -0.16199     0.14879     0.19713     0.19121    0.077093    0.017239
0.04322    -0.22842    -0.41588     0.19285     0.22443    0.069529   0.0090175
0.038287    -0.25901    -0.83321     0.19713     0.19779    0.050784  -0.0031506
0.042562    -0.24585     -1.0338     0.19549     0.13728     0.02875   -0.014003
0.057361    -0.18995     -1.0276     0.16687    0.083342    0.014608   -0.019265
0.079066    -0.10444    -0.87465     0.10044    0.063281    0.015924   -0.016634
0.10669   -0.015976     -0.6497  -0.0018351    0.076435    0.029078   -0.010715
0.13169    0.050784    -0.40733    -0.12089     0.10143    0.043877  -0.0041372
0.14747    0.076106    -0.17745    -0.22546     0.10932    0.048482 -0.00019077
0.14517    0.053086    0.037958    -0.28631    0.089919    0.038944      0.0054
0.12478   -0.017292     0.25074    -0.28631    0.051441    0.021514     0.01132
0.091563    -0.13075     0.47371    -0.23204    0.011648  -0.0011774    0.017568
0.051113     -0.2817     0.69306    -0.14917   -0.019923   -0.022554    0.017239
0.0067154    -0.45501     0.85223   -0.070897   -0.056098   -0.038339    0.013293
-0.03538    -0.62668       0.894   -0.021238    -0.11266   -0.047877   0.0090175
-0.072542    -0.77204     0.79961   -0.007097    -0.19455   -0.047877      0.0054
-0.10115    -0.86939     0.59473   -0.022225    -0.29157   -0.035051   0.0017824
-0.12089    -0.91543     0.33723   -0.046561    -0.37378  -0.0093991 -0.00051963
-0.13141    -0.91938    0.088932   -0.057085    -0.38135    0.029078   0.0011247
-0.13272    -0.88879    -0.11003   -0.038668    -0.27052    0.072818    0.010004
-0.12944    -0.83124    -0.24191   -0.007097   -0.059058     0.10702    0.018555
-0.12319    -0.75527     -0.3113    0.012635     0.16852     0.11393    0.021186
-0.11595    -0.66549    -0.33465   0.0047422     0.31947    0.085315    0.017239
-0.10576    -0.57768    -0.33399   -0.028802     0.34611    0.033354     0.01132
-0.10082    -0.53526    -0.32741   -0.073528      0.2606   -0.023869   0.0090175
-0.10477    -0.59807    -0.32248    -0.11201     0.11886   -0.068266    0.010004
-0.11497    -0.79572    -0.31689    -0.13009   -0.016634   -0.095233    0.014937
-0.13108     -1.0901    -0.30209    -0.12187    -0.10905    -0.10707    0.018884
-0.1495      -1.392    -0.28532   -0.094247    -0.15311    -0.10872    0.022501
-0.16561     -1.6228    -0.27348   -0.056427     -0.1564    -0.10181    0.029078
-0.1837     -1.7356    -0.27907   -0.029789    -0.13305   -0.090629    0.033025
-0.20376     -1.7337    -0.30801   -0.028144    -0.10477   -0.077475    0.029407
-0.22645     -1.6593    -0.36326   -0.056756   -0.083065   -0.063333    0.018226
-0.25013     -1.5778    -0.43199     -0.1074   -0.067937   -0.045574   0.0040845
-0.27282     -1.5488    -0.49941    -0.16495   -0.055769   -0.030118   -0.011701
-0.29025     -1.5991    -0.54644    -0.20738   -0.045903   -0.021567   -0.022225
-0.29683     -1.7146    -0.56124     -0.2202   -0.043272   -0.020581   -0.023211
-0.29617     -1.8465    -0.53559    -0.19883   -0.046232   -0.020581   -0.016305
-0.2919     -1.9375     -0.4685    -0.15246   -0.048534   -0.018936  -0.0087413
-0.28696     -1.9362    -0.37214   -0.093589   -0.048534   -0.017621   -0.010715
-0.27743     -1.7846     -0.2669   -0.030775   -0.042286   -0.019923   -0.018936
-0.25408     -1.4248    -0.16758    0.032367   -0.025842   -0.024527   -0.022554
-0.20836      -0.849   -0.091616    0.090905  -0.0051238   -0.027487   -0.018278
-0.14095    -0.11891   -0.046561      0.1353    0.010991   -0.027158  -0.0061104
-0.059058      0.6411   -0.033406     0.15898    0.015266   -0.025514   0.0086887
0.028092       1.311   -0.038339     0.15799 -0.00051963   -0.028144    0.025132
0.1159      1.8385   -0.047877     0.13333   -0.034064   -0.037682    0.035656
0.1968      2.2157   -0.050836    0.097483   -0.069253   -0.051823    0.033354
0.26159       2.464   -0.044917    0.063281    -0.07879   -0.068266    0.018555
0.30302      2.6163    -0.04097    0.039931   -0.038668   -0.078461   0.0034268
0.32144      2.7166   -0.043601    0.023817     0.04322   -0.076817  -0.0061104
0.32078      2.8241   -0.053467   0.0037556     0.11393   -0.069253  -0.0093991
0.31223      2.9774    -0.06728   -0.027487     0.11426   -0.069253   -0.013345
0.30631      3.1592    -0.10017   -0.065964    0.031381   -0.077146   -0.018278
0.30467      3.3102    -0.15772   -0.098851    -0.10247   -0.086683   -0.020909
0.305      3.3743     -0.2327     -0.1051    -0.22678   -0.092274   -0.015648
0.30467      3.3191     -0.2988   -0.074186     -0.2965   -0.089643  -0.0064392
0.30105      3.1267    -0.32445  -0.0090702    -0.29814   -0.078461    0.002769
0.29217      2.8027    -0.28795    0.071831    -0.25177   -0.066622   0.0096753
0.27869      2.3831    -0.18765     0.14583    -0.18271   -0.055112   0.0090175
0.2583      1.9211   -0.028802     0.19647    -0.11398    -0.04097   0.0037556
0.23265      1.4715     0.17542      0.2162   -0.059387   -0.016963  -0.0028217
0.20568      1.0818     0.39182     0.21785   -0.018936    0.015266   -0.004466
0.17674     0.76475     0.58026     0.21127    0.014937    0.049139  0.00046697
0.14747     0.49574      0.7197     0.19779     0.04026    0.074791   0.0096753
0.11985      0.2389     0.79929     0.16654    0.052428     0.08663    0.016253
0.095181   -0.024198     0.79402     0.10669    0.043877    0.084328     0.01691
0.067885    -0.29518     0.65261    0.017568    0.019541    0.071831    0.010991
0.039931    -0.56223      0.3415   -0.083065   -0.012359    0.055717  0.00046697
0.015595    -0.80493   -0.098522    -0.16134   -0.040313    0.040589   -0.011701
-0.0064392     -1.0069    -0.54118    -0.18008   -0.059387    0.026447   -0.018278
-0.025842     -1.1571    -0.82499    -0.12549   -0.069582    0.013622   -0.020909
-0.044588     -1.2598    -0.84472   -0.019594   -0.075173   0.0034268   -0.024198
-0.061689     -1.3252    -0.63458    0.087617   -0.081421  -0.0061104   -0.031104
-0.07879      -1.363    -0.32807     0.15372   -0.089314   -0.020581    -0.04097
-0.093589     -1.3847   -0.050179     0.15536     -0.1028   -0.036366   -0.048534
-0.10477      -1.417     0.14122    0.097483    -0.11891   -0.048863   -0.046561
-0.11727     -1.4913     0.24876  0.00079584    -0.13371   -0.057085   -0.033735
-0.13832     -1.6149     0.31684    -0.10707    -0.14522    -0.06136   -0.018278
-0.16331     -1.7586     0.37801    -0.20409    -0.14456   -0.057743  -0.0077547
-0.18337     -1.8737     0.41912    -0.27151    -0.12944   -0.049521  -0.0038083
-0.19159     -1.9162     0.39577    -0.29716   -0.094576   -0.037682  -0.0054526
-0.19587     -1.8616     0.29447    -0.28104    -0.04097   -0.024527   -0.011701
-0.19981     -1.7241     0.15964     -0.2327    0.022501  -0.0074258   -0.016305
-0.20343     -1.5419     0.04322    -0.16791    0.081039    0.011648   -0.017292
-0.20179     -1.3584   -0.045246    -0.10609     0.11294    0.030723   -0.014661
-0.19883     -1.1989    -0.10477   -0.058071     0.10768    0.045522  -0.0077547
-0.19422     -1.0667    -0.11858   -0.025842    0.070187    0.052428   0.0037556
-0.18633    -0.95489   -0.094905  -0.0024928    0.021186    0.056046     0.01691
-0.17054    -0.84439   -0.069911    0.028421   -0.015976    0.056703     0.02875
-0.14621    -0.72797   -0.048863    0.078737   -0.024527    0.053415    0.036971
-0.11562    -0.60695   0.0024402     0.14616  -0.0015062    0.043549    0.039602
-0.089643    -0.48987    0.093208     0.21324    0.044864    0.032696    0.038616
-0.075501    -0.38365     0.19121     0.25797    0.096496    0.031381    0.033683
-0.073199    -0.28137     0.25369     0.26784     0.13925    0.041575     0.02875
-0.069582    -0.15838     0.23955     0.24482     0.16391     0.05769    0.027434
-0.053138 -0.00019077     0.13399     0.20173     0.16983    0.074133    0.036314
-0.018607      0.1774    -0.03242     0.15471     0.16424    0.080711     0.06065
0.022501     0.33197    -0.19784     0.10899      0.1455    0.072489     0.08959
0.051113     0.41385    -0.31294    0.063281     0.12281     0.04881     0.10965
0.055059     0.38985    -0.36754     0.01691     0.11491    0.015266     0.10932
0.031709     0.26784    -0.37214   -0.018278     0.15569   -0.022554    0.092221
-0.0090702    0.090577    -0.33399   -0.032091     0.24186   -0.050507    0.064596
-0.054454   -0.085696    -0.25046   -0.028473     0.31519   -0.067609    0.034669
-0.091616    -0.22579    -0.12056   -0.022225     0.30763   -0.079777   0.0096753
-0.10937    -0.34287    0.030394   -0.022883     0.19877   -0.095233  -0.0093991
-0.10609    -0.48297     0.15602    -0.03242    0.030723    -0.11135   -0.020909
-0.088985    -0.67141     0.22311   -0.048205    -0.12352     -0.1176   -0.019265
-0.06728    -0.88452     0.22541    -0.06432    -0.20968     -0.1074  -0.0087413
-0.051494     -1.0746     0.17608   -0.073199     -0.2156   -0.089314    0.002769
-0.048205     -1.2121     0.10209   -0.074844    -0.17054   -0.073199    0.011648
-0.055112     -1.3028    0.027434   -0.070568    -0.11299   -0.065964    0.015924
-0.064649     -1.3624   -0.032749   -0.060373   -0.071226   -0.068266    0.017897
-0.074186     -1.4018   -0.072213   -0.044588   -0.054454   -0.077475    0.015595
-0.081092     -1.4077   -0.091616   -0.030118   -0.060373   -0.087012      0.0054
-0.082736     -1.3456    -0.10082   -0.020252   -0.074844   -0.091945  -0.0061104
-0.081421     -1.1812    -0.11036  -0.0097279   -0.089972   -0.093918   -0.010386
-0.084052    -0.90227    -0.11924   0.0073732   -0.099509    -0.09326  -0.0038083
-0.094576     -0.5323    -0.12286    0.024803    -0.10313   -0.088656   0.0063866
-0.10674    -0.12352    -0.11102    0.029078    -0.10181   -0.078132    0.015595
-0.10773     0.26718   -0.082408    0.010662   -0.091945   -0.058729     0.01987
-0.085367     0.59966   -0.049521   -0.029131   -0.069582   -0.032091    0.021843
-0.037353     0.87361   -0.019923   -0.076817   -0.039326  -0.0051238    0.022172
0.030394       1.117   -0.011701    -0.12352   -0.022225    0.014937    0.026447
0.10044      1.3551   -0.057743    -0.16002    -0.05281    0.022501    0.033683
0.16063      1.5761     -0.1883    -0.17745    -0.16166    0.019212    0.041575
0.19483      1.7389    -0.39615    -0.16758    -0.33333    0.012635    0.049468
0.20108      1.7987    -0.63754    -0.13009    -0.47277   0.0090175    0.053415
0.18562      1.7435    -0.86018   -0.079777    -0.47639   0.0067154     0.05177
0.15734      1.5997     -1.0259    -0.03538    -0.30867   0.0057288    0.043877
0.12116      1.4018     -1.1147  -0.0074258   -0.026171   0.0063866    0.028421
0.083999      1.1873     -1.1174   0.0011247     0.25698   0.0057288   0.0060577
0.05177     0.98378     -1.0318   -0.002164     0.43819   0.0040845   -0.018607
0.029407     0.81014    -0.82828   0.0014536     0.47568   0.0044134   -0.043272
0.013622     0.67695    -0.42969    0.018555     0.39182    0.014937   -0.063004
0.0011247     0.58717     0.20864    0.047495     0.24876    0.041247   -0.073199
-0.011372     0.52896     0.99726    0.077751     0.11097    0.077422   -0.075501
-0.021896     0.47996      1.7303    0.098798    0.016581     0.11426   -0.076488
-0.025842     0.43293      2.1937      0.1011   -0.029789     0.14024   -0.075501
-0.020252     0.40333      2.2785    0.085644   -0.043272     0.15207   -0.076488
-0.0024928     0.41484      2.0345    0.065583   -0.040641     0.14616   -0.076817
0.025461     0.48324      1.6215    0.049139   -0.033078     0.13004   -0.070897
0.057032      0.5944      1.2104    0.039931   -0.023211      0.1159   -0.059716
0.084328     0.71049     0.89663    0.035656   -0.013345     0.10834   -0.046561
0.10603     0.79435     0.68747    0.033354   -0.002164     0.10472   -0.032091
0.1159     0.82033     0.53257    0.034011    0.014937     0.10505   -0.016305
0.12182     0.78054     0.38524    0.038616    0.039273     0.10965   0.0011247
0.12905     0.68681     0.23495    0.044535     0.06624      0.1159    0.016581
0.14451     0.57237     0.10899    0.053743     0.08663     0.11426     0.02875
0.16819     0.47239    0.038287    0.067556    0.092879     0.10077    0.041575
0.19614     0.40136    0.032038    0.087617    0.082355     0.07808    0.052757
0.21719     0.34709      0.0692     0.10801    0.060321    0.051441    0.054401
0.22541     0.28296     0.11458     0.11919      0.0373    0.024474    0.041904
0.21226     0.19779      0.1376      0.1136    0.019212   -0.002164    0.016581
0.17838     0.10702     0.12281    0.089919   0.0040845   -0.028144   -0.015648
0.12938    0.036971    0.076435    0.049468  -0.0061104   -0.051823   -0.047548
0.079066  -0.0028217    0.020528  -0.0038083  -0.0080836   -0.066622   -0.070897
0.045522   -0.029789   -0.027816   -0.061031   0.0014536   -0.068595   -0.079119
0.03434   -0.085367   -0.070897    -0.11431    0.012635   -0.057414   -0.071884
0.039273    -0.20277    -0.13009     -0.1564    0.013293   -0.036037   -0.055769
0.04618    -0.37082    -0.22875    -0.17252   -0.004466   -0.012688   -0.041957
0.041904    -0.54578    -0.37247     -0.1518   -0.035051   0.0083598   -0.031104
0.027105    -0.67108    -0.54512   -0.096549   -0.059058     0.02875   -0.017292
0.0093464    -0.70758    -0.71745   -0.016634   -0.052152    0.050784   0.0024402
-0.0054526    -0.65825    -0.85097     0.06624   0.0021113    0.070516    0.024474
-0.016305    -0.57966    -0.90622     0.13037     0.10768    0.079395    0.039273
-0.023869    -0.53394    -0.86248     0.16457     0.24482    0.069858    0.037629
-0.034064    -0.56354    -0.73357     0.17378     0.36485     0.04322     0.02283
-0.04985    -0.66615    -0.55795     0.16885     0.41879    0.010004  0.00046697
-0.070897    -0.79145    -0.38398     0.15799     0.37307   -0.012359   -0.016963
-0.092274      -0.873    -0.24914     0.14517     0.22508   -0.015976   -0.020252
-0.10707    -0.86413     -0.1712     0.12807    0.018226  -0.0011774  -0.0067681
-0.11365    -0.75395    -0.14226     0.10176    -0.18107    0.021186    0.014279
-0.11201    -0.55927    -0.14391    0.065254    -0.31656     0.04026    0.035327
-0.10313     -0.3113    -0.15476     0.02579    -0.35767    0.050126    0.049797
-0.091945   -0.053796    -0.16101  -0.0077547    -0.31393    0.045522     0.05177
-0.08175     0.14155    -0.15673   -0.032749    -0.22251    0.031381    0.045522
-0.079119     0.20568    -0.14127    -0.05281    -0.12878    0.011648    0.036642
-0.083394     0.11886    -0.11858   -0.070897   -0.069582   -0.013017    0.027763
-0.089643   -0.076488   -0.091287   -0.082736   -0.053796   -0.043272    0.021514
-0.09326    -0.29749   -0.062018   -0.087341   -0.069253   -0.079448    0.017897
-0.086354    -0.46685   -0.032749   -0.086025   -0.097207    -0.11661    0.017239
-0.069911     -0.5221   0.0017824   -0.086025     -0.1222    -0.15081    0.020199
-0.04689    -0.43101    0.047495   -0.084381    -0.13864    -0.17877    0.024474
-0.025185    -0.20244     0.11195   -0.068924    -0.15114    -0.20508    0.026119
-0.0077547    0.099127     0.18924   -0.031104    -0.16298    -0.23632    0.021843
0.0034268     0.37603     0.25961     0.02283    -0.17712    -0.26953    0.012306
0.012635     0.55888     0.30138    0.074462     -0.1906    -0.29058    0.002769
0.025132     0.63979     0.30763     0.10209     -0.1985    -0.29157  -0.0018351
0.039931     0.66478     0.28296    0.095839    -0.19916    -0.27019  -0.0028217
0.055388     0.69602     0.24186    0.055717    -0.19192    -0.23599   0.0030979
0.071831      0.7835     0.19647  -0.0080836    -0.17482    -0.20475    0.019541
0.085644     0.93873     0.14944   -0.084052    -0.13799    -0.18633    0.045193
0.091234      1.1357    0.070845    -0.15772   -0.086025    -0.17909    0.071502
0.083999      1.3307   -0.087012    -0.21067     -0.0265    -0.17646    0.085972
0.064596      1.4863    -0.32084    -0.22744    0.044535    -0.16561    0.085972
0.047495      1.5761    -0.56453    -0.20771      0.1307    -0.12944    0.077093
0.040918      1.5932    -0.72962    -0.16758     0.21883   -0.066293      0.0692
0.046508       1.532    -0.75922    -0.11168     0.27803   0.0096753    0.063281
0.051113      1.3567    -0.66516    -0.02946     0.27112    0.080711    0.053743
0.035327     0.99661    -0.50303    0.082355     0.18924     0.13366    0.034998
-0.0097279     0.40892    -0.34057     0.19877    0.062952     0.16391   0.0086887
-0.074844    -0.33892     -0.2179     0.26849   -0.057743     0.17674   -0.022554
-0.14226      -1.073    -0.14423     0.24087    -0.12944     0.17444   -0.051165
-0.19389     -1.6465    -0.10477     0.10044     -0.1268     0.15734   -0.069911
-0.22119     -2.0125   -0.075173    -0.11858   -0.054783      0.1284   -0.073528
-0.22349     -2.2191   -0.035708    -0.34583     0.06624    0.090248    -0.06432
-0.20902     -2.3292    0.022172    -0.51257     0.22015    0.049139   -0.050836
-0.1883     -2.3779    0.085315    -0.58788     0.38458   0.0093464   -0.041628
-0.16824     -2.3618     0.13234    -0.55367     0.52172   -0.022883   -0.041957
-0.1541     -2.2513     0.15438    -0.39352     0.57796   -0.045574   -0.049521
-0.14193     -2.0106      0.1603    -0.11102     0.52435   -0.063991   -0.053796
-0.12713     -1.6301     0.16654     0.25139     0.35827    -0.07879   -0.053138
-0.10181     -1.1249     0.17608     0.60164    0.091234   -0.092274   -0.046561
-0.068595    -0.52539     0.18003     0.81902    -0.24059    -0.09918   -0.035051
-0.032091     0.12017     0.16885     0.83579    -0.55367   -0.085039   -0.017292
0.0054     0.77067     0.13497     0.67366     -0.7214   -0.037682   0.0044134
0.042891      1.4014    0.074462     0.43227    -0.66121    0.041247    0.025132
0.082355      1.9543   -0.030775     0.22081    -0.41522     0.13037    0.041247
0.11985       2.339     -0.1906     0.10307    -0.12878     0.19614     0.04881
0.14418      2.4923    -0.37937    0.078409    0.049797     0.22081    0.042233
0.14714       2.414    -0.53592     0.10669    0.059663     0.20009    0.017239
0.12774      2.1713     -0.5961     0.13728   -0.059387     0.14879   -0.017292
0.091234      1.8668    -0.53328     0.13136    -0.21922    0.087288    -0.04985
0.055388      1.5797     -0.3728    0.072818    -0.33465    0.029736   -0.073857
0.033025      1.3251    -0.17515   -0.026171    -0.36951    -0.01795   -0.087012
0.024803      1.0673  -0.0080836      -0.137    -0.33399   -0.057743   -0.092274
0.020199     0.76311    0.082355    -0.22612    -0.25737   -0.086354   -0.092931
0.0093464     0.41352    0.092879    -0.27052    -0.15575    -0.09326   -0.088656
-0.0061104    0.061307    0.058348    -0.26756   -0.036037   -0.079777   -0.079119
-0.021567    -0.23665    0.036314    -0.23434    0.095839   -0.054454   -0.063333
-0.032091    -0.43528    0.071173    -0.18797     0.20502   -0.031433    -0.04689
-0.035708    -0.52408     0.17773     -0.1416      0.2435   -0.018607   -0.034064
-0.033078     -0.5175      0.3267    -0.10543     0.19022   -0.020909   -0.030447
-0.024527    -0.42871     0.45562   -0.081092    0.068543   -0.031104   -0.034393
-0.0087413    -0.26493      0.5112    -0.06432   -0.067609   -0.041299   -0.041957
0.012964   -0.033735     0.48127   -0.049521     -0.1643   -0.049192    -0.04689
0.038944     0.23002     0.39774   -0.032749    -0.19916   -0.055112   -0.049192
0.066569     0.45891     0.30664   -0.017621    -0.17975   -0.061031   -0.047877
0.088932     0.59276     0.24251  -0.0067681    -0.12648   -0.066951   -0.042944
0.10011     0.60427     0.21818  -0.0011774   -0.063662   -0.077146   -0.031104
0.099785     0.51218     0.22541 -0.00051963  -0.0090702   -0.083065   -0.014661
0.095181     0.36452      0.2435   -0.002164    0.025132   -0.076817   0.0017824
0.093208     0.21982     0.25896  -0.0054526    0.038616   -0.057743    0.013951
0.093536     0.10998     0.25863   -0.010057    0.032038   -0.034722    0.020528
0.094194     0.03434     0.23988    -0.01499    0.013951   -0.011701    0.024145
0.090577   -0.037682     0.20535   -0.019594   0.0034268    0.017239    0.031052
0.07808    -0.13371     0.16391   -0.020252    0.011648    0.052099    0.043549
0.055388    -0.26789     0.12511   -0.014332    0.036642    0.082355    0.057032
0.024145    -0.43594    0.089919  -0.0061104    0.056703    0.097812     0.06624
-0.0097279    -0.61452    0.059992  -0.0015062    0.048482    0.093208    0.068543
-0.039984    -0.77434    0.033025   -0.004466   0.0021113     0.06624    0.064925
-0.06432    -0.88813    0.010004   -0.014332   -0.068595    0.026776    0.061965
-0.076488    -0.94174  -0.0080836   -0.029131    -0.11891   -0.013017     0.06065
-0.076488    -0.93944   -0.023211   -0.041957   -0.099509   -0.042286    0.059992
-0.069582    -0.90852   -0.041628   -0.042286    0.014608   -0.057414    0.058019
-0.06136    -0.88057   -0.064978   -0.020581     0.18693    -0.05281     0.05473
-0.057414    -0.87761   -0.092274    0.015595     0.33361   -0.036037     0.04881
-0.063662    -0.90885    -0.12187    0.046837     0.38327   -0.019265    0.040918
-0.077146    -0.95621    -0.14522    0.057032      0.3175  -0.0067681    0.033025
-0.088985    -0.98778     -0.1587    0.041904      0.1797   0.0034268    0.026119
-0.089972     -0.9766    -0.16035    0.011977    0.045193    0.018226    0.026447
-0.082736    -0.92102    -0.14917   -0.016963   -0.031104    0.041575    0.031052
-0.072542    -0.83782    -0.11891   -0.037682   -0.032091    0.073147    0.037629
-0.066293    -0.75461   -0.067937   -0.050836    0.018884      0.1057     0.04026
-0.064978    -0.69147   0.0073732   -0.060373    0.085315     0.12774    0.039931
-0.068266     -0.6497    0.099785    -0.07287     0.12905     0.12774    0.039602
-0.073528    -0.61682     0.18661    -0.09326      0.1353     0.10538    0.042562
-0.079777    -0.57472     0.23331    -0.12253     0.11195    0.067885    0.046837
-0.082408    -0.51816     0.22508    -0.15015    0.077093    0.024474    0.049468
-0.079777    -0.45304      0.1695    -0.16331    0.045851   -0.015319    0.053086
-0.074515    -0.39056    0.099127    -0.15575    0.020199   -0.044259    0.059992
-0.070568     -0.3478    0.050455    -0.13371  -0.0011774   -0.061031    0.068543
-0.070897    -0.35537    0.044864    -0.10707   -0.016963   -0.059716    0.074791
-0.076488    -0.45173    0.076106   -0.082736   -0.025842   -0.040641    0.073476
-0.086025    -0.65661     0.11754   -0.063004    -0.02946   -0.010715    0.063938
-0.09622    -0.93385     0.12708   -0.047877   -0.028473    0.017239    0.048482
-0.10247     -1.1992    0.045522   -0.031104   -0.028473    0.029078    0.034011
-0.10247     -1.3745    -0.18074  -0.0077547   -0.032749    0.024145    0.024803
-0.092931     -1.4173    -0.52145    0.024803   -0.041957   0.0083598     0.01987
-0.078132     -1.3357    -0.83617    0.061307   -0.052481  -0.0057815    0.015266
-0.064649     -1.1604    -0.95424     0.09551   -0.055112   -0.011372   0.0096753
-0.057085    -0.92365    -0.78454     0.12182   -0.046561  -0.0031506   0.0044134
-0.05544    -0.66253     -0.3922     0.13793   -0.034064    0.011648  -0.0024928
-0.05544    -0.40305     0.04618     0.14484   -0.022554    0.024474  -0.0093991
-0.054783    -0.14983     0.36321     0.14122   -0.013674     0.02875   -0.014332
-0.049521    0.099127     0.47568     0.12544  -0.0061104    0.022172   -0.019265
-0.040641     0.33887     0.39182    0.093536      0.0054    0.010004   -0.026829
-0.032091      0.5408     0.18693     0.04322     0.02283  -0.0015062   -0.037353
-0.028473     0.68221   -0.039984    -0.02354    0.048153  -0.0067681   -0.045574
-0.030447     0.76771    -0.21955   -0.094576    0.081368  -0.0054526    -0.04985
-0.040641     0.82296    -0.34287    -0.14752     0.11853  0.00079584   -0.051165
-0.056098     0.87756    -0.43166     -0.1689     0.14747   0.0090175   -0.050507
-0.073199     0.91307    -0.50369    -0.15542     0.15898    0.014279   -0.051165
-0.089314     0.87065    -0.55828    -0.11299      0.1501    0.017568   -0.053796
-0.10148     0.70128    -0.57637   -0.057743     0.12741     0.01987   -0.056427
-0.10773     0.41188    -0.53592  -0.0051238    0.097812    0.029407   -0.055112
-0.1051    0.087288    -0.42706      0.0373    0.066569    0.044864    -0.04985
-0.089643    -0.15673    -0.26131    0.069858    0.038616    0.061307   -0.042615
-0.059387    -0.24454   -0.069582    0.091563    0.017239    0.077093   -0.035051
-0.016963     -0.1643     0.10801     0.10439   0.0040845    0.089261   -0.027487
0.028421    0.037958      0.2435     0.11261    0.002769    0.097154   -0.019594
0.065583     0.27145     0.34512     0.12017    0.011648    0.099456  -0.0077547
0.092221     0.45529     0.46812     0.12379    0.024145    0.094194   0.0063866
0.11294     0.56382     0.66905     0.12182    0.032367    0.083342     0.01691
0.13169     0.63781     0.95813      0.1113    0.031381    0.074462    0.019541
0.15536     0.74502      1.2748     0.08367    0.026447     0.07512    0.019541
0.19187     0.91176      1.5159    0.038287    0.022501    0.091892     0.02579
0.24416      1.0893      1.5771   -0.014003    0.021186     0.11754     0.04026
0.29908      1.1712      1.4005   -0.061031     0.01987     0.14188    0.056374
0.33986      1.0644      1.0015   -0.089643    0.017239      0.1501    0.065254
0.34808     0.76508     0.47502   -0.092274   0.0073732     0.14089    0.061307
0.32276     0.37899   -0.041957   -0.069911   -0.011701     0.11491     0.04322
0.27244     0.05769    -0.43265   -0.025842   -0.037353    0.077751    0.010004
0.21193   -0.082079    -0.64609    0.028092   -0.062676    0.036971    -0.02354
0.15339   -0.030775    -0.69673     0.08367   -0.082408  -0.0031506   -0.043601
0.099456     0.14714    -0.62997      0.1353   -0.096549   -0.041957   -0.045903
0.049797     0.37143    -0.49875     0.18266    -0.10905   -0.076159    -0.03538
0.0040845     0.59243    -0.34747     0.22278    -0.11694    -0.10543   -0.019594
-0.03242     0.79468    -0.20771     0.24547     -0.1222    -0.12812  -0.0038083
-0.050836     0.99167   -0.092931     0.23758    -0.12121    -0.14127   0.0060577
-0.048863      1.2137  -0.0067681     0.19351    -0.11595    -0.14818   0.0086887
-0.036037      1.4659    0.055717     0.12083    -0.10806     -0.1564   0.0057288
-0.020581      1.7145     0.10505     0.04026   -0.096878    -0.16726  -0.0008485
-0.0074258      1.9211     0.15175   -0.034064   -0.086683    -0.17942   -0.012359
0.0037556      2.0789     0.19877    -0.10411   -0.077803    -0.18666   -0.021896
0.014608      2.2177     0.23955    -0.16199    -0.07583    -0.18205   -0.027816
0.034998      2.3532     0.25567    -0.19652   -0.076488    -0.16397   -0.027816
0.068543      2.4555     0.23002    -0.19883   -0.070897    -0.13601   -0.017292
0.11491       2.466     0.15142    -0.16594   -0.058729    -0.10378   0.0030979
0.16885      2.3364    0.028421    -0.11102   -0.047877   -0.075501    0.028421
0.21686      2.0556    -0.11365   -0.052481   -0.044588    -0.06136    0.046837
0.25008      1.6491    -0.24224  -0.0057815   -0.051823    -0.06136    0.055388
0.25961      1.1712    -0.33728     0.02579   -0.066951   -0.068924    0.051441
0.24449     0.69372     -0.3876    0.044864   -0.079119   -0.075173    0.037629
0.20798     0.27606    -0.39352    0.053086   -0.084052   -0.076817    0.018555
0.1603   -0.052152    -0.36293    0.054072   -0.085039   -0.074515   0.0024402
0.1113    -0.29617    -0.31294    0.055059   -0.079119   -0.072542  -0.0057815
0.065254    -0.47705    -0.25868    0.058019   -0.056427   -0.073528  -0.0061104
0.020528    -0.61583    -0.20475    0.064596   -0.014003   -0.073857  -0.0041372
-0.018278    -0.73159    -0.15575    0.070845    0.038616   -0.069911  -0.0031506
-0.046232    -0.82959    -0.11464    0.071502    0.085315   -0.058729  -0.0028217
-0.068595    -0.91148   -0.082408     0.06624     0.10932   -0.040313    0.002769
-0.083065    -0.97561   -0.064978    0.056046    0.094523   -0.026171    0.014279
-0.088327      -1.023   -0.062018    0.041247    0.045522   -0.014003     0.02875
-0.087998     -1.0562   -0.068595    0.021186   -0.020909  -0.0024928    0.035656
-0.087012     -1.0838   -0.076488   -0.002164   -0.082736   0.0024402    0.028421
-0.091287     -1.1187   -0.095891   -0.027158    -0.12615   0.0011247    0.012306
-0.10247      -1.169    -0.15081   -0.054454    -0.14423  -0.0057815  -0.0015062
-0.12023     -1.2279    -0.25704   -0.082736    -0.14785   -0.012688  -0.0074258
-0.14358     -1.2841    -0.41029    -0.10905    -0.14818   -0.015648    -0.01203
-0.17252     -1.3324    -0.57998    -0.12878    -0.15048   -0.018936   -0.016963
-0.2031     -1.4035    -0.72995    -0.14226    -0.15147   -0.024856   -0.025514
-0.2327     -1.5298    -0.82795     -0.1495    -0.15015   -0.031433   -0.035708
-0.25868     -1.7149    -0.85097    -0.15509    -0.13963   -0.039326   -0.045246
-0.28071     -1.9185    -0.78586    -0.15607    -0.12319    -0.04393   -0.052481
-0.2942     -2.0767    -0.62767    -0.14522    -0.10247   -0.044588   -0.055769
-0.29913     -2.1576    -0.38003     -0.1097   -0.079119   -0.038339   -0.052481
-0.2988     -2.1842   -0.051823   -0.040313   -0.045574   -0.019594   -0.037682
-0.29288      -2.202     0.32473    0.055059   0.0030979   0.0070443   -0.018936
-0.28335     -2.2335     0.67728     0.15207    0.058348    0.033683  -0.0051238
-0.27085     -2.2589     0.91176     0.21324    0.099127    0.054072   0.0021113
-0.25835     -2.2322     0.94169     0.21851     0.11228    0.066898   0.0070443
-0.24421     -2.1049     0.73417     0.17115    0.098798    0.073476    0.016253
-0.22382     -1.8468     0.33295    0.094523      0.0692     0.07216    0.027105
-0.19554     -1.4729    -0.15344    0.018884    0.028421    0.068871    0.034669
-0.15838     -1.0388    -0.60432   -0.027158   -0.020581    0.067556    0.034669
-0.11168    -0.59873    -0.94371   -0.036037   -0.083065    0.069858    0.029736
-0.058071    -0.18469     -1.1414   -0.020252    -0.15081    0.074462    0.021514
-0.0018351      0.1843     -1.2091  -0.0084125    -0.20606     0.08367    0.014608
0.054072     0.50758     -1.1851   -0.021896    -0.21593    0.099785    0.010004
0.10176     0.80718     -1.1003   -0.073199     -0.1564     0.11491   0.0090175
0.14089      1.1203    -0.96476    -0.14851    -0.03242     0.12313   0.0093464
0.17575      1.4646    -0.76612    -0.21724      0.1113     0.12313     0.01132
0.21456       1.824    -0.47146    -0.24717     0.22443     0.11491    0.017897
0.25929      2.1476   -0.062018    -0.22481      0.2754    0.099456    0.032696
0.29941      2.3611     0.42142    -0.15114     0.26159    0.076435    0.049139
0.3221      2.4114     0.88545   -0.037353     0.20502    0.046837    0.055059
0.31486      2.2933      1.2403    0.098469       0.133    0.010991     0.04322
0.27573      2.0444      1.4281     0.22969    0.073147   -0.030447    0.021514
0.21555      1.7172      1.4284     0.33328    0.040589   -0.070568  0.00079584
0.15536      1.3735      1.3028     0.40267    0.036642    -0.10313   -0.011043
0.11458      1.0663      1.1693     0.44082    0.054401    -0.11727   -0.011372
0.10439      0.8256      1.1173     0.45496    0.084328    -0.10641  -0.0018351
0.11557      0.6434      1.1712     0.44181     0.10899   -0.074844    0.011977
0.13103     0.48916      1.2896     0.38689     0.11228   -0.035708    0.023488
0.13432     0.32966      1.3508     0.28658    0.092879  -0.0024928     0.02579
0.12182     0.15076      1.2262     0.16424    0.059992     0.01691    0.023817
0.096825   -0.035708     0.88216    0.056374    0.026447     0.02283    0.019212
0.06361    -0.20639     0.42372   -0.010715    0.002769    0.018226    0.013622
0.032696    -0.34123     0.04618   -0.027487  -0.0097279    0.010333    0.013293
0.01132    -0.43364   -0.073528   -0.007097   -0.014661   0.0060577    0.016253
-0.002164    -0.48593    0.091892    0.024803   -0.016305   0.0024402    0.021843
-0.012359    -0.51257     0.40103    0.039931   -0.020252  -0.0074258    0.026119
-0.021567    -0.52638     0.61446    0.018555   -0.031104   -0.027487    0.025461
-0.035051    -0.53624     0.55527   -0.036037   -0.047877   -0.053796    0.016253
-0.054125    -0.53756     0.24745   -0.099838   -0.062676   -0.077475  0.00046697
-0.074186    -0.53098    -0.13634    -0.14391   -0.066951   -0.087669   -0.014332
-0.086683    -0.52473    -0.44942    -0.15838    -0.06136   -0.087341    -0.02354
-0.0903    -0.52506     -0.6405    -0.14752   -0.052152   -0.080106   -0.020909
-0.093918    -0.53888    -0.70528    -0.12944   -0.052152   -0.071884    -0.01203
-0.10641    -0.56716    -0.65694     -0.1222   -0.069911   -0.070568  -0.0077547
-0.1268    -0.60037    -0.53098     -0.1347    -0.11003   -0.078461   -0.013674
-0.1495    -0.62504    -0.38365    -0.16265    -0.15969   -0.091945   -0.026829
-0.1643    -0.63688    -0.27282    -0.18929    -0.20113    -0.10181   -0.036695
-0.16758    -0.63129     -0.2281    -0.20277    -0.21955     -0.1051   -0.039984
-0.16166    -0.61484    -0.24257     -0.2008    -0.21034    -0.10017   -0.037682
-0.14884    -0.59117    -0.28861    -0.18436    -0.17383   -0.084381   -0.031433
-0.13207    -0.55532    -0.33892    -0.15969    -0.11825   -0.057085   -0.024856
-0.10806    -0.50106     -0.3751    -0.12911   -0.055769   -0.022883   -0.021567
-0.075501    -0.41917    -0.38825   -0.091616   0.0024402    0.012306   -0.021238
-0.039984     -0.3136    -0.37839   -0.049192    0.047166    0.042233   -0.018607
-0.011372    -0.20442    -0.35307  -0.0093991    0.074791     0.06361   -0.010386
0.0040845    -0.11595    -0.31853    0.020199    0.091234    0.071173   0.0011247
0.0040845     -0.0584    -0.28203    0.033683    0.099785    0.062952    0.010991
-0.0093991   -0.029789    -0.25046    0.029407    0.099785    0.042233    0.013622
-0.028473   -0.022225    -0.23237   0.0096753    0.084657     0.01691    0.010662
-0.04689   -0.028144    -0.23171   -0.017292    0.058676  -0.0047949   0.0037556
-0.059058   -0.041957    -0.24585   -0.044917    0.034998   -0.020252  -0.0054526
-0.063004   -0.057743    -0.26526   -0.072213    0.029407   -0.024527   -0.011701
-0.065635   -0.072213    -0.27808     -0.1005    0.036642   -0.016963   -0.014332
-0.07024   -0.087669    -0.28236    -0.12713     0.04322  -0.0061104   -0.011372
-0.07583     -0.1051    -0.27315    -0.14917    0.036971 -0.00019077  -0.0090702
-0.078132    -0.12089    -0.25177    -0.15772    0.016253   0.0001381  -0.0087413
-0.076159    -0.12516    -0.21856    -0.14555   -0.010386  -0.0024928  -0.0077547
-0.070568    -0.10609    -0.18567    -0.11891   -0.030118  -0.0054526  -0.0041372
-0.063662   -0.057743    -0.16824   -0.084052    -0.03538  -0.0041372   0.0001381
-0.055112    0.026447     -0.1735   -0.044588   -0.026171   0.0017824   0.0034268
-0.04097     0.14517    -0.19817  -0.0064392  -0.0064392    0.010004   0.0096753
-0.021567     0.28395    -0.24059    0.023488    0.015266    0.011977    0.017897
-0.0015062     0.42372    -0.29354    0.032038    0.026447   0.0017824     0.01987
0.017568     0.54376    -0.33892    0.012306    0.010991   -0.020252    0.012964
0.032038     0.62729    -0.35701    -0.02946   -0.038668   -0.047877   0.0014536
0.039602     0.66346    -0.34024   -0.084052     -0.1245    -0.07583  -0.0097279
0.039931     0.65261    -0.29551    -0.13799    -0.23303   -0.097864   -0.014332
0.035327     0.60262    -0.23796    -0.17449    -0.31656    -0.11069   -0.014661
0.033025       0.526    -0.17186    -0.17153    -0.31294    -0.11694  -0.0097279
0.03434     0.43753   -0.097536    -0.12648    -0.19389    -0.11858  0.00046697
0.035327     0.34841   -0.018936     -0.0584   -0.002164    -0.11661    0.014279
0.031381     0.26652    0.044864   0.0073732     0.17181    -0.11431    0.022501
0.022501     0.20042    0.071173    0.047824     0.25961    -0.11694    0.023159
0.0090175      0.1501    0.066898    0.052099     0.24153    -0.12121    0.012306
-0.0024928     0.12017    0.068543    0.030065     0.15175    -0.11595   0.0017824
-0.0054526     0.11327     0.11787   0.0050711    0.047495   -0.095891   0.0014536
0.0024402     0.12905     0.20798  -0.0051238   -0.018607   -0.061689    0.013951
0.022501     0.15898     0.27968   0.0096753   -0.022225   -0.015648    0.039273
0.050455     0.19088     0.27704    0.047824    0.031052    0.036971    0.065583
0.080053     0.20864     0.20206    0.098141     0.10866    0.088275    0.085644
0.1011     0.20535     0.12511      0.1501     0.17575      0.1307     0.09551
0.10834     0.18365     0.12281     0.19417     0.20436     0.15701    0.095181
0.10077     0.14912     0.20568     0.21949     0.19121     0.16063    0.092221
0.083013     0.11162     0.32802     0.21818      0.1524     0.14747    0.088932
0.05769    0.078737     0.42569     0.18496     0.10472     0.12774    0.088603
0.030394    0.052757     0.45266     0.12905    0.058676     0.10735    0.090248
0.0060577    0.031052     0.38985    0.064925    0.023159    0.093208    0.087617
-0.010057   0.0090175     0.25994    0.014937  -0.0024928    0.083999     0.07512
-0.017621   -0.012688     0.10866  -0.0054526   -0.016305    0.077422    0.053415
-0.018607   -0.031762   -0.013017    0.016253  -0.0054526    0.068214    0.032696
-0.019265   -0.050836    -0.07024    0.079066    0.045851    0.051113     0.01691
-0.020909   -0.073528   -0.062676     0.17016     0.12313    0.027105      0.0054
-0.026171    -0.09918   -0.013017     0.27112      0.1672  -0.0011774  -0.0051238
-0.036695    -0.12516    0.047824     0.35827     0.12445   -0.032091   -0.019594
-0.04985    -0.14029     0.09255     0.41451  -0.0031506   -0.057085   -0.035051
-0.059387    -0.13667     0.10439     0.43359    -0.16232   -0.066951   -0.049192
-0.059058    -0.10609    0.083013     0.41912    -0.28762   -0.056427   -0.059716
-0.050179   -0.054125    0.032696     0.37801    -0.33596   -0.031104   -0.064978
-0.034064    0.014608   -0.048863     0.30862    -0.30308  0.00079584   -0.063662
-0.014003    0.099127    -0.18501     0.19877    -0.21428    0.033354   -0.057414
0.0011247     0.18825    -0.39648     0.04026    -0.11661    0.058348   -0.048205
0.0093464     0.25665    -0.67305     -0.1541   -0.050179    0.065912   -0.041628
0.010991     0.27408    -0.96805    -0.34879     -0.0265    0.055717   -0.039984
0.0057288     0.23265      -1.216    -0.49842  -0.0097279    0.039931   -0.040313
-0.0061104     0.14385     -1.3522    -0.56749    0.049139    0.031381   -0.038668
-0.015648    0.036642     -1.3337    -0.53986     0.15668     0.02875   -0.033078
-0.018607   -0.057414     -1.1506    -0.43627     0.25139    0.026776   -0.027816
-0.014003    -0.13009    -0.84341    -0.30735     0.26192    0.018555   -0.025514
-0.0087413    -0.20014     -0.4731    -0.20639     0.16326   0.0057288     -0.0265
-0.010386    -0.30078   -0.042286    -0.16068  -0.0077547   -0.012359   -0.032749
-0.020909    -0.43594     0.48226    -0.16561    -0.18633   -0.031104   -0.040641
-0.038011    -0.58031      1.0867    -0.19916    -0.31294   -0.045903   -0.051494
-0.057743    -0.69443      1.6622    -0.23599    -0.36359   -0.055769   -0.061031
-0.064978    -0.74935      2.0447    -0.25276    -0.34386   -0.058071   -0.060045
-0.05281    -0.73389      2.0914    -0.23467    -0.28006   -0.051823   -0.046232
-0.024856    -0.66779      1.7635     -0.1735    -0.20047   -0.038668   -0.028802
0.012964    -0.58031      1.1857   -0.071884    -0.12976    -0.02354    -0.01499
0.051441    -0.48593     0.59736    0.056046   -0.070897   -0.010715  -0.0054526
0.086301    -0.36721     0.22147     0.18989   -0.022883  -0.0028217  -0.0028217
0.11426    -0.19718     0.15306      0.3073    0.014937  -0.0018351  -0.0008485
0.12807    0.030723     0.31618     0.38524    0.039602   -0.010386    0.002769
0.12445     0.27902     0.55198     0.40925    0.042891   -0.030447   0.0014536
0.10307      0.4816     0.72036     0.37998    0.018555   -0.058729  -0.0051238
0.068543     0.55132     0.74963     0.31092   -0.027487   -0.086683   -0.013017
0.029407     0.42964     0.64011     0.22048   -0.079448    -0.10477    -0.01795
-0.013017     0.13464     0.44181     0.12379    -0.12056    -0.10872   -0.018936
-0.053467    -0.25473      0.2241    0.030394    -0.13536    -0.10148   -0.011701
-0.083394    -0.65102     0.04618   -0.054125    -0.12286   -0.087669  -0.0024928
-0.10674    -0.99929   -0.066951     -0.1199     -0.1005   -0.076817   0.0017824
-0.13075     -1.2867    -0.11891    -0.16068   -0.087012   -0.079777  -0.0028217
-0.15673     -1.5386    -0.14489    -0.17515   -0.094905   -0.096878   -0.014661
-0.18173     -1.7721    -0.19258    -0.16035    -0.11924    -0.11957   -0.030447
-0.20442     -1.9487    -0.29782    -0.12023    -0.14423    -0.13568   -0.043272
-0.21428     -1.9928    -0.45271   -0.067937    -0.15048    -0.13601   -0.050836
-0.20869     -1.8353    -0.61583   -0.019265     -0.1245    -0.11595   -0.047548
-0.18666     -1.4492    -0.73291    0.015266   -0.058071   -0.080434   -0.034064
-0.1495    -0.87728    -0.77698    0.036642    0.037958   -0.036366   -0.010386
-0.099838     -0.1962    -0.74935    0.050455     0.14484    0.013622    0.018226
-0.044917     0.51778    -0.68424    0.062294     0.23955    0.066569     0.04322
0.01132      1.2298    -0.62076    0.073804     0.30302     0.12149    0.061965
0.068214      1.9681    -0.58557    0.084986     0.32539     0.17016    0.072818
0.12478      2.7488     -0.5836    0.096496     0.31486     0.19943    0.076764
0.18102      3.5368    -0.59676      0.1057     0.28592     0.20436    0.073147
