,channel_1,channel_2,channel_3,channel_4,channel_5,channel_6,channel_7
0,-0.19784,0.04618,0.076764,0.18102,0.39511,-1.1361,0.0030979
1,-0.2031,0.038287,0.082026,0.15997,0.42076,-0.53559,0.010991
2,-0.19258,0.032038,0.085644,0.14418,0.46549,0.23594,0.015266
3,-0.16462,0.024145,0.087288,0.14024,0.53586,1.0298,0.015924
4,-0.12878,0.010991,0.084657,0.14418,0.60427,1.6606,0.012306
5,-0.098193,-0.0084125,0.075449,0.14056,0.63222,2.0049,0.0080309
6,-0.080763,-0.031104,0.05769,0.12248,0.60493,2.0677,0.0054
7,-0.080763,-0.050179,0.035985,0.093208,0.53586,1.9796,0.0073732
8,-0.087341,-0.060373,0.010662,0.060979,0.45332,1.9296,0.012964
9,-0.08471,-0.057743,-0.014332,0.035327,0.3859,2.0102,0.019212
10,-0.065307,-0.040641,-0.03242,0.017239,0.34545,2.148,0.022172
11,-0.032749,-0.01499,-0.039984,0.0040845,0.31092,2.1779,0.020857
12,0.00046697,0.0077021,-0.038997,-0.0034794,0.25074,1.9865,0.016581
13,0.024803,0.020857,-0.032749,-0.010715,0.14681,1.5873,0.013951
14,0.039602,0.018884,-0.028802,-0.019923,0.0077021,1.0778,0.013951
15,0.049797,0.0047422,-0.032091,-0.034393,-0.13832,0.56645,0.016253
16,0.056046,-0.020909,-0.04097,-0.051823,-0.26296,0.12807,0.020199
17,0.056374,-0.050179,-0.05281,-0.069582,-0.34912,-0.21987,0.023817
18,0.049139,-0.074186,-0.065635,-0.086025,-0.39713,-0.48922,0.027105
19,0.031381,-0.08175,-0.073528,-0.095891,-0.41259,-0.7066,0.031709
20,0.010991,-0.070568,-0.071226,-0.09918,-0.41259,-0.89438,0.035656
21,-0.002164,-0.045903,-0.061031,-0.09622,-0.40864,-1.0545,0.041575
22,-0.0011774,-0.014661,-0.045574,-0.091616,-0.40733,-1.1335,0.049468
23,0.011977,0.01987,-0.031104,-0.085696,-0.40207,-1.0575,0.055388
24,0.034011,0.047495,-0.021896,-0.080434,-0.38529,-0.80394,0.059663
25,0.058676,0.06065,-0.015976,-0.075501,-0.35537,-0.43693,0.059334
26,0.077422,0.060321,-0.0087413,-0.073528,-0.31788,-0.10214,0.05473
27,0.085644,0.054072,0.0021113,-0.07024,-0.27973,0.045193,0.047166
28,0.086959,0.046508,0.013951,-0.0584,-0.23961,-0.047219,0.04026
29,0.088603,0.044535,0.024803,-0.035708,-0.18238,-0.26723,0.037958
30,0.09255,0.050784,0.030065,-0.0047949,-0.091287,-0.43364,0.039931
31,0.10176,0.066569,0.033354,0.025461,0.035656,-0.43035,0.044206
32,0.11623,0.082026,0.034998,0.050455,0.17246,-0.27052,0.048153
33,0.12938,0.087288,0.036642,0.072489,0.27803,-0.042615,0.051113
34,0.13826,0.082026,0.034669,0.093536,0.32473,0.16622,0.052428
35,0.14089,0.068871,0.02875,0.1057,0.30796,0.34249,0.053415
36,0.14089,0.057032,0.020528,0.10636,0.25665,0.52764,0.053743
37,0.14155,0.050784,0.014279,0.10011,0.20765,0.76311,0.054401
38,0.15142,0.050126,0.013622,0.098469,0.18957,1.0759,0.054401
39,0.17246,0.050126,0.022172,0.1057,0.20864,1.4593,0.052428
40,0.20009,0.044864,0.034669,0.11261,0.24975,1.8053,0.047166
41,0.22541,0.030723,0.043549,0.10735,0.28,1.897,0.038287
42,0.23824,0.0073732,0.044535,0.090577,0.26685,1.5682,0.026119
43,0.23495,-0.018936,0.038944,0.065912,0.20469,0.8598,0.016581
44,0.2162,-0.041628,0.030394,0.039931,0.10834,0.015595,0.012964
45,0.18924,-0.054125,0.020857,0.020857,0.0024402,-0.67305,0.014937
46,0.16391,-0.05281,0.011648,0.010333,-0.091616,-1.0549,0.020857
47,0.15372,-0.028802,0.0034268,0.0067154,-0.15706,-1.1476,0.026119
48,0.15701,0.024803,-0.0031506,0.0037556,-0.18501,-1.0542,0.030065
49,0.16063,0.10373,-0.0087413,-0.002164,-0.16989,-0.8832,0.030394
50,0.15076,0.18825,-0.012359,-0.011701,-0.11562,-0.69936,0.029407
51,0.11754,0.25731,-0.012359,-0.017621,-0.036366,-0.51158,0.027763
52,0.062952,0.29513,-0.0054526,-0.013674,0.049797,-0.30045,0.024803
53,0.0054,0.29776,0.0090175,-0.00051963,0.12511,-0.074844,0.02283
54,-0.031104,0.26751,0.029736,0.015266,0.16753,0.1182,0.019541
55,-0.033406,0.2093,0.051113,0.030723,0.16687,0.22607,0.014608
56,-0.0093991,0.12905,0.069858,0.045522,0.12938,0.23955,0.0086887
57,0.020857,0.041247,0.078737,0.056374,0.072489,0.18529,0.0037556
58,0.034998,-0.040313,0.072489,0.061965,0.012964,0.097812,0.00079584
59,0.029736,-0.09918,0.055717,0.066898,-0.028802,0.0040845,-0.002164
60,0.013293,-0.12154,0.034669,0.070516,-0.044917,-0.087012,-0.0054526
61,0.002769,-0.10641,0.016581,0.071173,-0.042615,-0.17613,-0.0087413
62,0.0011247,-0.063991,0.0047422,0.063281,-0.040641,-0.26526,-0.011043
63,0.0040845,-0.014332,-0.0028217,0.049468,-0.050179,-0.33136,-0.012688
64,0.00079584,0.021186,-0.0077547,0.036314,-0.067937,-0.34451,-0.012359
65,-0.014661,0.036314,-0.0097279,0.026776,-0.083723,-0.29847,-0.011701
66,-0.040641,0.029407,-0.013674,0.017239,-0.089972,-0.21922,-0.011701
67,-0.071555,0.010991,-0.018607,0.0057288,-0.079777,-0.12976,-0.011701
68,-0.10115,-0.0087413,-0.024856,-0.0067681,-0.048863,-0.038339,-0.010386
69,-0.12352,-0.022883,-0.029131,-0.018278,0.0037556,0.068871,-0.010057
70,-0.13799,-0.029789,-0.034064,-0.027816,0.073476,0.19121,-0.010057
71,-0.14193,-0.031762,-0.037682,-0.034722,0.13991,0.27902,-0.010386
72,-0.13733,-0.03242,-0.038668,-0.036366,0.18069,0.26849,-0.012688
73,-0.13108,-0.033078,-0.03538,-0.032091,0.17575,0.15043,-0.015648
74,-0.12911,-0.035708,-0.025842,-0.022554,0.11886,-0.028802,-0.018936
75,-0.1347,-0.042286,-0.012359,-0.013017,0.018884,-0.23237,-0.021238
76,-0.14851,-0.050179,0.0014536,-0.0067681,-0.10411,-0.45436,-0.022554
77,-0.16923,-0.054125,0.010333,-0.0038083,-0.22481,-0.6941,-0.021238
78,-0.18797,-0.053467,0.011648,-0.0064392,-0.32577,-0.92135,-0.017292
79,-0.19948,-0.051165,0.0050711,-0.010057,-0.39779,-1.07,-0.010057
80,-0.19718,-0.050836,-0.0028217,-0.0097279,-0.44318,-1.0772,-0.002164
81,-0.17745,-0.05281,-0.010715,-0.0038083,-0.4708,-0.92398,0.0037556
82,-0.14259,-0.057414,-0.013345,0.0060577,-0.48626,-0.64707,0.0077021
83,-0.10181,-0.060373,-0.007097,0.016581,-0.48034,-0.30176,0.010004
84,-0.066622,-0.060045,0.0040845,0.026447,-0.43693,0.08959,0.012306
85,-0.041628,-0.053796,0.015595,0.033025,-0.34912,0.53553,0.015266
86,-0.030775,-0.044588,0.021843,0.033354,-0.21889,0.98871,0.019212
87,-0.029789,-0.034393,0.025461,0.029078,-0.056427,1.3209,0.019541
88,-0.034722,-0.0265,0.029407,0.024474,0.12741,1.4304,0.017239
89,-0.041299,-0.022225,0.0373,0.023817,0.32374,1.3353,0.014937
90,-0.042286,-0.017621,0.048482,0.029736,0.52074,1.1137,0.013293
91,-0.032749,-0.0054526,0.059334,0.042233,0.69734,0.81803,0.012306
92,-0.01499,0.022501,0.064925,0.055059,0.82691,0.46549,0.012306
93,0.0054,0.060979,0.059334,0.061965,0.88611,0.10044,0.014937
94,0.02579,0.098141,0.040918,0.055388,0.8575,-0.18666,0.020857
95,0.048482,0.12346,0.013622,0.036314,0.72562,-0.31294,0.02875
96,0.078409,0.13234,-0.014332,0.0080309,0.49048,-0.25276,0.034669
97,0.11294,0.12642,-0.038339,-0.021567,0.17542,-0.053138,0.038616
98,0.14254,0.11524,-0.051165,-0.047877,-0.16989,0.19581,0.038944
99,0.16227,0.10899,-0.050836,-0.065307,-0.47442,0.40333,0.0373
100,0.16786,0.10011,-0.038339,-0.076159,-0.69081,0.47206,0.034998
101,0.15602,0.072489,-0.022554,-0.082079,-0.79835,0.33394,0.034998
102,0.13136,0.022501,-0.0097279,-0.086683,-0.80756,0.014608,0.036314
103,0.10011,-0.036695,-0.00051963,-0.087341,-0.74508,-0.38168,0.04026
104,0.069529,-0.083394,0.0017824,-0.082408,-0.64411,-0.74869,0.042562
105,0.042891,-0.11365,-0.0047949,-0.070897,-0.53592,-1.0302,0.044864
106,0.018555,-0.1268,-0.016634,-0.053467,-0.44219,-1.2275,0.045522
107,-0.0067681,-0.12944,-0.028144,-0.029789,-0.36786,-1.4002,0.044535
108,-0.03242,-0.12648,-0.026171,0.0037556,-0.29946,-1.6258,0.042233
109,-0.054454,-0.11628,-0.0011774,0.04881,-0.21034,-1.9385,0.040918
110,-0.061031,-0.094905,0.046508,0.10439,-0.078461,-2.2641,0.04026
111,-0.042615,-0.056098,0.10307,0.16457,0.11426,-2.4743,0.042233
112,-0.0008485,0.00046697,0.14912,0.22245,0.36419,-2.4848,0.04618
113,0.05177,0.060979,0.17641,0.27112,0.63781,-2.2506,0.05177
114,0.099127,0.10866,0.18134,0.30401,0.8792,-1.76,0.058348
115,0.12971,0.133,0.16622,0.31355,1.0364,-1.0812,0.062623
116,0.13892,0.13432,0.13859,0.29579,1.0706,-0.39483,0.061307
117,0.12971,0.11623,0.1034,0.26093,0.97523,0.077751,0.053086
118,0.10998,0.08959,0.065912,0.21916,0.7789,0.19614,0.041575
119,0.093208,0.063938,0.033354,0.17773,0.53323,-0.034722,0.030394
120,0.085972,0.041247,0.0096753,0.1432,0.28855,-0.47409,0.023817
121,0.088275,0.024474,0.0001381,0.11064,0.087946,-0.9322,0.022501
122,0.090248,0.01691,0.0034268,0.080382,-0.043601,-1.241,0.02579
123,0.084657,0.024474,0.010333,0.054401,-0.10346,-1.2946,0.032038
124,0.068543,0.04322,0.010991,0.0373,-0.11529,-1.0684,0.037958
125,0.044535,0.064596,0.0063866,0.025132,-0.10477,-0.60892,0.040918
126,0.024474,0.080382,-0.0034794,0.015924,-0.087012,0.0096753,0.04026
127,0.01691,0.082355,-0.016305,0.0096753,-0.066622,0.71838,0.038944
128,0.025461,0.071831,-0.025185,0.0067154,-0.045246,1.4616,0.038616
129,0.053415,0.059663,-0.026171,0.0080309,-0.0265,2.1986,0.036971
130,0.093208,0.05177,-0.018607,0.016581,-0.012688,2.8836,0.035656
131,0.12807,0.050126,-0.0093991,0.023817,-0.007097,3.4799,0.033025
132,0.14352,0.04881,-0.0047949,0.018555,-0.016305,3.9498,0.029078
133,0.13366,0.044206,-0.007097,-0.0031506,-0.042944,4.2133,0.020857
134,0.10538,0.03434,-0.013674,-0.034393,-0.083394,4.1416,0.010004
135,0.066898,0.022172,-0.021567,-0.064978,-0.13338,3.6509,-0.0028217
136,0.030394,0.013293,-0.027158,-0.087341,-0.18403,2.7958,-0.012359
137,0.0014536,0.012306,-0.029131,-0.10115,-0.22514,1.7589,-0.016963
138,-0.020581,0.018226,-0.0265,-0.10609,-0.24257,0.7687,-0.015976
139,-0.033735,0.030723,-0.021238,-0.1028,-0.23402,0.0054,-0.011372
140,-0.040641,0.044535,-0.019265,-0.096878,-0.20508,-0.4537,-0.007097
141,-0.043272,0.05769,-0.021238,-0.093589,-0.17449,-0.6405,-0.0047949
142,-0.042944,0.070516,-0.025185,-0.092931,-0.15476,-0.63458,-0.0054526
143,-0.042944,0.077751,-0.030775,-0.09622,-0.14719,-0.51125,-0.0074258
144,-0.043272,0.07808,-0.036037,-0.10181,-0.15114,-0.33728,-0.0084125
145,-0.041957,0.073147,-0.04097,-0.10773,-0.16528,-0.16857,-0.0090702
146,-0.036366,0.067885,-0.046561,-0.11365,-0.18797,-0.044259,-0.0087413
147,-0.028802,0.061307,-0.050507,-0.1176,-0.22053,0.0080309,-0.010057
148,-0.024856,0.053086,-0.054125,-0.11891,-0.26296,-0.046232,-0.013345
149,-0.03242,0.041904,-0.059387,-0.11529,-0.31064,-0.22283,-0.016634
150,-0.057085,0.023817,-0.065307,-0.10707,-0.35504,-0.49086,-0.018278
151,-0.095891,-0.0064392,-0.060373,-0.095562,-0.38694,-0.78586,-0.016305
152,-0.13634,-0.055112,-0.039326,-0.077803,-0.39516,-1.0463,-0.012688
153,-0.16758,-0.1176,-0.011701,-0.057085,-0.38201,-1.2397,-0.010057
154,-0.18238,-0.1814,0.0093464,-0.035051,-0.35866,-1.3578,-0.0087413
155,-0.18041,-0.23171,0.015266,-0.014661,-0.33892,-1.3975,-0.0093991
156,-0.16265,-0.25408,0.0093464,0.0086887,-0.32807,-1.3476,-0.011372
157,-0.13503,-0.23796,0.0011247,0.027763,-0.31755,-1.1904,-0.010715
158,-0.10247,-0.18041,-0.002164,0.040589,-0.29124,-0.94272,-0.0084125
159,-0.070568,-0.098522,-0.00051963,0.043877,-0.24322,-0.65168,-0.004466
160,-0.041957,-0.014332,0.0030979,0.039931,-0.17909,-0.34188,0.0014536
161,-0.017621,0.05177,0.0073732,0.033683,-0.1028,0.029078,0.0080309
162,0.0021113,0.092879,0.0090175,0.030723,-0.013345,0.52698,0.013293
163,0.019541,0.11623,0.010333,0.037958,0.092879,1.1295,0.01691
164,0.035656,0.12675,0.01132,0.050126,0.21292,1.6876,0.015595
165,0.045851,0.12675,0.01691,0.061965,0.32901,1.9924,0.010662
166,0.04322,0.11919,0.025132,0.068214,0.41813,1.902,0.0044134
167,0.027105,0.10636,0.032038,0.064925,0.4622,1.4205,-0.0008485
168,0.0021113,0.091563,0.034669,0.052428,0.46318,0.69273,-0.0018351
169,-0.025842,0.07512,0.030065,0.038287,0.43128,-0.087341,-0.00019077
170,-0.047548,0.056374,0.023488,0.031052,0.37899,-0.7602,0.0040845
171,-0.056098,0.042562,0.019541,0.036971,0.32637,-1.2861,0.0090175
172,-0.048205,0.038287,0.021186,0.055388,0.28428,-1.6935,0.012964
173,-0.029131,0.043877,0.029078,0.075449,0.25304,-1.9971,0.017568
174,-0.0031506,0.053086,0.039602,0.087617,0.22508,-2.1964,0.02283
175,0.02579,0.062294,0.049468,0.085315,0.19154,-2.2769,0.027763
176,0.056374,0.068543,0.056703,0.069858,0.14944,-2.2217,0.031709
177,0.083342,0.071173,0.060979,0.052757,0.10998,-2.0056,0.035656
178,0.10735,0.069858,0.063281,0.045522,0.085972,-1.612,0.04026
179,0.12905,0.064267,0.061307,0.047824,0.077422,-1.0641,0.045522
180,0.14484,0.053086,0.056374,0.054072,0.074462,-0.41983,0.04881
181,0.15734,0.039602,0.053743,0.062623,0.063281,0.26192,0.051441
182,0.16227,0.033683,0.059334,0.068871,0.034998,0.94728,0.054401
183,0.15471,0.036642,0.066569,0.061965,-0.0057815,1.6182,0.056703
184,0.13662,0.041247,0.065583,0.039931,-0.036037,2.2299,0.056046
185,0.11623,0.041247,0.054401,0.014937,-0.036037,2.6857,0.051441
186,0.1011,0.041904,0.036314,-0.007097,-0.0051238,2.8804,0.045851
187,0.098469,0.050784,0.021186,-0.025185,0.037629,2.7643,0.04026
188,0.10636,0.07216,0.014608,-0.038339,0.0692,2.3565,0.036314
189,0.1182,0.095181,0.015924,-0.046561,0.073476,1.7681,0.033354
190,0.12215,0.10932,0.024474,-0.048205,0.055717,1.1801,0.034998
191,0.10801,0.10406,0.033683,-0.040641,0.037958,0.77199,0.04026
192,0.079066,0.079724,0.042891,-0.024198,0.047166,0.63255,0.047166
193,0.041904,0.042233,0.045522,-0.0047949,0.098141,0.70983,0.052428
194,0.0057288,-0.0015062,0.036971,0.014608,0.18463,0.87394,0.05473
195,-0.018278,-0.043601,0.021843,0.032696,0.29151,0.99299,0.055388
196,-0.027816,-0.07287,0.0090175,0.047824,0.39708,0.98806,0.054401
197,-0.02946,-0.086025,0.0050711,0.060979,0.47864,0.87953,0.052099
198,-0.03242,-0.087012,0.0096753,0.0692,0.51416,0.78745,0.050126
199,-0.04689,-0.085696,0.015595,0.073804,0.50396,0.84105,0.04881
200,-0.072213,-0.092603,0.018555,0.073476,0.46417,1.067,0.048482
201,-0.10082,-0.1074,0.017897,0.068543,0.40793,1.3376,0.046508
202,-0.1199,-0.12154,0.013951,0.058676,0.33854,1.4659,0.041575
203,-0.12089,-0.11858,0.0083598,0.045851,0.25896,1.312,0.03434
204,-0.10378,-0.095891,0.0021113,0.035985,0.17246,0.85158,0.026447
205,-0.077146,-0.068595,-0.0057815,0.030394,0.081039,0.18759,0.01987
206,-0.046561,-0.044588,-0.011701,0.029407,-0.0067681,-0.49711,0.01691
207,-0.018278,-0.025842,-0.013017,0.02875,-0.080763,-1.0305,0.017239
208,0.00079584,-0.0074258,-0.011372,0.018884,-0.12549,-1.3255,0.018884
209,0.0057288,0.014608,-0.0093991,0.0017824,-0.12713,-1.3926,0.020199
210,-0.0015062,0.036642,-0.0087413,-0.016634,-0.088327,-1.3084,0.020857
211,-0.014661,0.054401,-0.0090702,-0.033735,-0.036366,-1.1746,0.020528
212,-0.025842,0.058676,-0.0087413,-0.043272,0.0011247,-1.0647,0.020199
213,-0.032091,0.05177,-0.0093991,-0.039326,0.013951,-1.0049,0.019212
214,-0.028144,0.040918,-0.0067681,-0.022225,0.0083598,-0.98548,0.018555
215,-0.015648,0.034998,0.00046697,0.00046697,-0.0064392,-0.99173,0.015595
216,0.0024402,0.0373,0.013293,0.022501,-0.029131,-1.0167,0.010991
217,0.017897,0.044535,0.028421,0.035985,-0.060373,-1.0624,0.0054
218,0.026776,0.049468,0.042562,0.040918,-0.099509,-1.1341,-0.00019077
219,0.028092,0.04618,0.048153,0.037629,-0.14588,-1.2325,-0.0038083
220,0.026776,0.039931,0.042562,0.035327,-0.19883,-1.3601,-0.0077547
221,0.025461,0.034998,0.031709,0.039273,-0.25473,-1.508,-0.010715
222,0.029078,0.039602,0.020857,0.053086,-0.3011,-1.6366,-0.013345
223,0.039931,0.050784,0.015924,0.070845,-0.32741,-1.6965,-0.014003
224,0.058019,0.062294,0.01691,0.084986,-0.32478,-1.6574,-0.013345
225,0.07216,0.074462,0.018884,0.08959,-0.28861,-1.5117,-0.011372
226,0.077093,0.081039,0.017239,0.086959,-0.2304,-1.2686,-0.0097279
227,0.073147,0.081697,0.010991,0.076435,-0.17087,-0.95489,-0.0084125
228,0.067227,0.082684,0.0044134,0.06624,-0.12582,-0.61912,-0.0084125
229,0.066569,0.085315,0.0021113,0.05769,-0.1097,-0.32413,-0.0090702
230,0.073147,0.090248,0.0017824,0.052757,-0.11957,-0.11431,-0.010715
231,0.082355,0.097154,0.0047422,0.052757,-0.13996,0.0073732,-0.010715
232,0.087617,0.10406,0.01132,0.054401,-0.16265,0.075449,-0.0093991
233,0.085315,0.10932,0.018226,0.055059,-0.17712,0.11754,-0.0093991
234,0.077751,0.11064,0.019541,0.052428,-0.17482,0.13826,-0.011043
235,0.062294,0.10077,0.012306,0.050784,-0.15015,0.11985,-0.01499
236,0.043877,0.077422,-0.0034794,0.050784,-0.098193,0.05473,-0.019594
237,0.027434,0.038944,-0.025842,0.049468,-0.020252,-0.055769,-0.021896
238,0.015924,-0.0087413,-0.053138,0.041904,0.06065,-0.20573,-0.020252
239,0.0070443,-0.056098,-0.076488,0.02283,0.10636,-0.38858,-0.016305
240,-0.0015062,-0.092274,-0.096549,-0.014003,0.092879,-0.59807,-0.011701
241,-0.0087413,-0.11398,-0.11431,-0.068595,0.027434,-0.80789,-0.0064392
242,-0.017292,-0.12023,-0.12516,-0.12549,-0.059716,-0.97726,-0.00051963
243,-0.019594,-0.11299,-0.12154,-0.16166,-0.12483,-1.0772,0.0044134
244,-0.014332,-0.09622,-0.1028,-0.16166,-0.1347,-1.1058,0.0080309
245,-0.0015062,-0.070897,-0.074844,-0.12615,-0.087998,-1.0743,0.010333
246,0.01691,-0.037682,-0.043272,-0.068595,-0.016305,-1.0022,0.011648
247,0.037629,-0.00019077,-0.017621,-0.011043,0.044535,-0.88419,0.013951
248,0.056046,0.035985,0.00046697,0.030065,0.07808,-0.6576,0.017897
249,0.065583,0.068214,0.012964,0.052099,0.087617,-0.24585,0.023817
250,0.061307,0.097812,0.025461,0.059663,0.082026,0.36321,0.027763
251,0.049468,0.12873,0.043549,0.062294,0.073476,1.0788,0.029407
252,0.038287,0.15503,0.065254,0.067556,0.073804,1.7454,0.027434
253,0.038944,0.17214,0.082026,0.079395,0.087617,2.2305,0.024803
254,0.062952,0.17378,0.090905,0.094852,0.11919,2.5045,0.025132
255,0.10636,0.15767,0.091234,0.10866,0.16424,2.5975,0.026776
256,0.15799,0.1353,0.082355,0.1182,0.20305,2.5423,0.028421
257,0.1991,0.12379,0.070845,0.1159,0.20963,2.3838,0.028421
258,0.21259,0.12774,0.059005,0.10373,0.17115,2.192,0.030065
259,0.19549,0.13859,0.044206,0.079395,0.095839,2.0463,0.033354
260,0.15701,0.14056,0.025132,0.048153,0.0067154,1.9888,0.036971
261,0.10998,0.12215,0.0037556,0.016581,-0.074515,1.9914,0.042562
262,0.0692,0.090248,-0.016963,-0.0093991,-0.12911,1.9747,0.047166
263,0.036642,0.052757,-0.0265,-0.024198,-0.14719,1.8533,0.049468
264,0.0050711,0.012964,-0.021567,-0.024527,-0.1347,1.5889,0.047495
265,-0.034722,-0.028144,-0.0011774,-0.01203,-0.10247,1.2087,0.044206
266,-0.081092,-0.06136,0.031381,0.0067154,-0.062347,0.77659,0.041247
267,-0.12286,-0.079777,0.065583,0.025461,-0.027816,0.35334,0.039931
268,-0.14983,-0.086354,0.092221,0.04026,-0.011372,-0.025842,0.038944
269,-0.15706,-0.093589,0.098141,0.04618,-0.025842,-0.39417,0.039273
270,-0.14719,-0.10707,0.082355,0.042233,-0.07879,-0.83157,0.037629
271,-0.12319,-0.12384,0.049468,0.031709,-0.16989,-1.3887,0.034998
272,-0.094247,-0.13404,0.014608,0.024145,-0.27677,-2.0359,0.033025
273,-0.071555,-0.13799,-0.0074258,0.024803,-0.36425,-2.6653,0.03434
274,-0.063991,-0.14391,-0.011701,0.031381,-0.40207,-3.1221,0.040589
275,-0.064649,-0.15805,0.002769,0.038944,-0.38891,-3.2754,0.049797
276,-0.062347,-0.17745,0.027763,0.042562,-0.34451,-3.0781,0.05769
277,-0.04985,-0.19225,0.052757,0.044535,-0.29749,-2.6042,0.061307
278,-0.028473,-0.1962,0.070187,0.047495,-0.26427,-2.0109,0.060321
279,-0.0051238,-0.18633,0.071502,0.051113,-0.24421,-1.4584,0.055388
280,0.013293,-0.15772,0.057361,0.051113,-0.23073,-1.0414,0.047495
281,0.024474,-0.10247,0.031052,0.041904,-0.21034,-0.76514,0.041247
282,0.021843,-0.025185,0.0014536,0.026447,-0.17581,-0.57702,0.036971
283,0.0037556,0.0692,-0.020909,0.0093464,-0.12352,-0.42246,0.035327
284,-0.028473,0.16523,-0.03242,-0.0061104,-0.048534,-0.27249,0.03434
285,-0.067609,0.2389,-0.03538,-0.015319,0.065254,-0.11464,0.032367
286,-0.10378,0.27672,-0.030775,-0.012359,0.23429,0.079724,0.031709
287,-0.12713,0.27606,-0.018278,0.0047422,0.44904,0.35038,0.029736
288,-0.13042,0.23791,-0.0028217,0.033354,0.66445,0.69142,0.029078
289,-0.1097,0.17016,0.012635,0.068543,0.82625,1.0048,0.026447
290,-0.07024,0.089919,0.021514,0.097154,0.89334,1.166,0.022501
291,-0.024198,0.019212,0.025461,0.10702,0.85848,1.1173,0.018226
292,0.020199,-0.026171,0.02579,0.099456,0.74272,0.9236,0.014937
293,0.053743,-0.040313,0.02283,0.084657,0.58092,0.72661,0.014279
294,0.071173,-0.030447,0.019212,0.0692,0.40859,0.65952,0.014608
295,0.06624,-0.0087413,0.018226,0.051441,0.25534,0.76969,0.014608
296,0.04026,0.013622,0.015924,0.034998,0.14024,1.0111,0.013951
297,0.00046697,0.026119,0.0083598,0.022501,0.06361,1.2617,0.010333
298,-0.038997,0.018555,-0.0047949,0.012306,0.016581,1.3824,0.0044134
299,-0.063991,-0.007097,-0.024527,0.0034268,-0.016305,1.2794,-0.002164
300,-0.068266,-0.039984,-0.046232,-0.0054526,-0.051494,0.95846,-0.0084125
301,-0.060045,-0.066293,-0.062676,-0.020252,-0.092931,0.49969,-0.013674
302,-0.052152,-0.07879,-0.07287,-0.038668,-0.14029,0.012635,-0.015976
303,-0.05544,-0.071884,-0.078461,-0.057414,-0.18238,-0.39352,-0.015319
304,-0.072213,-0.04689,-0.082079,-0.073528,-0.20935,-0.62438,-0.012359
305,-0.099509,-0.010057,-0.084052,-0.08175,-0.20968,-0.60037,-0.0074258
306,-0.11858,0.028421,-0.082736,-0.077475,-0.17416,-0.28302,-0.0024928
307,-0.11924,0.054401,-0.07879,-0.060045,-0.10641,0.25698,0.00079584
308,-0.10411,0.06361,-0.067609,-0.037024,-0.024527,0.81573,-0.00019077
309,-0.079777,0.060321,-0.047548,-0.017621,0.040918,1.1722,-0.004466
310,-0.057743,0.054401,-0.019265,-0.0051238,0.064596,1.2114,-0.011043
311,-0.039984,0.046837,0.013293,-0.0008485,0.044864,0.95846,-0.016634
312,-0.028802,0.033354,0.040918,-0.00051963,-0.0028217,0.53981,-0.019594
313,-0.023211,0.0080309,0.05473,-0.0011774,-0.065635,0.087288,-0.020581
314,-0.025842,-0.030775,0.050126,-0.0047949,-0.12911,-0.32939,-0.021238
315,-0.034393,-0.076159,0.032367,-0.012688,-0.18863,-0.70166,-0.02354
316,-0.040641,-0.11464,0.012306,-0.025842,-0.24092,-1.0325,-0.023869
317,-0.041299,-0.13503,-0.0024928,-0.042944,-0.28104,-1.3018,-0.021238
318,-0.036037,-0.13536,-0.011043,-0.059716,-0.309,-1.4788,-0.015976
319,-0.025185,-0.12089,-0.014332,-0.072213,-0.33037,-1.5275,-0.0080836
320,-0.0090702,-0.095233,-0.01203,-0.073857,-0.35307,-1.416,-0.0011774
321,0.010662,-0.062347,-0.007097,-0.062676,-0.37411,-1.1489,0.0040845
322,0.034011,-0.021238,0.00046697,-0.042286,-0.3876,-0.77961,0.0067154
323,0.059992,0.025461,0.013293,-0.020581,-0.38858,-0.38661,0.0083598
324,0.089261,0.071502,0.029407,-0.0031506,-0.37411,-0.038668,0.0080309
325,0.11097,0.10866,0.044535,0.010991,-0.34024,0.22706,0.0093464
326,0.11919,0.12609,0.057361,0.01987,-0.27907,0.4395,0.010991
327,0.10932,0.11919,0.066898,0.023488,-0.1814,0.7026,0.015924
328,0.083999,0.094523,0.070187,0.023817,-0.042615,1.142,0.023159
329,0.056703,0.065912,0.065254,0.024803,0.12248,1.7711,0.029078
330,0.040589,0.041575,0.055388,0.029078,0.28362,2.4282,0.029078
331,0.044535,0.021186,0.041904,0.033025,0.40991,2.8425,0.021843
332,0.070516,0.0034268,0.032038,0.033683,0.49475,2.7794,0.012306
333,0.11787,-0.0064392,0.027434,0.038616,0.5648,2.1825,0.0034268
334,0.17345,-0.0074258,0.032696,0.063938,0.64965,1.2525,0.0037556
335,0.21916,-0.0011774,0.051441,0.11754,0.74864,0.36913,0.012635
336,0.23922,0.015924,0.080382,0.18628,0.8256,-0.17712,0.023817
337,0.22936,0.043877,0.11031,0.24712,0.83447,-0.37707,0.032038
338,0.19581,0.078737,0.1307,0.27639,0.74634,-0.40864,0.034669
339,0.15273,0.11426,0.13333,0.26455,0.56875,-0.42542,0.03434
340,0.11656,0.14122,0.11689,0.21949,0.34249,-0.46587,0.034998
341,0.099127,0.15175,0.089919,0.15931,0.12774,-0.50171,0.038944
342,0.095839,0.14089,0.058676,0.1034,-0.031104,-0.52079,0.043549
343,0.091234,0.10965,0.032038,0.060979,-0.11825,-0.53493,0.04881
344,0.076764,0.065254,0.012964,0.033354,-0.13897,-0.53493,0.052757
345,0.05769,0.026776,0.0021113,0.018884,-0.11135,-0.47836,0.055059
346,0.050784,0.0093464,-0.0028217,0.012635,-0.05544,-0.31393,0.057032
347,0.065583,0.0096753,-0.0051238,0.012306,0.0021113,-0.029789,0.057032
348,0.089261,0.015924,-0.010057,0.014279,0.038944,0.32013,0.056046
349,0.10998,0.018226,-0.016634,0.010991,0.042891,0.64439,0.052428
350,0.11754,0.01691,-0.021238,0.0014536,0.017897,0.86177,0.047824
351,0.1113,0.021843,-0.017292,-0.014003,-0.021567,0.93281,0.043549
352,0.095839,0.031381,-0.007097,-0.02946,-0.059387,0.87986,0.039931
353,0.078737,0.045522,0.0057288,-0.039326,-0.079119,0.78054,0.041575
354,0.067227,0.058676,0.016253,-0.039326,-0.073199,0.71312,0.046508
355,0.061636,0.061307,0.018884,-0.033735,-0.041628,0.7026,0.050455
356,0.05769,0.050455,0.016581,-0.028802,-0.0051238,0.69503,0.052099
357,0.058019,0.034998,0.011648,-0.027816,0.012306,0.61446,0.049797
358,0.064925,0.02579,0.0040845,-0.031104,-0.0084125,0.42273,0.045851
359,0.080053,0.025461,-0.0061104,-0.034393,-0.063004,0.12675,0.041575
360,0.10011,0.031709,-0.015319,-0.035051,-0.13667,-0.24191,0.037629
361,0.11656,0.038944,-0.019923,-0.028473,-0.21987,-0.63096,0.034669
362,0.11886,0.044535,-0.019923,-0.01499,-0.30406,-0.98087,0.033354
363,0.1011,0.049468,-0.014003,-0.0011774,-0.37378,-1.2413,0.033025
364,0.062294,0.057032,-0.0057815,0.0054,-0.41983,-1.39,0.032696
365,0.013293,0.066898,0.0001381,-0.00019077,-0.43824,-1.4294,0.031381
366,-0.038668,0.074462,0.0030979,-0.01499,-0.43166,-1.3874,0.029407
367,-0.084052,0.071173,0.002769,-0.032091,-0.40799,-1.292,0.02579
368,-0.12089,0.055717,-0.00051963,-0.046232,-0.37576,-1.1726,0.022501
369,-0.15607,0.026776,-0.0024928,-0.056427,-0.34484,-1.0483,0.020199
370,-0.19422,-0.013017,-0.0038083,-0.065307,-0.32215,-0.93746,0.019212
371,-0.235,-0.059387,-0.0067681,-0.076159,-0.30176,-0.84834,0.019541
372,-0.25967,-0.097536,-0.013017,-0.086354,-0.26953,-0.77533,0.019541
373,-0.24881,-0.11529,-0.019923,-0.086354,-0.21001,-0.68424,0.020199
374,-0.20014,-0.10872,-0.022554,-0.067609,-0.11464,-0.53657,0.019541
375,-0.12911,-0.080106,-0.016305,-0.031762,0.0054,-0.33629,0.016253
376,-0.057414,-0.038011,-0.0074258,0.0073732,0.12215,-0.1518,0.0096753
377,-0.0015062,0.0080309,-0.0031506,0.037629,0.20601,-0.060702,0.0017824
378,0.029407,0.042891,-0.0024928,0.057032,0.24745,-0.07583,-0.0041372
379,0.040589,0.060979,-0.00019077,0.0692,0.25041,-0.13996,-0.0084125
380,0.041575,0.061307,0.0090175,0.077422,0.23331,-0.17285,-0.0093991
381,0.042562,0.053086,0.021843,0.082684,0.21752,-0.12089,-0.010715
382,0.047166,0.038944,0.029407,0.084657,0.21818,0.018555,-0.011043
383,0.051113,0.024803,0.026119,0.078409,0.23626,0.19055,-0.011043
384,0.047824,0.010662,0.011648,0.064267,0.26356,0.30927,-0.012359
385,0.039273,-0.004466,-0.007097,0.047495,0.28296,0.30763,-0.013345
386,0.027763,-0.020909,-0.023211,0.032696,0.27639,0.19088,-0.013345
387,0.020857,-0.029789,-0.031762,0.019541,0.2458,0.020199,-0.013017
388,0.020199,-0.018607,-0.028473,0.0054,0.20042,-0.14029,-0.012688
389,0.02579,0.018226,-0.016963,-0.011372,0.14583,-0.27348,-0.013674
390,0.036642,0.0692,-0.0054526,-0.028802,0.085315,-0.39648,-0.014003
391,0.047824,0.11458,-0.00051963,-0.044588,0.020857,-0.52934,-0.01499
392,0.055388,0.14484,0.0017824,-0.055769,-0.036695,-0.68095,-0.033406
393,0.058348,0.15767,0.013293,-0.053467,-0.071226,-0.83683,-0.079119
394,0.058019,0.16128,0.039602,-0.031104,-0.089643,-0.97561,-0.13075
395,0.053086,0.15832,0.074791,0.0070443,-0.11497,-1.0848,-0.14851
396,0.038616,0.15109,0.10735,0.042891,-0.16101,-1.1174,-0.11957
397,0.017239,0.14089,0.12313,0.060979,-0.22711,-0.97331,-0.060373
398,-0.0038083,0.12577,0.11886,0.058019,-0.29091,-0.57012,0.0001381
399,-0.016634,0.1057,0.10044,0.044535,-0.33662,0.042233,0.042562
400,-0.017292,0.08367,0.076435,0.030394,-0.36194,0.65097,0.057361
401,-0.01203,0.063281,0.057361,0.021186,-0.37543,0.99628,0.050784
402,-0.010057,0.041575,0.04322,0.01132,-0.3899,0.91406,0.034011
403,-0.017621,0.021186,0.029407,-0.004466,-0.40864,0.41977,0.018555
404,-0.036366,0.0073732,0.01132,-0.021567,-0.42081,-0.28631,0.012635
405,-0.053796,0.002769,-0.010386,-0.031433,-0.40996,-0.91247,0.017568
406,-0.060045,0.0024402,-0.032091,-0.024527,-0.36885,-1.2321,0.031709
407,-0.054454,-0.002164,-0.049192,0.0011247,-0.30604,-1.1473,0.046837
408,-0.045574,-0.011701,-0.058071,0.038616,-0.23467,-0.71087,0.057032
409,-0.047548,-0.01795,-0.059058,0.071173,-0.15673,-0.090629,0.059005
410,-0.063004,-0.013674,-0.054454,0.086301,-0.057085,0.55823,0.047166
411,-0.08175,0.0037556,-0.045246,0.085972,0.096496,1.1528,0.0083598
412,-0.092603,0.020199,-0.032091,0.079724,0.31059,1.6277,-0.050507
413,-0.085696,0.016253,-0.016305,0.083013,0.54737,1.8961,-0.088985
414,-0.062018,-0.01499,0.00079584,0.097483,0.75324,1.9086,-0.082079
415,-0.031762,-0.062676,0.020857,0.12478,0.8792,1.6918,-0.037024
416,-0.0031506,-0.10937,0.046837,0.16326,0.90419,1.3419,0.020528
417,0.020528,-0.13568,0.078737,0.19845,0.83809,0.97852,0.067556
418,0.035656,-0.13437,0.10669,0.21719,0.71049,0.70424,0.092879
419,0.043877,-0.11135,0.1182,0.21028,0.56349,0.57631,0.10044
420,0.047166,-0.080763,0.10866,0.17806,0.42898,0.59999,0.097483
421,0.045851,-0.05544,0.083999,0.12905,0.32177,0.72167,0.093865
422,0.045522,-0.038997,0.053415,0.075778,0.25402,0.86309,0.093536
423,0.051441,-0.028802,0.025132,0.030723,0.22903,0.95944,0.095839
424,0.061965,-0.022883,0.0034268,0.0021113,0.23857,0.97424,0.097154
425,0.073147,-0.018936,-0.011372,-0.01203,0.28165,0.89926,0.096825
426,0.084657,-0.010386,-0.019923,-0.010386,0.36518,0.74601,0.09255
427,0.092879,0.0044134,-0.02354,0.0054,0.49804,0.53257,0.088275
428,0.094523,0.01987,-0.022883,0.027105,0.66445,0.29086,0.080711
429,0.08663,0.033025,-0.023211,0.046508,0.82231,0.06065,0.058348
430,0.069858,0.041247,-0.02354,0.056703,0.92689,-0.12615,0.016253
431,0.047824,0.046508,-0.023869,0.052099,0.94366,-0.26164,-0.025842
432,0.025461,0.044206,-0.022554,0.034669,0.86276,-0.34747,-0.036366
433,0.0054,0.038616,-0.021567,0.01132,0.69306,-0.38431,-0.010057
434,-0.010386,0.033025,-0.025185,-0.0097279,0.4645,-0.37247,0.037629
435,-0.019923,0.031381,-0.029131,-0.016963,0.21851,-0.31952,0.082355
436,-0.016634,0.035656,-0.02946,-0.0067681,0.00046697,-0.24158,0.11097
437,0.00046697,0.04026,-0.023211,0.016253,-0.15246,-0.15246,0.11919
438,0.021186,0.045522,-0.013345,0.036314,-0.23369,-0.080106,0.11195
439,0.036314,0.049468,-0.0018351,0.044864,-0.26197,-0.050836,0.096825
440,0.040589,0.05177,0.011977,0.045522,-0.26296,-0.079448,0.081039
441,0.034669,0.05177,0.026776,0.043877,-0.26888,-0.17219,0.070187
442,0.026447,0.049797,0.035656,0.035656,-0.29091,-0.31821,0.064596
443,0.017568,0.04618,0.037629,0.020199,-0.32248,-0.48987,0.062952
444,0.0083598,0.036314,0.030394,0.0021113,-0.35011,-0.64872,0.063281
445,0.0024402,0.018884,0.016253,-0.016963,-0.3626,-0.77204,0.063281
446,-0.0038083,-0.00051963,0.0021113,-0.035051,-0.36392,-0.85722,0.060979
447,-0.015319,-0.013017,-0.010057,-0.053138,-0.36194,-0.92201,0.04881
448,-0.034064,-0.015648,-0.021238,-0.070897,-0.36293,-0.99995,0.01132
449,-0.05544,-0.010386,-0.03242,-0.084381,-0.37148,-1.1108,-0.040641
450,-0.069253,-0.0015062,-0.042944,-0.09326,-0.39023,-1.2061,-0.071226
451,-0.069911,0.0060577,-0.053796,-0.099838,-0.40832,-1.1364,-0.057085
452,-0.059716,0.0073732,-0.061031,-0.10378,-0.4024,-0.73225,-0.0097279
453,-0.04393,0.0024402,-0.061689,-0.10674,-0.35767,0.012964,0.044206
454,-0.027816,-0.0034794,-0.05281,-0.10378,-0.28137,0.86046,0.07808
455,-0.01499,-0.0090702,-0.042944,-0.094576,-0.19948,1.484,0.083999
456,-0.0084125,-0.01203,-0.036366,-0.078461,-0.14522,1.6695,0.067885
457,-0.011372,-0.011372,-0.036037,-0.058071,-0.12615,1.4018,0.045193
458,-0.024198,-0.0080836,-0.038339,-0.039326,-0.13338,0.84237,0.027105
459,-0.038668,-0.0064392,-0.037353,-0.024198,-0.14687,0.20568,0.017568
460,-0.04985,-0.004466,-0.025842,-0.015648,-0.13996,-0.33465,0.015924
461,-0.056098,-0.0008485,-0.0057815,-0.012688,-0.10576,-0.67042,0.018884
462,-0.056098,0.0054,0.015266,-0.0084125,-0.052481,-0.75001,0.024145
463,-0.04985,0.014937,0.032038,0.0024402,0.002769,-0.5859,0.027105
464,-0.032749,0.026447,0.04026,0.015266,0.04322,-0.28927,0.026776
465,-0.011043,0.039931,0.041247,0.027105,0.067885,-0.031762,0.018555
466,0.0077021,0.058348,0.035656,0.035985,0.085315,0.045522,-0.011043
467,0.016253,0.083999,0.026119,0.040589,0.11261,-0.081421,-0.064649
468,0.01987,0.1136,0.01691,0.043877,0.15964,-0.31294,-0.11168
469,0.026119,0.13859,0.011977,0.048153,0.22245,-0.48428,-0.11661
470,0.037629,0.15142,0.012635,0.053415,0.28198,-0.46422,-0.079777
471,0.052428,0.14813,0.017897,0.053086,0.31388,-0.22251,-0.021567
472,0.067227,0.12642,0.027105,0.04881,0.30204,0.16885,0.028092
473,0.080711,0.090905,0.035985,0.048153,0.24843,0.60065,0.055388
474,0.089919,0.051441,0.039602,0.06065,0.17477,0.99003,0.057032
475,0.092879,0.017897,0.036971,0.087617,0.11097,1.2807,0.042233
476,0.085644,0.00046697,0.032367,0.11853,0.079724,1.4172,0.02283
477,0.070187,-0.0034794,0.028421,0.13728,0.073476,1.3534,0.0077021
478,0.05177,-0.002164,0.02875,0.13004,0.057032,1.0907,0.0017824
479,0.033025,-0.0051238,0.030394,0.097154,0.0030979,0.68451,0.0040845
480,0.015595,-0.011372,0.030394,0.045851,-0.095233,0.22311,0.010662
481,0.0044134,-0.016963,0.029078,-0.0087413,-0.22974,-0.20376,0.017239
482,0.00046697,-0.018936,0.027105,-0.058071,-0.37872,-0.52934,0.023159
483,0.00046697,-0.014661,0.028092,-0.095891,-0.51092,-0.7385,0.024474
484,0.0014536,-0.004466,0.027434,-0.11398,-0.58327,-0.85031,0.013951
485,-0.0084125,0.0063866,0.023817,-0.11233,-0.56683,-0.8878,-0.024198
486,-0.02946,0.0096753,0.018555,-0.099509,-0.4708,-0.88221,-0.076159
487,-0.0584,0.0044134,0.010004,-0.085367,-0.33827,-0.86018,-0.10444
488,-0.082736,-0.010057,-0.00051963,-0.073528,-0.21428,-0.8319,-0.087998
489,-0.09326,-0.025514,-0.0097279,-0.066293,-0.1268,-0.79145,-0.039655
490,-0.087341,-0.034393,-0.014332,-0.058729,-0.085367,-0.72304,0.015924
491,-0.068595,-0.034064,-0.014003,-0.046561,-0.08175,-0.60761,0.055388
492,-0.04689,-0.02354,-0.0097279,-0.027487,-0.095891,-0.42772,0.074133
493,-0.024527,-0.0024928,-0.0008485,0.00046697,-0.10609,-0.18534,0.076106
494,0.0017824,0.021843,0.015595,0.034011,-0.10674,0.10669,0.070516
495,0.034669,0.041904,0.035985,0.059663,-0.10411,0.42536,0.064596
496,0.067227,0.048153,0.055388,0.071502,-0.10444,0.75818,0.06065
497,0.09255,0.041904,0.068871,0.069858,-0.10806,1.1048,0.059005
498,0.10373,0.025461,0.071831,0.063281,-0.095562,1.4564,0.059334
499,0.098798,0.0067154,0.064925,0.062294,-0.049521,1.7783,0.059334
500,0.080711,-0.013674,0.052099,0.067556,0.031052,2.0171,0.06065
501,0.059005,-0.039326,0.033683,0.068871,0.11458,2.0907,0.059992
502,0.039931,-0.076159,0.0096753,0.057361,0.1603,1.924,0.054072
503,0.024145,-0.11858,-0.018607,0.0373,0.15175,1.5054,0.025461
504,0.010662,-0.1518,-0.045903,0.017897,0.08959,0.91077,-0.028473
505,-0.002164,-0.15509,-0.065964,0.0070443,-0.014003,0.27672,-0.072542
506,-0.014003,-0.11003,-0.07024,0.0014536,-0.12779,-0.24816,-0.074844
507,-0.018936,-0.018607,-0.053138,0.0044134,-0.20442,-0.55104,-0.033406
508,-0.015648,0.098469,-0.019594,0.014608,-0.21461,-0.62109,0.026119
509,-0.0047949,0.20502,0.015266,0.031381,-0.15706,-0.55861,0.075449
510,0.011977,0.27376,0.043877,0.049139,-0.045903,-0.52572,0.099456
511,0.032696,0.29119,0.061307,0.062623,0.11195,-0.64214,0.098141
512,0.05177,0.26488,0.067556,0.073147,0.3198,-0.90063,0.084657
513,0.062623,0.21982,0.063938,0.082026,0.57697,-1.1848,0.071502
514,0.065254,0.17937,0.059334,0.093208,0.84796,-1.367,0.064925
515,0.068543,0.15175,0.057032,0.1057,1.069,-1.3841,0.066898
516,0.080053,0.12873,0.059992,0.11919,1.1742,-1.2594,0.071173
517,0.10011,0.099456,0.065912,0.13037,1.1275,-1.0864,0.073147
518,0.1182,0.062952,0.070845,0.13826,0.94563,-0.97002,0.069529
519,0.12281,0.024474,0.0692,0.13728,0.68846,-0.95752,0.061965
520,0.11458,-0.0057815,0.059663,0.12445,0.42898,-1.0174,0.054401
521,0.098798,-0.016963,0.044864,0.10373,0.22706,-1.0769,0.036971
522,0.081039,-0.0051238,0.031709,0.082026,0.11327,-1.0637,-0.0028217
523,0.064596,0.023817,0.024145,0.063938,0.066569,-0.90227,-0.051165
524,0.059992,0.055388,0.023488,0.056374,0.045193,-0.52835,-0.072542
525,0.0692,0.079724,0.028092,0.059334,0.010662,0.020857,-0.052481
526,0.085644,0.097812,0.038944,0.070187,-0.045574,0.59933,-0.0084125
527,0.097483,0.11327,0.05177,0.077093,-0.10937,1.0535,0.035985
528,0.10209,0.12379,0.06065,0.074462,-0.16298,1.3265,0.062952
529,0.10406,0.12182,0.06065,0.064267,-0.19225,1.462,0.069858
530,0.10406,0.10669,0.049797,0.05473,-0.19751,1.5386,0.064596
531,0.1011,0.077751,0.033025,0.047495,-0.18863,1.6047,0.056703
532,0.092879,0.037629,0.01691,0.040918,-0.17844,1.6616,0.049797
533,0.069529,-0.011701,0.0030979,0.030723,-0.17844,1.6576,0.044206
534,0.025461,-0.065635,-0.0074258,0.017897,-0.186,1.5244,0.038287
535,-0.036366,-0.11825,-0.014332,0.0057288,-0.19455,1.2314,0.031709
536,-0.10017,-0.15936,-0.019923,-0.0031506,-0.19488,0.83086,0.025132
537,-0.14325,-0.18074,-0.025842,-0.0077547,-0.18173,0.43359,0.020528
538,-0.1518,-0.17942,-0.036037,-0.0097279,-0.15969,0.13432,0.018555
539,-0.12911,-0.15969,-0.049192,-0.0077547,-0.13832,-0.056098,0.016253
540,-0.088985,-0.1347,-0.062018,-0.0057815,-0.12615,-0.18074,0.012635
541,-0.052481,-0.11497,-0.070897,-0.011701,-0.12713,-0.29354,0.0070443
542,-0.034722,-0.1074,-0.073528,-0.026829,-0.13437,-0.41983,0.00046697
543,-0.038668,-0.1097,-0.070897,-0.043601,-0.14095,-0.54348,-0.0038083
544,-0.056098,-0.11266,-0.066951,-0.054454,-0.14259,-0.62471,-0.0064392
545,-0.070897,-0.10641,-0.063004,-0.06136,-0.14391,-0.61419,-0.0064392
546,-0.076159,-0.091287,-0.0584,-0.069911,-0.15015,-0.47014,-0.0051238
547,-0.072542,-0.07024,-0.054454,-0.083394,-0.16166,-0.19093,-0.0051238
548,-0.067937,-0.049521,-0.052481,-0.09918,-0.17548,0.15931,-0.0067681
549,-0.06432,-0.033078,-0.051494,-0.11233,-0.18732,0.47732,-0.0090702
550,-0.057743,-0.018936,-0.049192,-0.12549,-0.19159,0.66642,-0.011043
551,-0.044588,0.0014536,-0.040641,-0.13207,-0.19093,0.65886,-0.014003
552,-0.0265,0.030723,-0.026171,-0.12713,-0.18501,0.43885,-0.017621
553,-0.007097,0.063281,-0.0051238,-0.10674,-0.17054,0.06065,-0.022225
554,0.0067154,0.089261,0.021514,-0.077146,-0.14325,-0.36556,-0.025842
555,0.010333,0.098798,0.04881,-0.044588,-0.10641,-0.70166,-0.027487
556,0.0067154,0.089261,0.07216,-0.012359,-0.062676,-0.86577,-0.025842
557,-0.00051963,0.064267,0.086301,0.023817,-0.021896,-0.86939,-0.02354
558,-0.0041372,0.034669,0.089261,0.070516,0.010991,-0.80394,-0.031762
559,-0.0054526,0.0067154,0.082684,0.12379,0.026776,-0.77928,-0.063333
560,-0.0054526,-0.014332,0.067227,0.17806,0.0096753,-0.86149,-0.10477
561,-0.00051963,-0.025185,0.045522,0.21883,-0.048534,-1.0489,-0.12253
562,0.011977,-0.027158,0.022172,0.23791,-0.13733,-1.2838,-0.10411
563,0.026776,-0.02354,0.0067154,0.23067,-0.21527,-1.4893,-0.059716
564,0.04026,-0.014003,0.0050711,0.20272,-0.23599,-1.5778,-0.010386
565,0.049139,0.0044134,0.01691,0.16227,-0.17844,-1.4669,0.027434
566,0.054072,0.028092,0.033025,0.11952,-0.057085,-1.1328,0.046837
567,0.054401,0.047824,0.044864,0.083013,0.080711,-0.6576,0.050126
568,0.052428,0.058019,0.04881,0.060321,0.1797,-0.18436,0.042891
569,0.052428,0.061307,0.04881,0.050455,0.20469,0.17411,0.032367
570,0.054072,0.061965,0.04881,0.044864,0.15405,0.37702,0.023817
571,0.052099,0.061307,0.044535,0.035656,0.058676,0.45463,0.01987
572,0.041575,0.06065,0.035656,0.02283,-0.031762,0.47371,0.019541
573,0.025461,0.05473,0.024803,0.0096753,-0.07583,0.50429,0.024145
574,0.0093464,0.041575,0.016253,0.0047422,-0.063991,0.57566,0.031709
575,-0.0074258,0.027105,0.014937,0.0067154,-0.026171,0.63781,0.035985
576,-0.022883,0.01691,0.01691,0.0096753,0.0021113,0.58881,0.029078
577,-0.036366,0.014608,0.018884,0.016581,0.013622,0.36091,-0.004466
578,-0.044259,0.015924,0.021514,0.024803,0.01987,-0.024856,-0.060702
579,-0.046232,0.014608,0.021843,0.031381,0.033025,-0.44219,-0.1005
580,-0.040641,0.0070443,0.017239,0.035327,0.058676,-0.71679,-0.092603
581,-0.029131,-0.0074258,0.0090175,0.036642,0.10373,-0.73948,-0.041957
582,-0.01203,-0.022225,0.00046697,0.038616,0.16095,-0.53033,0.024474
583,0.0093464,-0.027158,-0.0047949,0.044864,0.21522,-0.22612,0.077422
584,0.030065,-0.017621,-0.0028217,0.055059,0.25435,0.0086887,0.1034
585,0.047166,0.0030979,0.0096753,0.064925,0.27441,0.087946,0.10472
586,0.061307,0.023159,0.020857,0.068543,0.28165,0.058348,0.093208
587,0.074791,0.036314,0.024803,0.062623,0.28987,0.079724,0.080711
588,0.088603,0.044864,0.020528,0.050784,0.3175,0.31651,0.075778
589,0.10274,0.052757,0.0096753,0.039931,0.37373,0.80356,0.075449
590,0.1113,0.063938,0.0014536,0.035985,0.45398,1.3636,0.074791
591,0.11228,0.074133,-0.0024928,0.033683,0.52863,1.7306,0.069529
592,0.099456,0.074133,0.0030979,0.02875,0.55987,1.7297,0.060979
593,0.075778,0.058348,0.014608,0.023159,0.52271,1.3778,0.053086
594,0.047495,0.026776,0.024803,0.018226,0.41813,0.845,0.049797
595,0.020199,-0.013017,0.031709,0.017239,0.27672,0.34545,0.036971
596,0.0014536,-0.044259,0.035656,0.01691,0.14122,0.034011,0.00079584
597,-0.011043,-0.052481,0.036314,0.015266,0.033354,-0.056756,-0.042944
598,-0.01499,-0.034393,0.03434,0.0070443,-0.055769,0.0093464,-0.058729
599,-0.014003,0.0021113,0.026776,-0.011043,-0.13371,0.14024,-0.03538
600,-0.011372,0.042233,0.010004,-0.038997,-0.20047,0.27376,0.011648
601,-0.0080836,0.073476,-0.007097,-0.069582,-0.25243,0.39412,0.059005
602,-0.00051963,0.08663,-0.01499,-0.093589,-0.28663,0.50232,0.089919
603,0.01132,0.077422,-0.010057,-0.10641,-0.29946,0.58322,0.097812
604,0.01987,0.048482,0.0037556,-0.10641,-0.29124,0.61052,0.08959
605,0.017239,0.013293,0.017239,-0.097207,-0.26789,0.5477,0.072818
606,0.0044134,-0.011372,0.02579,-0.08175,-0.23106,0.3711,0.057032
607,-0.014661,-0.016963,0.028092,-0.063004,-0.19093,0.10834,0.048153
608,-0.030447,-0.0074258,0.025461,-0.046232,-0.15311,-0.15739,0.045193
609,-0.03538,0.0083598,0.018884,-0.032091,-0.12187,-0.33268,0.048482
610,-0.030118,0.024145,0.0093464,-0.020909,-0.10017,-0.36425,0.052428
611,-0.01795,0.037629,0.00046697,-0.015319,-0.097207,-0.26624,0.054401
612,-0.0041372,0.045851,-0.0011774,-0.013674,-0.11398,-0.10674,0.053743
613,0.0093464,0.047166,0.0021113,-0.0093991,-0.13272,0.033025,0.041247
614,0.022501,0.045851,0.0054,0.0044134,-0.12549,0.098798,0.0040845
615,0.030394,0.043549,0.0050711,0.024474,-0.088327,0.073147,-0.05281
616,0.031381,0.039931,-0.0015062,0.04322,-0.045574,-0.025842,-0.094247
617,0.026119,0.038944,-0.013674,0.041575,-0.031433,-0.15607,-0.092603
618,0.015595,0.040918,-0.030447,0.0093464,-0.056098,-0.26855,-0.053467
619,0.0017824,0.043877,-0.046561,-0.048205,-0.10872,-0.33103,-0.0008485
620,-0.014003,0.044864,-0.053796,-0.11398,-0.16199,-0.33827,0.039931
621,-0.026829,0.044864,-0.047219,-0.16068,-0.19258,-0.31656,0.056374
622,-0.035708,0.045522,-0.034064,-0.17186,-0.1906,-0.30078,0.052757
623,-0.037682,0.041904,-0.027158,-0.15048,-0.16693,-0.32149,0.038944
624,-0.039326,0.030723,-0.02946,-0.11464,-0.14029,-0.39121,0.025461
625,-0.039326,0.013293,-0.037353,-0.077146,-0.12483,-0.48823,0.018555
626,-0.04097,-0.0038083,-0.04393,-0.046561,-0.12352,-0.56946,0.01691
627,-0.046561,-0.014003,-0.047219,-0.023211,-0.12878,-0.58886,0.018555
628,-0.051823,-0.014003,-0.042615,-0.0038083,-0.12976,-0.5369,0.021514
629,-0.04985,-0.0011774,-0.027487,0.015266,-0.12352,-0.43791,0.021514
630,-0.037353,0.026776,-0.0097279,0.035656,-0.11661,-0.3386,0.020199
631,-0.017292,0.062952,0.0060577,0.055717,-0.11694,-0.28203,0.014608
632,0.0083598,0.099127,0.019212,0.074462,-0.11924,-0.28433,-0.0057815
633,0.037629,0.12741,0.033354,0.094852,-0.10872,-0.32084,-0.050507
634,0.06624,0.13662,0.048153,0.11721,-0.082408,-0.35537,-0.09918
635,0.09255,0.1205,0.061307,0.13497,-0.053467,-0.36754,-0.11628
636,0.1113,0.081039,0.064925,0.14221,-0.032091,-0.34583,-0.092274
637,0.12248,0.031381,0.054401,0.13333,-0.020909,-0.30078,-0.044259
638,0.12215,-0.015648,0.029736,0.11064,-0.019265,-0.26,0.0054
639,0.10702,-0.050507,-0.0008485,0.083013,-0.0265,-0.24947,0.038944
640,0.079066,-0.06728,-0.030775,0.055388,-0.036366,-0.27874,0.052757
641,0.046508,-0.060373,-0.050836,0.031381,-0.040641,-0.33037,0.050784
642,0.020199,-0.02946,-0.054125,0.013622,-0.038668,-0.37378,0.042233
643,0.0080309,0.016253,-0.043601,0.0030979,-0.038997,-0.3751,0.035656
644,0.01132,0.05769,-0.024198,0.0030979,-0.038668,-0.32281,0.032038
645,0.024474,0.085644,-0.002164,0.011977,-0.025514,-0.24026,0.034011
646,0.037958,0.09551,0.016581,0.026119,0.0054,-0.1587,0.037958
647,0.047824,0.093536,0.025461,0.041247,0.053415,-0.093589,0.040918
648,0.051113,0.089919,0.025461,0.052428,0.10801,-0.041299,0.041247
649,0.047495,0.088603,0.019541,0.058348,0.15569,0.017239,0.040918
650,0.0373,0.08663,0.013293,0.059005,0.18858,0.11327,0.033683
651,0.026776,0.083999,0.015266,0.054072,0.20897,0.28231,0.0037556
652,0.017239,0.084328,0.030065,0.044535,0.22344,0.51909,-0.04097
653,0.010662,0.084986,0.059005,0.036971,0.23035,0.74469,-0.069253
654,0.002769,0.079395,0.090248,0.035985,0.2241,0.86572,-0.060373
655,-0.0080836,0.061636,0.10998,0.040589,0.20864,0.82954,-0.021567
656,-0.022225,0.031052,0.10768,0.045851,0.18792,0.65261,0.02579
657,-0.036695,-0.0051238,0.088275,0.048153,0.1649,0.40399,0.062294
658,-0.050836,-0.037682,0.062952,0.046837,0.13958,0.16128,0.080382
659,-0.059716,-0.061031,0.0373,0.044206,0.11064,-0.0077547,0.083999
660,-0.057414,-0.072213,0.015266,0.040589,0.079395,-0.062018,0.079724
661,-0.038339,-0.071555,-0.00019077,0.037958,0.048482,-0.012688,0.076106
662,-0.007097,-0.06136,-0.0074258,0.036314,0.026776,0.086301,0.073804
663,0.022501,-0.050836,-0.007097,0.036314,0.014937,0.16424,0.073804
664,0.041904,-0.039326,-0.0061104,0.035985,0.0040845,0.16589,0.074791
665,0.050455,-0.024856,-0.0093991,0.032038,-0.011043,0.083342,0.073476
666,0.046837,-0.0080836,-0.01795,0.026447,-0.03242,-0.045903,0.071831
667,0.027434,0.0070443,-0.030775,0.017897,-0.055112,-0.16956,0.0692
668,-0.0057815,0.012964,-0.040313,0.0017824,-0.074515,-0.26361,0.062623
669,-0.039326,0.015595,-0.04097,-0.02354,-0.07583,-0.3284,0.038287
670,-0.060045,0.01987,-0.035708,-0.048534,-0.058071,-0.36326,-0.011701
671,-0.061689,0.030723,-0.030775,-0.066293,-0.038668,-0.31919,-0.060373
672,-0.045574,0.041575,-0.030447,-0.075501,-0.02946,-0.10378,-0.068924
673,-0.019594,0.049468,-0.035051,-0.078461,-0.027816,0.32605,-0.033078
674,0.0096753,0.053415,-0.040313,-0.075501,-0.020909,0.86572,0.024145
675,0.032696,0.059005,-0.037682,-0.065964,-0.0034794,1.2965,0.074791
676,0.042562,0.071173,-0.025514,-0.049521,0.020857,1.457,0.10209
677,0.037958,0.08959,-0.0024928,-0.028802,0.047166,1.3182,0.10406
678,0.025461,0.10932,0.024145,-0.0084125,0.073147,0.95451,0.091234
679,0.014937,0.11952,0.045193,0.012306,0.10011,0.48193,0.074791
680,0.012964,0.1136,0.056046,0.037629,0.13366,0.024145,0.062294
681,0.011648,0.092221,0.057032,0.066569,0.18233,-0.2988,0.058348
682,0.0001381,0.061965,0.053415,0.090248,0.24514,-0.3774,0.062623
683,-0.03242,0.02579,0.050126,0.10406,0.31421,-0.15739,0.068543
684,-0.078461,-0.010715,0.047166,0.10932,0.37505,0.27968,0.071173
685,-0.11924,-0.041299,0.044864,0.10932,0.41188,0.74141,0.067227
686,-0.13174,-0.054125,0.043549,0.10866,0.41714,1.0581,0.057032
687,-0.10641,-0.043601,0.048153,0.11228,0.39149,1.1666,0.036314
688,-0.05281,-0.013674,0.061307,0.12116,0.34611,1.0946,-0.0097279
689,0.0093464,0.020528,0.076764,0.13136,0.28724,0.90913,-0.069253
690,0.058019,0.045522,0.088275,0.13333,0.21982,0.68813,-0.10214
691,0.084328,0.052428,0.088932,0.1205,0.14385,0.50659,-0.087669
692,0.089261,0.043549,0.073804,0.089919,0.055388,0.39248,-0.038339
693,0.080711,0.027434,0.044864,0.050455,-0.051823,0.28757,0.01691
694,0.065254,0.014279,0.012635,0.0086887,-0.16989,0.089261,0.053743
695,0.04881,0.0093464,-0.015319,-0.030775,-0.28762,-0.28137,0.062623
696,0.03434,0.012635,-0.033406,-0.063991,-0.39845,-0.86413,0.052099
697,0.021514,0.019541,-0.039326,-0.091945,-0.49711,-1.6274,0.03434
698,0.011648,0.02579,-0.036695,-0.11102,-0.57341,-2.4322,0.021186
699,0.0017824,0.02579,-0.027487,-0.12187,-0.6178,-3.084,0.015266
700,-0.0074258,0.020528,-0.014661,-0.12483,-0.63096,-3.3944,0.018226
701,-0.016305,0.0090175,-0.0034794,-0.12352,-0.61813,-3.2695,0.023488
702,-0.02354,-0.0080836,0.0030979,-0.11825,-0.59314,-2.7607,0.026776
703,-0.03242,-0.027487,0.0014536,-0.11299,-0.56946,-1.9941,0.026776
704,-0.043601,-0.044259,-0.0097279,-0.10839,-0.56124,-1.0598,0.024803
705,-0.054783,-0.05544,-0.027487,-0.10872,-0.55499,0.035656,0.021843
706,-0.0584,-0.06136,-0.046561,-0.10641,-0.5027,1.3347,0.0024402
707,-0.049521,-0.063991,-0.060702,-0.092274,-0.33925,2.8337,-0.04097
708,-0.024527,-0.063991,-0.059387,-0.055769,-0.041957,4.3583,-0.087341
709,0.012635,-0.057743,-0.039326,0.013293,0.3586,4.9601,-0.10609
710,0.053743,-0.034064,-0.0015062,0.10768,0.79468,4.9601,-0.094576
711,0.090905,0.0077021,0.043549,0.21061,1.1864,4.9598,-0.07287
712,0.11985,0.055388,0.088932,0.29974,1.4583,4.1856,-0.047548
713,0.13958,0.092879,0.12379,0.35959,1.5692,2.2789,-0.022554
714,0.1501,0.11162,0.14747,0.3905,1.5356,0.35038,-0.0011774
715,0.15536,0.10965,0.1603,0.39544,1.4024,-1.0851,0.017568
716,0.16128,0.09551,0.16227,0.38327,1.2225,-1.7669,0.032038
717,0.16326,0.079724,0.15536,0.35926,1.0315,-1.7629,0.04026
718,0.15701,0.068543,0.14024,0.32901,0.84598,-1.3134,0.041904
719,0.14418,0.060321,0.11787,0.29316,0.67037,-0.73357,0.038616
720,0.12807,0.051113,0.093208,0.25369,0.49969,-0.28137,0.033025
721,0.11162,0.04026,0.069529,0.22048,0.33427,-0.078132,0.026776
722,0.10307,0.025461,0.047495,0.19384,0.17378,-0.10017,0.022501
723,0.10077,0.0077021,0.028421,0.16819,0.02579,-0.24717,0.019212
724,0.10077,-0.0067681,0.012964,0.13925,-0.1028,-0.41917,0.0080309
725,0.10077,-0.010386,0.0001381,0.10472,-0.20409,-0.55959,-0.02946
726,0.10044,-0.0034794,-0.0090702,0.067885,-0.28466,-0.67799,-0.081092
727,0.099785,0.013293,-0.016963,0.029078,-0.35635,-0.80953,-0.1074
728,0.090248,0.032038,-0.02354,-0.010386,-0.42575,-0.96575,-0.089643
729,0.072818,0.045851,-0.027816,-0.046561,-0.48494,-1.118,-0.038997
730,0.051113,0.047495,-0.02946,-0.079119,-0.51487,-1.2265,0.016581
731,0.030065,0.036314,-0.032749,-0.1074,-0.49645,-1.2805,0.056046
732,0.011648,0.015924,-0.039326,-0.12582,-0.41785,-1.3002,0.071831
733,-0.0061104,-0.01203,-0.049192,-0.13042,-0.27973,-1.3038,0.071173
734,-0.019594,-0.045903,-0.059058,-0.12417,-0.10839,-1.2759,0.062952
735,-0.027487,-0.083394,-0.066293,-0.1176,0.050784,-1.1756,0.057361
736,-0.027487,-0.11891,-0.069582,-0.11628,0.15734,-0.97199,0.057032
737,-0.016634,-0.14325,-0.067937,-0.11891,0.1922,-0.67207,0.058676
738,0.0011247,-0.14818,-0.061031,-0.11628,0.15734,-0.34419,0.059663
739,0.015924,-0.12878,-0.048205,-0.1074,0.062623,-0.068266,0.058019
740,0.026119,-0.083065,-0.033406,-0.094576,-0.074186,0.10143,0.056046
741,0.033025,-0.011043,-0.01795,-0.082079,-0.23763,0.15734,0.056046
742,0.040918,0.07808,-0.0047949,-0.072213,-0.39976,0.12182,0.053415
743,0.047495,0.17115,0.0044134,-0.064978,-0.52506,0.017239,0.029736
744,0.048482,0.25271,0.0050711,-0.058071,-0.59149,-0.1643,-0.021238
745,0.045851,0.30796,-0.0024928,-0.05544,-0.60465,-0.43397,-0.068266
746,0.038287,0.32637,-0.014332,-0.0584,-0.58294,-0.76711,-0.075501
747,0.02283,0.30105,-0.021896,-0.060702,-0.53888,-1.1006,-0.040313
748,-0.0034794,0.22837,-0.017621,-0.060373,-0.47968,-1.3584,0.016581
749,-0.034393,0.12017,-0.0041372,-0.056098,-0.41719,-1.4975,0.066898
750,-0.060702,-0.0024928,0.010333,-0.052481,-0.3649,-1.5166,0.095839
751,-0.07879,-0.11102,0.016581,-0.04985,-0.33432,-1.4373,0.10307
752,-0.087998,-0.18666,0.01132,-0.042286,-0.32413,-1.2732,0.095839
753,-0.089972,-0.2156,0.0014536,-0.03242,-0.32314,-1.0345,0.084657
754,-0.081092,-0.19587,-0.0047949,-0.021238,-0.31952,-0.74014,0.077093
755,-0.062018,-0.1393,-0.0061104,-0.012359,-0.3113,-0.41522,0.07512
756,-0.039326,-0.061031,0.00079584,-0.0031506,-0.29453,-0.042944,0.077422
757,-0.020581,0.015924,0.010004,0.0050711,-0.2669,0.41056,0.080711
758,-0.010057,0.07216,0.017897,0.010333,-0.22842,0.93215,0.081697
759,-0.0093991,0.098798,0.022501,0.013293,-0.18238,1.411,0.077422
760,-0.019923,0.094852,0.023817,0.014279,-0.14456,1.6721,0.067556
761,-0.037353,0.075778,0.024145,0.010004,-0.12582,1.5866,0.043549
762,-0.060045,0.057032,0.024145,-0.0011774,-0.12582,1.1594,-0.0041372
763,-0.080434,0.043549,0.024145,-0.014661,-0.13634,0.53981,-0.056756
764,-0.09326,0.030723,0.019212,-0.027487,-0.14588,-0.054125,-0.080434
765,-0.098851,0.012306,0.0086887,-0.035051,-0.14423,-0.46061,-0.060702
766,-0.10181,-0.011701,-0.0067681,-0.03538,-0.12483,-0.66483,-0.013674
767,-0.1051,-0.037024,-0.021896,-0.028473,-0.10214,-0.75691,0.035656
768,-0.1051,-0.058729,-0.034064,-0.021238,-0.09326,-0.82959,0.073804
769,-0.098193,-0.069253,-0.041957,-0.014332,-0.09622,-0.88748,0.092879
770,-0.086354,-0.065307,-0.042615,-0.0061104,-0.097536,-0.86084,0.089919
771,-0.073528,-0.044259,-0.031433,0.0070443,-0.087669,-0.67733,0.073804
772,-0.059716,-0.013674,-0.010715,0.020857,-0.071555,-0.31393,0.056374
773,-0.045903,0.013951,0.013951,0.02579,-0.062018,0.19351,0.044535
774,-0.037024,0.025132,0.030723,0.018555,-0.06728,0.75127,0.039273
775,-0.035708,0.020199,0.036314,-0.0008485,-0.090629,1.2222,0.034998
776,-0.034722,0.0060577,0.029078,-0.023211,-0.12845,1.4771,0.028421
777,-0.024527,-0.0018351,0.014279,-0.040313,-0.16857,1.4389,0.020199
778,-0.0011774,-0.00019077,0.0001381,-0.045246,-0.19883,1.1265,0.010991
779,0.030723,0.0093464,-0.0064392,-0.036695,-0.20277,0.65162,0.0047422
780,0.062623,0.022501,-0.0064392,-0.018936,-0.16265,0.20272,0.0024402
781,0.092879,0.035985,-0.00051963,0.0011247,-0.063991,0.0024402,0.0034268
782,0.11886,0.045193,0.0086887,0.019212,0.077751,0.20732,0.0077021
783,0.13793,0.047824,0.018884,0.02875,0.23298,0.77955,0.0093464
784,0.15043,0.044864,0.028092,0.033354,0.3586,1.4738,0.0063866
785,0.15142,0.039273,0.034011,0.035656,0.42076,1.9727,-0.002164
786,0.13497,0.035985,0.035327,0.036971,0.41221,2.0608,-0.014661
787,0.10274,0.035985,0.032038,0.036971,0.35203,1.7096,-0.024856
788,0.061636,0.0373,0.02875,0.038287,0.27244,1.0551,-0.031104
789,0.01987,0.038616,0.027434,0.041904,0.20963,0.30171,-0.030775
790,-0.018936,0.032038,0.026119,0.045193,0.17411,-0.36063,-0.025514
791,-0.045246,0.012964,0.020199,0.04881,0.16589,-0.81776,-0.016963
792,-0.051165,-0.017621,0.010662,0.053743,0.18233,-1.0486,-0.0087413
793,-0.037353,-0.049521,0.0001381,0.059663,0.21489,-1.0739,-0.0034794
794,-0.013674,-0.068595,-0.0051238,0.068214,0.25337,-0.94305,-0.0024928
795,0.012306,-0.063662,-0.0028217,0.076435,0.28823,-0.71679,-0.0067681
796,0.033354,-0.032749,0.0096753,0.087288,0.3119,-0.4537,-0.012688
797,0.039931,0.014608,0.028092,0.09551,0.3244,-0.16627,-0.018936
798,0.031709,0.06065,0.045522,0.099456,0.32966,0.16457,-0.034722
799,0.013293,0.097483,0.053086,0.094194,0.32703,0.51613,-0.076817
800,-0.0084125,0.11294,0.046837,0.079724,0.30862,0.77627,-0.12779
801,-0.02354,0.096496,0.029407,0.056374,0.25698,0.79731,-0.15114
802,-0.028144,0.057361,0.0073732,0.029078,0.17082,0.51843,-0.12845
803,-0.029789,0.0096753,-0.0041372,0.0050711,0.065254,0.0080309,-0.07583
804,-0.038011,-0.036366,0.0017824,-0.0057815,-0.036695,-0.61057,-0.019594
805,-0.059716,-0.078132,0.017897,-0.0064392,-0.11562,-1.2101,0.020857
806,-0.088656,-0.10641,0.030723,-0.0015062,-0.16627,-1.6863,0.041904
807,-0.1097,-0.11431,0.034998,0.00046697,-0.19948,-1.9859,0.046837
808,-0.10806,-0.10214,0.033025,-0.0031506,-0.22678,-2.1089,0.042891
809,-0.08471,-0.076159,0.025132,-0.012359,-0.2521,-2.0668,0.037629
810,-0.053138,-0.04689,0.011977,-0.027816,-0.2771,-1.879,0.03434
811,-0.027816,-0.027487,-0.010715,-0.047219,-0.30604,-1.563,0.035656
812,-0.017621,-0.019594,-0.04097,-0.06728,-0.34057,-1.1111,0.0373
813,-0.021238,-0.018278,-0.07287,-0.082736,-0.37444,-0.49645,0.041247
814,-0.031104,-0.012688,-0.1005,-0.0903,-0.39121,0.28888,0.046508
815,-0.038668,0.0054,-0.1199,-0.088985,-0.37872,1.1584,0.049468
816,-0.044259,0.035656,-0.12944,-0.08175,-0.33498,1.9329,0.041904
817,-0.048534,0.074462,-0.12187,-0.067937,-0.25934,2.4219,0.0047422
818,-0.04689,0.11853,-0.088985,-0.049192,-0.16068,2.5265,-0.057414
819,-0.035708,0.15372,-0.033078,-0.023869,-0.05544,2.2956,-0.10313
820,-0.016305,0.16293,0.027105,0.0050711,0.039602,1.9095,-0.099509
821,0.0047422,0.13892,0.074462,0.033683,0.12609,1.5866,-0.047877
822,0.020528,0.084328,0.098798,0.056374,0.21522,1.4554,0.021514
823,0.027105,0.010004,0.10242,0.073147,0.31059,1.4807,0.078409
824,0.026776,-0.066293,0.088603,0.085644,0.40004,1.5169,0.1057
825,0.027763,-0.12779,0.0692,0.094523,0.46581,1.4297,0.1057
826,0.027105,-0.16364,0.050455,0.10209,0.49114,1.1696,0.090905
827,0.023488,-0.16726,0.030723,0.10768,0.46877,0.77232,0.074133
828,0.012635,-0.14193,0.012635,0.10801,0.40366,0.36222,0.065912
829,-0.0008485,-0.094576,0.0040845,0.10307,0.31717,0.10603,0.066898
830,-0.011043,-0.032749,0.011648,0.097812,0.23857,0.1057,0.074133
831,-0.007097,0.035656,0.034011,0.099456,0.18562,0.32769,0.080382
832,0.016253,0.10077,0.06361,0.11261,0.16095,0.62071,0.081039
833,0.059992,0.15438,0.094194,0.13103,0.15142,0.81343,0.077093
834,0.1159,0.18825,0.11327,0.14517,0.13859,0.80751,0.068543
835,0.17016,0.207,0.11327,0.14681,0.12346,0.60328,0.044864
836,0.20831,0.21588,0.096825,0.13497,0.10932,0.27672,-0.0031506
837,0.22541,0.21883,0.071173,0.11754,0.096825,-0.077475,-0.056427
838,0.22804,0.21555,0.044864,0.096825,0.082026,-0.38102,-0.073857
839,0.22147,0.20404,0.023817,0.080382,0.063281,-0.60136,-0.047548
840,0.20568,0.18693,0.0086887,0.067885,0.04026,-0.75001,0.0054
841,0.18069,0.16753,0.0014536,0.057361,0.01132,-0.87202,0.056703
842,0.14846,0.14385,0.0030979,0.051441,-0.026829,-0.99238,0.089261
843,0.11261,0.11031,0.012635,0.054072,-0.066951,-1.1022,0.098141
844,0.078409,0.074133,0.026776,0.059005,-0.092931,-1.1687,0.090905
845,0.048153,0.035656,0.038616,0.061307,-0.096878,-1.1782,0.077422
846,0.025461,-0.0034794,0.044206,0.058676,-0.086354,-1.1483,0.065912
847,0.010004,-0.037353,0.043549,0.052428,-0.07583,-1.1229,0.05769
848,-0.0024928,-0.05544,0.037629,0.042891,-0.079777,-1.1354,0.053086
849,-0.013674,-0.047877,0.029078,0.029078,-0.10214,-1.1884,0.051441
850,-0.025185,-0.01795,0.012964,0.010333,-0.13963,-1.2653,0.051113
851,-0.030447,0.028092,-0.007097,-0.011372,-0.17811,-1.3374,0.05177
852,-0.025185,0.076106,-0.027158,-0.031433,-0.2008,-1.3752,0.051113
853,-0.011701,0.12182,-0.042944,-0.048863,-0.20113,-1.3584,0.042891
854,0.0037556,0.15931,-0.050179,-0.060045,-0.17548,-1.289,0.0096753
855,0.012306,0.17904,-0.04689,-0.064978,-0.13766,-1.1808,-0.044588
856,0.014279,0.1751,-0.033735,-0.062018,-0.099838,-1.0539,-0.086683
857,0.012964,0.14944,-0.014661,-0.05281,-0.06432,-0.9197,-0.085039
858,0.01132,0.11261,0.0073732,-0.038011,-0.026171,-0.77698,-0.047548
859,0.015595,0.072818,0.028421,-0.018936,0.02283,-0.64378,0.002769
860,0.032367,0.037958,0.045851,0.0057288,0.080711,-0.55828,0.04026
861,0.060979,0.012306,0.05473,0.026776,0.13695,-0.54282,0.053415
862,0.09255,-0.004466,0.054072,0.038616,0.17542,-0.57078,0.048482
863,0.10998,-0.01499,0.046837,0.039931,0.18825,-0.56814,0.03434
864,0.098469,-0.024527,0.037958,0.031381,0.17806,-0.46817,0.023488
865,0.058676,-0.038997,0.027434,0.021186,0.14879,-0.25539,0.017568
866,0.0077021,-0.057743,0.015924,0.014279,0.10998,0.02579,0.019212
867,-0.036695,-0.07024,0.0054,0.0090175,0.072489,0.3267,0.022172
868,-0.064649,-0.074186,-0.0015062,0.0014536,0.043877,0.63058,0.025132
869,-0.076159,-0.065307,-0.0064392,-0.0077547,0.025461,0.9157,0.025461
870,-0.07879,-0.045574,-0.0084125,-0.01499,0.015924,1.1351,0.024145
871,-0.075173,-0.018278,-0.010715,-0.018936,0.0060577,1.2446,0.020857
872,-0.064978,0.0093464,-0.013674,-0.016634,-0.010715,1.2436,0.018226
873,-0.048205,0.032367,-0.017621,-0.010057,-0.042615,1.1814,0.015595
874,-0.03242,0.049468,-0.018278,-0.004466,-0.09326,1.1239,0.012964
875,-0.020252,0.062952,-0.015648,-0.0067681,-0.15213,1.138,0.0096753
876,-0.0054526,0.074791,-0.0047949,-0.01795,-0.20738,1.2479,0.0073732
877,0.013293,0.083342,0.010991,-0.034393,-0.23763,1.383,0.0050711
878,0.036314,0.083013,0.024803,-0.044588,-0.21889,1.4278,0.0017824
879,0.062294,0.07216,0.027434,-0.038997,-0.13897,1.3176,-0.00051963
880,0.083013,0.046837,0.017897,-0.020581,-0.012688,1.0926,0.00046697
881,0.10143,0.012964,0.0014536,0.0077021,0.12642,0.86407,0.002769
882,0.11689,-0.021896,-0.013674,0.035656,0.23626,0.70194,0.0060577
883,0.12313,-0.04985,-0.027487,0.053743,0.28559,0.56217,0.0080309
884,0.11853,-0.065635,-0.039326,0.056374,0.26685,0.3757,0.0083598
885,0.10603,-0.069582,-0.04985,0.043549,0.19581,0.14517,0.0086887
886,0.08959,-0.064978,-0.05544,0.020857,0.1034,-0.055769,0.011648
887,0.07512,-0.060373,-0.056756,-0.0061104,0.020199,-0.12746,0.01691
888,0.06361,-0.060373,-0.056427,-0.026171,-0.03242,-0.033078,0.022501
889,0.059334,-0.064978,-0.057414,-0.029789,-0.047219,0.15471,0.024145
890,0.059334,-0.069253,-0.058071,-0.022225,-0.026171,0.30007,0.021514
891,0.057032,-0.065635,-0.054125,-0.014003,0.016581,0.3073,0.014937
892,0.043877,-0.048205,-0.044588,-0.012688,0.062952,0.17575,0.0093464
893,0.018555,-0.015648,-0.03242,-0.018936,0.10176,-0.018607,0.0073732
894,-0.014003,0.018555,-0.02354,-0.033735,0.12642,-0.19192,0.0086887
895,-0.051494,0.035327,-0.022883,-0.053796,0.12774,-0.29157,0.014608
896,-0.0903,0.026447,-0.027816,-0.077803,0.10505,-0.30439,0.019212
897,-0.12352,-0.0008485,-0.033406,-0.10247,0.061636,-0.24191,0.023488
898,-0.15048,-0.028802,-0.036695,-0.11957,0.011977,-0.14687,0.026119
899,-0.16726,-0.047548,-0.033078,-0.12154,-0.017621,-0.079448,0.027105
900,-0.17186,-0.05281,-0.021238,-0.099509,-0.00051963,-0.082079,0.026447
901,-0.15903,-0.046232,-0.007097,-0.052152,0.077422,-0.13536,0.029407
902,-0.13667,-0.034064,0.0037556,0.018555,0.20108,-0.19685,0.033354
903,-0.11135,-0.023869,0.013293,0.096496,0.32999,-0.24487,0.037958
904,-0.088985,-0.016305,0.023817,0.16589,0.42734,-0.29354,0.039931
905,-0.068924,-0.010386,0.033354,0.21653,0.47568,-0.35635,0.039931
906,-0.047548,-0.0061104,0.040589,0.24317,0.47535,-0.43397,0.038944
907,-0.023869,-0.0024928,0.04026,0.2458,0.43063,-0.52638,0.036642
908,-0.0024928,-0.00019077,0.034998,0.22804,0.34709,-0.6349,0.034011
909,0.014279,-0.0015062,0.030065,0.19943,0.23002,-0.7602,0.030723
910,0.021186,-0.0087413,0.027763,0.1695,0.097483,-0.90951,0.02875
911,0.020528,-0.018278,0.030065,0.1432,-0.031762,-1.0762,0.027763
912,0.017568,-0.027158,0.037958,0.12017,-0.14391,-1.2374,0.027763
913,0.015595,-0.027816,0.047166,0.099127,-0.23106,-1.3578,0.029078
914,0.018555,-0.016963,0.056046,0.077751,-0.29223,-1.4068,0.031381
915,0.027105,0.011648,0.061965,0.055059,-0.32741,-1.3666,0.035327
916,0.032696,0.052757,0.068214,0.033354,-0.33827,-1.241,0.038616
917,0.029736,0.08959,0.074791,0.01691,-0.33235,-1.0476,0.039273
918,0.017568,0.10965,0.072489,0.0070443,-0.31886,-0.79638,0.036971
919,-0.0047949,0.1057,0.059663,0.0014536,-0.29584,-0.46356,0.034669
920,-0.033078,0.081039,0.042562,-0.0015062,-0.25769,-0.015319,0.032696
921,-0.061031,0.047166,0.033683,-0.0018351,-0.2031,0.5158,0.031381
922,-0.086683,0.023817,0.036642,-0.002164,-0.14719,1.0292,0.029736
923,-0.1051,0.022501,0.046837,-0.0034794,-0.11233,1.4284,0.027105
924,-0.11102,0.039602,0.059663,-0.0064392,-0.11168,1.6718,0.02283
925,-0.1051,0.053086,0.065583,-0.015648,-0.14259,1.7816,0.017239
926,-0.091287,0.045193,0.05769,-0.035051,-0.18797,1.7964,0.012306
927,-0.074515,0.0086887,0.035985,-0.056427,-0.2327,1.7172,0.0077021
928,-0.057085,-0.042615,0.0037556,-0.070568,-0.27315,1.5215,0.0034268
929,-0.036695,-0.0903,-0.031433,-0.070568,-0.30143,1.2186,0.0011247
930,-0.011701,-0.11661,-0.059716,-0.059716,-0.30998,0.86605,0.0011247
931,0.010662,-0.11595,-0.074515,-0.044588,-0.29979,0.52731,0.0021113
932,0.023488,-0.096549,-0.076817,-0.02946,-0.28006,0.23495,0.0044134
933,0.027763,-0.071226,-0.06728,-0.020581,-0.26032,-0.004466,0.0054
934,0.027105,-0.044259,-0.047548,-0.019594,-0.24881,-0.20606,0.0050711
935,0.027105,-0.016305,-0.022554,-0.0265,-0.24651,-0.3774,0.0017824
936,0.026447,0.0083598,0.0011247,-0.034722,-0.24388,-0.5152,-0.002164
937,0.027434,0.023817,0.01691,-0.040313,-0.23171,-0.62504,-0.0054526
938,0.036314,0.024474,0.025461,-0.037024,-0.21034,-0.7431,-0.0084125
939,0.053086,0.0054,0.028092,-0.026171,-0.18929,-0.89109,-0.011372
940,0.068871,-0.031433,0.025132,-0.01203,-0.17877,-1.0562,-0.014661
941,0.066569,-0.074844,0.022172,0.0017824,-0.18008,-1.1808,-0.017292
942,0.040918,-0.11168,0.020857,0.0096753,-0.18173,-1.1996,-0.018936
943,-0.0011774,-0.13404,0.020857,0.010662,-0.16989,-1.0917,-0.020252
944,-0.038668,-0.13766,0.019212,0.0017824,-0.1393,-0.9026,-0.020581
945,-0.05281,-0.11891,0.017239,-0.011372,-0.097536,-0.71449,-0.0265
946,-0.037024,-0.076159,0.020528,-0.025842,-0.054454,-0.57966,-0.05281
947,-0.00051963,-0.01795,0.027105,-0.034064,-0.01795,-0.4981,-0.10411
948,0.039931,0.03434,0.031709,-0.033406,0.0037556,-0.43923,-0.15081
949,0.069529,0.065254,0.032038,-0.022554,0.0063866,-0.36556,-0.15673
950,0.082684,0.074133,0.029407,-0.0061104,-0.0031506,-0.21428,-0.11694
951,0.085315,0.064267,0.024474,0.010333,-0.011372,0.094852,-0.05281
952,0.082026,0.04322,0.019541,0.023488,-0.0011774,0.59605,0.0054
953,0.076435,0.018555,0.016253,0.034011,0.034011,1.215,0.038616
954,0.070187,-0.0067681,0.016581,0.041247,0.081368,1.7671,0.042562
955,0.065912,-0.02946,0.01691,0.047495,0.11886,2.0266,0.025132
956,0.064596,-0.048534,0.015924,0.053743,0.12708,1.8707,0.002769
957,0.060979,-0.062018,0.013622,0.063938,0.098798,1.3564,-0.012688
958,0.055059,-0.065307,0.0083598,0.079395,0.041904,0.67925,-0.014003
959,0.049139,-0.051823,0.002769,0.093865,-0.025842,0.050784,-0.0051238
960,0.048153,-0.013674,0.00079584,0.10011,-0.085696,-0.38332,0.010004
961,0.059005,0.047495,0.0070443,0.09551,-0.1199,-0.57505,0.023817
962,0.075778,0.11952,0.020528,0.085315,-0.12286,-0.56979,0.032696
963,0.091234,0.18792,0.035656,0.075449,-0.10148,-0.49579,0.034011
964,0.097483,0.24482,0.047495,0.071502,-0.064649,-0.52177,0.017568
965,0.096167,0.29645,0.052099,0.070845,-0.022883,-0.74935,-0.030118
966,0.091892,0.3369,0.048153,0.067556,0.013293,-1.1335,-0.091616
967,0.085644,0.34676,0.036971,0.056703,0.037958,-1.4604,-0.11891
968,0.075449,0.32309,0.020528,0.041247,0.054401,-1.4137,-0.089643
969,0.061965,0.2777,0.0034268,0.026776,0.076106,-0.75231,-0.021238
970,0.049797,0.22706,-0.0064392,0.01691,0.12642,0.47864,0.050455
971,0.042891,0.18332,-0.0077547,0.015924,0.2162,1.8579,0.094852
972,0.045851,0.14912,-0.0015062,0.021186,0.32736,2.8725,0.10274
973,0.059992,0.1182,0.011977,0.032696,0.42536,3.1967,0.085315
974,0.080711,0.084657,0.032367,0.044864,0.47634,2.8021,0.059663
975,0.10373,0.047166,0.056046,0.051441,0.46483,1.9329,0.042562
976,0.12248,0.0093464,0.072818,0.046508,0.40497,0.94728,0.039602
977,0.1307,-0.019923,0.07512,0.03434,0.32276,0.14451,0.048153
978,0.12281,-0.027816,0.061307,0.017568,0.23594,-0.3386,0.061965
979,0.10439,-0.0080836,0.038287,0.0063866,0.15931,-0.52868,0.076435
980,0.087617,0.035656,0.017568,0.0073732,0.091563,-0.52638,0.085972
981,0.086959,0.090577,0.013622,0.021186,0.031381,-0.43791,0.091234
982,0.10636,0.13793,0.030065,0.045193,-0.028473,-0.33366,0.087946
983,0.12774,0.16983,0.055717,0.071173,-0.087012,-0.23763,0.059992
984,0.13169,0.18266,0.07808,0.08663,-0.13174,-0.14654,0.002769
985,0.11327,0.16622,0.085644,0.084986,-0.14193,-0.049521,-0.047877
986,0.084657,0.12478,0.077093,0.069858,-0.0903,0.059334,-0.055112
987,0.056046,0.073147,0.056046,0.05177,0.051441,0.18792,-0.015648
988,0.034669,0.029407,0.035327,0.040918,0.27211,0.34183,0.043549
989,0.020199,0.0024402,0.023159,0.041575,0.51251,0.48456,0.094523
990,0.0044134,-0.010386,0.019541,0.050126,0.68879,0.54573,0.12116
991,-0.012359,-0.016634,0.022501,0.05769,0.73812,0.46055,0.12313
992,-0.031104,-0.025514,0.02875,0.056703,0.64932,0.21193,0.11031
993,-0.051165,-0.038339,0.035656,0.042562,0.46417,-0.15739,0.095181
994,-0.066951,-0.051823,0.039931,0.019541,0.25106,-0.56321,0.086959
995,-0.079448,-0.061031,0.039273,-0.0057815,0.074791,-0.90688,0.088275
996,-0.088656,-0.060702,0.033354,-0.024856,-0.034722,-1.1151,0.095181
997,-0.096878,-0.048205,0.023817,-0.027816,-0.07879,-1.1568,0.10242
998,-0.10247,-0.027158,0.010991,-0.012359,-0.071884,-1.047,0.10669
999,-0.10181,-0.00051963,-0.0008485,0.019212,-0.039984,-0.82104,0.1057
1000,-0.093589,0.024474,-0.0064392,0.058348,-0.0061104,-0.52046,0.10044
1001,-0.079448,0.048482,-0.002164,0.09255,0.010662,-0.19685,0.078409
1002,-0.060045,0.07808,0.0093464,0.11261,0.0017824,0.082355,0.027763
1003,-0.037682,0.11261,0.023488,0.11426,-0.028802,0.26817,-0.036695
1004,-0.015976,0.13629,0.031709,0.10406,-0.076488,0.35663,-0.071226
1005,0.002769,0.14155,0.031709,0.08959,-0.12582,0.36452,-0.056427
1006,0.021514,0.1307,0.024474,0.071502,-0.15772,0.29513,-0.0074258
1007,0.042233,0.11064,0.011977,0.048153,-0.17252,0.13728,0.04618
1008,0.064596,0.085315,-0.0051238,0.022501,-0.17844,-0.10773,0.082026
1009,0.083342,0.06361,-0.024527,-0.0034794,-0.18699,-0.42147,0.095181
1010,0.10143,0.047824,-0.040313,-0.025842,-0.20146,-0.76053,0.090577
1011,0.11327,0.038616,-0.048863,-0.039984,-0.2179,-1.0621,0.079724
1012,0.1136,0.036642,-0.04985,-0.045574,-0.235,-1.2703,0.069858
1013,0.099127,0.040918,-0.047548,-0.048534,-0.26131,-1.368,0.063281
1014,0.068543,0.045522,-0.043601,-0.050179,-0.30505,-1.362,0.061636
1015,0.031052,0.045522,-0.042615,-0.059716,-0.36655,-1.2696,0.06065
1016,-0.0008485,0.037958,-0.046561,-0.074186,-0.43528,-1.1289,0.058348
1017,-0.02354,0.020199,-0.05544,-0.091945,-0.48264,-0.99501,0.053415
1018,-0.044917,-0.0028217,-0.066622,-0.10477,-0.47606,-0.89866,0.047166
1019,-0.07583,-0.029789,-0.074515,-0.1074,-0.40338,-0.80888,0.040918
1020,-0.11825,-0.061689,-0.074844,-0.10115,-0.28071,-0.64247,0.035656
1021,-0.15575,-0.090958,-0.066951,-0.085696,-0.14654,-0.35668,0.031381
1022,-0.16627,-0.10773,-0.048534,-0.061689,-0.040641,-0.033406,0.024474
1023,-0.13832,-0.11003,-0.02354,-0.028144,0.016253,0.19022,0.016253
1024,-0.082736,-0.10148,0.0017824,0.010004,0.03434,0.30401,0.010991
1025,-0.022883,-0.085696,0.023488,0.047824,0.053086,0.44411,0.010991
1026,0.019212,-0.069253,0.04026,0.084328,0.11097,0.75653,0.013622
1027,0.027763,-0.057743,0.055388,0.11557,0.22081,1.2715,0.017239
1028,0.0050711,-0.058071,0.068214,0.13563,0.35827,1.8915,0.017568
1029,-0.031762,-0.073857,0.071173,0.13991,0.48686,2.4298,0.013951
1030,-0.062676,-0.10346,0.058348,0.13037,0.58388,2.6758,0.0047422
1031,-0.075501,-0.13404,0.033683,0.11031,0.65491,2.5051,-0.004466
1032,-0.070568,-0.15147,0.0047422,0.089919,0.72036,1.9868,-0.011701
1033,-0.051165,-0.14621,-0.01795,0.073804,0.79929,1.3515,-0.012359
1034,-0.027816,-0.11957,-0.02946,0.058019,0.87723,0.82066,-0.011701
1035,-0.010715,-0.085367,-0.030775,0.041904,0.91899,0.49344,-0.011043
1036,-0.007097,-0.052152,-0.0265,0.02283,0.89992,0.35499,-0.011701
1037,-0.016305,-0.024198,-0.021567,0.0017824,0.81869,0.30862,-0.014661
1038,-0.039984,-0.0008485,-0.017621,-0.01795,0.6855,0.23429,-0.033735
1039,-0.071884,0.021843,-0.013345,-0.031104,0.5112,0.05769,-0.078461
1040,-0.10181,0.042562,-0.0064392,-0.032749,0.30335,-0.20935,-0.13009
1041,-0.11957,0.055717,0.0073732,-0.021896,0.072489,-0.49711,-0.14917
1042,-0.11924,0.05769,0.025132,-0.002164,-0.15443,-0.71811,-0.12089
1043,-0.10181,0.053086,0.040589,0.014608,-0.35043,-0.81184,-0.06432
1044,-0.069253,0.045193,0.04881,0.021186,-0.49645,-0.78618,-0.0054526
1045,-0.031762,0.035656,0.047166,0.017897,-0.58919,-0.70134,0.034998
1046,-0.00019077,0.023817,0.037629,0.0083598,-0.63852,-0.63754,0.051113
1047,0.014937,0.01132,0.021514,-0.0057815,-0.66286,-0.65431,0.04881
1048,0.015266,-0.00051963,0.0054,-0.020252,-0.68391,-0.76086,0.039273
1049,0.0073732,-0.00019077,-0.0064392,-0.031762,-0.70726,-0.92036,0.029078
1050,0.0034268,0.018555,-0.011701,-0.037682,-0.73061,-1.072,0.025461
1051,0.013951,0.050455,-0.014661,-0.03538,-0.74146,-1.1795,0.025132
1052,0.037958,0.082026,-0.016963,-0.031104,-0.73718,-1.2371,0.027105
1053,0.070516,0.10801,-0.019923,-0.025514,-0.71712,-1.2387,0.029736
1054,0.099785,0.12873,-0.018278,-0.021567,-0.68522,-1.1598,0.033354
1055,0.1159,0.14287,-0.013017,-0.022554,-0.64313,-0.97824,0.036971
1056,0.11524,0.15142,-0.0028217,-0.029131,-0.58426,-0.72074,0.032696
1057,0.10176,0.15569,0.015595,-0.035051,-0.49711,-0.44581,0.0011247
1058,0.083342,0.15109,0.04026,-0.032749,-0.38595,-0.19784,-0.053467
1059,0.065254,0.11985,0.06361,-0.019594,-0.26789,0.023488,-0.093918
1060,0.052757,0.061307,0.079066,0.0001381,-0.16068,0.25008,-0.087998
1061,0.045522,-0.011701,0.086301,0.021186,-0.07024,0.50594,-0.041628
1062,0.034998,-0.082408,0.083013,0.034669,-0.00051963,0.77199,0.01987
1063,0.016581,-0.13667,0.068871,0.038616,0.05473,0.99957,0.070845
1064,-0.011372,-0.16923,0.04881,0.036314,0.1011,1.1436,0.097812
1065,-0.040641,-0.17613,0.031709,0.035985,0.14287,1.1722,0.10044
1066,-0.059716,-0.16101,0.017568,0.038616,0.1751,1.0505,0.087946
1067,-0.059058,-0.13305,0.0086887,0.042891,0.19253,0.76179,0.071502
1068,-0.041299,-0.098851,0.0030979,0.04618,0.18759,0.354,0.058019
1069,-0.015319,-0.063991,-0.0024928,0.04881,0.15898,-0.094247,0.052428
1070,0.0047422,-0.031762,-0.0084125,0.049468,0.10373,-0.52868,0.053086
1071,0.010662,-0.004466,-0.016634,0.041247,0.030394,-0.92234,0.056374
1072,-0.0024928,0.01691,-0.022225,0.024803,-0.041628,-1.2509,0.059663
1073,-0.028473,0.033683,-0.025842,0.0017824,-0.095562,-1.5015,0.061636
1074,-0.048863,0.044535,-0.024856,-0.020581,-0.13108,-1.6656,0.061965
1075,-0.052152,0.055717,-0.020252,-0.041628,-0.1564,-1.7369,0.045522
1076,-0.043272,0.070516,-0.01203,-0.057085,-0.17745,-1.7386,0.0001381
1077,-0.030118,0.080053,-0.0074258,-0.065635,-0.19488,-1.7047,-0.052152
1078,-0.021567,0.073147,-0.015319,-0.068266,-0.19784,-1.6149,-0.069582
1079,-0.023211,0.05177,-0.034064,-0.068924,-0.14719,-1.3203,-0.040313
1080,-0.028473,0.029078,-0.053467,-0.066951,-0.004466,-0.57834,0.020528
1081,-0.024856,0.017568,-0.061031,-0.055769,0.24646,0.74897,0.082684
1082,-0.0028217,0.022172,-0.05544,-0.030118,0.56875,2.4344,0.1205
1083,0.030394,0.036314,-0.038011,0.0086887,0.87525,4.0087,0.12445
1084,0.062952,0.050126,-0.01499,0.050784,1.0768,4.9594,0.098798
1085,0.083013,0.052428,0.0073732,0.085315,1.137,4.9598,0.061636
1086,0.086301,0.040589,0.01987,0.10406,1.0841,4.3573,0.029407
1087,0.077093,0.016581,0.023817,0.11097,0.97918,3.1717,0.014279
1088,0.061965,-0.0097279,0.024145,0.11393,0.8667,1.9585,0.016581
1089,0.048482,-0.031433,0.02283,0.11524,0.75719,1.0084,0.02875
1090,0.039602,-0.038339,0.025461,0.1113,0.63847,0.40103,0.042562
1091,0.039273,-0.030775,0.03434,0.1034,0.4987,0.052099,0.051441
1092,0.046508,-0.0084125,0.047495,0.096496,0.33953,-0.17679,0.053415
1093,0.058676,0.026447,0.06065,0.094852,0.18167,-0.38135,0.042562
1094,0.071173,0.07512,0.075778,0.10143,0.052099,-0.57867,0.0034268
1095,0.080711,0.13037,0.088603,0.10965,-0.031104,-0.74475,-0.056427
1096,0.086959,0.1695,0.094194,0.11853,-0.079119,-0.87366,-0.10017
1097,0.09255,0.17871,0.090248,0.12741,-0.1097,-0.99797,-0.10017
1098,0.097154,0.16391,0.07512,0.13563,-0.13963,-1.168,-0.06136
1099,0.10044,0.13695,0.051113,0.14188,-0.17087,-1.3989,-0.0087413
1100,0.10307,0.10965,0.021514,0.14517,-0.19422,-1.6554,0.032038
1101,0.10406,0.085315,-0.0080836,0.14813,-0.20047,-1.8652,0.051113
1102,0.10505,0.065912,-0.032749,0.15109,-0.1883,-1.9448,0.050784
1103,0.10406,0.055059,-0.049521,0.14879,-0.16265,-1.8294,0.04026
1104,0.099785,0.052099,-0.058729,0.14188,-0.11924,-1.5067,0.029736
1105,0.089261,0.053415,-0.061031,0.13037,-0.052481,-1.021,0.02283
1106,0.068871,0.058019,-0.06136,0.11031,0.02283,-0.45732,0.020528
1107,0.038616,0.062952,-0.06432,0.073476,0.063281,0.097812,0.021186
1108,-0.0038083,0.06065,-0.070897,0.0080309,0.020528,0.53652,0.018884
1109,-0.056098,0.045851,-0.081421,-0.085039,-0.12812,0.77824,0.014937
1110,-0.10674,0.023159,-0.093918,-0.19291,-0.36293,0.83119,0.010662
1111,-0.14325,0.0060577,-0.10378,-0.29321,-0.63063,0.72365,0.0057288
1112,-0.15838,0.0083598,-0.10313,-0.35997,-0.86774,0.46088,-0.013345
1113,-0.14983,0.031709,-0.087012,-0.37444,-1.023,0.059334,-0.059058
1114,-0.12056,0.058348,-0.053138,-0.33169,-1.069,-0.41621,-0.10674
1115,-0.082079,0.065583,-0.014661,-0.25145,-1.0101,-0.81447,-0.12023
1116,-0.047877,0.042891,0.0086887,-0.16528,-0.88353,-0.98844,-0.091945
1117,-0.027487,0.00046697,0.010333,-0.10017,-0.73061,-0.86972,-0.038997
1118,-0.023211,-0.038997,-0.0064392,-0.062347,-0.57834,-0.48001,0.013951
1119,-0.029789,-0.049192,-0.025185,-0.04393,-0.43989,0.10965,0.050126
1120,-0.037024,-0.022883,-0.033078,-0.027816,-0.31393,0.78679,0.062623
1121,-0.034393,0.026447,-0.023869,0.00046697,-0.18304,1.4202,0.058676
1122,-0.01499,0.074133,0.002769,0.047495,-0.029131,1.9076,0.04618
1123,0.015266,0.1034,0.036971,0.10735,0.1432,2.149,0.032696
1124,0.049468,0.10472,0.069529,0.16391,0.31026,2.0339,0.021843
1125,0.075778,0.077751,0.088275,0.20371,0.44542,1.5083,0.015595
1126,0.088603,0.037958,0.090248,0.22574,0.54343,0.66412,0.014608
1127,0.094523,0.002769,0.08367,0.23857,0.61249,-0.25835,0.01987
1128,0.097812,-0.015976,0.078409,0.25205,0.66544,-0.97035,0.029078
1129,0.097483,-0.016634,0.080711,0.26586,0.71115,-1.2959,0.039602
1130,0.093865,-0.0034794,0.087288,0.27408,0.74798,-1.2341,0.040589
1131,0.086301,0.022172,0.095181,0.26849,0.75686,-0.94733,0.010662
1132,0.081039,0.050126,0.10143,0.2435,0.71575,-0.65036,-0.042615
1133,0.086301,0.061965,0.10439,0.20075,0.61874,-0.47968,-0.081092
1134,0.10011,0.049139,0.10209,0.14681,0.48949,-0.43134,-0.076817
1135,0.1113,0.017897,0.097812,0.094852,0.36091,-0.4047,-0.034064
1136,0.11689,-0.013345,0.092879,0.054072,0.25041,-0.30801,0.022172
1137,0.1113,-0.030775,0.083013,0.02283,0.15734,-0.14423,0.065254
1138,0.095181,-0.030447,0.069858,-0.0064392,0.076106,0.021186,0.085972
1139,0.073804,-0.015976,0.056374,-0.034064,0.0096753,0.13629,0.086959
1140,0.053743,-0.0008485,0.042562,-0.058729,-0.034393,0.19549,0.078409
1141,0.040918,-0.00051963,0.02875,-0.073199,-0.054783,0.24547,0.071173
1142,0.038287,-0.018278,0.012964,-0.07287,-0.055112,0.36979,0.071173
1143,0.036971,-0.043272,-0.0038083,-0.0584,-0.042286,0.5944,0.075778
1144,0.025461,-0.057414,-0.014661,-0.038997,-0.025185,0.8108,0.078409
1145,-0.0064392,-0.04689,-0.014661,-0.026829,-0.016305,0.84237,0.074791
1146,-0.054783,-0.015648,-0.0051238,-0.027816,-0.019923,0.59276,0.065583
1147,-0.098851,0.023817,0.0057288,-0.033078,-0.039984,0.12215,0.05769
1148,-0.11529,0.056046,0.016253,-0.03242,-0.066622,-0.37543,0.053086
1149,-0.096549,0.077093,0.025461,-0.021896,-0.084381,-0.67371,0.039273
1150,-0.049521,0.090577,0.03434,-0.0041372,-0.079777,-0.62405,0.0047422
1151,0.012635,0.096496,0.040918,0.014608,-0.055769,-0.23073,-0.030118
1152,0.070845,0.093536,0.043549,0.026447,-0.028802,0.34611,-0.038997
1153,0.10669,0.081039,0.042233,0.024145,-0.023211,0.89729,-0.015319
1154,0.11524,0.065254,0.038287,0.010662,-0.04985,1.2794,0.027105
1155,0.10307,0.050126,0.02875,-0.007097,-0.10674,1.4347,0.066898
1156,0.082355,0.037629,0.011977,-0.026829,-0.17679,1.3492,0.088932
1157,0.060979,0.029078,-0.0087413,-0.046561,-0.24553,1.0479,0.09255
1158,0.04322,0.019541,-0.024856,-0.066951,-0.30505,0.60821,0.083999
1159,0.026776,0.0096753,-0.032091,-0.085696,-0.35241,0.13136,0.072818
1160,0.0086887,0.002769,-0.032091,-0.09622,-0.38529,-0.29058,0.063938
1161,-0.01203,0.0001381,-0.029789,-0.098193,-0.40338,-0.60761,0.060321
1162,-0.033078,-0.0018351,-0.028802,-0.097864,-0.40996,-0.82137,0.059663
1163,-0.051494,-0.012359,-0.030118,-0.098193,-0.4116,-0.95489,0.059992
1164,-0.066951,-0.033406,-0.034064,-0.09622,-0.4047,-1.0368,0.057361
1165,-0.079777,-0.061031,-0.038668,-0.091616,-0.38694,-1.0891,0.053086
1166,-0.094576,-0.095233,-0.039326,-0.082408,-0.34912,-1.1049,0.048153
1167,-0.1097,-0.13009,-0.03538,-0.071555,-0.28367,-1.0674,0.034998
1168,-0.11957,-0.15542,-0.025842,-0.057743,-0.19455,-1.0124,-0.002164
1169,-0.11628,-0.16758,-0.011372,-0.041299,-0.095891,-1.0253,-0.053796
1170,-0.091287,-0.16923,0.0037556,-0.016963,-0.00051963,-1.1203,-0.083394
1171,-0.04689,-0.16002,0.014937,0.018555,0.099785,-1.1848,-0.070897
1172,0.013293,-0.12944,0.024145,0.06065,0.22114,-1.0914,-0.024856
1173,0.081697,-0.070897,0.035985,0.10439,0.38064,-0.77434,0.028092
1174,0.14846,0.011977,0.054072,0.1455,0.57533,-0.21198,0.067556
1175,0.20206,0.10998,0.073804,0.17773,0.77659,0.51975,0.081368
1176,0.23363,0.20996,0.087288,0.19483,0.93346,1.2091,0.071173
1177,0.23462,0.29645,0.092221,0.19351,0.99233,1.604,0.047495
1178,0.20404,0.35203,0.093208,0.17641,0.92754,1.56,0.022501
1179,0.15142,0.3711,0.091892,0.14648,0.75259,1.1183,0.0054
1180,0.08959,0.35334,0.087617,0.10932,0.5112,0.47206,-0.00051963
1181,0.030065,0.30237,0.080053,0.07512,0.26192,-0.15476,0.00046697
1182,-0.016634,0.22508,0.0692,0.052099,0.051441,-0.60695,0.0054
1183,-0.04689,0.13563,0.061636,0.042562,-0.10214,-0.84308,0.010333
1184,-0.066951,0.04881,0.058676,0.036642,-0.20244,-0.91806,0.01132
1185,-0.077803,-0.025842,0.055059,0.026776,-0.2623,-0.91773,0.0070443
1186,-0.081092,-0.077146,0.044206,0.0096753,-0.28992,-0.88156,-0.015976
1187,-0.077803,-0.10017,0.023817,-0.0064392,-0.29223,-0.77533,-0.059716
1188,-0.069253,-0.10641,-0.0015062,-0.018936,-0.28137,-0.54677,-0.098193
1189,-0.055112,-0.10937,-0.026171,-0.027158,-0.26592,-0.18074,-0.10378
1190,-0.040313,-0.10905,-0.042615,-0.030775,-0.24026,0.27474,-0.072542
1191,-0.030775,-0.096549,-0.046232,-0.025842,-0.19685,0.7197,-0.025514
1192,-0.03242,-0.063662,-0.036366,-0.014661,-0.14193,1.0525,0.015595
1193,-0.042944,-0.013345,-0.021238,-0.0034794,-0.087669,1.2107,0.036642
1194,-0.053467,0.043877,-0.011701,0.0021113,-0.045903,1.19,0.037958
1195,-0.060702,0.089261,-0.011701,-0.0028217,-0.027158,1.0328,0.025461
1196,-0.070897,0.10899,-0.020252,-0.013017,-0.032749,0.82494,0.01132
1197,-0.084381,0.1034,-0.03242,-0.018936,-0.051823,0.63551,0.0014536
1198,-0.098522,0.079724,-0.044259,-0.01795,-0.060045,0.47765,0.0001381
1199,-0.10641,0.049797,-0.048205,-0.011043,-0.03242,0.31848,0.0037556
1200,-0.10181,0.020199,-0.042615,-0.00051963,0.034998,0.11952,0.0086887
1201,-0.086683,-0.0090702,-0.031762,0.0080309,0.11985,-0.14193,0.012306
1202,-0.07024,-0.037353,-0.021238,0.012306,0.18397,-0.44811,0.013293
1203,-0.059716,-0.063333,-0.017621,0.010333,0.20404,-0.73258,0.012964
1204,-0.056756,-0.074515,-0.019923,0.0024402,0.18365,-0.92924,0.002769
1205,-0.059058,-0.062676,-0.028144,-0.011701,0.14056,-1.0069,-0.0265
1206,-0.057743,-0.038011,-0.037353,-0.025842,0.093536,-0.9641,-0.065964
1207,-0.048205,-0.019923,-0.042944,-0.031762,0.048153,-0.8319,-0.083394
1208,-0.028802,-0.014003,-0.038997,-0.022554,0.0067154,-0.64905,-0.064978
1209,-0.0061104,-0.011372,-0.024856,-0.0038083,-0.037353,-0.43528,-0.021567
1210,0.012306,-0.0011774,-0.0034794,0.015266,-0.087341,-0.16956,0.02579
1211,0.019541,0.019541,0.015266,0.029078,-0.14062,0.18167,0.058348
1212,0.022172,0.038944,0.026119,0.0373,-0.1906,0.58388,0.070187
1213,0.032367,0.046837,0.027763,0.043877,-0.22941,0.91866,0.064925
1214,0.058348,0.041247,0.02283,0.049468,-0.25572,1.0726,0.053743
1215,0.094523,0.029407,0.018884,0.056046,-0.26197,1.0315,0.044206
1216,0.12971,0.017568,0.02283,0.065912,-0.2452,0.88216,0.040589
1217,0.15339,0.010991,0.03434,0.077751,-0.20836,0.73121,0.042233
1218,0.16095,0.0086887,0.047495,0.084657,-0.1666,0.61907,0.044864
1219,0.14944,0.00046697,0.050784,0.081697,-0.13601,0.52402,0.047495
1220,0.11853,-0.020909,0.040589,0.065254,-0.12549,0.40333,0.049139
1221,0.079066,-0.048863,0.020199,0.042233,-0.12615,0.22706,0.050784
1222,0.042562,-0.071884,-0.0011774,0.022501,-0.12483,-0.016963,0.050126
1223,0.014279,-0.081092,-0.013345,0.013622,-0.11464,-0.3284,0.033683
1224,-0.0097279,-0.079448,-0.015976,0.016253,-0.097207,-0.68621,-0.0038083
1225,-0.040313,-0.078132,-0.014003,0.021843,-0.083394,-1.0355,-0.037024
1226,-0.07879,-0.080106,-0.013345,0.02283,-0.088985,-1.312,-0.040313
1227,-0.11562,-0.080434,-0.014003,0.01132,-0.10937,-1.4752,-0.011372
1228,-0.13766,-0.066293,-0.01795,-0.012359,-0.12582,-1.5156,0.032367
1229,-0.13404,-0.037353,-0.019594,-0.037353,-0.11595,-1.4344,0.069858
1230,-0.10543,-0.0034794,-0.014661,-0.055112,-0.073528,-1.2509,0.091234
1231,-0.064978,0.026447,-0.0041372,-0.059716,-0.018607,-1.0144,0.094523
1232,-0.027487,0.042562,0.0083598,-0.053796,0.029736,-0.7829,0.08663
1233,0.0037556,0.035985,0.020199,-0.040313,0.06065,-0.6007,0.07512
1234,0.029407,0.0024402,0.030065,-0.022225,0.079066,-0.50303,0.066569
1235,0.047495,-0.048205,0.031052,-0.0028217,0.084986,-0.53098,0.062294
1236,0.061965,-0.10411,0.017239,0.0093464,0.07808,-0.69542,0.061965
1237,0.071831,-0.14654,-0.0074258,0.0086887,0.059663,-0.92497,0.061636
1238,0.072818,-0.1666,-0.038339,0.0001381,0.029736,-1.0345,0.065254
1239,0.066569,-0.16134,-0.065635,-0.0067681,-0.0028217,-0.79638,0.071173
1240,0.053743,-0.13075,-0.07879,-0.0077547,-0.024198,-0.094247,0.076435
1241,0.0373,-0.081092,-0.071884,-0.0011774,-0.020581,0.91636,0.066569
1242,0.020857,-0.027158,-0.04985,0.010662,0.0047422,1.8684,0.026776
1243,0.0096753,0.011977,-0.022883,0.024145,0.031709,2.4193,-0.028473
1244,0.0060577,0.022501,-0.0054526,0.04026,0.038287,2.4255,-0.065635
1245,0.011977,0.0083598,0.00046697,0.057361,0.016581,1.9901,-0.061689
1246,0.024145,-0.011372,0.0054,0.075449,-0.018607,1.3764,-0.027487
1247,0.036642,-0.017292,0.021186,0.09551,-0.047548,0.84335,0.016581
1248,0.046837,-0.0064392,0.042233,0.11754,-0.061031,0.52337,0.050784
1249,0.059005,0.013622,0.061307,0.13333,-0.064649,0.42898,0.067556
1250,0.074791,0.033683,0.067556,0.1307,-0.065307,0.52074,0.068214
1251,0.08959,0.048482,0.058348,0.10439,-0.065964,0.74502,0.06065
1252,0.097154,0.05473,0.037629,0.06361,-0.063991,1.0104,0.050455
1253,0.094852,0.058019,0.0096753,0.021186,-0.064978,1.1788,0.040918
1254,0.081697,0.064267,-0.016634,-0.011372,-0.076817,1.1173,0.032696
1255,0.056046,0.077422,-0.030447,-0.03242,-0.1005,0.76837,0.024145
1256,0.018226,0.097154,-0.025514,-0.039326,-0.12812,0.20206,0.017568
1257,-0.024527,0.11787,-0.0024928,-0.03538,-0.13864,-0.41128,0.013622
1258,-0.058729,0.13037,0.029407,-0.025185,-0.11529,-0.96805,0.011977
1259,-0.080763,0.13333,0.06065,-0.011701,-0.061031,-1.4995,0.0080309
1260,-0.091616,0.12511,0.08367,0.00046697,0.0044134,-2.0635,0.0017824
1261,-0.094905,0.11097,0.09255,0.0067154,0.044206,-2.6038,-0.0034794
1262,-0.089972,0.088275,0.086959,0.0037556,0.039602,-2.9314,-0.0054526
1263,-0.079777,0.056046,0.072489,-0.0028217,-0.0011774,-2.8459,-0.002164
1264,-0.069253,0.012306,0.059992,0.00079584,-0.048534,-2.294,0.0047422
1265,-0.060373,-0.038997,0.056046,0.022172,-0.07287,-1.4022,0.010991
1266,-0.045246,-0.07879,0.059992,0.05769,-0.052152,-0.35668,0.013951
1267,-0.011701,-0.092931,0.067227,0.10077,0.024474,0.69339,0.01132
1268,0.039931,-0.077475,0.073476,0.14287,0.1626,1.6652,0.0080309
1269,0.10538,-0.045246,0.080382,0.17674,0.35564,2.5179,0.0030979
1270,0.17477,-0.0090702,0.087946,0.19779,0.57303,3.1398,-0.0034794
1271,0.23166,0.026776,0.096496,0.20535,0.75522,3.3618,-0.012359
1272,0.26718,0.059663,0.10373,0.19581,0.83645,3.0494,-0.022554
1273,0.27836,0.082355,0.10209,0.17049,0.78646,2.2397,-0.029789
1274,0.27014,0.094523,0.08959,0.13399,0.63058,1.2058,-0.03242
1275,0.25074,0.098141,0.065912,0.093208,0.43293,0.33723,-0.028473
1276,0.23166,0.098469,0.036971,0.059663,0.26488,-0.085367,-0.020581
1277,0.22344,0.10011,0.010004,0.039931,0.17181,-0.037682,-0.013017
1278,0.23199,0.10866,-0.0064392,0.035985,0.17444,0.31552,-0.015648
1279,0.24843,0.1284,-0.007097,0.041904,0.25731,0.74469,-0.04097
1280,0.25896,0.15175,0.0040845,0.04618,0.37307,1.063,-0.076159
1281,0.25665,0.1603,0.018884,0.042562,0.46713,1.2229,-0.09326
1282,0.23725,0.14616,0.031709,0.030723,0.501,1.3018,-0.079777
1283,0.20338,0.11623,0.036971,0.016581,0.46187,1.3718,-0.046561
1284,0.15536,0.07808,0.034669,0.002769,0.36485,1.4139,-0.010057
1285,0.10176,0.034998,0.021514,-0.0087413,0.24284,1.3465,0.014937
1286,0.050455,-0.0084125,-0.0018351,-0.021896,0.13563,1.1081,0.02579
1287,0.0034268,-0.048205,-0.030447,-0.033735,0.066898,0.7049,0.02579
1288,-0.038011,-0.07287,-0.05281,-0.037353,0.0373,0.21489,0.020528
1289,-0.074844,-0.074186,-0.063004,-0.031433,0.029407,-0.24881,0.017239
1290,-0.11233,-0.047877,-0.063333,-0.01795,0.02283,-0.59347,0.018226
1291,-0.15081,-0.0080836,-0.062347,-0.0034794,0.0030979,-0.77763,0.020528
1292,-0.18765,0.035327,-0.060373,0.0021113,-0.03242,-0.8171,0.023488
1293,-0.21461,0.072489,-0.057743,-0.007097,-0.07879,-0.7773,0.026447
1294,-0.22974,0.10044,-0.058071,-0.025514,-0.13075,-0.72534,0.028092
1295,-0.23204,0.12478,-0.060373,-0.047548,-0.17975,-0.7089,0.030394
1296,-0.22546,0.15207,-0.060373,-0.065964,-0.22481,-0.74442,0.026776
1297,-0.22152,0.18529,-0.049521,-0.074844,-0.26098,-0.82663,0.0073732
1298,-0.22645,0.21259,-0.03242,-0.071884,-0.28236,-0.93385,-0.026829
1299,-0.23829,0.21522,-0.017621,-0.06432,-0.2919,-1.0378,-0.052152
1300,-0.25013,0.17641,-0.011372,-0.060045,-0.30209,-1.1052,-0.047219
1301,-0.25539,0.10373,-0.01795,-0.065635,-0.31557,-1.0989,-0.014332
1302,-0.25243,0.022172,-0.034064,-0.078132,-0.32445,-0.99797,0.029407
1303,-0.24947,-0.047877,-0.050507,-0.087998,-0.31557,-0.81216,0.065912
1304,-0.2475,-0.09918,-0.059387,-0.088656,-0.28861,-0.5961,0.084986
1305,-0.24454,-0.13536,-0.059058,-0.076817,-0.25013,-0.42509,0.086959
1306,-0.23369,-0.15739,-0.049521,-0.058729,-0.21691,-0.35701,0.078737
1307,-0.21099,-0.16956,-0.041628,-0.041957,-0.20244,-0.40437,0.066898
1308,-0.18173,-0.17416,-0.045246,-0.032749,-0.20705,-0.52506,0.058676
1309,-0.15903,-0.16857,-0.057743,-0.033735,-0.22546,-0.63392,0.055059
1310,-0.15509,-0.14917,-0.067609,-0.040313,-0.25243,-0.6405,0.055388
1311,-0.16989,-0.11825,-0.066951,-0.04985,-0.28269,-0.52013,0.05769
1312,-0.1883,-0.083394,-0.055769,-0.059716,-0.31097,-0.34419,0.058348
1313,-0.19258,-0.051165,-0.040641,-0.069253,-0.32906,-0.20277,0.058676
1314,-0.17383,-0.026171,-0.03242,-0.07583,-0.33333,-0.13864,0.056703
1315,-0.13568,-0.0080836,-0.031433,-0.076817,-0.32149,-0.13897,0.045851
1316,-0.091945,0.0047422,-0.03538,-0.066293,-0.29091,-0.17712,0.018555
1317,-0.053467,0.0077021,-0.037682,-0.041957,-0.24289,-0.22415,-0.011372
1318,-0.01795,-0.002164,-0.030447,-0.0087413,-0.18238,-0.25605,-0.021238
1319,0.016253,-0.01795,-0.0093991,0.02579,-0.11168,-0.2623,-0.0054526
1320,0.046508,-0.029789,0.019212,0.052757,-0.031762,-0.23204,0.026447
1321,0.070845,-0.02354,0.047824,0.066569,0.052099,-0.17252,0.056703
1322,0.087946,0.00079584,0.07216,0.065254,0.13169,-0.13404,0.074462
1323,0.098798,0.034998,0.08959,0.052757,0.19121,-0.19291,0.075449
1324,0.1057,0.06624,0.096496,0.038287,0.21686,-0.39089,0.06624
1325,0.10932,0.084328,0.093536,0.029078,0.20667,-0.66352,0.05473
1326,0.11031,0.078737,0.081697,0.024474,0.17016,-0.86774,0.046508
1327,0.10636,0.055059,0.065254,0.021186,0.11853,-0.92464,0.042562
1328,0.098141,0.025132,0.04618,0.019541,0.05769,-0.89438,0.039931
1329,0.087617,0.0024402,0.029407,0.022172,-0.0093991,-0.91444,0.035656
1330,0.07808,-0.0090702,0.017239,0.026776,-0.07879,-1.0927,0.032696
1331,0.071502,-0.016963,0.011977,0.030394,-0.14259,-1.417,0.030065
1332,0.065254,-0.026829,0.01132,0.031052,-0.19948,-1.7774,0.02875
1333,0.063281,-0.033078,0.017239,0.030723,-0.23895,-2.0217,0.026119
1334,0.073804,-0.020909,0.02579,0.038616,-0.24914,-2.0171,0.0090175
1335,0.10077,0.017897,0.034669,0.054072,-0.22974,-1.7175,-0.021567
1336,0.14352,0.077751,0.044535,0.072818,-0.20146,-1.1742,-0.044588
1337,0.19483,0.14122,0.055717,0.085972,-0.18501,-0.48132,-0.042286
1338,0.23429,0.19746,0.063938,0.084328,-0.18501,0.26586,-0.018278
1339,0.24514,0.23528,0.065583,0.068214,-0.19389,0.99069,0.013622
1340,0.22706,0.25271,0.065254,0.047166,-0.18962,1.6527,0.038287
1341,0.19516,0.25468,0.071831,0.032696,-0.15575,2.2272,0.047824
1342,0.16654,0.24284,0.080711,0.024145,-0.093918,2.6876,0.042891
1343,0.15306,0.21555,0.081697,0.017897,-0.024527,3.03,0.032038
1344,0.15767,0.17082,0.066898,0.0080309,0.039931,3.2858,0.021186
1345,0.17345,0.11195,0.045522,-0.0028217,0.097812,3.4519,0.013622
1346,0.18726,0.042891,0.026776,-0.0054526,0.16095,3.4273,0.0083598
1347,0.19055,-0.021567,0.015595,0.0057288,0.2412,3.1086,0.0024402
1348,0.18102,-0.063662,0.0080309,0.023817,0.33558,2.4837,-0.0015062
1349,0.16128,-0.071555,-0.00051963,0.038944,0.4303,1.6547,-0.0028217
1350,0.13662,-0.051823,-0.010386,0.042891,0.50331,0.79337,-0.0024928
1351,0.10669,-0.015976,-0.022554,0.032038,0.52994,0.064596,-0.002164
1352,0.07216,0.019541,-0.034064,0.012306,0.49969,-0.42607,-0.011043
1353,0.039602,0.042233,-0.041957,-0.004466,0.42273,-0.66911,-0.036037
1354,0.017239,0.048153,-0.041299,-0.0080836,0.32243,-0.72666,-0.064978
1355,0.0086887,0.033354,-0.034722,0.0070443,0.22706,-0.70101,-0.074515
1356,0.0083598,0.0067154,-0.025185,0.035656,0.15734,-0.68095,-0.059716
1357,0.0096753,-0.023211,-0.012688,0.070187,0.11919,-0.71219,-0.030447
1358,0.0093464,-0.04689,0.0060577,0.10209,0.1057,-0.74836,0.00046697
1359,0.0086887,-0.057414,0.029736,0.13004,0.10801,-0.65858,0.025132
1360,0.01691,-0.050507,0.056046,0.15767,0.12149,-0.32314,0.039931
1361,0.044864,-0.031433,0.082355,0.18628,0.13925,0.21851,0.044864
1362,0.086959,-0.0064392,0.10472,0.20996,0.15339,0.71838,0.038944
1363,0.1307,0.015266,0.1205,0.22245,0.14747,0.89038,0.026776
1364,0.16654,0.033683,0.12807,0.22278,0.11985,0.61841,0.015266
1365,0.19483,0.059334,0.12741,0.21489,0.088603,0.028092,0.010333
1366,0.21785,0.098469,0.12149,0.20272,0.077751,-0.60596,0.013293
1367,0.23035,0.14484,0.11294,0.18957,0.10143,-1.0559,0.020857
1368,0.22837,0.18365,0.10603,0.17444,0.15569,-1.2463,0.029736
1369,0.21292,0.20338,0.10011,0.15503,0.21292,-1.2348,0.035327
1370,0.18661,0.19976,0.088932,0.13103,0.24218,-1.121,0.032367
1371,0.15175,0.18463,0.068543,0.098469,0.2241,-0.95884,0.010991
1372,0.10899,0.16753,0.038287,0.053743,0.15799,-0.74244,-0.020909
1373,0.063938,0.14813,0.002769,0.00046697,0.063938,-0.43002,-0.039984
1374,0.023159,0.12609,-0.030447,-0.048205,-0.022883,-0.020909,-0.032091
1375,-0.0084125,0.10274,-0.051494,-0.079119,-0.073199,0.39708,-0.002164
1376,-0.0265,0.076764,-0.051494,-0.082736,-0.074844,0.68912,0.031381
1377,-0.032749,0.046508,-0.028802,-0.056098,-0.040641,0.76344,0.053415
1378,-0.023869,0.0080309,0.0083598,-0.0093991,0.00046697,0.61019,0.061636
1379,-0.0034794,-0.040641,0.042562,0.037629,0.01987,0.28592,0.058676
1380,0.015266,-0.097207,0.063281,0.06624,0.0044134,-0.11266,0.052099
1381,0.018884,-0.14884,0.072818,0.066898,-0.044588,-0.4879,0.049797
1382,-0.0011774,-0.19225,0.076435,0.042891,-0.11299,-0.77862,0.052099
1383,-0.036695,-0.22251,0.072489,0.010991,-0.17877,-0.9424,0.05769
1384,-0.073528,-0.2327,0.059005,-0.018278,-0.22053,-0.94437,0.06361
1385,-0.098522,-0.22086,0.036971,-0.041628,-0.22908,-0.76119,0.069529
1386,-0.11036,-0.19159,0.0047422,-0.059716,-0.21626,-0.40338,0.073476
1387,-0.11365,-0.15311,-0.031104,-0.07879,-0.20968,0.056703,0.073804
1388,-0.11168,-0.1176,-0.061031,-0.098193,-0.23434,0.42701,0.067556
1389,-0.10937,-0.094247,-0.080763,-0.11398,-0.2919,0.47436,0.044206
1390,-0.10839,-0.084052,-0.089314,-0.12121,-0.37082,0.084657,0.0037556
1391,-0.10773,-0.084052,-0.088656,-0.11957,-0.45995,-0.68917,-0.034064
1392,-0.10839,-0.0903,-0.08471,-0.11431,-0.55565,-1.6508,-0.045246
1393,-0.10872,-0.091945,-0.081092,-0.11464,-0.64346,-2.5348,-0.023211
1394,-0.10674,-0.080106,-0.077475,-0.12516,-0.70594,-3.1086,0.019541
1395,-0.10444,-0.050836,-0.063991,-0.13897,-0.72501,-3.2369,0.064267
1396,-0.10411,-0.010386,-0.038011,-0.14917,-0.69607,-2.8969,0.095839
1397,-0.10378,0.030065,-0.0090702,-0.14983,-0.63129,-2.1539,0.10965
1398,-0.10148,0.059334,0.0093464,-0.13963,-0.54381,-1.1358,0.10603
1399,-0.10247,0.062294,0.013293,-0.12253,-0.45797,-0.0038083,0.093536
1400,-0.11299,0.035985,0.0024402,-0.10247,-0.38924,1.0525,0.077093
1401,-0.1324,-0.013674,-0.014003,-0.076817,-0.32051,1.9247,0.063938
1402,-0.15147,-0.067609,-0.023869,-0.047548,-0.21428,2.5877,0.055388
1403,-0.15706,-0.10773,-0.020252,-0.012359,-0.030118,3.0579,0.052099
1404,-0.13864,-0.12319,-0.0054526,0.035327,0.24942,3.3786,0.05177
1405,-0.086354,-0.10905,0.017568,0.10077,0.60986,3.5677,0.049468
1406,-0.007097,-0.070897,0.04881,0.17773,0.99562,3.5565,0.043877
1407,0.077751,-0.017621,0.079395,0.24876,1.3281,3.1869,0.025461
1408,0.14155,0.043877,0.098798,0.29316,1.5369,2.3644,-0.010715
1409,0.17444,0.10472,0.10077,0.30368,1.5896,1.2314,-0.051165
1410,0.18134,0.15109,0.087288,0.28625,1.4965,0.14418,-0.068266
1411,0.16918,0.17181,0.06624,0.25665,1.3011,-0.50237,-0.049521
1412,0.14418,0.16457,0.043549,0.22377,1.063,-0.46258,-0.0041372
1413,0.1159,0.13497,0.023159,0.19614,0.83776,0.27737,0.043549
1414,0.090577,0.10011,0.012964,0.17674,0.65787,1.4508,0.074462
1415,0.069858,0.075449,0.013293,0.15767,0.52534,2.6087,0.077751
1416,0.05177,0.065254,0.01691,0.13432,0.41287,3.3316,0.057361
1417,0.034998,0.065254,0.018884,0.1057,0.29283,3.4039,0.027434
1418,0.018226,0.068214,0.017239,0.070516,0.15865,2.8554,0.0017824
1419,-0.004466,0.0692,0.013293,0.029736,0.01987,1.8944,-0.013017
1420,-0.032749,0.065254,0.0057288,-0.011043,-0.099838,0.80159,-0.017292
1421,-0.062018,0.057361,-0.004466,-0.04393,-0.1814,-0.15147,-0.012688
1422,-0.089314,0.044864,-0.013674,-0.066951,-0.22218,-0.77763,-0.0054526
1423,-0.11135,0.030065,-0.023211,-0.081421,-0.235,-1.0513,0.0021113
1424,-0.13536,0.010662,-0.033078,-0.088985,-0.24322,-1.0611,0.0067154
1425,-0.15772,-0.014332,-0.040313,-0.09326,-0.26,-0.94897,0.0047422
1426,-0.17712,-0.04689,-0.041299,-0.093918,-0.28795,-0.84078,-0.010715
1427,-0.18863,-0.084052,-0.039984,-0.092931,-0.32149,-0.8217,-0.043272
1428,-0.18962,-0.12352,-0.040641,-0.094247,-0.34747,-0.92201,-0.073857
1429,-0.18666,-0.15673,-0.042615,-0.093918,-0.35635,-1.1108,-0.08175
1430,-0.18205,-0.16923,-0.04689,-0.08471,-0.34254,-1.3252,-0.064978
1431,-0.17679,-0.15048,-0.049192,-0.062347,-0.31689,-1.5258,-0.033735
1432,-0.16857,-0.10017,-0.048534,-0.029789,-0.29749,-1.7027,-0.0041372
1433,-0.15607,-0.035051,-0.047548,0.0057288,-0.28959,-1.8458,0.015595
1434,-0.14029,0.024474,-0.044259,0.032696,-0.28598,-1.9027,0.021843
1435,-0.12121,0.067556,-0.042615,0.042233,-0.27447,-1.7846,0.019541
1436,-0.10181,0.091892,-0.041957,0.034011,-0.24553,-1.4331,0.013293
1437,-0.088656,0.099456,-0.045903,0.015924,-0.19718,-0.89307,0.0080309
1438,-0.079777,0.096496,-0.052481,0.0001381,-0.14127,-0.32314,0.0044134
1439,-0.071226,0.088603,-0.0584,-0.01203,-0.090958,0.089919,0.0017824
1440,-0.059387,0.078737,-0.057414,-0.021567,-0.055112,0.23561,0.00079584
1441,-0.042615,0.064596,-0.049192,-0.027816,-0.035051,0.12774,-0.00051963
1442,-0.023211,0.052099,-0.036037,-0.028144,-0.029789,-0.13897,-0.00019077
1443,-0.00051963,0.041904,-0.024856,-0.021238,-0.037682,-0.43462,0.0014536
1444,0.02283,0.043549,-0.016963,-0.011372,-0.054783,-0.65431,-0.0018351
1445,0.046837,0.062952,-0.014003,0.0001381,-0.075501,-0.74343,-0.017621
1446,0.067885,0.094194,-0.013017,0.010333,-0.091616,-0.69706,-0.040313
1447,0.080711,0.12149,-0.0087413,0.015266,-0.1028,-0.5517,-0.051494
1448,0.086301,0.13037,-0.0008485,0.017897,-0.11102,-0.3751,-0.038997
1449,0.086301,0.11721,0.010662,0.019212,-0.12121,-0.23895,-0.012688
1450,0.07808,0.084328,0.021843,0.018884,-0.14456,-0.18469,0.014937
1451,0.063281,0.037629,0.031052,0.013951,-0.19093,-0.21067,0.033683
1452,0.039602,-0.012359,0.036971,0.0017824,-0.25835,-0.26789,0.040918
1453,0.012306,-0.055112,0.03434,-0.01795,-0.33596,-0.29223,0.04026
1454,-0.012688,-0.086025,0.021186,-0.044588,-0.41128,-0.25671,0.037958
1455,-0.027158,-0.10444,0.0021113,-0.070897,-0.47343,-0.18929,0.036971
1456,-0.03242,-0.11398,-0.016963,-0.0903,-0.51717,-0.14654,0.036642
1457,-0.033406,-0.12056,-0.03538,-0.097207,-0.54315,-0.17942,0.036971
1458,-0.033078,-0.13207,-0.05281,-0.09326,-0.5517,-0.28203,0.036971
1459,-0.032091,-0.14259,-0.063991,-0.086354,-0.5392,-0.40338,0.038944
1460,-0.029131,-0.14588,-0.065307,-0.080763,-0.49941,-0.49908,0.04026
1461,-0.02354,-0.13864,-0.057085,-0.073199,-0.43068,-0.54677,0.043877
1462,-0.01499,-0.1199,-0.038011,-0.056098,-0.32741,-0.54808,0.046837
1463,-0.0054526,-0.083723,-0.0084125,-0.027158,-0.18271,-0.54184,0.038616
1464,0.0080309,-0.030447,0.024474,0.0080309,-0.002164,-0.58393,0.014608
1465,0.023817,0.036314,0.056374,0.040589,0.19746,-0.69344,-0.0090702
1466,0.046508,0.10274,0.081697,0.064596,0.39873,-0.82039,-0.013674
1467,0.073147,0.15832,0.10077,0.078737,0.59374,-0.85525,0.0050711
1468,0.099456,0.18825,0.11162,0.085644,0.77298,-0.69607,0.034998
1469,0.12215,0.19121,0.11162,0.08959,0.91801,-0.30604,0.06361
1470,0.13333,0.16885,0.10176,0.090248,0.99924,0.24251,0.079395
1471,0.12807,0.12938,0.086959,0.083342,0.98378,0.74338,0.079066
1472,0.10735,0.083999,0.067885,0.073476,0.84763,0.94234,0.066898
1473,0.084328,0.046837,0.049468,0.058348,0.59769,0.70622,0.050126
1474,0.067885,0.025132,0.0373,0.043549,0.26948,0.1034,0.04026
1475,0.06624,0.019212,0.034998,0.038616,-0.077146,-0.64674,0.039602
1476,0.074133,0.02579,0.035656,0.040589,-0.38497,-1.3206,0.04618
1477,0.080382,0.038944,0.03434,0.04026,-0.61813,-1.8014,0.055388
1478,0.078409,0.051441,0.032038,0.032038,-0.76547,-2.0622,0.062294
1479,0.0692,0.058019,0.028421,0.015266,-0.83584,-2.1428,0.063938
1480,0.054401,0.058019,0.024474,-0.0051238,-0.84341,-2.1072,0.059992
1481,0.040589,0.049139,0.020528,-0.018278,-0.78454,-1.9882,0.04881
1482,0.029736,0.035656,0.01691,-0.017292,-0.64806,-1.7182,0.026776
1483,0.02283,0.02579,0.015266,-0.002164,-0.4435,-1.1466,0.0037556
1484,0.023817,0.020199,0.017239,0.021514,-0.20146,-0.1495,-0.0028217
1485,0.036971,0.013951,0.021186,0.048153,0.038616,1.2041,0.010991
1486,0.061636,0.0030979,0.025132,0.075449,0.25041,2.5893,0.031709
1487,0.09255,-0.0067681,0.028092,0.096167,0.41714,3.6486,0.044535
1488,0.11985,-0.0087413,0.034669,0.10899,0.52665,4.1879,0.045851
1489,0.13859,0.0030979,0.047824,0.11656,0.56875,4.2152,0.04026
1490,0.14385,0.024474,0.065912,0.12149,0.53948,3.8229,0.029736
1491,0.14056,0.046837,0.082355,0.12741,0.45463,3.1402,0.021514
1492,0.13234,0.056703,0.089919,0.13432,0.35893,2.3568,0.018555
1493,0.12248,0.050126,0.086301,0.13793,0.30467,1.6876,0.021514
1494,0.11689,0.034011,0.076764,0.13497,0.33032,1.2633,0.027105
1495,0.11985,0.01987,0.065254,0.12313,0.44016,1.0584,0.031709
1496,0.13234,0.014608,0.055388,0.10406,0.61742,0.93544,0.030394
1497,0.14944,0.02283,0.04881,0.085315,0.82264,0.75752,0.025132
1498,0.16194,0.042233,0.045193,0.072818,0.99628,0.50166,0.017239
1499,0.16128,0.064925,0.044206,0.0692,1.0749,0.27639,0.011648
1500,0.14879,0.083999,0.044535,0.070516,1.019,0.20535,0.0093464
1501,0.12938,0.091234,0.04618,0.073147,0.82855,0.29809,0.0060577
1502,0.1113,0.085315,0.049468,0.077422,0.54014,0.44016,0.0017824
1503,0.098469,0.0692,0.051441,0.082355,0.22311,0.4668,-0.0047949
1504,0.090577,0.050455,0.051441,0.083013,-0.061031,0.27968,-0.011372
1505,0.086301,0.031709,0.04618,0.076435,-0.27644,-0.091287,-0.015648
1506,0.080711,0.015266,0.033354,0.06065,-0.42015,-0.53,-0.015976
1507,0.069529,-0.00019077,0.012306,0.034998,-0.50533,-0.92529,-0.014661
1508,0.053415,-0.013017,-0.013674,0.0057288,-0.55071,-1.2127,-0.01203
1509,0.038287,-0.021238,-0.037682,-0.01795,-0.57045,-1.3781,-0.0090702
1510,0.027763,-0.025185,-0.056098,-0.031104,-0.57406,-1.4341,-0.0067681
1511,0.020199,-0.02354,-0.066951,-0.039655,-0.56255,-1.3841,-0.0057815
1512,0.014937,-0.018278,-0.072542,-0.042286,-0.52769,-1.2019,-0.0034794
1513,0.014608,-0.0064392,-0.077146,-0.039326,-0.46356,-0.85689,-0.0008485
1514,0.022501,0.01132,-0.080434,-0.037353,-0.38036,-0.37214,0.00046697
1515,0.040918,0.033025,-0.08175,-0.040641,-0.30702,0.1626,-0.0018351
1516,0.056374,0.053743,-0.081421,-0.049521,-0.27019,0.63091,-0.0074258
1517,0.058019,0.066569,-0.076488,-0.062018,-0.27151,0.94169,-0.015648
1518,0.038616,0.074462,-0.065964,-0.074186,-0.28631,1.0581,-0.028473
1519,0.0067154,0.077422,-0.04985,-0.077146,-0.27874,0.99858,-0.04985
1520,-0.024527,0.073804,-0.031762,-0.066622,-0.23106,0.80619,-0.072213
1521,-0.042615,0.060979,-0.01499,-0.04393,-0.14785,0.53027,-0.076159
1522,-0.042944,0.040918,-0.0015062,-0.014332,-0.042944,0.22179,-0.058729
1523,-0.030118,0.019541,0.0086887,0.016253,0.06361,-0.053138,-0.028144
1524,-0.014661,-0.00019077,0.019212,0.042233,0.15273,-0.2498,0.00046697
1525,-0.01203,-0.018278,0.030065,0.058676,0.20338,-0.35372,0.019541
1526,-0.034722,-0.038011,0.036314,0.061965,0.20469,-0.36819,0.028092
1527,-0.07879,-0.056427,0.038287,0.052757,0.15503,-0.31557,0.029407
1528,-0.12286,-0.064978,0.033354,0.030723,0.070516,-0.20573,0.026447
1529,-0.14423,-0.060702,0.01987,0.00079584,-0.023869,-0.028802,0.02579
1530,-0.13338,-0.045246,-0.0028217,-0.026829,-0.099838,0.23133,0.028421
1531,-0.095891,-0.023211,-0.026829,-0.043601,-0.13272,0.56086,0.031052
1532,-0.046232,-0.0015062,-0.043272,-0.051823,-0.11628,0.90123,0.031709
1533,-0.0031506,0.017239,-0.044917,-0.055112,-0.072542,1.1666,0.029407
1534,0.022172,0.02875,-0.034722,-0.056756,-0.033406,1.2784,0.025461
1535,0.031052,0.031052,-0.019594,-0.061689,-0.022883,1.2015,0.02283
1536,0.033354,0.026776,-0.0093991,-0.071555,-0.03538,0.94432,0.01987
1537,0.034669,0.020199,-0.0057815,-0.079448,-0.049521,0.54343,0.0054
1538,0.037629,0.019212,-0.010057,-0.079119,-0.046232,0.062623,-0.018278
1539,0.038287,0.025132,-0.013674,-0.069911,-0.021896,-0.41029,-0.034064
1540,0.032038,0.038616,-0.014003,-0.057085,0.025461,-0.79441,-0.030118
1541,0.018884,0.056374,-0.0087413,-0.044588,0.09255,-1.0575,-0.0054526
1542,0.00079584,0.072818,0.0034268,-0.029789,0.16523,-1.2091,0.02875
1543,-0.015648,0.08367,0.018555,-0.0074258,0.22607,-1.2785,0.058676
1544,-0.022225,0.088603,0.03434,0.018555,0.26257,-1.2811,0.076435
1545,-0.011043,0.080382,0.047824,0.041575,0.27145,-1.1966,0.081039
1546,0.01132,0.058676,0.058019,0.053086,0.25369,-0.99567,0.076435
1547,0.030394,0.02875,0.059992,0.04618,0.21555,-0.70594,0.069529
1548,0.026447,-0.0038083,0.051441,0.023488,0.16589,-0.41621,0.061636
1549,-0.0018351,-0.034064,0.033354,-0.0087413,0.11656,-0.21955,0.056703
1550,-0.038011,-0.064649,0.016253,-0.036366,0.071502,-0.14391,0.053415
1551,-0.063004,-0.093589,0.0017824,-0.050836,0.031052,-0.14292,0.052757
1552,-0.070568,-0.12056,-0.0061104,-0.053467,-0.007097,-0.12384,0.054072
1553,-0.065964,-0.14785,-0.0093991,-0.045903,-0.038011,0.010004,0.056703
1554,-0.053796,-0.17613,-0.0064392,-0.031762,-0.050179,0.29645,0.06065
1555,-0.039984,-0.1962,0.0030979,-0.012688,-0.033078,0.6707,0.056703
1556,-0.019594,-0.19817,0.023159,0.012635,0.0070443,0.98707,0.037958
1557,0.013951,-0.18337,0.047824,0.047166,0.039931,1.0782,0.011648
1558,0.056703,-0.15706,0.070516,0.08663,0.021514,0.83513,-0.0054526
1559,0.090577,-0.12483,0.089919,0.12281,-0.068266,0.27343,-0.0051238
1560,0.091892,-0.091287,0.10406,0.14056,-0.21395,-0.48856,0.0090175
1561,0.049139,-0.057414,0.11064,0.13103,-0.38168,-1.3091,0.025461
1562,-0.023869,-0.028802,0.10801,0.095181,-0.53131,-2.0612,0.040589
1563,-0.094247,-0.0074258,0.09551,0.049468,-0.63523,-2.639,0.049797
1564,-0.14029,0.0090175,0.076106,0.0040845,-0.68391,-2.9962,0.052757
1565,-0.15739,0.019212,0.048482,-0.03242,-0.68687,-3.1593,0.05177
1566,-0.14917,0.023159,0.015595,-0.0584,-0.66845,-3.1971,0.048482
1567,-0.12779,0.015924,-0.019594,-0.076159,-0.6428,-3.1057,0.044864
1568,-0.11201,-0.007097,-0.04985,-0.085039,-0.60991,-2.7752,0.045193
1569,-0.11069,-0.038997,-0.07024,-0.085696,-0.54841,-2.0678,0.050784
1570,-0.12352,-0.066951,-0.082079,-0.076159,-0.43495,-0.96377,0.056703
1571,-0.13601,-0.079119,-0.083723,-0.056098,-0.25934,0.33887,0.059005
1572,-0.13141,-0.070568,-0.074844,-0.023211,-0.0265,1.481,0.053415
1573,-0.10641,-0.041628,-0.056427,0.020528,0.2481,2.2391,0.040589
1574,-0.071226,0.0063866,-0.028144,0.067885,0.52994,2.6242,0.018226
1575,-0.037682,0.071173,0.002769,0.11031,0.77528,2.8021,-0.010386
1576,-0.011372,0.13991,0.03434,0.13826,0.95155,2.952,-0.030447
1577,0.012635,0.20996,0.064925,0.1524,1.0499,3.125,-0.032091
1578,0.033354,0.2731,0.091234,0.15668,1.0857,3.2507,-0.018607
1579,0.045522,0.31585,0.10505,0.15503,1.0884,3.2454,-0.0011774
1580,0.046837,0.33295,0.10472,0.14977,1.0739,3.0441,0.01132
1581,0.036642,0.31717,0.089261,0.14287,1.0298,2.5748,0.012635
1582,0.021843,0.26389,0.062294,0.13432,0.93281,1.8303,0.0057288
1583,0.0054,0.17806,0.031709,0.12445,0.78416,0.92886,-0.0038083
1584,-0.014332,0.076435,0.0001381,0.10735,0.60164,0.072818,-0.007097
1585,-0.038668,-0.012359,-0.025842,0.080711,0.41944,-0.55499,-0.0038083
1586,-0.059058,-0.064649,-0.039326,0.05177,0.27639,-0.87596,0.0034268
1587,-0.063991,-0.072542,-0.038339,0.030394,0.20173,-0.90491,0.01132
1588,-0.046561,-0.044588,-0.024856,0.023817,0.1968,-0.69739,0.01691
1589,-0.013017,0.002769,-0.002164,0.036314,0.23791,-0.29288,0.018226
1590,0.023159,0.051113,0.021514,0.062952,0.28823,0.29349,0.018555
1591,0.055059,0.090577,0.039931,0.090248,0.31651,1.0154,0.016581
1592,0.075778,0.12149,0.050126,0.1057,0.31289,1.7711,0.0070443
1593,0.090905,0.1455,0.049797,0.10538,0.27474,2.4226,-0.015319
1594,0.11097,0.15273,0.034998,0.091234,0.20239,2.7916,-0.044259
1595,0.13728,0.1376,0.012306,0.074791,0.097154,2.6992,-0.061689
1596,0.16063,0.10011,-0.012359,0.062952,-0.03242,2.073,-0.062676
1597,0.17608,0.050455,-0.027158,0.061636,-0.16397,1.0334,-0.048534
1598,0.18167,0.0080309,-0.028144,0.07216,-0.26888,-0.14588,-0.0265
1599,0.18693,-0.019594,-0.016963,0.09255,-0.32347,-1.1302,-0.0047949
1600,0.19549,-0.031433,0.002769,0.11162,-0.32084,-1.7195,0.013293
1601,0.20732,-0.03242,0.027763,0.12445,-0.27677,-1.9007,0.024145
1602,0.21555,-0.024856,0.05473,0.12609,-0.22283,-1.7998,0.028092
1603,0.21686,-0.010715,0.084657,0.11491,-0.18896,-1.5903,0.026447
1604,0.21226,0.0057288,0.11064,0.090905,-0.18765,-1.4048,0.022501
1605,0.20404,0.01691,0.12248,0.05769,-0.20573,-1.2897,0.018884
1606,0.18924,0.013622,0.11031,0.025461,-0.22678,-1.2334,0.017568
1607,0.16128,-0.0034794,0.079066,0.0037556,-0.24651,-1.2006,0.017897
1608,0.11754,-0.017621,0.041904,-0.0057815,-0.26493,-1.1555,0.021186
1609,0.062294,-0.0093991,0.014608,-0.0074258,-0.28927,-1.0733,0.023159
1610,0.0021113,0.028092,0.0073732,-0.0084125,-0.32084,-0.95358,0.021514
1611,-0.054125,0.083013,0.016581,-0.01499,-0.35635,-0.8046,0.0080309
1612,-0.097536,0.12971,0.029078,-0.028802,-0.38661,-0.62668,-0.012688
1613,-0.12319,0.14254,0.029407,-0.049521,-0.40141,-0.41259,-0.025185
1614,-0.13733,0.11327,0.014608,-0.069911,-0.39779,-0.18633,-0.019594
1615,-0.14588,0.053086,-0.0077547,-0.082736,-0.38102,-0.025842,0.0014536
1616,-0.15542,-0.014661,-0.032091,-0.085696,-0.36556,-0.048534,0.023488
1617,-0.16495,-0.069911,-0.050507,-0.080763,-0.36622,-0.31788,0.037629
1618,-0.1712,-0.098193,-0.061689,-0.075501,-0.38694,-0.77007,0.043877
1619,-0.16824,-0.095233,-0.064978,-0.07024,-0.41785,-1.2591,0.044864
1620,-0.15344,-0.068266,-0.061689,-0.061689,-0.44219,-1.6412,0.045193
1621,-0.13272,-0.030447,-0.055112,-0.049521,-0.45074,-1.8468,0.04618
1622,-0.11398,0.0044134,-0.050179,-0.040313,-0.44942,-1.9119,0.04881
1623,-0.098851,0.028092,-0.048863,-0.039326,-0.44909,-1.9224,0.052757
1624,-0.085696,0.034998,-0.050836,-0.047877,-0.45699,-1.9267,0.056374
1625,-0.075173,0.026447,-0.057085,-0.058729,-0.46126,-1.8757,0.06065
1626,-0.063662,0.0054,-0.066293,-0.06728,-0.43923,-1.6748,0.064925
1627,-0.052481,-0.01499,-0.069582,-0.06728,-0.36819,-1.2433,0.067556
1628,-0.044259,-0.031433,-0.0584,-0.0584,-0.22711,-0.5688,0.068543
1629,-0.041299,-0.040313,-0.028473,-0.040313,-0.0097279,0.28494,0.060321
1630,-0.045574,-0.042615,0.011648,-0.014661,0.23824,1.1604,0.038616
1631,-0.057743,-0.036037,0.050126,0.010662,0.43424,1.8303,0.012964
1632,-0.070897,-0.022883,0.071831,0.030394,0.50791,2.1026,-0.0015062
1633,-0.077803,-0.0054526,0.070845,0.035656,0.44707,1.9401,0.0017824
1634,-0.074844,0.013951,0.055388,0.023817,0.30533,1.5146,0.020199
1635,-0.064978,0.031052,0.031381,0.0034268,0.16194,1.1426,0.046508
1636,-0.055112,0.04322,0.010991,-0.012359,0.076106,1.0874,0.069858
1637,-0.047548,0.046508,-0.0015062,-0.020909,0.061636,1.3238,0.081368
1638,-0.04097,0.042233,-0.0041372,-0.016305,0.099127,1.5682,0.079395
1639,-0.029131,0.037958,0.0021113,0.002769,0.17181,1.5383,0.067556
1640,-0.013674,0.042233,0.013293,0.036971,0.25633,1.1453,0.053743
1641,0.0044134,0.05177,0.030723,0.077422,0.32769,0.50067,0.042233
1642,0.021186,0.05769,0.053086,0.10998,0.35729,-0.22481,0.0373
1643,0.036642,0.051441,0.07512,0.12774,0.32901,-0.9003,0.035985
1644,0.048482,0.027434,0.085972,0.13103,0.25074,-1.46,0.035985
1645,0.059005,-0.0077547,0.079066,0.12313,0.15175,-1.8284,0.038287
1646,0.067885,-0.044588,0.058676,0.11031,0.065254,-1.8991,0.041575
1647,0.074133,-0.070568,0.031052,0.093536,0.014937,-1.5959,0.042891
1648,0.077422,-0.077146,0.0030979,0.072818,0.002769,-0.96969,0.031052
1649,0.082026,-0.067937,-0.019923,0.04618,0.010662,-0.2054,0.0086887
1650,0.09255,-0.052481,-0.038997,0.013293,0.0034268,0.47305,-0.011043
1651,0.10834,-0.038011,-0.056756,-0.020909,-0.040641,0.91998,-0.01499
1652,0.12774,-0.025842,-0.072542,-0.055769,-0.12253,1.1071,-0.004466
1653,0.14681,-0.013017,-0.085367,-0.085367,-0.21691,1.0614,0.010662
1654,0.16523,0.0024402,-0.093918,-0.10247,-0.29486,0.82132,0.022172
1655,0.17937,0.020199,-0.10082,-0.1074,-0.33925,0.44641,0.02579
1656,0.19351,0.041575,-0.10576,-0.097864,-0.35076,0.020528,0.023488
1657,0.20798,0.063281,-0.10411,-0.079119,-0.33662,-0.34715,0.019212
1658,0.22541,0.082355,-0.0903,-0.057414,-0.30341,-0.55894,0.016581
1659,0.24021,0.095181,-0.062018,-0.035051,-0.25967,-0.58261,0.014279
1660,0.24646,0.1011,-0.0265,-0.014661,-0.22086,-0.4902,0.010004
1661,0.23824,0.10011,0.0057288,0.0024402,-0.2008,-0.44186,0.0030979
1662,0.21949,0.095181,0.030394,0.016253,-0.18567,-0.55598,-0.0047949
1663,0.19581,0.085972,0.046837,0.031052,-0.14588,-0.82039,-0.011043
1664,0.17838,0.074133,0.059992,0.048153,-0.053796,-1.0825,-0.01203
1665,0.16786,0.06065,0.068871,0.070187,0.094194,-1.1427,-0.0080836
1666,0.15997,0.04026,0.070845,0.094194,0.27408,-0.88057,-0.0090702
1667,0.15043,0.013951,0.064267,0.11393,0.44641,-0.31952,-0.021567
1668,0.133,-0.015976,0.051441,0.1284,0.58092,0.39905,-0.037353
1669,0.10735,-0.041628,0.04026,0.13563,0.6605,1.0726,-0.043272
1670,0.075449,-0.058071,0.036314,0.14188,0.67991,1.5211,-0.038011
1671,0.043877,-0.064978,0.044535,0.14418,0.64439,1.652,-0.024856
1672,0.011648,-0.058071,0.062952,0.14122,0.5648,1.5024,-0.010386
1673,-0.022883,-0.037353,0.081368,0.13234,0.45463,1.2035,0.0001381
1674,-0.056427,-0.0074258,0.090577,0.11557,0.33164,0.92064,0.0054
1675,-0.085696,0.016581,0.084328,0.093208,0.21324,0.77594,0.0060577
1676,-0.11069,0.030394,0.063281,0.066569,0.1136,0.79304,0.0040845
1677,-0.13207,0.03434,0.033683,0.036314,0.036971,0.89729,-0.0015062
1678,-0.15607,0.031052,-0.0018351,0.0040845,-0.025185,0.97753,-0.0047949
1679,-0.18074,0.01987,-0.035051,-0.028802,-0.07879,0.95517,-0.0061104
1680,-0.19883,0.002769,-0.060045,-0.0584,-0.11727,0.82527,-0.004466
1681,-0.20508,-0.014332,-0.069253,-0.080763,-0.13305,0.64834,-0.00019077
1682,-0.19784,-0.025514,-0.065635,-0.092931,-0.13009,0.49114,0.0037556
1683,-0.17844,-0.026171,-0.055112,-0.09326,-0.11595,0.38491,0.0080309
1684,-0.1518,-0.019923,-0.042944,-0.085696,-0.098851,0.32703,0.0050711
1685,-0.11825,-0.013017,-0.033735,-0.07583,-0.081092,0.29809,-0.0087413
1686,-0.079777,-0.011372,-0.033406,-0.06728,-0.069253,0.27014,-0.028802
1687,-0.044259,-0.01499,-0.039655,-0.057085,-0.069253,0.2162,-0.04097
1688,-0.016634,-0.01795,-0.045903,-0.047877,-0.083065,0.11853,-0.031762
1689,0.002769,-0.01203,-0.046232,-0.04097,-0.10609,-0.036037,-0.010386
1690,0.015595,0.0096753,-0.035708,-0.038011,-0.12746,-0.24026,0.014279
1691,0.025132,0.045522,-0.014661,-0.037024,-0.13832,-0.46422,0.031709
1692,0.03434,0.085972,0.012964,-0.031433,-0.13338,-0.67963,0.036971
1693,0.040918,0.11524,0.039931,-0.014661,-0.11497,-0.89734,0.03434
1694,0.041575,0.11656,0.061636,0.0073732,-0.092603,-1.1795,0.028092
1695,0.031052,0.094194,0.071831,0.023817,-0.090629,-1.5932,0.022172
1696,0.0034268,0.055059,0.06624,0.028092,-0.12648,-2.1306,0.01987
1697,-0.036366,0.010004,0.048153,0.02283,-0.20606,-2.7084,0.021514
1698,-0.076159,-0.032091,0.021843,0.015266,-0.32018,-3.2218,0.026119
1699,-0.10444,-0.060045,-0.0047949,0.0070443,-0.45041,-3.5799,0.032696
1700,-0.11825,-0.065307,-0.025185,-0.0024928,-0.57374,-3.7039,0.040918
1701,-0.1176,-0.04689,-0.033406,-0.013017,-0.66385,-3.5388,0.049139
1702,-0.10313,-0.010057,-0.026829,-0.016963,-0.68719,-3.079,0.056374
1703,-0.07583,0.031381,-0.0097279,-0.0090702,-0.62405,-2.3424,0.056374
1704,-0.037024,0.064925,0.015266,0.0096753,-0.4833,-1.3742,0.044535
1705,0.0034268,0.085315,0.038616,0.034011,-0.30768,-0.2988,0.029407
1706,0.035656,0.088275,0.058348,0.058019,-0.15081,0.70983,0.024145
1707,0.055059,0.079066,0.067556,0.073476,-0.021896,1.5797,0.033025
1708,0.06624,0.065254,0.06624,0.079724,0.10834,2.4074,0.05177
1709,0.079066,0.056374,0.059005,0.081368,0.27474,3.323,0.071173
1710,0.096496,0.054072,0.054072,0.083999,0.47667,4.3267,0.081697
1711,0.11721,0.053086,0.059005,0.093536,0.68813,4.9591,0.079395
1712,0.13892,0.045193,0.074791,0.11524,0.87821,4.9598,0.064925
1713,0.15602,0.02875,0.093865,0.14681,1.0219,4.9594,0.040589
1714,0.16391,0.0057288,0.10801,0.17937,1.0976,4.9594,0.021514
1715,0.16194,-0.016305,0.11327,0.20272,1.0949,4.7299,0.017239
1716,0.15175,-0.029789,0.10735,0.21292,1.019,3.7489,0.027105
1717,0.13958,-0.035708,0.091892,0.20601,0.90913,2.811,0.04322
1718,0.13004,-0.038997,0.0692,0.18233,0.80981,2.0391,0.057361
1719,0.12182,-0.042615,0.044864,0.14385,0.74108,1.4301,0.062952
1720,0.11195,-0.041957,0.021843,0.098469,0.70359,0.91834,0.060321
1721,0.097483,-0.034722,0.0021113,0.054401,0.68254,0.43753,0.047824
1722,0.07808,-0.019265,-0.014661,0.020528,0.66445,-0.043601,0.024474
1723,0.057032,0.0047422,-0.024198,-0.0011774,0.64242,-0.49448,-0.0024928
1724,0.041247,0.031052,-0.028144,-0.0093991,0.59539,-0.82894,-0.013017
1725,0.03434,0.048482,-0.028144,-0.007097,0.50133,-0.9516,-0.0034794
1726,0.035985,0.052757,-0.026829,0.00046697,0.35926,-0.81512,0.01987
1727,0.042233,0.044864,-0.020909,0.0096753,0.19713,-0.46324,0.042233
1728,0.048153,0.030065,-0.0074258,0.020857,0.049468,-0.027158,0.054072
1729,0.04881,0.017897,0.010333,0.035656,-0.063662,0.33065,0.052757
1730,0.041904,0.018555,0.024474,0.050455,-0.14062,0.48127,0.04322
1731,0.030394,0.033025,0.028421,0.056374,-0.20343,0.36715,0.031709
1732,0.015924,0.053086,0.017897,0.043549,-0.27249,0.020199,0.023159
1733,0.00079584,0.0692,-0.0038083,0.01132,-0.3557,-0.45633,0.017897
1734,-0.0090702,0.069858,-0.0265,-0.027487,-0.44646,-0.92135,0.018226
1735,-0.018607,0.058348,-0.039655,-0.060702,-0.52868,-1.268,0.01987
1736,-0.03242,0.044864,-0.037353,-0.079777,-0.5813,-1.4538,0.021514
1737,-0.051823,0.040918,-0.019594,-0.082736,-0.58985,-1.4906,0.022501
1738,-0.074515,0.049468,0.0050711,-0.069911,-0.55433,-1.4229,0.021186
1739,-0.091945,0.064267,0.028421,-0.045903,-0.49283,-1.294,0.019212
1740,-0.10148,0.072489,0.041575,-0.019594,-0.43002,-1.1364,0.015924
1741,-0.10313,0.059992,0.041575,-0.002164,-0.38135,-0.98679,0.0093464
1742,-0.10082,0.026447,0.031709,-0.0038083,-0.35043,-0.89307,0.00046697
1743,-0.10181,-0.026171,0.018884,-0.019265,-0.33662,-0.87596,-0.007097
1744,-0.11102,-0.087341,0.0063866,-0.039984,-0.33136,-0.90754,-0.013017
1745,-0.12812,-0.14062,-0.0080836,-0.060702,-0.32478,-0.94536,-0.015648
1746,-0.14818,-0.16956,-0.023869,-0.080763,-0.30571,-0.98745,-0.01499
1747,-0.16035,-0.1643,-0.038011,-0.094576,-0.27348,-1.0552,-0.015319
1748,-0.15476,-0.12976,-0.046232,-0.097864,-0.23632,-1.1641,-0.014661
1749,-0.12845,-0.083065,-0.049192,-0.09326,-0.21099,-1.2982,-0.013017
1750,-0.09326,-0.041957,-0.049521,-0.087669,-0.21297,-1.4051,-0.01203
1751,-0.063991,-0.015648,-0.046232,-0.086354,-0.24651,-1.4271,-0.0093991
1752,-0.052481,-0.0011774,-0.038339,-0.089972,-0.30637,-1.3413,-0.0064392
1753,-0.062676,0.0070443,-0.028802,-0.095891,-0.3728,-1.1539,-0.0038083
1754,-0.084052,0.0080309,-0.021567,-0.099838,-0.42344,-0.87366,-0.0024928
1755,-0.10346,-0.0011774,-0.015648,-0.095891,-0.4366,-0.48461,-0.0024928
1756,-0.11233,-0.016963,-0.0051238,-0.07879,-0.39713,0.040589,-0.0034794
1757,-0.10477,-0.028802,0.014279,-0.048205,-0.30801,0.6457,-0.0054526
1758,-0.077146,-0.034064,0.042233,-0.0041372,-0.19225,1.1538,-0.015648
1759,-0.036037,-0.034393,0.069529,0.049139,-0.078461,1.4028,-0.037682
1760,0.0096753,-0.036037,0.087617,0.099456,0.0034268,1.383,-0.062676
1761,0.053086,-0.040641,0.093536,0.14089,0.038287,1.2475,-0.070568
1762,0.090248,-0.040641,0.088275,0.16786,0.027763,1.1357,-0.055769
1763,0.11721,-0.021896,0.07512,0.18036,-0.019265,1.0219,-0.030118
1764,0.12807,0.024145,0.062294,0.17773,-0.082079,0.76015,-0.0097279
1765,0.12346,0.093208,0.055717,0.16786,-0.13272,0.23363,0.0017824
1766,0.11524,0.17246,0.059992,0.16063,-0.14127,-0.53098,0.0067154
1767,0.10965,0.24284,0.074462,0.15931,-0.098522,-1.3436,0.0086887
1768,0.10801,0.28461,0.092879,0.15799,-0.020252,-1.9754,0.013622
1769,0.10866,0.28099,0.10439,0.14747,0.055388,-2.2792,0.021186
1770,0.10702,0.23067,0.10209,0.12609,0.10406,-2.2115,0.029407
1771,0.098141,0.15109,0.083999,0.10011,0.12248,-1.8333,0.034011
1772,0.083013,0.070187,0.052099,0.074133,0.1284,-1.3364,0.033683
1773,0.063938,0.0080309,0.01691,0.049468,0.13728,-0.99337,0.028421
1774,0.046508,-0.023211,-0.012688,0.026776,0.15273,-0.97035,0.01987
