,channel_1,channel_2,channel_3,channel_4,channel_5,channel_6,channel_7
0,0.074791,0.099127,0.027105,0.012635,0.076106,-0.030118,0.021186
1,0.075449,0.1034,0.022172,0.0054,-0.024856,-0.032091,0.020199
2,0.060979,0.086301,0.0083598,-0.0008485,-0.10839,-0.034722,0.019212
3,0.041904,0.060321,-0.0090702,-0.0077547,-0.17285,-0.033078,0.017897
4,0.026447,0.038944,-0.024198,-0.011701,-0.21527,-0.024198,0.014608
5,0.020857,0.025461,-0.033735,-0.012688,-0.23698,-0.0041372,0.010333
6,0.02579,0.016253,-0.036037,-0.010057,-0.23895,0.024474,0.0060577
7,0.036971,0.0060577,-0.03242,-0.0054526,-0.22251,0.054401,0.0040845
8,0.043877,-0.0018351,-0.024527,-0.00051963,-0.19258,0.082026,0.0017824
9,0.045522,-0.0031506,-0.018936,0.0014536,-0.15706,0.1034,-0.0008485
10,0.04618,0.0086887,-0.015976,0.0011247,-0.1268,0.11985,-0.0041372
11,0.048482,0.03434,-0.015319,-0.0018351,-0.10707,0.13333,-0.0084125
12,0.051113,0.060979,-0.013017,-0.0031506,-0.089643,0.14451,-0.012359
13,0.054072,0.080711,-0.0090702,0.0011247,-0.063333,0.1501,-0.014003
14,0.055059,0.089261,-0.00051963,0.011648,-0.013674,0.14813,-0.014003
15,0.052428,0.091234,0.013622,0.029736,0.067556,0.13991,-0.014332
16,0.047166,0.09551,0.031709,0.04881,0.17707,0.12116,-0.014003
17,0.038944,0.1057,0.049468,0.06624,0.30072,0.090905,-0.014332
18,0.031381,0.1182,0.062623,0.074791,0.42471,0.053415,-0.01499
19,0.027434,0.12544,0.067885,0.074791,0.52961,0.015266,-0.015648
20,0.029736,0.12149,0.060321,0.063281,0.59933,-0.01499,-0.015319
21,0.037629,0.10702,0.04618,0.034669,0.61052,-0.038997,-0.014332
22,0.046508,0.090577,0.032367,-0.019923,0.53948,-0.069253,-0.013345
23,0.052757,0.075449,0.01987,-0.10181,0.36913,-0.11299,-0.013017
24,0.054401,0.0692,0.0050711,-0.19192,0.10307,-0.1564,-0.014332
25,0.051113,0.071502,-0.013345,-0.25276,-0.22612,-0.17679,-0.016963
26,0.045851,0.084328,-0.03242,-0.25506,-0.5665,-0.15081,-0.016634
27,0.037958,0.10044,-0.048534,-0.18567,-0.85262,-0.081421,-0.015319
28,0.025461,0.11524,-0.057743,-0.068595,-1.0338,-0.0054526,-0.011043
29,0.0054,0.12083,-0.058729,0.053086,-1.0924,0.031052,-0.0064392
30,-0.014003,0.11524,-0.049521,0.14089,-1.043,0.0060577,-0.0031506
31,-0.024198,0.096496,-0.02946,0.17838,-0.92332,-0.072213,-0.0008485
32,-0.023211,0.066569,-0.0031506,0.1695,-0.77862,-0.17515,0.00046697
33,-0.019265,0.031709,0.019212,0.1353,-0.64707,-0.26855,0.00079584
34,-0.020252,-0.0074258,0.031709,0.098469,-0.55269,-0.33333,0.0030979
35,-0.032091,-0.045574,0.032367,0.075778,-0.49448,-0.36556,0.0067154
36,-0.055112,-0.077475,0.025461,0.066898,-0.45863,-0.37346,0.010004
37,-0.085039,-0.10115,0.017897,0.066569,-0.42706,-0.36918,0.013293
38,-0.11069,-0.11529,0.010333,0.069858,-0.38168,-0.35997,0.015595
39,-0.12023,-0.1199,0.0050711,0.071173,-0.31525,-0.33925,0.017239
40,-0.11233,-0.11497,0.0017824,0.071173,-0.22053,-0.30176,0.018555
41,-0.09326,-0.10707,0.00079584,0.065912,-0.088985,-0.25276,0.019212
42,-0.069582,-0.10148,0.0040845,0.05769,0.094852,-0.19159,0.020199
43,-0.042944,-0.097207,0.010004,0.056046,0.32966,-0.10214,0.023817
44,-0.016305,-0.088656,0.018226,0.065912,0.57927,0.030065,0.028092
45,0.010004,-0.07024,0.028421,0.085644,0.76969,0.20963,0.033354
46,0.033683,-0.043272,0.036642,0.10505,0.83151,0.41385,0.036971
47,0.056046,-0.010715,0.041247,0.11721,0.74996,0.58684,0.038616
48,0.074133,0.01691,0.044206,0.11853,0.57335,0.67826,0.036642
49,0.081697,0.033683,0.045522,0.1113,0.37439,0.67366,0.034998
50,0.078737,0.038944,0.043549,0.092221,0.20765,0.59506,0.035985
51,0.069529,0.034998,0.039602,0.06065,0.093865,0.4941,0.04026
52,0.061307,0.029078,0.033025,0.018555,0.029736,0.43063,0.046837
53,0.055388,0.024145,0.023159,-0.020581,0.0050711,0.44904,0.054072
54,0.05177,0.023817,0.011648,-0.047548,0.012964,0.55954,0.058676
55,0.050784,0.026776,0.0040845,-0.061689,0.061965,0.72496,0.059334
56,0.050455,0.030394,0.0001381,-0.063662,0.17542,0.87821,0.057032
57,0.050126,0.038287,0.0030979,-0.059716,0.36781,0.96997,0.053415
58,0.05769,0.05177,0.010004,-0.051165,0.61972,0.9795,0.050455
59,0.075778,0.069858,0.016581,-0.03538,0.87361,0.91439,0.048153
60,0.098469,0.090248,0.019212,-0.0097279,1.0617,0.80751,0.047166
61,0.11524,0.1136,0.019541,0.019541,1.1403,0.70687,0.046837
62,0.12116,0.14056,0.020857,0.044206,1.1091,0.65886,0.047495
63,0.1205,0.16819,0.027105,0.060979,1.0098,0.66511,0.048482
64,0.1159,0.18989,0.040589,0.072818,0.894,0.6901,0.052099
65,0.1113,0.19581,0.062623,0.080053,0.79402,0.69339,0.056046
66,0.10866,0.17542,0.084986,0.076435,0.70424,0.66313,0.058019
67,0.10209,0.12511,0.089919,0.051441,0.58454,0.60493,0.05769
68,0.081039,0.050784,0.065254,-0.0018351,0.40037,0.52731,0.053415
69,0.040918,-0.03242,0.015924,-0.074844,0.14944,0.42898,0.045851
70,-0.015319,-0.11299,-0.039984,-0.14555,-0.14062,0.30171,0.0373
71,-0.080106,-0.1837,-0.083394,-0.19981,-0.41884,0.1478,0.031709
72,-0.14029,-0.23961,-0.10674,-0.23171,-0.63359,-0.020581,0.029736
73,-0.18337,-0.27381,-0.11102,-0.23796,-0.75132,-0.18666,0.031052
74,-0.2031,-0.27315,-0.1051,-0.22086,-0.76974,-0.33958,0.032696
75,-0.1985,-0.23171,-0.097864,-0.18567,-0.70989,-0.4708,0.033683
76,-0.17581,-0.15903,-0.087012,-0.13536,-0.60498,-0.57308,0.031709
77,-0.1416,-0.073199,-0.067937,-0.07287,-0.49645,-0.6428,0.028092
78,-0.10543,0.0063866,-0.042944,-0.0018351,-0.41621,-0.69048,0.021843
79,-0.072213,0.061965,-0.013345,0.071831,-0.37477,-0.73258,0.015924
80,-0.04393,0.082355,0.021843,0.13991,-0.36359,-0.76941,0.013622
81,-0.024527,0.079395,0.061965,0.18989,-0.35964,-0.79704,0.013951
82,-0.021567,0.073804,0.091234,0.21324,-0.35701,-0.80756,0.016253
83,-0.029789,0.076435,0.1011,0.20831,-0.36063,-0.80394,0.01691
84,-0.046561,0.08367,0.089919,0.18233,-0.37773,-0.78881,0.014937
85,-0.066622,0.083342,0.065583,0.14879,-0.40371,-0.77599,0.011648
86,-0.086354,0.071173,0.036971,0.1182,-0.43035,-0.78125,0.0073732
87,-0.099509,0.049139,0.015595,0.097483,-0.43956,-0.81611,0.0034268
88,-0.10181,0.032696,0.0030979,0.082355,-0.42246,-0.88287,-0.00019077
89,-0.097207,0.033683,-0.0018351,0.065583,-0.3797,-0.97199,-0.002164
90,-0.087998,0.063281,-0.0061104,0.036642,-0.33432,-1.0595,-0.0051238
91,-0.07287,0.11458,-0.014003,-0.0051238,-0.31031,-1.121,-0.0087413
92,-0.054454,0.16391,-0.027816,-0.04985,-0.32149,-1.146,-0.011701
93,-0.036037,0.18266,-0.045246,-0.079448,-0.36129,-1.1522,-0.013674
94,-0.024527,0.15438,-0.056756,-0.080106,-0.39911,-1.1585,-0.013017
95,-0.020252,0.081697,-0.059387,-0.053796,-0.4047,-1.1535,-0.010715
96,-0.022883,-0.018278,-0.053796,-0.010386,-0.36063,-1.0943,-0.0074258
97,-0.026829,-0.13042,-0.044917,0.03434,-0.27348,-0.92069,-0.0041372
98,-0.027816,-0.23994,-0.037682,0.070845,-0.16199,-0.58294,-0.00051963
99,-0.023211,-0.32972,-0.031762,0.099785,-0.046561,-0.095891,0.00079584
100,-0.015319,-0.38201,-0.023869,0.12379,0.054401,0.452,0.0001381
101,-0.0018351,-0.37477,-0.0031506,0.14385,0.12873,0.92886,-0.0024928
102,0.023488,-0.30374,0.035656,0.15569,0.17312,1.2196,-0.0077547
103,0.06065,-0.17909,0.088275,0.15405,0.19351,1.2656,-0.013345
104,0.10143,-0.024198,0.13366,0.13793,0.19549,1.0851,-0.017292
105,0.12807,0.12313,0.14912,0.10866,0.18233,0.76771,-0.021238
106,0.12675,0.23002,0.12675,0.069529,0.16326,0.44214,-0.022225
107,0.093208,0.27507,0.069529,0.02579,0.14418,0.24153,-0.018607
108,0.041575,0.25271,-0.0064392,-0.01499,0.12774,0.25929,-0.0090702
109,-0.01203,0.17641,-0.081092,-0.051823,0.11426,0.51646,0.0001381
110,-0.057414,0.068214,-0.13568,-0.084381,0.10834,0.95681,0.0086887
111,-0.089643,-0.043601,-0.16298,-0.10214,0.11853,1.4564,0.012306
112,-0.11036,-0.13108,-0.15936,-0.1005,0.14616,1.8563,0.012306
113,-0.11694,-0.17219,-0.12483,-0.079119,0.18102,2.0352,0.0086887
114,-0.10641,-0.1587,-0.063004,-0.040313,0.21456,1.9497,0.0054
115,-0.077475,-0.092931,0.017897,0.0096753,0.24514,1.6527,0.0050711
116,-0.028802,0.022501,0.10965,0.065583,0.28066,1.2538,0.0067154
117,0.033683,0.16753,0.20075,0.12083,0.32539,0.85421,0.0093464
118,0.10011,0.3073,0.27112,0.16589,0.37899,0.51186,0.013622
119,0.15964,0.40169,0.30862,0.19483,0.44246,0.24416,0.016581
120,0.20206,0.42832,0.30434,0.20404,0.50758,0.038287,0.018555
121,0.2139,0.38853,0.26093,0.19088,0.54474,-0.12976,0.018884
122,0.19614,0.30401,0.19253,0.15701,0.51843,-0.27512,0.019541
123,0.15767,0.20535,0.11787,0.10505,0.40892,-0.39944,0.020199
124,0.11985,0.11787,0.051441,0.042562,0.23758,-0.49908,0.021186
125,0.10011,0.056046,0.00046697,-0.019923,0.050784,-0.57538,0.023159
126,0.10176,0.029407,-0.035708,-0.070897,-0.11003,-0.62668,0.026447
127,0.12017,0.038944,-0.059716,-0.10247,-0.21922,-0.65332,0.030723
128,0.14221,0.080053,-0.075501,-0.11661,-0.26756,-0.65891,0.033354
129,0.15865,0.13596,-0.085039,-0.12089,-0.26559,-0.64576,0.036314
130,0.1626,0.18102,-0.098193,-0.11858,-0.22842,-0.62241,0.039931
131,0.15569,0.1945,-0.11497,-0.11102,-0.17285,-0.60037,0.042562
132,0.1432,0.15832,-0.13009,-0.098193,-0.11102,-0.58919,0.045851
133,0.1205,0.070845,-0.13174,-0.081421,-0.050179,-0.59084,0.047495
134,0.083342,-0.047219,-0.10609,-0.057743,0.0030979,-0.59972,0.048153
135,0.036314,-0.16791,-0.045246,-0.02354,0.038944,-0.60498,0.047495
136,-0.0084125,-0.26032,0.032038,0.018555,0.04322,-0.60037,0.048153
137,-0.041628,-0.31229,0.095181,0.057361,0.0080309,-0.58229,0.048153
138,-0.061031,-0.32413,0.12116,0.081368,-0.060373,-0.54841,0.047824
139,-0.064649,-0.29782,0.10965,0.087617,-0.14193,-0.49283,0.046837
140,-0.04985,-0.22875,0.07808,0.082026,-0.21757,-0.41391,0.045193
141,-0.013345,-0.10576,0.049797,0.070187,-0.27052,-0.31492,0.045851
142,0.032696,0.061636,0.038287,0.047824,-0.28992,-0.20803,0.045851
143,0.066569,0.23561,0.045851,0.019212,-0.27743,-0.1074,0.046508
144,0.075778,0.37143,0.067227,-0.0080836,-0.23928,-0.021896,0.047824
145,0.058019,0.42503,0.089919,-0.024856,-0.18732,0.045851,0.050784
146,0.019541,0.37636,0.10176,-0.026829,-0.12746,0.10209,0.053415
147,-0.028473,0.23758,0.094523,-0.019594,-0.071555,0.14517,0.053743
148,-0.068266,0.051113,0.06361,-0.0084125,-0.025842,0.16161,0.051441
149,-0.071884,-0.13338,0.0096753,0.0021113,0.0060577,0.14024,0.048153
150,-0.023211,-0.26657,-0.054783,0.0096753,0.021186,0.082355,0.044206
151,0.062294,-0.309,-0.1097,0.01132,0.013951,-0.004466,0.04026
152,0.14056,-0.25112,-0.13437,0.0086887,-0.011701,-0.10181,0.036642
153,0.1672,-0.12648,-0.12384,0.0037556,-0.041957,-0.18699,0.03434
154,0.12149,0.0093464,-0.080434,0.0070443,-0.058071,-0.24355,0.031052
155,0.018555,0.1136,-0.012688,0.023488,-0.045246,-0.26328,0.028092
156,-0.10247,0.16687,0.057032,0.04322,0.0044134,-0.25408,0.024803
157,-0.19718,0.15635,0.10603,0.052757,0.095839,-0.22415,0.022501
158,-0.23763,0.078409,0.11919,0.048153,0.2264,-0.17844,0.020528
159,-0.21955,-0.056756,0.095839,0.034011,0.38491,-0.11464,0.019541
160,-0.16462,-0.21691,0.046508,0.018884,0.56513,-0.032749,0.020199
161,-0.10543,-0.35866,-0.0077547,0.0083598,0.76212,0.050455,0.020528
162,-0.062347,-0.44383,-0.050507,0.002769,0.94892,0.11787,0.021186
163,-0.036695,-0.45041,-0.07024,0.0021113,1.064,0.1626,0.020528
164,-0.011372,-0.38661,-0.073199,0.002769,1.0426,0.18299,0.017568
165,0.027434,-0.27512,-0.068266,0.0014536,0.86144,0.18397,0.012306
166,0.075449,-0.15311,-0.065635,-0.0061104,0.5556,0.17016,0.0070443
167,0.11458,-0.058729,-0.069911,-0.016305,0.20239,0.14879,0.0014536
168,0.13103,-0.012688,-0.080763,-0.024856,-0.11398,0.11787,-0.0018351
169,0.12248,-0.012688,-0.088985,-0.031433,-0.34221,0.074133,-0.0038083
170,0.09551,-0.033078,-0.089314,-0.033406,-0.4708,0.018884,-0.0057815
171,0.059005,-0.05281,-0.076817,-0.027158,-0.52276,-0.041957,-0.0084125
172,0.020857,-0.05544,-0.053138,-0.0093991,-0.53493,-0.098522,-0.01203
173,-0.017621,-0.020252,-0.017621,0.013951,-0.53493,-0.14851,-0.014661
174,-0.057743,0.063281,0.029736,0.032038,-0.54118,-0.19455,-0.015319
175,-0.097207,0.17279,0.080711,0.042562,-0.5517,-0.22974,-0.014661
176,-0.12286,0.26652,0.12741,0.045193,-0.55565,-0.25309,-0.014003
177,-0.11825,0.31223,0.15569,0.043549,-0.54512,-0.27184,-0.013674
178,-0.082736,0.30072,0.15569,0.044535,-0.5175,-0.28992,-0.014003
179,-0.032749,0.23955,0.13103,0.052757,-0.47606,-0.30143,-0.013345
180,0.0024402,0.14714,0.094194,0.067556,-0.42739,-0.2988,-0.013017
181,-0.0015062,0.042891,0.058348,0.081368,-0.37674,-0.29255,-0.011043
182,-0.044917,-0.051165,0.032696,0.089261,-0.32215,-0.30176,-0.0097279
183,-0.10181,-0.11299,0.018226,0.08959,-0.25572,-0.32347,-0.0093991
184,-0.13503,-0.12352,0.016581,0.084986,-0.17646,-0.33169,-0.010715
185,-0.12615,-0.079777,0.023817,0.079395,-0.092274,-0.29782,-0.014332
186,-0.082736,-0.0018351,0.033683,0.074462,-0.011701,-0.21297,-0.015319
187,-0.025185,0.077093,0.038616,0.068543,0.058019,-0.092603,-0.015319
188,0.027105,0.12182,0.034998,0.062294,0.10998,0.036642,-0.01203
189,0.062294,0.1159,0.020199,0.05473,0.14287,0.14418,-0.0087413
190,0.07808,0.073804,0.0017824,0.045851,0.15405,0.21028,-0.0057815
191,0.082355,0.028092,-0.012359,0.033683,0.14287,0.23166,-0.0024928
192,0.083013,0.0030979,-0.022554,0.017568,0.11787,0.21851,-0.0008485
193,0.081039,0.0093464,-0.027487,-0.0028217,0.094194,0.18759,0.0021113
194,0.082355,0.034998,-0.027158,-0.024527,0.079724,0.15635,0.0044134
195,0.083342,0.064925,-0.024856,-0.048863,0.077422,0.13728,0.0080309
196,0.081697,0.084986,-0.024856,-0.075501,0.089261,0.13629,0.010991
197,0.069858,0.085972,-0.030775,-0.10313,0.1113,0.1478,0.012964
198,0.056374,0.073476,-0.038997,-0.12911,0.13662,0.16359,0.015266
199,0.048482,0.059334,-0.043601,-0.15246,0.1524,0.17707,0.016581
200,0.050784,0.052757,-0.043272,-0.16824,0.15536,0.18661,0.018226
201,0.061636,0.059334,-0.035708,-0.17153,0.15832,0.19746,0.020528
202,0.07808,0.074791,-0.022883,-0.1643,0.17575,0.21555,0.022501
203,0.093536,0.091563,-0.0084125,-0.1564,0.21324,0.24876,0.02579
204,0.1034,0.1057,0.0067154,-0.1518,0.26093,0.29809,0.030394
205,0.10801,0.11623,0.022501,-0.14818,0.30927,0.36518,0.034669
206,0.10735,0.12478,0.0373,-0.12713,0.34808,0.44608,0.037629
207,0.11195,0.13234,0.042562,-0.072542,0.36321,0.52698,0.037958
208,0.12544,0.13695,0.03434,0.02579,0.33427,0.5875,0.037629
209,0.14813,0.14056,0.013293,0.15273,0.2481,0.61249,0.0373
210,0.16885,0.14089,-0.011372,0.27968,0.11689,0.60131,0.038287
211,0.17838,0.13169,-0.028802,0.37472,-0.0265,0.55888,0.041904
212,0.17444,0.11524,-0.032749,0.41912,-0.14522,0.49804,0.047495
213,0.15799,0.094194,-0.023211,0.41352,-0.20968,0.43885,0.052099
214,0.13267,0.074133,-0.004466,0.36979,-0.21363,0.39609,0.055059
215,0.10472,0.058348,0.014608,0.30566,-0.17285,0.36452,0.055059
216,0.081368,0.04322,0.028092,0.23495,-0.11497,0.32999,0.054072
217,0.06361,0.022172,0.032696,0.16556,-0.064978,0.28658,0.053415
218,0.047495,-0.0093991,0.029736,0.10307,-0.038997,0.23265,0.052428
219,0.030723,-0.047877,0.021514,0.056703,-0.041299,0.1695,0.050455
220,0.010333,-0.083065,0.0086887,0.029407,-0.062347,0.10143,0.048153
221,-0.013017,-0.10181,-0.0080836,0.015266,-0.08471,0.036971,0.045851
222,-0.039326,-0.095233,-0.022554,0.0090175,-0.0903,-0.014003,0.045851
223,-0.067609,-0.059716,-0.030118,0.002769,-0.077803,-0.038668,0.047495
224,-0.089314,-0.0077547,-0.032091,-0.0057815,-0.057085,-0.033406,0.050455
225,-0.090958,0.04618,-0.029789,-0.015648,-0.04097,-0.0090702,0.053743
226,-0.072542,0.088275,-0.026171,-0.020909,-0.038011,0.021843,0.055059
227,-0.040313,0.10965,-0.021238,-0.020581,-0.045574,0.043549,0.053086
228,-0.0057815,0.10998,-0.01499,-0.021238,-0.059387,0.04322,0.04881
229,0.027105,0.10011,-0.0074258,-0.028802,-0.075501,0.021186,0.043877
230,0.051113,0.093208,0.0044134,-0.042286,-0.088985,-0.011043,0.039602
231,0.062623,0.097812,0.017568,-0.057743,-0.091616,-0.03538,0.037629
232,0.057361,0.11261,0.027105,-0.067937,-0.076159,-0.036037,0.037629
233,0.041904,0.133,0.030065,-0.069582,-0.040641,-0.0080836,0.037629
234,0.025461,0.14977,0.025132,-0.061031,0.014937,0.04322,0.036314
235,0.016581,0.15865,0.01691,-0.040641,0.079724,0.10834,0.033025
236,0.014279,0.15602,0.0093464,-0.011043,0.13859,0.16391,0.029078
237,0.014608,0.14254,0.0086887,0.015266,0.18003,0.18957,0.024145
238,0.014279,0.11952,0.012306,0.028421,0.19877,0.17937,0.020199
239,0.0047422,0.088932,0.019541,0.027763,0.19877,0.14221,0.01691
240,-0.012359,0.054072,0.024803,0.019541,0.18759,0.095181,0.015924
241,-0.031104,0.024803,0.024803,0.0086887,0.17049,0.051441,0.01691
242,-0.043272,0.0040845,0.023159,-0.0015062,0.15142,0.020199,0.018884
243,-0.045903,-0.0031506,0.021843,-0.010057,0.13103,0.0080309,0.020199
244,-0.039984,0.0014536,0.021843,-0.017621,0.10932,0.011648,0.018884
245,-0.032749,0.012306,0.02283,-0.021567,0.086301,0.025132,0.014937
246,-0.024856,0.021843,0.021514,-0.021238,0.06361,0.036642,0.0093464
247,-0.017292,0.028421,0.015595,-0.017621,0.046837,0.039273,0.0050711
248,-0.0087413,0.03434,0.0060577,-0.01203,0.038944,0.02875,0.00079584
249,0.002769,0.039931,-0.00051963,-0.0080836,0.036971,0.0086887,-0.0024928
250,0.015595,0.041575,-0.0038083,-0.0074258,0.035656,-0.0090702,-0.0051238
251,0.023817,0.035656,-0.0034794,-0.011701,0.033354,-0.011372,-0.0084125
252,0.026447,0.023817,0.00079584,-0.018936,0.032696,-0.0008485,-0.011043
253,0.02283,0.0073732,0.0057288,-0.024198,0.032038,0.0096753,-0.014332
254,0.015595,-0.011043,0.0083598,-0.026171,0.031709,0.011977,-0.015976
255,0.0070443,-0.027816,0.0057288,-0.022225,0.032038,0.002769,-0.016305
256,-0.0038083,-0.039326,-0.0047949,-0.016634,0.029078,-0.013345,-0.016305
257,-0.017292,-0.045903,-0.017621,-0.01203,0.010004,-0.031104,-0.01499
258,-0.034722,-0.049521,-0.024527,-0.0084125,-0.034722,-0.053796,-0.013017
259,-0.053467,-0.052481,-0.021238,-0.0034794,-0.098193,-0.085039,-0.012688
260,-0.069253,-0.056098,-0.0074258,0.0067154,-0.16134,-0.12056,-0.012688
261,-0.07879,-0.059058,0.01132,0.017897,-0.20277,-0.15081,-0.013345
262,-0.082408,-0.062676,0.02579,0.024474,-0.20803,-0.16495,-0.01203
263,-0.080106,-0.068924,0.031709,0.023817,-0.17449,-0.15344,-0.011701
264,-0.07583,-0.077803,0.030065,0.019212,-0.11891,-0.12023,-0.013017
265,-0.071884,-0.086683,0.024474,0.014608,-0.060702,-0.080763,-0.014332
266,-0.073199,-0.093589,0.023817,0.017568,-0.015976,-0.055112,-0.015319
267,-0.079448,-0.094576,0.030065,0.024474,0.012306,-0.047548,-0.015648
268,-0.085696,-0.089972,0.040918,0.029736,0.030723,-0.056098,-0.013017
269,-0.092931,-0.07583,0.051441,0.027763,0.051441,-0.069253,-0.010057
270,-0.092274,-0.051494,0.056374,0.023159,0.072818,-0.080434,-0.0057815
271,-0.07879,-0.019594,0.054401,0.018884,0.088275,-0.088985,-0.0028217
272,-0.053467,0.017568,0.045193,0.013951,0.091234,-0.097207,-0.00051963
273,-0.023869,0.055717,0.036314,0.0054,0.078409,-0.11365,0.00046697
274,0.0073732,0.092221,0.030065,-0.0047949,0.052428,-0.1416,0.0014536
275,0.035656,0.12215,0.024145,-0.014003,0.023817,-0.17613,0.0044134
276,0.056046,0.13958,0.017568,-0.015976,0.0050711,-0.20639,0.0080309
277,0.067556,0.14484,0.015266,-0.0064392,0.0040845,-0.22382,0.012635
278,0.070516,0.14221,0.018555,0.013622,0.015924,-0.2202,0.016581
279,0.065583,0.13464,0.026447,0.039273,0.026776,-0.1883,0.020199
280,0.052099,0.12642,0.035327,0.063281,0.028421,-0.12878,0.021514
281,0.033354,0.11985,0.043877,0.080053,0.023817,-0.055112,0.021186
282,0.0083598,0.10768,0.049468,0.091892,0.023159,0.0083598,0.020528
283,-0.014661,0.082684,0.052757,0.099127,0.039931,0.037958,0.020528
284,-0.029131,0.039602,0.057032,0.10603,0.079395,0.026447,0.022501
285,-0.039655,-0.011372,0.061965,0.11162,0.12741,-0.0067681,0.02579
286,-0.051494,-0.052152,0.0692,0.11689,0.16589,-0.032749,0.029078
287,-0.070897,-0.074844,0.077093,0.11985,0.18134,-0.034393,0.031381
288,-0.10378,-0.082079,0.084986,0.11458,0.16128,-0.032749,0.032038
289,-0.13799,-0.082079,0.088603,0.099127,0.11064,-0.065635,0.031709
290,-0.15838,-0.087012,0.08663,0.077422,0.04026,-0.15542,0.033025
291,-0.15311,-0.10411,0.078409,0.059663,-0.024856,-0.28335,0.037629
292,-0.12582,-0.1268,0.067227,0.049139,-0.066293,-0.40338,0.044864
293,-0.083723,-0.14423,0.052757,0.042233,-0.072542,-0.46554,0.05177
294,-0.033078,-0.15213,0.037629,0.035327,-0.046232,-0.4412,0.056374
295,0.015595,-0.14851,0.022501,0.027763,0.0024402,-0.3478,0.059005
296,0.055388,-0.137,0.0063866,0.025461,0.058348,-0.22086,0.058676
297,0.07808,-0.11957,-0.010057,0.032696,0.10932,-0.090629,0.056703
298,0.081039,-0.10017,-0.025185,0.046508,0.13596,0.030065,0.054401
299,0.072489,-0.081092,-0.038339,0.056046,0.13464,0.13826,0.052757
300,0.065254,-0.064649,-0.050179,0.048482,0.11162,0.23758,0.050126
301,0.069529,-0.051494,-0.063004,0.021186,0.080053,0.33723,0.049139
302,0.081039,-0.041299,-0.079448,-0.016634,0.04618,0.44246,0.048482
303,0.096825,-0.036037,-0.094905,-0.049192,0.020199,0.55362,0.049797
304,0.11195,-0.028473,-0.10444,-0.065307,0.01691,0.66905,0.050455
305,0.12379,-0.011701,-0.10576,-0.063662,0.048482,0.7789,0.052099
306,0.13234,0.010004,-0.095233,-0.048863,0.11228,0.84894,0.053086
307,0.14648,0.022501,-0.074515,-0.026171,0.18628,0.83743,0.05177
308,0.17115,0.023488,-0.048863,-0.0067681,0.2412,0.72562,0.048482
309,0.20634,0.030723,-0.018607,0.0021113,0.25896,0.54606,0.044535
310,0.24317,0.06065,0.012635,0.0034268,0.24087,0.35433,0.039602
311,0.26389,0.10538,0.042891,0.0034268,0.18924,0.19614,0.036642
312,0.24876,0.14024,0.06361,0.0034268,0.097154,0.083013,0.03434
313,0.19417,0.13432,0.072489,0.0060577,-0.038668,0.0086887,0.034011
314,0.11721,0.077751,0.071502,0.017239,-0.1985,-0.033078,0.034011
315,0.044535,-0.0077547,0.072818,0.039602,-0.34419,-0.047219,0.032367
316,-0.0031506,-0.094247,0.088932,0.06624,-0.44679,-0.034393,0.030065
317,-0.023211,-0.16364,0.12116,0.089261,-0.50138,-0.0057815,0.027105
318,-0.029789,-0.20146,0.15832,0.10077,-0.51355,0.016581,0.023817
319,-0.035051,-0.19291,0.18463,0.097483,-0.4879,0.01132,0.020199
320,-0.050179,-0.13207,0.18891,0.085315,-0.43364,-0.030118,0.017568
321,-0.085367,-0.022225,0.17115,0.076435,-0.36096,-0.098522,0.014279
322,-0.14127,0.10603,0.13563,0.070845,-0.27611,-0.18337,0.011977
323,-0.21067,0.21226,0.096825,0.066898,-0.18929,-0.27611,0.010991
324,-0.27019,0.27211,0.064596,0.062294,-0.10773,-0.36425,0.010333
325,-0.29288,0.2879,0.045193,0.056374,-0.03538,-0.42739,0.0096753
326,-0.2646,0.26817,0.038287,0.047495,0.026119,-0.45041,0.0086887
327,-0.19652,0.22015,0.038287,0.035985,0.07808,-0.42673,0.0063866
328,-0.11891,0.15207,0.039273,0.022172,0.11886,-0.35405,0.0037556
329,-0.057085,0.070187,0.041575,0.0073732,0.15175,-0.23336,0.0011247
330,-0.019265,-0.012359,0.042233,-0.0077547,0.18102,-0.06432,-0.0011774
331,0.002769,-0.078132,0.040589,-0.022883,0.19877,0.13859,-0.0031506
332,0.020528,-0.11069,0.034011,-0.036037,0.19285,0.3346,-0.007097
333,0.039273,-0.10641,0.015924,-0.051165,0.16457,0.47141,-0.011372
334,0.058019,-0.069582,-0.015319,-0.073857,0.12675,0.50659,-0.015976
335,0.075778,-0.013674,-0.05281,-0.10247,0.099127,0.4303,-0.018936
336,0.10143,0.056703,-0.088656,-0.12976,0.097812,0.27672,-0.019923
337,0.13103,0.1284,-0.11825,-0.14522,0.11886,0.094852,-0.018278
338,0.15405,0.18365,-0.13864,-0.1393,0.14648,-0.074186,-0.015648
339,0.15799,0.20732,-0.15015,-0.10609,0.16194,-0.21034,-0.012688
340,0.14221,0.1991,-0.14391,-0.041957,0.15865,-0.31097,-0.010386
341,0.11557,0.17214,-0.11891,0.038287,0.15109,-0.38266,-0.010386
342,0.091563,0.14221,-0.079448,0.11458,0.15207,-0.4343,-0.010386
343,0.079066,0.12281,-0.036037,0.16918,0.15701,-0.47244,-0.011701
344,0.080382,0.11261,-0.0008485,0.19285,0.14944,-0.49842,-0.012359
345,0.091892,0.10406,0.02579,0.18989,0.10636,-0.50237,-0.014003
346,0.10307,0.096167,0.040918,0.17148,0.011977,-0.4662,-0.01499
347,0.10472,0.093208,0.037958,0.15076,-0.12582,-0.38036,-0.014661
348,0.093208,0.096825,0.019212,0.13662,-0.27315,-0.25769,-0.013017
349,0.072489,0.10439,-0.0064392,0.13234,-0.3899,-0.12713,-0.0084125
350,0.049797,0.10998,-0.024856,0.1353,-0.44416,-0.018278,-0.0028217
351,0.035656,0.11064,-0.029789,0.13925,-0.42575,0.053415,0.0024402
352,0.031052,0.10406,-0.021238,0.13958,-0.34484,0.096167,0.0060577
353,0.033025,0.090248,-0.0008485,0.13333,-0.22251,0.13366,0.0083598
354,0.033683,0.068543,0.026447,0.11952,-0.078461,0.19647,0.010333
355,0.031052,0.035656,0.05473,0.10209,0.078409,0.29151,0.011648
356,0.020857,-0.011701,0.074462,0.085644,0.25008,0.39412,0.011977
357,0.0080309,-0.075173,0.072489,0.075778,0.43819,0.45693,0.012306
358,-0.002164,-0.14917,0.048482,0.070187,0.62531,0.43983,0.012635
359,-0.0008485,-0.21494,0.010333,0.0692,0.78054,0.33065,0.012635
360,0.012635,-0.24881,-0.02946,0.070187,0.88249,0.15273,0.012635
361,0.036314,-0.24092,-0.059716,0.065912,0.92426,-0.04097,0.013293
362,0.061965,-0.20343,-0.077146,0.036642,0.88413,-0.20508,0.014279
363,0.07808,-0.15542,-0.087012,-0.03538,0.73022,-0.31393,0.01691
364,0.077751,-0.11858,-0.093918,-0.14719,0.42865,-0.37444,0.021186
365,0.05769,-0.10872,-0.10576,-0.27315,-0.027487,-0.41128,0.025132
366,0.020199,-0.1222,-0.12056,-0.37214,-0.58426,-0.44186,0.029078
367,-0.024856,-0.15081,-0.13338,-0.40864,-1.1368,-0.4731,0.032038
368,-0.06728,-0.18304,-0.14391,-0.36293,-1.5781,-0.49842,0.03434
369,-0.094247,-0.21132,-0.15081,-0.25243,-1.8284,-0.5073,0.037629
370,-0.097536,-0.22415,-0.15048,-0.11497,-1.8359,-0.49382,0.041247
371,-0.084052,-0.2202,-0.14029,0.010004,-1.6297,-0.45995,0.045193
372,-0.071884,-0.20146,-0.11694,0.097812,-1.2992,-0.42213,0.04881
373,-0.065635,-0.16726,-0.08175,0.14221,-0.93615,-0.39976,0.050784
374,-0.059387,-0.11036,-0.040641,0.1478,-0.60892,-0.41292,0.050126
375,-0.045903,-0.026829,-0.004466,0.12248,-0.35043,-0.46028,0.047824
376,-0.018607,0.07512,0.018884,0.083999,-0.1541,-0.51092,0.044864
377,0.019212,0.17016,0.027105,0.042891,-0.002164,-0.5129,0.045851
378,0.060979,0.22837,0.02283,0.015924,0.13991,-0.41423,0.049468
379,0.099785,0.23067,0.010991,0.0090175,0.30237,-0.19817,0.055059
380,0.12642,0.182,0.002769,0.016253,0.49837,0.097154,0.057361
381,0.13432,0.1034,0.0096753,0.029736,0.70687,0.38689,0.055717
382,0.11853,0.025132,0.036314,0.044206,0.87624,0.57434,0.050126
383,0.077422,-0.034393,0.07216,0.055717,0.94201,0.59276,0.043549
384,0.018226,-0.068266,0.099127,0.059005,0.87887,0.43885,0.039602
385,-0.045246,-0.079777,0.10702,0.050784,0.70589,0.18332,0.039602
386,-0.089972,-0.073199,0.10242,0.038287,0.48292,-0.082079,0.04322
387,-0.098851,-0.050836,0.098798,0.028421,0.27672,-0.28861,0.048482
388,-0.072213,-0.010386,0.10274,0.021843,0.12905,-0.40503,0.053415
389,-0.021896,0.049468,0.10735,0.020857,0.055059,-0.43298,0.053415
390,0.030723,0.12017,0.10472,0.026119,0.04881,-0.39154,0.050126
391,0.067227,0.18167,0.093536,0.039602,0.090248,-0.2988,0.044864
392,0.07808,0.21193,0.081039,0.058348,0.16194,-0.16035,0.04026
393,0.067885,0.1991,0.072818,0.074791,0.24679,0.01132,0.035985
394,0.052099,0.15306,0.068871,0.076435,0.32341,0.19746,0.033683
395,0.040589,0.093536,0.067227,0.056046,0.36814,0.36979,0.031709
396,0.033683,0.041904,0.059992,0.013622,0.36452,0.51416,0.029407
397,0.030723,0.010991,0.047495,-0.041628,0.30829,0.63847,0.027434
398,0.03434,0.0054,0.033683,-0.088985,0.20009,0.75423,0.026447
399,0.05473,0.019212,0.024474,-0.11793,0.052757,0.85552,0.025132
400,0.10538,0.051113,0.027763,-0.12286,-0.098851,0.92623,0.023488
401,0.18562,0.1011,0.035985,-0.10773,-0.20902,0.95912,0.022172
402,0.26981,0.16359,0.036971,-0.080106,-0.25309,0.95056,0.020528
403,0.32045,0.22048,0.023817,-0.047548,-0.22645,0.89926,0.017897
404,0.31059,0.25435,0.0040845,-0.01499,-0.14785,0.80882,0.014608
405,0.23363,0.26027,-0.004466,0.01987,-0.047877,0.68385,0.010662
406,0.10768,0.23429,0.0090175,0.054401,0.04026,0.53521,0.0057288
407,-0.041957,0.16622,0.037958,0.082355,0.094852,0.37768,0.0011247
408,-0.18008,0.050784,0.064267,0.093208,0.1136,0.22475,-0.0018351
409,-0.27052,-0.079777,0.074462,0.084328,0.10801,0.095839,-0.0038083
410,-0.29716,-0.17087,0.068543,0.062952,0.096496,0.0083598,-0.004466
411,-0.27677,-0.18633,0.052757,0.038944,0.090577,-0.037353,-0.0061104
412,-0.24947,-0.13207,0.032038,0.015595,0.091563,-0.056098,-0.0090702
413,-0.25539,-0.04689,0.01132,-0.0061104,0.09255,-0.062676,-0.012359
414,-0.30012,0.034669,-0.004466,-0.027487,0.088932,-0.068924,-0.015648
415,-0.35438,0.095839,-0.012688,-0.044917,0.083013,-0.075501,-0.016963
416,-0.37872,0.13201,-0.013345,-0.055769,0.080053,-0.07879,-0.016963
417,-0.35043,0.14714,-0.0090702,-0.054783,0.085972,-0.076817,-0.01499
418,-0.2794,0.14352,-0.0028217,-0.043272,0.09255,-0.072213,-0.013017
419,-0.18633,0.12313,0.0024402,-0.025842,0.090577,-0.07287,-0.010715
420,-0.09622,0.093536,0.0070443,-0.011372,0.074791,-0.081421,-0.010386
421,-0.024198,0.064267,0.0096753,-0.0077547,0.052757,-0.1005,-0.0097279
422,0.023817,0.038287,0.0080309,-0.011701,0.034669,-0.12911,-0.0093991
423,0.047824,0.020857,0.0014536,-0.017621,0.024145,-0.15575,-0.010057
424,0.057361,0.016253,-0.011372,-0.022225,0.021514,-0.1712,-0.01203
425,0.058348,0.024803,-0.023211,-0.026829,0.027434,-0.17975,-0.015648
426,0.059334,0.039931,-0.029789,-0.028473,0.040918,-0.19126,-0.01795
427,0.065254,0.048482,-0.028802,-0.026171,0.05473,-0.20902,-0.01795
428,0.073804,0.04026,-0.026171,-0.019923,0.067556,-0.23237,-0.01499
429,0.080053,0.018555,-0.028473,-0.011701,0.075449,-0.25243,-0.010057
430,0.08367,-0.0080836,-0.035708,-0.0008485,0.084986,-0.26592,-0.0034794
431,0.085315,-0.033406,-0.045246,0.011977,0.10373,-0.27282,0.0011247
432,0.083342,-0.047877,-0.056756,0.023488,0.13267,-0.26986,0.0040845
433,0.075778,-0.043272,-0.063991,0.035327,0.16786,-0.24684,0.0044134
434,0.062952,-0.019265,-0.060045,0.051113,0.20897,-0.18863,0.0044134
435,0.050455,0.016581,-0.046232,0.071173,0.25271,-0.091945,0.0057288
436,0.041247,0.058019,-0.022225,0.094194,0.28658,0.0373,0.0090175
437,0.044864,0.10307,0.01132,0.11097,0.29612,0.17575,0.013622
438,0.065254,0.14287,0.04618,0.1113,0.26159,0.29678,0.017239
439,0.099456,0.15931,0.066569,0.085972,0.17411,0.37439,0.01987
440,0.13234,0.14583,0.060979,0.036314,0.039602,0.3859,0.01987
441,0.14944,0.10669,0.028092,-0.022554,-0.11299,0.32802,0.019212
442,0.1432,0.060979,-0.018278,-0.076159,-0.25177,0.21259,0.018555
443,0.12017,0.028421,-0.059058,-0.10806,-0.34978,0.071502,0.019212
444,0.08959,0.019212,-0.07583,-0.11135,-0.39089,-0.056427,0.022172
445,0.068214,0.037958,-0.063662,-0.090629,-0.37444,-0.14818,0.025461
446,0.065254,0.069858,-0.029131,-0.057085,-0.32018,-0.20343,0.02875
447,0.076106,0.085972,0.015266,-0.019923,-0.25112,-0.23862,0.031709
448,0.089919,0.061307,0.053743,0.015595,-0.18337,-0.26789,0.031709
449,0.093536,-0.0077547,0.073147,0.045193,-0.12483,-0.29288,0.031052
450,0.072818,-0.10181,0.071831,0.062623,-0.079777,-0.30768,0.032038
451,0.023488,-0.18173,0.059334,0.069858,-0.051494,-0.30965,0.035985
452,-0.040641,-0.21001,0.045522,0.0692,-0.035051,-0.29847,0.043549
453,-0.09326,-0.18205,0.037629,0.065912,-0.021896,-0.26296,0.051113
454,-0.11431,-0.11529,0.039273,0.065912,-0.0080836,-0.19356,0.055388
455,-0.10017,-0.035051,0.051441,0.072489,0.010662,-0.10609,0.056046
456,-0.064978,0.034998,0.070516,0.083342,0.032367,-0.015976,0.053743
457,-0.024856,0.081368,0.088603,0.088275,0.049139,0.060979,0.051441
458,0.0096753,0.10603,0.096825,0.081697,0.055388,0.12017,0.049468
459,0.035985,0.11228,0.089261,0.06624,0.050784,0.1603,0.047824
460,0.052757,0.10834,0.065254,0.050784,0.034998,0.18397,0.048153
461,0.064596,0.097812,0.030065,0.041247,0.015595,0.20042,0.047824
462,0.073804,0.079724,-0.0028217,0.036971,0.00079584,0.22015,0.045851
463,0.078737,0.057032,-0.025842,0.035327,-0.0018351,0.24317,0.046508
464,0.07808,0.033354,-0.034393,0.031381,0.010333,0.26948,0.047166
465,0.074133,0.017568,-0.032749,0.027434,0.029407,0.29711,0.050126
466,0.071502,0.018884,-0.027816,0.027434,0.050455,0.32572,0.052757
467,0.06624,0.035327,-0.022554,0.031052,0.072818,0.35236,0.053743
468,0.057361,0.056046,-0.01499,0.041247,0.093865,0.38097,0.052757
469,0.046508,0.066898,-0.0034794,0.053415,0.11228,0.41813,0.04881
470,0.035985,0.062623,0.011977,0.067227,0.12642,0.47009,0.045193
471,0.030723,0.039931,0.030723,0.080053,0.13366,0.52633,0.04026
472,0.031381,0.0057288,0.049139,0.093536,0.12905,0.5602,0.036971
473,0.032696,-0.031104,0.061307,0.1034,0.10998,0.5477,0.033683
474,0.028421,-0.06432,0.062952,0.10636,0.079395,0.48028,0.031709
475,0.016581,-0.088985,0.053086,0.095839,0.048153,0.37603,0.029736
476,0.0037556,-0.1074,0.033354,0.0692,0.021186,0.2731,0.027105
477,-0.0015062,-0.11891,0.0044134,0.02579,0.0014536,0.19088,0.025132
478,0.0060577,-0.1222,-0.028144,-0.022225,-0.011372,0.12017,0.023488
479,0.024474,-0.10905,-0.058729,-0.053138,-0.021567,0.042891,0.022501
480,0.044864,-0.072542,-0.082736,-0.054454,-0.030118,-0.05281,0.021186
481,0.06065,-0.011701,-0.089314,-0.0265,-0.039326,-0.16791,0.018555
482,0.069858,0.067227,-0.073528,0.018884,-0.048534,-0.2942,0.015924
483,0.074791,0.14747,-0.035708,0.072489,-0.051165,-0.42607,0.013293
484,0.079066,0.21489,0.01987,0.12774,-0.03538,-0.54874,0.01132
485,0.08367,0.25534,0.081697,0.17707,0.0017824,-0.6474,0.0090175
486,0.084657,0.25567,0.13497,0.21193,0.05177,-0.70956,0.0080309
487,0.079066,0.21489,0.16095,0.2264,0.10242,-0.73685,0.0057288
488,0.059005,0.13826,0.15931,0.22015,0.13892,-0.74212,0.0040845
489,0.018884,0.036314,0.13728,0.19845,0.15471,-0.74672,0.00046697
490,-0.042286,-0.072213,0.10472,0.16654,0.14517,-0.76678,-0.0041372
491,-0.11036,-0.16561,0.0692,0.1307,0.10538,-0.8069,-0.0087413
492,-0.16101,-0.22316,0.034669,0.092879,0.04026,-0.84472,-0.013017
493,-0.18304,-0.23171,0.0054,0.053086,-0.037682,-0.85163,-0.015319
494,-0.17219,-0.19521,-0.012359,0.014279,-0.11299,-0.824,-0.014332
495,-0.13305,-0.13601,-0.017621,-0.016634,-0.1666,-0.76547,-0.01203
496,-0.08175,-0.078461,-0.011701,-0.034064,-0.18534,-0.66582,-0.0093991
497,-0.034064,-0.036366,0.0001381,-0.039655,-0.16232,-0.49283,-0.0064392
498,0.0001381,-0.013345,0.010662,-0.038011,-0.10346,-0.19258,-0.0047949
499,0.022172,-0.0074258,0.017897,-0.031433,-0.021896,0.2754,-0.0038083
500,0.036642,-0.015319,0.021186,-0.024527,0.065912,0.87328,-0.0034794
501,0.044864,-0.029789,0.019541,-0.017292,0.14583,1.4866,-0.0041372
502,0.046837,-0.039326,0.013293,-0.0057815,0.20634,1.9681,-0.0051238
503,0.04618,-0.037024,0.0054,0.0054,0.24021,2.2105,-0.0084125
504,0.042891,-0.021896,0.00046697,0.010333,0.24482,2.1825,-0.012688
505,0.039931,-0.002164,-0.00019077,0.0060577,0.22048,1.9395,-0.016963
506,0.036642,0.015924,0.0034268,-0.007097,0.16523,1.5734,-0.019923
507,0.031709,0.022172,0.0073732,-0.022225,0.081697,1.1745,-0.020909
508,0.025132,0.01691,0.0067154,-0.028473,-0.020581,0.80323,-0.017621
509,0.017568,0.0080309,0.0034268,-0.018607,-0.12549,0.48982,-0.012359
510,0.010004,0.0060577,-0.0034794,0.010004,-0.21297,0.24514,-0.0064392
511,0.00079584,0.011648,-0.0067681,0.045522,-0.27348,0.067556,-0.002164
512,-0.0084125,0.021514,-0.0057815,0.073804,-0.30045,-0.054783,0.0011247
513,-0.013017,0.029078,-0.004466,0.083342,-0.30472,-0.13272,0.0037556
514,-0.010386,0.029736,-0.0024928,0.07512,-0.30341,-0.17877,0.0050711
515,0.0030979,0.022172,-0.0028217,0.053086,-0.30998,-0.19981,0.0073732
516,0.022172,0.0030979,-0.0041372,0.026119,-0.32676,-0.20014,0.0096753
517,0.040589,-0.021238,-0.0077547,0.00079584,-0.34616,-0.18666,0.012964
518,0.054072,-0.040313,-0.012359,-0.019594,-0.35603,-0.17219,0.015595
519,0.055059,-0.044917,-0.016305,-0.03538,-0.34484,-0.16298,0.017239
520,0.04026,-0.039326,-0.018278,-0.046561,-0.31097,-0.16068,0.017568
521,0.01691,-0.032091,-0.018278,-0.051165,-0.25342,-0.16199,0.01691
522,-0.0028217,-0.032749,-0.016963,-0.049521,-0.18534,-0.16462,0.015924
523,-0.013017,-0.048534,-0.016963,-0.041299,-0.1199,-0.17548,0.016581
524,-0.012688,-0.079119,-0.019594,-0.035051,-0.065635,-0.19751,0.018555
525,-0.0047949,-0.11825,-0.026171,-0.03242,-0.0265,-0.235,0.021843
526,0.0096753,-0.14851,-0.025185,-0.033078,-0.0028217,-0.27907,0.02579
527,0.029736,-0.16134,-0.01499,-0.037024,0.0080309,-0.32281,0.029407
528,0.055388,-0.1564,-0.0028217,-0.041957,0.01132,-0.36129,0.031381
529,0.086301,-0.13799,0.0070443,-0.042944,0.01132,-0.39023,0.033354
530,0.11919,-0.1097,0.011977,-0.04097,0.010991,-0.41325,0.034669
531,0.15405,-0.068924,0.01132,-0.036037,0.015266,-0.43758,0.037629
532,0.19187,-0.018607,0.0073732,-0.035051,0.031052,-0.46324,0.041247
533,0.23133,0.039602,0.0030979,-0.039984,0.056703,-0.48757,0.045193
534,0.25961,0.10274,0.0021113,-0.050507,0.088932,-0.51158,0.049468
535,0.2629,0.17246,0.002769,-0.064649,0.11656,-0.53789,0.052428
536,0.23955,0.24416,0.0077021,-0.077475,0.13004,-0.55894,0.053086
537,0.19417,0.30862,0.012964,-0.083723,0.12807,-0.56486,0.052099
538,0.13497,0.34084,0.017568,-0.07287,0.1182,-0.53789,0.050455
539,0.072818,0.33065,0.01987,-0.04985,0.10702,-0.47606,0.048153
540,0.015924,0.2777,0.020857,-0.018607,0.095181,-0.38727,0.046508
541,-0.039984,0.19746,0.021843,0.0096753,0.07808,-0.28137,0.045193
542,-0.10148,0.10274,0.021514,0.026447,0.044535,-0.17515,0.045193
543,-0.16364,0.0067154,0.019212,0.034669,-0.0061104,-0.086354,0.045851
544,-0.21264,-0.071555,0.011648,0.037958,-0.063662,-0.023869,0.047824
545,-0.23402,-0.11332,-0.0011774,0.044535,-0.11299,0.013622,0.050126
546,-0.22185,-0.10839,-0.01499,0.059992,-0.14358,0.031381,0.053086
547,-0.17613,-0.062676,-0.026171,0.082355,-0.15048,0.030394,0.054072
548,-0.10773,-0.0008485,-0.032091,0.10899,-0.13371,0.0093464,0.051113
549,-0.038339,0.054401,-0.036366,0.12938,-0.099838,-0.025842,0.046508
550,0.010004,0.091892,-0.037682,0.1376,-0.052481,-0.061689,0.041575
551,0.029078,0.1182,-0.034064,0.13267,-0.0038083,-0.08471,0.037629
552,0.020199,0.13826,-0.030775,0.11721,0.036971,-0.085696,0.034998
553,-0.0051238,0.1524,-0.02946,0.094852,0.064267,-0.058071,0.033025
554,-0.028802,0.15175,-0.030118,0.071173,0.08367,-0.0041372,0.031381
555,-0.047877,0.12807,-0.029789,0.050784,0.10472,0.058019,0.029078
556,-0.063333,0.077422,-0.027158,0.04322,0.13793,0.10143,0.026119
557,-0.07583,0.00079584,-0.016963,0.051113,0.18792,0.10669,0.023159
558,-0.086354,-0.087012,-0.0011774,0.07216,0.2458,0.062623,0.020528
559,-0.094576,-0.16035,0.014279,0.095181,0.29711,-0.023869,0.018555
560,-0.099509,-0.19422,0.02283,0.10801,0.32901,-0.12746,0.018226
561,-0.096549,-0.17613,0.027105,0.10505,0.33328,-0.2133,0.019212
562,-0.083723,-0.11398,0.027105,0.088603,0.31421,-0.25539,0.01987
563,-0.062018,-0.0265,0.018884,0.058676,0.27474,-0.25276,0.020199
564,-0.033078,0.060321,0.0011247,0.01132,0.20864,-0.22645,0.018884
565,-0.0034794,0.12478,-0.029131,-0.051494,0.10932,-0.20508,0.015595
566,0.022172,0.16194,-0.061031,-0.11694,-0.023211,-0.20244,0.01132
567,0.033354,0.17674,-0.078461,-0.16857,-0.17416,-0.20606,0.0067154
568,0.029078,0.18397,-0.070897,-0.19093,-0.31755,-0.19192,0.0040845
569,0.011977,0.1843,-0.036366,-0.17975,-0.42575,-0.12648,0.0030979
570,-0.0038083,0.16852,0.013622,-0.14095,-0.47606,0.0050711,0.0017824
571,-0.011043,0.11787,0.061965,-0.087998,-0.45567,0.18036,-0.0018351
572,-0.004466,0.022172,0.094194,-0.039326,-0.36951,0.35104,-0.0067681
573,0.015924,-0.098851,0.10636,-0.0051238,-0.24125,0.47272,-0.012359
574,0.041247,-0.2008,0.10439,0.012306,-0.092274,0.52764,-0.016963
575,0.063938,-0.24585,0.092221,0.023159,0.055717,0.52797,-0.019594
576,0.079395,-0.22218,0.072489,0.032367,0.18299,0.50824,-0.018278
577,0.083342,-0.14292,0.049797,0.044535,0.27573,0.49508,-0.015319
578,0.070516,-0.035051,0.035985,0.05769,0.32111,0.49114,-0.012688
579,0.039602,0.075449,0.04322,0.071831,0.31421,0.47305,-0.01203
580,-0.004466,0.16523,0.071831,0.080053,0.25369,0.4076,-0.012688
581,-0.05281,0.21094,0.10538,0.071173,0.15964,0.27639,-0.014332
582,-0.095233,0.20009,0.1205,0.047166,0.058348,0.09255,-0.016963
583,-0.12483,0.13629,0.10702,0.018226,-0.018607,-0.098193,-0.016963
584,-0.13897,0.051113,0.068543,-0.0034794,-0.051494,-0.24454,-0.016305
585,-0.13799,-0.018607,0.024803,-0.012359,-0.044588,-0.32149,-0.014332
586,-0.12615,-0.052481,-0.0087413,-0.0077547,-0.0061104,-0.34287,-0.013674
587,-0.10674,-0.054783,-0.022883,0.0017824,0.044535,-0.34912,-0.014003
588,-0.082079,-0.039984,-0.024198,0.010004,0.093536,-0.38201,-0.012688
589,-0.051494,-0.016634,-0.016634,0.016581,0.1307,-0.45896,-0.010715
590,-0.018278,0.014279,0.0001381,0.021186,0.15471,-0.54907,-0.0064392
591,0.0083598,0.048153,0.023817,0.027763,0.17115,-0.59281,-0.0011774
592,0.024474,0.078409,0.051441,0.040918,0.18463,-0.52013,0.0044134
593,0.031709,0.093865,0.072818,0.059005,0.19713,-0.29387,0.0096753
594,0.039273,0.093865,0.081697,0.078409,0.21686,0.062294,0.012964
595,0.051441,0.079724,0.073476,0.094852,0.2435,0.46351,0.014937
596,0.064267,0.060979,0.05473,0.10242,0.27507,0.79961,0.015595
597,0.078409,0.044206,0.029078,0.10307,0.30335,0.9772,0.015924
598,0.093208,0.030723,0.0047422,0.098469,0.31223,0.96635,0.015266
599,0.10176,0.015924,-0.015648,0.090248,0.29382,0.79961,0.015924
600,0.096167,-0.0057815,-0.028144,0.074791,0.24975,0.5579,0.016581
601,0.076764,-0.030118,-0.03538,0.054401,0.19318,0.31947,0.016581
602,0.050126,-0.043601,-0.036037,0.033683,0.13497,0.13662,0.016253
603,0.030065,-0.037353,-0.034722,0.013951,0.084328,0.024474,0.017568
604,0.028092,-0.0087413,-0.036366,0.00079584,0.035656,-0.031762,0.021514
605,0.044535,0.031709,-0.042944,-0.0028217,-0.015976,-0.058729,0.026119
606,0.070187,0.072489,-0.048863,0.0037556,-0.071226,-0.077803,0.030394
607,0.088932,0.10011,-0.045246,0.017239,-0.12286,-0.09918,0.033354
608,0.094852,0.11228,-0.0265,0.03434,-0.15903,-0.11858,0.034011
609,0.085972,0.11426,0.0063866,0.04618,-0.17383,-0.12253,0.034669
610,0.067556,0.10998,0.043877,0.055388,-0.16298,-0.095562,0.037629
611,0.042233,0.098798,0.075449,0.064925,-0.12845,-0.039984,0.042233
612,0.018226,0.067556,0.10077,0.077751,-0.07287,0.029078,0.048482
613,0.0001381,0.0014536,0.11787,0.089919,-0.014661,0.09255,0.052757
614,-0.014661,-0.09918,0.11952,0.089919,0.024474,0.133,0.05473
615,-0.027816,-0.20639,0.094852,0.068214,0.027763,0.14221,0.054072
616,-0.039984,-0.28137,0.04618,0.024474,-0.014332,0.12248,0.052428
617,-0.04985,-0.30078,-0.015648,-0.027158,-0.092931,0.081368,0.049468
618,-0.048205,-0.25704,-0.07287,-0.07583,-0.18436,0.032696,0.047824
619,-0.027158,-0.1689,-0.11168,-0.11562,-0.2623,-0.011043,0.046837
620,0.0086887,-0.06136,-0.1222,-0.13832,-0.31426,-0.038668,0.047166
621,0.049139,0.044864,-0.10247,-0.1393,-0.33827,-0.048534,0.045851
622,0.085644,0.13563,-0.056756,-0.11924,-0.32972,-0.040641,0.043549
623,0.11064,0.207,0.0017824,-0.085039,-0.27775,-0.02354,0.042233
624,0.12412,0.25698,0.057361,-0.042286,-0.16824,-0.0031506,0.042562
625,0.12445,0.27869,0.10209,0.002769,0.00046697,0.013622,0.044864
626,0.11064,0.27014,0.13103,0.046837,0.22114,0.023817,0.048153
627,0.085972,0.23594,0.14254,0.081697,0.47404,0.022172,0.047824
628,0.056703,0.18858,0.13267,0.1034,0.72759,0.010333,0.046508
629,0.028092,0.13464,0.10242,0.11327,0.93412,-0.004466,0.043877
630,0.0014536,0.079066,0.059663,0.11162,1.0315,-0.019923,0.039602
631,-0.021567,0.022501,0.013622,0.10472,0.97457,-0.036366,0.038287
632,-0.033735,-0.026829,-0.032749,0.099456,0.76574,-0.049192,0.0373
633,-0.029789,-0.056756,-0.076159,0.097483,0.45825,-0.052152,0.037958
634,-0.0051238,-0.061689,-0.11168,0.094194,0.12905,-0.041628,0.037629
635,0.032038,-0.041299,-0.13404,0.084986,-0.14818,-0.022883,0.035327
636,0.07216,-0.0015062,-0.13766,0.070187,-0.32741,-0.00051963,0.031709
637,0.10505,0.050455,-0.11924,0.054072,-0.40305,0.014608,0.027105
638,0.12774,0.10505,-0.082079,0.040918,-0.40207,0.013951,0.023488
639,0.14352,0.16128,-0.035051,0.036971,-0.36227,0.0021113,0.021186
640,0.14912,0.21094,0.0086887,0.036314,-0.31459,-0.012688,0.019541
641,0.14616,0.2458,0.039931,0.034998,-0.27447,-0.022225,0.018555
642,0.13629,0.25764,0.053743,0.030065,-0.24849,-0.023869,0.016581
643,0.1113,0.24251,0.05473,0.021843,-0.23402,-0.022225,0.014279
644,0.062623,0.19614,0.048153,0.0093464,-0.22678,-0.0265,0.0096753
645,-0.0097279,0.11294,0.03434,-0.0047949,-0.22152,-0.039655,0.0070443
646,-0.089972,0.0047422,0.011648,-0.015976,-0.21264,-0.051165,0.0037556
647,-0.15607,-0.11036,-0.018607,-0.024856,-0.19652,-0.051165,0.0030979
648,-0.18896,-0.20771,-0.051494,-0.031762,-0.17416,-0.036366,0.0034268
649,-0.18304,-0.27052,-0.078461,-0.039655,-0.15147,-0.013017,0.0037556
650,-0.14621,-0.29387,-0.094905,-0.050507,-0.13108,0.0083598,0.0021113
651,-0.097536,-0.27841,-0.10313,-0.061031,-0.1176,0.025132,-0.0024928
652,-0.053796,-0.22974,-0.10115,-0.066951,-0.11201,0.035985,-0.0087413
653,-0.014661,-0.14719,-0.090958,-0.066951,-0.11102,0.041575,-0.014332
654,0.01987,-0.041299,-0.077475,-0.062676,-0.11036,0.042562,-0.01795
655,0.040589,0.064267,-0.063004,-0.059058,-0.10872,0.033683,-0.018278
656,0.041575,0.15339,-0.041299,-0.057085,-0.10839,0.01987,-0.017621
657,0.023159,0.22179,-0.0054526,-0.054125,-0.10905,0.0057288,-0.016963
658,-0.0067681,0.26817,0.044535,-0.04393,-0.10806,-0.0064392,-0.015319
659,-0.039326,0.27902,0.10373,-0.020581,-0.10115,-0.013674,-0.015648
660,-0.059058,0.23298,0.16391,0.021186,-0.083065,-0.01203,-0.016305
661,-0.059387,0.12511,0.20601,0.069858,-0.055769,-0.0038083,-0.015976
662,-0.050507,-0.033406,0.21719,0.10834,-0.027816,0.0054,-0.015976
663,-0.043601,-0.20508,0.1945,0.12281,-0.010057,0.0067154,-0.015976
664,-0.04985,-0.34912,0.14188,0.11195,-0.0090702,-0.0018351,-0.015976
665,-0.075501,-0.43002,0.074133,0.083342,-0.020909,-0.019923,-0.016305
666,-0.11398,-0.43561,0.010662,0.049139,-0.036695,-0.042615,-0.016634
667,-0.14983,-0.3705,-0.029131,0.02283,-0.04985,-0.059716,-0.014661
668,-0.16693,-0.25046,-0.038339,0.0090175,-0.056756,-0.067609,-0.011372
669,-0.15542,-0.10313,-0.025842,0.0034268,-0.060702,-0.069582,-0.0074258
670,-0.11957,0.033025,-0.0041372,0.0040845,-0.063004,-0.073199,-0.0047949
671,-0.075173,0.12313,0.017568,0.0067154,-0.06728,-0.082408,-0.0028217
672,-0.035051,0.14977,0.030065,0.0060577,-0.074844,-0.090958,-0.0011774
673,-0.0074258,0.12248,0.030723,0.00079584,-0.083065,-0.096549,-0.0008485
674,0.0093464,0.0692,0.020528,-0.007097,-0.093918,-0.095233,0.00079584
675,0.021843,0.017568,0.0057288,-0.011701,-0.10773,-0.088327,0.0030979
676,0.030394,-0.016305,-0.0064392,-0.014003,-0.1222,-0.076159,0.0067154
677,0.035985,-0.037682,-0.0087413,-0.013345,-0.1347,-0.063991,0.011977
678,0.040589,-0.04689,-0.0057815,-0.0097279,-0.14687,-0.053467,0.017239
679,0.048153,-0.043601,-0.0041372,-0.004466,-0.15739,-0.047219,0.021514
680,0.063281,-0.026171,-0.0047949,0.0001381,-0.16265,-0.044588,0.023817
681,0.080053,-0.002164,-0.010386,0.0011247,-0.15311,-0.042615,0.023817
682,0.088932,0.026119,-0.020252,-0.0054526,-0.12615,-0.036695,0.023817
683,0.089919,0.053415,-0.025842,-0.014661,-0.082079,-0.015319,0.024145
684,0.090248,0.073476,-0.02354,-0.020581,-0.02354,0.030394,0.026119
685,0.090905,0.081697,-0.013017,-0.023211,0.038616,0.094852,0.02875
686,0.094194,0.082355,0.0001381,-0.017621,0.090905,0.1603,0.031052
687,0.096825,0.077422,0.0086887,-0.011043,0.12215,0.21456,0.032367
688,0.096496,0.070516,0.0080309,-0.0067681,0.13234,0.25501,0.033354
689,0.090248,0.059663,-0.00019077,-0.0034794,0.12675,0.28231,0.034669
690,0.081697,0.044535,-0.014003,-0.0015062,0.11754,0.30302,0.036971
691,0.076764,0.029736,-0.023211,-0.002164,0.11458,0.32506,0.040918
692,0.074462,0.023159,-0.01795,-0.004466,0.12544,0.35301,0.047166
693,0.072818,0.029078,0.0034268,-0.004466,0.14977,0.38458,0.052428
694,0.069858,0.045851,0.02875,0.0021113,0.17937,0.41089,0.056374
695,0.067227,0.06624,0.047495,0.013293,0.20305,0.42076,0.056374
696,0.066898,0.07808,0.054072,0.026447,0.21127,0.40892,0.054401
697,0.07216,0.076435,0.048153,0.038944,0.19055,0.38031,0.050784
698,0.08367,0.064925,0.036642,0.049468,0.13728,0.34315,0.048153
699,0.097483,0.050455,0.02283,0.052428,0.06065,0.30302,0.047495
700,0.10801,0.036314,0.0096753,0.050455,-0.015319,0.25863,0.046837
701,0.10899,0.025461,-0.0024928,0.045522,-0.067937,0.20535,0.045193
702,0.10143,0.015924,-0.013017,0.041247,-0.091287,0.13958,0.044864
703,0.090248,0.0090175,-0.023869,0.032696,-0.088985,0.063281,0.043549
704,0.07808,0.0077021,-0.029131,0.020528,-0.070897,-0.019594,0.043877
705,0.063938,0.015595,-0.027158,0.0067154,-0.045574,-0.10214,0.045522
706,0.049139,0.031052,-0.020909,-0.004466,-0.015648,-0.17252,0.04881
707,0.039602,0.046837,-0.01203,-0.0080836,0.01691,-0.21987,0.049468
708,0.037958,0.052099,-0.0018351,-0.0051238,0.055059,-0.23632,0.048153
709,0.042562,0.045193,0.0057288,-0.00051963,0.097154,-0.22711,0.045522
710,0.046837,0.027763,0.0070443,-0.00019077,0.14188,-0.20409,0.042562
711,0.046508,0.0060577,0.0024402,-0.0084125,0.19187,-0.18107,0.04026
712,0.044206,-0.0087413,-0.0031506,-0.016634,0.25041,-0.1689,0.038616
713,0.045193,-0.0031506,0.0040845,-0.014661,0.3175,-0.17383,0.036971
714,0.048153,0.023159,0.024145,0.0001381,0.38623,-0.1883,0.034998
715,0.055388,0.061636,0.054072,0.020857,0.44904,-0.20212,0.032367
716,0.062294,0.099785,0.081697,0.031381,0.50594,-0.20113,0.027434
717,0.06361,0.12379,0.10077,0.019541,0.5579,-0.17712,0.023817
718,0.05769,0.12577,0.10801,-0.0084125,0.59111,-0.11924,0.023159
719,0.039931,0.1057,0.10242,-0.033078,0.57664,-0.030447,0.02283
720,0.013622,0.073804,0.086301,-0.03242,0.49048,0.060979,0.02283
721,-0.014661,0.042562,0.062623,0.0030979,0.32243,0.12017,0.022501
722,-0.035051,0.018555,0.037629,0.058676,0.087288,0.12478,0.021514
723,-0.041628,0.002769,0.013622,0.10472,-0.18436,0.069529,0.019541
724,-0.033406,-0.0061104,-0.0047949,0.11952,-0.44745,-0.035051,0.016253
725,-0.013345,-0.0084125,-0.011043,0.10044,-0.65299,-0.1666,0.012306
726,0.013293,-0.0057815,-0.0031506,0.060979,-0.7602,-0.29223,0.0096753
727,0.039273,0.00046697,0.010004,0.019541,-0.75428,-0.39089,0.0073732
728,0.055388,0.0077021,0.01691,-0.0041372,-0.6576,-0.4583,0.0050711
729,0.057032,0.010662,0.014279,-0.00019077,-0.51257,-0.4981,0.0017824
730,0.045851,0.0077021,0.0054,0.033025,-0.36425,-0.51783,-0.0031506
731,0.027105,0.0021113,-0.0031506,0.086959,-0.23336,-0.52539,-0.0080836
732,0.0093464,-0.0011774,-0.0093991,0.14944,-0.12121,-0.52473,-0.013017
733,-0.0041372,0.0011247,-0.014003,0.20272,-0.020581,-0.50862,-0.015319
734,-0.016305,0.0096753,-0.017292,0.23199,0.067227,-0.46422,-0.016634
735,-0.026171,0.022501,-0.015976,0.23331,0.12248,-0.38793,-0.016305
736,-0.038668,0.03434,-0.010386,0.20469,0.11689,-0.29091,-0.014661
737,-0.056427,0.038944,-0.0054526,0.14944,0.037629,-0.1814,-0.013017
738,-0.079119,0.036642,-0.002164,0.076764,-0.10444,-0.067937,-0.012359
739,-0.1051,0.032367,-0.00019077,0.0047422,-0.27118,0.036642,-0.012359
740,-0.12384,0.034998,0.00079584,-0.054125,-0.4093,0.12346,-0.011372
741,-0.12746,0.039931,0.0011247,-0.087998,-0.47639,0.19779,-0.011043
742,-0.12023,0.042233,-0.0018351,-0.091945,-0.45534,0.26882,-0.0093991
743,-0.10773,0.046837,-0.0054526,-0.073857,-0.35603,0.35005,-0.0090702
744,-0.091616,0.054401,-0.0064392,-0.045574,-0.21001,0.43753,-0.0093991
745,-0.07024,0.061636,-0.002164,-0.019265,-0.054783,0.51482,-0.011043
746,-0.049192,0.064596,0.0063866,-0.0018351,0.083342,0.56842,-0.014003
747,-0.033735,0.062294,0.015595,0.0021113,0.19154,0.58322,-0.01499
748,-0.023211,0.05473,0.024145,-0.004466,0.27244,0.54902,-0.01499
749,-0.014003,0.042562,0.029736,-0.014661,0.32966,0.4691,-0.012688
750,-0.0031506,0.024474,0.030723,-0.019265,0.35137,0.35663,-0.010057
751,0.0060577,0.0024402,0.026447,-0.0093991,0.32243,0.22541,-0.0077547
752,0.010662,-0.019265,0.016581,0.01987,0.23922,0.098798,-0.0064392
753,0.0096753,-0.034064,0.0047422,0.062294,0.12379,0.0093464,-0.0038083
754,0.0070443,-0.040641,-0.0061104,0.10472,0.018226,-0.021238,0.0017824
755,0.0047422,-0.040641,-0.011372,0.133,-0.040641,0.0067154,0.0080309
756,0.0040845,-0.035051,-0.0093991,0.14056,-0.044588,0.077422,0.013951
757,0.0060577,-0.025514,-0.0034794,0.13201,-0.0041372,0.17378,0.017897
758,0.01132,-0.013674,0.0044134,0.11491,0.059005,0.27441,0.021186
759,0.016581,-0.0008485,0.0073732,0.091563,0.11689,0.3586,0.02283
760,0.02283,0.0077021,0.0011247,0.059992,0.1501,0.41484,0.022501
761,0.025132,0.014279,-0.010715,0.024145,0.15076,0.42701,0.021186
762,0.023159,0.02283,-0.02354,-0.013017,0.12017,0.38623,0.018884
763,0.022501,0.034011,-0.035051,-0.045574,0.061965,0.30467,0.017897
764,0.028092,0.041575,-0.038339,-0.071226,-0.0077547,0.21653,0.018555
765,0.038287,0.043549,-0.031433,-0.089972,-0.071884,0.14977,0.022172
766,0.047824,0.041247,-0.01795,-0.099838,-0.11464,0.088275,0.026119
767,0.053743,0.036971,-0.007097,-0.10411,-0.13437,-0.0041372,0.029407
768,0.052757,0.034011,-0.0015062,-0.10707,-0.12779,-0.14325,0.030723
769,0.046837,0.030723,-0.00051963,-0.10707,-0.087998,-0.31229,0.031709
770,0.0373,0.025132,-0.0008485,-0.091945,0.0021113,-0.47343,0.033025
771,0.02579,0.019541,0.0017824,-0.04985,0.15931,-0.58393,0.035985
772,0.015266,0.015924,0.0030979,0.024474,0.36715,-0.61978,0.041247
773,0.0080309,0.012306,0.0011247,0.10998,0.56974,-0.57735,0.046508
774,0.0014536,0.0093464,-0.0028217,0.18595,0.69767,-0.47968,0.049797
775,-0.0061104,0.002769,-0.0061104,0.23692,0.70918,-0.35668,0.051113
776,-0.010057,-0.0024928,-0.0064392,0.25731,0.61348,-0.23566,0.050455
777,-0.0090702,-0.0034794,-0.0011774,0.24909,0.45759,-0.13042,0.049797
778,-0.0015062,-0.00019077,0.0040845,0.22081,0.2948,-0.045246,0.049139
779,0.012635,0.0044134,0.0096753,0.18299,0.16095,0.028421,0.049139
780,0.032038,0.0050711,0.013622,0.14484,0.072489,0.097483,0.049468
781,0.059334,-0.0011774,0.017568,0.11294,0.024803,0.16128,0.047824
782,0.087288,-0.0097279,0.020199,0.087946,0.0060577,0.22574,0.04618
783,0.10932,-0.013017,0.019541,0.063281,0.0080309,0.29941,0.045522
784,0.12445,-0.0018351,0.013293,0.037629,0.026447,0.38623,0.047166
785,0.13234,0.027105,0.0037556,0.014279,0.064596,0.47502,0.049797
786,0.1284,0.069529,-0.0041372,-0.0024928,0.1307,0.54178,0.051441
787,0.1113,0.11491,-0.004466,-0.014332,0.231,0.56612,0.05177
788,0.085972,0.15043,0.0050711,-0.022554,0.36058,0.55428,0.049797
789,0.05769,0.16753,0.01987,-0.028144,0.50199,0.52698,0.045851
790,0.026447,0.16457,0.038287,-0.028802,0.61282,0.50199,0.041904
791,-0.0074258,0.15372,0.058019,-0.025514,0.64702,0.4816,0.038616
792,-0.040313,0.14385,0.071502,-0.023211,0.58223,0.45134,0.036314
793,-0.071884,0.13793,0.073804,-0.024527,0.42931,0.38952,0.034011
794,-0.095562,0.12938,0.063281,-0.026171,0.23429,0.28855,0.031709
795,-0.1051,0.11426,0.04322,-0.026829,0.050126,0.16095,0.029078
796,-0.098851,0.088275,0.018555,-0.027158,-0.082736,0.029736,0.027105
797,-0.077803,0.056703,-0.0047949,-0.029789,-0.15377,-0.078461,0.024145
798,-0.052481,0.023488,-0.016634,-0.03538,-0.1735,-0.14851,0.023159
799,-0.038668,-0.0097279,-0.014332,-0.043272,-0.16265,-0.18337,0.021843
800,-0.043601,-0.044588,0.002769,-0.050507,-0.14325,-0.19652,0.021186
801,-0.061689,-0.082079,0.032367,-0.049192,-0.12648,-0.19554,0.020528
802,-0.081092,-0.12319,0.065583,-0.038997,-0.12352,-0.1837,0.019541
803,-0.0903,-0.17219,0.091234,-0.022554,-0.13437,-0.16594,0.018226
804,-0.087998,-0.23566,0.10538,-0.0024928,-0.15311,-0.15048,0.016581
805,-0.072542,-0.31031,0.10932,0.014608,-0.1712,-0.13963,0.013293
806,-0.042944,-0.37609,0.10176,0.020199,-0.18995,-0.13338,0.010333
807,-0.0051238,-0.41325,0.086301,0.012964,-0.20935,-0.13042,0.0067154
808,0.029078,-0.40766,0.068543,0.00079584,-0.2304,-0.1324,0.0030979
809,0.049468,-0.35701,0.05473,-0.007097,-0.24553,-0.14358,-0.00019077
810,0.056046,-0.26822,0.045851,-0.0067681,-0.24717,-0.16561,-0.0034794
811,0.053086,-0.15509,0.041247,-0.0041372,-0.23171,-0.20014,-0.0080836
812,0.042562,-0.032749,0.042562,-0.0047949,-0.19652,-0.25013,-0.013674
813,0.030065,0.080711,0.044206,-0.0097279,-0.15344,-0.30867,-0.017292
814,0.019541,0.16654,0.041575,-0.015648,-0.1245,-0.36392,-0.018607
815,0.012306,0.2116,0.038616,-0.024527,-0.12483,-0.40601,-0.018936
816,0.0086887,0.21357,0.036971,-0.033078,-0.15246,-0.43331,-0.017621
817,-0.0015062,0.1797,0.033025,-0.040313,-0.19225,-0.4514,-0.017292
818,-0.022554,0.12511,0.022501,-0.04689,-0.22744,-0.46356,-0.017292
819,-0.051823,0.066898,0.0083598,-0.051494,-0.24914,-0.46916,-0.016305
820,-0.085367,0.021843,-0.0047949,-0.050507,-0.25572,-0.46291,-0.015319
821,-0.11398,-0.00051963,-0.014661,-0.050836,-0.25408,-0.44548,-0.012688
822,-0.13272,-0.0028217,-0.023869,-0.054783,-0.24947,-0.42081,-0.0097279
823,-0.137,0.0030979,-0.035051,-0.063004,-0.24717,-0.3968,-0.0087413
824,-0.12779,0.0090175,-0.048534,-0.071555,-0.25046,-0.38266,-0.010715
825,-0.11069,0.013293,-0.06136,-0.07583,-0.25769,-0.37609,-0.01499
826,-0.092603,0.01132,-0.068266,-0.072542,-0.2669,-0.37346,-0.018278
827,-0.074186,0.00046697,-0.07024,-0.063662,-0.27348,-0.37674,-0.019923
828,-0.047877,-0.022225,-0.071226,-0.051823,-0.28039,-0.3876,-0.018607
829,-0.0038083,-0.052152,-0.076159,-0.040313,-0.29749,-0.39713,-0.014003
830,0.056703,-0.083065,-0.087998,-0.032749,-0.33695,-0.39615,-0.0093991
831,0.11886,-0.10806,-0.10214,-0.030447,-0.39713,-0.37346,-0.0038083
832,0.15964,-0.1199,-0.11628,-0.029131,-0.45699,-0.31229,0.0011247
833,0.17049,-0.11168,-0.12089,-0.023869,-0.49185,-0.1985,0.0044134
834,0.15471,-0.079448,-0.11431,-0.017292,-0.4833,-0.033406,0.0073732
835,0.12774,-0.014661,-0.094247,-0.011372,-0.43265,0.15865,0.0096753
836,0.1113,0.088932,-0.05544,-0.0074258,-0.3557,0.34709,0.011977
837,0.11261,0.22311,-0.002164,-0.0024928,-0.27184,0.50363,0.013622
838,0.12544,0.35827,0.058348,0.0054,-0.19784,0.60328,0.013951
839,0.13892,0.45661,0.11097,0.015266,-0.13832,0.63321,0.013622
840,0.14616,0.49377,0.14155,0.023488,-0.10082,0.58815,0.013622
841,0.14648,0.47042,0.14254,0.028421,-0.090629,0.47239,0.014279
842,0.14484,0.4053,0.11787,0.032367,-0.10641,0.30993,0.015924
843,0.14484,0.32506,0.077751,0.0373,-0.13568,0.133,0.017897
844,0.14517,0.25238,0.037958,0.037629,-0.16166,-0.022225,0.021843
845,0.14188,0.2014,0.011977,0.030723,-0.16364,-0.12812,0.027434
846,0.12774,0.17279,0.0083598,0.018226,-0.13568,-0.17548,0.032367
847,0.10176,0.16227,0.024145,0.01132,-0.08175,-0.16824,0.034998
848,0.073804,0.16457,0.05177,0.018226,-0.010715,-0.11694,0.035656
849,0.053415,0.1649,0.079066,0.041904,0.070845,-0.036037,0.035985
850,0.040918,0.14747,0.098798,0.073476,0.15339,0.059663,0.038287
851,0.034669,0.097483,0.10603,0.10866,0.2241,0.15471,0.040589
852,0.026119,0.013951,0.095181,0.13728,0.26784,0.23594,0.044206
853,0.0086887,-0.09326,0.069529,0.1478,0.27968,0.29776,0.048153
854,-0.019265,-0.19718,0.039602,0.14221,0.27047,0.34052,0.05177
855,-0.057414,-0.27512,0.018226,0.12938,0.25929,0.3711,0.054401
856,-0.11201,-0.31886,0.014279,0.11689,0.26784,0.38919,0.054072
857,-0.17844,-0.33235,0.031381,0.11097,0.30566,0.38557,0.052099
858,-0.24421,-0.32511,0.05769,0.11393,0.36617,0.35696,0.049797
859,-0.29091,-0.30998,0.076435,0.11985,0.42175,0.31519,0.048482
860,-0.31459,-0.29979,0.07216,0.12149,0.45134,0.26784,0.04618
861,-0.32215,-0.30209,0.047824,0.11064,0.45134,0.22081,0.044535
862,-0.3261,-0.30933,0.017897,0.087617,0.43227,0.17773,0.043549
863,-0.32084,-0.31031,-0.0061104,0.06361,0.41681,0.14056,0.043877
864,-0.29814,-0.30078,-0.020581,0.044864,0.42602,0.11327,0.046837
865,-0.25177,-0.27743,-0.028144,0.0373,0.46614,0.099456,0.051113
866,-0.1906,-0.24026,-0.034064,0.041904,0.53225,0.10044,0.054401
867,-0.12615,-0.18567,-0.036037,0.054072,0.61084,0.10965,0.054401
868,-0.06728,-0.10937,-0.03242,0.068214,0.6832,0.12281,0.052099
869,-0.018936,-0.018936,-0.022554,0.079395,0.72825,0.1307,0.048153
870,0.023159,0.068543,-0.012359,0.079066,0.7197,0.12478,0.042562
871,0.064925,0.133,-0.011701,0.057361,0.62137,0.099785,0.038944
872,0.10932,0.1672,-0.029789,0.0096753,0.40432,0.067556,0.037629
873,0.15898,0.18299,-0.066622,-0.05281,0.070845,0.042562,0.037629
874,0.20963,0.20634,-0.11233,-0.10609,-0.33037,0.024803,0.0373
875,0.2481,0.25008,-0.15015,-0.12384,-0.71811,0.0021113,0.035327
876,0.2606,0.31651,-0.16298,-0.094247,-1.0062,-0.024856,0.032696
877,0.23988,0.40004,-0.13799,-0.031104,-1.1331,-0.052152,0.030394
878,0.19516,0.47996,-0.085367,0.040589,-1.0917,-0.077475,0.026776
879,0.13826,0.52863,-0.028144,0.09551,-0.91905,-0.10609,0.024474
880,0.085972,0.52271,0.0096753,0.11754,-0.67864,-0.13996,0.02283
881,0.052757,0.4497,0.02283,0.10932,-0.43495,-0.17449,0.020528
882,0.039931,0.32276,0.019541,0.084328,-0.22777,-0.19291,0.020199
883,0.036314,0.17707,0.013622,0.058348,-0.07583,-0.18173,0.018884
884,0.032038,0.054401,0.013951,0.047166,0.022172,-0.13799,0.016581
885,0.021186,-0.030118,0.025132,0.047166,0.077751,-0.074515,0.013293
886,0.0044134,-0.085039,0.041904,0.049468,0.10603,-0.0080836,0.0090175
887,-0.01203,-0.12516,0.055717,0.046837,0.11557,0.047495,0.0047422
888,-0.019923,-0.15443,0.056703,0.039602,0.10702,0.080382,0.002769
889,-0.015976,-0.17252,0.047495,0.030723,0.085315,0.085315,0.0001381
890,0.0001381,-0.1712,0.031709,0.020199,0.058019,0.065254,-0.0015062
891,0.02283,-0.14391,0.016581,0.010004,0.037958,0.033683,-0.0041372
892,0.047166,-0.09622,0.0073732,0.0011247,0.025132,0.0034268,-0.0064392
893,0.070516,-0.04097,0.0037556,-0.0018351,0.018884,-0.011372,-0.0097279
894,0.088603,0.0077021,0.0057288,0.0017824,0.013951,-0.004466,-0.012688
895,0.098469,0.038944,0.013622,0.0070443,0.0073732,0.017897,-0.013017
896,0.097812,0.054072,0.024145,0.0083598,0.0034268,0.039602,-0.012359
897,0.08663,0.054401,0.030723,0.0040845,0.0073732,0.049797,-0.01203
898,0.07216,0.04026,0.029736,-0.0057815,0.017897,0.046837,-0.012688
899,0.062623,0.0080309,0.014608,-0.021896,0.032038,0.038944,-0.014003
900,0.0692,-0.04097,-0.016634,-0.042944,0.049468,0.034011,-0.014332
901,0.087946,-0.097207,-0.055112,-0.061031,0.070516,0.036642,-0.013674
902,0.10866,-0.14062,-0.081092,-0.068595,0.097812,0.05473,-0.012688
903,0.11458,-0.15048,-0.079448,-0.059058,0.1307,0.092221,-0.011372
904,0.094852,-0.12483,-0.050836,-0.033406,0.16161,0.14385,-0.011372
905,0.053743,-0.071555,-0.0067681,-0.0011774,0.18397,0.19285,-0.015319
906,0.0054,-0.010057,0.035985,0.024145,0.19384,0.21982,-0.017621
907,-0.030775,0.039931,0.062623,0.034669,0.19351,0.21489,-0.019923
908,-0.041957,0.066898,0.067227,0.033025,0.18825,0.1751,-0.020581
909,-0.028473,0.072818,0.054072,0.026119,0.17904,0.10176,-0.01795
910,-0.0024928,0.065912,0.032038,0.018226,0.16227,0.0077021,-0.011701
911,0.023817,0.056703,0.011648,0.010333,0.13563,-0.091287,-0.0054526
912,0.044535,0.051113,-0.0011774,0.0030979,0.10505,-0.18304,-0.0008485
913,0.063281,0.052757,-0.0051238,-0.0034794,0.07512,-0.27184,0.0011247
914,0.082355,0.059005,-0.0031506,-0.0077547,0.05177,-0.3649,0.0017824
915,0.099785,0.065583,-0.0015062,-0.0093991,0.040589,-0.48132,0.0021113
916,0.10801,0.070516,-0.0067681,-0.0097279,0.04618,-0.62208,0.0037556
917,0.10702,0.072489,-0.012688,-0.010057,0.066569,-0.77533,0.0063866
918,0.10011,0.068871,-0.017621,-0.014003,0.091563,-0.91477,0.010333
919,0.08959,0.057032,-0.016305,-0.024198,0.10998,-0.98975,0.013951
920,0.078409,0.041575,-0.0084125,-0.038011,0.11656,-0.94338,0.018226
921,0.0692,0.028421,0.0021113,-0.047548,0.11721,-0.73685,0.021843
922,0.063281,0.020199,0.010004,-0.051165,0.12642,-0.3899,0.024145
923,0.06361,0.017897,0.015266,-0.044588,0.14681,0.0093464,0.02579
924,0.070845,0.021514,0.017897,-0.031433,0.17707,0.33493,0.025132
925,0.083342,0.032367,0.018555,-0.017621,0.2014,0.49574,0.024474
926,0.10209,0.04618,0.015924,-0.0041372,0.20272,0.47963,0.023488
927,0.11919,0.062623,0.012635,0.0067154,0.16786,0.35071,0.023817
928,0.13267,0.080053,0.012635,0.010333,0.10274,0.20272,0.02579
929,0.13793,0.091892,0.014608,0.010333,0.024474,0.10406,0.029736
930,0.13136,0.096167,0.015266,0.0093464,-0.04393,0.08367,0.034998
931,0.11557,0.09255,0.013293,0.01132,-0.082079,0.14188,0.042233
932,0.092221,0.085972,0.010662,0.018555,-0.078132,0.26225,0.048153
933,0.066898,0.080711,0.0086887,0.031052,-0.034064,0.41714,0.053743
934,0.046508,0.077422,0.010991,0.046508,0.031709,0.57862,0.056703
935,0.033025,0.073804,0.021843,0.06065,0.086959,0.72332,0.056374
936,0.023488,0.066569,0.038616,0.071831,0.10373,0.845,0.054401
937,0.012635,0.048153,0.058019,0.080382,0.075778,0.95254,0.051441
938,-0.0038083,0.013293,0.075449,0.085972,0.020199,1.0519,0.04881
939,-0.027158,-0.031104,0.085644,0.089261,-0.027487,1.14,0.047824
940,-0.056756,-0.072213,0.085644,0.091892,-0.036366,1.2117,0.047495
941,-0.083394,-0.097536,0.075778,0.092221,0.0014536,1.2538,0.047824
942,-0.10115,-0.10378,0.060979,0.093536,0.073804,1.2528,0.048153
943,-0.1028,-0.096878,0.044206,0.094523,0.15734,1.2038,0.048153
944,-0.091287,-0.082736,0.030723,0.093536,0.22837,1.094,0.047824
945,-0.073199,-0.066293,0.022501,0.089261,0.26915,0.91472,0.04618
946,-0.059058,-0.052152,0.016581,0.083013,0.27178,0.67695,0.045522
947,-0.055769,-0.041299,0.013293,0.073476,0.23824,0.41089,0.044206
948,-0.064978,-0.031104,0.011977,0.059334,0.17904,0.15438,0.04322
949,-0.078132,-0.022554,0.0073732,0.044864,0.10801,-0.065307,0.039931
950,-0.089972,-0.018278,-0.0015062,0.033025,0.041575,-0.22941,0.0373
951,-0.094247,-0.015648,-0.013674,0.026776,-0.011372,-0.33892,0.035327
952,-0.091287,-0.015319,-0.024856,0.024803,-0.050179,-0.40503,0.033354
953,-0.087998,-0.019265,-0.02946,0.024474,-0.07583,-0.44646,0.031052
954,-0.086683,-0.028144,-0.025185,0.020528,-0.098193,-0.47475,0.029078
955,-0.087012,-0.039984,-0.011701,0.013951,-0.12056,-0.49316,0.026776
956,-0.082079,-0.047548,0.0080309,0.0080309,-0.14292,-0.50303,0.024474
957,-0.071884,-0.04689,0.029736,0.0063866,-0.1643,-0.50434,0.02283
958,-0.058729,-0.041957,0.050784,0.012964,-0.18896,-0.49415,0.020528
959,-0.042944,-0.036695,0.068543,0.024803,-0.22152,-0.4708,0.018884
960,-0.024856,-0.034722,0.07808,0.0373,-0.25375,-0.43166,0.018555
961,-0.0034794,-0.034064,0.077422,0.044864,-0.2669,-0.37346,0.01987
962,0.017568,-0.029131,0.065254,0.045193,-0.24355,-0.30538,0.020199
963,0.032367,-0.01795,0.045522,0.039273,-0.186,-0.24059,0.019212
964,0.036314,-0.0051238,0.026776,0.032367,-0.10905,-0.1985,0.016581
965,0.030065,0.0080309,0.013293,0.027763,-0.037682,-0.19291,0.012964
966,0.019212,0.020528,0.0040845,0.024474,0.013622,-0.22218,0.0083598
967,0.0083598,0.030723,0.00079584,0.020857,0.041247,-0.27512,0.0040845
968,-0.0018351,0.037629,0.0030979,0.01987,0.052757,-0.33991,0.00046697
969,-0.011701,0.040589,0.0093464,0.021514,0.052428,-0.40272,-0.0015062
970,-0.018278,0.037629,0.013622,0.02283,0.04618,-0.45238,-0.0028217
971,-0.01795,0.025132,0.014608,0.026119,0.040589,-0.48231,-0.0051238
972,-0.0093991,0.0086887,0.011977,0.031052,0.039931,-0.48856,-0.0080836
973,0.002769,-0.0031506,0.0090175,0.035656,0.039931,-0.46948,-0.011372
974,0.012635,-0.0031506,0.0060577,0.039273,0.033025,-0.4389,-0.013674
975,0.018226,0.013622,0.0070443,0.0373,0.015595,-0.40503,-0.014661
976,0.020199,0.045193,0.0096753,0.029078,-0.010715,-0.36951,-0.015319
977,0.022172,0.07808,0.0086887,0.018555,-0.037353,-0.32741,-0.015648
978,0.024474,0.10077,0.0050711,0.0067154,-0.056756,-0.27348,-0.014661
979,0.02579,0.10932,0.0014536,-0.0067681,-0.065964,-0.20606,-0.012688
980,0.024474,0.10669,-0.002164,-0.022225,-0.07024,-0.13207,-0.011043
981,0.020528,0.099127,-0.0080836,-0.037024,-0.073528,-0.054783,-0.0090702
982,0.017568,0.090905,-0.013345,-0.044917,-0.079448,0.023159,-0.007097
983,0.015924,0.084657,-0.019265,-0.044259,-0.085696,0.093208,-0.0057815
984,0.017568,0.080053,-0.024198,-0.033078,-0.090958,0.15734,-0.0084125
985,0.019212,0.075449,-0.028473,-0.016634,-0.087669,0.21982,-0.012359
986,0.017568,0.067227,-0.032749,0.0011247,-0.071884,0.27507,-0.015648
987,0.011977,0.057032,-0.036695,0.010333,-0.044588,0.30993,-0.016634
988,0.0040845,0.046508,-0.039326,0.0086887,-0.015976,0.31059,-0.01499
989,-0.0018351,0.032696,-0.039326,-0.0011774,0.0050711,0.27343,-0.012688
990,-0.0011774,0.011977,-0.044588,-0.014003,0.015924,0.20305,-0.0093991
991,0.0077021,-0.013674,-0.055769,-0.027487,0.014608,0.11327,-0.0064392
992,0.021186,-0.039326,-0.072213,-0.035051,0.0063866,0.021186,-0.0034794
993,0.038616,-0.0584,-0.087998,-0.033078,-0.002164,-0.061031,-0.00019077
994,0.058676,-0.062347,-0.091945,-0.023869,-0.0031506,-0.12253,0.002769
995,0.076764,-0.045246,-0.087998,-0.016305,0.002769,-0.16035,0.0073732
996,0.089261,-0.0031506,-0.077475,-0.013017,0.010662,-0.17909,0.010991
997,0.093536,0.057361,-0.062018,-0.014332,0.020199,-0.18107,0.014608
998,0.08959,0.12577,-0.043272,-0.014661,0.03434,-0.16693,0.017239
999,0.084986,0.19549,-0.020252,-0.014661,0.053743,-0.1393,0.019212
1000,0.085315,0.26948,0.0054,-0.013674,0.071831,-0.09918,0.020199
1001,0.09255,0.34413,0.032367,-0.01203,0.087288,-0.050507,0.020528
1002,0.10998,0.39873,0.060979,-0.0084125,0.09551,0.0014536,0.020857
1003,0.12971,0.40793,0.087946,-0.0084125,0.091234,0.048153,0.021514
1004,0.12971,0.35696,0.10899,-0.010057,0.074133,0.081697,0.023159
1005,0.088932,0.23955,0.12281,-0.010057,0.05473,0.091234,0.024145
1006,0.0030979,0.071173,0.13004,-0.0051238,0.041247,0.074791,0.025132
1007,-0.10773,-0.11201,0.13136,0.0083598,0.030394,0.036642,0.027763
1008,-0.20705,-0.26526,0.1307,0.026119,0.0060577,-0.020909,0.031052
1009,-0.26888,-0.35767,0.13103,0.046837,-0.039655,-0.092931,0.033683
1010,-0.28269,-0.38168,0.12938,0.064925,-0.094576,-0.16561,0.036971
1011,-0.25934,-0.34649,0.12149,0.078737,-0.13799,-0.21987,0.041575
1012,-0.2202,-0.27578,0.10998,0.088275,-0.15443,-0.24487,0.045851
1013,-0.18271,-0.19817,0.097812,0.08959,-0.14127,-0.24454,0.050126
1014,-0.1541,-0.13634,0.082026,0.081368,-0.11233,-0.23138,0.052428
1015,-0.12779,-0.096549,0.065583,0.067227,-0.084052,-0.21264,0.053086
1016,-0.097864,-0.072213,0.050784,0.054401,-0.063991,-0.19751,0.05177
1017,-0.062347,-0.050507,0.04026,0.049139,-0.053138,-0.18469,0.050126
1018,-0.028473,-0.0265,0.033683,0.050455,-0.046232,-0.17613,0.049797
1019,-0.0051238,-0.004466,0.032367,0.053086,-0.038668,-0.16989,0.049468
1020,0.0067154,0.013293,0.034998,0.05177,-0.028144,-0.16166,0.049139
1021,0.011977,0.026447,0.042233,0.040589,-0.017621,-0.14818,0.048153
1022,0.016581,0.032367,0.04881,0.017897,-0.007097,-0.12746,0.04618
1023,0.020528,0.030723,0.045193,-0.010057,0.002769,-0.10181,0.043877
1024,0.019541,0.024145,0.030065,-0.034393,0.0083598,-0.07879,0.043877
1025,0.010662,0.012635,0.010991,-0.048863,0.0080309,-0.060045,0.045193
1026,-0.0080836,0.0011247,-0.0077547,-0.049192,0.0090175,-0.039655,0.048482
1027,-0.030118,-0.0018351,-0.020252,-0.036366,0.022501,-0.011372,0.050784
1028,-0.048205,0.0067154,-0.027816,-0.015319,0.053086,0.024145,0.052099
1029,-0.056098,0.020199,-0.029789,0.0077021,0.08959,0.058676,0.050784
1030,-0.049192,0.027434,-0.03242,0.027105,0.10768,0.086959,0.046508
1031,-0.035051,0.023159,-0.042286,0.036314,0.087288,0.10406,0.042233
1032,-0.021567,0.0083598,-0.0584,0.038616,0.024803,0.1057,0.037958
1033,-0.012688,-0.0093991,-0.07583,0.034998,-0.066293,0.092221,0.034669
1034,-0.010386,-0.027158,-0.091945,0.034011,-0.15509,0.068543,0.032367
1035,-0.0080836,-0.038339,-0.10148,0.039931,-0.21363,0.040918,0.030723
1036,-0.002164,-0.037682,-0.096878,0.058019,-0.22908,0.018226,0.029078
1037,0.0044134,-0.024527,-0.074515,0.08367,-0.20508,0.0040845,0.026119
1038,0.01132,-0.0064392,-0.038011,0.10702,-0.15279,0.00046697,0.023817
1039,0.021186,0.010004,0.0001381,0.11853,-0.088985,0.0077021,0.019212
1040,0.032367,0.025132,0.02579,0.11228,-0.022225,0.018884,0.017568
1041,0.045522,0.036642,0.036642,0.090905,0.041247,0.030065,0.016253
1042,0.063938,0.045193,0.035656,0.062623,0.093865,0.034011,0.01691
1043,0.094852,0.052099,0.024803,0.041575,0.12807,0.027434,0.017568
1044,0.13695,0.058019,0.0083598,0.033683,0.13991,0.015924,0.017568
1045,0.18036,0.067556,-0.011043,0.033683,0.13136,0.0017824,0.015924
1046,0.20831,0.085644,-0.029131,0.030065,0.11261,-0.0080836,0.01132
1047,0.21324,0.11031,-0.043272,0.020528,0.090905,-0.0067681,0.0073732
1048,0.19614,0.13596,-0.050836,0.0077021,0.071831,0.0044134,0.002769
1049,0.16194,0.14813,-0.052481,-0.00051963,0.053743,0.023488,-0.00051963
1050,0.12346,0.14122,-0.045246,-0.007097,0.033025,0.049139,-0.0031506
1051,0.090905,0.11491,-0.028802,-0.013674,0.013622,0.087617,-0.0074258
1052,0.069529,0.076435,-0.0057815,-0.015648,-0.00051963,0.13399,-0.011043
1053,0.065254,0.030723,0.013622,-0.0084125,-0.0054526,0.18167,-0.013674
1054,0.069529,-0.015648,0.023817,0.0047422,-0.0047949,0.22969,-0.01499
1055,0.070516,-0.050179,0.027434,0.015924,-0.0067681,0.2708,-0.014661
1056,0.059334,-0.061689,0.03434,0.021843,-0.014003,0.2902,-0.013674
1057,0.038944,-0.04689,0.045851,0.023159,-0.025514,0.29217,-0.013674
1058,0.026776,-0.01499,0.056374,0.021514,-0.038997,0.28691,-0.013674
1059,0.035327,0.01987,0.057032,0.018555,-0.050836,0.27902,-0.013017
1060,0.062952,0.050126,0.043877,0.014279,-0.063991,0.26192,-0.012359
1061,0.098141,0.071831,0.020857,0.0083598,-0.07879,0.22936,-0.011043
1062,0.12379,0.081697,-0.0064392,0.0030979,-0.094905,0.17115,-0.010057
1063,0.13267,0.07808,-0.034393,-0.0034794,-0.11036,0.07808,-0.0090702
1064,0.11721,0.062952,-0.058729,-0.011372,-0.12352,-0.045903,-0.0097279
1065,0.071831,0.042891,-0.079119,-0.023211,-0.13404,-0.18896,-0.011701
1066,0.0054,0.029078,-0.092603,-0.039326,-0.13897,-0.32873,-0.015648
1067,-0.063004,0.032367,-0.097536,-0.054783,-0.13667,-0.45469,-0.016305
1068,-0.10872,0.061307,-0.0903,-0.06432,-0.12549,-0.55565,-0.014661
1069,-0.12384,0.1011,-0.068595,-0.068924,-0.10444,-0.62372,-0.011372
1070,-0.11431,0.12083,-0.042615,-0.070568,-0.077146,-0.64806,-0.007097
1071,-0.098851,0.094852,-0.02354,-0.066951,-0.043272,-0.61353,-0.002164
1072,-0.090958,0.023817,-0.013017,-0.05544,-0.0034794,-0.50303,0.0021113
1073,-0.086025,-0.063991,-0.00019077,-0.030775,0.04322,-0.31294,0.0044134
1074,-0.075501,-0.12417,0.024803,0.0080309,0.094194,-0.065635,0.0073732
1075,-0.054783,-0.12845,0.057361,0.053086,0.14484,0.19812,0.0086887
1076,-0.03242,-0.082736,0.090577,0.089919,0.18562,0.43885,0.01132
1077,-0.021896,-0.016963,0.11491,0.10965,0.21193,0.62663,0.012306
1078,-0.025842,0.04026,0.1205,0.11393,0.22607,0.75094,0.013622
1079,-0.038997,0.0692,0.10603,0.10735,0.23199,0.82264,0.014608
1080,-0.054125,0.070516,0.077093,0.095839,0.23824,0.86769,0.016253
1081,-0.06136,0.054072,0.046508,0.084657,0.25304,0.91143,0.018884
1082,-0.055112,0.029078,0.025132,0.073476,0.27376,0.95418,0.021186
1083,-0.039326,0.0001381,0.017239,0.065254,0.29217,0.97523,0.023817
1084,-0.019923,-0.031433,0.020199,0.059992,0.30072,0.95648,0.025461
1085,0.0001381,-0.065964,0.029078,0.058676,0.29349,0.89729,0.027434
1086,0.020199,-0.10017,0.035327,0.061965,0.27244,0.82362,0.030394
1087,0.041247,-0.12845,0.038944,0.064596,0.25468,0.76344,0.033025
1088,0.060321,-0.1416,0.039273,0.069858,0.25698,0.72628,0.033025
1089,0.070845,-0.13075,0.035327,0.078409,0.28296,0.69734,0.033354
1090,0.076106,-0.098522,0.029407,0.087946,0.31914,0.65393,0.03434
1091,0.07512,-0.0584,0.023488,0.094852,0.33821,0.57335,0.036314
1092,0.067556,-0.026829,0.021186,0.096167,0.31848,0.44411,0.040589
1093,0.054401,-0.011701,0.023159,0.09551,0.26027,0.27968,0.044864
1094,0.041247,-0.011701,0.033025,0.096496,0.18233,0.10603,0.04881
1095,0.033354,-0.020909,0.046508,0.097483,0.11327,-0.045903,0.050784
1096,0.032367,-0.02946,0.052428,0.088932,0.05769,-0.15903,0.050784
1097,0.032038,-0.03242,0.040589,0.058019,-0.0093991,-0.22744,0.050784
1098,0.029736,-0.024527,0.011977,-0.0018351,-0.12056,-0.2521,0.049139
1099,0.027434,-0.007097,-0.021238,-0.079777,-0.2771,-0.23566,0.047824
1100,0.023488,0.015924,-0.045903,-0.15476,-0.4514,-0.18534,0.046508
1101,0.016581,0.041575,-0.053138,-0.20409,-0.60432,-0.11825,0.045851
1102,0.010333,0.064267,-0.04689,-0.21461,-0.69706,-0.04393,0.045851
1103,0.0080309,0.080382,-0.033735,-0.18863,-0.70627,0.033025,0.044864
1104,0.012635,0.087288,-0.019923,-0.13963,-0.63885,0.11195,0.045193
1105,0.02283,0.087617,-0.013017,-0.085696,-0.52835,0.1922,0.047166
1106,0.034998,0.079066,-0.0093991,-0.041299,-0.41522,0.26718,0.049139
1107,0.04322,0.067556,-0.010715,-0.010715,-0.32708,0.31289,0.048482
1108,0.042233,0.053743,-0.015648,0.0063866,-0.27644,0.29776,0.04618
1109,0.032038,0.039602,-0.019265,0.013293,-0.24947,0.21061,0.041904
1110,0.019541,0.028421,-0.021238,0.011648,-0.21691,0.066569,0.0373
1111,0.01132,0.023817,-0.024527,0.0093464,-0.15673,-0.098193,0.034998
1112,0.0073732,0.027434,-0.027487,0.0086887,-0.057085,-0.24816,0.032367
1113,0.0063866,0.038287,-0.028473,0.014279,0.080711,-0.3626,0.031709
1114,0.0080309,0.052428,-0.024527,0.022172,0.25139,-0.4435,0.031709
1115,0.018555,0.063938,-0.016963,0.031381,0.45463,-0.49711,0.030723
1116,0.042562,0.074133,-0.007097,0.037958,0.69438,-0.53296,0.028092
1117,0.076106,0.080711,0.0001381,0.045851,0.93313,-0.55992,0.026119
1118,0.10538,0.077751,0.00079584,0.05177,1.1061,-0.59281,0.02283
1119,0.11689,0.057032,-0.0067681,0.05473,1.1439,-0.63556,0.018884
1120,0.10439,0.018884,-0.015976,0.055388,1.0144,-0.68654,0.017897
1121,0.066569,-0.025185,-0.018278,0.05769,0.74305,-0.73258,0.017568
1122,0.021514,-0.058729,-0.011701,0.061636,0.39971,-0.75889,0.018884
1123,-0.014661,-0.066951,0.0017824,0.064596,0.074791,-0.75428,0.020199
1124,-0.030447,-0.041957,0.016253,0.061636,-0.16923,-0.71679,0.021843
1125,-0.021896,0.010991,0.026119,0.050126,-0.31229,-0.66023,0.021514
1126,0.010004,0.081697,0.032367,0.033354,-0.36622,-0.59774,0.017568
1127,0.053086,0.15569,0.037958,0.020199,-0.35339,-0.53986,0.012635
1128,0.086301,0.21588,0.045851,0.019212,-0.30143,-0.48527,0.0077021
1129,0.093536,0.24942,0.056046,0.031052,-0.22974,-0.43101,0.0021113
1130,0.074791,0.25008,0.061636,0.042562,-0.14489,-0.37148,-0.0011774
1131,0.041575,0.22278,0.059334,0.045851,-0.048205,-0.29223,-0.004466
1132,0.012306,0.18102,0.052428,0.044864,0.055388,-0.17219,-0.0077547
1133,0.0034268,0.1432,0.050126,0.043549,0.15865,-0.011701,-0.011043
1134,0.014608,0.11952,0.053086,0.048153,0.24613,0.16326,-0.013017
1135,0.035985,0.11064,0.06065,0.055388,0.30007,0.31026,-0.01499
1136,0.058676,0.10406,0.065583,0.060979,0.30796,0.39577,-0.016305
1137,0.073476,0.086959,0.061965,0.062952,0.27376,0.40169,-0.018278
1138,0.072818,0.05177,0.050126,0.058676,0.21719,0.33032,-0.018936
1139,0.05473,0.0047422,0.030394,0.047495,0.16391,0.2116,-0.019923
1140,0.024145,-0.042944,0.0077021,0.032038,0.1353,0.092221,-0.019923
1141,-0.010715,-0.081421,-0.012359,0.019212,0.13728,0.011977,-0.017292
1142,-0.042286,-0.10247,-0.025842,0.012306,0.16293,-0.020581,-0.014003
1143,-0.062347,-0.10477,-0.028473,0.010991,0.19121,-0.020252,-0.010057
1144,-0.065635,-0.089314,-0.024198,0.012635,0.20206,-0.0057815,-0.0080836
1145,-0.052481,-0.060373,-0.015648,0.015595,0.18463,0.011977,-0.010057
1146,-0.028802,-0.028144,-0.0080836,0.019541,0.13234,0.022172,-0.014003
1147,-0.012359,-0.004466,-0.0015062,0.028092,0.050784,0.019212,-0.017621
1148,-0.011701,0.0060577,0.0073732,0.042233,-0.049521,0.0001381,-0.019265
1149,-0.028144,0.0011247,0.019541,0.056046,-0.15344,-0.031104,-0.017621
1150,-0.05544,-0.016963,0.034669,0.064267,-0.24454,-0.068595,-0.014003
1151,-0.08471,-0.038011,0.04618,0.064267,-0.31031,-0.096878,-0.0087413
1152,-0.10707,-0.04689,0.053086,0.055388,-0.33958,-0.10839,-0.0041372
1153,-0.1176,-0.036037,0.055717,0.039602,-0.33202,-0.11069,-0.0008485
1154,-0.11266,-0.0077547,0.056703,0.017568,-0.2919,-0.11233,0.00079584
1155,-0.091287,0.028421,0.058676,-0.004466,-0.23007,-0.11398,0.0034268
1156,-0.061689,0.05769,0.064925,-0.022554,-0.16397,-0.11793,0.0060577
1157,-0.033406,0.068871,0.071173,-0.036366,-0.10674,-0.12352,0.0093464
1158,-0.0061104,0.057361,0.076106,-0.045574,-0.06432,-0.12483,0.012964
1159,0.017239,0.029736,0.074791,-0.054783,-0.028144,-0.11891,0.015924
1160,0.035327,-0.010057,0.062952,-0.063991,0.002769,-0.1051,0.017239
1161,0.044535,-0.051494,0.041247,-0.079777,0.010662,-0.085696,0.01691
1162,0.044864,-0.086354,0.016581,-0.11003,-0.033735,-0.064649,0.016581
1163,0.040918,-0.10115,-0.0051238,-0.1564,-0.14062,-0.048205,0.016581
1164,0.038616,-0.089314,-0.020581,-0.21067,-0.29288,-0.042615,0.018884
1165,0.040589,-0.05281,-0.032091,-0.25375,-0.46126,-0.046561,0.024145
1166,0.047166,0.00079584,-0.038668,-0.2623,-0.61353,-0.060373,0.028092
1167,0.05769,0.056703,-0.041628,-0.21922,-0.73093,-0.085696,0.030394
1168,0.065583,0.098798,-0.041628,-0.1222,-0.80657,-0.11891,0.030394
1169,0.063938,0.12149,-0.03538,0.0093464,-0.83584,-0.15443,0.030723
1170,0.051441,0.12741,-0.022225,0.15076,-0.80888,-0.17877,0.032367
1171,0.033025,0.12346,-0.0054526,0.27441,-0.71877,-0.17778,0.036642
1172,0.017239,0.11097,0.014279,0.36584,-0.57209,-0.14588,0.041575
1173,0.012635,0.092221,0.033683,0.41846,-0.39154,-0.090629,0.045851
1174,0.023817,0.072818,0.052428,0.42799,-0.20508,-0.027158,0.050126
1175,0.042233,0.056703,0.069858,0.39807,-0.021896,0.03434,0.050784
1176,0.056703,0.045193,0.084328,0.33821,0.17115,0.086959,0.050784
1177,0.058348,0.034998,0.088932,0.25271,0.37834,0.12478,0.050126
1178,0.044535,0.020199,0.07808,0.14977,0.56217,0.14813,0.04881
1179,0.017239,-0.0051238,0.047495,0.04026,0.65195,0.15898,0.047824
1180,-0.014003,-0.038339,0.0073732,-0.055769,0.60262,0.15306,0.046837
1181,-0.038011,-0.069582,-0.029789,-0.11858,0.4155,0.13826,0.04618
1182,-0.050179,-0.082408,-0.053138,-0.13996,0.15142,0.12346,0.045522
1183,-0.048205,-0.070897,-0.062347,-0.1245,-0.093589,0.1136,0.046508
1184,-0.030447,-0.037024,-0.062347,-0.089972,-0.24553,0.11327,0.049468
1185,-0.0064392,0.0054,-0.062676,-0.063991,-0.28992,0.12313,0.05177
1186,0.010991,0.039602,-0.06728,-0.064649,-0.26493,0.13497,0.053415
1187,0.017568,0.058676,-0.077475,-0.093589,-0.22974,0.14155,0.052428
1188,0.013622,0.064267,-0.085696,-0.137,-0.22382,0.13629,0.04881
1189,0.0024402,0.064596,-0.084052,-0.17383,-0.25934,0.12116,0.044206
1190,-0.0087413,0.064596,-0.066622,-0.18732,-0.32281,0.098798,0.038944
1191,-0.013345,0.061965,-0.03538,-0.17285,-0.38661,0.073476,0.034998
1192,-0.0074258,0.05473,0.0040845,-0.13404,-0.4218,0.04618,0.033025
1193,0.0030979,0.039273,0.04322,-0.084052,-0.41456,0.020528,0.032367
1194,0.0077021,0.01132,0.074462,-0.034064,-0.36786,0.00046697,0.032038
1195,0.0040845,-0.03242,0.090577,0.0037556,-0.29979,-0.0038083,0.031052
1196,-0.0051238,-0.090629,0.084657,0.026119,-0.22481,0.0014536,0.028092
1197,-0.014003,-0.15377,0.058348,0.0373,-0.1518,-0.011043,0.024803
1198,-0.023211,-0.20113,0.017568,0.045522,-0.078461,-0.058071,0.021843
1199,-0.031762,-0.21264,-0.028144,0.053086,0.010004,-0.13371,0.020857
1200,-0.038997,-0.18403,-0.063662,0.05769,0.13234,-0.20014,0.021514
1201,-0.041957,-0.1268,-0.079448,0.059663,0.29382,-0.21132,0.023817
1202,-0.036366,-0.062018,-0.077475,0.064267,0.47601,-0.14522,0.024803
1203,-0.021896,-0.0011774,-0.063991,0.072818,0.62729,-0.014661,0.024145
1204,0.0001381,0.054072,-0.038339,0.080711,0.69471,0.1432,0.021186
1205,0.025132,0.11195,-0.0024928,0.085644,0.65491,0.2902,0.016581
1206,0.05177,0.17542,0.040918,0.082355,0.5306,0.39741,0.010662
1207,0.076764,0.23363,0.085315,0.070516,0.37406,0.45233,0.0070443
1208,0.10044,0.26455,0.12182,0.054401,0.24383,0.47009,0.0030979
1209,0.1136,0.2481,0.14418,0.039602,0.17937,0.48061,0.0014536
1210,0.11261,0.18036,0.1478,0.027434,0.18102,0.51218,0.0001381
1211,0.092221,0.077422,0.12905,0.01987,0.22739,0.57763,-0.0024928
1212,0.057032,-0.029789,0.091234,0.014279,0.28658,0.65985,-0.0061104
1213,0.022172,-0.10609,0.047824,0.010333,0.33197,0.7243,-0.0090702
1214,0.0001381,-0.12549,0.011977,0.011977,0.34676,0.74272,-0.011043
1215,-0.0024928,-0.094905,-0.0084125,0.018226,0.32868,0.70424,-0.011372
1216,0.013293,-0.045246,-0.016963,0.031052,0.2879,0.62038,-0.010386
1217,0.036971,-0.012359,-0.020909,0.049468,0.24251,0.51186,-0.011372
1218,0.059005,-0.01795,-0.028473,0.069529,0.20897,0.40169,-0.011701
1219,0.068871,-0.060373,-0.036037,0.087617,0.19384,0.31059,-0.01203
1220,0.06065,-0.10905,-0.037682,0.1011,0.19581,0.23922,-0.012359
1221,0.034998,-0.13733,-0.029131,0.10505,0.20568,0.1695,-0.012359
1222,-0.0018351,-0.13141,-0.01499,0.095181,0.21489,0.07808,-0.01203
1223,-0.032749,-0.097536,-0.0024928,0.076435,0.20996,-0.05281,-0.013345
1224,-0.038668,-0.051494,-0.0008485,0.055388,0.17806,-0.21724,-0.014661
1225,-0.019265,-0.0064392,-0.010715,0.036642,0.10176,-0.38595,-0.016634
1226,0.015924,0.035327,-0.027816,0.021843,-0.015319,-0.50566,-0.018278
1227,0.058019,0.071173,-0.042286,0.0093464,-0.14555,-0.51947,-0.017621
1228,0.095839,0.10011,-0.044917,-0.0028217,-0.24388,-0.3876,-0.013674
1229,0.11919,0.12248,-0.032091,-0.014332,-0.27841,-0.12253,-0.0077547
1230,0.12281,0.13695,-0.0077547,-0.025185,-0.23665,0.21226,-0.0024928
1231,0.10702,0.1455,0.021843,-0.033078,-0.13536,0.51284,-0.00051963
1232,0.078409,0.14846,0.049468,-0.037353,-0.015648,0.67629,0.0001381
1233,0.048153,0.13497,0.071502,-0.038997,0.08367,0.65722,-0.00019077
1234,0.025461,0.099127,0.083999,-0.040641,0.1478,0.48555,-0.0011774
1235,0.0083598,0.038616,0.086301,-0.033078,0.17838,0.24054,0.00046697
1236,-0.015976,-0.038339,0.079724,-0.007097,0.18562,0.0070443,0.0044134
1237,-0.060702,-0.12187,0.065912,0.035656,0.17806,-0.16002,0.0086887
1238,-0.13141,-0.20146,0.04881,0.084657,0.15865,-0.24191,0.014608
1239,-0.20606,-0.26296,0.03434,0.12379,0.12971,-0.2498,0.018884
1240,-0.25276,-0.28828,0.023488,0.14418,0.099456,-0.20902,0.021186
1241,-0.25506,-0.27085,0.014937,0.14484,0.082355,-0.14719,0.020857
1242,-0.2156,-0.21231,0.0096753,0.133,0.084986,-0.087669,0.020528
1243,-0.15246,-0.12812,0.0060577,0.1159,0.10176,-0.038997,0.020528
1244,-0.087669,-0.042944,0.0057288,0.097154,0.12511,0.0060577,0.020857
1245,-0.036695,0.024474,0.010333,0.077093,0.14517,0.058019,0.023488
1246,-0.0077547,0.063281,0.014279,0.058019,0.16161,0.10899,0.026447
1247,0.0047422,0.07808,0.016253,0.043877,0.17246,0.13925,0.029407
1248,0.0093464,0.080382,0.018226,0.041247,0.17838,0.13563,0.030723
1249,0.013622,0.082684,0.021514,0.05177,0.18233,0.096825,0.030723
1250,0.022172,0.088603,0.023159,0.067227,0.18102,0.032696,0.033354
1251,0.033025,0.093536,0.021514,0.076106,0.15799,-0.042615,0.035985
1252,0.046837,0.094852,0.017239,0.073476,0.10077,-0.11891,0.04026
1253,0.05769,0.097154,0.010991,0.055717,0.0050711,-0.18995,0.044535
1254,0.063281,0.10439,0.00079584,0.026447,-0.12187,-0.2521,0.047824
1255,0.06361,0.12149,-0.013017,-0.007097,-0.25638,-0.30472,0.049139
1256,0.059005,0.14517,-0.030118,-0.038011,-0.36458,-0.34978,0.04881
1257,0.04881,0.16852,-0.049521,-0.064978,-0.43101,-0.38529,0.048153
1258,0.031052,0.18167,-0.065964,-0.084052,-0.44844,-0.40897,0.045851
1259,0.0047422,0.18397,-0.074186,-0.094247,-0.42805,-0.42509,0.042891
1260,-0.027487,0.18036,-0.067937,-0.095562,-0.38233,-0.43528,0.040918
1261,-0.054125,0.17477,-0.046232,-0.088656,-0.32741,-0.44219,0.040589
1262,-0.063333,0.16589,-0.016305,-0.07583,-0.27052,-0.45041,0.040589
1263,-0.048205,0.14221,0.0096753,-0.057414,-0.21659,-0.46652,0.041904
1264,-0.015976,0.096496,0.027105,-0.037024,-0.1666,-0.48987,0.04322
1265,0.022501,0.036314,0.036642,-0.017292,-0.1176,-0.5198,0.044864
1266,0.056046,-0.024527,0.036642,-0.0067681,-0.07287,-0.5494,0.048153
1267,0.076435,-0.066951,0.024474,-0.0057815,-0.037353,-0.56486,0.050455
1268,0.080053,-0.079119,0.0011247,-0.012688,-0.011372,-0.54973,0.051113
1269,0.0692,-0.054783,-0.025185,-0.021896,0.0050711,-0.47935,0.049797
1270,0.046837,0.0017824,-0.048205,-0.028802,0.018884,-0.34221,0.047166
1271,0.018226,0.071173,-0.061689,-0.030118,0.036314,-0.1416,0.043877
1272,-0.0097279,0.12609,-0.06136,-0.024198,0.052099,0.090905,0.042233
1273,-0.036366,0.14846,-0.047548,-0.013017,0.05177,0.30072,0.039931
1274,-0.054454,0.13958,-0.023211,-0.002164,0.030394,0.43786,0.037958
1275,-0.058729,0.11426,0.0050711,0.0063866,-0.0067681,0.48785,0.034011
1276,-0.051165,0.087617,0.029078,0.013293,-0.041957,0.47075,0.029078
1277,-0.030775,0.068214,0.041247,0.023159,-0.055769,0.41912,0.025461
1278,0.0067154,0.05473,0.038616,0.036971,-0.036695,0.35597,0.02283
1279,0.055388,0.040589,0.020857,0.049139,0.0086887,0.29316,0.021843
1280,0.10505,0.023488,-0.0061104,0.052099,0.063281,0.23002,0.021843
1281,0.14221,0.0063866,-0.033078,0.04322,0.10801,0.15799,0.01987
1282,0.15931,-0.004466,-0.056756,0.023817,0.13366,0.071502,0.018884
1283,0.15767,-0.007097,-0.073199,0.0034268,0.13826,-0.018607,0.018226
1284,0.13728,-0.00051963,-0.079119,-0.01203,0.12938,-0.09326,0.01691
1285,0.10768,0.012635,-0.079119,-0.019923,0.11721,-0.1393,0.014937
1286,0.077751,0.024145,-0.075501,-0.02354,0.10242,-0.1518,0.011648
1287,0.053415,0.024803,-0.068595,-0.026829,0.085315,-0.1393,0.0080309
1288,0.028092,0.0083598,-0.061689,-0.030118,0.067556,-0.11793,0.0037556
1289,0.0073732,-0.024198,-0.053467,-0.03538,0.053743,-0.10378,0.00079584
1290,-0.0041372,-0.063662,-0.039326,-0.037682,0.049139,-0.10411,-0.0015062
1291,-0.0090702,-0.09622,-0.011043,-0.027487,0.053743,-0.11398,-0.004466
1292,-0.01795,-0.11398,0.033025,-0.0067681,0.065254,-0.12384,-0.0087413
1293,-0.031762,-0.11036,0.085972,0.021186,0.07808,-0.12483,-0.013674
1294,-0.051823,-0.089643,0.13497,0.047824,0.087617,-0.10444,-0.016634
1295,-0.073528,-0.059058,0.16786,0.066569,0.094194,-0.045574,-0.016634
1296,-0.096549,-0.019923,0.18102,0.075778,0.10176,0.048153,-0.01499
1297,-0.11497,0.01987,0.17477,0.077093,0.11294,0.16424,-0.014332
1298,-0.12483,0.049139,0.15503,0.072818,0.12675,0.27639,-0.013674
1299,-0.12417,0.055059,0.12478,0.060979,0.13991,0.35268,-0.014332
1300,-0.11003,0.035327,0.090248,0.041247,0.14747,0.36847,-0.01499
1301,-0.085039,-0.0034794,0.055717,0.019212,0.14287,0.3221,-0.01499
1302,-0.053467,-0.045574,0.023817,0.0034268,0.12478,0.23265,-0.014003
1303,-0.022225,-0.07583,0.00079584,0.0011247,0.095181,0.13004,-0.01203
1304,0.0050711,-0.086354,-0.012688,0.011977,0.059992,0.036971,-0.011701
1305,0.027763,-0.076488,-0.017621,0.030065,0.02579,-0.033735,-0.013017
1306,0.043877,-0.050179,-0.011701,0.044535,-0.0028217,-0.080106,-0.015319
1307,0.054072,-0.015648,-0.002164,0.050126,-0.020909,-0.10707,-0.017621
1308,0.057361,0.017897,0.0080309,0.044864,-0.025185,-0.12779,-0.016305
1309,0.055717,0.039602,0.015266,0.033354,-0.019594,-0.15476,-0.014332
1310,0.045851,0.045522,0.019212,0.022501,-0.010715,-0.19192,-0.010386
1311,0.030394,0.042891,0.02283,0.017568,-0.0067681,-0.23138,-0.0067681
1312,0.012635,0.040589,0.027763,0.016581,-0.0077547,-0.26427,-0.0034794
1313,-0.0038083,0.045851,0.034011,0.014279,-0.017621,-0.28367,-0.00051963
1314,-0.016634,0.051113,0.035327,0.0073732,-0.034393,-0.29025,0.0021113
1315,-0.023211,0.052099,0.029407,-0.0038083,-0.0584,-0.29058,0.0047422
1316,-0.019265,0.048482,0.021186,-0.016963,-0.094576,-0.28861,0.0073732
1317,-0.0015062,0.047166,0.018555,-0.025514,-0.14193,-0.28631,0.0096753
1318,0.02579,0.052099,0.02579,-0.024198,-0.19225,-0.27907,0.012635
1319,0.053086,0.059005,0.039931,-0.01795,-0.23303,-0.26197,0.015924
1320,0.072818,0.060979,0.046508,-0.0097279,-0.25605,-0.22875,0.019541
1321,0.080382,0.05473,0.037629,-0.0038083,-0.26197,-0.18403,0.020528
1322,0.079724,0.040918,0.01691,0.00046697,-0.24816,-0.13009,0.020199
1323,0.073804,0.028092,-0.0018351,0.0054,-0.21922,-0.06136,0.020199
1324,0.066569,0.024145,-0.0093991,0.014608,-0.18534,0.025461,0.022172
1325,0.064596,0.027105,-0.0054526,0.025132,-0.16199,0.12346,0.024474
1326,0.069529,0.032367,0.0017824,0.037629,-0.14851,0.21982,0.027434
1327,0.078409,0.036971,0.0070443,0.04881,-0.14127,0.30533,0.029078
1328,0.091563,0.038616,0.0050711,0.053086,-0.13897,0.36946,0.02875
1329,0.1057,0.035985,-0.004466,0.053743,-0.13864,0.40136,0.02875
1330,0.12379,0.025461,-0.014661,0.056703,-0.13371,0.39544,0.029078
1331,0.14517,0.010004,-0.021238,0.063938,-0.11168,0.35597,0.032038
1332,0.16622,-0.0034794,-0.024198,0.07216,-0.068595,0.30697,0.037958
1333,0.18332,-0.0077547,-0.029789,0.082684,-0.0074258,0.27902,0.043877
1334,0.18989,-0.0011774,-0.034722,0.095181,0.06065,0.29283,0.048482
1335,0.18233,0.015266,-0.03538,0.10307,0.12083,0.34578,0.050126
1336,0.16227,0.033025,-0.02946,0.10636,0.15898,0.42142,0.050455
1337,0.13563,0.043549,-0.020581,0.10768,0.16983,0.50363,0.049139
1338,0.10735,0.039931,-0.013017,0.10932,0.15635,0.5875,0.04881
1339,0.080382,0.019541,-0.0090702,0.10866,0.1284,0.67629,0.04881
1340,0.051441,-0.013345,-0.0077547,0.10735,0.10209,0.76114,0.047824
1341,0.011977,-0.053467,-0.010057,0.10538,0.094194,0.82,0.04618
1342,-0.035051,-0.086025,-0.015319,0.10274,0.10801,0.81737,0.042233
1343,-0.080434,-0.09918,-0.018278,0.097483,0.1353,0.72365,0.039273
1344,-0.11431,-0.084052,-0.017292,0.083342,0.15865,0.53652,0.036642
1345,-0.12812,-0.04393,-0.013017,0.056374,0.16523,0.28724,0.037629
1346,-0.11825,0.0093464,-0.0090702,0.028421,0.1524,0.035327,0.040589
1347,-0.097864,0.057361,-0.0084125,0.0093464,0.12807,-0.15838,0.043877
1348,-0.07024,0.08663,-0.014003,0.0011247,0.10307,-0.25704,0.046508
1349,-0.040641,0.093536,-0.022225,-0.0074258,0.084328,-0.26032,0.046837
1350,-0.011701,0.079066,-0.030775,-0.020581,0.073804,-0.20244,0.045522
1351,0.011648,0.046837,-0.032749,-0.036037,0.067556,-0.13305,0.042891
1352,0.027434,0.00079584,-0.026171,-0.045574,0.063281,-0.088327,0.038616
1353,0.036971,-0.04393,-0.0080836,-0.044588,0.060321,-0.083065,0.03434
1354,0.0373,-0.073528,0.016581,-0.033078,0.061307,-0.11299,0.030723
1355,0.03434,-0.080434,0.042562,-0.015976,0.067556,-0.1643,0.026119
1356,0.038287,-0.070568,0.065583,0.0017824,0.079724,-0.2179,0.02283
1357,0.052757,-0.055112,0.080711,0.014937,0.090248,-0.25737,0.020528
1358,0.073476,-0.041957,0.084328,0.01987,0.083999,-0.28532,0.019212
1359,0.085644,-0.03538,0.073804,0.020528,0.043877,-0.31459,0.019212
1360,0.081039,-0.030118,0.053415,0.021514,-0.035051,-0.35504,0.019212
1361,0.055388,-0.015319,0.033025,0.026119,-0.13404,-0.39878,0.018555
1362,0.01987,0.011977,0.018884,0.04026,-0.22185,-0.42114,0.01987
1363,-0.014332,0.051113,0.011648,0.06624,-0.27019,-0.40272,0.020528
1364,-0.035051,0.091892,0.010662,0.096825,-0.27216,-0.33925,0.01987
1365,-0.037024,0.12511,0.020199,0.11985,-0.23796,-0.2521,0.016581
1366,-0.023869,0.1455,0.03434,0.12478,-0.18896,-0.17054,0.011648
1367,-0.0061104,0.15043,0.043877,0.11031,-0.14193,-0.12253,0.0070443
1368,0.0021113,0.14089,0.047166,0.084657,-0.10477,-0.11595,0.0037556
1369,-0.0077547,0.11985,0.046508,0.058348,-0.079119,-0.13601,0.0024402
1370,-0.036037,0.086959,0.041904,0.035656,-0.061689,-0.15575,0.0001381
1371,-0.075501,0.046508,0.032038,0.017239,-0.045903,-0.15344,-0.0018351
1372,-0.11036,0.0063866,0.01691,0.0044134,-0.0265,-0.1222,-0.0047949
1373,-0.13009,-0.021567,0.0011247,-0.0057815,0.00079584,-0.066622,-0.0080836
1374,-0.13601,-0.032091,-0.0047949,-0.013674,0.034669,0.00079584,-0.010715
1375,-0.13009,-0.025185,0.002769,-0.02354,0.06624,0.05769,-0.013017
1376,-0.11924,-0.007097,0.021843,-0.036037,0.086959,0.07808,-0.013674
1377,-0.10641,0.01132,0.043877,-0.054454,0.096167,0.05177,-0.013674
1378,-0.089972,0.02283,0.059005,-0.076488,0.097483,-0.0054526,-0.013017
1379,-0.070568,0.021514,0.062623,-0.097536,0.09255,-0.076159,-0.012688
1380,-0.051823,0.012635,0.054072,-0.11497,0.084657,-0.15048,-0.01203
1381,-0.034722,-0.0008485,0.032038,-0.12549,0.082026,-0.22251,-0.011372
1382,-0.019594,-0.011043,0.0030979,-0.12976,0.08663,-0.29354,-0.010057
1383,-0.0077547,-0.013017,-0.022225,-0.13272,0.10077,-0.36984,-0.010057
1384,0.0054,-0.012688,-0.037024,-0.14193,0.13004,-0.45797,-0.010386
1385,0.022172,-0.01795,-0.041628,-0.15805,0.16852,-0.55203,-0.013017
1386,0.040918,-0.02946,-0.037682,-0.16791,0.20272,-0.6257,-0.016305
1387,0.06065,-0.039984,-0.027158,-0.14785,0.21851,-0.64411,-0.01795
1388,0.075449,-0.041299,-0.011701,-0.079448,0.20963,-0.58689,-0.017621
1389,0.080711,-0.032749,-0.00019077,0.031052,0.17345,-0.45436,-0.014003
1390,0.075449,-0.022554,0.0047422,0.15635,0.11097,-0.27249,-0.0090702
1391,0.064267,-0.016963,0.0044134,0.26521,0.040918,-0.083065,-0.0041372
1392,0.051441,-0.016963,0.0034268,0.33164,-0.017621,0.080382,-0.00051963
1393,0.040589,-0.011043,0.0060577,0.34216,-0.05281,0.20206,0.0001381
1394,0.031381,0.011977,0.012306,0.30302,-0.06432,0.28724,0.0011247
1395,0.027763,0.059663,0.020528,0.23429,-0.054783,0.35696,0.0030979
1396,0.031381,0.13333,0.027763,0.15767,-0.03242,0.43095,0.0070443
1397,0.040918,0.21686,0.031709,0.088603,-0.0057815,0.52041,0.010991
1398,0.055388,0.27737,0.033025,0.038616,0.014937,0.62959,0.014608
1399,0.063281,0.28132,0.031381,0.0040845,0.021186,0.75061,0.017568
1400,0.054401,0.21785,0.028092,-0.025185,0.010333,0.86605,0.019212
1401,0.022501,0.10932,0.026119,-0.055769,-0.010715,0.94169,0.019212
1402,-0.019923,-0.004466,0.023817,-0.081421,-0.031104,0.95056,0.018226
1403,-0.056756,-0.088656,0.018555,-0.094576,-0.037682,0.88019,0.01691
1404,-0.07024,-0.12187,0.0070443,-0.092931,-0.017621,0.74108,0.018555
1405,-0.051165,-0.099838,-0.0041372,-0.084052,0.041247,0.56053,0.021186
1406,-0.0018351,-0.031433,-0.0061104,-0.073857,0.13991,0.36847,0.025132
1407,0.066569,0.066569,0.002769,-0.063004,0.27112,0.18628,0.02875
1408,0.13728,0.17674,0.013951,-0.049521,0.41517,0.029407,0.031381
1409,0.19154,0.27047,0.024145,-0.031104,0.53817,-0.089314,0.03434
1410,0.21851,0.32703,0.033354,-0.010057,0.61019,-0.16265,0.035985
1411,0.20667,0.33558,0.047495,0.0086887,0.62268,-0.20014,0.0373
1412,0.16687,0.30796,0.072489,0.018555,0.58322,-0.22152,0.040589
1413,0.11623,0.26521,0.1113,0.014608,0.49475,-0.23698,0.046508
1414,0.064596,0.21916,0.1524,-0.0051238,0.35531,-0.25145,0.051441
1415,0.0090175,0.16687,0.17016,-0.041299,0.15207,-0.26953,0.052428
1416,-0.052481,0.10044,0.14648,-0.087669,-0.11266,-0.29518,0.052099
1417,-0.10609,0.032038,0.082026,-0.13272,-0.4093,-0.32676,0.049468
1418,-0.13174,-0.020252,-0.00019077,-0.16331,-0.68621,-0.35109,0.049468
1419,-0.11793,-0.041299,-0.074186,-0.17383,-0.8878,-0.35603,0.051441
1420,-0.070897,-0.040641,-0.1176,-0.16857,-0.98087,-0.33596,0.052428
1421,-0.010386,-0.033078,-0.12878,-0.1495,-0.96871,-0.29979,0.05177
1422,0.042233,-0.03538,-0.11924,-0.11529,-0.88616,-0.25868,0.049139
1423,0.068871,-0.051165,-0.098193,-0.057414,-0.77862,-0.22218,0.04618
1424,0.06361,-0.074844,-0.069253,0.027763,-0.68128,-0.18896,0.045193
1425,0.034669,-0.1005,-0.02946,0.13333,-0.60333,-0.16101,0.045522
1426,-0.0018351,-0.12089,0.015924,0.23363,-0.53756,-0.13601,0.047166
1427,-0.038011,-0.13667,0.057361,0.30566,-0.46554,-0.10707,0.049139
1428,-0.07024,-0.14983,0.084328,0.33525,-0.37905,-0.074186,0.047824
1429,-0.095562,-0.1689,0.093865,0.3198,-0.28302,-0.045903,0.045522
1430,-0.1176,-0.19225,0.085315,0.27343,-0.1814,-0.025842,0.041247
1431,-0.14095,-0.21099,0.064925,0.21752,-0.063004,-0.013674,0.039273
1432,-0.16265,-0.22119,0.039931,0.16852,0.10307,0.0011247,0.038616
1433,-0.17844,-0.22283,0.016581,0.1353,0.32901,0.034669,0.038944
1434,-0.18074,-0.21889,-0.0034794,0.11393,0.58322,0.094523,0.038616
1435,-0.16528,-0.2054,-0.018936,0.095181,0.80159,0.18529,0.035985
1436,-0.13536,-0.1814,-0.029789,0.074462,0.91735,0.29711,0.031709
1437,-0.096878,-0.15147,-0.036695,0.051113,0.89926,0.40333,0.02579
1438,-0.061031,-0.12056,-0.038011,0.032696,0.76147,0.46516,0.020528
1439,-0.03538,-0.094905,-0.040313,0.018884,0.56217,0.452,0.017897
1440,-0.019265,-0.076488,-0.046232,0.0080309,0.3688,0.36584,0.015924
1441,-0.010386,-0.057743,-0.052152,-0.0047949,0.23035,0.23462,0.015924
1442,-0.0057815,-0.02946,-0.046561,-0.022225,0.16654,0.1011,0.017897
1443,-0.00019077,0.0093464,-0.031433,-0.038011,0.16852,0.0011247,0.018884
1444,0.0080309,0.052428,-0.010715,-0.043601,0.2162,-0.050507,0.018555
1445,0.013622,0.093865,0.0054,-0.036695,0.28033,-0.057743,0.015595
1446,0.017239,0.12873,0.013293,-0.020581,0.3346,-0.029789,0.01132
1447,0.021186,0.15339,0.010662,-0.0028217,0.36781,0.018555,0.0070443
1448,0.029078,0.16589,0.00079584,0.0024402,0.36748,0.0692,0.0024402
1449,0.0373,0.16293,-0.014332,-0.015319,0.31322,0.1113,0.0001381
1450,0.042562,0.14681,-0.027487,-0.059716,0.18266,0.13991,-0.0024928
1451,0.043549,0.12478,-0.033735,-0.11201,-0.022225,0.15306,-0.004466
1452,0.037958,0.10472,-0.031104,-0.14062,-0.27282,0.14583,-0.0087413
1453,0.024803,0.094194,-0.023869,-0.1324,-0.51487,0.1205,-0.012359
1454,0.0083598,0.09255,-0.015976,-0.091616,-0.6964,0.08367,-0.013017
1455,-0.010057,0.090248,-0.01499,-0.038668,-0.78191,0.043549,-0.013674
1456,-0.025514,0.074462,-0.022225,0.0024402,-0.76448,0.014937,-0.012688
1457,-0.030447,0.042891,-0.038997,0.015266,-0.65891,0.022172,-0.013017
1458,-0.021567,0.0070443,-0.060702,0.00046697,-0.4981,0.069529,-0.013017
1459,0.002769,-0.024856,-0.083723,-0.028144,-0.32215,0.13728,-0.013017
1460,0.045193,-0.038339,-0.10641,-0.055769,-0.17087,0.19746,-0.012688
1461,0.10406,-0.022225,-0.12154,-0.069253,-0.069253,0.2264,-0.011701
1462,0.16391,0.019212,-0.12187,-0.069911,-0.016305,0.21522,-0.011043
1463,0.21061,0.07216,-0.10576,-0.057414,0.0063866,0.17016,-0.0097279
1464,0.24153,0.12511,-0.069911,-0.035051,0.020199,0.11491,-0.010057
1465,0.25961,0.16983,-0.016305,-0.0041372,0.038287,0.071502,-0.01203
1466,0.26751,0.20305,0.048482,0.02875,0.064267,0.048153,-0.01499
1467,0.26849,0.22048,0.11754,0.063281,0.086959,0.027434,-0.01795
1468,0.26389,0.21785,0.18102,0.094194,0.086959,-0.017292,-0.019594
1469,0.2481,0.1945,0.22377,0.11853,0.055388,-0.091945,-0.016963
1470,0.20996,0.15273,0.23462,0.1307,0.0011247,-0.18107,-0.013017
1471,0.14024,0.090577,0.21456,0.12905,-0.053467,-0.25309,-0.0080836
1472,0.032696,0.0017824,0.1751,0.11261,-0.091616,-0.27151,-0.0054526
1473,-0.1005,-0.11266,0.12577,0.083013,-0.10839,-0.21363,-0.002164
1474,-0.2304,-0.24092,0.073804,0.042891,-0.11628,-0.089643,0.0014536
1475,-0.3238,-0.35109,0.024145,-0.0031506,-0.13404,0.059992,0.0054
1476,-0.35603,-0.41292,-0.01795,-0.04985,-0.16791,0.18167,0.010333
1477,-0.32708,-0.41029,-0.047548,-0.0903,-0.20968,0.23692,0.014608
1478,-0.25506,-0.35635,-0.065635,-0.11858,-0.24947,0.21588,0.017239
1479,-0.16627,-0.27841,-0.071555,-0.13042,-0.27085,0.133,0.018555
1480,-0.08471,-0.19916,-0.065964,-0.11891,-0.26328,0.013622,0.018555
1481,-0.0265,-0.1324,-0.044917,-0.088985,-0.22941,-0.11431,0.016253
1482,0.0030979,-0.084381,-0.014003,-0.052481,-0.18436,-0.22481,0.015924
1483,0.013293,-0.058071,0.013622,-0.025842,-0.14983,-0.2988,0.01691
1484,0.016581,-0.054783,0.024145,-0.017621,-0.13141,-0.32873,0.020199
1485,0.018226,-0.069582,0.014937,-0.021896,-0.1176,-0.32149,0.024145
1486,0.024145,-0.087012,-0.0077547,-0.027487,-0.085039,-0.2942,0.027434
1487,0.035656,-0.093589,-0.032749,-0.028144,-0.014003,-0.25638,0.030723
1488,0.052099,-0.083394,-0.052152,-0.021567,0.094852,-0.20606,0.033025
1489,0.070187,-0.061031,-0.062018,-0.0087413,0.23002,-0.14292,0.03434
1490,0.085315,-0.035051,-0.062676,0.0080309,0.38886,-0.074844,0.034669
1491,0.093865,-0.013017,-0.056756,0.028092,0.57796,-0.0087413,0.036642
1492,0.094523,-0.00019077,-0.04985,0.044206,0.80027,0.047824,0.041247
1493,0.090577,0.0080309,-0.040313,0.056046,1.0232,0.094523,0.046508
1494,0.086959,0.017568,-0.028144,0.06361,1.1811,0.13464,0.050455
1495,0.086301,0.034669,-0.016305,0.0692,1.2035,0.1672,0.051113
1496,0.090577,0.058676,-0.010057,0.073804,1.0644,0.18463,0.050126
1497,0.09551,0.084657,-0.010386,0.073804,0.79534,0.17871,0.048153
1498,0.098141,0.11393,-0.016963,0.072489,0.47634,0.14714,0.046508
1499,0.098141,0.14747,-0.0265,0.069858,0.18989,0.094852,0.045851
1500,0.09551,0.18069,-0.034722,0.065912,-0.0087413,0.027763,0.04618
1501,0.090577,0.20667,-0.038339,0.058019,-0.10477,-0.039326,0.045193
1502,0.085644,0.21818,-0.034393,0.04618,-0.11497,-0.097207,0.044535
1503,0.078409,0.21324,-0.024856,0.03434,-0.080106,-0.14555,0.043549
1504,0.071173,0.19614,-0.011043,0.023817,-0.038668,-0.18403,0.043877
1505,0.065912,0.18134,0.0044134,0.021514,-0.011372,-0.2031,0.046837
1506,0.065583,0.17411,0.021186,0.028421,0.0021113,-0.1906,0.050126
1507,0.062952,0.1672,0.042233,0.042562,0.014279,-0.14555,0.052428
1508,0.051441,0.14517,0.065254,0.058676,0.038616,-0.084052,0.052428
1509,0.030394,0.097812,0.082026,0.073476,0.075449,-0.029789,0.049468
1510,0.0014536,0.028421,0.08367,0.081039,0.11557,-0.0018351,0.04322
1511,-0.034064,-0.045246,0.068543,0.082026,0.14122,-0.013674,0.037629
1512,-0.067937,-0.10214,0.04618,0.073476,0.14089,-0.065307,0.033683
1513,-0.091287,-0.13174,0.028092,0.058348,0.11787,-0.14193,0.032696
1514,-0.097864,-0.13667,0.021514,0.043877,0.076764,-0.22744,0.033354
1515,-0.087669,-0.12154,0.021843,0.026447,0.010662,-0.31294,0.033683
1516,-0.067937,-0.092603,0.024145,-0.002164,-0.096549,-0.39089,0.031709
1517,-0.044917,-0.055112,0.022172,-0.041957,-0.24585,-0.46258,0.027434
1518,-0.027158,-0.021896,0.014608,-0.080434,-0.42542,-0.53657,0.023159
1519,-0.021896,-0.0054526,0.0017824,-0.098522,-0.60892,-0.61649,0.018884
1520,-0.027487,-0.0080836,-0.010057,-0.083723,-0.7681,-0.68818,0.017568
1521,-0.038339,-0.01795,-0.017621,-0.037682,-0.86939,-0.71515,0.018555
1522,-0.044588,-0.021567,-0.015976,0.027763,-0.88024,-0.65332,0.021843
1523,-0.042286,-0.011372,-0.004466,0.093208,-0.7875,-0.46192,0.024803
1524,-0.031762,0.013293,0.011648,0.14583,-0.60728,-0.14259,0.026119
1525,-0.013017,0.041575,0.026119,0.18036,-0.38431,0.23824,0.023817
1526,0.012964,0.068543,0.03434,0.19483,-0.16298,0.57829,0.017239
1527,0.041247,0.087617,0.033683,0.18957,0.019212,0.7881,0.0080309
1528,0.064596,0.096825,0.026119,0.16852,0.15175,0.82691,-0.00051963
1529,0.079066,0.095839,0.014937,0.14484,0.2458,0.72759,-0.0061104
1530,0.087946,0.08367,0.0040845,0.12609,0.31486,0.57434,-0.0090702
1531,0.091563,0.070187,-0.0038083,0.11524,0.36091,0.45595,-0.010057
1532,0.090905,0.068543,-0.0041372,0.10702,0.37242,0.42076,-0.0097279
1533,0.085972,0.088932,0.0063866,0.094194,0.34479,0.45759,-0.011043
1534,0.080053,0.12248,0.016253,0.07512,0.28461,0.51778,-0.012359
1535,0.072489,0.14846,0.01987,0.058019,0.21686,0.55264,-0.012688
1536,0.059334,0.15306,0.020199,0.049468,0.16161,0.53817,-0.013345
1537,0.039602,0.13695,0.025461,0.050784,0.13103,0.47798,-0.014003
1538,0.021514,0.10932,0.036642,0.061307,0.14024,0.39905,-0.013017
1539,0.012306,0.082684,0.047824,0.070845,0.18792,0.32111,-0.012359
1540,0.011977,0.065583,0.05177,0.069529,0.24745,0.23363,-0.013017
1541,0.011648,0.06361,0.045851,0.048482,0.27441,0.11952,-0.014003
1542,0.010004,0.082684,0.030723,0.0057288,0.23035,-0.027816,-0.014661
1543,0.015595,0.12379,0.012306,-0.045246,0.10439,-0.19751,-0.014661
1544,0.039602,0.18233,-0.0024928,-0.088656,-0.085696,-0.35438,-0.015319
1545,0.079066,0.24482,-0.010057,-0.11069,-0.29814,-0.45666,-0.01795
1546,0.12017,0.29974,-0.0054526,-0.10905,-0.48099,-0.47047,-0.019265
1547,0.14681,0.33657,0.0086887,-0.086025,-0.58557,-0.39385,-0.019594
1548,0.15536,0.35071,0.029078,-0.045903,-0.58919,-0.25506,-0.01795
1549,0.14912,0.34709,0.05769,0.0014536,-0.5073,-0.1051,-0.012688
1550,0.13037,0.32572,0.092221,0.043549,-0.38957,0.0093464,-0.0084125
1551,0.093536,0.27968,0.12346,0.068543,-0.28631,0.064596,-0.0057815
1552,0.034011,0.19647,0.13695,0.068543,-0.2327,0.067885,-0.0054526
1553,-0.045903,0.075449,0.12313,0.044535,-0.23303,0.054072,-0.0054526
1554,-0.12746,-0.069911,0.083013,0.0073732,-0.26657,0.064925,-0.0031506
1555,-0.1906,-0.21659,0.035327,-0.027816,-0.30078,0.12445,0.0014536
1556,-0.22316,-0.333,0.002769,-0.049192,-0.30505,0.23626,0.0080309
1557,-0.23632,-0.39779,-0.0038083,-0.047548,-0.2692,0.37899,0.014608
1558,-0.24585,-0.4024,0.017239,-0.026171,-0.19718,0.5158,0.018226
1559,-0.25408,-0.3557,0.050784,0.0054,-0.10872,0.61413,0.018555
1560,-0.2498,-0.26756,0.080053,0.036971,-0.015648,0.64702,0.017239
1561,-0.21922,-0.1495,0.093865,0.058676,0.075778,0.60032,0.014279
1562,-0.16002,-0.013674,0.094523,0.067227,0.17115,0.49245,0.013293
1563,-0.087669,0.12313,0.087946,0.065254,0.25994,0.36715,0.013951
1564,-0.021567,0.23988,0.079724,0.055388,0.32341,0.26751,0.016581
1565,0.01987,0.31848,0.070187,0.040589,0.3346,0.22114,0.021186
1566,0.038287,0.34808,0.055388,0.030065,0.29119,0.21982,0.026447
1567,0.041247,0.32637,0.038944,0.030394,0.21883,0.24482,0.029736
1568,0.034011,0.26586,0.026776,0.044206,0.15898,0.27145,0.031052
1569,0.022172,0.18463,0.017568,0.067885,0.13859,0.27474,0.033025
1570,0.010991,0.1034,0.012306,0.089919,0.16063,0.23692,0.03434
1571,0.0096753,0.035656,0.0083598,0.10077,0.20601,0.15898,0.036971
1572,0.01987,-0.011372,0.0047422,0.095839,0.25304,0.055388,0.041247
1573,0.035656,-0.039655,0.0001381,0.072818,0.29053,-0.047877,0.04618
1574,0.047495,-0.053138,-0.0024928,0.0373,0.31684,-0.12352,0.049797
1575,0.05177,-0.056427,-0.0064392,-0.00019077,0.33032,-0.16232,0.051441
1576,0.051441,-0.05544,-0.013674,-0.028802,0.33164,-0.17383,0.05177
1577,0.052099,-0.053467,-0.021896,-0.045246,0.31585,-0.17548,0.050126
1578,0.057361,-0.053138,-0.027816,-0.049192,0.28823,-0.18238,0.047824
1579,0.066569,-0.054783,-0.028473,-0.049192,0.25106,-0.20179,0.045522
1580,0.076764,-0.060045,-0.025842,-0.052152,0.20371,-0.23106,0.043549
1581,0.087288,-0.061689,-0.023869,-0.063004,0.14616,-0.26493,0.041904
1582,0.097812,-0.058071,-0.019923,-0.077475,0.077093,-0.29617,0.041247
1583,0.10998,-0.051823,-0.016634,-0.088985,0.0050711,-0.32314,0.041904
1584,0.12346,-0.049192,-0.017621,-0.097207,-0.055112,-0.34057,0.044206
1585,0.13497,-0.052481,-0.025185,-0.10082,-0.087669,-0.34682,0.047824
1586,0.14089,-0.057414,-0.036366,-0.10609,-0.085367,-0.34221,0.051441
1587,0.1376,-0.060045,-0.047877,-0.11201,-0.05544,-0.33103,0.052099
1588,0.1205,-0.053467,-0.05544,-0.11168,-0.01203,-0.31788,0.05177
1589,0.08663,-0.030118,-0.056756,-0.10115,0.025461,-0.30834,0.050126
1590,0.039931,0.0057288,-0.053796,-0.08471,0.04618,-0.3067,0.047824
1591,-0.01203,0.040918,-0.049521,-0.063333,0.048482,-0.31196,0.044535
1592,-0.060045,0.055388,-0.04689,-0.035708,0.0373,-0.31656,0.042233
1593,-0.088656,0.039602,-0.04689,0.0070443,0.019541,-0.31853,0.040589
1594,-0.087998,-0.0018351,-0.044259,0.062623,0.0017824,-0.31196,0.037958
1595,-0.0584,-0.054783,-0.031762,0.12083,-0.012688,-0.29255,0.035656
1596,-0.015319,-0.10214,-0.0064392,0.16918,-0.025842,-0.26526,0.031052
1597,0.027105,-0.13371,0.028092,0.19746,-0.038339,-0.235,0.025461
1598,0.059005,-0.14818,0.06361,0.20272,-0.052152,-0.21165,0.018884
1599,0.072489,-0.14127,0.088603,0.18891,-0.070897,-0.20409,0.014937
1600,0.066569,-0.10707,0.098798,0.1603,-0.085367,-0.21428,0.013293
1601,0.050784,-0.044917,0.098141,0.12182,-0.087341,-0.23138,0.014608
1602,0.035327,0.033025,0.093208,0.080382,-0.071884,-0.24092,0.017897
1603,0.024474,0.10439,0.084986,0.046508,-0.043272,-0.23665,0.020199
1604,0.014279,0.15043,0.070187,0.02579,-0.0064392,-0.22053,0.01987
1605,0.0057288,0.15898,0.049139,0.018555,0.043549,-0.19587,0.016253
1606,-0.0041372,0.13662,0.023488,0.023159,0.11426,-0.17383,0.010991
1607,-0.017292,0.093208,-0.0031506,0.042562,0.20338,-0.15969,0.0063866
1608,-0.037024,0.038944,-0.025185,0.071831,0.28592,-0.15213,0.0030979
1609,-0.06728,-0.01795,-0.039984,0.10143,0.32901,-0.14588,0.00079584
1610,-0.10181,-0.07287,-0.041957,0.12215,0.30664,-0.13832,-0.0011774
1611,-0.137,-0.12253,-0.034064,0.12905,0.2241,-0.12845,-0.0034794
1612,-0.15936,-0.16101,-0.024198,0.12346,0.1057,-0.11299,-0.007097
1613,-0.1587,-0.17712,-0.01499,0.10834,-0.011701,-0.088656,-0.0093991
1614,-0.13503,-0.16462,-0.0087413,0.088275,-0.11299,-0.054783,-0.010715
1615,-0.094905,-0.13141,-0.0054526,0.067885,-0.20376,-0.014332,-0.010057
1616,-0.046232,-0.087998,-0.0038083,0.045851,-0.30078,0.025461,-0.010715
1617,0.0011247,-0.041299,-0.0054526,0.020857,-0.40174,0.058019,-0.011701
1618,0.038944,0.0011247,-0.01499,-0.010715,-0.4902,0.067556,-0.013345
1619,0.062294,0.035327,-0.029131,-0.046561,-0.54315,0.050126,-0.01499
1620,0.07216,0.062952,-0.041628,-0.079119,-0.53986,0.015924,-0.015648
1621,0.068543,0.081368,-0.04985,-0.10674,-0.48461,-0.020909,-0.013674
1622,0.053086,0.094523,-0.055769,-0.12615,-0.4024,-0.049192,-0.010057
1623,0.035327,0.10636,-0.0584,-0.14226,-0.31294,-0.059387,-0.0061104
1624,0.01987,0.11919,-0.058071,-0.15476,-0.23402,-0.052152,-0.0067681
1625,0.0060577,0.13169,-0.053796,-0.15575,-0.16923,-0.030447,-0.011043
1626,-0.012359,0.13596,-0.041299,-0.13766,-0.11299,-0.0064392,-0.016305
1627,-0.036695,0.12313,-0.020252,-0.10346,-0.065307,0.01132,-0.019923
1628,-0.061689,0.086959,0.0073732,-0.062347,-0.033078,0.020199,-0.020252
1629,-0.077803,0.028092,0.035985,-0.021567,-0.019265,0.02579,-0.01795
1630,-0.081421,-0.045246,0.058019,0.0044134,-0.020252,0.033683,-0.014003
1631,-0.074844,-0.11497,0.064925,0.010991,-0.027487,0.050126,-0.0093991
1632,-0.062347,-0.17022,0.055059,0.0034268,-0.032749,0.082026,-0.0047949
1633,-0.051165,-0.20803,0.028092,-0.011372,-0.028802,0.12873,0.0001381
1634,-0.045574,-0.23204,-0.0031506,-0.025185,-0.011372,0.17641,0.0034268
1635,-0.043272,-0.23961,-0.026829,-0.03242,0.0080309,0.21489,0.0067154
1636,-0.041628,-0.22612,-0.034393,-0.032091,0.021186,0.24449,0.0096753
1637,-0.037024,-0.18962,-0.026171,-0.02354,0.034669,0.26488,0.01132
1638,-0.020909,-0.1324,-0.007097,-0.011043,0.055388,0.27441,0.012635
1639,0.0057288,-0.060702,0.01691,0.0014536,0.08663,0.27441,0.014937
1640,0.038287,0.014937,0.043549,0.011648,0.12478,0.26652,0.016581
1641,0.066569,0.080711,0.06624,0.017897,0.16622,0.24778,0.017568
1642,0.084986,0.12741,0.081039,0.017897,0.20667,0.23363,0.017897
1643,0.092221,0.14813,0.085972,0.015595,0.24482,0.24449,0.019541
1644,0.094523,0.14484,0.084986,0.013293,0.28132,0.28132,0.021843
1645,0.097483,0.12379,0.077422,0.014937,0.31486,0.32276,0.025132
1646,0.10603,0.090248,0.065912,0.021514,0.34413,0.34545,0.02875
1647,0.12412,0.050784,0.048153,0.029078,0.36452,0.33986,0.031709
1648,0.14846,0.014608,0.026119,0.033354,0.36814,0.31223,0.032696
1649,0.16753,-0.0084125,0.0044134,0.035656,0.3494,0.27244,0.032367
1650,0.17674,-0.0047949,-0.013345,0.034998,0.31026,0.2389,0.031709
1651,0.17345,0.024145,-0.023211,0.033354,0.26225,0.22081,0.033025
1652,0.15865,0.068871,-0.024527,0.026119,0.21456,0.21883,0.036314
1653,0.13333,0.11952,-0.020252,0.018555,0.1751,0.22837,0.04026
1654,0.10538,0.16095,-0.018278,0.010004,0.14484,0.23659,0.044206
1655,0.075449,0.17773,-0.019594,0.0047422,0.11985,0.22771,0.045851
1656,0.044535,0.16161,-0.025842,-0.0008485,0.10176,0.19483,0.045851
1657,0.012635,0.11985,-0.03242,-0.0090702,0.084986,0.1455,0.045193
1658,-0.026171,0.060979,-0.033406,-0.018278,0.067556,0.094194,0.044535
1659,-0.07287,-0.0034794,-0.029789,-0.027816,0.046837,0.04618,0.044864
1660,-0.11957,-0.063991,-0.0265,-0.03538,0.028092,-0.0024928,0.045193
1661,-0.14983,-0.10773,-0.028802,-0.039326,0.012306,-0.058071,0.044864
1662,-0.15213,-0.12976,-0.037353,-0.036695,0.0034268,-0.11694,0.04322
1663,-0.1222,-0.12812,-0.050836,-0.024198,-0.00019077,-0.16956,0.04322
1664,-0.064649,-0.10905,-0.06136,-0.00051963,-0.004466,-0.20409,0.044864
1665,0.0063866,-0.081421,-0.061689,0.032038,-0.018607,-0.21856,0.048153
1666,0.065254,-0.051823,-0.051494,0.06624,-0.050179,-0.22119,0.050455
1667,0.091892,-0.028144,-0.030775,0.090905,-0.10148,-0.22283,0.052099
1668,0.083013,-0.0051238,-0.00051963,0.1011,-0.16232,-0.22678,0.050455
1669,0.049139,0.027105,0.034669,0.10077,-0.21987,-0.22711,0.048482
1670,0.013622,0.064925,0.061307,0.095839,-0.26131,-0.21527,0.045522
1671,-0.0077547,0.095839,0.072489,0.089919,-0.28532,-0.18271,0.042233
1672,-0.0097279,0.10406,0.064925,0.081697,-0.29551,-0.11891,0.038944
1673,0.0034268,0.08367,0.04322,0.0692,-0.29453,-0.016963,0.036971
1674,0.025132,0.048482,0.017897,0.051113,-0.27808,0.1182,0.034998
1675,0.048153,0.021186,-0.00051963,0.031052,-0.23895,0.26586,0.033025
1676,0.059334,0.010662,-0.010057,0.014279,-0.17712,0.40004,0.029736
1677,0.054072,0.016253,-0.014003,0.0073732,-0.097207,0.49475,0.027105
1678,0.035327,0.031709,-0.017621,0.014608,-0.0038083,0.52896,0.024145
1679,0.013293,0.055717,-0.020909,0.032038,0.097483,0.49114,0.022172
1680,-0.002164,0.081697,-0.018936,0.054401,0.19187,0.38853,0.019541
1681,-0.0041372,0.098469,-0.0093991,0.076764,0.26455,0.24284,0.017568
1682,0.0057288,0.10209,0.0067154,0.094523,0.31092,0.081697,0.017239
1683,0.021843,0.092879,0.027105,0.1057,0.33558,-0.069253,0.017239
1684,0.038287,0.075449,0.046508,0.11195,0.34972,-0.18304,0.017897
1685,0.053415,0.059005,0.059005,0.11327,0.35795,-0.24158,0.01691
1686,0.065254,0.050126,0.05769,0.10307,0.35005,-0.24059,0.012635
1687,0.071831,0.046837,0.041904,0.073476,0.30237,-0.19488,0.0077021
1688,0.071173,0.047495,0.015924,0.021843,0.19943,-0.12615,0.0034268
1689,0.062623,0.052428,-0.014661,-0.042286,0.052757,-0.04097,-0.00051963
1690,0.049797,0.061965,-0.042615,-0.099509,-0.10477,0.056703,-0.0018351
1691,0.039931,0.07512,-0.062676,-0.12845,-0.23237,0.15471,-0.0031506
1692,0.039273,0.085315,-0.070897,-0.12253,-0.30078,0.23429,-0.0054526
1693,0.04322,0.088603,-0.062347,-0.085039,-0.30045,0.28099,-0.0064392
1694,0.049797,0.084328,-0.038011,-0.028144,-0.25013,0.29546,-0.0097279
1695,0.05473,0.072818,-0.0024928,0.036971,-0.17778,0.29513,-0.01203
1696,0.054072,0.050784,0.030065,0.096167,-0.10674,0.29546,-0.013674
1697,0.048153,0.020857,0.051113,0.13859,-0.04985,0.3119,-0.014332
1698,0.036642,-0.010057,0.052757,0.15701,-0.0047949,0.34972,-0.014332
1699,0.020857,-0.035051,0.043877,0.15109,0.02875,0.39379,-0.014003
1700,0.0060577,-0.047548,0.029407,0.12445,0.04881,0.41517,-0.014003
1701,-0.0028217,-0.043272,0.015924,0.084986,0.053743,0.39346,-0.013674
1702,-0.0051238,-0.025842,0.0093464,0.045193,0.044864,0.33361,-0.013017
1703,-0.002164,-0.0034794,0.012964,0.017239,0.028092,0.27014,-0.012359
1704,0.0017824,0.016253,0.021514,-0.00051963,0.016253,0.23429,-0.011701
1705,0.0017824,0.030723,0.028092,-0.01203,0.016253,0.23594,-0.012359
1706,0.0001381,0.044864,0.031709,-0.021896,0.027763,0.25402,-0.014332
1707,0.002769,0.058348,0.036642,-0.028802,0.042891,0.26356,-0.016963
1708,0.014279,0.069858,0.042891,-0.02946,0.051113,0.25008,-0.017292
1709,0.029078,0.076764,0.04881,-0.020909,0.049139,0.21851,-0.015648
1710,0.04026,0.080711,0.049797,-0.0011774,0.035985,0.18233,-0.012688
1711,0.041247,0.07808,0.042233,0.027763,0.018226,0.15076,-0.0084125
1712,0.028092,0.067885,0.028421,0.058676,-0.0018351,0.12313,-0.0067681
1713,0.00079584,0.051441,0.012635,0.081697,-0.017292,0.092221,-0.0051238
1714,-0.040641,0.025132,-0.00051963,0.088603,-0.022225,0.046837,-0.0041372
1715,-0.087341,-0.014661,-0.01203,0.076106,-0.014003,-0.018278,0.0001381
1716,-0.12779,-0.060702,-0.027158,0.049468,-0.0018351,-0.098522,0.0054
1717,-0.15114,-0.10444,-0.042286,0.01691,0.0093464,-0.17219,0.010662
1718,-0.1518,-0.13371,-0.050836,-0.015976,0.017568,-0.22382,0.015595
1719,-0.13338,-0.14456,-0.047548,-0.047219,0.020857,-0.25013,0.018555
1720,-0.099838,-0.13963,-0.033406,-0.07287,0.021514,-0.25671,0.020199
1721,-0.055769,-0.12352,-0.0090702,-0.092274,0.020528,-0.26394,0.01987
1722,-0.0024928,-0.094576,0.021514,-0.10609,0.023817,-0.29486,0.019212
1723,0.047166,-0.050836,0.053086,-0.11299,0.03434,-0.36754,0.018884
1724,0.07808,0.0060577,0.084328,-0.11233,0.045522,-0.48922,0.020199
1725,0.08663,0.064596,0.10472,-0.094905,0.042233,-0.6474,0.020857
1726,0.081039,0.11097,0.10866,-0.048534,0.014279,-0.80953,0.02283
1727,0.068543,0.133,0.09551,0.030723,-0.033078,-0.93878,0.023817
1728,0.049797,0.12642,0.068214,0.12938,-0.087669,-1.0006,0.02579
1729,0.024145,0.098141,0.033025,0.22015,-0.14029,-0.97495,0.028092
1730,-0.0024928,0.062294,-0.0024928,0.27639,-0.17909,-0.86807,0.032367
1731,-0.020252,0.032038,-0.027816,0.28823,-0.18995,-0.70594,0.036971
1732,-0.024856,0.015266,-0.034722,0.26126,-0.1712,-0.53263,0.042562
1733,-0.015648,0.010662,-0.027158,0.20963,-0.12845,-0.38464,0.047166
1734,-0.0047949,0.013951,-0.013674,0.15372,-0.073528,-0.26756,0.050784
1735,0.0037556,0.021843,0.0011247,0.10866,-0.01795,-0.16923,0.051113
1736,0.010991,0.031052,0.013293,0.078737,0.031709,-0.079777,0.04881
1737,0.020199,0.038287,0.020857,0.06361,0.073147,-0.0011774,0.047495
1738,0.032038,0.039931,0.023159,0.057032,0.10801,0.054072,0.047166
1739,0.044535,0.037958,0.02579,0.053086,0.13728,0.075449,0.047166
1740,0.052428,0.031052,0.031709,0.050126,0.15273,0.056703,0.046508
1741,0.052757,0.022172,0.042562,0.050455,0.14977,0.0083598,0.045851
1742,0.047495,0.014608,0.052099,0.054072,0.1307,-0.050179,0.043549
1743,0.041575,0.01132,0.055388,0.056374,0.1113,-0.094247,0.042233
1744,0.037958,0.018226,0.048482,0.050784,0.10044,-0.11233,0.04322
1745,0.033025,0.036971,0.035985,0.030394,0.087288,-0.10477,0.047495
1746,0.027434,0.067227,0.022172,-0.0077547,0.043877,-0.079448,0.051441
1747,0.01987,0.10176,0.010004,-0.057414,-0.042615,-0.04985,0.054072
1748,0.012306,0.1284,0.0040845,-0.1074,-0.1643,-0.020909,0.053743
1749,0.010004,0.13991,0.0034268,-0.14818,-0.30078,0.00046697,0.050784
1750,0.016581,0.13234,0.0060577,-0.17153,-0.42443,0.01691,0.046837
1751,0.028092,0.1113,0.010991,-0.17318,-0.50204,0.031052,0.041247
1752,0.036314,0.083342,0.018884,-0.15509,-0.50928,0.044206,0.035985
1753,0.034998,0.052757,0.029736,-0.12056,-0.44449,0.053415,0.032038
1754,0.028092,0.022501,0.038287,-0.077803,-0.33004,0.053415,0.030394
1755,0.013622,-0.0031506,0.038287,-0.038668,-0.20113,0.04026,0.02875
1756,-0.0041372,-0.024856,0.02579,-0.011701,-0.087341,0.024803,0.026447
1757,-0.021567,-0.04393,0.0040845,0.00079584,-0.010386,0.010662,0.024474
1758,-0.033735,-0.059387,-0.019923,-0.0011774,0.026119,0.00079584,0.022172
1759,-0.038997,-0.072542,-0.043272,-0.010715,0.038944,0.002769,0.021186
1760,-0.037024,-0.087341,-0.061689,-0.021896,0.042562,0.015924,0.021186
1761,-0.034064,-0.098522,-0.073199,-0.028802,0.046837,0.035656,0.021186
1762,-0.030118,-0.09918,-0.075173,-0.02946,0.052757,0.055717,0.021186
