,channel_1,channel_2,channel_3,channel_4,channel_5,channel_6,channel_7
0,-0.010715,0.097812,-0.079448,-0.63951,0.41352,-0.31952,0.05177
1,-0.030775,0.097812,-0.087341,-0.60991,0.53422,-0.36819,0.050126
2,-0.051823,0.079724,-0.092274,-0.51914,0.69602,-0.4093,0.047824
3,-0.068595,0.050126,-0.089314,-0.38201,0.88545,-0.4241,0.047824
4,-0.078461,0.020857,-0.074186,-0.23106,1.0499,-0.407,0.04881
5,-0.08175,-0.0008485,-0.052481,-0.099838,1.1351,-0.36359,0.049468
6,-0.0903,-0.0090702,-0.031104,-0.002164,1.1147,-0.30604,0.049468
7,-0.1051,-0.0087413,-0.0087413,0.067885,0.99496,-0.2475,0.048482
8,-0.11891,-0.0061104,0.012964,0.12577,0.80521,-0.19126,0.047166
9,-0.12121,-0.0047949,0.033683,0.18332,0.58519,-0.14029,0.046508
10,-0.10609,-0.004466,0.053743,0.24547,0.36551,-0.10181,0.047824
11,-0.077475,-0.0018351,0.072489,0.31355,0.15471,-0.08471,0.04881
12,-0.046232,0.0021113,0.087617,0.38294,-0.049521,-0.093589,0.04881
13,-0.020252,0.010004,0.099785,0.44477,-0.23632,-0.12976,0.047166
14,-0.0024928,0.025132,0.10669,0.48588,-0.37905,-0.1814,0.044206
15,0.015924,0.041904,0.10965,0.48851,-0.44482,-0.22678,0.041247
16,0.036642,0.05769,0.11228,0.44016,-0.4093,-0.23566,0.039273
17,0.056703,0.064596,0.11458,0.33493,-0.28071,-0.18436,0.038287
18,0.067885,0.059005,0.11623,0.18167,-0.10609,-0.066622,0.038616
19,0.0692,0.038944,0.1159,0.0090175,0.048153,0.099785,0.038616
20,0.062294,0.012635,0.10965,-0.13963,0.14287,0.28625,0.036642
21,0.053086,-0.013345,0.098141,-0.2304,0.17838,0.46154,0.032696
22,0.043549,-0.033735,0.083342,-0.25079,0.17904,0.60197,0.027763
23,0.03434,-0.047219,0.067227,-0.21264,0.17049,0.69964,0.02283
24,0.026776,-0.050507,0.052099,-0.13667,0.1695,0.75884,0.018226
25,0.020857,-0.042286,0.0373,-0.051165,0.17838,0.78383,0.015924
26,0.017897,-0.026829,0.022501,0.024803,0.17773,0.76903,0.014937
27,0.019212,-0.0087413,0.0086887,0.077422,0.14484,0.71279,0.015924
28,0.024474,0.0037556,-0.0034794,0.10603,0.074133,0.62795,0.015595
29,0.033025,0.0093464,-0.010386,0.11787,-0.019923,0.52797,0.014608
30,0.042233,0.0077021,-0.014661,0.12215,-0.10378,0.42306,0.012964
31,0.049797,0.0001381,-0.01795,0.11721,-0.14983,0.32539,0.0096753
32,0.057361,-0.01499,-0.023869,0.10538,-0.14818,0.24284,0.0060577
33,0.064267,-0.02946,-0.030118,0.097154,-0.11201,0.16918,0.0034268
34,0.069858,-0.034393,-0.02946,0.10373,-0.073857,0.096825,0.0001381
35,0.073476,-0.02354,-0.020909,0.13004,-0.063662,0.015595,-0.0028217
36,0.074791,-0.0051238,-0.011701,0.1695,-0.090629,-0.082408,-0.007097
37,0.074791,0.0070443,-0.0041372,0.20963,-0.14358,-0.1962,-0.012688
38,0.07512,0.0040845,-0.004466,0.24383,-0.20146,-0.31821,-0.018278
39,0.074133,-0.014661,-0.011372,0.26619,-0.24553,-0.43002,-0.021567
40,0.072489,-0.039326,-0.020909,0.27672,-0.27315,-0.51125,-0.021238
41,0.0692,-0.059058,-0.030447,0.27737,-0.28795,-0.55499,-0.018936
42,0.06624,-0.059058,-0.03242,0.27277,-0.29551,-0.56782,-0.014003
43,0.064596,-0.038011,-0.0265,0.26586,-0.30242,-0.55598,-0.010057
44,0.063938,0.0014536,-0.012359,0.26323,-0.31229,-0.5323,-0.0084125
45,0.059334,0.050126,0.012964,0.27639,-0.33103,-0.50928,-0.0077547
46,0.046508,0.1011,0.04618,0.31454,-0.36556,-0.49842,-0.0087413
47,0.032367,0.14089,0.081039,0.38228,-0.4195,-0.49448,-0.0084125
48,0.017897,0.15602,0.10373,0.47141,-0.48165,-0.48823,-0.0097279
49,0.0060577,0.14747,0.11162,0.56184,-0.5392,-0.47606,-0.011043
50,-0.0041372,0.12313,0.11064,0.6263,-0.58459,-0.45995,-0.013345
51,-0.01203,0.096496,0.10735,0.63091,-0.61254,-0.44285,-0.015319
52,-0.016634,0.073476,0.10702,0.55231,-0.61583,-0.4264,-0.015648
53,-0.01499,0.058676,0.11064,0.39807,-0.58623,-0.40634,-0.013345
54,-0.0077547,0.051113,0.11557,0.21028,-0.51388,-0.3797,-0.0097279
55,0.0011247,0.048482,0.11754,0.043549,-0.39812,-0.34846,-0.0041372
56,0.013951,0.051441,0.11426,-0.058729,-0.26559,-0.3159,-0.00051963
57,0.031709,0.061636,0.10603,-0.074515,-0.16068,-0.28729,0.0034268
58,0.052099,0.077422,0.10307,-0.0051238,-0.11332,-0.25967,0.0040845
59,0.068543,0.09551,0.1136,0.11754,-0.12549,-0.22941,0.0054
60,0.078737,0.11162,0.13497,0.23331,-0.17877,-0.18896,0.0070443
61,0.080382,0.12609,0.15931,0.28461,-0.24816,-0.13536,0.0093464
62,0.075449,0.1376,0.17575,0.24383,-0.31492,-0.074186,0.01132
63,0.071173,0.14813,0.18332,0.12445,-0.37313,-0.01499,0.013293
64,0.068543,0.1626,0.18726,-0.036366,-0.42311,0.036642,0.015924
65,0.067885,0.17937,0.19647,-0.19948,-0.46028,0.080382,0.017897
66,0.064267,0.19154,0.20568,-0.33925,-0.47475,0.12412,0.019541
67,0.055388,0.18792,0.20042,-0.44811,-0.45074,0.18003,0.019541
68,0.046508,0.16293,0.17279,-0.52243,-0.37937,0.26192,0.021186
69,0.036314,0.12281,0.12938,-0.56453,-0.2669,0.38031,0.024803
70,0.027434,0.081039,0.081697,-0.57078,-0.12779,0.526,0.028421
71,0.021843,0.044864,0.040918,-0.53592,0.015595,0.65689,0.031381
72,0.020857,0.016253,0.011977,-0.4537,0.13859,0.72595,0.032367
73,0.018226,-0.0038083,-0.0074258,-0.32084,0.22344,0.70523,0.030065
74,0.017239,-0.012688,-0.019594,-0.1416,0.26849,0.60394,0.02875
75,0.018555,-0.013674,-0.023869,0.079395,0.28264,0.45299,0.029736
76,0.024145,-0.0064392,-0.020909,0.32111,0.27935,0.29184,0.03434
77,0.029078,0.0080309,-0.010386,0.54145,0.27244,0.15767,0.041575
78,0.03434,0.028092,0.0060577,0.69142,0.26882,0.076106,0.049139
79,0.038616,0.049139,0.024145,0.72661,0.27408,0.045193,0.055059
80,0.04026,0.0692,0.041247,0.64998,0.29283,0.047166,0.05769
81,0.038616,0.085644,0.052757,0.50265,0.32769,0.05769,0.056046
82,0.031381,0.092879,0.057032,0.33295,0.38097,0.063281,0.054072
83,0.021843,0.087288,0.050784,0.18069,0.45529,0.061965,0.051441
84,0.010991,0.064267,0.032038,0.065912,0.54047,0.06065,0.05177
85,-0.00019077,0.030065,0.0011247,-0.0077547,0.62268,0.061965,0.052099
86,-0.011043,-0.0061104,-0.037353,-0.056427,0.67793,0.059334,0.052099
87,-0.022883,-0.036037,-0.074844,-0.1005,0.68879,0.052428,0.049139
88,-0.031433,-0.054454,-0.10477,-0.1518,0.65097,0.04322,0.046837
89,-0.039655,-0.063991,-0.1245,-0.21264,0.57927,0.0373,0.045851
90,-0.049521,-0.070568,-0.13371,-0.27348,0.48818,0.039602,0.046508
91,-0.058729,-0.077475,-0.137,-0.3261,0.40004,0.043877,0.048482
92,-0.065307,-0.083723,-0.13503,-0.36326,0.33525,0.044864,0.051113
93,-0.06432,-0.080763,-0.12911,-0.37937,0.30368,0.041575,0.052428
94,-0.05281,-0.070568,-0.11924,-0.37872,0.30072,0.037958,0.05177
95,-0.038668,-0.057085,-0.10937,-0.36194,0.30993,0.036971,0.048482
96,-0.026829,-0.04689,-0.10181,-0.32708,0.32341,0.030394,0.043877
97,-0.022225,-0.044588,-0.098851,-0.27578,0.34545,0.0034268,0.038616
98,-0.018936,-0.051165,-0.09918,-0.22349,0.3984,-0.04097,0.035327
99,-0.013345,-0.061031,-0.10181,-0.19389,0.48883,-0.093589,0.033025
100,-0.0051238,-0.069911,-0.10313,-0.20672,0.6092,-0.13864,0.031381
101,0.0063866,-0.076159,-0.098851,-0.26822,0.74404,-0.1689,0.028092
102,0.020857,-0.076817,-0.090629,-0.3626,0.86078,-0.18534,0.023817
103,0.035985,-0.071555,-0.083723,-0.45238,0.90979,-0.19554,0.021186
104,0.047495,-0.060373,-0.083723,-0.49908,0.85454,-0.20836,0.018555
105,0.050784,-0.043272,-0.086354,-0.49283,0.69339,-0.22218,0.017568
106,0.047495,-0.025842,-0.092274,-0.44285,0.46647,-0.22645,0.017897
107,0.041904,-0.01203,-0.094905,-0.36655,0.23067,-0.21527,0.018884
108,0.04026,-0.0061104,-0.09326,-0.27677,0.042562,-0.18436,0.01987
109,0.041247,-0.0067681,-0.086683,-0.17745,-0.056756,-0.1393,0.018884
110,0.036642,-0.011043,-0.074515,-0.077803,-0.04097,-0.079777,0.016581
111,0.023817,-0.015648,-0.057414,0.015266,0.070516,-0.0080836,0.011977
112,0.0044134,-0.021567,-0.037024,0.097483,0.21357,0.064596,0.0063866
113,-0.013674,-0.02946,-0.01795,0.16227,0.30993,0.12017,0.0011247
114,-0.022883,-0.035708,-0.0034794,0.19812,0.30566,0.14517,-0.0028217
115,-0.019265,-0.034722,0.0050711,0.2014,0.18924,0.13728,-0.0067681
116,-0.0018351,-0.025514,0.013293,0.17542,-0.0061104,0.10866,-0.0097279
117,0.02283,-0.010386,0.025461,0.13037,-0.23073,0.079724,-0.013674
118,0.045522,0.0021113,0.039273,0.071502,-0.43758,0.067556,-0.015648
119,0.057032,0.0011247,0.050455,0.0083598,-0.61057,0.083999,-0.01499
120,0.051441,-0.01203,0.059334,-0.054125,-0.74869,0.12544,-0.013345
121,0.033025,-0.026829,0.062294,-0.10543,-0.8536,0.17707,-0.011372
122,0.0080309,-0.034722,0.063938,-0.13503,-0.92332,0.21752,-0.011701
123,-0.019265,-0.033406,0.062623,-0.12976,-0.95193,0.22969,-0.013674
124,-0.047548,-0.025842,0.057032,-0.073528,-0.94568,0.207,-0.016305
125,-0.076817,-0.019594,0.044535,0.04026,-0.91082,0.15898,-0.01795
126,-0.10477,-0.022225,0.029078,0.20436,-0.85492,0.093536,-0.01795
127,-0.13141,-0.034064,0.014608,0.39938,-0.77467,0.020857,-0.015648
128,-0.15048,-0.052152,0.0080309,0.59539,-0.67108,-0.061031,-0.014661
129,-0.15739,-0.071555,0.010991,0.75686,-0.55367,-0.16002,-0.01499
130,-0.15081,-0.084052,0.01691,0.85815,-0.44153,-0.26986,-0.017292
131,-0.13075,-0.081421,0.02283,0.88578,-0.35339,-0.37082,-0.018936
132,-0.10411,-0.06136,0.027434,0.84467,-0.29387,-0.4389,-0.018936
133,-0.078461,-0.03538,0.027434,0.74404,-0.25704,-0.45896,-0.017292
134,-0.056098,-0.015976,0.024145,0.60229,-0.23106,-0.43331,-0.012359
135,-0.039655,-0.0061104,0.020528,0.43983,-0.19981,-0.37411,-0.0067681
136,-0.030447,-0.0041372,0.021514,0.2777,-0.15509,-0.30012,-0.0024928
137,-0.022554,-0.004466,0.024803,0.13201,-0.093589,-0.22678,0.0001381
138,-0.011701,-0.004466,0.029407,0.0070443,-0.026171,-0.16265,0.0014536
139,0.0011247,-0.00051963,0.030394,-0.096549,0.030723,-0.11201,0.002769
140,0.013293,0.0086887,0.024803,-0.17975,0.068543,-0.075173,0.0060577
141,0.021514,0.02283,0.015266,-0.24289,0.091234,-0.038668,0.010333
142,0.01987,0.040589,0.0080309,-0.28203,0.10505,0.015924,0.014608
143,0.0093464,0.061965,0.0057288,-0.30209,0.11524,0.10274,0.018884
144,-0.0077547,0.080711,0.002769,-0.30768,0.12675,0.22048,0.022501
145,-0.028802,0.08959,-0.0008485,-0.30143,0.13662,0.35137,0.023159
146,-0.054454,0.082026,-0.0051238,-0.28137,0.14155,0.47239,0.023817
147,-0.084052,0.05473,-0.0074258,-0.24849,0.13826,0.56875,0.022501
148,-0.11003,0.013622,-0.0080836,-0.20705,0.133,0.63781,0.02283
149,-0.11858,-0.028802,-0.0061104,-0.16791,0.12971,0.68484,0.025132
150,-0.10641,-0.06136,-0.0011774,-0.13897,0.12642,0.71641,0.029078
151,-0.077146,-0.076817,0.0057288,-0.13075,0.12281,0.74075,0.033025
152,-0.041957,-0.077475,0.011648,-0.1416,0.11721,0.75324,0.036314
153,-0.01499,-0.070568,0.018555,-0.16166,0.10998,0.74765,0.036642
154,0.0034268,-0.057414,0.024474,-0.18074,0.10176,0.7095,0.034669
155,0.022501,-0.037353,0.02875,-0.19554,0.090905,0.62663,0.033025
156,0.042233,-0.0051238,0.031052,-0.20639,0.079724,0.49541,0.033354
157,0.057361,0.039273,0.03434,-0.2156,0.064925,0.33427,0.036314
158,0.059005,0.10044,0.03434,-0.22053,0.036642,0.16523,0.042233
159,0.048482,0.17148,0.031709,-0.21987,-0.012688,0.012306,0.047495
160,0.033354,0.23396,0.024803,-0.21363,-0.078461,-0.10477,0.050784
161,0.024474,0.26981,0.016581,-0.21823,-0.15311,-0.17482,0.052099
162,0.029407,0.27014,0.0096753,-0.25177,-0.23138,-0.19028,0.052757
163,0.048153,0.2412,0.0080309,-0.32018,-0.30538,-0.14752,0.052428
164,0.075778,0.19845,0.012306,-0.39648,-0.35635,-0.041299,0.052428
165,0.10636,0.15339,0.017897,-0.43265,-0.37115,0.12445,0.05177
166,0.1307,0.11787,0.024803,-0.38924,-0.3432,0.31289,0.052099
167,0.1455,0.095181,0.033354,-0.27019,-0.2794,0.44674,0.049797
168,0.14977,0.083013,0.041904,-0.1199,-0.19291,0.44773,0.046508
169,0.14648,0.076435,0.046508,0.01132,-0.09918,0.2879,0.043549
170,0.14254,0.070187,0.044864,0.091234,-0.013345,0.01691,0.042233
171,0.14648,0.058019,0.038944,0.11919,0.047824,-0.27611,0.04322
172,0.15536,0.038944,0.026119,0.11195,0.084986,-0.50533,0.046837
173,0.1695,0.015924,0.0073732,0.092879,0.10011,-0.62931,0.050126
174,0.18463,-0.0011774,-0.012359,0.081697,0.10735,-0.65529,0.05177
175,0.19516,-0.0047949,-0.029789,0.088603,0.12248,-0.61879,0.050126
176,0.18726,0.01132,-0.036695,0.10965,0.15207,-0.55861,0.045851
177,0.15865,0.04322,-0.031104,0.13432,0.18529,-0.50336,0.039602
178,0.10965,0.082026,-0.018936,0.1524,0.20469,-0.46225,0.035656
179,0.050784,0.12083,-0.0057815,0.16457,0.20963,-0.43166,0.031381
180,-0.0031506,0.15339,0.0024402,0.17148,0.21094,-0.41029,0.029078
181,-0.039984,0.17707,0.0050711,0.17477,0.22179,-0.39615,0.02579
182,-0.055769,0.18891,0.01132,0.17411,0.24416,-0.38266,0.023159
183,-0.060045,0.19022,0.02283,0.17246,0.2754,-0.36458,0.020528
184,-0.069582,0.1797,0.041247,0.17246,0.32736,-0.34451,0.018555
185,-0.094247,0.15536,0.060321,0.17312,0.41451,-0.32511,0.017239
186,-0.13174,0.11656,0.075449,0.16753,0.526,-0.30242,0.017568
187,-0.16462,0.065254,0.083342,0.15207,0.61644,-0.27282,0.017239
188,-0.1735,0.013622,0.083342,0.12182,0.63847,-0.23402,0.016581
189,-0.14917,-0.030447,0.07512,0.082026,0.58421,-0.1814,0.015595
190,-0.093918,-0.064978,0.058019,0.04881,0.50133,-0.10477,0.015266
191,-0.021896,-0.092274,0.035327,0.035985,0.46055,0.0096753,0.014279
192,0.047166,-0.11036,0.012635,0.048153,0.50396,0.17279,0.012306
193,0.09551,-0.11529,-0.004466,0.083999,0.61676,0.38426,0.010991
194,0.1182,-0.10247,-0.011701,0.13464,0.73779,0.62729,0.0086887
195,0.11787,-0.066293,-0.007097,0.18957,0.79074,0.86046,0.0047422
196,0.10735,-0.010715,0.0040845,0.23955,0.71904,1.0183,-0.0018351
197,0.1034,0.046837,0.013951,0.27343,0.50594,1.0397,-0.0090702
198,0.10669,0.091563,0.014937,0.28461,0.18332,0.90847,-0.015976
199,0.11031,0.1057,0.0070443,0.27112,-0.17581,0.66182,-0.020909
200,0.10406,0.085315,-0.0038083,0.23199,-0.50303,0.36387,-0.022225
201,0.086959,0.036642,-0.016634,0.17542,-0.74277,0.086301,-0.019923
202,0.060979,-0.024856,-0.027487,0.11426,-0.86807,-0.1199,-0.017292
203,0.027105,-0.08471,-0.035051,0.063281,-0.89307,-0.23303,-0.013017
204,-0.012359,-0.13404,-0.044917,0.030394,-0.85459,-0.26526,-0.010386
205,-0.046561,-0.1712,-0.05544,0.011977,-0.79177,-0.23928,-0.010057
206,-0.065964,-0.19488,-0.063991,0.0017824,-0.72732,-0.18469,-0.011372
207,-0.064978,-0.2031,-0.068266,-0.0077547,-0.66845,-0.1268,-0.011701
208,-0.050179,-0.19093,-0.066951,-0.02354,-0.61156,-0.08471,-0.011043
209,-0.029131,-0.16166,-0.060373,-0.051494,-0.55006,-0.06136,-0.013017
210,-0.0090702,-0.11793,-0.048863,-0.086354,-0.48494,-0.055112,-0.014332
211,0.0047422,-0.065307,-0.033406,-0.11924,-0.42279,-0.050836,-0.016634
212,0.015266,-0.0097279,-0.021896,-0.14259,-0.37115,-0.037024,-0.017292
213,0.026119,0.04618,-0.014332,-0.15048,-0.33103,-0.013345,-0.016305
214,0.039602,0.097812,-0.011043,-0.14555,-0.29453,0.0083598,-0.014003
215,0.055717,0.13826,-0.010057,-0.12615,-0.25868,0.014937,-0.0087413
216,0.07512,0.15832,-0.0041372,-0.084381,-0.21987,0.0030979,-0.0047949
217,0.098469,0.16161,0.011977,-0.014661,-0.17679,-0.021896,-0.0011774
218,0.12774,0.15799,0.039602,0.083342,-0.12779,-0.053467,0.00046697
219,0.15767,0.15207,0.077422,0.18924,-0.077803,-0.082408,0.002769
220,0.1797,0.14188,0.11524,0.27639,-0.036695,-0.10181,0.0054
221,0.18858,0.12511,0.14155,0.3267,-0.0087413,-0.11332,0.0073732
222,0.18069,0.10176,0.1455,0.32703,0.0090175,-0.11793,0.0093464
223,0.15964,0.072489,0.12642,0.28165,0.029736,-0.11332,0.012306
224,0.13267,0.04618,0.091892,0.20404,0.066898,-0.091945,0.015266
225,0.10735,0.027434,0.05177,0.1182,0.12609,-0.047548,0.018884
226,0.088932,0.015266,0.017568,0.042891,0.20042,0.021186,0.021186
227,0.073804,0.0014536,-0.0087413,-0.0087413,0.26817,0.1034,0.022501
228,0.055388,-0.022554,-0.025842,-0.034393,0.31125,0.17016,0.023817
229,0.018226,-0.058071,-0.039984,-0.039326,0.31717,0.18266,0.023159
230,-0.04097,-0.097864,-0.052152,-0.037682,0.28559,0.11985,0.023488
231,-0.10839,-0.13042,-0.056427,-0.034393,0.22508,-0.0038083,0.024145
232,-0.16035,-0.14621,-0.044917,-0.024198,0.15799,-0.15311,0.025132
233,-0.17613,-0.14489,-0.011701,0.0037556,0.10274,-0.29584,0.027105
234,-0.15377,-0.13766,0.035985,0.049797,0.067556,-0.41522,0.029407
235,-0.10872,-0.13601,0.080711,0.099785,0.050455,-0.50434,0.031709
236,-0.065307,-0.14522,0.10702,0.14122,0.040589,-0.56847,0.035656
237,-0.037353,-0.1541,0.10801,0.16654,0.030723,-0.61386,0.04026
238,-0.0265,-0.14588,0.090248,0.16983,0.015924,-0.65233,0.046508
239,-0.019923,-0.10674,0.06361,0.15635,0.0001381,-0.68456,0.052099
240,-0.0087413,-0.039326,0.039931,0.13728,-0.004466,-0.69147,0.054401
241,0.010333,0.039931,0.026447,0.12938,0.0093464,-0.65168,0.05473
242,0.028421,0.11097,0.026776,0.14484,0.031709,-0.55302,0.053743
243,0.037629,0.16095,0.031381,0.18365,0.054401,-0.4093,0.052757
244,0.030394,0.18102,0.035656,0.23626,0.070516,-0.25375,0.050126
245,0.0080309,0.17575,0.033354,0.28921,0.074133,-0.12483,0.048482
246,-0.018278,0.15306,0.023817,0.33164,0.07216,-0.04689,0.04618
247,-0.036366,0.12346,0.010662,0.35663,0.075778,-0.017621,0.045851
248,-0.041957,0.096825,-0.0034794,0.35926,0.089919,-0.010386,0.045522
249,-0.033735,0.081368,-0.016305,0.33657,0.1113,0.00079584,0.047495
250,-0.022225,0.074133,-0.027487,0.29053,0.133,0.026776,0.049468
251,-0.012688,0.066569,-0.036695,0.22903,0.14944,0.059334,0.051441
252,-0.0077547,0.055388,-0.042286,0.1603,0.15832,0.090905,0.051441
253,-0.007097,0.041575,-0.045246,0.091892,0.15569,0.12182,0.051441
254,-0.0093991,0.029736,-0.045246,0.032696,0.13234,0.15832,0.050126
255,-0.012688,0.023159,-0.042286,-0.011043,0.084328,0.20239,0.047824
256,-0.011372,0.020857,-0.035708,-0.040313,0.023159,0.24876,0.043549
257,-0.0041372,0.015924,-0.023211,-0.068266,-0.032749,0.28362,0.039602
258,0.0067154,0.010662,-0.0031506,-0.11299,-0.068924,0.29217,0.036314
259,0.02283,0.0063866,0.023817,-0.18732,-0.079448,0.26521,0.03434
260,0.038616,0.0083598,0.050126,-0.2942,-0.062347,0.20305,0.031709
261,0.045522,0.014937,0.072489,-0.41292,-0.022554,0.11426,0.027105
262,0.041575,0.024474,0.085644,-0.51158,0.033025,0.013951,0.023488
263,0.029407,0.031052,0.084657,-0.55828,0.10077,-0.081421,0.020199
264,0.01691,0.033025,0.067556,-0.54151,0.18003,-0.14621,0.018884
265,0.0083598,0.030065,0.039931,-0.47705,0.26981,-0.15476,0.019212
266,0.0021113,0.026776,0.015266,-0.41358,0.36913,-0.092931,0.021186
267,-0.0018351,0.028421,0.0063866,-0.41062,0.46614,0.042233,0.022501
268,0.0011247,0.035656,0.014937,-0.50106,0.54178,0.23298,0.022501
269,0.013293,0.046508,0.034669,-0.66648,0.57894,0.45036,0.020857
270,0.029078,0.051441,0.053086,-0.85229,0.56546,0.66741,0.017897
271,0.042562,0.051441,0.062952,-0.99238,0.50857,0.86243,0.012635
272,0.053743,0.054401,0.067227,-1.0338,0.42306,1.0002,0.0077021
273,0.062952,0.067885,0.073147,-0.95259,0.33394,1.0377,0.0017824
274,0.064925,0.086959,0.082684,-0.75626,0.27277,0.95221,-0.0008485
275,0.055717,0.10373,0.090248,-0.47146,0.25731,0.7641,-0.0038083
276,0.031381,0.10834,0.092221,-0.1245,0.27639,0.52534,-0.0064392
277,-0.004466,0.099127,0.085644,0.26455,0.2902,0.29908,-0.010057
278,-0.04097,0.085315,0.069529,0.64932,0.25501,0.1182,-0.014332
279,-0.069582,0.071502,0.04322,0.96569,0.15734,-0.0041372,-0.016634
280,-0.088985,0.058348,0.013293,1.1604,0.013293,-0.071555,-0.016634
281,-0.1051,0.04026,-0.014003,1.2077,-0.15673,-0.095233,-0.015976
282,-0.1245,0.020857,-0.031433,1.1124,-0.32807,-0.096878,-0.014332
283,-0.15114,0.0044134,-0.034722,0.90781,-0.46916,-0.093589,-0.013017
284,-0.17712,-0.0024928,-0.022225,0.64866,-0.55828,-0.098851,-0.013674
285,-0.1906,-0.0024928,0.002769,0.39478,-0.58985,-0.11233,-0.013674
286,-0.18436,-0.0061104,0.025132,0.19516,-0.57505,-0.12878,-0.013017
287,-0.15936,-0.022883,0.03434,0.068543,-0.52802,-0.14193,-0.010386
288,-0.12483,-0.052481,0.027434,0.0090175,-0.46192,-0.14391,-0.0093991
289,-0.089314,-0.088327,0.0086887,-0.0084125,-0.38003,-0.13272,-0.010386
290,-0.059716,-0.1222,-0.011043,-0.016634,-0.28367,-0.11727,-0.013017
291,-0.039326,-0.15081,-0.024198,-0.04097,-0.17087,-0.10181,-0.017621
292,-0.025514,-0.16791,-0.030447,-0.088985,-0.04689,-0.086683,-0.019594
293,-0.018607,-0.1712,-0.033078,-0.1518,0.077422,-0.077803,-0.018278
294,-0.018278,-0.16298,-0.038011,-0.2156,0.18496,-0.073528,-0.014332
295,-0.017621,-0.15443,-0.050507,-0.26427,0.26126,-0.073528,-0.0084125
296,-0.0018351,-0.15279,-0.069911,-0.28071,0.29842,-0.074186,-0.0024928
297,0.035985,-0.15476,-0.093589,-0.25802,0.29941,-0.071555,0.0017824
298,0.089919,-0.14719,-0.11365,-0.19751,0.27277,-0.067609,0.0044134
299,0.14254,-0.11497,-0.12187,-0.11003,0.231,-0.06136,0.0063866
300,0.17246,-0.054783,-0.11924,-0.013017,0.18397,-0.052152,0.0080309
301,0.17641,0.024803,-0.10872,0.076435,0.14221,-0.043601,0.010662
302,0.15734,0.10834,-0.095562,0.1478,0.10932,-0.041299,0.013293
303,0.12248,0.17608,-0.082736,0.19713,0.085972,-0.048863,0.015924
304,0.080053,0.21127,-0.072542,0.22278,0.071831,-0.068595,0.017568
305,0.041575,0.207,-0.06728,0.22771,0.066898,-0.098193,0.018555
306,0.014937,0.16885,-0.06432,0.21851,0.075778,-0.13305,0.019541
307,0.0050711,0.10965,-0.055769,0.20108,0.09551,-0.16364,0.020199
308,0.0021113,0.042233,-0.036366,0.18661,0.11064,-0.18765,0.021186
309,-0.0090702,-0.024198,-0.014332,0.17575,0.10866,-0.20212,0.023817
310,-0.028802,-0.076159,0.0057288,0.15997,0.080382,-0.20705,0.027434
311,-0.043272,-0.099838,0.026776,0.13793,0.027763,-0.20573,0.030723
312,-0.036695,-0.086354,0.046837,0.11162,-0.046232,-0.20244,0.033354
313,-0.007097,-0.042615,0.063281,0.090577,-0.14226,-0.1985,0.034011
314,0.031381,0.0083598,0.074462,0.084986,-0.25967,-0.19258,0.034998
315,0.064925,0.047824,0.077422,0.10307,-0.39516,-0.18765,0.035656
316,0.08367,0.06624,0.069858,0.14616,-0.54348,-0.18666,0.037629
317,0.083342,0.065254,0.057032,0.20732,-0.6941,-0.19554,0.041247
318,0.072489,0.053086,0.044206,0.27639,-0.83913,-0.21297,0.046508
319,0.063938,0.031709,0.034998,0.33558,-0.97528,-0.22678,0.052428
320,0.062623,0.010004,0.035327,0.36025,-1.0914,-0.22481,0.055388
321,0.067227,-0.0038083,0.044864,0.32933,-1.1634,-0.19751,0.055717
322,0.077751,0.002769,0.055717,0.23396,-1.1637,-0.14193,0.055059
323,0.086959,0.030394,0.062623,0.09255,-1.0802,-0.061031,0.053086
324,0.084328,0.067885,0.065912,-0.056756,-0.92168,0.030723,0.052757
325,0.067556,0.1011,0.062952,-0.18403,-0.71515,0.11393,0.050784
326,0.042562,0.11787,0.055059,-0.27315,-0.49053,0.17641,0.04881
327,0.018226,0.1136,0.036642,-0.32149,-0.27315,0.22015,0.046508
328,-0.0011774,0.090248,0.0086887,-0.32873,-0.075173,0.2583,0.045522
329,-0.015319,0.055059,-0.0265,-0.28598,0.091563,0.29809,0.045193
330,-0.024856,0.019212,-0.058071,-0.16857,0.22212,0.33953,0.047166
331,-0.032749,-0.019594,-0.073528,0.034998,0.32769,0.37702,0.049139
332,-0.037024,-0.066622,-0.072213,0.29645,0.41977,0.40662,0.04881
333,-0.038668,-0.11595,-0.063991,0.55329,0.48785,0.4201,0.047495
334,-0.039326,-0.1564,-0.063004,0.73845,0.50298,0.40925,0.043877
335,-0.031762,-0.17548,-0.071555,0.81014,0.44806,0.3688,0.04026
336,-0.0097279,-0.16791,-0.087669,0.76804,0.32966,0.30434,0.037958
337,0.024145,-0.13963,-0.1051,0.63091,0.17378,0.22969,0.034998
338,0.05769,-0.09622,-0.11957,0.43753,0.0083598,0.16063,0.033683
339,0.081697,-0.041628,-0.12713,0.231,-0.13141,0.10439,0.032038
340,0.090905,0.01691,-0.13075,0.050784,-0.2133,0.062623,0.030723
341,0.091892,0.071502,-0.13503,-0.082079,-0.22546,0.0373,0.029407
342,0.085315,0.11886,-0.137,-0.16495,-0.17712,0.026776,0.027105
343,0.071831,0.15536,-0.13305,-0.20869,-0.093918,0.026119,0.023817
344,0.051441,0.17444,-0.12089,-0.22974,-0.0034794,0.032696,0.020528
345,0.029736,0.17049,-0.099838,-0.24191,0.07512,0.048153,0.018555
346,0.0080309,0.14221,-0.08175,-0.25506,0.14056,0.075449,0.016581
347,-0.0074258,0.096167,-0.067937,-0.27249,0.20009,0.10998,0.016581
348,-0.014332,0.047824,-0.059058,-0.29223,0.26323,0.14352,0.01691
349,-0.013017,0.01132,-0.048534,-0.30834,0.34545,0.17082,0.015924
350,-0.011372,-0.00051963,-0.029131,-0.31853,0.46285,0.18496,0.013622
351,-0.012688,0.015266,0.0011247,-0.32807,0.60986,0.18299,0.0093464
352,-0.020581,0.051441,0.036314,-0.33761,0.76114,0.16391,0.0044134
353,-0.030447,0.094523,0.069858,-0.3455,0.87427,0.13169,0.00079584
354,-0.033078,0.13432,0.10077,-0.34715,0.91307,0.09255,-0.0024928
355,-0.024527,0.16654,0.12938,-0.34353,0.86966,0.055388,-0.0041372
356,-0.0087413,0.19285,0.16194,-0.3409,0.75785,0.028421,-0.0061104
357,0.0080309,0.21324,0.20108,-0.34682,0.61512,0.014608,-0.0090702
358,0.020199,0.22541,0.2458,-0.36096,0.4839,0.011977,-0.011372
359,0.026119,0.2264,0.28329,-0.37872,0.38689,0.01691,-0.013017
360,0.028421,0.21061,0.30039,-0.39417,0.31782,0.020857,-0.014003
361,0.032038,0.17444,0.29086,-0.39648,0.26257,0.013293,-0.013017
362,0.038287,0.11952,0.25337,-0.38036,0.20897,-0.010715,-0.013674
363,0.044864,0.052757,0.19581,-0.34715,0.15372,-0.050507,-0.014003
364,0.054401,-0.01795,0.12971,-0.3011,0.088932,-0.10017,-0.014661
365,0.068543,-0.076159,0.062952,-0.24783,0.0070443,-0.15279,-0.013674
366,0.086301,-0.10937,0.0011247,-0.18567,-0.091616,-0.2054,-0.012688
367,0.10242,-0.10806,-0.048863,-0.11398,-0.19784,-0.25901,-0.011043
368,0.10768,-0.086683,-0.080106,-0.039326,-0.30275,-0.30834,-0.010715
369,0.10242,-0.061689,-0.086354,0.026119,-0.39713,-0.34287,-0.011043
370,0.09255,-0.04393,-0.06432,0.072818,-0.4856,-0.35372,-0.013674
371,0.083342,-0.039326,-0.015976,0.098469,-0.57176,-0.33827,-0.016634
372,0.075778,-0.04393,0.047495,0.099785,-0.64773,-0.29683,-0.018607
373,0.06624,-0.047219,0.10768,0.079395,-0.67371,-0.23763,-0.01795
374,0.054401,-0.041628,0.14846,0.047495,-0.59248,-0.17087,-0.01499
375,0.042891,-0.025514,0.1672,0.020528,-0.37707,-0.097207,-0.010715
376,0.036314,-0.0057815,0.16852,0.023159,-0.065307,-0.021896,-0.0047949
377,0.036971,0.010991,0.15306,0.068543,0.24778,0.049797,-0.0011774
378,0.043877,0.022501,0.12675,0.14977,0.45759,0.1136,0.00079584
379,0.05177,0.026776,0.093208,0.25205,0.51153,0.16523,0.0014536
380,0.055717,0.029078,0.063938,0.36617,0.42142,0.20436,0.002769
381,0.054072,0.033354,0.046837,0.4816,0.26521,0.23133,0.0054
382,0.047495,0.043877,0.047166,0.59309,0.14846,0.25172,0.010662
383,0.0373,0.059005,0.058348,0.68089,0.1603,0.26849,0.015924
384,0.025132,0.079395,0.07216,0.72398,0.31585,0.27935,0.01987
385,0.015266,0.10406,0.083013,0.69865,0.55855,0.28,0.022172
386,0.011648,0.13169,0.084986,0.5875,0.79665,0.26455,0.022172
387,0.0090175,0.15635,0.076435,0.39905,0.9726,0.22706,0.021186
388,0.0021113,0.17246,0.06361,0.16819,1.0778,0.17115,0.020857
389,-0.010386,0.17477,0.048153,-0.044588,1.1226,0.11162,0.022501
390,-0.024856,0.15799,0.037629,-0.19225,1.1025,0.070516,0.026447
391,-0.037024,0.11919,0.035985,-0.25901,1.0032,0.06361,0.032038
392,-0.047548,0.061965,0.038287,-0.26131,0.81737,0.086959,0.035327
393,-0.055769,0.00046697,0.044206,-0.22546,0.56513,0.12017,0.035656
394,-0.061031,-0.047548,0.050784,-0.17712,0.29119,0.14155,0.035327
395,-0.061689,-0.07024,0.053743,-0.13108,0.042562,0.13958,0.035327
396,-0.053796,-0.071226,0.049797,-0.089643,-0.14654,0.1136,0.037629
397,-0.038997,-0.059716,0.041247,-0.05544,-0.26394,0.070516,0.041247
398,-0.017621,-0.044259,0.031709,-0.029131,-0.31722,0.022172,0.045522
399,0.002769,-0.030118,0.022501,-0.015648,-0.32281,-0.027158,0.049139
400,0.015924,-0.016963,0.010333,-0.021896,-0.29716,-0.077803,0.050455
401,0.021186,0.00046697,-0.010057,-0.053467,-0.25868,-0.12878,0.04881
402,0.017897,0.022501,-0.038011,-0.11332,-0.21889,-0.17942,0.047166
403,0.012964,0.049468,-0.071884,-0.19718,-0.186,-0.23106,0.046837
404,0.010333,0.083013,-0.10609,-0.29814,-0.1643,-0.2817,0.046837
405,0.0090175,0.11754,-0.14062,-0.41292,-0.16002,-0.32478,0.045522
406,0.0077021,0.14221,-0.17087,-0.53559,-0.17383,-0.35405,0.045193
407,0.0037556,0.1455,-0.1962,-0.65825,-0.20869,-0.37247,0.043877
408,-0.0051238,0.11919,-0.21198,-0.76875,-0.26953,-0.38595,0.044206
409,-0.021896,0.065912,-0.21823,-0.85656,-0.35833,-0.39582,0.044535
410,-0.038011,-0.0041372,-0.22185,-0.91346,-0.46554,-0.40009,0.047495
411,-0.045246,-0.076817,-0.22612,-0.92891,-0.57735,-0.39648,0.049468
412,-0.042615,-0.13437,-0.22481,-0.87399,-0.68193,-0.38168,0.050784
413,-0.033078,-0.16758,-0.21165,-0.71778,-0.77467,-0.35603,0.050126
414,-0.019594,-0.17745,-0.18238,-0.42969,-0.84439,-0.31492,0.047166
415,-0.010057,-0.1666,-0.14193,0.0034268,-0.8855,-0.25967,0.044535
416,-0.0077547,-0.13667,-0.098522,0.55494,-0.89011,-0.186,0.041904
417,-0.01499,-0.092274,-0.059387,1.1212,-0.8536,-0.098522,0.039602
418,-0.027816,-0.040313,-0.024198,1.5695,-0.77895,-0.013017,0.036971
419,-0.036695,0.0090175,0.011977,1.7918,-0.67042,0.056703,0.033683
420,-0.036037,0.049139,0.052428,1.7599,-0.5392,0.10307,0.030394
421,-0.024527,0.07808,0.099456,1.5445,-0.39976,0.13004,0.025461
422,-0.0047949,0.098469,0.1478,1.2636,-0.26361,0.14451,0.02283
423,0.014279,0.11261,0.18628,1.0259,-0.14391,0.15339,0.021186
424,0.023159,0.11853,0.20272,0.86933,-0.05544,0.16194,0.019212
425,0.021843,0.11557,0.19581,0.76508,0.00079584,0.17016,0.017897
426,0.017897,0.10373,0.17214,0.65853,0.033683,0.17378,0.016581
427,0.012306,0.086301,0.14287,0.5135,0.05769,0.17016,0.016253
428,0.002769,0.0692,0.11754,0.3267,0.084657,0.15997,0.016253
429,-0.011043,0.056046,0.097483,0.11656,0.11097,0.14484,0.016253
430,-0.024527,0.04322,0.077422,-0.085367,0.12511,0.12971,0.015266
431,-0.033078,0.029736,0.055717,-0.25342,0.11853,0.11985,0.012964
432,-0.037353,0.017897,0.029407,-0.37576,0.093208,0.11886,0.0090175
433,-0.035708,0.0060577,0.0011247,-0.45929,0.062952,0.13103,0.0060577
434,-0.025842,-0.004466,-0.024527,-0.505,0.047166,0.15964,0.0030979
435,-0.0047949,-0.014003,-0.045246,-0.51224,0.071173,0.21127,0.0014536
436,0.017568,-0.022883,-0.058071,-0.47244,0.14879,0.28823,-0.0018351
437,0.029736,-0.030118,-0.060702,-0.39713,0.2606,0.39445,-0.0064392
438,0.028421,-0.038668,-0.056098,-0.30867,0.35827,0.5306,-0.011043
439,0.016253,-0.05281,-0.051823,-0.22974,0.39774,0.69405,-0.013345
440,-0.002164,-0.069582,-0.052481,-0.17449,0.3665,0.88084,-0.013674
441,-0.024198,-0.085367,-0.05544,-0.14818,0.28494,1.0591,-0.013674
442,-0.049521,-0.10115,-0.058729,-0.14391,0.19779,1.167,-0.01499
443,-0.080106,-0.11431,-0.057743,-0.15575,0.13793,1.1397,-0.017292
444,-0.1074,-0.1222,-0.057414,-0.17613,0.11327,0.95155,-0.019594
445,-0.12549,-0.12089,-0.059716,-0.19883,0.10538,0.64143,-0.020252
446,-0.13272,-0.11365,-0.065635,-0.21856,0.09551,0.29612,-0.018278
447,-0.1347,-0.10872,-0.073528,-0.22744,0.081039,0.0083598,-0.01499
448,-0.13733,-0.10839,-0.079448,-0.22152,0.073476,-0.17679,-0.010057
449,-0.14127,-0.11398,-0.082408,-0.20376,0.083999,-0.26164,-0.0080836
450,-0.14983,-0.12154,-0.084381,-0.18205,0.11524,-0.27611,-0.0087413
451,-0.15903,-0.12746,-0.086683,-0.1587,0.16457,-0.27052,-0.011372
452,-0.16199,-0.12911,-0.0903,-0.13009,0.21653,-0.28302,-0.014661
453,-0.15344,-0.12615,-0.093918,-0.092931,0.25896,-0.32445,-0.014661
454,-0.12845,-0.11497,-0.093918,-0.037682,0.28428,-0.3876,-0.01203
455,-0.083723,-0.093918,-0.08471,0.043877,0.2925,-0.4514,-0.0074258
456,-0.023211,-0.063004,-0.065635,0.14944,0.2777,-0.49185,-0.0031506
457,0.039931,-0.027158,-0.038997,0.26225,0.23363,-0.50138,0.0001381
458,0.09551,0.0067154,-0.010715,0.35663,0.14648,-0.48494,0.0017824
459,0.13497,0.032696,0.013622,0.41484,0.0011247,-0.45238,0.0030979
460,0.15503,0.04881,0.028421,0.43095,-0.1906,-0.4093,0.0040845
461,0.15668,0.05769,0.034011,0.40596,-0.39023,-0.35964,0.0070443
462,0.1432,0.064925,0.034998,0.35992,-0.55894,-0.309,0.010333
463,0.12083,0.069529,0.036971,0.30697,-0.67338,-0.26197,0.015266
464,0.098469,0.064596,0.041575,0.2583,-0.72436,-0.22053,0.020199
465,0.082026,0.04618,0.048153,0.21752,-0.71022,-0.18863,0.023159
466,0.070516,0.017239,0.053743,0.18989,-0.63754,-0.17416,0.023488
467,0.058348,-0.010386,0.056374,0.1695,-0.52638,-0.17811,0.022172
468,0.038287,-0.030775,0.05769,0.14451,-0.40371,-0.20179,0.019541
469,0.0067154,-0.041957,0.061636,0.1057,-0.29124,-0.23994,0.018555
470,-0.028473,-0.047219,0.070516,0.043549,-0.19948,-0.29255,0.01987
471,-0.054783,-0.049521,0.081697,-0.062347,-0.13075,-0.35471,0.024474
472,-0.060702,-0.046561,0.087288,-0.23369,-0.079119,-0.42015,0.029736
473,-0.04393,-0.035708,0.08367,-0.4731,-0.039655,-0.47869,0.032696
474,-0.013017,-0.016963,0.067885,-0.73718,-0.013017,-0.50862,0.035985
475,0.019541,0.0040845,0.044864,-0.95193,0.010333,-0.4833,0.039931
476,0.041904,0.020857,0.027763,-1.0414,0.059005,-0.37576,0.044535
477,0.054072,0.030723,0.023817,-0.96903,0.1478,-0.17416,0.049468
478,0.055717,0.033354,0.035985,-0.75691,0.26553,0.099785,0.053415
479,0.053415,0.033025,0.061636,-0.47508,0.37472,0.37965,0.055059
480,0.05473,0.036314,0.096167,-0.20968,0.42832,0.58158,0.053086
481,0.060979,0.047166,0.13004,-0.016963,0.39873,0.64439,0.049468
482,0.069858,0.06065,0.15405,0.092221,0.29217,0.5602,0.045522
483,0.083013,0.061965,0.16391,0.13728,0.14024,0.37965,0.043549
484,0.098798,0.042891,0.15536,0.15043,-0.011701,0.17838,0.043549
485,0.11721,0.0086887,0.13366,0.15964,-0.10641,0.019541,0.04322
486,0.13793,-0.021896,0.10702,0.1797,-0.10543,-0.059387,0.044535
487,0.15536,-0.034722,0.083013,0.20732,-0.0087413,-0.059058,0.044535
488,0.16293,-0.025185,0.060979,0.22475,0.1455,-0.010715,0.045193
489,0.15832,0.0030979,0.04618,0.21588,0.31289,0.043877,0.046508
490,0.14352,0.040589,0.038616,0.17312,0.46285,0.074462,0.048482
491,0.12313,0.080382,0.039931,0.10834,0.57631,0.07216,0.049139
492,0.10472,0.11327,0.042562,0.041247,0.64176,0.039273,0.048482
493,0.094194,0.13103,0.043877,-0.0067681,0.66577,-0.011701,0.04618
494,0.092221,0.12971,0.040918,-0.018936,0.65031,-0.068595,0.042891
495,0.094523,0.11623,0.03434,0.0077021,0.59045,-0.12582,0.038287
496,0.096825,0.10406,0.023817,0.065912,0.48949,-0.18501,0.034669
497,0.096167,0.10505,0.013622,0.14648,0.35597,-0.24783,0.032367
498,0.093208,0.12083,0.0073732,0.23725,0.20996,-0.31196,0.031381
499,0.092221,0.1524,0.0093464,0.31848,0.083342,-0.3751,0.031052
500,0.093208,0.19253,0.018226,0.36814,0.00046697,-0.43726,0.030394
501,0.095181,0.23363,0.024803,0.36518,-0.036037,-0.49152,0.028092
502,0.091234,0.25929,0.023159,0.29119,-0.059716,-0.52506,0.02579
503,0.07512,0.25139,0.016253,0.14451,-0.10872,-0.52802,0.021843
504,0.049468,0.20601,0.0086887,-0.036037,-0.20047,-0.50237,0.019212
505,0.026776,0.133,0.00079584,-0.19521,-0.32939,-0.45896,0.017897
506,0.014608,0.051441,-0.010057,-0.28532,-0.45765,-0.41193,0.017568
507,0.011648,-0.020581,-0.020252,-0.29518,-0.5448,-0.3728,0.018884
508,0.010333,-0.07287,-0.032091,-0.2498,-0.5665,-0.34254,0.019541
509,0.0086887,-0.1028,-0.043272,-0.18995,-0.52539,-0.30998,0.018226
510,0.010991,-0.11661,-0.056098,-0.14555,-0.44383,-0.26559,0.014608
511,0.024474,-0.1199,-0.066293,-0.1245,-0.34517,-0.21034,0.010333
512,0.04881,-0.11562,-0.071884,-0.11299,-0.24881,-0.14391,0.0063866
513,0.078737,-0.098193,-0.070568,-0.093918,-0.16397,-0.056098,0.0024402
514,0.1057,-0.065964,-0.055112,-0.05544,-0.087998,0.066569,0.0001381
515,0.11623,-0.020909,-0.02354,-0.00019077,-0.017621,0.23528,-0.0011774
516,0.10439,0.034669,0.015595,0.056374,0.047495,0.45036,-0.0024928
517,0.076435,0.094852,0.052099,0.10406,0.10998,0.69043,-0.0064392
518,0.04026,0.15503,0.078737,0.13793,0.16983,0.91768,-0.010057
519,0.0047422,0.20535,0.088603,0.15734,0.22508,1.0986,-0.013674
520,-0.025514,0.22969,0.079395,0.16194,0.26389,1.2071,-0.015319
521,-0.053467,0.21883,0.050126,0.15503,0.27408,1.237,-0.015319
522,-0.081421,0.17674,0.0083598,0.13793,0.24679,1.1936,-0.015648
523,-0.11464,0.12182,-0.031762,0.11623,0.18924,1.0854,-0.015976
524,-0.15311,0.072489,-0.060045,0.097483,0.11952,0.93182,-0.016305
525,-0.18929,0.03434,-0.072542,0.086301,0.058019,0.76475,-0.015976
526,-0.20639,0.0083598,-0.070897,0.089261,0.024474,0.61742,-0.014332
527,-0.19652,-0.0051238,-0.06432,0.10866,0.026119,0.50988,-0.012688
528,-0.15903,-0.0057815,-0.060702,0.14122,0.050455,0.44181,-0.011043
529,-0.10378,0.0054,-0.06136,0.17806,0.077751,0.4007,-0.01203
530,-0.046561,0.023488,-0.060045,0.21028,0.092879,0.36748,-0.015319
531,0.00079584,0.04618,-0.051823,0.22936,0.093208,0.32769,-0.018936
532,0.033025,0.073147,-0.036695,0.23495,0.093536,0.28888,-0.020581
533,0.046508,0.10077,-0.016305,0.22541,0.11195,0.2708,-0.019265
534,0.04322,0.12182,0.0083598,0.207,0.16293,0.27343,-0.01499
535,0.027763,0.13037,0.034011,0.18529,0.24843,0.26488,-0.0090702
536,-0.00051963,0.11985,0.055388,0.1626,0.34972,0.1991,-0.0051238
537,-0.038011,0.08663,0.068543,0.14122,0.4372,0.061307,-0.0041372
538,-0.078461,0.039931,0.072818,0.12577,0.4839,-0.12319,-0.0024928
539,-0.1097,-0.0067681,0.064925,0.12116,0.48226,-0.3113,0.0001381
540,-0.12089,-0.041628,0.049468,0.13169,0.4395,-0.45173,0.0054
541,-0.11102,-0.064978,0.03434,0.15273,0.37669,-0.5198,0.011648
542,-0.087669,-0.077146,0.028092,0.17674,0.31651,-0.52145,0.017897
543,-0.06136,-0.07583,0.026776,0.19812,0.27343,-0.48757,0.021843
544,-0.038339,-0.060702,0.029078,0.20996,0.25074,-0.44449,0.024803
545,-0.024527,-0.036366,0.032038,0.21094,0.24778,-0.40568,0.026119
546,-0.016305,-0.015319,0.036314,0.1991,0.24778,-0.36589,0.02579
547,-0.011043,-0.0047949,0.039931,0.17674,0.23495,-0.31985,0.024145
548,-0.0031506,-0.007097,0.044864,0.14188,0.20075,-0.26296,0.024474
549,0.010662,-0.02354,0.045851,0.09551,0.13925,-0.19817,0.026119
550,0.027763,-0.043601,0.039602,0.042562,0.042891,-0.1324,0.02875
551,0.044535,-0.063662,0.024145,-0.020252,-0.097864,-0.076159,0.031381
552,0.059992,-0.079119,-0.0008485,-0.094247,-0.28631,-0.031104,0.032696
553,0.068214,-0.086354,-0.031762,-0.17416,-0.49908,-0.0038083,0.033354
554,0.071173,-0.085696,-0.064649,-0.24849,-0.69673,0.0083598,0.034011
555,0.069529,-0.084052,-0.087341,-0.2988,-0.83255,0.010333,0.036642
556,0.062623,-0.086354,-0.094905,-0.31755,-0.87695,0.0044134,0.041247
557,0.047495,-0.091287,-0.086025,-0.30965,-0.82104,-0.011043,0.045851
558,0.024474,-0.0903,-0.063333,-0.28137,-0.68555,-0.046561,0.051441
559,-0.0028217,-0.079119,-0.030775,-0.24717,-0.5175,-0.10444,0.053086
560,-0.031104,-0.060045,0.0060577,-0.22119,-0.37576,-0.18436,0.052099
561,-0.054125,-0.034722,0.036971,-0.20606,-0.2988,-0.27315,0.04881
562,-0.061689,-0.0097279,0.053743,-0.19685,-0.29979,-0.34846,0.04618
563,-0.045246,0.0090175,0.051113,-0.18501,-0.36359,-0.39286,0.045193
564,-0.012688,0.016253,0.033683,-0.16364,-0.45271,-0.40141,0.04618
565,0.024803,0.0070443,0.013293,-0.13503,-0.53033,-0.38003,0.046837
566,0.059334,-0.015319,0.0021113,-0.11036,-0.579,-0.3478,0.047495
567,0.083342,-0.046561,-0.0011774,-0.097207,-0.5938,-0.31985,0.045851
568,0.090248,-0.08175,-0.0015062,-0.094576,-0.579,-0.31097,0.045522
569,0.076435,-0.11233,-0.0074258,-0.099509,-0.54841,-0.3159,0.047495
570,0.05177,-0.12417,-0.018936,-0.10543,-0.52145,-0.32248,0.048482
571,0.031381,-0.10641,-0.033406,-0.099838,-0.50237,-0.309,0.051113
572,0.024803,-0.060045,-0.045903,-0.074186,-0.48527,-0.26164,0.053415
573,0.033025,-0.004466,-0.053796,-0.028802,-0.45041,-0.186,0.053743
574,0.049797,0.039602,-0.057414,0.030723,-0.37609,-0.10313,0.050455
575,0.06624,0.061965,-0.054783,0.098798,-0.25112,-0.031104,0.044535
576,0.075778,0.063281,-0.044259,0.17082,-0.076488,0.017568,0.038616
577,0.073147,0.051441,-0.0265,0.23824,0.12971,0.047495,0.034669
578,0.054401,0.037629,-0.013017,0.28658,0.32868,0.074791,0.033025
579,0.026776,0.025461,-0.007097,0.30598,0.48259,0.11195,0.032038
580,-0.0018351,0.021186,-0.0067681,0.29053,0.575,0.15635,0.029078
581,-0.022883,0.027434,-0.0080836,0.23166,0.60394,0.19253,0.024474
582,-0.032749,0.041575,-0.0090702,0.12313,0.54704,0.20568,0.017897
583,-0.030447,0.055717,-0.0084125,-0.016963,0.39675,0.18463,0.014279
584,-0.021896,0.068214,-0.0057815,-0.14391,0.16457,0.13629,0.012306
585,-0.012359,0.079724,0.0034268,-0.21691,-0.11398,0.080382,0.012306
586,-0.0077547,0.090248,0.024474,-0.22185,-0.38891,0.039602,0.014279
587,-0.0061104,0.098798,0.04881,-0.17252,-0.62438,0.030723,0.017239
588,-0.004466,0.10209,0.072818,-0.10674,-0.80361,0.048153,0.018884
589,-0.004466,0.097812,0.086301,-0.068266,-0.9276,0.064925,0.017897
590,-0.0087413,0.083013,0.086301,-0.079119,-0.99995,0.054401,0.014608
591,-0.017292,0.06361,0.070187,-0.13042,-1.0036,0.0024402,0.0093464
592,-0.026829,0.050126,0.041904,-0.20014,-0.90523,-0.08471,0.0044134
593,-0.033078,0.046508,0.011648,-0.25671,-0.67174,-0.18732,-0.00019077
594,-0.030447,0.056374,-0.011043,-0.26592,-0.29979,-0.27545,-0.0028217
595,-0.021238,0.078737,-0.021567,-0.19652,0.17246,-0.32413,-0.0047949
596,-0.0084125,0.10702,-0.016305,-0.029789,0.66215,-0.32774,-0.0064392
597,0.0096753,0.13695,0.0044134,0.23692,1.0844,-0.29288,-0.010057
598,0.034669,0.16589,0.034998,0.57039,1.3899,-0.23402,-0.013345
599,0.060321,0.18661,0.065912,0.91307,1.5698,-0.17646,-0.017621
600,0.081697,0.19647,0.088932,1.1952,1.6448,-0.13404,-0.020252
601,0.099456,0.19483,0.098141,1.3663,1.6445,-0.1097,-0.021238
602,0.10834,0.18134,0.095839,1.4077,1.5813,-0.097536,-0.020252
603,0.10866,0.15734,0.088275,1.3209,1.4498,-0.097207,-0.01795
604,0.10044,0.12708,0.078737,1.1331,1.241,-0.11431,-0.015319
605,0.08367,0.093536,0.07216,0.88709,0.95714,-0.1541,-0.014003
606,0.063938,0.05769,0.068543,0.62992,0.62795,-0.20442,-0.013345
607,0.044206,0.024145,0.066898,0.39544,0.29316,-0.24947,-0.010715
608,0.02283,-0.0077547,0.061307,0.20173,-0.0097279,-0.27315,-0.0087413
609,0.00079584,-0.036695,0.046508,0.051441,-0.25572,-0.26361,-0.0077547
610,-0.023211,-0.058071,0.024474,-0.063004,-0.42147,-0.22316,-0.0093991
611,-0.047877,-0.071884,-0.0018351,-0.1541,-0.4981,-0.15903,-0.011372
612,-0.071555,-0.074515,-0.027487,-0.22941,-0.48461,-0.070568,-0.013017
613,-0.084052,-0.066622,-0.046561,-0.28663,-0.36951,0.063938,-0.011372
614,-0.082408,-0.050179,-0.056756,-0.31952,-0.14391,0.2708,-0.0077547
615,-0.066293,-0.031433,-0.056427,-0.32544,0.17345,0.56151,-0.0028217
616,-0.041628,-0.010386,-0.044917,-0.30735,0.53356,0.9134,0.0011247
617,-0.016634,0.0067154,-0.024198,-0.2748,0.86309,1.2847,0.002769
618,0.0060577,0.017239,-0.0008485,-0.23862,1.0949,1.6218,0.0030979
619,0.029078,0.018226,0.018226,-0.20771,1.1969,1.8674,0.0021113
620,0.050126,0.010991,0.029078,-0.18633,1.1548,1.9638,0.002769
621,0.064925,0.00079584,0.031052,-0.17186,0.97523,1.876,0.0024402
622,0.068871,-0.0090702,0.027763,-0.16166,0.69438,1.6175,0.0034268
623,0.063281,-0.013674,0.024145,-0.1564,0.38162,1.2561,0.0063866
624,0.054401,-0.012688,0.021186,-0.16199,0.1182,0.8815,0.010991
625,0.042891,-0.0067681,0.015924,-0.18238,-0.019265,0.56776,0.016581
626,0.02875,-0.0024928,0.01132,-0.21757,0.0057288,0.35433,0.020199
627,0.012635,0.0024402,0.0096753,-0.25704,0.16063,0.23659,0.023488
628,-0.00019077,0.0047422,0.0093464,-0.29617,0.35236,0.18003,0.024474
629,-0.0064392,0.0037556,0.0037556,-0.32577,0.47634,0.14024,0.024803
630,-0.0077547,-0.002164,-0.0097279,-0.34123,0.47502,0.082684,0.024145
631,-0.0090702,-0.01203,-0.029789,-0.3386,0.35466,-0.0077547,0.023159
632,-0.01499,-0.024856,-0.048534,-0.31952,0.1649,-0.12253,0.021843
633,-0.020581,-0.03538,-0.063004,-0.28532,-0.030118,-0.24783,0.022501
634,-0.022225,-0.039655,-0.067937,-0.2281,-0.18732,-0.36655,0.024474
635,-0.020581,-0.036695,-0.067609,-0.12384,-0.29288,-0.46817,0.028421
636,-0.018607,-0.032091,-0.065964,0.033683,-0.35931,-0.5494,0.033683
637,-0.017621,-0.031433,-0.068924,0.21588,-0.4024,-0.61747,0.040589
638,-0.019594,-0.037024,-0.074186,0.36814,-0.42706,-0.67437,0.046508
639,-0.026171,-0.046232,-0.08175,0.43983,-0.43791,-0.72041,0.050784
640,-0.030118,-0.057085,-0.089643,0.41254,-0.43791,-0.7385,0.052099
641,-0.032091,-0.064978,-0.095233,0.29579,-0.43166,-0.71219,0.051441
642,-0.033406,-0.062676,-0.098851,0.10603,-0.42279,-0.62964,0.050784
643,-0.033735,-0.047548,-0.096878,-0.14325,-0.41654,-0.49251,0.050126
644,-0.028144,-0.025842,-0.086683,-0.43495,-0.41095,-0.31261,0.051113
645,-0.018607,-0.0047949,-0.065964,-0.73291,-0.40503,-0.10609,0.051113
646,-0.0084125,0.010662,-0.038668,-0.98844,-0.39779,0.10768,0.050784
647,-0.0024928,0.021843,-0.01203,-1.1539,-0.38694,0.30204,0.050784
648,-0.00019077,0.028421,0.0093464,-1.2035,-0.37313,0.43622,0.049797
649,-0.00019077,0.031052,0.020528,-1.1443,-0.35899,0.47634,0.047495
650,-0.0031506,0.030723,0.024803,-1.0147,-0.34912,0.41846,0.045522
651,-0.0051238,0.031381,0.025461,-0.85952,-0.34419,0.28428,0.045851
652,-0.00051963,0.034998,0.030394,-0.71614,-0.34386,0.11524,0.04618
653,0.015266,0.040918,0.041575,-0.60037,-0.34353,-0.047877,0.045851
654,0.039602,0.04618,0.066898,-0.51092,-0.33596,-0.17449,0.043549
655,0.067556,0.045522,0.10307,-0.41917,-0.31886,-0.25243,0.041247
656,0.091234,0.038616,0.14254,-0.27578,-0.28894,-0.28433,0.038944
657,0.10242,0.029078,0.18102,-0.041299,-0.24947,-0.29255,0.037629
658,0.10143,0.024803,0.20963,0.27047,-0.21034,-0.2988,0.036314
659,0.088932,0.025461,0.22212,0.59637,-0.17909,-0.3159,0.034669
660,0.071173,0.027434,0.21555,0.85223,-0.15575,-0.34057,0.032038
661,0.058019,0.026447,0.19318,0.98016,-0.14127,-0.36326,0.028421
662,0.048482,0.018884,0.16095,0.96799,-0.13601,-0.37609,0.025132
663,0.044535,0.0063866,0.12577,0.84368,-0.13207,-0.36819,0.021514
664,0.04322,-0.010386,0.096496,0.66511,-0.12121,-0.33531,0.019541
665,0.042233,-0.028144,0.078409,0.4964,-0.10214,-0.29025,0.018226
666,0.038616,-0.039655,0.072489,0.37735,-0.083065,-0.25309,0.017239
667,0.030394,-0.041628,0.075778,0.32177,-0.074844,-0.23961,0.016253
668,0.016253,-0.029789,0.084657,0.30829,-0.080763,-0.24816,0.015924
669,-0.002164,-0.0093991,0.091892,0.30434,-0.10313,-0.26559,0.015924
670,-0.016305,0.012635,0.09255,0.27902,-0.13536,-0.27249,0.013293
671,-0.01499,0.027434,0.088275,0.22574,-0.17054,-0.26197,0.0093464
672,-0.0015062,0.03434,0.078737,0.14912,-0.20244,-0.23895,0.0047422
673,0.017239,0.036642,0.071831,0.060979,-0.22941,-0.21099,0.00046697
674,0.038287,0.035985,0.070845,-0.021896,-0.25013,-0.18699,-0.0034794
675,0.057361,0.038944,0.073147,-0.083723,-0.26032,-0.17844,-0.004466
676,0.07216,0.048482,0.07512,-0.10872,-0.25112,-0.18699,-0.0064392
677,0.077422,0.067885,0.077422,-0.086354,-0.20836,-0.20606,-0.0084125
678,0.076106,0.094852,0.083013,-0.015319,-0.11661,-0.21889,-0.010715
679,0.073476,0.12215,0.088932,0.091563,0.02283,-0.21395,-0.012359
680,0.066569,0.14188,0.090905,0.20667,0.18332,-0.19422,-0.013674
681,0.052099,0.14122,0.084328,0.2948,0.32703,-0.16923,-0.016305
682,0.028092,0.11557,0.071831,0.33723,0.42372,-0.15015,-0.018607
683,-0.0057815,0.069858,0.058019,0.32835,0.45924,-0.13667,-0.019594
684,-0.038668,0.014937,0.040589,0.28198,0.43687,-0.12286,-0.019594
685,-0.064649,-0.038668,0.020199,0.21028,0.3586,-0.10378,-0.018607
686,-0.082408,-0.083723,-0.0024928,0.12478,0.22147,-0.075501,-0.016305
687,-0.093589,-0.11529,-0.027487,0.038944,0.027105,-0.036366,-0.011701
688,-0.09918,-0.13272,-0.053796,-0.041299,-0.20606,0.0096753,-0.0080836
689,-0.1005,-0.13305,-0.078461,-0.10247,-0.44942,0.058676,-0.0064392
690,-0.094576,-0.11464,-0.095233,-0.13042,-0.65957,0.1057,-0.0084125
691,-0.082736,-0.078461,-0.10082,-0.11233,-0.79835,0.14418,-0.011701
692,-0.061689,-0.027816,-0.097207,-0.036695,-0.84637,0.17641,-0.014661
693,-0.031433,0.033683,-0.091616,0.091234,-0.80888,0.20272,-0.015648
694,0.0001381,0.093865,-0.086683,0.24778,-0.71022,0.2162,-0.014332
695,0.022172,0.14089,-0.082736,0.40925,-0.58163,0.20765,-0.011043
696,0.02875,0.17016,-0.082079,0.54277,-0.44449,0.17477,-0.0064392
697,0.022501,0.18365,-0.089972,0.62531,-0.30702,0.11656,-0.0028217
698,0.013293,0.18134,-0.10937,0.64866,-0.17712,0.044206,0.0014536
699,0.0086887,0.16589,-0.13404,0.61709,-0.059716,-0.028802,0.0037556
700,0.013293,0.13793,-0.15739,0.53981,0.044206,-0.089972,0.0070443
701,0.022501,0.10011,-0.17613,0.42273,0.13169,-0.13174,0.0086887
702,0.035656,0.059992,-0.186,0.28264,0.20108,-0.1495,0.012306
703,0.047495,0.027434,-0.18633,0.13497,0.25106,-0.14555,0.015595
704,0.05473,0.0044134,-0.1814,-0.0038083,0.28428,-0.12976,0.017897
705,0.056046,-0.0090702,-0.17449,-0.11891,0.30697,-0.10937,0.019541
706,0.05473,-0.01499,-0.16561,-0.1985,0.32473,-0.09326,0.019541
707,0.049468,-0.016305,-0.15673,-0.24026,0.34019,-0.079448,0.019541
708,0.042562,-0.020252,-0.14654,-0.25441,0.354,-0.059716,0.021514
709,0.038287,-0.031762,-0.14062,-0.25177,0.36683,-0.034064,0.023817
710,0.036642,-0.045903,-0.14062,-0.24454,0.36781,-0.0077547,0.027105
711,0.032367,-0.057743,-0.14621,-0.23829,0.3392,0.010991,0.030394
712,0.021514,-0.066622,-0.15344,-0.23204,0.26257,0.018555,0.031709
713,0.0063866,-0.076159,-0.15903,-0.22875,0.13136,0.021514,0.030723
714,-0.0054526,-0.089314,-0.16528,-0.24421,-0.036695,0.029078,0.029736
715,-0.013345,-0.10181,-0.1712,-0.2988,-0.20212,0.044535,0.031709
716,-0.01795,-0.1097,-0.17054,-0.39713,-0.3159,0.065254,0.035327
717,-0.020581,-0.11431,-0.16035,-0.50632,-0.34649,0.086959,0.039602
718,-0.024527,-0.11825,-0.13996,-0.57834,-0.28992,0.10242,0.045851
719,-0.027487,-0.12845,-0.11069,-0.57209,-0.17054,0.10801,0.049797
720,-0.029789,-0.15213,-0.079119,-0.47442,-0.024198,0.10965,0.05177
721,-0.024856,-0.18469,-0.045903,-0.30209,0.11721,0.12149,0.051441
722,-0.011372,-0.20738,-0.014332,-0.1005,0.23659,0.15076,0.051441
723,0.0090175,-0.20179,0.014608,0.084986,0.32769,0.19647,0.052099
724,0.02875,-0.16298,0.04618,0.22837,0.38853,0.24942,0.049797
725,0.04026,-0.09622,0.083013,0.32605,0.41944,0.29217,0.046837
726,0.04026,-0.015976,0.12741,0.38162,0.42635,0.31552,0.044206
727,0.031381,0.062952,0.17806,0.40169,0.4132,0.32111,0.04322
728,0.022501,0.13037,0.22969,0.38327,0.38721,0.31684,0.042891
729,0.015595,0.18102,0.27803,0.32045,0.3517,0.31289,0.044864
730,0.011977,0.21423,0.31914,0.21226,0.31322,0.30862,0.047824
731,0.0090175,0.23429,0.34874,0.065254,0.27343,0.30368,0.050126
732,0.0096753,0.24021,0.36189,-0.099838,0.23232,0.29842,0.05177
733,0.01132,0.23561,0.36189,-0.25375,0.18989,0.29447,0.05177
734,0.014608,0.22508,0.35071,-0.36688,0.15043,0.28855,0.049139
735,0.016253,0.21259,0.33756,-0.42903,0.12248,0.27639,0.043877
736,0.01691,0.19943,0.33723,-0.44581,0.10932,0.25633,0.039273
737,0.018884,0.18759,0.35531,-0.42936,0.10801,0.22903,0.036642
738,0.023159,0.182,0.3757,-0.39187,0.1113,0.19812,0.035656
739,0.023817,0.182,0.37538,-0.3478,0.10998,0.16293,0.03434
740,0.015595,0.1843,0.3415,-0.30998,0.10439,0.12544,0.033354
741,-0.0011774,0.18365,0.27836,-0.28071,0.099127,0.09255,0.030065
742,-0.01795,0.17312,0.19976,-0.25835,0.10209,0.065254,0.026447
743,-0.025185,0.15339,0.12215,-0.23665,0.11195,0.050126,0.023817
744,-0.022883,0.12412,0.057361,-0.20639,0.12379,0.048482,0.020199
745,-0.011701,0.094852,0.010333,-0.16758,0.12642,0.057032,0.018555
746,0.0014536,0.070187,-0.022883,-0.12779,0.10801,0.066898,0.01691
747,0.016581,0.046508,-0.043601,-0.092931,0.0692,0.066898,0.016253
748,0.029078,0.02283,-0.06136,-0.063662,0.017239,0.053415,0.015924
749,0.039602,0.0057288,-0.083394,-0.037024,-0.035708,0.028092,0.014937
750,0.044864,0.002769,-0.1074,-0.0064392,-0.071884,-0.002164,0.013951
751,0.046508,0.0040845,-0.12615,0.033683,-0.079448,-0.025842,0.010991
752,0.041247,0.0040845,-0.13404,0.08663,-0.060702,-0.037353,0.0060577
753,0.029736,-0.0024928,-0.1324,0.1524,-0.024856,-0.035708,0.0011247
754,0.013293,-0.011701,-0.13404,0.22344,0.014937,-0.025842,-0.002164
755,-0.0074258,-0.024198,-0.14423,0.28395,0.047495,-0.019594,-0.0054526
756,-0.02946,-0.043272,-0.16134,0.32045,0.062623,-0.020909,-0.0090702
757,-0.050179,-0.06432,-0.18008,0.32572,0.067885,-0.032091,-0.013345
758,-0.066951,-0.080763,-0.19159,0.29743,0.07512,-0.053467,-0.017621
759,-0.076817,-0.087669,-0.19225,0.22443,0.094852,-0.079448,-0.019594
760,-0.076159,-0.0903,-0.18008,0.10209,0.12248,-0.10115,-0.019594
761,-0.064649,-0.090629,-0.1564,-0.056098,0.14648,-0.11858,-0.018278
762,-0.04393,-0.090958,-0.12845,-0.21067,0.15438,-0.13601,-0.01795
763,-0.015648,-0.086683,-0.10543,-0.32084,0.14089,-0.15509,-0.017292
764,0.013293,-0.071226,-0.090629,-0.35537,0.11557,-0.18074,-0.016305
765,0.036971,-0.036366,-0.086025,-0.30702,0.093208,-0.21231,-0.015648
766,0.056046,0.014279,-0.090958,-0.1962,0.081039,-0.23862,-0.013345
767,0.070187,0.06624,-0.10148,-0.062676,0.083342,-0.2498,-0.010057
768,0.080053,0.10505,-0.11365,0.059992,0.10143,-0.24026,-0.0067681
769,0.084657,0.12116,-0.12319,0.1524,0.13267,-0.21067,-0.0074258
770,0.088275,0.11557,-0.12713,0.21555,0.16359,-0.17318,-0.010386
771,0.090905,0.097483,-0.12352,0.256,0.17312,-0.14127,-0.014661
772,0.087288,0.081697,-0.10576,0.27968,0.14517,-0.1222,-0.01795
773,0.071831,0.081697,-0.070897,0.2925,0.074462,-0.11464,-0.018278
774,0.04618,0.088275,-0.026171,0.29776,-0.018936,-0.11562,-0.015319
775,0.018884,0.077751,0.01691,0.29809,-0.10707,-0.12089,-0.010057
776,-0.0024928,0.030723,0.046837,0.30401,-0.16693,-0.11924,-0.0061104
777,-0.012688,-0.051165,0.058348,0.32572,-0.18929,-0.10017,-0.002164
778,-0.010057,-0.14621,0.049797,0.36387,-0.1837,-0.062676,0.00046697
779,0.0014536,-0.22218,0.028421,0.40793,-0.16923,-0.01499,0.0021113
780,0.016581,-0.25737,0.0030979,0.44806,-0.16002,0.031709,0.0037556
781,0.033683,-0.24684,-0.013345,0.46779,-0.16002,0.070187,0.0063866
782,0.045522,-0.20212,-0.018278,0.45661,-0.16331,0.098469,0.0096753
783,0.044535,-0.13897,-0.01499,0.40892,-0.1643,0.11754,0.013293
784,0.021186,-0.07879,-0.010057,0.33295,-0.16101,0.13629,0.017568
785,-0.016963,-0.034064,-0.0061104,0.24317,-0.15114,0.17477,0.021186
786,-0.054454,-0.010715,-0.004466,0.15043,-0.1393,0.25008,0.023159
787,-0.077803,-0.0061104,-0.0084125,0.061965,-0.12615,0.3836,0.02579
788,-0.077803,-0.0061104,-0.020252,-0.015319,-0.11003,0.58388,0.027763
789,-0.061031,0.0030979,-0.030447,-0.075501,-0.090958,0.82362,0.029407
790,-0.037682,0.022501,-0.033406,-0.1199,-0.076159,1.0282,0.029078
791,-0.019265,0.038287,-0.028144,-0.15114,-0.073528,1.1239,0.028092
792,-0.0054526,0.04026,-0.016634,-0.16956,-0.086354,1.0811,0.026776
793,0.0073732,0.026447,-0.0031506,-0.17613,-0.1097,0.92722,0.025132
794,0.024803,0.0050711,0.0096753,-0.17186,-0.13338,0.72628,0.026447
795,0.049139,-0.0097279,0.020528,-0.16265,-0.14621,0.54014,0.030065
796,0.076435,-0.010057,0.029407,-0.15706,-0.13733,0.40464,0.035656
797,0.096496,0.00079584,0.038944,-0.16331,-0.10641,0.32637,0.041904
798,0.10406,0.012306,0.045851,-0.18534,-0.067937,0.29678,0.050126
799,0.097154,0.015924,0.046508,-0.22514,-0.036037,0.29743,0.053743
800,0.081039,0.0017824,0.038616,-0.27808,-0.01795,0.30368,0.053415
801,0.065254,-0.028144,0.023817,-0.33531,-0.0011774,0.30105,0.050784
802,0.054401,-0.06432,0.002769,-0.38332,0.027763,0.28691,0.049139
803,0.045522,-0.095891,-0.018936,-0.41719,0.063281,0.2731,0.048482
804,0.028092,-0.11727,-0.03538,-0.4389,0.081697,0.26356,0.047824
805,-0.0041372,-0.1268,-0.043272,-0.45205,0.057032,0.25205,0.046508
806,-0.046561,-0.12648,-0.038997,-0.44712,-0.020581,0.21818,0.043877
807,-0.083394,-0.11595,-0.021567,-0.41193,-0.12976,0.14583,0.041575
808,-0.10477,-0.095233,0.0073732,-0.32873,-0.22908,0.035656,0.042233
809,-0.10609,-0.069253,0.039602,-0.18567,-0.27348,-0.099838,0.044535
810,-0.090629,-0.047548,0.063938,0.015266,-0.24454,-0.24454,0.046837
811,-0.070897,-0.038011,0.075778,0.25172,-0.15147,-0.39089,0.048482
812,-0.048863,-0.042286,0.072818,0.47469,-0.028144,-0.52408,0.048482
813,-0.0265,-0.057414,0.064267,0.62564,0.082355,-0.62767,0.045851
814,-0.0008485,-0.078132,0.053086,0.66905,0.14484,-0.68884,0.041575
815,0.027763,-0.092603,0.047824,0.61348,0.15898,-0.70758,0.038287
816,0.058019,-0.09326,0.056374,0.50166,0.15865,-0.69048,0.036971
817,0.086959,-0.073857,0.080053,0.37472,0.19417,-0.64642,0.035985
818,0.10702,-0.03242,0.11031,0.25731,0.28132,-0.59248,0.035985
819,0.11064,0.027105,0.13464,0.16391,0.38294,-0.53953,0.035327
820,0.093536,0.099456,0.14681,0.11754,0.44279,-0.50336,0.032038
821,0.06361,0.18167,0.14517,0.14977,0.42635,-0.48922,0.027763
822,0.033354,0.26159,0.1353,0.29316,0.34282,-0.49415,0.023817
823,0.010333,0.32539,0.12346,0.54441,0.23035,-0.50632,0.020857
824,0.00079584,0.35893,0.11853,0.84467,0.12511,-0.51191,0.01987
825,0.0040845,0.35433,0.1205,1.0999,0.039602,-0.50237,0.01987
826,0.015924,0.31881,0.12544,1.2337,-0.026171,-0.47935,0.01987
827,0.024145,0.27178,0.13037,1.2262,-0.072213,-0.45074,0.01987
828,0.023488,0.22771,0.13399,1.1041,-0.088656,-0.42213,0.019541
829,0.01691,0.18825,0.13497,0.91472,-0.062347,-0.39483,0.017568
830,0.0080309,0.14221,0.12905,0.70063,0.0057288,-0.36885,0.015266
831,-0.0080836,0.083999,0.11656,0.49771,0.10669,-0.34188,0.011648
832,-0.032091,0.017568,0.098798,0.32769,0.22673,-0.3159,0.0090175
833,-0.057085,-0.041628,0.077422,0.20667,0.34644,-0.29716,0.0057288
834,-0.07287,-0.081092,0.057361,0.14024,0.45496,-0.28894,0.0037556
835,-0.077146,-0.090958,0.040589,0.12741,0.54343,-0.29058,0.0011247
836,-0.069582,-0.070897,0.032696,0.15339,0.60164,-0.30439,-0.0024928
837,-0.056427,-0.031433,0.037629,0.19845,0.6194,-0.33268,-0.0080836
838,-0.042615,0.0096753,0.058019,0.2458,0.58684,-0.37411,-0.013674
839,-0.028473,0.042562,0.084657,0.2777,0.49311,-0.41785,-0.017621
840,-0.020252,0.065583,0.10669,0.27178,0.34479,-0.45173,-0.019265
841,-0.02354,0.080053,0.11426,0.2162,0.16063,-0.46521,-0.019265
842,-0.033078,0.084328,0.10176,0.11228,-0.033406,-0.45534,-0.017292
843,-0.042615,0.077093,0.074791,-0.022883,-0.1985,-0.42871,-0.014661
844,-0.039326,0.061307,0.038287,-0.16561,-0.3159,-0.39352,-0.013674
845,-0.011701,0.041904,-0.0024928,-0.29683,-0.3797,-0.34846,-0.012359
846,0.039931,0.026119,-0.042944,-0.40404,-0.40503,-0.28499,-0.01203
847,0.10801,0.01987,-0.079119,-0.48034,-0.41884,-0.20244,-0.010715
848,0.17575,0.026119,-0.10839,-0.52441,-0.44877,-0.11266,-0.0090702
849,0.22344,0.041247,-0.13075,-0.53756,-0.50895,-0.024856,-0.0090702
850,0.24745,0.062294,-0.14654,-0.52079,-0.59215,0.056046,-0.010386
851,0.25008,0.084328,-0.15805,-0.4856,-0.68292,0.12971,-0.01203
852,0.23133,0.10209,-0.16397,-0.45732,-0.76053,0.19088,-0.013017
853,0.19121,0.10965,-0.16035,-0.47442,-0.81216,0.23758,-0.012688
854,0.13563,0.10669,-0.14292,-0.57045,-0.82565,0.26784,-0.010715
855,0.078737,0.093536,-0.11628,-0.73948,-0.79506,0.27474,-0.0084125
856,0.032038,0.076435,-0.086683,-0.92891,-0.72633,0.25369,-0.0047949
857,-0.002164,0.059334,-0.058729,-1.0677,-0.62833,0.20568,-0.0018351
858,-0.02946,0.04026,-0.036366,-1.1022,-0.51322,0.1376,-0.00051963
859,-0.063662,0.013293,-0.01795,-1.0197,-0.3899,0.057032,-0.00051963
860,-0.10806,-0.024856,-0.002164,-0.8467,-0.26032,-0.024198,-0.00051963
861,-0.15509,-0.065307,0.0086887,-0.62931,-0.12878,-0.098851,0.00079584
862,-0.18205,-0.090629,0.01132,-0.41719,0.0011247,-0.1587,0.0054
863,-0.16923,-0.090629,0.0070443,-0.24947,0.12708,-0.20179,0.01132
864,-0.11562,-0.06432,-0.00019077,-0.13667,0.2412,-0.22645,0.015266
865,-0.048534,-0.027487,-0.0061104,-0.074186,0.32605,-0.22744,0.017568
866,0.00079584,0.0024402,-0.0090702,-0.042944,0.3665,-0.19291,0.017897
867,0.014937,0.01691,-0.0093991,-0.028473,0.35729,-0.11102,0.01691
868,-0.0011774,0.016581,-0.0077547,-0.01499,0.30138,0.021514,0.017568
869,-0.028473,0.0011247,-0.0054526,0.0047422,0.21028,0.1922,0.018884
870,-0.048205,-0.028802,-0.0031506,0.024803,0.098469,0.37406,0.022172
871,-0.05281,-0.067609,-0.0018351,0.034669,-0.014003,0.53882,0.026119
872,-0.043601,-0.1005,0.00046697,0.031052,-0.10576,0.65195,0.028421
873,-0.027487,-0.11233,0.0034268,0.014937,-0.16035,0.6878,0.029736
874,-0.013017,-0.09326,0.0093464,-0.002164,-0.17449,0.64702,0.031381
875,-0.0047949,-0.044588,0.027434,-0.014661,-0.14456,0.55987,0.033683
876,-0.0028217,0.024145,0.062952,-0.021896,-0.067609,0.46746,0.037958
877,-0.0051238,0.094194,0.11491,-0.030775,0.053086,0.40037,0.044206
878,-0.0051238,0.15536,0.16753,-0.047548,0.19318,0.37011,0.04881
879,-0.0011774,0.19384,0.20469,-0.07024,0.31618,0.36979,0.052099
880,0.0044134,0.20371,0.21292,-0.096549,0.38491,0.39313,0.052428
881,0.0086887,0.19055,0.19253,-0.1222,0.37998,0.4451,0.052099
882,0.012306,0.16589,0.1524,-0.14588,0.31454,0.53718,0.050784
883,0.015595,0.14254,0.10636,-0.17153,0.22607,0.67662,0.051113
884,0.019541,0.12478,0.065912,-0.20442,0.14879,0.85421,0.052757
885,0.026447,0.11064,0.038287,-0.24026,0.097483,1.0305,0.053086
886,0.031052,0.093865,0.021514,-0.26624,0.07512,1.1367,0.049797
887,0.02875,0.071502,0.010333,-0.27085,0.053415,1.1186,0.044206
888,0.016253,0.045193,-0.0011774,-0.2521,-0.011701,0.96931,0.04026
889,-0.0041372,0.018884,-0.015648,-0.21626,-0.14259,0.72825,0.038944
890,-0.019265,-0.0087413,-0.026829,-0.17054,-0.32511,0.46187,0.042562
891,-0.027487,-0.038997,-0.036366,-0.11858,-0.50007,0.22245,0.045851
892,-0.026829,-0.069911,-0.045246,-0.060373,-0.59873,0.036314,0.048482
893,-0.017621,-0.095233,-0.051823,0.0001381,-0.57834,-0.090958,0.049468
894,-0.0008485,-0.10609,-0.056098,0.064596,-0.42739,-0.15575,0.047166
895,0.022172,-0.098851,-0.057414,0.14155,-0.16857,-0.16495,0.04322
896,0.04618,-0.080106,-0.054125,0.23396,0.13793,-0.13009,0.038616
897,0.065912,-0.056756,-0.048534,0.33493,0.40464,-0.08175,0.03434
898,0.076435,-0.034722,-0.040641,0.42767,0.54573,-0.056756,0.031052
899,0.07808,-0.016963,-0.036037,0.501,0.53159,-0.081421,0.027434
900,0.077093,-0.0038083,-0.033735,0.55395,0.38787,-0.15114,0.025132
901,0.080382,0.0070443,-0.031433,0.58947,0.17871,-0.23369,0.02283
902,0.088932,0.017239,-0.02354,0.60624,-0.020581,-0.29387,0.021514
903,0.10044,0.024803,-0.012359,0.60032,-0.16561,-0.31261,0.020857
904,0.11064,0.030723,-0.0031506,0.56875,-0.24059,-0.29551,0.019541
905,0.1136,0.035327,-0.0018351,0.51712,-0.23632,-0.25868,0.017897
906,0.10702,0.035656,-0.011043,0.45661,-0.14391,-0.21593,0.015595
907,0.091563,0.029736,-0.027487,0.39774,0.03434,-0.17153,0.014279
908,0.074133,0.017239,-0.044917,0.34413,0.27704,-0.13272,0.013951
909,0.059663,0.0047422,-0.056098,0.29349,0.54145,-0.10247,0.012964
910,0.052757,-0.004466,-0.058729,0.2435,0.78778,-0.076159,0.010333
911,0.053086,-0.010715,-0.05281,0.19088,1.0012,-0.049521,0.0073732
912,0.059992,-0.013017,-0.043272,0.13859,1.1679,-0.015319,0.0047422
913,0.065912,-0.013017,-0.034393,0.088603,1.2604,0.038287,0.0021113
914,0.066898,-0.0097279,-0.02946,0.042891,1.238,0.10176,0.00046697
915,0.064596,-0.0018351,-0.027158,0.0054,1.068,0.14977,-0.002164
916,0.059005,0.010333,-0.02946,-0.028144,0.75456,0.15503,-0.0064392
917,0.051441,0.024803,-0.03242,-0.06432,0.34709,0.10242,-0.013674
918,0.042562,0.036971,-0.033078,-0.11497,-0.074186,-0.0008485,-0.018936
919,0.03434,0.045193,-0.031762,-0.1962,-0.44318,-0.13042,-0.018936
920,0.023159,0.049468,-0.033078,-0.31525,-0.72304,-0.26098,-0.016305
921,0.010662,0.045522,-0.039984,-0.46521,-0.90063,-0.37609,-0.012359
922,-0.0018351,0.032038,-0.049192,-0.61452,-0.97495,-0.46159,-0.0093991
923,-0.0061104,0.013622,-0.055769,-0.7214,-0.95456,-0.51553,-0.0090702
924,-0.002164,-0.0041372,-0.057085,-0.76086,-0.86084,-0.54743,-0.010386
925,0.010333,-0.010386,-0.052481,-0.72633,-0.72403,-0.56946,-0.012359
926,0.027105,-0.0024928,-0.045574,-0.62734,-0.57308,-0.58788,-0.012688
927,0.043877,0.014608,-0.038339,-0.47869,-0.43101,-0.59709,-0.012359
928,0.059334,0.02875,-0.029789,-0.2988,-0.30834,-0.58919,-0.012688
929,0.064925,0.034669,-0.016963,-0.098522,-0.21626,-0.5619,-0.013345
930,0.05769,0.031709,0.00046697,0.10669,-0.16561,-0.5198,-0.016634
931,0.035985,0.021186,0.018884,0.30434,-0.15509,-0.46521,-0.018936
932,0.0067154,0.0090175,0.033025,0.48357,-0.1712,-0.40108,-0.018607
933,-0.021896,-0.002164,0.042562,0.63551,-0.19521,-0.3284,-0.016634
934,-0.04097,-0.0054526,0.050126,0.74897,-0.20771,-0.24454,-0.011701
935,-0.048205,-0.0011774,0.059992,0.80915,-0.19817,-0.14456,-0.007097
936,-0.050507,0.002769,0.073476,0.80553,-0.16791,-0.025514,-0.002164
937,-0.051494,0.00079584,0.08959,0.74404,-0.12023,0.10603,0.0011247
938,-0.058071,-0.011372,0.10834,0.63518,-0.055112,0.23035,0.0044134
939,-0.07287,-0.035708,0.12609,0.49771,0.035985,0.33131,0.0060577
940,-0.091287,-0.065307,0.13629,0.35499,0.17707,0.39544,0.0080309
941,-0.10872,-0.090629,0.13103,0.2287,0.36847,0.4201,0.010333
942,-0.12089,-0.1028,0.11097,0.13728,0.57434,0.4132,0.011977
943,-0.1268,-0.097864,0.083999,0.091234,0.73877,0.38919,0.013951
944,-0.12746,-0.084052,0.059992,0.098469,0.81178,0.36485,0.015924
945,-0.12779,-0.066951,0.043549,0.16885,0.77955,0.35301,0.018226
946,-0.13141,-0.052152,0.035656,0.29974,0.66412,0.35367,0.018555
947,-0.137,-0.041957,0.029736,0.45595,0.5112,0.35071,0.018884
948,-0.13963,-0.038011,0.020857,0.57007,0.36091,0.3244,0.018884
949,-0.13634,-0.034722,0.0054,0.59309,0.24218,0.27047,0.01987
950,-0.1245,-0.029789,-0.01499,0.51876,0.16819,0.2014,0.02283
951,-0.10214,-0.029789,-0.031104,0.38064,0.14056,0.13169,0.026447
952,-0.075501,-0.041957,-0.037682,0.2264,0.15339,0.067885,0.029078
953,-0.048205,-0.067937,-0.03538,0.087946,0.19121,0.0034268,0.030065
954,-0.027487,-0.097536,-0.029789,-0.024527,0.22541,-0.067937,0.02875
955,-0.01795,-0.1199,-0.027487,-0.12516,0.22771,-0.14259,0.02875
956,-0.016963,-0.13042,-0.033735,-0.23928,0.18628,-0.20935,0.031381
957,-0.019923,-0.13141,-0.048205,-0.3774,0.1113,-0.25408,0.036314
958,-0.016963,-0.12549,-0.063333,-0.52441,0.031052,-0.26394,0.042891
959,-0.0024928,-0.11036,-0.073857,-0.64674,-0.02946,-0.24257,0.049468
960,0.021186,-0.083065,-0.080763,-0.71515,-0.058729,-0.21034,0.053086
961,0.050126,-0.037682,-0.085039,-0.7214,-0.063004,-0.1883,0.05473
962,0.076435,0.020857,-0.085039,-0.66713,-0.054454,-0.18304,0.052757
963,0.093208,0.088275,-0.080763,-0.57275,-0.040641,-0.18929,0.04881
964,0.098141,0.15372,-0.072542,-0.46093,-0.026829,-0.19324,0.045851
965,0.091234,0.2093,-0.065635,-0.35339,-0.01795,-0.18436,0.042562
966,0.078737,0.24909,-0.063662,-0.26559,-0.01795,-0.16561,0.041575
967,0.064925,0.26718,-0.063333,-0.20014,-0.025842,-0.14555,0.041904
968,0.053743,0.26192,-0.066622,-0.15048,-0.03538,-0.13207,0.041904
969,0.046837,0.23791,-0.07024,-0.10674,-0.041299,-0.12023,0.044206
970,0.042562,0.20338,-0.075173,-0.065635,-0.03538,-0.10313,0.047166
971,0.039602,0.16161,-0.077803,-0.022883,-0.013674,-0.070897,0.050784
972,0.032038,0.11623,-0.07583,0.018884,0.018226,-0.0038083,0.052428
973,0.014608,0.074462,-0.06728,0.053743,0.04618,0.10603,0.052757
974,-0.0084125,0.043877,-0.04985,0.07808,0.052428,0.24251,0.050455
975,-0.027158,0.02875,-0.022554,0.090905,0.025132,0.36518,0.04618
976,-0.038011,0.02579,0.010991,0.088932,-0.036037,0.4349,0.041904
977,-0.043272,0.028421,0.040589,0.065583,-0.1222,0.43983,0.039273
978,-0.047548,0.034011,0.062294,0.020857,-0.21067,0.39511,0.036971
979,-0.044917,0.040918,0.079724,-0.038997,-0.26888,0.32045,0.034998
980,-0.03242,0.052099,0.09551,-0.099838,-0.26986,0.23363,0.032367
981,-0.0093991,0.065912,0.10538,-0.14588,-0.20738,0.15832,0.029407
982,0.014608,0.079724,0.10538,-0.16758,-0.10017,0.1136,0.027434
983,0.033025,0.085972,0.099127,-0.15969,0.023817,0.1113,0.025132
984,0.039602,0.077093,0.091563,-0.12352,0.13793,0.14188,0.021514
985,0.03434,0.053415,0.083999,-0.067609,0.21785,0.18233,0.01691
986,0.026119,0.021186,0.078409,0.0070443,0.24251,0.207,0.013951
987,0.020199,-0.010386,0.074133,0.10439,0.19746,0.20601,0.013293
988,0.018884,-0.034722,0.066569,0.23363,0.080053,0.18397,0.012964
989,0.019212,-0.051494,0.05473,0.38853,-0.1199,0.15273,0.012635
990,0.015924,-0.060373,0.04322,0.53817,-0.3922,0.12708,0.010662
991,0.002769,-0.063662,0.036314,0.63617,-0.68917,0.12182,0.0070443
992,-0.017621,-0.061689,0.034998,0.64603,-0.94799,0.14747,0.0044134
993,-0.032749,-0.04985,0.035327,0.56086,-1.1164,0.19581,0.0014536
994,-0.034722,-0.026829,0.037958,0.42076,-1.166,0.23659,-0.0008485
995,-0.022883,0.0090175,0.042891,0.28362,-1.0976,0.23659,-0.0041372
996,-0.0057815,0.051441,0.051113,0.1991,-0.94174,0.18562,-0.0090702
997,0.0077021,0.088603,0.059992,0.18167,-0.74113,0.094523,-0.014332
998,0.015595,0.10866,0.065912,0.20963,-0.53361,-0.01203,-0.018278
999,0.017897,0.10538,0.067885,0.24449,-0.34057,-0.10872,-0.019923
1000,0.017897,0.079724,0.064267,0.2481,-0.1666,-0.17153,-0.018607
1001,0.017239,0.042562,0.055717,0.19877,-0.012359,-0.18929,-0.015648
1002,0.020199,0.0040845,0.043549,0.095181,0.12182,-0.15048,-0.01203
1003,0.031052,-0.030447,0.033354,-0.045574,0.23002,-0.053138,-0.0097279
1004,0.047166,-0.053796,0.02579,-0.1962,0.30566,0.08959,-0.0087413
1005,0.06624,-0.061031,0.020857,-0.32544,0.34808,0.2606,-0.0080836
1006,0.08367,-0.055769,0.020528,-0.41292,0.36288,0.44049,-0.0064392
1007,0.091234,-0.049192,0.021514,-0.44942,0.35959,0.60164,-0.0051238
1008,0.086301,-0.05281,0.018555,-0.42706,0.34644,0.7003,-0.0074258
1009,0.07216,-0.066622,0.0054,-0.34912,0.33065,0.69635,-0.011372
1010,0.058348,-0.085039,-0.015648,-0.23204,0.31717,0.58684,-0.016634
1011,0.055388,-0.092274,-0.038339,-0.10378,0.30039,0.41352,-0.021238
1012,0.071173,-0.07879,-0.055769,0.0014536,0.2754,0.23265,-0.02354
1013,0.10077,-0.037682,-0.065635,0.062294,0.24449,0.08959,-0.021896
1014,0.13432,0.022172,-0.071555,0.075778,0.21357,-0.0057815,-0.016634
1015,0.16391,0.094523,-0.074844,0.052099,0.18562,-0.07287,-0.011701
1016,0.18628,0.17608,-0.077475,0.0014536,0.16457,-0.1416,-0.0057815
1017,0.20009,0.25797,-0.076159,-0.064649,0.15668,-0.22546,-0.0028217
1018,0.20272,0.32506,-0.071884,-0.13272,0.1695,-0.31327,0.00079584
1019,0.19549,0.35795,-0.065307,-0.19225,0.19812,-0.37872,0.002769
1020,0.18233,0.34808,-0.059716,-0.23566,0.22936,-0.38957,0.0060577
1021,0.15997,0.29908,-0.048534,-0.25901,0.24514,-0.32018,0.010004
1022,0.12774,0.21883,-0.02354,-0.25473,0.23002,-0.17219,0.012964
1023,0.091563,0.11557,0.017239,-0.21987,0.18595,0.01132,0.014937
1024,0.059334,-0.0061104,0.060979,-0.16331,0.11952,0.15602,0.016581
1025,0.038944,-0.12516,0.096167,-0.10247,0.045522,0.18759,0.015595
1026,0.026447,-0.21823,0.11031,-0.047219,-0.0265,0.074791,0.013622
1027,0.011977,-0.26953,0.098798,0.0037556,-0.092603,-0.15048,0.011648
1028,-0.016634,-0.27907,0.064925,0.059663,-0.14555,-0.41292,0.011977
1029,-0.059058,-0.26,0.023488,0.13136,-0.17548,-0.6326,0.015595
1030,-0.10543,-0.2202,-0.0093991,0.21752,-0.17548,-0.76316,0.021514
1031,-0.14029,-0.16397,-0.024856,0.30566,-0.13766,-0.79967,0.027763
1032,-0.15213,-0.098193,-0.022883,0.37472,-0.063004,-0.76579,0.032038
1033,-0.13503,-0.030118,-0.0087413,0.4132,0.041247,-0.68983,0.033683
1034,-0.09326,0.027434,0.010991,0.42306,0.16589,-0.59117,0.033354
1035,-0.037353,0.067885,0.034669,0.41254,0.29579,-0.48527,0.03434
1036,0.015266,0.087946,0.059334,0.38656,0.42109,-0.38332,0.037629
1037,0.05177,0.090577,0.081039,0.34644,0.53027,-0.28927,0.04322
1038,0.067227,0.082355,0.092879,0.29645,0.6092,-0.20968,0.049468
1039,0.063938,0.068214,0.090905,0.23857,0.63814,-0.14917,0.053086
1040,0.049139,0.050455,0.074791,0.17806,0.60887,-0.10806,0.054401
1041,0.032367,0.034669,0.049139,0.12017,0.52271,-0.076488,0.05473
1042,0.020857,0.022501,0.023488,0.074462,0.38689,-0.047548,0.053086
1043,0.016581,0.013293,0.0090175,0.044864,0.21851,-0.020581,0.051113
1044,0.017897,0.0044134,0.0070443,0.031381,0.045193,0.0063866,0.049139
1045,0.020199,-0.004466,0.0096753,0.021186,-0.10115,0.036642,0.049468
1046,0.017897,-0.014003,0.01132,0.0030979,-0.18797,0.069858,0.04881
1047,0.0093464,-0.019265,0.011977,-0.034064,-0.2031,0.10636,0.04881
1048,-0.0015062,-0.019594,0.013951,-0.087669,-0.15936,0.13201,0.047166
1049,-0.015319,-0.014332,0.017239,-0.14522,-0.087341,0.13201,0.044864
1050,-0.031104,-0.0061104,0.019541,-0.19751,-0.028802,0.099456,0.044864
1051,-0.046232,0.0060577,0.01987,-0.23665,-0.012359,0.045851,0.04618
1052,-0.056756,0.017568,0.018884,-0.26131,-0.045574,-0.0008485,0.048482
1053,-0.062676,0.025461,0.014937,-0.26888,-0.10773,-0.014661,0.048153
1054,-0.069582,0.028092,0.013293,-0.26,-0.16462,0.015266,0.046837
1055,-0.082408,0.029078,0.010991,-0.24026,-0.19225,0.079395,0.042562
1056,-0.10082,0.026776,0.0054,-0.22152,-0.18567,0.15207,0.038944
1057,-0.12352,0.016581,-0.0051238,-0.21428,-0.15706,0.20568,0.035327
1058,-0.14785,-0.0041372,-0.018936,-0.21757,-0.12089,0.23002,0.033354
1059,-0.17318,-0.033735,-0.030118,-0.22185,-0.091616,0.2264,0.031709
1060,-0.20014,-0.068595,-0.034064,-0.22185,-0.079448,0.19581,0.030394
1061,-0.22612,-0.10247,-0.030447,-0.21231,-0.090629,0.14747,0.028421
1062,-0.2452,-0.12483,-0.019923,-0.18929,-0.12253,0.096825,0.025132
1063,-0.25079,-0.12417,-0.0054526,-0.15509,-0.16627,0.052428,0.021186
1064,-0.23698,-0.098193,0.0093464,-0.12023,-0.21264,0.013951,0.017239
1065,-0.20508,-0.057414,0.022501,-0.10115,-0.25704,-0.014661,0.013622
1066,-0.16594,-0.010715,0.029078,-0.11233,-0.30176,-0.022225,0.013293
1067,-0.12713,0.035327,0.025461,-0.15607,-0.35241,0.0030979,0.013293
1068,-0.090629,0.076435,0.015595,-0.22875,-0.4116,0.061636,0.013622
1069,-0.054783,0.11228,0.0021113,-0.30637,-0.47442,0.14122,0.014608
1070,-0.010715,0.13826,-0.012359,-0.35964,-0.53427,0.22015,0.013951
1071,0.041247,0.15931,-0.025185,-0.36918,-0.579,0.27376,0.010991
1072,0.094523,0.17641,-0.036037,-0.3238,-0.59709,0.2777,0.0073732
1073,0.1376,0.18924,-0.042615,-0.23369,-0.5836,0.23199,0.002769
1074,0.16227,0.19154,-0.044917,-0.1199,-0.5346,0.15471,-0.0015062
1075,0.16885,0.17641,-0.04689,-0.013674,-0.44581,0.071173,-0.0051238
1076,0.16391,0.14254,-0.054125,0.060321,-0.31459,-0.0087413,-0.0087413
1077,0.15438,0.099785,-0.062018,0.094852,-0.15081,-0.083394,-0.013674
1078,0.14056,0.059663,-0.065964,0.10077,0.022172,-0.15443,-0.01795
1079,0.12281,0.037629,-0.066293,0.09551,0.17674,-0.22349,-0.019594
1080,0.10373,0.034669,-0.067937,0.088603,0.30204,-0.28894,-0.020909
1081,0.084328,0.04322,-0.071884,0.09255,0.4076,-0.34287,-0.020581
1082,0.072818,0.049797,-0.07583,0.10998,0.51153,-0.3797,-0.018936
1083,0.077093,0.044206,-0.076817,0.1432,0.62005,-0.39976,-0.018936
1084,0.093208,0.031381,-0.07024,0.18957,0.71871,-0.40963,-0.018607
1085,0.1136,0.019212,-0.055112,0.23528,0.77067,-0.41095,-0.01795
1086,0.12971,0.016581,-0.034722,0.27211,0.74305,-0.40305,-0.015648
1087,0.13958,0.023159,-0.01499,0.29776,0.62104,-0.38924,-0.013017
1088,0.14122,0.036314,0.00046697,0.31519,0.42043,-0.37609,-0.011701
1089,0.13169,0.051113,0.012964,0.32637,0.182,-0.3728,-0.011701
1090,0.10406,0.058348,0.026119,0.33164,-0.05281,-0.38102,-0.014003
1091,0.058676,0.047824,0.047166,0.33394,-0.25506,-0.38957,-0.016305
1092,0.0001381,0.013293,0.07808,0.32605,-0.40996,-0.37642,-0.018278
1093,-0.060702,-0.036366,0.11754,0.30302,-0.51191,-0.31097,-0.016634
1094,-0.11069,-0.079448,0.16622,0.25896,-0.55729,-0.17416,-0.011372
1095,-0.14193,-0.096878,0.22377,0.1991,-0.5494,0.029407,-0.0047949
1096,-0.15969,-0.085039,0.29086,0.13267,-0.49547,0.28099,0.0017824
1097,-0.1735,-0.059058,0.36189,0.063938,-0.39385,0.56415,0.0057288
1098,-0.18041,-0.037024,0.42175,-0.00051963,-0.25046,0.84697,0.0083598
1099,-0.17153,-0.020581,0.45463,-0.045903,-0.080106,1.0742,0.0093464
1100,-0.14292,-0.011043,0.4497,-0.048863,0.088932,1.187,0.0090175
1101,-0.098522,-0.0038083,0.40892,0.012635,0.23429,1.1578,0.0086887
1102,-0.044588,0.0024402,0.34413,0.15865,0.3415,1.0154,0.0096753
1103,0.0073732,0.0040845,0.26882,0.38294,0.41517,0.82954,0.011977
1104,0.054072,-0.0031506,0.1968,0.65557,0.48324,0.67925,0.016253
1105,0.09255,-0.018936,0.13629,0.92031,0.57039,0.60821,0.01987
1106,0.12281,-0.03538,0.095839,1.1239,0.67234,0.61907,0.02283
1107,0.14517,-0.045246,0.077751,1.241,0.75028,0.67563,0.024145
1108,0.16523,-0.041957,0.079395,1.2669,0.76771,0.72891,0.024803
1109,0.19253,-0.014661,0.097483,1.1893,0.70885,0.74371,0.024803
1110,0.231,0.042562,0.13169,1.0071,0.58585,0.70457,0.02579
1111,0.27277,0.11886,0.17016,0.72628,0.43128,0.60854,0.027434
1112,0.30335,0.19318,0.19253,0.36123,0.28329,0.46088,0.028421
1113,0.31289,0.24153,0.18759,-0.057085,0.16983,0.27277,0.029736
1114,0.29546,0.24975,0.15109,-0.46916,0.10439,0.065912,0.030723
1115,0.25172,0.21883,0.090248,-0.80624,0.081039,-0.13503,0.032367
1116,0.19088,0.16095,0.016581,-1.0151,0.081368,-0.30965,0.036314
1117,0.12281,0.098469,-0.056427,-1.0776,0.080711,-0.4435,0.041904
1118,0.056374,0.047824,-0.11661,-1.0049,0.068543,-0.52934,0.048153
1119,-0.0008485,0.014937,-0.1643,-0.83979,0.043877,-0.56749,0.052099
1120,-0.044259,-0.0041372,-0.19718,-0.63589,0.013293,-0.56091,0.053415
1121,-0.076488,-0.019265,-0.2179,-0.44778,-0.020909,-0.52079,0.052757
1122,-0.10477,-0.040641,-0.22875,-0.30538,-0.053467,-0.47047,0.050784
1123,-0.13536,-0.071555,-0.22941,-0.21527,-0.083723,-0.43923,0.047166
1124,-0.16134,-0.1074,-0.22251,-0.16726,-0.1074,-0.4435,0.043549
1125,-0.17087,-0.14095,-0.21198,-0.14654,-0.12121,-0.4685,0.041575
1126,-0.15673,-0.15903,-0.20244,-0.13963,-0.12779,-0.48823,0.041247
1127,-0.12154,-0.15706,-0.19652,-0.13832,-0.13272,-0.47968,0.041247
1128,-0.079119,-0.14259,-0.19587,-0.13766,-0.14193,-0.44449,0.042562
1129,-0.042615,-0.12384,-0.20508,-0.13371,-0.16002,-0.39319,0.04322
1130,-0.020581,-0.10806,-0.22349,-0.12154,-0.18962,-0.34254,0.044535
1131,-0.014332,-0.091945,-0.24257,-0.096878,-0.22185,-0.29453,0.04618
1132,-0.01795,-0.074844,-0.25901,-0.057085,-0.24717,-0.24421,0.046837
1133,-0.021896,-0.053138,-0.26592,-0.0054526,-0.25901,-0.19028,0.045851
1134,-0.021567,-0.029131,-0.26164,0.048482,-0.25112,-0.14062,0.043549
1135,-0.01499,-0.0090702,-0.2498,0.089919,-0.21987,-0.1074,0.039602
1136,-0.0034794,0.0037556,-0.23171,0.10866,-0.16199,-0.10148,0.036642
1137,0.010662,0.010333,-0.21099,0.11393,-0.079777,-0.12056,0.035985
1138,0.024803,0.014279,-0.18765,0.11853,0.013622,-0.15575,0.034011
1139,0.035656,0.015266,-0.16166,0.12346,0.096496,-0.19225,0.033025
1140,0.042891,0.020199,-0.13503,0.12083,0.14912,-0.21428,0.029407
1141,0.048153,0.031052,-0.10905,0.10768,0.16326,-0.21264,0.026119
1142,0.054401,0.044864,-0.085367,0.088275,0.14681,-0.18534,0.02283
1143,0.060321,0.054401,-0.065635,0.064267,0.11426,-0.13996,0.020528
1144,0.063938,0.05769,-0.047877,0.031381,0.073147,-0.091616,0.019541
1145,0.063281,0.054401,-0.034064,-0.01795,0.013951,-0.053796,0.018884
1146,0.055388,0.049139,-0.024527,-0.07879,-0.076488,-0.030118,0.017897
1147,0.036971,0.039602,-0.024527,-0.13568,-0.19948,-0.022554,0.017897
1148,0.0086887,0.023817,-0.034064,-0.16561,-0.33465,-0.027816,0.017239
1149,-0.023869,0.0030979,-0.050836,-0.15048,-0.4583,-0.040313,0.014608
1150,-0.053796,-0.019265,-0.069911,-0.094905,-0.54808,-0.05281,0.011977
1151,-0.077475,-0.036695,-0.084381,-0.023211,-0.58919,-0.052152,0.0080309
1152,-0.085367,-0.042944,-0.083394,0.036642,-0.57998,-0.029789,0.0054
1153,-0.07024,-0.036366,-0.063991,0.064267,-0.54677,0.012635,0.002769
1154,-0.032749,-0.019594,-0.030447,0.047824,-0.52375,0.064596,0.0011247
1155,0.011648,0.0060577,0.0073732,-0.011701,-0.52802,0.11919,-0.0008485
1156,0.049468,0.032038,0.035656,-0.1074,-0.55335,0.17049,-0.0047949
1157,0.069529,0.050784,0.049797,-0.22053,-0.57637,0.22114,-0.010386
1158,0.068871,0.058019,0.050126,-0.32873,-0.57078,0.26619,-0.015976
1159,0.05177,0.055388,0.045522,-0.407,-0.51783,0.3027,-0.019265
1160,0.024145,0.045522,0.041904,-0.43495,-0.41292,0.33229,-0.019594
1161,-0.0024928,0.034998,0.037629,-0.41423,-0.26032,0.3665,-0.017292
1162,-0.020252,0.021514,0.035327,-0.36096,-0.063333,0.41944,-0.013017
1163,-0.025185,0.0093464,0.037629,-0.28992,0.1695,0.4839,-0.010386
1164,-0.013674,0.0063866,0.04618,-0.20047,0.41517,0.53323,-0.011043
1165,0.0086887,0.022172,0.057032,-0.088656,0.63584,0.54639,-0.014332
1166,0.02875,0.060979,0.071173,0.050126,0.78153,0.52304,-0.016963
1167,0.04026,0.11162,0.08663,0.22344,0.82724,0.47436,-0.01795
1168,0.042891,0.15471,0.10044,0.42175,0.78712,0.4201,-0.017292
1169,0.042891,0.17115,0.10768,0.60591,0.70293,0.36979,-0.017621
1170,0.042233,0.15536,0.1113,0.72628,0.61019,0.31651,-0.018607
1171,0.038287,0.11985,0.11097,0.74173,0.53619,0.25041,-0.020252
1172,0.030723,0.083342,0.10472,0.63419,0.49081,0.1626,-0.021238
1173,0.016253,0.056046,0.092221,0.41846,0.45759,0.055717,-0.019594
1174,0.0001381,0.034998,0.078737,0.14188,0.40366,-0.052152,-0.015648
1175,-0.015976,0.014608,0.065912,-0.13766,0.29217,-0.14325,-0.010386
1176,-0.030118,-0.0093991,0.052428,-0.36359,0.11097,-0.20738,-0.0047949
1177,-0.038997,-0.03242,0.037958,-0.49711,-0.11168,-0.24585,-0.00051963
1178,-0.041957,-0.049192,0.02283,-0.5221,-0.32906,-0.26756,0.0021113
1179,-0.039326,-0.056427,0.010662,-0.45304,-0.50237,-0.28203,0.0050711
1180,-0.034393,-0.055112,0.0021113,-0.32314,-0.60695,-0.29716,0.0080309
1181,-0.026171,-0.04985,-0.0034794,-0.17252,-0.63819,-0.31623,0.01132
1182,-0.015319,-0.042944,-0.0054526,-0.021896,-0.60399,-0.33531,0.013622
1183,-0.002164,-0.033078,-0.0041372,0.12511,-0.50632,-0.34616,0.014279
1184,0.0093464,-0.028144,-0.0008485,0.26784,-0.35043,-0.33794,0.015266
1185,0.012964,-0.040641,0.0073732,0.39708,-0.15673,-0.30472,0.015924
1186,0.0063866,-0.071884,0.020199,0.4987,0.027763,-0.24388,0.015924
1187,-0.0090702,-0.1097,0.033683,0.55658,0.15536,-0.16495,0.015924
1188,-0.02354,-0.14029,0.044535,0.55132,0.20075,-0.08471,0.016581
1189,-0.026829,-0.15344,0.05177,0.47568,0.17575,-0.022225,0.019212
1190,-0.016963,-0.15081,0.054072,0.34841,0.11952,0.0080309,0.02283
1191,0.0011247,-0.1416,0.05473,0.20305,0.076106,0.0054,0.027434
1192,0.020857,-0.12648,0.054401,0.07808,0.071173,-0.018607,0.030723
1193,0.042891,-0.1051,0.052099,-0.013017,0.10866,-0.049521,0.032038
1194,0.06624,-0.068924,0.04618,-0.066622,0.17773,-0.081092,0.032696
1195,0.084328,-0.019923,0.038944,-0.079119,0.26093,-0.11727,0.033025
1196,0.093865,0.037629,0.033354,-0.052481,0.34709,-0.1564,0.034011
1197,0.098798,0.097154,0.031052,0.0070443,0.42438,-0.18995,0.036971
1198,0.097812,0.15306,0.030394,0.088603,0.48456,-0.21067,0.041904
1199,0.091234,0.1991,0.030723,0.1751,0.51153,-0.21691,0.04618
1200,0.082026,0.22969,0.029736,0.25008,0.48883,-0.21001,0.049139
1201,0.072818,0.23429,0.028092,0.30105,0.41583,-0.1883,0.049797
1202,0.070187,0.20535,0.026119,0.31848,0.30796,-0.14588,0.049139
1203,0.07808,0.1455,0.024803,0.30302,0.19121,-0.075173,0.049139
1204,0.093208,0.066898,0.027763,0.26323,0.084986,0.02579,0.049468
1205,0.10373,-0.0077547,0.031381,0.21028,-0.0084125,0.15701,0.04881
1206,0.10603,-0.061031,0.035327,0.15405,-0.088985,0.30138,0.048482
1207,0.1034,-0.082736,0.038287,0.10307,-0.15443,0.44016,0.046837
1208,0.099127,-0.073199,0.042891,0.058019,-0.19488,0.55165,0.047495
1209,0.092221,-0.04097,0.048482,0.013951,-0.20409,0.62564,0.046837
1210,0.07808,-0.0018351,0.055388,-0.03242,-0.186,0.66116,0.047166
1211,0.052757,0.031052,0.06065,-0.083723,-0.15509,0.66511,0.048482
1212,0.015924,0.052428,0.064267,-0.13371,-0.12319,0.64274,0.047495
1213,-0.025842,0.064267,0.064267,-0.17022,-0.10017,0.59243,0.046508
1214,-0.062347,0.064596,0.057032,-0.18666,-0.093918,0.51416,0.043549
1215,-0.091287,0.056046,0.040918,-0.17548,-0.11266,0.40925,0.039931
1216,-0.11135,0.045193,0.020528,-0.14127,-0.16462,0.29184,0.0373
1217,-0.12187,0.039602,0.00046697,-0.094576,-0.24322,0.17214,0.035656
1218,-0.12483,0.042891,-0.016963,-0.053138,-0.31788,0.062952,0.034669
1219,-0.1222,0.05177,-0.029131,-0.028802,-0.35734,-0.022554,0.033354
1220,-0.11727,0.059663,-0.03538,-0.029789,-0.34123,-0.082736,0.032038
1221,-0.11365,0.064925,-0.037682,-0.054783,-0.2646,-0.12417,0.029736
1222,-0.11036,0.06624,-0.036366,-0.095233,-0.137,-0.15607,0.026776
1223,-0.10313,0.060321,-0.035051,-0.13832,0.017239,-0.186,0.02283
1224,-0.092603,0.047824,-0.036366,-0.17712,0.17575,-0.21297,0.018884
1225,-0.084381,0.030394,-0.044588,-0.2054,0.32473,-0.2327,0.016253
1226,-0.087998,0.012635,-0.05281,-0.21757,0.46713,-0.23928,0.015595
1227,-0.10181,0.0054,-0.05544,-0.21132,0.60558,-0.2281,0.015924
1228,-0.12253,0.0083598,-0.04985,-0.18962,0.72134,-0.20771,0.016253
1229,-0.14292,0.013622,-0.037682,-0.1666,0.77824,-0.19389,0.014937
1230,-0.15509,0.010991,-0.024527,-0.15114,0.74371,-0.19817,0.011977
1231,-0.15344,-0.0031506,-0.016963,-0.14785,0.61644,-0.22185,0.0083598
1232,-0.13536,-0.022225,-0.018278,-0.1564,0.43391,-0.24783,0.0037556
1233,-0.10444,-0.035708,-0.021567,-0.17054,0.2481,-0.25737,0.00079584
1234,-0.063991,-0.041628,-0.020252,-0.18304,0.099127,-0.235,-0.0011774
1235,-0.01795,-0.041957,-0.013674,-0.18633,0.0073732,-0.1814,-0.0028217
1236,0.024474,-0.037353,-0.0074258,-0.18271,-0.034722,-0.10806,-0.0051238
1237,0.056046,-0.030775,-0.0015062,-0.17219,-0.047219,-0.032749,-0.0084125
1238,0.070516,-0.020909,0.0037556,-0.15838,-0.045903,0.028421,-0.013017
1239,0.068871,-0.0034794,0.0086887,-0.14654,-0.039326,0.070845,-0.016305
1240,0.053415,0.025132,0.010991,-0.13996,-0.038339,0.091234,-0.017292
1241,0.027105,0.063281,0.010004,-0.14226,-0.059716,0.091563,-0.016963
1242,-0.002164,0.10307,0.0044134,-0.15509,-0.10773,0.077093,-0.016963
1243,-0.023869,0.133,-0.0061104,-0.16857,-0.17745,0.05473,-0.016963
1244,-0.03538,0.14418,-0.017621,-0.17087,-0.2521,0.029078,-0.018278
1245,-0.035708,0.13859,-0.023869,-0.14391,-0.30505,0.0017824,-0.017621
1246,-0.029131,0.12182,-0.025514,-0.080763,-0.32347,-0.026829,-0.015976
1247,-0.018278,0.096825,-0.022554,0.0070443,-0.31064,-0.057085,-0.015648
1248,-0.0080836,0.068871,-0.017621,0.094852,-0.2794,-0.094247,-0.016634
1249,0.0014536,0.046508,-0.010715,0.16161,-0.24487,-0.13667,-0.017621
1250,0.014608,0.038944,0.0037556,0.18069,-0.21165,-0.17613,-0.018936
1251,0.032038,0.054072,0.032367,0.13136,-0.17975,-0.20212,-0.020581
1252,0.052099,0.090905,0.07512,0.017897,-0.14719,-0.20869,-0.020252
1253,0.072489,0.13333,0.12215,-0.1222,-0.11793,-0.20212,-0.019594
1254,0.092879,0.15997,0.15799,-0.23895,-0.10082,-0.19258,-0.016963
1255,0.10801,0.15865,0.17181,-0.29847,-0.10082,-0.186,-0.012688
1256,0.11294,0.13169,0.16786,-0.28598,-0.11727,-0.17877,-0.0074258
1257,0.10768,0.096825,0.15207,-0.20935,-0.14259,-0.16627,-0.0018351
1258,0.095839,0.0692,0.13629,-0.095233,-0.16726,-0.14654,0.0017824
1259,0.085644,0.059005,0.12313,0.020528,-0.18962,-0.1222,0.0037556
1260,0.087946,0.063281,0.1182,0.10834,-0.20475,-0.1051,0.0047422
1261,0.10307,0.074791,0.11754,0.15175,-0.20836,-0.10707,0.0073732
1262,0.12116,0.084328,0.11162,0.15438,-0.2031,-0.12483,0.0096753
1263,0.13333,0.083013,0.095181,0.12971,-0.18765,-0.14555,0.011648
1264,0.13234,0.071502,0.069529,0.098141,-0.15246,-0.15772,0.014279
1265,0.11228,0.053086,0.042891,0.074791,-0.091616,-0.1564,0.016253
1266,0.079395,0.032696,0.020857,0.068543,-0.011701,-0.13601,0.018226
1267,0.044535,0.01691,0.010662,0.079724,0.073804,-0.092603,0.019541
1268,0.016581,0.0096753,0.014937,0.10077,0.14944,-0.030447,0.021186
1269,0.0001381,0.00046697,0.033025,0.12248,0.19943,0.052099,0.024145
1270,-0.0090702,-0.027816,0.054401,0.14221,0.22015,0.16523,0.027105
1271,-0.013674,-0.082736,0.068543,0.15964,0.21555,0.32045,0.032038
1272,-0.01795,-0.15377,0.069858,0.18167,0.20173,0.50692,0.035656
1273,-0.024198,-0.2202,0.062623,0.21719,0.1922,0.67925,0.036971
1274,-0.036037,-0.25901,0.052757,0.27211,0.19121,0.76541,0.035656
1275,-0.056427,-0.2623,0.047495,0.34282,0.18628,0.71411,0.033025
1276,-0.083065,-0.23632,0.045851,0.42142,0.15142,0.53027,0.033025
1277,-0.10773,-0.1906,0.041575,0.49475,0.064925,0.28099,0.035985
1278,-0.12023,-0.13272,0.033683,0.54836,-0.063991,0.051113,0.041904
1279,-0.11694,-0.073528,0.021186,0.57763,-0.19981,-0.085367,0.046508
1280,-0.099838,-0.021896,0.0083598,0.59013,-0.2988,-0.1074,0.050784
1281,-0.081092,0.012964,-0.00051963,0.5967,-0.3307,-0.038011,0.053743
1282,-0.063662,0.026776,-0.002164,0.60854,-0.28335,0.07216,0.053743
1283,-0.050507,0.025461,0.0030979,0.62433,-0.17811,0.17312,0.052099
1284,-0.038668,0.018884,0.0070443,0.62466,-0.058071,0.22739,0.050455
1285,-0.027487,0.013293,0.0054,0.58059,0.038287,0.2139,0.047495
1286,-0.014003,0.011648,-0.0064392,0.47305,0.091563,0.13793,0.043877
1287,0.0034268,0.01691,-0.025185,0.31256,0.097483,0.029078,0.04026
1288,0.02875,0.029736,-0.045246,0.13103,0.067227,-0.072542,0.039602
1289,0.058348,0.047824,-0.062347,-0.035051,0.024474,-0.137,0.042562
1290,0.084657,0.060979,-0.074515,-0.16462,-0.010057,-0.15607,0.047166
1291,0.10242,0.065912,-0.082408,-0.25145,-0.025185,-0.14029,0.053415
1292,0.11031,0.064267,-0.090629,-0.30341,-0.0265,-0.11266,0.056046
1293,0.11228,0.058019,-0.094576,-0.33103,-0.014003,-0.091616,0.054401
1294,0.11294,0.050455,-0.092603,-0.34024,0.026447,-0.074844,0.048482
1295,0.11787,0.047495,-0.08175,-0.33136,0.11064,-0.051823,0.041904
1296,0.12873,0.04881,-0.068924,-0.30242,0.22344,-0.013674,0.035985
1297,0.13859,0.055388,-0.05544,-0.25638,0.31289,0.044864,0.032038
1298,0.14221,0.062952,-0.040313,-0.2008,0.32374,0.12149,0.030065
1299,0.13136,0.071173,-0.021567,-0.14456,0.23758,0.19779,0.030065
1300,0.10932,0.080711,-0.0028217,-0.098522,0.082355,0.25468,0.029736
1301,0.082026,0.088603,0.014937,-0.060045,-0.073857,0.27902,0.02579
1302,0.056703,0.088275,0.029078,-0.028144,-0.16726,0.26817,0.022501
1303,0.0373,0.075449,0.036314,-0.0024928,-0.17909,0.22706,0.018555
1304,0.024474,0.052099,0.035656,0.011648,-0.137,0.16622,0.016581
1305,0.015266,0.028092,0.027105,0.0077021,-0.093918,0.093865,0.015266
1306,0.0073732,0.0080309,0.014279,-0.018936,-0.098193,0.015266,0.014937
1307,-0.002164,-0.0087413,-0.0087413,-0.067609,-0.17416,-0.065964,0.014608
1308,-0.013674,-0.025185,-0.042615,-0.12746,-0.32413,-0.14391,0.013622
1309,-0.020252,-0.039655,-0.079777,-0.1814,-0.5323,-0.20705,0.01132
1310,-0.01499,-0.04689,-0.11168,-0.21955,-0.75527,-0.24289,0.0093464
1311,-0.0034794,-0.041628,-0.12878,-0.24059,-0.93582,-0.24092,0.0077021
1312,0.012635,-0.020252,-0.12812,-0.25276,-1.0256,-0.20606,0.0063866
1313,0.035327,0.013951,-0.11365,-0.26263,-1.0082,-0.15575,0.0044134
1314,0.062623,0.055059,-0.090629,-0.2748,-0.89931,-0.11628,0.002769
1315,0.086959,0.097812,-0.062018,-0.28137,-0.73093,-0.096878,0.00046697
1316,0.10143,0.13662,-0.027816,-0.2521,-0.53559,-0.086025,-0.004466
1317,0.10274,0.16457,0.010004,-0.16298,-0.33465,-0.070897,-0.010386
1318,0.094194,0.17279,0.046508,-0.026171,-0.13634,-0.051494,-0.015319
1319,0.078409,0.15767,0.072489,0.10735,0.06065,-0.024856,-0.018607
1320,0.061965,0.12017,0.082355,0.17871,0.26126,0.010333,-0.019594
1321,0.047495,0.072818,0.079724,0.15438,0.46417,0.06065,-0.018278
1322,0.036971,0.027763,0.062623,0.049797,0.65656,0.12478,-0.016634
1323,0.02875,-0.010057,0.035656,-0.08175,0.8177,0.18989,-0.013674
1324,0.018555,-0.039655,0.0057288,-0.17877,0.92426,0.2412,-0.011372
1325,0.0054,-0.070568,-0.022883,-0.21527,0.9624,0.26751,-0.010386
1326,-0.014332,-0.10247,-0.044917,-0.20014,0.92787,0.26389,-0.011043
1327,-0.034393,-0.12615,-0.056756,-0.1666,0.83415,0.23199,-0.011043
1328,-0.053138,-0.13437,-0.058071,-0.14095,0.7049,0.1751,-0.011372
1329,-0.066951,-0.12187,-0.050836,-0.13503,0.56908,0.10011,-0.013345
1330,-0.072542,-0.097864,-0.039326,-0.14127,0.45365,0.013951,-0.015976
1331,-0.071884,-0.072213,-0.027487,-0.14456,0.37176,-0.076159,-0.019265
1332,-0.066622,-0.055769,-0.022225,-0.1324,0.32111,-0.1689,-0.019594
1333,-0.059058,-0.049521,-0.024527,-0.097207,0.29151,-0.2623,-0.019594
1334,-0.050179,-0.053796,-0.028802,-0.036695,0.27507,-0.35043,-0.015976
1335,-0.042944,-0.060045,-0.032749,0.041575,0.26619,-0.42377,-0.010715
1336,-0.042615,-0.063991,-0.037024,0.12379,0.25698,-0.48198,-0.0057815
1337,-0.050507,-0.065635,-0.04689,0.19812,0.24218,-0.52901,-0.0031506
1338,-0.061031,-0.066293,-0.059716,0.25435,0.22179,-0.57374,-0.0008485
1339,-0.071555,-0.066293,-0.076159,0.28855,0.19384,-0.61156,0.00046697
1340,-0.07879,-0.06432,-0.089972,0.29678,0.15175,-0.6303,0.002769
1341,-0.077146,-0.057743,-0.094247,0.28329,0.092221,-0.62175,0.0063866
1342,-0.064978,-0.051494,-0.087669,0.2458,0.0060577,-0.58689,0.010991
1343,-0.044259,-0.052152,-0.079119,0.1843,-0.10707,-0.53723,0.014937
1344,-0.021896,-0.06432,-0.07583,0.10044,-0.23336,-0.48363,0.017239
1345,-0.0024928,-0.083394,-0.079777,0.0083598,-0.35767,-0.43726,0.017897
1346,0.013293,-0.1051,-0.088656,-0.071884,-0.456,-0.39516,0.017568
1347,0.02283,-0.12154,-0.091287,-0.12056,-0.50994,-0.34451,0.017897
1348,0.033354,-0.12812,-0.074844,-0.1324,-0.50336,-0.2692,0.018226
1349,0.05177,-0.12121,-0.039984,-0.11661,-0.43002,-0.15838,0.018555
1350,0.07808,-0.099509,0.0011247,-0.083723,-0.29979,-0.0093991,0.021186
1351,0.11064,-0.074515,0.03434,-0.044588,-0.13404,0.17049,0.024474
1352,0.14024,-0.053138,0.054401,-0.0064392,0.04026,0.3517,0.027763
1353,0.15964,-0.040313,0.064267,0.029078,0.20272,0.49015,0.030065
1354,0.16293,-0.037353,0.06361,0.06065,0.32637,0.55099,0.031052
1355,0.14747,-0.041299,0.056046,0.088275,0.39708,0.53553,0.032696
1356,0.11623,-0.042615,0.047166,0.10801,0.42569,0.48226,0.035985
1357,0.078409,-0.03242,0.044864,0.098141,0.43852,0.44148,0.040589
1358,0.040589,-0.0047949,0.051441,0.025132,0.4451,0.45398,0.04618
1359,0.010333,0.038944,0.063938,-0.14456,0.42799,0.52369,0.051113
1360,-0.0084125,0.090577,0.081368,-0.40174,0.36913,0.60197,0.053743
1361,-0.015648,0.14254,0.098798,-0.68259,0.26192,0.62203,0.052428
1362,-0.015319,0.18957,0.10801,-0.90425,0.1307,0.54737,0.051113
1363,-0.013017,0.2264,0.11426,-1.0019,0.021514,0.4007,0.048153
1364,-0.013017,0.24942,0.12215,-0.96311,-0.014661,0.23857,0.047495
1365,-0.020581,0.25633,0.14122,-0.80888,0.034011,0.12905,0.047824
1366,-0.03538,0.25074,0.17542,-0.57702,0.13728,0.12412,0.048482
1367,-0.050507,0.23725,0.21719,-0.30472,0.23988,0.23791,0.049139
1368,-0.060702,0.21522,0.25271,-0.007097,0.29842,0.44707,0.049468
1369,-0.06432,0.18299,0.26849,0.30993,0.28855,0.71115,0.050126
1370,-0.057743,0.14484,0.26455,0.63025,0.21653,0.97227,0.050784
1371,-0.039326,0.11228,0.24712,0.91176,0.10669,1.1597,0.050126
1372,-0.010715,0.093865,0.22147,1.1143,-0.0090702,1.2229,0.048482
1373,0.022501,0.088603,0.19285,1.2245,-0.1051,1.1554,0.045851
1374,0.053415,0.093536,0.15898,1.26,-0.16989,0.99069,0.042891
1375,0.074791,0.10373,0.12116,1.2396,-0.20475,0.7664,0.04026
1376,0.07808,0.11426,0.08367,1.1804,-0.21231,0.51712,0.036642
1377,0.062623,0.12609,0.054401,1.0966,-0.19356,0.26948,0.034998
1378,0.033683,0.13991,0.039931,0.992,-0.1564,0.042562,0.032696
1379,0.0047422,0.15536,0.039602,0.86374,-0.11069,-0.14785,0.030394
1380,-0.013017,0.16753,0.04618,0.71575,-0.069253,-0.29453,0.028421
1381,-0.022554,0.17016,0.053086,0.55362,-0.046561,-0.39812,0.024803
1382,-0.030775,0.15339,0.054401,0.39511,-0.038339,-0.47146,0.021843
1383,-0.050179,0.11426,0.050455,0.2583,-0.037353,-0.5323,0.01987
1384,-0.079448,0.059663,0.038616,0.1524,-0.031433,-0.59051,0.018884
1385,-0.11529,0.0086887,0.019212,0.079724,-0.01203,-0.64082,0.018226
1386,-0.14489,-0.027158,-0.0031506,0.040918,0.025132,-0.66516,0.019541
1387,-0.15344,-0.044917,-0.024856,0.02875,0.072489,-0.64411,0.01987
1388,-0.13832,-0.047219,-0.044588,0.030065,0.12215,-0.56223,0.020528
1389,-0.10181,-0.040313,-0.058729,0.022501,0.16622,-0.42673,0.019212
1390,-0.052481,-0.030118,-0.07024,-0.021896,0.19812,-0.25967,0.015924
1391,-0.0038083,-0.025514,-0.079448,-0.12812,0.20601,-0.088656,0.010662
1392,0.032696,-0.023869,-0.082736,-0.29814,0.18463,0.057361,0.0037556
1393,0.058019,-0.019265,-0.076817,-0.50599,0.13826,0.15438,-0.0011774
1394,0.07216,-0.0077547,-0.062676,-0.71219,0.073804,0.18595,-0.0064392
1395,0.076435,0.0083598,-0.04393,-0.87103,-0.0061104,0.15339,-0.010057
1396,0.074462,0.025132,-0.0265,-0.95193,-0.099838,0.074791,-0.013674
1397,0.068214,0.036314,-0.012359,-0.94503,-0.20508,-0.02354,-0.015976
1398,0.061307,0.042891,-0.0041372,-0.86149,-0.31393,-0.11398,-0.017621
1399,0.05473,0.04618,-0.0084125,-0.7283,-0.41062,-0.17811,-0.016634
1400,0.055717,0.047166,-0.02354,-0.58097,-0.48067,-0.20442,-0.01499
1401,0.071502,0.04618,-0.045574,-0.45074,-0.51816,-0.19389,-0.013345
1402,0.096825,0.043877,-0.063991,-0.35734,-0.52737,-0.16232,-0.013345
1403,0.1182,0.039931,-0.07287,-0.29486,-0.51585,-0.12516,-0.014332
1404,0.12807,0.037629,-0.073199,-0.24125,-0.49415,-0.094905,-0.015319
1405,0.1182,0.035656,-0.06728,-0.16265,-0.46061,-0.079777,-0.015648
1406,0.09255,0.032367,-0.057743,-0.019923,-0.39154,-0.080763,-0.01499
1407,0.054072,0.025461,-0.048863,0.20173,-0.26296,-0.097207,-0.014332
1408,0.014279,0.010333,-0.041628,0.47502,-0.085696,-0.12944,-0.014332
1409,-0.016305,-0.015319,-0.039326,0.73845,0.092221,-0.18008,-0.015976
1410,-0.025514,-0.049521,-0.042944,0.92754,0.20831,-0.23862,-0.016963
1411,-0.011372,-0.083723,-0.052481,0.99463,0.22936,-0.29354,-0.020909
1412,0.01691,-0.11036,-0.064978,0.93873,0.1649,-0.33629,-0.019923
1413,0.04026,-0.12582,-0.077803,0.79238,0.045193,-0.3603,-0.018278
1414,0.037629,-0.12746,-0.086025,0.5944,-0.087341,-0.36655,-0.014661
1415,0.0077021,-0.11628,-0.085367,0.37274,-0.19817,-0.36359,-0.010057
1416,-0.035708,-0.091945,-0.075501,0.14024,-0.27611,-0.35931,-0.0051238
1417,-0.069911,-0.059716,-0.06136,-0.087341,-0.32643,-0.36162,-0.00051963
1418,-0.078132,-0.03242,-0.048205,-0.28302,-0.3557,-0.36918,0.0017824
1419,-0.063333,-0.018936,-0.035051,-0.42114,-0.36425,-0.3751,0.0040845
1420,-0.036695,-0.023869,-0.022883,-0.48231,-0.3432,-0.37411,0.0054
1421,-0.015319,-0.041957,-0.012359,-0.46291,-0.27611,-0.36392,0.0083598
1422,-0.010057,-0.065964,0.00079584,-0.37806,-0.14752,-0.34484,0.011648
1423,-0.020909,-0.085367,0.011648,-0.25737,0.017568,-0.31755,0.013951
1424,-0.037024,-0.092603,0.021514,-0.13404,0.15931,-0.28598,0.015266
1425,-0.04985,-0.088327,0.02579,-0.038668,0.21061,-0.25243,0.015924
1426,-0.055769,-0.082079,0.020199,0.014608,0.12478,-0.21494,0.017239
1427,-0.052152,-0.081421,0.0001381,0.032367,-0.086354,-0.17581,0.016581
1428,-0.043272,-0.094576,-0.027816,0.030723,-0.35603,-0.14127,0.016253
1429,-0.037682,-0.1245,-0.057085,0.024474,-0.59643,-0.12582,0.017897
1430,-0.040641,-0.16726,-0.080106,0.021186,-0.73488,-0.1324,0.021186
1431,-0.053467,-0.21231,-0.092274,0.025461,-0.73916,-0.14983,0.026447
1432,-0.06432,-0.24487,-0.094905,0.033683,-0.62076,-0.15739,0.032696
1433,-0.064978,-0.25145,-0.0903,0.039931,-0.42048,-0.15048,0.036642
1434,-0.057743,-0.23007,-0.078461,0.032696,-0.19389,-0.13536,0.037958
1435,-0.050836,-0.18995,-0.063662,0.0093464,0.0093464,-0.12319,0.036314
1436,-0.049521,-0.14193,-0.04985,-0.026829,0.1603,-0.11464,0.036971
1437,-0.048205,-0.092931,-0.039984,-0.066622,0.25435,-0.10148,0.04026
1438,-0.035051,-0.041628,-0.028473,-0.10082,0.31914,-0.065964,0.045851
1439,-0.0074258,0.017897,-0.011701,-0.12056,0.39807,-0.0015062,0.051113
1440,0.028092,0.087617,0.0096753,-0.12089,0.50692,0.083999,0.054072
1441,0.05769,0.16391,0.031052,-0.10017,0.62466,0.17641,0.054072
1442,0.070845,0.23626,0.04881,-0.068266,0.71312,0.25863,0.05177
1443,0.064596,0.29645,0.058019,-0.035051,0.74239,0.32045,0.04881
1444,0.044535,0.33065,0.062623,-0.0074258,0.70391,0.36485,0.04618
1445,0.018226,0.33164,0.065912,0.0067154,0.6069,0.39017,0.045193
1446,-0.0080836,0.30039,0.068214,0.011648,0.47732,0.39412,0.044206
1447,-0.024856,0.24251,0.067556,0.011648,0.34348,0.36946,0.042562
1448,-0.027158,0.17345,0.064267,0.0063866,0.23232,0.31815,0.041904
1449,-0.010715,0.10505,0.050455,-0.0041372,0.16457,0.25468,0.042562
1450,0.022501,0.049797,0.025461,-0.016305,0.15207,0.20009,0.044864
1451,0.064925,0.017239,-0.0024928,-0.024856,0.18989,0.16687,0.049139
1452,0.10603,0.002769,-0.027158,-0.021896,0.25304,0.15306,0.05177
1453,0.13596,-0.0015062,-0.04097,-0.007097,0.30862,0.15372,0.052099
1454,0.14912,-0.0011774,-0.04689,0.011977,0.33723,0.15865,0.049797
1455,0.14616,0.0047422,-0.04985,0.025461,0.33854,0.15931,0.045851
1456,0.13136,0.012964,-0.054454,0.026119,0.32736,0.15964,0.04026
1457,0.10932,0.019541,-0.062676,0.0083598,0.31059,0.16983,0.035656
1458,0.082355,0.01987,-0.070568,-0.030118,0.28428,0.19614,0.033025
1459,0.047495,0.0090175,-0.076159,-0.088327,0.25041,0.23791,0.032367
1460,0.0034268,-0.0064392,-0.080434,-0.15673,0.21686,0.28428,0.031709
1461,-0.048534,-0.016963,-0.080763,-0.22185,0.18858,0.31914,0.029407
1462,-0.099838,-0.011701,-0.068595,-0.26822,0.15569,0.32539,0.025132
1463,-0.14555,0.012964,-0.038668,-0.29255,0.11623,0.305,0.021186
1464,-0.17712,0.04881,0.0063866,-0.28861,0.086959,0.2708,0.017239
1465,-0.18633,0.093536,0.061965,-0.25375,0.087288,0.24153,0.014608
1466,-0.16594,0.1432,0.12182,-0.19422,0.11689,0.22574,0.014608
1467,-0.11562,0.19713,0.182,-0.13437,0.14352,0.21916,0.01691
1468,-0.048534,0.24975,0.23495,-0.1028,0.11491,0.21028,0.016253
1469,0.013293,0.2902,0.26981,-0.1176,-0.0077547,0.17871,0.013622
1470,0.050126,0.30862,0.27704,-0.17745,-0.2304,0.11787,0.0086887
1471,0.062294,0.305,0.25468,-0.25901,-0.50961,0.035656,0.0044134
1472,0.056046,0.28329,0.21259,-0.32544,-0.77007,-0.047219,0.00079584
1473,0.042562,0.24909,0.16227,-0.3455,-0.93417,-0.11497,-0.0008485
1474,0.027763,0.20996,0.11787,-0.30275,-0.95917,-0.15838,-0.002164
1475,0.015924,0.1672,0.087617,-0.19587,-0.85426,-0.17054,-0.0024928
1476,0.0093464,0.12215,0.075778,-0.030775,-0.66253,-0.15673,-0.0041372
1477,0.0057288,0.077093,0.077422,0.17279,-0.44054,-0.12812,-0.0067681
1478,0.0054,0.039273,0.08367,0.3905,-0.24026,-0.098193,-0.011043
1479,0.0057288,0.0060577,0.083999,0.59966,-0.097207,-0.076159,-0.015648
1480,0.00046697,-0.024527,0.071173,0.78547,-0.019923,-0.07024,-0.019594
1481,-0.0084125,-0.059716,0.044864,0.9407,0.0057288,-0.081421,-0.021238
1482,-0.018278,-0.096878,0.010004,1.0611,-0.0034794,-0.10806,-0.021567
1483,-0.022883,-0.13042,-0.020252,1.1305,-0.037682,-0.13733,-0.021238
1484,-0.017292,-0.14917,-0.041299,1.1278,-0.089314,-0.15969,-0.020252
1485,0.0054,-0.14687,-0.051165,1.0394,-0.14752,-0.16693,-0.01795
1486,0.041247,-0.12746,-0.051494,0.86901,-0.19883,-0.15377,-0.015319
1487,0.083342,-0.098193,-0.040641,0.64439,-0.22645,-0.12056,-0.012688
1488,0.12313,-0.069582,-0.023869,0.40662,-0.22316,-0.074844,-0.010715
1489,0.15339,-0.059716,-0.0093991,0.19187,-0.19093,-0.027158,-0.010386
1490,0.17016,-0.072213,-0.0064392,0.017239,-0.13963,0.011648,-0.013674
1491,0.17148,-0.096878,-0.016963,-0.1074,-0.07583,0.0373,-0.017292
1492,0.15964,-0.12089,-0.030447,-0.18173,-0.00019077,0.052428,-0.019923
1493,0.13695,-0.13634,-0.041628,-0.21099,0.093865,0.067885,-0.018607
1494,0.11097,-0.1393,-0.044917,-0.20935,0.20765,0.10472,-0.014332
1495,0.088932,-0.12911,-0.038668,-0.19126,0.33723,0.16885,-0.0077547
1496,0.079724,-0.11036,-0.027487,-0.1735,0.46483,0.24482,-0.0038083
1497,0.079395,-0.087669,-0.015976,-0.16824,0.56711,0.3027,-0.0024928
1498,0.080382,-0.069253,-0.011372,-0.18567,0.61841,0.32506,-0.002164
1499,0.077751,-0.057743,-0.019265,-0.21987,0.59506,0.3096,-0.0031506
1500,0.068214,-0.050836,-0.043272,-0.25638,0.50199,0.26718,-0.0008485
1501,0.057032,-0.04689,-0.078461,-0.28302,0.36748,0.22179,0.0040845
1502,0.042891,-0.04393,-0.11793,-0.29058,0.22278,0.19384,0.0096753
1503,0.029078,-0.042944,-0.14818,-0.27216,0.088275,0.18463,0.014608
1504,0.018555,-0.043601,-0.16101,-0.22974,-0.022225,0.18463,0.017568
1505,0.01132,-0.044917,-0.15344,-0.17022,-0.10214,0.18036,0.019212
1506,0.0070443,-0.048205,-0.13141,-0.10543,-0.14818,0.16391,0.018555
1507,0.0060577,-0.060045,-0.10707,-0.050179,-0.16331,0.13596,0.018884
1508,0.011648,-0.080106,-0.087012,-0.031762,-0.15443,0.10965,0.019212
1509,0.01987,-0.10444,-0.074186,-0.079119,-0.12746,0.092879,0.020528
1510,0.028092,-0.11957,-0.068924,-0.20047,-0.086025,0.084657,0.02283
1511,0.037958,-0.11464,-0.068595,-0.36918,-0.031762,0.073804,0.025461
1512,0.051441,-0.089314,-0.069911,-0.5369,0.037629,0.044535,0.026776
1513,0.065254,-0.045903,-0.072213,-0.65398,0.1205,-0.016305,0.027105
1514,0.071831,0.0093464,-0.074186,-0.68358,0.20535,-0.10641,0.027763
1515,0.065583,0.066898,-0.069582,-0.61715,0.28527,-0.20047,0.029078
1516,0.043549,0.11261,-0.060045,-0.47573,0.34479,-0.26855,0.033025
1517,0.013951,0.13662,-0.044588,-0.30834,0.37176,-0.28828,0.038616
1518,-0.0077547,0.14024,-0.024527,-0.1643,0.36584,-0.25441,0.044206
1519,-0.016305,0.1307,-0.0015062,-0.072542,0.33558,-0.17679,0.04881
1520,-0.011372,0.11261,0.024145,-0.025514,0.29119,-0.070568,0.050126
1521,-0.00019077,0.092879,0.052428,0.002769,0.24218,0.044864,0.049797
1522,0.01132,0.075449,0.081039,0.039273,0.1922,0.15734,0.048153
1523,0.020857,0.065254,0.10702,0.097483,0.14385,0.26751,0.046837
1524,0.027763,0.06361,0.12905,0.18134,0.10439,0.38491,0.046508
1525,0.031052,0.069858,0.14385,0.28165,0.086959,0.51054,0.046837
1526,0.031709,0.080711,0.15339,0.37768,0.095839,0.61874,0.045851
1527,0.028092,0.088275,0.1626,0.4451,0.13004,0.65952,0.043549
1528,0.021514,0.085644,0.17312,0.47173,0.18496,0.59769,0.042233
1529,0.013293,0.072489,0.18529,0.45562,0.23495,0.44246,0.041247
1530,0.0057288,0.05177,0.1968,0.403,0.24317,0.23692,0.042233
1531,-0.0061104,0.027105,0.20568,0.32835,0.17477,0.035327,0.045193
1532,-0.022883,-0.0041372,0.2116,0.24712,0.025132,-0.12845,0.04618
1533,-0.041957,-0.033406,0.21752,0.17148,-0.18008,-0.24125,0.045522
1534,-0.057414,-0.047548,0.21949,0.10965,-0.39187,-0.30406,0.042562
1535,-0.065635,-0.041299,0.21555,0.070516,-0.56453,-0.32807,0.039602
1536,-0.064978,-0.017621,0.20338,0.058019,-0.66713,-0.32873,0.0373
1537,-0.054783,0.011648,0.18102,0.065583,-0.69147,-0.31821,0.035656
1538,-0.039326,0.031052,0.15405,0.084657,-0.64411,-0.29749,0.035327
1539,-0.026171,0.035985,0.12938,0.1057,-0.54743,-0.27315,0.034669
1540,-0.016963,0.030065,0.10669,0.12379,-0.44416,-0.25177,0.031052
1541,-0.0097279,0.024145,0.084657,0.13234,-0.3751,-0.24158,0.027434
1542,-0.0067681,0.02875,0.063938,0.13103,-0.36984,-0.24388,0.023159
1543,-0.002164,0.045522,0.050455,0.12478,-0.42213,-0.25342,0.018884
1544,0.002769,0.070516,0.04881,0.11721,-0.49086,-0.26427,0.015595
1545,0.0054,0.10044,0.059334,0.11491,-0.52309,-0.27611,0.012964
1546,0.0024402,0.1284,0.080711,0.11754,-0.47705,-0.27907,0.013293
1547,-0.0011774,0.14583,0.10472,0.11491,-0.3478,-0.26559,0.014608
1548,-0.0064392,0.14912,0.12642,0.084657,-0.16101,-0.22974,0.01691
1549,-0.012359,0.14089,0.13333,0.015924,0.034998,-0.17581,0.017897
1550,-0.018936,0.11952,0.12182,-0.084381,0.19647,-0.11529,0.016253
1551,-0.027487,0.088932,0.086301,-0.17548,0.30039,-0.066293,0.011977
1552,-0.036695,0.055059,0.034011,-0.20869,0.35203,-0.039655,0.0060577
1553,-0.042286,0.027105,-0.016305,-0.15673,0.36814,-0.038011,0.0001381
1554,-0.042615,0.010004,-0.047877,-0.039326,0.3665,-0.053467,-0.004466
1555,-0.040641,0.0063866,-0.055112,0.093865,0.35696,-0.075173,-0.0074258
1556,-0.04097,0.011977,-0.04689,0.18858,0.34183,-0.094247,-0.010386
1557,-0.041957,0.024803,-0.034064,0.21719,0.32177,-0.10707,-0.013674
1558,-0.039326,0.042562,-0.027487,0.182,0.30204,-0.11069,-0.01795
1559,-0.032749,0.055059,-0.031762,0.10735,0.2902,-0.10641,-0.019594
1560,-0.025185,0.050126,-0.044588,0.024474,0.28987,-0.10017,-0.019923
1561,-0.019594,0.024145,-0.063333,-0.046232,0.29349,-0.10247,-0.019265
1562,-0.017621,-0.016634,-0.088985,-0.097207,0.28329,-0.11595,-0.01795
1563,-0.017621,-0.057414,-0.11694,-0.13207,0.25435,-0.13766,-0.016634
1564,-0.018936,-0.087341,-0.13766,-0.15542,0.22179,-0.15575,-0.015976
1565,-0.022883,-0.10181,-0.14785,-0.16791,0.21752,-0.17054,-0.014332
1566,-0.026171,-0.099509,-0.14522,-0.17054,0.26948,-0.18173,-0.011701
1567,-0.025185,-0.084052,-0.1324,-0.16397,0.37242,-0.19389,-0.0084125
1568,-0.017292,-0.059716,-0.11168,-0.14588,0.48916,-0.20343,-0.0067681
1569,-0.0038083,-0.031433,-0.082736,-0.12089,0.57533,-0.20376,-0.0080836
1570,0.010004,-0.0024928,-0.051494,-0.097536,0.59605,-0.19028,-0.011372
1571,0.020857,0.025132,-0.025514,-0.082736,0.53586,-0.16002,-0.01499
1572,0.023817,0.049797,-0.0084125,-0.07024,0.40958,-0.1199,-0.018278
1573,0.017568,0.06624,-0.0047949,-0.048205,0.25271,-0.083065,-0.018607
1574,0.0030979,0.066569,-0.01499,-0.010386,0.099785,-0.071884,-0.016305
1575,-0.01795,0.05473,-0.036037,0.035327,-0.030118,-0.097536,-0.011701
1576,-0.04689,0.034669,-0.062018,0.067885,-0.13963,-0.15311,-0.007097
1577,-0.079777,0.0093464,-0.087998,0.066569,-0.23533,-0.21099,-0.0034794
1578,-0.10937,-0.015976,-0.11201,0.024803,-0.3067,-0.23632,0.00079584
1579,-0.12615,-0.038997,-0.13207,-0.050836,-0.34024,-0.19948,0.0047422
1580,-0.1245,-0.060373,-0.14325,-0.14062,-0.3432,-0.091287,0.0093464
1581,-0.10477,-0.07879,-0.14818,-0.22251,-0.33728,0.073476,0.011977
1582,-0.068924,-0.085039,-0.14719,-0.27447,-0.33695,0.26027,0.015266
1583,-0.019594,-0.077475,-0.14029,-0.27841,-0.33794,0.42997,0.016581
1584,0.034669,-0.059058,-0.1268,-0.22053,-0.32511,0.55264,0.016581
1585,0.083342,-0.035051,-0.10641,-0.1097,-0.28499,0.62038,0.016253
1586,0.11195,-0.015648,-0.083065,0.03434,-0.21626,0.63485,0.015266
1587,0.11491,-0.010057,-0.060702,0.18562,-0.13568,0.6046,0.013951
1588,0.091563,-0.020909,-0.039655,0.31454,-0.068595,0.54869,0.012964
1589,0.050455,-0.041628,-0.018936,0.39905,-0.029131,0.49114,0.014279
1590,0.0073732,-0.057414,-0.0028217,0.43161,-0.017621,0.45299,0.019212
1591,-0.020581,-0.058729,0.0067154,0.41122,-0.021238,0.45332,0.024145
1592,-0.030447,-0.04689,0.0086887,0.34611,-0.021896,0.50626,0.029407
1593,-0.026829,-0.025185,0.0001381,0.24646,-0.0077547,0.60788,0.033354
1594,-0.011701,-0.00019077,-0.01795,0.13366,0.027105,0.73549,0.036314
1595,0.0054,0.024474,-0.040313,0.03434,0.076106,0.84204,0.037629
1596,0.020199,0.04026,-0.062347,-0.028144,0.12313,0.87953,0.038616
1597,0.032038,0.039273,-0.077146,-0.046232,0.15767,0.82855,0.040589
1598,0.040589,0.02579,-0.078461,-0.031104,0.17181,0.70819,0.043877
1599,0.04322,0.0080309,-0.065307,-0.0093991,0.15832,0.56678,0.047166
1600,0.036314,-0.0018351,-0.039984,-0.0077547,0.10603,0.44674,0.049139
1601,0.017239,0.002769,-0.0087413,-0.029789,0.0037556,0.36781,0.050455
1602,-0.0080836,0.020199,0.023159,-0.062018,-0.13864,0.32572,0.049468
1603,-0.028144,0.045193,0.046837,-0.092603,-0.30045,0.3073,0.049797
1604,-0.029789,0.075449,0.055717,-0.11793,-0.46521,0.29415,0.049139
1605,-0.0087413,0.11393,0.048482,-0.13503,-0.61813,0.26126,0.049468
1606,0.028092,0.16293,0.032038,-0.1416,-0.75067,0.18759,0.048153
1607,0.070187,0.21522,0.013293,-0.13634,-0.85229,0.070845,0.046508
1608,0.10472,0.25698,-0.0034794,-0.12976,-0.90523,-0.068595,0.045193
1609,0.11656,0.27376,-0.016634,-0.12878,-0.88715,-0.20343,0.044206
1610,0.10176,0.26389,-0.024527,-0.13766,-0.78717,-0.31492,0.044535
1611,0.070187,0.23791,-0.026829,-0.15509,-0.61978,-0.39648,0.04618
1612,0.038944,0.20305,-0.027158,-0.17581,-0.41358,-0.4514,0.047495
1613,0.021186,0.15602,-0.024856,-0.18699,-0.19685,-0.48428,0.047166
1614,0.019212,0.092879,-0.015976,-0.17153,0.011977,-0.50994,0.045193
1615,0.030394,0.022501,0.00046697,-0.11464,0.20272,-0.53657,0.04026
1616,0.049468,-0.040313,0.020857,-0.0041372,0.37505,-0.56223,0.036971
1617,0.068543,-0.081421,0.036314,0.16589,0.53422,-0.57735,0.03434
1618,0.081039,-0.096549,0.047495,0.38162,0.67826,-0.58064,0.033025
1619,0.085972,-0.088327,0.053415,0.60821,0.8006,-0.5711,0.032038
1620,0.082026,-0.065307,0.059334,0.79994,0.88972,-0.55269,0.029078
1621,0.069858,-0.034064,0.066898,0.9134,0.9407,-0.52967,0.02579
1622,0.049139,-0.0047949,0.07808,0.93445,0.93873,-0.50796,0.021514
1623,0.027105,0.01132,0.08663,0.88249,0.87164,-0.49579,0.016581
1624,0.0070443,0.013951,0.082684,0.78383,0.73812,-0.50138,0.013293
1625,-0.0064392,0.0057288,0.057032,0.66149,0.55494,-0.52835,0.012306
1626,-0.0084125,-0.0061104,0.018226,0.52896,0.35301,-0.56782,0.014279
1627,-0.0011774,-0.020581,-0.021896,0.40103,0.17049,-0.59972,0.017239
1628,0.0070443,-0.031104,-0.048534,0.2902,0.027434,-0.60432,0.01987
1629,0.0093464,-0.034064,-0.055769,0.19647,-0.071555,-0.57604,0.020199
1630,0.0021113,-0.030775,-0.046561,0.10998,-0.13634,-0.52539,0.016581
1631,-0.014661,-0.019923,-0.028144,0.024474,-0.17646,-0.47146,0.012306
1632,-0.034722,-0.00019077,-0.0087413,-0.060373,-0.1985,-0.43002,0.0070443
1633,-0.054125,0.021186,0.010991,-0.13766,-0.21099,-0.40733,0.0021113
1634,-0.065635,0.039602,0.032038,-0.1985,-0.22546,-0.39713,-0.0015062
1635,-0.066951,0.049468,0.056374,-0.23566,-0.24947,-0.38825,-0.004466
1636,-0.061031,0.048153,0.080053,-0.24257,-0.28466,-0.3797,-0.0090702
1637,-0.052481,0.039602,0.097812,-0.22218,-0.32478,-0.3728,-0.014332
1638,-0.045574,0.023488,0.10176,-0.18107,-0.36063,-0.36556,-0.018278
1639,-0.042286,0.0044134,0.089919,-0.13108,-0.38233,-0.34649,-0.019923
1640,-0.040641,-0.012359,0.068543,-0.085367,-0.38233,-0.30702,-0.018936
1641,-0.030447,-0.018607,0.046837,-0.056756,-0.36227,-0.24914,-0.01795
1642,-0.014003,-0.01499,0.032696,-0.067609,-0.33333,-0.17515,-0.015648
1643,0.0011247,-0.0034794,0.035327,-0.14456,-0.30735,-0.080106,-0.014661
1644,0.013951,0.013293,0.056046,-0.30176,-0.28269,0.036314,-0.014661
1645,0.027763,0.031052,0.087617,-0.52046,-0.25572,0.17214,-0.015319
1646,0.038616,0.049797,0.12182,-0.74804,-0.22579,0.32868,-0.015319
1647,0.044535,0.067227,0.14385,-0.91707,-0.19883,0.51021,-0.013674
1648,0.044864,0.079395,0.1455,-0.96936,-0.17646,0.70161,-0.012359
1649,0.042562,0.083342,0.12905,-0.8878,-0.15607,0.85848,-0.012359
1650,0.038287,0.074791,0.10242,-0.70923,-0.12352,0.93116,-0.01499
1651,0.032038,0.058676,0.074133,-0.49777,-0.071555,0.90091,-0.018607
1652,0.024803,0.037629,0.052099,-0.32347,-0.0011774,0.78416,-0.019923
1653,0.016253,0.013293,0.036971,-0.2202,0.081039,0.62367,-0.018936
1654,0.0063866,-0.012359,0.023817,-0.18896,0.16161,0.46285,-0.015319
1655,-0.0028217,-0.043272,0.016253,-0.20836,0.2241,0.33493,-0.01203
1656,-0.012688,-0.077475,0.013951,-0.24585,0.26849,0.25205,-0.0087413
1657,-0.025514,-0.10937,0.013951,-0.27414,0.29908,0.20864,-0.0064392
1658,-0.034393,-0.12812,0.01691,-0.28927,0.32276,0.19154,-0.0051238
1659,-0.039655,-0.12713,0.024803,-0.29946,0.33953,0.18529,-0.0031506
1660,-0.039326,-0.10674,0.031709,-0.31722,0.34676,0.18069,-0.00051963
1661,-0.035051,-0.075173,0.033354,-0.3478,0.32769,0.17542,0.0030979
1662,-0.025842,-0.042615,0.030394,-0.3751,0.25468,0.17246,0.0077021
1663,-0.011372,-0.01795,0.02283,-0.38003,0.10834,0.1774,0.012635
1664,0.0080309,-0.0067681,0.015924,-0.35175,-0.10905,0.18595,0.017239
1665,0.027105,-0.0064392,0.010333,-0.29946,-0.35899,0.18759,0.020199
1666,0.038287,-0.01203,0.0073732,-0.24191,-0.57834,0.17378,0.020528
1667,0.039931,-0.021238,0.0073732,-0.19455,-0.70068,0.14352,0.019541
1668,0.034011,-0.029131,0.0080309,-0.15706,-0.67568,0.097154,0.018555
1669,0.022172,-0.037024,0.0080309,-0.10247,-0.48461,0.041904,0.019541
1670,0.0086887,-0.044259,0.0096753,0.0073732,-0.15838,-0.007097,0.022172
1671,0.0001381,-0.048205,0.013951,0.19187,0.24087,-0.031433,0.026776
1672,0.0014536,-0.053138,0.020528,0.42536,0.64538,-0.017292,0.030723
1673,0.01132,-0.055112,0.029407,0.64669,0.99069,0.033683,0.032696
1674,0.024803,-0.053138,0.038287,0.79106,1.2301,0.11195,0.032696
1675,0.036971,-0.041628,0.044535,0.8302,1.3432,0.19581,0.032038
1676,0.048153,-0.018278,0.048153,0.77627,1.3689,0.24909,0.033354
1677,0.056046,0.013951,0.047824,0.67267,1.4021,0.24284,0.037958
1678,0.059663,0.050455,0.044864,0.56053,1.5067,0.17115,0.044206
1679,0.058019,0.083342,0.041575,0.46483,1.6425,0.053086,0.049468
1680,0.055717,0.10143,0.0373,0.39281,1.6961,-0.076817,0.052099
1681,0.053743,0.099127,0.027105,0.33756,1.555,-0.18732,0.052757
1682,0.050784,0.082684,0.010333,0.29053,1.1821,-0.2623,0.051441
1683,0.050126,0.065254,-0.0097279,0.25008,0.63288,-0.29255,0.051441
1684,0.046837,0.055388,-0.022883,0.21686,0.04026,-0.27973,0.050784
1685,0.042233,0.05177,-0.027816,0.19253,-0.45633,-0.23007,0.050784
1686,0.034669,0.048153,-0.028144,0.18233,-0.77533,-0.16232,0.049797
1687,0.023817,0.039931,-0.028473,0.18102,-0.89833,-0.098193,0.04881
1688,0.01691,0.02875,-0.031762,0.182,-0.8707,-0.054783,0.047166
1689,0.017568,0.014608,-0.037024,0.18167,-0.77073,-0.040641,0.046508
1690,0.025461,-0.00019077,-0.042944,0.17674,-0.67766,-0.056756,0.046508
1691,0.035656,-0.0074258,-0.048534,0.16523,-0.63556,-0.098851,0.047495
1692,0.047166,-0.002164,-0.048534,0.14879,-0.64806,-0.15443,0.047166
1693,0.051113,0.013951,-0.042615,0.12905,-0.69739,-0.21527,0.045851
1694,0.047824,0.033683,-0.034064,0.1113,-0.75165,-0.27052,0.04322
1695,0.044206,0.051113,-0.023869,0.10274,-0.79046,-0.31525,0.041904
1696,0.044864,0.062294,-0.014003,0.099127,-0.80493,-0.34649,0.039602
1697,0.046508,0.066898,-0.0061104,0.097154,-0.79967,-0.35767,0.037629
1698,0.045851,0.066569,0.00046697,0.099127,-0.78355,-0.35043,0.035656
1699,0.041575,0.065912,0.0080309,0.098141,-0.76119,-0.32544,0.032696
1700,0.038944,0.062952,0.015266,0.094523,-0.72896,-0.28335,0.029407
1701,0.042562,0.059334,0.02283,0.085972,-0.68424,-0.22053,0.025132
1702,0.053086,0.056046,0.028092,0.07216,-0.6303,-0.14127,0.021843
1703,0.06624,0.055388,0.024803,0.052757,-0.57143,-0.055769,0.019212
1704,0.077422,0.052428,0.011977,0.027434,-0.50928,0.022501,0.017568
1705,0.082684,0.048482,-0.007097,0.0034268,-0.44646,0.079724,0.016581
1706,0.082684,0.045193,-0.022225,-0.014661,-0.37674,0.11458,0.015595
1707,0.079724,0.04618,-0.028473,-0.032749,-0.29354,0.13497,0.013951
1708,0.076764,0.050455,-0.02946,-0.053796,-0.19817,0.14681,0.014279
1709,0.072489,0.050784,-0.029789,-0.076159,-0.10543,0.15339,0.012964
1710,0.06361,0.044535,-0.032091,-0.093918,-0.028473,0.16457,0.010991
1711,0.046837,0.031052,-0.03538,-0.098522,0.021186,0.18496,0.0077021
1712,0.023817,0.0096753,-0.039984,-0.0903,0.045193,0.21851,0.0057288
1713,0.002769,-0.013017,-0.045246,-0.068595,0.049797,0.25271,0.0034268
1714,-0.012688,-0.030775,-0.04689,-0.037682,0.042562,0.27047,0.00079584
1715,-0.026171,-0.038668,-0.042615,-0.0047949,0.031381,0.256,-0.0028217
1716,-0.038668,-0.034064,-0.035051,0.023488,0.022501,0.2139,-0.0074258
1717,-0.052481,-0.020252,-0.028144,0.041575,0.012635,0.1603,-0.012359
1718,-0.063333,0.0001381,-0.022883,0.050126,-0.0024928,0.11261,-0.016634
1719,-0.069582,0.022501,-0.017621,0.052099,-0.028802,0.079724,-0.018278
1720,-0.076488,0.041904,-0.0093991,0.047824,-0.061689,0.061965,-0.019265
1721,-0.083394,0.053415,-0.0031506,0.036314,-0.089314,0.053743,-0.018278
1722,-0.085367,0.059663,0.0017824,0.020857,-0.10082,0.047824,-0.017621
1723,-0.077803,0.062294,0.0047422,0.0044134,-0.094247,0.04026,-0.017621
1724,-0.06432,0.063281,0.0063866,-0.010715,-0.068595,0.031052,-0.017292
1725,-0.048534,0.060979,0.0040845,-0.025514,-0.030775,0.015266,-0.015648
1726,-0.034722,0.053086,-0.0024928,-0.03538,0.0070443,-0.0057815,-0.013017
1727,-0.024198,0.041904,-0.010386,-0.030775,0.039931,-0.024527,-0.010715
1728,-0.016963,0.030394,-0.015319,-0.0074258,0.072489,-0.030775,-0.0093991
1729,-0.012688,0.017897,-0.014003,0.029407,0.10702,-0.020252,-0.0097279
1730,-0.015648,0.0060577,-0.0074258,0.070845,0.14122,0.002769,-0.011372
1731,-0.021238,-0.0008485,0.0017824,0.10735,0.17214,0.035327,-0.014332
1732,-0.028802,0.0014536,0.0067154,0.1376,0.20009,0.079724,-0.016305
1733,-0.03538,0.011977,0.0090175,0.15799,0.22706,0.14188,-0.017292
1734,-0.035051,0.027105,0.012306,0.16753,0.25205,0.21653,-0.014661
1735,-0.024527,0.037958,0.018226,0.16622,0.27145,0.28954,-0.010386
1736,-0.0084125,0.04026,0.026776,0.16194,0.28461,0.33986,-0.0054526
1737,0.01132,0.039273,0.036971,0.17181,0.28658,0.35367,-0.0015062
1738,0.03434,0.039931,0.047495,0.21259,0.27869,0.3346,0.00079584
1739,0.060979,0.042562,0.05473,0.28757,0.26619,0.29711,0.002769
1740,0.090577,0.045851,0.057361,0.38721,0.25041,0.25665,0.0050711
1741,0.1205,0.052757,0.056703,0.49081,0.23133,0.22475,0.0067154
1742,0.14221,0.060979,0.058676,0.57072,0.21127,0.19845,0.0086887
1743,0.15339,0.068543,0.064267,0.60065,0.19384,0.16753,0.011977
1744,0.15668,0.076106,0.071173,0.57072,0.17937,0.12412,0.013951
1745,0.15076,0.080382,0.073804,0.48818,0.16654,0.061307,0.013951
1746,0.13728,0.076435,0.068214,0.37505,0.15405,-0.010386,0.013951
1747,0.1205,0.061636,0.055388,0.25172,0.14287,-0.069253,0.014608
1748,0.1011,0.038287,0.036642,0.12938,0.133,-0.10247,0.016253
1749,0.080053,0.0073732,0.015924,0.01987,0.12281,-0.11398,0.020528
1750,0.056703,-0.028802,-0.0077547,-0.070568,0.1136,-0.11003,0.024145
1751,0.031052,-0.06432,-0.03242,-0.1416,0.1034,-0.09622,0.027763
1752,0.0017824,-0.090958,-0.055769,-0.19225,0.087946,-0.080434,0.029736
1753,-0.031762,-0.10641,-0.073199,-0.22744,0.067556,-0.070897,0.029736
1754,-0.066622,-0.10444,-0.082408,-0.24651,0.045193,-0.070568,0.02875
1755,-0.095233,-0.087341,-0.087012,-0.25342,0.028421,-0.074844,0.029407
1756,-0.11299,-0.068924,-0.087669,-0.2475,0.024474,-0.084052,0.033354
1757,-0.12056,-0.060045,-0.084381,-0.23106,0.031052,-0.094247,0.038287
1758,-0.12121,-0.071884,-0.077475,-0.21428,0.040918,-0.10674,0.043877
1759,-0.11957,-0.10444,-0.070568,-0.21067,0.046508,-0.12384,0.047166
1760,-0.12253,-0.14785,-0.068595,-0.22941,0.046837,-0.15443,0.047166
1761,-0.13108,-0.18863,-0.068924,-0.2692,0.039931,-0.20146,0.044535
1762,-0.13864,-0.2054,-0.068595,-0.32413,0.023817,-0.26197,0.042233
1763,-0.13667,-0.18962,-0.062018,-0.37937,0.00079584,-0.32051,0.04026
1764,-0.12352,-0.15081,-0.048534,-0.41522,-0.024856,-0.36721,0.039602
1765,-0.1074,-0.11168,-0.029789,-0.41456,-0.040313,-0.3968,0.04026
1766,-0.090958,-0.089643,-0.013345,-0.37444,-0.040313,-0.40536,0.040589
1767,-0.075173,-0.08471,-0.004466,-0.30867,-0.019923,-0.39516,0.040589
1768,-0.060045,-0.086683,-0.0011774,-0.25802,0.014608,-0.36688,0.040918
1769,-0.04985,-0.076817,-0.0028217,-0.25868,0.059005,-0.32807,0.042233
1770,-0.049192,-0.044588,-0.0084125,-0.32215,0.10538,-0.28992,0.043549
1771,-0.061689,0.0024402,-0.01203,-0.42344,0.15142,-0.2521,0.045193
1772,-0.088985,0.061307,-0.01203,-0.5175,0.19746,-0.21264,0.046508
1773,-0.11924,0.12083,-0.01203,-0.56255,0.24547,-0.17186,0.047166
1774,-0.13897,0.16654,-0.0090702,-0.53624,0.29974,-0.12944,0.046508
1775,-0.14127,0.18693,-0.0015062,-0.45173,0.35795,-0.082408,0.044864
1776,-0.12352,0.17904,0.01132,-0.35011,0.41056,-0.022883,0.041575
1777,-0.089643,0.14912,0.024803,-0.26822,0.44608,0.047824,0.038944
1778,-0.046232,0.11491,0.041904,-0.22053,0.45529,0.12445,0.036642
1779,-0.0024928,0.09255,0.063281,-0.19652,0.43655,0.20042,0.033025
