,channel_1,channel_2,channel_3,channel_4,channel_5,channel_6,channel_7
0,-0.5813,-0.11586,-0.32925,-0.94314,-2.6607,0.56299,-0.1753
1,-0.66381,-0.19121,-0.41663,-1.139,-3.5354,0.44119,-0.29515
2,-0.71805,-0.26851,-0.51374,-1.3475,-4.6982,0.25605,-0.44716
3,-0.74306,-0.33413,-0.59754,-1.5158,-4.9691,0.089748,-0.60047
4,-0.74143,-0.38122,-0.65049,-1.5947,-4.9691,0.0072465,-0.7187
5,-0.7135,-0.40851,-0.66608,-1.5713,-4.9695,0.032582,-0.77814
6,-0.6651,-0.41793,-0.64886,-1.4664,-4.5712,0.12775,-0.77392
7,-0.60729,-0.41046,-0.61249,-1.3206,-1.6863,0.20051,-0.72162
8,-0.54915,-0.39292,-0.56831,-1.1708,1.6085,0.16705,-0.64139
9,-0.49653,-0.37018,-0.51992,-1.0354,4.2801,0.019264,-0.55305
10,-0.44943,-0.3429,-0.46632,-0.91423,4.9586,-0.19348,-0.47444
11,-0.40721,-0.30977,-0.40883,-0.79795,4.9586,-0.42182,-0.41825
12,-0.37245,-0.27079,-0.34874,-0.67777,4.9589,-0.6336,-0.39227
13,-0.34582,-0.22661,-0.28281,-0.55207,4.9583,-0.82783,-0.39454
14,-0.31821,-0.18049,-0.212,-0.42182,3.9796,-1.0152,-0.41825
15,-0.28313,-0.13599,-0.14249,-0.2919,3.0702,-1.19,-0.44099
16,-0.23214,-0.098641,-0.082076,-0.16458,2.4082,-1.2988,-0.43254
17,-0.1649,-0.070707,-0.036278,-0.042774,2.0613,-1.2715,-0.37505
18,-0.091495,-0.052843,-0.0067202,0.06961,2.0009,-1.0731,-0.27274
19,-0.025559,-0.040175,0.014068,0.1716,2.0977,-0.74014,-0.14964
20,0.027709,-0.028482,0.03583,0.26222,2.1812,-0.35881,-0.044723
21,0.067986,-0.012567,0.065712,0.34212,2.1269,-0.025884,0.01829
22,0.10112,0.01017,0.10144,0.40838,1.9096,0.19953,0.040052
23,0.1297,0.034206,0.13652,0.45581,1.5514,0.32653,0.03518
24,0.15601,0.053369,0.16738,0.48536,1.0619,0.40579,0.02641
25,0.1755,0.067336,0.18946,0.50518,0.44281,0.46587,0.029009
26,0.18816,0.072533,0.20083,0.52239,-0.26787,0.47789,0.046548
27,0.19596,0.071558,0.19986,0.53733,-0.98472,0.38207,0.06896
28,0.19888,0.068635,0.19336,0.54935,-1.5993,0.11671,0.084876
29,0.19856,0.070259,0.18816,0.5565,-2.0303,-0.32763,0.085525
30,0.18719,0.082602,0.19336,0.55812,-2.2326,-0.86389,0.075781
31,0.16185,0.10534,0.20668,0.55812,-2.2057,-1.3313,0.069285
32,0.12255,0.13425,0.21967,0.55682,-1.9812,-1.5713,0.083576
33,0.076106,0.16348,0.22909,0.5565,-1.6103,-1.4982,0.11898
34,0.037129,0.18784,0.23591,0.55747,-1.1533,-1.1413,0.16315
35,0.01829,0.20213,0.24598,0.55942,-0.67712,-0.64399,0.19628
36,0.024461,0.20733,0.26255,0.56494,-0.25487,-0.20193,0.20051
37,0.050771,0.20278,0.28138,0.57631,0.037454,0.016991,0.17062
38,0.083576,0.18946,0.29697,0.58605,0.13717,-0.035303,0.11411
39,0.11118,0.16835,0.30217,0.58378,0.029983,-0.26916,0.042001
40,0.12775,0.14204,0.29145,0.56657,-0.2448,-0.51602,-0.029782
41,0.14496,0.11736,0.26937,0.54123,-0.59852,-0.62775,-0.0824
42,0.16998,0.10112,0.24338,0.51817,-0.91553,-0.55597,-0.097991
43,0.19758,0.09397,0.22162,0.50615,-1.1224,-0.34679,-0.076229
44,0.21415,0.092021,0.20798,0.50485,-1.2332,-0.093119,-0.029132
45,0.20668,0.091696,0.20148,0.5068,-1.3381,0.11768,0.026735
46,0.1729,0.0865,0.19726,0.49706,-1.5148,0.24403,0.075456
47,0.1206,0.072858,0.18849,0.4649,-1.7081,0.29015,0.10761
48,0.065712,0.052395,0.17062,0.40611,-1.7396,0.28918,0.12125
49,0.028684,0.028684,0.14529,0.32783,-1.4294,0.27749,0.1232
50,0.019914,0.0056225,0.11833,0.24533,-0.7161,0.26449,0.12288
51,0.034855,-0.011917,0.097868,0.17225,0.28073,0.24111,0.12223
52,0.055318,-0.020687,0.084876,0.11736,1.2967,0.17257,0.11443
53,0.057592,-0.021661,0.075456,0.085525,2.0808,0.031932,0.095594
54,0.02641,-0.012242,0.067336,0.079679,2.5144,-0.16847,0.069285
55,-0.037577,0.0059473,0.061814,0.092346,2.6103,-0.36011,0.046223
56,-0.11456,0.026735,0.058566,0.11346,2.4631,-0.45755,0.03583
57,-0.17789,0.045899,0.058891,0.1323,2.2263,-0.37895,0.040052
58,-0.20908,0.058891,0.059865,0.14399,2.0006,-0.10286,0.052395
59,-0.20485,0.063438,0.057592,0.15341,1.7895,0.29925,0.058891
60,-0.17075,0.064413,0.05207,0.16933,1.5429,0.70818,0.05142
61,-0.11975,0.059216,0.040052,0.19531,1.1869,1.0382,0.032257
62,-0.063237,0.040702,0.017965,0.21967,0.65556,1.2607,0.016016
63,-0.0083442,0.0052977,-0.012567,0.21512,-0.062262,1.3877,0.010819
64,0.037454,-0.040825,-0.047971,0.16835,-0.81809,1.4559,0.022188
65,0.073182,-0.0824,-0.077853,0.082277,-1.4518,1.5027,0.05272
66,0.093645,-0.11358,-0.093769,-0.026533,-1.9445,1.5014,0.0865
67,0.096244,-0.12982,-0.092145,-0.12917,-2.2843,1.3783,0.10274
68,0.080003,-0.12657,-0.071682,-0.20355,-2.3729,1.0908,0.088448
69,0.048497,-0.097341,-0.037252,-0.23733,-2.1693,0.65914,0.050771
70,0.0075714,-0.040825,0.0026992,-0.23214,-1.7071,0.14919,0.0088706
71,-0.038551,0.031607,0.033881,-0.2016,-1.0344,-0.35394,-0.018088
72,-0.089546,0.093321,0.041351,-0.1662,-0.27274,-0.78593,-0.028482
73,-0.14216,0.12418,0.026735,-0.14379,0.37233,-1.1484,-0.037252
74,-0.18212,0.11736,-0.0018481,-0.13729,0.72572,-1.4612,-0.058689
75,-0.19056,0.084551,-0.031406,-0.13502,0.75983,-1.7207,-0.093119
76,-0.15938,0.042651,-0.054142,-0.11845,0.61983,-1.8857,-0.12527
77,-0.090521,0.0010752,-0.064861,-0.080776,0.57371,-1.899,-0.13534
78,-0.0034721,-0.030756,-0.062912,-0.035628,0.82186,-1.7253,-0.11228
79,0.076106,-0.052193,-0.054792,-0.0044465,1.3169,-1.3891,-0.057065
80,0.13035,-0.06551,-0.048296,-0.00054884,1.8281,-0.95223,0.022837
81,0.15731,-0.067784,-0.046022,-0.029132,2.1864,-0.46405,0.11313
82,0.1677,-0.058365,-0.04992,-0.08305,2.3527,0.050446,0.19628
83,0.17225,-0.036278,-0.060313,-0.14769,2.3163,0.56559,0.26287
84,0.1716,-0.0024977,-0.076229,-0.21102,2.0097,1.0336,0.2986
85,0.16088,0.037778,-0.097017,-0.26819,1.3727,1.4039,0.2908
86,0.13197,0.074482,-0.12203,-0.32146,0.44411,1.6446,0.23591
87,0.074806,0.094945,-0.15093,-0.37765,-0.59787,1.7641,0.14139
88,-0.0096434,0.088124,-0.18471,-0.43839,-1.5021,1.7898,0.025436
89,-0.10156,0.049796,-0.22532,-0.49978,-2.0689,1.7667,-0.087272
90,-0.17465,-0.013216,-0.26494,-0.5498,-2.1898,1.7362,-0.17302
91,-0.2068,-0.0837,-0.29223,-0.57091,-1.9098,1.7115,-0.21979
92,-0.19511,-0.13892,-0.29905,-0.55792,-1.3985,1.6716,-0.23214
93,-0.15386,-0.16425,-0.28476,-0.51374,-0.85966,1.5943,-0.22142
94,-0.10026,-0.15581,-0.25325,-0.44456,-0.43936,1.477,-0.20323
95,-0.044073,-0.1191,-0.20972,-0.35816,-0.20355,1.3308,-0.17854
96,0.008221,-0.063237,-0.16003,-0.26007,-0.12138,1.1655,-0.13989
97,0.055643,-0.0031473,-0.11131,-0.1636,-0.11196,1.0015,-0.075579
98,0.093645,0.046548,-0.072656,-0.084999,-0.11553,0.85142,0.009845
99,0.11508,0.075781,-0.047321,-0.031406,-0.094418,0.70298,0.097543
100,0.11671,0.088124,-0.033679,0.0020496,0.0088706,0.53798,0.16575
101,0.098193,0.090397,-0.022311,0.028359,0.28008,0.35089,0.19628
102,0.062789,0.087799,-0.0089938,0.055643,0.7254,0.15114,0.18297
103,0.019264,0.082602,0.010819,0.087799,1.2237,-0.044073,0.13457
104,-0.017764,0.075456,0.034206,0.11541,1.5839,-0.2107,0.071558
105,-0.034978,0.067336,0.057917,0.12807,1.669,-0.30424,0.013093
106,-0.029132,0.057917,0.076755,0.12548,1.4387,-0.28443,-0.026533
107,-0.0037969,0.046873,0.0852,0.10989,0.96218,-0.16035,-0.044398
108,0.028359,0.037454,0.08585,0.092671,0.40254,0.0017248,-0.043423
109,0.051745,0.032906,0.081952,0.082277,-0.088896,0.12125,-0.026209
110,0.061165,0.034855,0.077405,0.085525,-0.45658,0.12645,0.0020496
111,0.059541,0.044599,0.073182,0.10306,-0.7135,-0.0057458,0.039727
112,0.056617,0.057592,0.070909,0.12645,-0.90709,-0.23246,0.088124
113,0.062464,0.070909,0.070909,0.15568,-1.1218,-0.45983,0.14951
114,0.087149,0.079354,0.078379,0.19499,-1.3985,-0.5852,0.22454
115,0.13067,0.083901,0.095919,0.2489,-1.6749,-0.56214,0.30964
116,0.18557,0.084551,0.12125,0.31776,-1.838,-0.4267,0.39214
117,0.23364,0.080003,0.14594,0.39182,-1.7948,-0.28281,0.44639
118,0.25605,0.072208,0.16153,0.44866,-1.5346,-0.25585,0.45158
119,0.25443,0.066037,0.16835,0.47724,-1.1211,-0.43547,0.40416
120,0.24176,0.068635,0.1703,0.48147,-0.65276,-0.81094,0.32588
121,0.23851,0.0852,0.17712,0.47367,-0.2539,-1.2559,0.2554
122,0.24825,0.11476,0.19044,0.45223,-0.11715,-1.6103,0.22324
123,0.25767,0.14886,0.20343,0.40546,-0.46275,-1.7682,0.23656
124,0.24566,0.17582,0.20246,0.32036,-1.264,-1.6882,0.28203
125,0.2109,0.18524,0.18362,0.20505,-2.1875,-1.3982,0.33465
126,0.16283,0.17257,0.15698,0.091372,-2.8514,-0.99251,0.37298
127,0.11736,0.13912,0.12937,0.0065969,-3.0762,-0.5969,0.37915
128,0.084226,0.093645,0.10599,-0.036278,-2.9368,-0.31496,0.34375
129,0.064737,0.045574,0.087149,-0.042774,-2.5847,-0.19933,0.26287
130,0.049472,0.0020496,0.070259,-0.027508,-2.0926,-0.23376,0.14237
131,0.02706,-0.032705,0.058241,-0.012242,-1.4463,-0.34809,-0.00054884
132,-0.0096434,-0.060638,0.053044,-0.0089938,-0.60729,-0.43612,-0.14314
133,-0.05804,-0.087597,0.048822,-0.021661,0.38532,-0.40234,-0.25812
134,-0.10903,-0.11618,0.03583,-0.043748,1.4416,-0.23961,-0.32731
135,-0.15158,-0.14866,0.011144,-0.07428,2.4417,-0.050894,-0.35361
136,-0.18049,-0.18244,-0.025234,-0.11553,3.1962,0.018615,-0.35654
137,-0.19771,-0.2172,-0.072006,-0.1701,3.5464,-0.11196,-0.36206
138,-0.2068,-0.24935,-0.12398,-0.23701,3.4262,-0.39876,-0.37635
139,-0.21979,-0.27111,-0.17172,-0.30165,2.8574,-0.69921,-0.39487
140,-0.24675,-0.27241,-0.20648,-0.35296,1.9944,-0.8811,-0.40818
141,-0.29255,-0.25098,-0.22564,-0.38999,1.0291,-0.90319,-0.41825
142,-0.35232,-0.21362,-0.23376,-0.42117,0.1206,-0.8064,-0.42929
143,-0.41176,-0.16653,-0.23831,-0.44716,-0.62191,-0.65374,-0.44001
144,-0.45366,-0.10936,-0.23831,-0.4556,-1.165,-0.48971,-0.43871
145,-0.46048,-0.048945,-0.23116,-0.42962,-1.5583,-0.30814,-0.40948
146,-0.41923,0.0069217,-0.21135,-0.36011,-1.8364,-0.080451,-0.3377
147,-0.32243,0.050771,-0.17042,-0.25487,-1.9341,0.20376,-0.22304
148,-0.18309,0.084226,-0.10644,-0.123,-1.7539,0.52174,-0.077853
149,-0.028807,0.10631,-0.026533,0.01764,-1.2826,0.81991,0.063113
150,0.11054,0.12028,0.053369,0.15049,-0.61086,1.033,0.1703
151,0.2135,0.1297,0.11931,0.27261,0.11703,1.1327,0.23136
152,0.26872,0.13555,0.1625,0.37395,0.77996,1.1334,0.25215
153,0.28463,0.13327,0.18134,0.43729,1.3198,1.0853,0.2463
154,0.28821,0.11963,0.17972,0.44736,1.6768,1.0323,0.22519
155,0.29957,0.096893,0.15731,0.39734,1.7901,0.96705,0.19271
156,0.32686,0.070909,0.10956,0.29925,1.6706,0.85857,0.14691
157,0.35771,0.047523,0.04395,0.17192,1.3338,0.67667,0.081303
158,0.36843,0.03518,-0.026858,0.030633,0.81309,0.39994,-0.008669
159,0.33693,0.042326,-0.089871,-0.11261,0.31257,0.076431,-0.1178
160,0.25865,0.06896,-0.13762,-0.24675,0.22324,-0.1714,-0.23603
161,0.15016,0.10664,-0.16945,-0.35784,0.80075,-0.24091,-0.3416
162,0.040377,0.14074,-0.19089,-0.43839,1.8716,-0.14574,-0.41403
163,-0.054467,0.15016,-0.20713,-0.48873,2.9757,-0.013866,-0.43969
164,-0.13567,0.12028,-0.22239,-0.51699,3.6701,-0.0044465,-0.42442
165,-0.21525,0.053044,-0.23506,-0.52901,3.7146,-0.18277,-0.38285
166,-0.29223,-0.035303,-0.2435,-0.52641,3.1485,-0.45463,-0.32731
167,-0.35979,-0.11975,-0.24805,-0.51537,2.1666,-0.65244,-0.26592
168,-0.39974,-0.18244,-0.24838,-0.50238,0.94821,-0.67517,-0.20323
169,-0.39649,-0.21427,-0.2435,-0.48938,-0.38155,-0.54882,-0.14444
170,-0.34549,-0.21135,-0.22629,-0.46892,-1.6327,-0.36498,-0.089871
171,-0.25617,-0.18179,-0.19738,-0.43384,-2.5854,-0.2016,-0.04115
172,-0.15093,-0.13437,-0.15938,-0.37765,-3.0411,-0.084349,0.003024
173,-0.044723,-0.076229,-0.11586,-0.30165,-2.9017,-0.0080194,0.041351
174,0.058241,-0.0099683,-0.067784,-0.21265,-2.2437,0.036479,0.06961
175,0.15666,0.059541,-0.021012,-0.11456,-1.3001,0.047198,0.086175
176,0.24306,0.11866,0.024461,-0.012242,-0.34712,0.025111,0.091696
177,0.30412,0.15179,0.067011,0.090072,0.40838,-0.0089938,0.091372
178,0.3327,0.15601,0.10469,0.18524,0.88033,-0.027833,0.092996
179,0.33173,0.14496,0.13587,0.27132,1.1054,-0.018413,0.10501
180,0.30737,0.13327,0.16056,0.34797,1.1892,0.0075714,0.13067
181,0.26677,0.12483,0.18004,0.41618,1.2418,0.037454,0.16965
182,0.22357,0.1219,0.19791,0.47822,1.3224,0.083576,0.22097
183,0.19044,0.1245,0.21772,0.53798,1.452,0.18167,0.27814
184,0.17257,0.13295,0.23721,0.59612,1.6313,0.35771,0.32946
185,0.16218,0.14432,0.2541,0.64679,1.7787,0.58638,0.36356
186,0.14269,0.15536,0.26807,0.68934,1.7573,0.81309,0.37038
187,0.10371,0.16315,0.27976,0.72085,1.476,0.99564,0.35414
188,0.048822,0.16965,0.28788,0.74488,0.99401,1.1168,0.33075
189,-0.0093186,0.16803,0.29243,0.76015,0.43859,1.1941,0.30964
190,-0.056416,0.14951,0.29145,0.7608,-0.21882,1.2542,0.29243
191,-0.079477,0.10859,0.28528,0.74196,-1.1273,1.3065,0.27749
192,-0.064861,0.057592,0.28203,0.71175,-2.1943,1.339,0.26547
193,-0.01484,0.017316,0.28723,0.68544,-3.1164,1.3367,0.2593
194,0.054019,0.0056225,0.2999,0.67148,-3.6959,1.2694,0.26092
195,0.11898,0.028684,0.30867,0.65849,-3.9593,1.0866,0.26872
196,0.16185,0.072858,0.29892,0.62243,-4.0743,0.72767,0.27391
197,0.17972,0.11183,0.2606,0.53538,-4.0827,0.14074,0.25313
198,0.16998,0.11703,0.19206,0.38272,-3.7761,-0.6651,0.18459
199,0.12743,0.078055,0.10079,0.17712,-2.9829,-1.5781,0.067986
200,0.057592,0.0056225,0.0014,-0.050244,-1.7607,-2.4226,-0.072981
201,-0.026209,-0.074605,-0.093119,-0.26494,-0.35719,-3.0118,-0.2029
202,-0.10968,-0.13177,-0.17042,-0.43709,0.88455,-3.2171,-0.29288
203,-0.18569,-0.15516,-0.21817,-0.5446,1.7096,-3.0086,-0.33153
204,-0.25162,-0.14736,-0.23474,-0.57676,2.1175,-2.4636,-0.3312
205,-0.30814,-0.12203,-0.22239,-0.54168,2.2614,-1.7301,-0.31106
206,-0.35621,-0.095717,-0.19251,-0.46178,2.2653,-0.97107,-0.28768
207,-0.39389,-0.076229,-0.15548,-0.3744,2.1036,-0.31269,-0.27079
208,-0.41176,-0.06551,-0.12105,-0.30359,1.6959,0.16965,-0.25942
209,-0.39974,-0.057715,-0.098641,-0.26299,1.0281,0.45061,-0.25195
210,-0.35426,-0.054792,-0.092469,-0.2552,0.17907,0.55682,-0.24286
211,-0.27988,-0.059664,-0.10644,-0.27891,-0.68394,0.54058,-0.23798
212,-0.18959,-0.073306,-0.13469,-0.32243,-1.3732,0.45418,-0.24286
213,-0.098316,-0.097991,-0.1675,-0.36823,-1.7682,0.31971,-0.25422
214,-0.021012,-0.12885,-0.19316,-0.39746,-1.8409,0.16478,-0.26202
215,0.036479,-0.15646,-0.20128,-0.39454,-1.6483,0.029009,-0.26104
216,0.070584,-0.17659,-0.18894,-0.35426,-1.292,-0.043099,-0.2539
217,0.084551,-0.18699,-0.16685,-0.29223,-0.87006,-0.017439,-0.24838
218,0.086175,-0.18764,-0.14087,-0.22791,-0.44294,0.10989,-0.24773
219,0.078379,-0.17465,-0.11163,-0.17465,-0.042449,0.28268,-0.25065
220,0.061814,-0.14899,-0.089221,-0.13275,0.30769,0.40676,-0.2591
221,0.035505,-0.11651,-0.079477,-0.095717,0.59905,0.4165,-0.26949
222,-0.0028225,-0.090521,-0.079802,-0.060313,0.82706,0.33368,-0.26689
223,-0.052193,-0.08305,-0.082076,-0.018738,0.99596,0.23169,-0.23311
224,-0.11131,-0.096042,-0.07493,0.033881,1.1126,0.17485,-0.16035
225,-0.17302,-0.11813,-0.055766,0.096569,1.1934,0.18751,-0.04927
226,-0.22402,-0.13372,-0.025234,0.15991,1.2539,0.23591,0.086175
227,-0.24188,-0.13275,0.015367,0.20895,1.2805,0.23624,0.22065
228,-0.21622,-0.10774,0.059216,0.23136,1.2035,0.10242,0.32816
229,-0.15678,-0.061613,0.098842,0.22292,0.95309,-0.19511,0.38922
230,-0.0824,-0.0080194,0.12775,0.19174,0.56169,-0.60956,0.39864
231,-0.010618,0.041676,0.14042,0.15568,0.15958,-1.0461,0.37006
232,0.050446,0.081303,0.13392,0.1258,-0.12495,-1.392,0.32978
233,0.090072,0.10989,0.11541,0.10859,-0.23798,-1.5525,0.29957
234,0.10469,0.13132,0.099817,0.10209,-0.2055,-1.4885,0.28561
235,0.099817,0.14691,0.094295,0.10469,-0.097991,-1.2183,0.28723
236,0.0852,0.15438,0.092671,0.11118,0.013418,-0.80055,0.29243
237,0.071234,0.15049,0.088124,0.11476,0.084226,-0.31464,0.29178
238,0.065387,0.13717,0.078704,0.11313,0.10501,0.15991,0.28203
239,0.069285,0.11931,0.064737,0.11183,0.086175,0.56689,0.26839
240,0.078704,0.10112,0.050771,0.11054,0.049472,0.88228,0.25637
241,0.093645,0.080978,0.04395,0.11768,0.010819,1.0967,0.24306
242,0.10501,0.055318,0.050446,0.13392,-0.02361,1.2194,0.22974
243,0.10761,0.023812,0.062789,0.15341,-0.051868,1.2714,0.21577
244,0.10047,-0.0089938,0.075131,0.17257,-0.068758,1.2795,0.20018
245,0.091047,-0.033679,0.082927,0.18589,-0.07428,1.2607,0.18264
246,0.0852,-0.036927,0.080978,0.18751,-0.072006,1.2159,0.16283
247,0.078704,-0.011592,0.074157,0.17582,-0.059014,1.1399,0.13684
248,0.062464,0.035505,0.069285,0.15601,-0.030431,1.0291,0.10696
249,0.042326,0.087149,0.06831,0.13977,0.019589,0.8813,0.083901
250,0.041676,0.12158,0.064737,0.13197,0.078055,0.70298,0.078704
251,0.081952,0.1271,0.05272,0.1336,0.11963,0.52726,0.098842
252,0.16153,0.10956,0.039402,0.14139,0.14821,0.40676,0.14009
253,0.25313,0.09462,0.029009,0.15373,0.21252,0.38825,0.18329
254,0.32458,0.10079,0.026735,0.1651,0.35284,0.49608,0.20733
255,0.35414,0.13132,0.031607,0.16478,0.54773,0.70721,0.20408
256,0.34667,0.1742,0.042651,0.15601,0.72345,0.94497,0.17874
257,0.31516,0.20928,0.056942,0.14529,0.82056,1.1057,0.14172
258,0.26969,0.22454,0.071883,0.13782,0.82349,1.1135,0.096569
259,0.21577,0.2148,0.080653,0.13197,0.74716,0.95698,0.043625
260,0.15698,0.17712,0.07773,0.11768,0.60197,0.67895,-0.010618
261,0.099492,0.11801,0.06896,0.088124,0.43372,0.35447,-0.059989
262,0.051096,0.05142,0.059216,0.044599,0.30704,0.073182,-0.095068
263,0.01829,-0.0041217,0.053044,-0.0018481,0.2528,-0.09117,-0.099615
264,0.0075714,-0.032055,0.053694,-0.038876,0.26807,-0.10481,-0.065835
265,0.011469,-0.030431,0.056617,-0.059989,0.31127,0.018615,-0.007045
266,0.013093,-0.0083442,0.056292,-0.064211,0.30055,0.23006,0.049472
267,-0.0089938,0.019914,0.049472,-0.058365,0.12905,0.46815,0.080003
268,-0.06681,0.039078,0.037129,-0.04927,-0.28638,0.68057,0.071234
269,-0.15451,0.03518,0.023162,-0.041799,-0.93275,0.82511,0.027709
270,-0.2448,0.0023744,0.009845,-0.035628,-1.6918,0.85564,-0.034329
271,-0.30749,-0.04992,-0.0057458,-0.030106,-2.3804,0.72637,-0.096367
272,-0.31724,-0.10091,-0.023935,-0.024585,-2.8338,0.40449,-0.15126
273,-0.27014,-0.1269,-0.040175,-0.019712,-2.9852,-0.096367,-0.19673
274,-0.17919,-0.11748,-0.046671,-0.018738,-2.8738,-0.70636,-0.23246
275,-0.067459,-0.087922,-0.046996,-0.021986,-2.5805,-1.3137,-0.25357
276,0.045574,-0.059014,-0.046022,-0.025234,-2.1826,-1.7831,-0.2487
277,0.15049,-0.044398,-0.043748,-0.021986,-1.7474,-1.9981,-0.20485
278,0.24501,-0.047321,-0.042124,-0.011592,-1.3017,-1.9286,-0.12333
279,0.32393,-0.061288,-0.046022,-0.0037969,-0.81387,-1.647,-0.028157
280,0.37493,-0.073955,-0.064861,-0.01549,-0.26689,-1.278,0.04395
281,0.3863,-0.072981,-0.096042,-0.058365,0.28821,-0.92528,0.073182
282,0.35284,-0.050244,-0.13047,-0.12365,0.78484,-0.61996,0.055643
283,0.27846,-0.010293,-0.15743,-0.19251,1.1649,-0.33023,0.0075714
284,0.1755,0.039402,-0.1688,-0.24415,1.3831,-0.0054209,-0.052193
285,0.062789,0.087149,-0.1636,-0.26851,1.4335,0.37688,-0.11066
286,-0.043748,0.12223,-0.14704,-0.27144,1.3036,0.77737,-0.15905
287,-0.13145,0.13197,-0.12982,-0.26267,0.94334,1.1048,-0.19089
288,-0.19251,0.11443,-0.12008,-0.2474,0.35187,1.2652,-0.19933
289,-0.22824,0.080978,-0.11066,-0.22467,-0.3822,1.2032,-0.18959
290,-0.24318,0.047523,-0.090196,-0.19056,-1.1637,0.92938,-0.1662
291,-0.24578,0.025761,-0.057715,-0.13957,-1.8675,0.50745,-0.13502
292,-0.2448,0.013418,-0.019712,-0.072656,-2.3106,0.028684,-0.10644
293,-0.24286,0.00075039,0.012768,-0.00054884,-2.2791,-0.41143,-0.082725
294,-0.23149,-0.013216,0.037129,0.066686,-1.6376,-0.74955,-0.063561
295,-0.20063,-0.024585,0.048497,0.10956,-0.48679,-0.95938,-0.046671
296,-0.14996,-0.033679,0.045899,0.11248,0.90014,-1.0302,-0.029132
297,-0.089221,-0.038876,0.034206,0.07773,2.2198,-0.9753,-0.0073698
298,-0.034978,-0.042774,0.016666,0.017316,3.2758,-0.85317,0.027385
299,0.0046481,-0.046022,-0.0024977,-0.051219,3.8692,-0.73754,0.080653
300,0.02641,-0.052193,-0.022961,-0.1217,3.7828,-0.70343,0.14334
301,0.029658,-0.059989,-0.047646,-0.19543,2.8854,-0.82751,0.18589
302,0.014717,-0.06681,-0.078503,-0.27274,1.39,-1.1228,0.17745
303,-0.015815,-0.065835,-0.11033,-0.34907,-0.14736,-1.4755,0.11021
304,-0.060638,-0.05804,-0.13762,-0.41403,-1.1111,-1.7159,0.0049729
305,-0.11163,-0.04992,-0.15776,-0.4595,-1.2179,-1.7256,-0.10546
306,-0.15873,-0.043423,-0.17237,-0.48744,-0.55337,-1.4921,-0.19251
307,-0.19673,-0.037252,-0.18179,-0.5014,0.5552,-1.1,-0.24156
308,-0.22434,-0.034654,-0.18764,-0.49848,1.6995,-0.65569,-0.25325
309,-0.23409,-0.033679,-0.18829,-0.46567,2.5755,-0.24156,-0.23636
310,-0.21525,-0.034329,-0.17594,-0.39454,3.0179,0.092021,-0.19641
311,-0.17172,-0.033354,-0.14444,-0.28865,2.9978,0.31939,-0.15061
312,-0.11813,-0.028482,-0.091495,-0.1597,2.6125,0.43469,-0.11131
313,-0.069408,-0.015815,-0.024585,-0.030431,2.0496,0.43729,-0.081101
314,-0.030106,0.0033489,0.041676,0.0865,1.5478,0.34602,-0.057065
315,-0.00054884,0.021863,0.097218,0.18427,1.3247,0.22292,-0.033354
316,0.016991,0.036154,0.13035,0.2528,1.3948,0.14302,-0.0076946
317,0.019264,0.037129,0.13847,0.27879,1.555,0.13879,0.0088706
318,0.0049729,0.014717,0.11963,0.25085,1.591,0.18622,-0.00087364
319,-0.022961,-0.034654,0.070584,0.16835,1.4049,0.24111,-0.043423
320,-0.065186,-0.09929,0.00042559,0.053694,1.0625,0.27781,-0.11358
321,-0.11488,-0.15905,-0.072006,-0.055766,0.72442,0.29568,-0.19511
322,-0.15711,-0.19283,-0.12755,-0.12625,0.46555,0.31354,-0.26137
323,-0.17302,-0.19089,-0.15451,-0.14346,0.31451,0.37623,-0.28476
324,-0.14639,-0.15613,-0.14964,-0.10903,0.30185,0.5565,-0.24773
325,-0.077203,-0.10221,-0.11423,-0.03173,0.37428,0.88065,-0.15451
326,0.023487,-0.046022,-0.04992,0.082277,0.44216,1.2818,-0.030106
327,0.13392,0.0056225,0.037454,0.22519,0.41098,1.6319,0.091047
328,0.23494,0.053369,0.13295,0.38142,0.16933,1.8197,0.17777
329,0.30997,0.099492,0.21707,0.52109,-0.41858,1.7976,0.21155
330,0.35057,0.14237,0.27716,0.62471,-1.356,1.5757,0.19531
331,0.34959,0.17939,0.31289,0.68122,-2.332,1.2172,0.15633
332,0.30282,0.20278,0.33075,0.68902,-2.9267,0.7988,0.1258
333,0.21285,0.20376,0.32978,0.64939,-2.9124,0.38337,0.12223
334,0.099492,0.18102,0.30445,0.56104,-2.3801,0.031607,0.14659
335,-0.0093186,0.13717,0.2476,0.42073,-1.7461,-0.22239,0.18232
336,-0.089871,0.080653,0.16023,0.23234,-1.5356,-0.41825,0.19758
337,-0.13502,0.021538,0.05142,0.014068,-1.966,-0.63555,0.1703
338,-0.14671,-0.031081,-0.064536,-0.19998,-2.8017,-0.91553,0.098842
339,-0.13307,-0.076554,-0.1675,-0.37927,-3.5452,-1.24,0.0010752
340,-0.10449,-0.11651,-0.23961,-0.50595,-3.7595,-1.5609,-0.10514
341,-0.068434,-0.15126,-0.27274,-0.57611,-3.3113,-1.8468,-0.20615
342,-0.025559,-0.17594,-0.27339,-0.59884,-2.4522,-2.1079,-0.2945
343,0.026085,-0.17887,-0.25617,-0.5839,-1.6132,-2.3606,-0.36271
344,0.085525,-0.16003,-0.23246,-0.54785,-1.1273,-2.5704,-0.40818
345,0.14334,-0.13242,-0.2133,-0.50952,-1.0308,-2.6393,-0.43319
346,0.18394,-0.11163,-0.20745,-0.48061,-1.1247,-2.4623,-0.43904
347,0.19563,-0.10091,-0.21232,-0.4595,-1.176,-2.0004,-0.43092
348,0.16575,-0.088896,-0.21947,-0.43644,-1.1039,-1.3056,-0.41468
349,0.097543,-0.067784,-0.22012,-0.40071,-0.96588,-0.48354,-0.38967
350,0.011469,-0.036927,-0.20388,-0.34387,-0.88467,0.33465,-0.34387
351,-0.072656,-0.0050961,-0.1662,-0.26267,-0.95678,1.0418,-0.26299
352,-0.14541,0.017316,-0.11293,-0.16718,-1.1257,1.5952,-0.14509
353,-0.20583,0.024786,-0.053817,-0.068109,-1.1754,1.9844,-0.0099683
354,-0.24903,0.024786,0.003024,0.025761,-0.94152,2.2039,0.11736
355,-0.27923,0.025111,0.052395,0.11833,-0.4686,2.2403,0.2148
356,-0.29515,0.030308,0.091372,0.20863,0.081952,2.0824,0.27229
357,-0.29028,0.040052,0.11898,0.29503,0.58216,1.7596,0.29438
358,-0.26559,0.051096,0.13944,0.37298,0.96121,1.3373,0.29503
359,-0.22791,0.063438,0.15503,0.43469,1.1675,0.87708,0.28983
360,-0.17919,0.079029,0.16413,0.47302,1.1743,0.41585,0.28821
361,-0.11845,0.10599,0.169,0.49738,0.97582,0.014717,0.30022
362,-0.039201,0.14626,0.17615,0.52402,0.71468,-0.23441,0.33335
363,0.053369,0.19239,0.19401,0.56494,0.60879,-0.26819,0.38857
364,0.15244,0.23494,0.22617,0.62113,0.76437,-0.096042,0.45678
365,0.2528,0.2619,0.26774,0.6848,1.1249,0.2135,0.53538
366,0.35836,0.27229,0.30899,0.75203,1.5439,0.57176,0.626
367,0.47205,0.27164,0.34472,0.81699,1.8268,0.89105,0.72247
368,0.58183,0.27164,0.36908,0.86376,1.6729,1.0733,0.80757
369,0.66108,0.27586,0.37558,0.86864,0.78743,1.0278,0.85434
370,0.68252,0.28008,0.35999,0.81179,-0.7161,0.73124,0.83291
371,0.63153,0.27229,0.32101,0.6848,-2.1771,0.25735,0.72637
372,0.51622,0.24436,0.2606,0.49706,-2.9621,-0.23344,0.54578
373,0.36259,0.19369,0.18557,0.27034,-2.7562,-0.55467,0.3314
374,0.19986,0.12515,0.10177,0.028684,-1.6457,-0.62645,0.12483
375,0.054344,0.051096,0.010495,-0.20355,-0.022636,-0.51147,-0.054467
376,-0.061937,-0.017114,-0.085324,-0.40299,1.5933,-0.35459,-0.2016
377,-0.14736,-0.073306,-0.17302,-0.55142,2.8129,-0.30165,-0.32146
378,-0.20518,-0.11293,-0.23603,-0.63587,3.5165,-0.46113,-0.42085
379,-0.24123,-0.1334,-0.26494,-0.65471,3.7633,-0.8405,-0.50497
380,-0.25585,-0.13599,-0.2591,-0.61346,3.7159,-1.3284,-0.56929
381,-0.25098,-0.12755,-0.22629,-0.52251,3.5171,-1.7428,-0.60339
382,-0.22694,-0.11131,-0.17952,-0.40623,3.1943,-1.9208,-0.59819
383,-0.19121,-0.092469,-0.13372,-0.29223,2.6281,-1.7876,-0.55597
384,-0.15483,-0.074605,-0.098641,-0.19966,1.6514,-1.3836,-0.48224
385,-0.12268,-0.059014,-0.079802,-0.13729,0.32393,-0.82426,-0.39097
386,-0.092469,-0.047971,-0.072981,-0.10156,-0.98569,-0.2435,-0.29482
387,-0.063886,-0.042124,-0.068758,-0.077528,-1.8731,0.2515,-0.19706
388,-0.031081,-0.038876,-0.054467,-0.051544,-2.1677,0.60847,-0.097666
389,0.0072465,-0.035303,-0.02361,-0.011917,-1.9247,0.82381,-0.0037969
390,0.040702,-0.030756,0.016991,0.047847,-1.3576,0.91736,0.06831
391,0.063113,-0.02361,0.057917,0.12223,-0.7174,0.91119,0.10501
392,0.073182,-0.0057458,0.093321,0.19596,-0.19413,0.83258,0.11021
393,0.072858,0.021538,0.11801,0.25702,0.12743,0.71273,0.090072
394,0.063763,0.047847,0.12807,0.29438,0.26125,0.59255,0.058891
395,0.048822,0.058566,0.1245,0.30672,0.27456,0.51752,0.03453
396,0.03453,0.0433,0.11021,0.30185,0.23266,0.54155,0.029333
397,0.031607,0.0075714,0.093321,0.2908,0.18004,0.68674,0.047523
398,0.048822,-0.032705,0.083251,0.28008,0.13522,0.91508,0.078704
399,0.080653,-0.061937,0.086824,0.27554,0.098193,1.1441,0.10371
400,0.10859,-0.072656,0.097868,0.27489,0.067011,1.2909,0.11313
401,0.11573,-0.059339,0.10631,0.27261,0.038103,1.312,0.11378
402,0.095594,-0.027183,0.10761,0.26872,0.0085458,1.209,0.12418
403,0.050121,0.01894,0.10242,0.26774,-0.018413,1.0132,0.15861
404,-0.0041217,0.070259,0.092996,0.26709,-0.034004,0.7673,0.2135
405,-0.051219,0.12515,0.083576,0.26482,-0.034978,0.51752,0.26937
406,-0.081751,0.17745,0.079354,0.25637,-0.014516,0.3051,0.30152
407,-0.096042,0.22097,0.081303,0.24013,0.038753,0.15991,0.29795
408,-0.098965,0.24663,0.087474,0.21642,0.12418,0.071234,0.25572
409,-0.094418,0.25085,0.09462,0.19141,0.22389,-0.025234,0.18394
410,-0.08305,0.23754,0.10112,0.17322,0.3025,-0.20355,0.099492
411,-0.060313,0.2122,0.10306,0.16153,0.32621,-0.47996,0.019589
412,-0.019712,0.17842,0.096569,0.15179,0.29048,-0.78333,-0.041799
413,0.042975,0.13814,0.081627,0.14561,0.22812,-0.98179,-0.075579
414,0.1232,0.094295,0.061814,0.14237,0.19953,-0.95906,-0.078827
415,0.20538,0.05142,0.047847,0.14302,0.25507,-0.68135,-0.05739
416,0.27034,0.01764,0.044599,0.14334,0.37915,-0.22856,-0.020362
417,0.3038,0.0033489,0.053044,0.14529,0.49283,0.2476,0.025761
418,0.30087,0.0085458,0.072858,0.15666,0.50907,0.60002,0.082602
419,0.27099,0.029333,0.10177,0.17777,0.39702,0.74943,0.15146
420,0.22974,0.056617,0.13652,0.207,0.21415,0.70396,0.23201
421,0.19693,0.083901,0.16738,0.23721,0.058241,0.53636,0.32101
422,0.18719,0.10339,0.18622,0.25443,-0.0047713,0.32978,0.40481
423,0.20408,0.11248,0.18751,0.25572,0.022837,0.11606,0.461
424,0.23754,0.11411,0.17355,0.24728,0.094945,-0.12333,0.47302
425,0.26384,0.11736,0.15471,0.23299,0.12743,-0.40461,0.43957
426,0.25378,0.12743,0.13944,0.207,0.036154,-0.71772,0.3772
427,0.19141,0.1349,0.12483,0.1625,-0.2016,-1.0149,0.30477
428,0.081627,0.12548,0.10112,0.10079,-0.51992,-1.2238,0.23916
429,-0.052193,0.090397,0.067011,0.033556,-0.80022,-1.2676,0.19758
430,-0.18959,0.034206,0.021863,-0.033354,-0.96945,-1.1159,0.17257
431,-0.31399,-0.026533,-0.026858,-0.10319,-1.0042,-0.82653,0.14399
432,-0.40753,-0.072656,-0.072006,-0.17432,-0.91066,-0.50985,0.10306
433,-0.45723,-0.097991,-0.10676,-0.24253,-0.75313,-0.27144,0.057267
434,-0.45463,-0.10481,-0.12527,-0.2997,-0.6232,-0.14574,0.020888
435,-0.39876,-0.10286,-0.13404,-0.34744,-0.5826,-0.082725,0.0046481
436,-0.2958,-0.10579,-0.14281,-0.39097,-0.64659,0.030957,0.0078962
437,-0.16068,-0.1191,-0.1649,-0.44099,-0.70863,0.28918,0.021538
438,-0.025884,-0.14411,-0.20583,-0.4962,-0.59235,0.6835,0.030308
439,0.075456,-0.17659,-0.2591,-0.5498,-0.21622,1.0996,0.01829
440,0.11378,-0.21525,-0.31139,-0.59754,0.29665,1.388,-0.027833
441,0.079354,-0.2565,-0.34874,-0.62938,0.70851,1.4637,-0.10806
442,-0.013541,-0.29288,-0.36758,-0.64204,0.85434,1.3406,-0.2094
443,-0.13404,-0.30879,-0.36856,-0.64172,0.74326,1.0999,-0.31236
444,-0.24513,-0.30002,-0.36044,-0.64269,0.53084,0.83486,-0.40558
445,-0.32568,-0.27436,-0.35037,-0.66153,0.36129,0.5893,-0.48094
446,-0.37278,-0.24383,-0.34809,-0.69856,0.29243,0.37201,-0.53128
447,-0.39064,-0.22012,-0.34907,-0.73884,0.36486,0.16413,-0.555
448,-0.38545,-0.2055,-0.34192,-0.7593,0.56397,-0.073631,-0.55564
449,-0.35816,-0.19836,-0.32276,-0.74761,0.75398,-0.38057,-0.54493
450,-0.31724,-0.19446,-0.29775,-0.70733,0.7582,-0.76612,-0.53811
451,-0.26884,-0.18764,-0.27404,-0.65146,0.48374,-1.1988,-0.54038
452,-0.21979,-0.17497,-0.2565,-0.59332,-0.017114,-1.6067,-0.54298
453,-0.17042,-0.15808,-0.23831,-0.53616,-0.58228,-1.8838,-0.53258
454,-0.12333,-0.13697,-0.21655,-0.47314,-1.012,-1.9296,-0.49848
455,-0.081751,-0.11261,-0.18342,-0.39551,-1.1598,-1.6921,-0.43254
456,-0.045047,-0.085648,-0.14314,-0.30132,-1.0165,-1.1926,-0.34257
457,-0.015165,-0.061613,-0.10286,-0.19933,-0.69012,-0.52414,-0.23603
458,0.0088706,-0.040175,-0.069083,-0.10416,-0.30977,0.19304,-0.12008
459,0.029009,-0.022961,-0.040175,-0.025559,0.0085458,0.84493,-0.0028225
460,0.048822,-0.011267,-0.015815,0.036804,0.18199,1.3692,0.10242
461,0.075131,-0.0031473,0.0049729,0.084876,0.14659,1.7359,0.18102
462,0.10631,0.0033489,0.023812,0.12645,-0.15353,1.9327,0.21967
463,0.13879,0.01017,0.038753,0.15861,-0.65569,1.9574,0.21188
464,0.16575,0.014068,0.048172,0.1768,-1.15,1.8155,0.16445
465,0.18394,0.017316,0.048497,0.17647,-1.4047,1.5137,0.094295
466,0.19401,0.024137,0.045574,0.16835,-1.2748,1.0775,0.023487
467,0.19628,0.042001,0.050121,0.17387,-0.80055,0.57501,-0.025559
468,0.19271,0.069285,0.069934,0.207,-0.17984,0.11736,-0.036278
469,0.18167,0.10177,0.10469,0.26807,0.37168,-0.20355,-0.0093186
470,0.15763,0.13067,0.14334,0.34082,0.75138,-0.36433,0.040377
471,0.12093,0.14724,0.1742,0.40838,1.0057,-0.4137,0.092346
472,0.079354,0.14626,0.19239,0.45581,1.2113,-0.43449,0.13555
473,0.045574,0.13002,0.20116,0.47692,1.4039,-0.49133,0.1677
474,0.023162,0.10469,0.19693,0.46782,1.5936,-0.61184,0.18102
475,0.011794,0.074157,0.18004,0.42885,1.7739,-0.796,0.16738
476,0.010819,0.037454,0.15406,0.36356,1.8869,-1.0191,0.12288
477,0.019914,0.0036737,0.12418,0.27879,1.8401,-1.227,0.055968
478,0.035505,-0.01614,0.092671,0.18979,1.567,-1.3573,-0.011917
479,0.047198,-0.013866,0.063113,0.11183,1.0833,-1.3846,-0.067784
480,0.042651,0.0088706,0.03583,0.053369,0.47205,-1.3459,-0.10806
481,0.016016,0.045574,0.011469,0.019589,-0.16295,-1.2988,-0.13729
482,-0.029457,0.084226,-0.0067202,0.014717,-0.72097,-1.2702,-0.16165
483,-0.0824,0.11606,-0.013541,0.032257,-1.1286,-1.2371,-0.18374
484,-0.12625,0.1349,-0.008669,0.064737,-1.3742,-1.1507,-0.2042
485,-0.15158,0.14074,0.00010078,0.10339,-1.4888,-0.98082,-0.21752
486,-0.15646,0.1362,0.011794,0.14302,-1.495,-0.72714,-0.22012
487,-0.14671,0.13165,0.027709,0.1755,-1.4047,-0.42929,-0.2146
488,-0.1282,0.1297,0.050121,0.19986,-1.2293,-0.14216,-0.20388
489,-0.11033,0.12483,0.074482,0.2174,-0.98342,0.082927,-0.19219
490,-0.098316,0.10956,0.096893,0.23071,-0.71058,0.21772,-0.17594
491,-0.090521,0.086175,0.11703,0.24176,-0.48646,0.27294,-0.14899
492,-0.073631,0.066686,0.13327,0.25475,-0.3861,0.29015,-0.10611
493,-0.027183,0.066362,0.14367,0.27976,-0.44651,0.30834,-0.043423
494,0.062139,0.093645,0.14984,0.31906,-0.65666,0.33985,0.038753
495,0.18394,0.14139,0.15568,0.36291,-0.96912,0.39214,0.13425
496,0.3038,0.19109,0.16153,0.39702,-1.2891,0.48114,0.23071
497,0.3876,0.22129,0.1625,0.41878,-1.5138,0.5997,0.32166
498,0.41878,0.22259,0.15861,0.43664,-1.622,0.70136,0.40254
499,0.40091,0.19888,0.15568,0.45905,-1.6506,0.7241,0.4701
500,0.34959,0.16445,0.15991,0.47692,-1.6483,0.63965,0.52531
501,0.28561,0.1336,0.16673,0.4675,-1.6324,0.47205,0.56462
502,0.22812,0.11411,0.16218,0.40481,-1.5051,0.2921,0.57891
503,0.18589,0.10664,0.14009,0.27781,-1.0627,0.16705,0.55617
504,0.16348,0.10924,0.097868,0.11021,-0.17757,0.131,0.49803
505,0.16153,0.11573,0.046873,-0.04927,1.0067,0.18946,0.4165
506,0.17972,0.12158,0.0033489,-0.15483,2.1214,0.32491,0.32978
507,0.20895,0.12872,-0.017764,-0.18147,2.86,0.50745,0.2567
508,0.23429,0.13262,-0.011267,-0.13307,3.1007,0.69844,0.2161
509,0.24695,0.13035,0.021213,-0.026858,2.9945,0.85175,0.21025
510,0.24273,0.1232,0.067661,0.11183,2.8142,0.93977,0.22357
511,0.22389,0.11054,0.11573,0.25345,2.6736,0.94107,0.23071
512,0.18946,0.092346,0.14854,0.36876,2.4222,0.81179,0.21188
513,0.14107,0.069285,0.15763,0.43924,1.9207,0.50745,0.15471
514,0.082927,0.04395,0.14951,0.45548,1.1886,0.024461,0.066037
515,0.021213,0.017316,0.13132,0.41748,0.30055,-0.55694,-0.042774
516,-0.039851,-0.0067202,0.10696,0.32653,-0.71545,-1.0948,-0.15256
517,-0.097017,-0.023935,0.070584,0.18524,-1.9065,-1.4674,-0.2474
518,-0.14801,-0.041799,0.015692,-0.00022403,-3.2928,-1.6165,-0.31951
519,-0.19121,-0.064211,-0.053492,-0.21297,-4.6739,-1.547,-0.36985
520,-0.23279,-0.09929,-0.13307,-0.43417,-4.9698,-1.3001,-0.40981
521,-0.27761,-0.15581,-0.21427,-0.64269,-4.9695,-0.95126,-0.45073
522,-0.32958,-0.23538,-0.29125,-0.82361,-4.7388,-0.58618,-0.5001
523,-0.38382,-0.33413,-0.35784,-0.96653,-3.209,-0.26104,-0.5472
524,-0.43189,-0.428,-0.40558,-1.0516,-1.5668,0.0091954,-0.57156
525,-0.46827,-0.48386,-0.42735,-1.0659,-0.25682,0.23234,-0.55727
526,-0.48971,-0.48516,-0.42182,-1.0084,0.60099,0.43502,-0.49978
527,-0.48906,-0.43839,-0.39032,-0.89864,1.1649,0.65654,-0.41435
528,-0.45495,-0.37018,-0.34549,-0.76774,1.604,0.94497,-0.32243
529,-0.38674,-0.31301,-0.30327,-0.64334,1.9382,1.3039,-0.24318
530,-0.2958,-0.28313,-0.26916,-0.53648,2.126,1.6534,-0.19413
531,-0.19803,-0.27306,-0.24058,-0.44878,2.188,1.8801,-0.18407
532,-0.10611,-0.26039,-0.21427,-0.37765,2.1971,1.9054,-0.20648
533,-0.030756,-0.23214,-0.18926,-0.32341,2.1714,1.7118,-0.2448
534,0.030308,-0.18959,-0.16685,-0.28346,2.0305,1.3162,-0.28281
535,0.083901,-0.13957,-0.14639,-0.25585,1.704,0.73384,-0.30782
536,0.13002,-0.091495,-0.12722,-0.23181,1.2513,-0.010618,-0.31139
537,0.16185,-0.050569,-0.10416,-0.19998,0.83226,-0.84927,-0.28313
538,0.17517,-0.016464,-0.076554,-0.15548,0.57404,-1.661,-0.21947
539,0.16023,0.015692,-0.047321,-0.10644,0.51622,-2.2937,-0.13242
540,0.11768,0.052395,-0.024585,-0.067459,0.60911,-2.6429,-0.04115
541,0.057592,0.096244,-0.010943,-0.044398,0.71143,-2.6981,0.041351
542,0.00010078,0.14854,0.00010078,-0.03173,0.64712,-2.5188,0.11606
543,-0.034329,0.207,0.014392,-0.013866,0.33433,-2.169,0.19499
544,-0.042124,0.26384,0.039727,0.024137,-0.12333,-1.684,0.28593
545,-0.037902,0.30672,0.075456,0.082927,-0.51407,-1.1085,0.38207
546,-0.03173,0.32198,0.11281,0.15146,-0.67972,-0.53551,0.46587
547,-0.027183,0.30834,0.14432,0.21512,-0.59949,-0.077203,0.51687
548,-0.016464,0.27132,0.1651,0.26807,-0.34582,0.19531,0.52402
549,0.0036737,0.22682,0.17322,0.30867,-0.007045,0.28658,0.49608
550,0.03583,0.19499,0.17322,0.34505,0.36778,0.25183,0.44704
551,0.073832,0.18492,0.1703,0.38467,0.75333,0.16705,0.38272
552,0.10436,0.19271,0.17322,0.42722,1.1061,0.092671,0.30834
553,0.11248,0.19726,0.18329,0.4649,1.3558,0.058241,0.22909
554,0.091372,0.18264,0.19726,0.49348,1.4169,0.070909,0.15406
555,0.055968,0.14789,0.21025,0.50875,1.247,0.1271,0.092671
556,0.032257,0.10209,0.21642,0.50972,0.88877,0.2174,0.053694
557,0.038428,0.058566,0.207,0.49446,0.44801,0.31939,0.039727
558,0.06831,0.025761,0.18264,0.46782,0.058891,0.41163,0.042975
559,0.10436,0.00042559,0.15503,0.43534,-0.16977,0.48374,0.048497
560,0.1284,-0.027508,0.13327,0.40481,-0.19543,0.53181,0.053369
561,0.13295,-0.061937,0.11963,0.3837,0.00042559,0.54968,0.060515
562,0.11638,-0.097341,0.11606,0.3798,0.42397,0.53116,0.074482
563,0.078704,-0.1217,0.12255,0.39604,0.99401,0.48212,0.096244
564,0.01829,-0.11488,0.13587,0.42365,1.5436,0.42787,0.1245
565,-0.055441,-0.067784,0.15536,0.44996,1.9148,0.39214,0.15893
566,-0.1217,0.0056225,0.17647,0.461,2.0084,0.37623,0.19434
567,-0.15256,0.06896,0.19044,0.44249,1.7999,0.35284,0.22779
568,-0.13729,0.088773,0.18751,0.39019,1.3802,0.28366,0.2593
569,-0.081751,0.054993,0.1625,0.31971,0.92061,0.16965,0.29373
570,0.0036737,-0.0024977,0.11995,0.24663,0.55877,0.057917,0.32653
571,0.10339,-0.03173,0.076431,0.18654,0.30542,0.0017248,0.3457
572,0.2057,0.011794,0.05207,0.14432,0.073507,0.024786,0.34082
573,0.30185,0.13197,0.054668,0.12288,-0.20875,0.12678,0.30932
574,0.3811,0.29405,0.078055,0.11995,-0.55922,0.27976,0.258
575,0.43437,0.43892,0.10794,0.1323,-0.92138,0.43567,0.19596
576,0.45905,0.51265,0.13327,0.15536,-1.2098,0.54513,0.13327
577,0.461,0.49186,0.14854,0.18719,-1.3768,0.588,0.081303
578,0.44769,0.39377,0.15471,0.22909,-1.4047,0.56949,0.041351
579,0.4152,0.26547,0.15373,0.27229,-1.2634,0.50485,0.0091954
580,0.35252,0.15536,0.14854,0.3051,-0.95451,0.41683,-0.017764
581,0.25865,0.091372,0.14107,0.31841,-0.58098,0.34407,-0.042774
582,0.14886,0.071883,0.13425,0.30802,-0.28183,0.32198,-0.061613
583,0.04395,0.083576,0.12807,0.26872,-0.14899,0.36421,-0.057715
584,-0.039851,0.10047,0.11638,0.19856,-0.17692,0.44963,-0.017114
585,-0.087922,0.10664,0.092021,0.10371,-0.30359,0.52402,0.061489
586,-0.091495,0.095594,0.057917,0.01017,-0.50725,0.52402,0.15796
587,-0.049595,0.071234,0.023812,-0.05804,-0.79828,0.40189,0.24533
588,0.028034,0.045249,-0.0015233,-0.084999,-1.0887,0.18459,0.3038
589,0.12743,0.030957,-0.010293,-0.071032,-1.2127,-0.034978,0.32946
590,0.22779,0.034206,0.00010078,-0.023285,-1.0718,-0.1753,0.32198
591,0.3012,0.05207,0.021213,0.036479,-0.77814,-0.21005,0.28333
592,0.31906,0.067011,0.033881,0.084551,-0.57481,-0.17659,0.21642
593,0.27326,0.063438,0.02641,0.091047,-0.58065,-0.13307,0.12937
594,0.1768,0.035505,-0.0089938,0.029333,-0.73364,-0.11553,0.029009
595,0.053694,-0.015815,-0.069083,-0.10676,-0.90351,-0.12268,-0.081751
596,-0.072331,-0.084024,-0.14476,-0.2906,-0.90319,-0.13015,-0.18569
597,-0.18244,-0.15516,-0.2159,-0.46957,-0.50855,-0.10124,-0.26202
598,-0.2591,-0.21265,-0.26624,-0.593,0.37753,0.0043233,-0.2945
599,-0.28898,-0.24675,-0.28183,-0.63555,1.5511,0.19726,-0.28021
600,-0.27274,-0.2539,-0.26819,-0.60307,2.6187,0.44314,-0.22564
601,-0.22467,-0.24318,-0.23701,-0.52381,3.2245,0.68804,-0.14379
602,-0.16718,-0.22402,-0.20128,-0.43027,3.2154,0.90144,-0.050569
603,-0.11975,-0.20258,-0.17075,-0.35134,2.7256,1.0658,0.03453
604,-0.092469,-0.18114,-0.14639,-0.2906,2.0886,1.145,0.091696
605,-0.086623,-0.15841,-0.12657,-0.24188,1.5108,1.0755,0.11411
606,-0.091495,-0.13567,-0.10579,-0.19641,0.8472,0.804,0.10274
607,-0.096692,-0.11456,-0.081751,-0.14541,-0.14736,0.36324,0.069934
608,-0.096367,-0.095068,-0.052193,-0.081751,-1.3946,-0.10936,0.03518
609,-0.089221,-0.07493,-0.018413,-0.0060706,-2.5418,-0.47249,0.009845
610,-0.076879,-0.058365,0.015042,0.069934,-3.2548,-0.68979,-0.013541
611,-0.064536,-0.047321,0.038428,0.12515,-3.4601,-0.81971,-0.054467
612,-0.055766,-0.043423,0.040702,0.14496,-3.3172,-0.94152,-0.12073
613,-0.054792,-0.048945,0.023812,0.12385,-2.9605,-1.0841,-0.19998
614,-0.057715,-0.062912,-0.0076946,0.066686,-2.4694,-1.214,-0.27339
615,-0.061937,-0.079477,-0.044073,-0.013541,-1.9371,-1.2598,-0.31724
616,-0.066485,-0.096042,-0.073955,-0.09929,-1.5372,-1.1689,-0.32081
617,-0.073631,-0.10903,-0.09117,-0.17075,-1.4307,-0.94314,-0.29547
618,-0.085973,-0.11586,-0.09929,-0.21785,-1.5609,-0.63945,-0.26137
619,-0.11228,-0.11586,-0.10221,-0.25098,-1.6856,-0.35296,-0.24545
620,-0.16198,-0.11456,-0.10709,-0.29288,-1.6512,-0.20453,-0.27176
621,-0.23538,-0.12235,-0.1269,-0.36888,-1.4628,-0.27923,-0.34939
622,-0.32373,-0.14216,-0.16653,-0.48126,-1.1754,-0.55402,-0.4647
623,-0.40363,-0.1727,-0.21849,-0.60469,-0.7645,-0.88175,-0.58228
624,-0.45366,-0.20648,-0.26657,-0.69921,-0.20063,-1.0705,-0.66575
625,-0.46632,-0.23603,-0.2997,-0.73364,0.46068,-0.98666,-0.69304
626,-0.44846,-0.25812,-0.31399,-0.70083,1.1087,-0.63068,-0.66933
627,-0.40883,-0.27014,-0.31269,-0.62158,1.6768,-0.123,-0.61216
628,-0.35816,-0.26884,-0.29677,-0.52284,2.1084,0.36259,-0.54558
629,-0.30522,-0.25325,-0.27079,-0.4267,2.34,0.68739,-0.47932
630,-0.25422,-0.22564,-0.23506,-0.3416,2.3468,0.81342,-0.41468
631,-0.20453,-0.18926,-0.18926,-0.26332,2.1679,0.79685,-0.35037
632,-0.15451,-0.14834,-0.13827,-0.18244,1.884,0.74488,-0.2906
633,-0.10774,-0.10968,-0.087272,-0.097666,1.5787,0.74878,-0.23896
634,-0.071032,-0.075904,-0.042774,-0.012567,1.3221,0.85207,-0.19413
635,-0.050894,-0.04862,-0.0080194,0.06896,1.1447,1.0528,-0.15093
636,-0.046347,-0.024909,0.01829,0.14237,1.0541,1.3068,-0.11098
637,-0.04862,-0.0044465,0.038103,0.20668,1.0271,1.5277,-0.073306
638,-0.045697,0.012119,0.050121,0.2593,1.0278,1.6215,-0.037252
639,-0.030431,0.021863,0.055318,0.29957,1.0291,1.5208,0.0017248
640,-0.0073698,0.029333,0.057592,0.32621,1.0203,1.2126,0.055318
641,0.015367,0.039402,0.062139,0.3366,0.99758,0.74521,0.1232
642,0.029333,0.054993,0.06831,0.32588,0.94886,0.21058,0.19466
643,0.029983,0.078379,0.076431,0.30087,0.84817,-0.29223,0.25962
644,0.022188,0.10177,0.086175,0.27554,0.68187,-0.69044,0.31419
645,0.01017,0.11736,0.099492,0.26612,0.45223,-0.9636,0.35544
646,-0.0037969,0.12028,0.11768,0.27684,0.13002,-1.1325,0.3798
647,-0.020037,0.11118,0.13944,0.29503,-0.38252,-1.2364,0.38045
648,-0.035628,0.097868,0.15861,0.30347,-1.114,-1.3121,0.36096
649,-0.044073,0.0852,0.16868,0.29405,-1.9786,-1.3651,0.3366
650,-0.0405,0.075456,0.16413,0.26514,-2.8517,-1.3758,0.31744
651,-0.023935,0.071234,0.14919,0.21577,-3.5442,-1.3241,0.30542
652,-0.0034721,0.067336,0.1284,0.15536,-3.8576,-1.2238,0.29015
653,0.015692,0.060515,0.10274,0.098193,-3.6913,-1.0984,0.26125
654,0.032257,0.051096,0.076755,0.053369,-3.119,-0.96588,0.2135
655,0.054993,0.042975,0.054993,0.025436,-2.344,-0.83271,0.14756
656,0.096569,0.038428,0.042975,0.017316,-1.571,-0.68557,0.079354
657,0.15666,0.038428,0.041676,0.024137,-0.91033,-0.5118,0.028684
658,0.22552,0.041676,0.046223,0.047847,-0.35264,-0.32373,0.0088706
659,0.28333,0.039727,0.047847,0.083576,0.20213,-0.18244,0.019264
660,0.31581,0.032906,0.044599,0.12385,0.81991,-0.14899,0.046223
661,0.32101,0.024786,0.035505,0.15309,1.4309,-0.22077,0.076106
662,0.30802,0.025436,0.024461,0.16056,1.895,-0.33088,0.10696
663,0.2895,0.040052,0.012443,0.14854,2.1114,-0.38804,0.14172
664,0.27424,0.070259,0.0059473,0.12548,2.0691,-0.3364,0.18102
665,0.26449,0.11151,0.0078962,0.10144,1.8388,-0.15711,0.22097
666,0.258,0.15373,0.025111,0.0865,1.539,0.14042,0.26352
667,0.2541,0.18719,0.059216,0.096244,1.2802,0.52174,0.30867
668,0.25183,0.2057,0.10112,0.1362,1.1155,0.93002,0.35317
669,0.25118,0.20928,0.13749,0.19271,1.0375,1.2987,0.38565
670,0.2515,0.20538,0.15926,0.24566,1.0064,1.5702,0.39637
671,0.24306,0.20733,0.16218,0.27976,0.96186,1.7144,0.3785
672,0.22422,0.22129,0.15471,0.29145,0.85824,1.7154,0.33498
673,0.19531,0.24436,0.14821,0.28626,0.68382,1.5715,0.26807
674,0.16543,0.26287,0.14789,0.27651,0.44639,1.3081,0.18524
675,0.14367,0.26579,0.15471,0.27229,0.1323,0.98881,0.095594
676,0.13652,0.25085,0.16315,0.27391,-0.27469,0.70201,0.011469
677,0.15114,0.22357,0.1651,0.27229,-0.75573,0.51557,-0.055441
678,0.18816,0.18751,0.16153,0.25962,-1.2498,0.42852,-0.094093
679,0.23526,0.14919,0.14984,0.24241,-1.6103,0.36453,-0.09994
680,0.29145,0.11021,0.1349,0.23689,-1.6496,0.22097,-0.071032
681,0.36064,0.077405,0.12613,0.26449,-1.279,-0.058365,-0.012242
682,0.44346,0.062139,0.13392,0.33985,-0.5943,-0.46015,0.066362
683,0.52889,0.072208,0.16608,0.46425,0.13717,-0.91196,0.15016
684,0.5932,0.10242,0.21837,0.61918,0.69032,-1.3144,0.22584
685,0.61366,0.14367,0.28008,0.77282,1.0388,-1.5866,0.28788
686,0.57241,0.18232,0.3353,0.89137,1.2363,-1.6977,0.3353
687,0.4688,0.2148,0.37136,0.94854,1.3256,-1.6506,0.37298
688,0.32361,0.23656,0.38142,0.93522,1.326,-1.4446,0.40156
689,0.16868,0.24176,0.36226,0.85272,1.237,-1.0851,0.41456
690,0.034206,0.22065,0.31322,0.71403,1.0616,-0.60242,0.40968
691,-0.06551,0.16445,0.24273,0.53246,0.70883,-0.059339,0.38792
692,-0.12852,0.074806,0.15698,0.31159,0.095919,0.46782,0.34829
693,-0.17497,-0.037577,0.056617,0.041027,-0.7541,0.8839,0.27619
694,-0.23019,-0.15061,-0.063886,-0.28378,-1.7389,1.1035,0.15373
695,-0.30782,-0.24123,-0.19641,-0.64594,-2.663,1.0905,-0.016789
696,-0.39616,-0.29125,-0.32731,-1.0058,-3.31,0.89365,-0.21525
697,-0.47119,-0.30132,-0.44294,-1.3098,-3.4744,0.5958,-0.40721
698,-0.51115,-0.28216,-0.52998,-1.5112,-3.0001,0.26514,-0.55857
699,-0.51082,-0.24675,-0.58293,-1.5892,-1.912,-0.055766,-0.64692
700,-0.48451,-0.20843,-0.59852,-1.5535,-0.43027,-0.31366,-0.66088
701,-0.45366,-0.17789,-0.58553,-1.4352,1.0788,-0.42832,-0.60761
702,-0.4267,-0.15451,-0.54817,-1.2738,2.228,-0.32308,-0.5066
703,-0.40461,-0.13599,-0.49263,-1.1036,2.8386,0.0085458,-0.38447
704,-0.38772,-0.12333,-0.42572,-0.94964,2.9481,0.48147,-0.26624
705,-0.37992,-0.12203,-0.36044,-0.82231,2.7317,0.94464,-0.17497
706,-0.38155,-0.13502,-0.30977,-0.7213,2.3455,1.2464,-0.12592
707,-0.38869,-0.15905,-0.27988,-0.63782,1.8538,1.2925,-0.12852
708,-0.39389,-0.18439,-0.26559,-0.56182,1.2779,1.0755,-0.17822
709,-0.39097,-0.20193,-0.2591,-0.48061,0.66368,0.65361,-0.25585
710,-0.38057,-0.20453,-0.25033,-0.39227,0.066686,0.12255,-0.33672
711,-0.36596,-0.19316,-0.23019,-0.301,-0.4176,-0.38934,-0.40071
712,-0.35849,-0.17335,-0.19673,-0.2133,-0.66088,-0.77164,-0.43774
713,-0.36336,-0.14509,-0.15386,-0.1308,-0.61638,-0.97497,-0.44586
714,-0.37018,-0.10936,-0.10709,-0.056416,-0.3848,-1.0062,-0.4254
715,-0.35784,-0.068758,-0.067134,0.0049729,-0.15321,-0.91683,-0.37992
716,-0.31626,-0.024585,-0.039526,0.060515,-0.059664,-0.77424,-0.31951
717,-0.25,0.013418,-0.016464,0.11703,-0.12203,-0.63912,-0.2526
718,-0.17237,0.043625,0.009845,0.1781,-0.28443,-0.54655,-0.18634
719,-0.09994,0.063438,0.041351,0.24208,-0.48029,-0.49815,-0.1256
720,-0.040175,0.072858,0.074157,0.29795,-0.63945,-0.46957,-0.071032
721,-0.0073698,0.074157,0.10371,0.33823,-0.71058,-0.43936,-0.02426
722,-0.0031473,0.070584,0.13002,0.36064,-0.67777,-0.40071,0.021863
723,-0.021337,0.064737,0.15438,0.3733,-0.55857,-0.35102,0.072208
724,-0.053492,0.057592,0.17777,0.38662,-0.39681,-0.27988,0.13035
725,-0.088247,0.049472,0.19596,0.40351,-0.23928,-0.17302,0.18751
726,-0.11196,0.042326,0.20505,0.41975,-0.11975,-0.016464,0.23234
727,-0.10579,0.038428,0.20473,0.4308,-0.047321,0.1781,0.25345
728,-0.056416,0.037129,0.19823,0.43924,-0.018413,0.38467,0.25378
729,0.039402,0.038428,0.18914,0.44704,-0.013541,0.57761,0.24598
730,0.17192,0.035505,0.18102,0.45386,-0.0015233,0.74553,0.2463
731,0.32491,0.028684,0.1781,0.45905,0.058241,0.88553,0.25995
732,0.47692,0.024786,0.18134,0.46393,0.22779,1.0021,0.28431
733,0.60911,0.044275,0.18784,0.4727,0.53993,1.0944,0.30964
734,0.70818,0.099167,0.19434,0.49056,0.95861,1.1373,0.32718
735,0.75788,0.18719,0.20376,0.51525,1.4192,1.1061,0.32881
736,0.74294,0.28658,0.2187,0.5422,1.8245,0.99758,0.31679
737,0.6692,0.36973,0.23851,0.56267,2.0522,0.84298,0.29957
738,0.55617,0.41715,0.25735,0.56981,1.9798,0.71468,0.28658
739,0.43112,0.42138,0.26937,0.57014,1.5653,0.67732,0.28528
740,0.31809,0.38305,0.27164,0.56299,0.91638,0.72994,0.28853
741,0.23136,0.31484,0.26644,0.54545,0.18914,0.80725,0.28496
742,0.1768,0.23201,0.2489,0.5107,-0.49945,0.82089,0.26482
743,0.15081,0.15341,0.21967,0.45613,-1.1712,0.72507,0.22162
744,0.14269,0.093321,0.17939,0.38532,-1.9549,0.53343,0.15861
745,0.13717,0.055318,0.13652,0.30282,-2.9027,0.30737,0.092021
746,0.13067,0.040702,0.098193,0.21317,-3.8654,0.11703,0.031282
747,0.1284,0.045574,0.064413,0.12288,-4.5803,-0.0073698,-0.013866
748,0.13457,0.056942,0.029009,0.040377,-4.7902,-0.093444,-0.042449
749,0.14107,0.059541,-0.011917,-0.03173,-4.3601,-0.21525,-0.063886
750,0.14237,0.044924,-0.051544,-0.088247,-3.3431,-0.44618,-0.084024
751,0.1336,0.01829,-0.078827,-0.1282,-1.9783,-0.8012,-0.098965
752,0.11411,-0.0054209,-0.086298,-0.15093,-0.57741,-1.2166,-0.09994
753,0.0852,-0.01549,-0.076229,-0.16003,0.57891,-1.5525,-0.076879
754,0.050446,-0.012892,-0.058365,-0.15841,1.3295,-1.66,-0.034654
755,0.012768,-0.0083442,-0.042449,-0.14314,1.68,-1.4758,0.013743
756,-0.026858,-0.010943,-0.034654,-0.11423,1.7294,-1.0555,0.048172
757,-0.06551,-0.020037,-0.032055,-0.079477,1.6034,-0.53648,0.053369
758,-0.098965,-0.032055,-0.028482,-0.051219,1.3766,-0.077203,0.024786
759,-0.12755,-0.044073,-0.019388,-0.038876,1.0687,0.20116,-0.027833
760,-0.15613,-0.044723,-0.0028225,-0.037577,0.68739,0.25183,-0.0837
761,-0.18861,-0.033679,0.020564,-0.043748,0.26222,0.086824,-0.12495
762,-0.22337,-0.018413,0.042975,-0.051219,-0.13924,-0.24968,-0.14769
763,-0.24935,-0.014516,0.050121,-0.05739,-0.44391,-0.68654,-0.15581
764,-0.2565,-0.029782,0.034855,-0.060963,-0.5852,-1.1364,-0.15386
765,-0.2448,-0.068434,-0.0024977,-0.073631,-0.52674,-1.5249,-0.15386
766,-0.22012,-0.13372,-0.055441,-0.10741,-0.2867,-1.8052,-0.16295
767,-0.19283,-0.21297,-0.11391,-0.16815,0.087474,-1.9332,-0.18049
768,-0.16523,-0.27728,-0.16328,-0.24091,0.55487,-1.8809,-0.19706
769,-0.13469,-0.2919,-0.18926,-0.30522,1.0463,-1.6545,-0.19901
770,-0.090845,-0.23961,-0.18601,-0.34257,1.4591,-1.3089,-0.17465
771,-0.028807,-0.13794,-0.16263,-0.34517,1.6972,-0.92105,-0.12625
772,0.042001,-0.028482,-0.13047,-0.31171,1.7203,-0.57156,-0.067459
773,0.10242,0.05207,-0.10091,-0.25162,1.5618,-0.31009,-0.013866
774,0.1336,0.088773,-0.076229,-0.17497,1.3062,-0.13827,0.022512
775,0.13067,0.091372,-0.055116,-0.097017,1.0502,-0.007045,0.043625
776,0.10566,0.084551,-0.038227,-0.03303,0.85889,0.13717,0.057592
777,0.076106,0.082602,-0.025559,0.0026992,0.7543,0.31419,0.066037
778,0.055318,0.08585,-0.022636,0.0046481,0.71663,0.50258,0.063438
779,0.046223,0.084551,-0.030106,-0.023935,0.6848,0.67505,0.044599
780,0.042326,0.070584,-0.044723,-0.075255,0.61529,0.81179,0.011144
781,0.035505,0.039727,-0.065835,-0.13502,0.50128,0.90534,-0.03238
782,0.021863,0.0017248,-0.086948,-0.18731,0.36778,0.95244,-0.075904
783,0.0052977,-0.030756,-0.09994,-0.21849,0.23916,0.94594,-0.10481
784,-0.012242,-0.050569,-0.097666,-0.21785,0.12093,0.88845,-0.11228
785,-0.030756,-0.059014,-0.079802,-0.18569,0.0023744,0.7949,-0.10579
786,-0.046996,-0.057065,-0.04992,-0.12852,-0.10514,0.67473,-0.097666
787,-0.056091,-0.047646,-0.017439,-0.062912,-0.12235,0.53084,-0.092794
788,-0.05804,-0.031406,0.009845,-0.0021729,0.03518,0.37038,-0.097666
789,-0.061937,-0.014516,0.023162,0.039078,0.33595,0.19856,-0.11228
790,-0.070707,-0.0034721,0.022837,0.056942,0.61659,0.015692,-0.12495
791,-0.081101,-0.0011985,0.013418,0.053694,0.71468,-0.1662,-0.11618
792,-0.08305,-0.0044465,0.0043233,0.03453,0.57663,-0.2971,-0.072006
793,-0.075255,-0.0073698,0.00010078,0.0088706,0.29113,-0.31269,0.0072465
794,-0.062912,-0.0089938,-0.0011985,-0.018738,0.03518,-0.16653,0.10242
795,-0.04992,-0.012892,-0.0037969,-0.044398,-0.053492,0.14367,0.18654
796,-0.037577,-0.022636,-0.0096434,-0.061288,0.038103,0.58443,0.23721
797,-0.029457,-0.040175,-0.017439,-0.063561,0.20895,1.0885,0.25313
798,-0.027833,-0.059339,-0.022636,-0.050569,0.31939,1.5615,0.24825
799,-0.031081,-0.071682,-0.020362,-0.025559,0.28138,1.9087,0.23689
800,-0.035303,-0.073955,-0.0080194,0.0036737,0.10501,2.0548,0.22129
801,-0.035303,-0.06681,0.0095202,0.028359,-0.12268,1.9753,0.19758
802,-0.027833,-0.05804,0.023487,0.037454,-0.30457,1.7037,0.16315
803,-0.017114,-0.055766,0.021213,0.026735,-0.38739,1.3052,0.11606
804,-0.01549,-0.06681,0.0043233,-0.0011985,-0.37213,0.83388,0.062464
805,-0.02426,-0.0824,-0.020687,-0.038551,-0.30489,0.31354,0.0095202
806,-0.039526,-0.093444,-0.044073,-0.072006,-0.23116,-0.25065,-0.043099
807,-0.061613,-0.091495,-0.059339,-0.092145,-0.14346,-0.82166,-0.093769
808,-0.088572,-0.071032,-0.063886,-0.095393,-0.0050961,-1.3186,-0.13924
809,-0.11423,-0.038551,-0.055766,-0.081751,0.19953,-1.6389,-0.16912
810,-0.1308,-0.0044465,-0.038551,-0.05739,0.44898,-1.6921,-0.17172
811,-0.13112,0.019264,-0.017764,-0.025884,0.68837,-1.444,-0.14606
812,-0.11131,0.029009,0.0026992,0.0091954,0.85499,-0.93437,-0.096692
813,-0.073631,0.027385,0.018615,0.048497,0.92775,-0.28346,-0.038227
814,-0.027833,0.020239,0.029009,0.089423,0.91249,0.3431,0.01894
815,0.014068,0.013418,0.037778,0.13295,0.81179,0.79263,0.066686
816,0.044275,0.010495,0.049472,0.17095,0.6325,0.99564,0.10599
817,0.058566,0.0091954,0.065062,0.19726,0.40968,0.97647,0.14042
818,0.052395,0.003024,0.083251,0.19921,0.15146,0.83193,0.17062
819,0.026085,-0.013541,0.095919,0.17387,-0.19868,0.66791,0.19531
820,-0.014516,-0.0405,0.092346,0.1245,-0.7109,0.52012,0.20668
821,-0.056091,-0.072331,0.071883,0.061165,-1.3436,0.34829,0.19434
822,-0.088247,-0.098965,0.039078,-0.00054884,-1.9276,0.06961,0.15893
823,-0.10026,-0.11521,0.0017248,-0.047321,-2.3245,-0.37668,0.10826
824,-0.086948,-0.11228,-0.029782,-0.069083,-2.5211,-0.97172,0.051096
825,-0.048296,-0.079802,-0.039526,-0.057065,-2.5535,-1.6057,0.0039985
826,0.012768,-0.018738,-0.017114,-0.0047713,-2.4187,-2.1326,-0.013216
827,0.087474,0.063763,0.032257,0.086824,-2.0917,-2.4369,0.0049729
828,0.1664,0.15373,0.098842,0.19986,-1.5908,-2.4753,0.048497
829,0.23721,0.23526,0.16445,0.30477,-0.96912,-2.2723,0.09462
830,0.28593,0.28821,0.2096,0.37818,-0.25,-1.8935,0.12743
831,0.2947,0.29568,0.22259,0.40026,0.51947,-1.4213,0.13847
832,0.26157,0.25118,0.20116,0.36876,1.2233,-0.94022,0.12255
833,0.20083,0.15828,0.15341,0.29633,1.7407,-0.50822,0.076755
834,0.13327,0.039078,0.089423,0.20051,2.0253,-0.12657,0.0059473
835,0.078055,-0.077203,0.020239,0.091372,2.1165,0.24663,-0.076879
836,0.048172,-0.16815,-0.052843,-0.022636,2.075,0.6351,-0.15223
837,0.049796,-0.22629,-0.12235,-0.12333,1.9457,1.0356,-0.2068
838,0.073507,-0.25812,-0.17789,-0.19478,1.7128,1.4221,-0.23538
839,0.10696,-0.26819,-0.20843,-0.22986,1.3165,1.7265,-0.24513
840,0.13782,-0.25227,-0.20875,-0.22532,0.75788,1.8424,-0.24838
841,0.15893,-0.19641,-0.18017,-0.19154,0.092346,1.6885,-0.24708
842,0.16218,-0.09994,-0.13404,-0.14834,-0.56929,1.2746,-0.24415
843,0.1349,0.01764,-0.085648,-0.11943,-1.1163,0.72377,-0.24318
844,0.073507,0.13035,-0.046347,-0.11456,-1.5155,0.22357,-0.23863
845,-0.012242,0.2187,-0.026858,-0.13275,-1.7643,-0.072656,-0.2159
846,-0.10546,0.26839,-0.033679,-0.17075,-1.9104,-0.11975,-0.16198
847,-0.19089,0.27196,-0.068434,-0.22564,-2.1267,0.030957,-0.067134
848,-0.26169,0.22941,-0.12203,-0.29125,-2.5272,0.29275,0.064413
849,-0.30912,0.15536,-0.17724,-0.36076,-2.9979,0.58086,0.20538
850,-0.33283,0.070909,-0.21817,-0.4241,-3.3243,0.79653,0.31906
851,-0.3377,-0.0018481,-0.23376,-0.46957,-3.3558,0.82641,0.37688
852,-0.3312,-0.047971,-0.22369,-0.48354,-3.1047,0.60847,0.37168
853,-0.31431,-0.064536,-0.19478,-0.4673,-2.7055,0.17647,0.31419
854,-0.28605,-0.059989,-0.15548,-0.42832,-2.2693,-0.33737,0.22519
855,-0.24805,-0.045697,-0.11456,-0.37083,-1.8019,-0.76222,0.1297
856,-0.21005,-0.03303,-0.078178,-0.30002,-1.2602,-0.95938,0.045899
857,-0.18342,-0.026209,-0.054142,-0.22467,-0.59495,-0.86226,-0.017439
858,-0.16912,-0.029782,-0.044723,-0.16133,0.18459,-0.5118,-0.061288
859,-0.15711,-0.045047,-0.04992,-0.12495,0.94172,-0.022961,-0.097666
860,-0.14281,-0.071357,-0.065835,-0.12365,1.4432,0.45061,-0.13892
861,-0.12235,-0.10189,-0.083375,-0.14704,1.5563,0.76924,-0.19154
862,-0.10286,-0.12917,-0.093769,-0.17854,1.3393,0.84687,-0.25325
863,-0.086948,-0.15191,-0.093119,-0.20615,0.95796,0.6757,-0.32211
864,-0.073631,-0.1675,-0.084024,-0.22207,0.54545,0.32491,-0.38967
865,-0.062587,-0.17724,-0.073955,-0.22304,0.14432,-0.10611,-0.44781
866,-0.046347,-0.18147,-0.06616,-0.20323,-0.17302,-0.52998,-0.48549
867,-0.021012,-0.18017,-0.060638,-0.15873,-0.24935,-0.89442,-0.49393
868,0.0091954,-0.17172,-0.053817,-0.092794,0.013093,-1.1679,-0.47282
869,0.036804,-0.1636,-0.041799,-0.019063,0.52531,-1.3394,-0.43319
870,0.056292,-0.15808,-0.02426,0.05142,1.0518,-1.4021,-0.38512
871,0.067986,-0.15483,-0.0031473,0.10989,1.3526,-1.3488,-0.32893
872,0.074806,-0.14379,0.020564,0.16153,1.3172,-1.1962,-0.2552
873,0.074806,-0.11748,0.05142,0.21252,1.0018,-0.98439,-0.15646
874,0.064737,-0.072006,0.088773,0.26514,0.57891,-0.77002,-0.028807
875,0.044599,-0.012567,0.12905,0.31646,0.24078,-0.5956,0.11378
876,0.025761,0.049472,0.16608,0.36421,0.087799,-0.48419,0.24436
877,0.021213,0.11151,0.19369,0.40481,0.10242,-0.43449,0.3353
878,0.029009,0.1781,0.21155,0.43859,0.21123,-0.40948,0.37493
879,0.031607,0.25507,0.22454,0.46652,0.33595,-0.34809,0.37233
880,0.0078962,0.33303,0.23494,0.49251,0.40416,-0.20323,0.35252
881,-0.043748,0.39767,0.24501,0.52044,0.38467,0.016016,0.33205
882,-0.10611,0.43047,0.25572,0.54513,0.31257,0.23104,0.31809
883,-0.15548,0.41878,0.26092,0.56429,0.27359,0.35447,0.3025
884,-0.174,0.36194,0.25118,0.56494,0.32231,0.33758,0.27424
885,-0.14249,0.27781,0.22454,0.5435,0.48017,0.18687,0.22877
886,-0.051868,0.19726,0.19336,0.5081,0.78906,-0.019063,0.17452
887,0.090722,0.14594,0.17225,0.47789,1.2594,-0.16068,0.13002
888,0.2593,0.13067,0.17257,0.47107,1.7872,-0.15841,0.11216
889,0.41715,0.14302,0.18589,0.48439,2.2419,-0.013541,0.12483
890,0.53571,0.16478,0.19758,0.49251,2.5469,0.20538,0.15763
891,0.60424,0.18069,0.19466,0.46523,2.6629,0.41943,0.19174
892,0.62633,0.18037,0.17615,0.39052,2.5778,0.58118,0.21545
893,0.60749,0.16185,0.14561,0.28431,2.3225,0.67927,0.22519
894,0.54838,0.13002,0.11411,0.17322,1.9252,0.7228,0.22162
895,0.45028,0.093321,0.09462,0.083251,1.4127,0.71695,0.20538
896,0.32134,0.059541,0.087799,0.026735,0.82219,0.66076,0.17517
897,0.18134,0.032257,0.090397,0.0059473,0.22909,0.55032,0.13814
898,0.053044,0.011794,0.096244,0.015692,-0.22889,0.40903,0.10242
899,-0.044723,-0.0011985,0.099817,0.047198,-0.43579,0.29373,0.073832
900,-0.10189,-0.010293,0.098193,0.084876,-0.38025,0.27391,0.049796
901,-0.11878,-0.01549,0.092671,0.11703,-0.13307,0.39669,0.032906
902,-0.10871,-0.01549,0.086175,0.13684,0.22812,0.64192,0.023812
903,-0.086623,-0.012567,0.077405,0.14042,0.63997,0.92093,0.017965
904,-0.055766,-0.0067202,0.067011,0.1258,1.0103,1.1259,0.009845
905,-0.012892,0.0014,0.054019,0.10047,1.2129,1.1795,-0.0031473
906,0.045899,0.016341,0.039402,0.076431,1.158,1.059,-0.01614
907,0.11638,0.036479,0.021538,0.062464,0.82154,0.79068,-0.021012
908,0.19109,0.055643,0.0072465,0.065387,0.23721,0.44054,-0.010943
909,0.25605,0.071883,0.0014,0.081627,-0.48159,0.096569,0.019914
910,0.29568,0.087149,0.0078962,0.10761,-1.165,-0.1662,0.071883
911,0.3012,0.10242,0.030633,0.13814,-1.6717,-0.2958,0.13944
912,0.27034,0.11898,0.062789,0.16608,-1.9302,-0.27664,0.21025
913,0.2135,0.13295,0.089748,0.18004,-1.9471,-0.14834,0.27294
914,0.14496,0.14496,0.10371,0.1729,-1.7636,0.023812,0.31841
915,0.080653,0.15244,0.10306,0.14984,-1.4206,0.18557,0.3405
916,0.029009,0.15471,0.088773,0.11801,-0.9714,0.30542,0.34115
917,-0.0037969,0.14919,0.064413,0.083251,-0.53875,0.36616,0.32198
918,-0.024585,0.13327,0.034855,0.042326,-0.26397,0.35479,0.28333
919,-0.0405,0.10436,-0.0011985,-0.0093186,-0.13632,0.27456,0.22097
920,-0.054142,0.061814,-0.044073,-0.074605,-0.05739,0.15244,0.13782
921,-0.068434,0.0072465,-0.091495,-0.15093,0.053694,0.015042,0.045899
922,-0.086623,-0.052843,-0.13502,-0.22337,0.23624,-0.12625,-0.040175
923,-0.10871,-0.10774,-0.16945,-0.27631,0.48861,-0.25455,-0.11261
924,-0.13015,-0.14314,-0.18796,-0.29645,0.76275,-0.34484,-0.17172
925,-0.14476,-0.15451,-0.18796,-0.28151,0.97128,-0.3757,-0.21395
926,-0.14736,-0.14444,-0.17465,-0.2461,1.0148,-0.33543,-0.23831
927,-0.13892,-0.12073,-0.15678,-0.21037,0.82966,-0.23246,-0.24415
928,-0.12333,-0.095068,-0.14281,-0.18569,0.43274,-0.089546,-0.23668
929,-0.10741,-0.07493,-0.13372,-0.17497,-0.090196,0.064413,-0.22954
930,-0.099615,-0.065835,-0.12982,-0.17692,-0.61996,0.21025,-0.23376
931,-0.097666,-0.068434,-0.12852,-0.18407,-1.0416,0.34375,-0.25227
932,-0.10189,-0.080776,-0.12365,-0.18666,-1.2949,0.46003,-0.27501
933,-0.10286,-0.092794,-0.11163,-0.18114,-1.3962,0.55455,-0.28768
934,-0.095068,-0.095068,-0.093444,-0.16555,-1.3891,0.61886,-0.27858
935,-0.078503,-0.085648,-0.071032,-0.14087,-1.3021,0.63965,-0.24058
936,-0.055766,-0.068758,-0.051868,-0.11196,-1.1513,0.60294,-0.17302
937,-0.03173,-0.04927,-0.036602,-0.084349,-0.95711,0.5042,-0.087922
938,-0.010943,-0.033679,-0.02426,-0.061288,-0.7502,0.36389,-0.0050961
939,0.0023744,-0.025559,-0.019388,-0.046022,-0.56182,0.21967,0.058241
940,0.0091954,-0.027183,-0.020362,-0.040825,-0.41078,0.10599,0.099167
941,0.011794,-0.03173,-0.023935,-0.040825,-0.25747,0.03453,0.12223
942,0.012119,-0.034654,-0.024909,-0.041799,-0.0057458,0.0088706,0.14302
943,0.012119,-0.034654,-0.022636,-0.039201,0.39474,0.028034,0.17485
944,0.011144,-0.033679,-0.016789,-0.031081,0.84525,0.069934,0.21317
945,0.0049729,-0.036278,-0.0093186,-0.019063,1.1327,0.097868,0.23981
946,-0.011592,-0.040825,-0.0015233,-0.0047713,1.0681,0.072533,0.24046
947,-0.029782,-0.047646,0.0085458,0.013418,0.60424,-0.023285,0.21285
948,-0.039201,-0.054142,0.020239,0.038753,-0.14964,-0.17302,0.1625
949,-0.033679,-0.059339,0.03583,0.069934,-0.95548,-0.33315,0.10047
950,-0.014191,-0.061613,0.055318,0.10534,-1.5778,-0.45983,0.041027
951,0.013418,-0.063237,0.073507,0.14367,-1.8861,-0.52511,-0.0041217
952,0.041676,-0.056416,0.090397,0.18102,-1.8906,-0.51667,-0.030106
953,0.066037,-0.033679,0.10436,0.21642,-1.7081,-0.43839,-0.040175
954,0.0852,0.0072465,0.11768,0.2489,-1.4687,-0.31789,-0.035628
955,0.10501,0.059865,0.12515,0.27944,-1.2254,-0.19251,-0.021012
956,0.12385,0.11476,0.1258,0.30087,-0.9662,-0.098316,-0.0011985
957,0.13814,0.16121,0.11833,0.30185,-0.69953,-0.053492,0.022837
958,0.13717,0.19304,0.10079,0.26807,-0.4634,-0.059339,0.047523
959,0.11151,0.20051,0.081303,0.19628,-0.28963,-0.092145,0.064737
960,0.058566,0.17907,0.063113,0.09397,-0.23668,-0.11001,0.067661
961,-0.012892,0.13002,0.044599,-0.025884,-0.33348,-0.084349,0.06084
962,-0.090521,0.064413,0.019589,-0.14704,-0.51439,-0.016789,0.055968
963,-0.15905,-0.010943,-0.017439,-0.26169,-0.68979,0.065712,0.056292
964,-0.21297,-0.084674,-0.066485,-0.37245,-0.80802,0.13165,0.048822
965,-0.25098,-0.14574,-0.12592,-0.48321,-0.83855,0.15926,0.013418
966,-0.26981,-0.18309,-0.18861,-0.5813,-0.70343,0.14107,-0.058365
967,-0.26657,-0.19608,-0.24643,-0.64919,-0.28151,0.085525,-0.15288
968,-0.23506,-0.19316,-0.2919,-0.66673,0.49998,0.016341,-0.24091
969,-0.18407,-0.18471,-0.31821,-0.62288,1.5809,-0.040825,-0.30229
970,-0.12657,-0.16847,-0.31496,-0.52219,2.7694,-0.071357,-0.33153
971,-0.075579,-0.13599,-0.27891,-0.38252,3.8247,-0.072331,-0.33315
972,-0.038876,-0.075579,-0.21232,-0.22726,4.574,-0.050244,-0.31918
973,-0.011917,0.0095202,-0.12592,-0.070707,4.907,-0.02426,-0.2958
974,0.016016,0.10242,-0.035953,0.080978,4.7287,-0.045697,-0.26722
975,0.049472,0.1781,0.044275,0.21837,3.9634,-0.19056,-0.23538
976,0.081627,0.22129,0.10696,0.33433,2.6181,-0.49068,-0.19511
977,0.10306,0.23136,0.15081,0.423,0.85597,-0.90059,-0.13177
978,0.11573,0.2161,0.17907,0.48569,-1.0783,-1.3332,-0.04115
979,0.12613,0.19174,0.19336,0.51947,-2.8728,-1.7022,0.058891
980,0.14074,0.1638,0.18914,0.51232,-4.3052,-1.928,0.14009
981,0.15016,0.12807,0.1664,0.44898,-4.9691,-1.9543,0.17485
982,0.14594,0.078379,0.12028,0.31386,-4.9695,-1.7669,0.15276
983,0.11768,0.01829,0.054344,0.11216,-4.9695,-1.3914,0.084226
984,0.061489,-0.046022,-0.025559,-0.12398,-4.8412,-0.91196,-0.0018481
985,-0.023935,-0.10838,-0.11033,-0.35134,-3.4604,-0.44651,-0.076554
986,-0.12917,-0.15938,-0.18374,-0.53161,-1.6278,-0.10416,-0.12105
987,-0.23863,-0.18601,-0.23474,-0.64334,0.1729,0.05207,-0.14152
988,-0.32958,-0.18764,-0.25812,-0.68394,1.4156,0.008221,-0.15873
989,-0.38674,-0.17367,-0.25812,-0.6651,1.9087,-0.21037,-0.18569
990,-0.40169,-0.15191,-0.23733,-0.60891,1.795,-0.52284,-0.21817
991,-0.37798,-0.1308,-0.20745,-0.5407,1.3883,-0.796,-0.24773
992,-0.32925,-0.11391,-0.18179,-0.48679,0.98817,-0.88792,-0.26787
993,-0.26722,-0.10806,-0.16977,-0.46048,0.753,-0.74208,-0.27209
994,-0.20323,-0.11261,-0.16912,-0.4608,0.7254,-0.41176,-0.24968
995,-0.14606,-0.12365,-0.17335,-0.47737,0.89689,0.0069217,-0.19543
996,-0.11098,-0.14054,-0.17854,-0.5014,1.2185,0.42527,-0.12625
997,-0.10936,-0.1636,-0.18439,-0.52446,1.6144,0.76665,-0.074605
998,-0.14152,-0.18959,-0.19024,-0.542,1.9662,0.95958,-0.06616
999,-0.19348,-0.20908,-0.19446,-0.54752,2.1377,0.95893,-0.10124
1000,-0.24188,-0.21557,-0.19511,-0.53193,2.0526,0.78646,-0.15905
1001,-0.26397,-0.20518,-0.18829,-0.48873,1.72,0.53603,-0.21005
1002,-0.25195,-0.18147,-0.1714,-0.4228,1.2032,0.32621,-0.22921
1003,-0.2133,-0.14899,-0.14671,-0.3416,0.61171,0.2515,-0.21362
1004,-0.16198,-0.11293,-0.1178,-0.2539,0.11898,0.32751,-0.17692
1005,-0.11586,-0.076554,-0.084024,-0.16425,-0.1256,0.49121,-0.13502
1006,-0.0837,-0.042124,-0.044723,-0.076554,-0.086623,0.65199,-0.095717
1007,-0.068758,-0.013866,-0.0011985,0.0069217,0.14626,0.74423,-0.057715
1008,-0.057715,0.0075714,0.040052,0.089098,0.42885,0.75658,-0.014516
1009,-0.034004,0.024137,0.074806,0.1755,0.66433,0.73254,0.041351
1010,0.01764,0.042975,0.10209,0.27099,0.82186,0.73449,0.11671
1011,0.095594,0.068635,0.1271,0.37363,0.87578,0.79133,0.20798
1012,0.18167,0.10112,0.15796,0.47529,0.81147,0.87383,0.3051
1013,0.25313,0.14009,0.19434,0.56364,0.62243,0.91671,0.3889
1014,0.29665,0.17842,0.22519,0.63088,0.27359,0.87643,0.44509
1015,0.30867,0.20635,0.24566,0.66953,-0.29158,0.7595,0.47172
1016,0.28756,0.21837,0.26092,0.67927,-1.0539,0.62211,0.46912
1017,0.2476,0.2135,0.27067,0.66563,-1.8633,0.54253,0.44444
1018,0.20181,0.19271,0.27716,0.63055,-2.4408,0.56851,0.40546
1019,0.15991,0.15796,0.27261,0.57598,-2.5298,0.65816,0.35512
1020,0.12645,0.11736,0.25605,0.5042,-2.0196,0.69097,0.28301
1021,0.10047,0.07708,0.22584,0.42332,-0.98114,0.53993,0.18329
1022,0.081952,0.04395,0.18914,0.34667,0.31127,0.14302,0.057592
1023,0.071558,0.01764,0.15146,0.28333,1.4601,-0.44716,-0.073631
1024,0.064737,-0.0057458,0.11995,0.24306,2.1523,-1.0812,-0.18439
1025,0.06831,-0.028157,0.099167,0.22909,2.2718,-1.6002,-0.2513
1026,0.097218,-0.04115,0.090722,0.23559,1.922,-1.8883,-0.26462
1027,0.15763,-0.028482,0.090722,0.2502,1.3477,-1.8851,-0.22694
1028,0.23981,0.020239,0.09397,0.26092,0.79783,-1.6067,-0.15061
1029,0.32036,0.092996,0.098842,0.26222,0.41488,-1.1432,-0.057715
1030,0.3759,0.16283,0.099167,0.25215,0.20863,-0.61151,0.031932
1031,0.3876,0.20505,0.088773,0.24046,0.11118,-0.11098,0.11248
1032,0.34732,0.207,0.067661,0.23136,0.048172,0.29405,0.19141
1033,0.26677,0.17322,0.043625,0.23006,-0.024585,0.58053,0.27196
1034,0.17647,0.11833,0.027385,0.23916,-0.10481,0.7543,0.34505
1035,0.11248,0.070584,0.024137,0.26027,-0.17465,0.83323,0.40059
1036,0.095594,0.057592,0.038103,0.29373,-0.21752,0.82674,0.4204
1037,0.12125,0.088124,0.066686,0.33011,-0.23311,0.74196,0.39767
1038,0.17485,0.14464,0.10599,0.35609,-0.22564,0.60392,0.33952
1039,0.23364,0.20213,0.14302,0.36356,-0.20225,0.461,0.26547
1040,0.28171,0.24111,0.16738,0.35641,-0.16328,0.3798,0.19271
1041,0.31127,0.2541,0.1781,0.34635,-0.10351,0.42105,0.13652
1042,0.31744,0.24923,0.18167,0.34635,-0.021337,0.5854,0.099492
1043,0.30315,0.23721,0.18329,0.36421,0.059865,0.81602,0.082927
1044,0.27132,0.22194,0.18654,0.39442,0.10306,1.0255,0.086824
1045,0.22617,0.20278,0.19076,0.41813,0.07708,1.1454,0.10566
1046,0.17062,0.17842,0.19336,0.42008,-0.023285,1.1584,0.12937
1047,0.11313,0.15081,0.19141,0.39214,-0.16847,1.0902,0.14691
1048,0.061489,0.12288,0.17972,0.3431,-0.31951,0.98167,0.15179
1049,0.025436,0.095594,0.15763,0.28821,-0.45625,0.8524,0.14302
1050,0.0091954,0.075781,0.13002,0.24111,-0.5839,0.6809,0.12483
1051,0.01017,0.066037,0.098517,0.19986,-0.72487,0.43372,0.10469
1052,0.01829,0.063438,0.069285,0.16283,-0.86908,0.11541,0.087799
1053,0.022837,0.062139,0.048822,0.12385,-0.95386,-0.23603,0.083901
1054,0.01829,0.05272,0.03518,0.077405,-0.93177,-0.58228,0.094295
1055,0.0078962,0.029658,0.019914,0.021863,-0.81452,-0.91748,0.11281
1056,0.0020496,-0.0093186,-0.0057458,-0.038227,-0.64464,-1.277,0.1284
1057,0.0017248,-0.062262,-0.041799,-0.097666,-0.45788,-1.697,0.1271
1058,0.0020496,-0.1178,-0.083375,-0.15548,-0.29645,-2.1582,0.10404
1059,-0.0083442,-0.16393,-0.12105,-0.20972,-0.19543,-2.5587,0.063113
1060,-0.041475,-0.18666,-0.15158,-0.26007,-0.15029,-2.7569,0.022512
1061,-0.11488,-0.18894,-0.16945,-0.30327,-0.13567,-2.6607,-0.0050961
1062,-0.23149,-0.18147,-0.17822,-0.3364,-0.13989,-2.2888,-0.018738
1063,-0.37278,-0.17594,-0.17984,-0.35621,-0.17075,-1.7656,-0.025559
1064,-0.49718,-0.17562,-0.17789,-0.35946,-0.2172,-1.252,-0.035303
1065,-0.56344,-0.17984,-0.17302,-0.34744,-0.26819,-0.87461,-0.053492
1066,-0.54687,-0.18407,-0.16685,-0.32276,-0.34257,-0.67712,-0.077528
1067,-0.45138,-0.18244,-0.15938,-0.28833,-0.45333,-0.60956,-0.098965
1068,-0.29905,-0.17237,-0.14281,-0.24643,-0.59267,-0.57351,-0.11358
1069,-0.11683,-0.14866,-0.11456,-0.19998,-0.74468,-0.47834,-0.12268
1070,0.073507,-0.10611,-0.076554,-0.15548,-0.88565,-0.2867,-0.12787
1071,0.24988,-0.039851,-0.034654,-0.11553,-0.98829,-0.016464,-0.13047
1072,0.38532,0.040377,-0.0031473,-0.078178,-1.038,0.27651,-0.13177
1073,0.45321,0.11866,0.01017,-0.051544,-1.0321,0.52531,-0.13502
1074,0.44086,0.16868,0.0036737,-0.039851,-0.961,0.67538,-0.13697
1075,0.35544,0.17517,-0.017764,-0.044398,-0.80964,0.70233,-0.14087
1076,0.21642,0.13847,-0.04862,-0.063237,-0.55662,0.60749,-0.15256
1077,0.057917,0.073832,-0.081426,-0.092794,-0.18407,0.42462,-0.17822
1078,-0.081101,0.0033489,-0.10871,-0.1243,0.32134,0.22941,-0.21427
1079,-0.17789,-0.053492,-0.12625,-0.14834,0.91411,0.12093,-0.24123
1080,-0.23149,-0.086948,-0.1282,-0.15776,1.4676,0.17127,-0.23896
1081,-0.2526,-0.093769,-0.11326,-0.15061,1.8323,0.37493,-0.19641
1082,-0.2513,-0.079802,-0.086298,-0.13112,1.9194,0.66141,-0.12235
1083,-0.23246,-0.052843,-0.059339,-0.10709,1.7329,0.93652,-0.041475
1084,-0.19478,-0.023935,-0.037577,-0.087597,1.364,1.123,0.018615
1085,-0.13859,-0.0037969,-0.021661,-0.077853,0.93197,1.186,0.041351
1086,-0.068434,0.0046481,-0.010943,-0.073631,0.5435,1.1246,0.023162
1087,-0.00087364,0.00075039,-0.0021729,-0.071032,0.25053,0.94919,-0.027833
1088,0.045574,-0.0089938,0.0049729,-0.068758,0.057267,0.6783,-0.09182
1089,0.064088,-0.013216,0.011144,-0.063237,-0.06551,0.33011,-0.15711
1090,0.062464,-0.0044465,0.015367,-0.052843,-0.15223,-0.06616,-0.20453
1091,0.056292,0.016341,0.016016,-0.039201,-0.19738,-0.45171,-0.21752
1092,0.054019,0.037129,0.011794,-0.027183,-0.1662,-0.73981,-0.18504
1093,0.058566,0.046873,0.0023744,-0.01614,-0.048296,-0.85479,-0.1178
1094,0.059865,0.037778,-0.007045,-0.00022403,0.12807,-0.75183,-0.041799
1095,0.042975,0.011144,-0.0076946,0.019589,0.31451,-0.44846,0.01894
1096,0.008221,-0.025884,0.0046481,0.041027,0.45678,-0.029457,0.050446
1097,-0.036278,-0.062912,0.028359,0.066037,0.50095,0.39799,0.055318
1098,-0.077853,-0.089871,0.049147,0.089748,0.39896,0.74229,0.040052
1099,-0.10611,-0.10189,0.053694,0.10664,0.14107,0.96348,0.012768
1100,-0.11651,-0.096042,0.042001,0.11313,-0.2448,1.0775,-0.013216
1101,-0.11228,-0.077528,0.021863,0.10794,-0.68654,1.1291,-0.020362
1102,-0.098965,-0.051219,-0.00087364,0.091372,-1.0666,1.158,0.0059473
1103,-0.085648,-0.02361,-0.018738,0.06896,-1.305,1.1792,0.067011
1104,-0.085973,0.00075039,-0.026209,0.04395,-1.3901,1.1801,0.14919
1105,-0.10709,0.01894,-0.024909,0.015042,-1.3215,1.1363,0.21772
1106,-0.13827,0.029009,-0.019388,-0.018413,-1.0568,1.0184,0.24306
1107,-0.1597,0.030957,-0.011917,-0.052843,-0.51699,0.82641,0.21382
1108,-0.15581,0.028034,-0.0073698,-0.076229,0.3392,0.5958,0.14724
1109,-0.12398,0.020888,0.00075039,-0.071682,1.4286,0.39019,0.073182
1110,-0.07428,0.0072465,0.01894,-0.015165,2.5625,0.26774,0.019264
1111,-0.014516,-0.007045,0.054019,0.10144,3.5269,0.25313,0.0072465
1112,0.054019,-0.0063954,0.10761,0.26839,4.1469,0.32004,0.044599
1113,0.13814,0.021213,0.1768,0.46587,4.308,0.42332,0.1206
1114,0.23754,0.085525,0.25832,0.66823,4.0017,0.5146,0.21382
1115,0.33628,0.18069,0.33952,0.84687,3.292,0.54155,0.29892
1116,0.41293,0.2895,0.40514,0.97582,2.2023,0.47887,0.34797
1117,0.44379,0.38272,0.44411,1.0366,0.67083,0.34862,0.34764
1118,0.41488,0.43697,0.44834,1.0203,-1.228,0.19628,0.2934
1119,0.32393,0.44086,0.40968,0.92223,-3.1028,0.022188,0.18622
1120,0.18719,0.39572,0.33108,0.73936,-4.5511,-0.19413,0.043625
1121,0.035505,0.30899,0.21935,0.48049,-4.9698,-0.4621,-0.10481
1122,-0.10189,0.19986,0.09462,0.16348,-4.9698,-0.78886,-0.22402
1123,-0.20713,0.087799,-0.029782,-0.18991,-4.9698,-1.1958,-0.2906
1124,-0.28411,-0.019712,-0.14996,-0.555,-4.9695,-1.7019,-0.30814
1125,-0.34517,-0.12527,-0.26787,-0.91391,-4.9698,-2.2648,-0.30327
1126,-0.38577,-0.22467,-0.38285,-1.2426,-4.9691,-2.7474,-0.30035
1127,-0.39714,-0.31042,-0.48516,-1.4995,-4.9691,-2.9638,-0.30165
1128,-0.36531,-0.37278,-0.55954,-1.6457,-4.693,-2.7916,-0.30294
1129,-0.29515,-0.40916,-0.5969,-1.6697,-1.9799,-2.2453,-0.30067
1130,-0.20875,-0.42215,-0.59917,-1.5928,1.2581,-1.4651,-0.28833
1131,-0.13827,-0.4202,-0.57708,-1.4557,4.1326,-0.63587,-0.26754
1132,-0.11066,-0.40623,-0.54395,-1.2998,4.9586,0.07708,-0.24578
1133,-0.13664,-0.3796,-0.51245,-1.1559,4.9593,0.59645,-0.23474
1134,-0.2068,-0.34452,-0.48289,-1.0377,4.9589,0.96445,-0.23506
1135,-0.29645,-0.30847,-0.44878,-0.93469,4.9586,1.2431,-0.24123
1136,-0.37992,-0.28053,-0.41111,-0.834,4.9589,1.4448,-0.24903
1137,-0.43904,-0.26819,-0.37408,-0.71967,3.4252,1.552,-0.25325
1138,-0.46015,-0.27469,-0.33997,-0.5839,1.8726,1.5634,-0.24968
1139,-0.44001,-0.28995,-0.30587,-0.43027,0.56981,1.4991,-0.23701
1140,-0.38415,-0.29807,-0.27079,-0.28313,-0.46892,1.3818,-0.21752
1141,-0.31042,-0.28248,-0.23181,-0.1688,-1.3836,1.2038,-0.19641
1142,-0.22694,-0.23376,-0.18731,-0.10546,-2.2505,0.93782,-0.17335
1143,-0.1334,-0.15256,-0.14281,-0.087922,-2.9241,0.56851,-0.14379
1144,-0.03303,-0.051868,-0.10254,-0.097666,-3.0697,0.099492,-0.11066
1145,0.057592,0.044924,-0.066485,-0.10676,-2.4288,-0.42702,-0.084349
1146,0.12548,0.12418,-0.030106,-0.092145,-1.0805,-0.91423,-0.073306
1147,0.16673,0.18232,0.012443,-0.041799,0.5539,-1.2439,-0.07428
1148,0.18557,0.22162,0.064413,0.0433,1.9116,-1.3293,-0.073306
1149,0.18979,0.24403,0.11931,0.15049,2.6892,-1.1604,-0.057065
1150,0.18751,0.24988,0.1664,0.2606,2.8785,-0.78691,-0.014191
1151,0.18329,0.24566,0.20246,0.35771,2.6645,-0.28573,0.056617
1152,0.1781,0.24533,0.22649,0.42527,2.2926,0.24663,0.14496
1153,0.17257,0.25443,0.23981,0.4571,1.9489,0.70298,0.23461
1154,0.169,0.27034,0.24371,0.4623,1.7096,1.0096,0.30574
1155,0.17452,0.28106,0.24306,0.45646,1.5611,1.1389,0.35057
1156,0.18654,0.27976,0.24338,0.45158,1.425,1.107,0.36941
1157,0.19953,0.26384,0.24663,0.45223,1.2246,0.96868,0.36259
1158,0.20505,0.23981,0.2515,0.45873,0.94529,0.82186,0.3379
1159,0.2044,0.21512,0.25248,0.4688,0.65037,0.76665,0.30315
1160,0.20278,0.19466,0.25053,0.48147,0.42138,0.85792,0.27002
1161,0.2083,0.18264,0.2476,0.49771,0.27359,1.0677,0.24695
1162,0.22454,0.17939,0.2463,0.51687,0.14594,1.2954,0.23494
1163,0.24273,0.18004,0.2489,0.53441,-0.018738,1.4101,0.23039
1164,0.25313,0.17745,0.25443,0.54708,-0.22597,1.3162,0.22422
1165,0.24923,0.16413,0.25767,0.55227,-0.41208,1.0018,0.20635
1166,0.22747,0.14074,0.25605,0.55097,-0.48646,0.54513,0.17127
1167,0.18816,0.11476,0.25118,0.54545,-0.4163,0.073832,0.12288
1168,0.13782,0.096569,0.2476,0.54091,-0.26397,-0.30684,0.067986
1169,0.089098,0.087799,0.24663,0.53863,-0.12852,-0.56084,0.017316
1170,0.054344,0.0852,0.2463,0.53636,-0.060638,-0.72325,-0.018088
1171,0.03583,0.07773,0.24501,0.52986,-0.086948,-0.85219,-0.03303
1172,0.025111,0.055318,0.23689,0.51102,-0.30262,-0.97465,-0.026209
1173,0.014717,0.01764,0.21447,0.47497,-0.77911,-1.0799,0.0010752
1174,0.009845,-0.032055,0.17647,0.4243,-1.3894,-1.1487,0.040702
1175,0.016991,-0.081426,0.13002,0.37233,-1.8971,-1.1627,0.080003
1176,0.039078,-0.11488,0.087474,0.33238,-2.1063,-1.1169,0.10761
1177,0.072858,-0.11943,0.055968,0.31419,-1.9403,-1.0221,0.11443
1178,0.10469,-0.092794,0.040377,0.31581,-1.4726,-0.89052,0.10014
1179,0.12645,-0.043423,0.039078,0.32393,-0.86843,-0.72195,0.075131
1180,0.13912,0.012768,0.046223,0.32848,-0.2984,-0.52057,0.051745
1181,0.14724,0.059541,0.056942,0.32198,0.11898,-0.30619,0.037454
1182,0.14594,0.090722,0.066362,0.30542,0.34667,-0.11456,0.032906
1183,0.13165,0.10859,0.071558,0.28203,0.41423,0.022512,0.035505
1184,0.11086,0.11768,0.076431,0.25605,0.37785,0.09397,0.050771
1185,0.093321,0.12483,0.081627,0.23234,0.28301,0.11281,0.083576
1186,0.095594,0.1336,0.081952,0.2122,0.15049,0.094945,0.13067
1187,0.11703,0.14756,0.075131,0.19499,0.0039985,0.048172,0.18102
1188,0.15373,0.16056,0.063113,0.17777,-0.12657,-0.016464,0.21935
1189,0.19661,0.1677,0.054019,0.16088,-0.21687,-0.085648,0.23234
1190,0.23169,0.169,0.053044,0.14724,-0.26624,-0.15191,0.22162
1191,0.24501,0.1638,0.065387,0.13912,-0.28476,-0.21232,0.19434
1192,0.23234,0.14919,0.083901,0.13587,-0.29255,-0.26267,0.169
1193,0.19693,0.13132,0.10112,0.13457,-0.301,-0.29417,0.15406
1194,0.14984,0.10989,0.10729,0.13067,-0.30717,-0.29515,0.15016
1195,0.098193,0.090072,0.10144,0.1232,-0.2854,-0.23214,0.15049
1196,0.047523,0.075131,0.087474,0.11281,-0.21557,-0.086623,0.14886
1197,-0.0015233,0.062139,0.072208,0.10242,-0.10189,0.1219,0.14302
1198,-0.04862,0.045249,0.062789,0.095594,0.032906,0.35089,0.13197
1199,-0.094418,0.023162,0.056292,0.092671,0.16608,0.55682,0.11768
1200,-0.13989,-0.0073698,0.044924,0.087474,0.28398,0.70493,0.096244
1201,-0.18926,-0.042124,0.027385,0.074157,0.37103,0.7582,0.056942
1202,-0.24188,-0.080451,0.0014,0.051096,0.39377,0.69746,0.00075039
1203,-0.29385,-0.12268,-0.03173,0.019914,0.3038,0.53279,-0.06616
1204,-0.33153,-0.16198,-0.070707,-0.014191,0.0433,0.30282,-0.13307
1205,-0.32893,-0.18309,-0.10709,-0.051219,-0.39909,0.059541,-0.19283
1206,-0.27923,-0.17432,-0.1321,-0.090845,-0.90774,-0.14444,-0.23733
1207,-0.18959,-0.13989,-0.14379,-0.12527,-1.3095,-0.27793,-0.25845
1208,-0.075579,-0.10189,-0.14346,-0.14411,-1.4755,-0.34777,-0.2552
1209,0.05142,-0.076229,-0.13372,-0.14054,-1.3696,-0.37992,-0.22694
1210,0.17095,-0.06681,-0.11813,-0.11813,-1.0354,-0.38772,-0.18569
1211,0.27164,-0.051868,-0.097341,-0.088896,-0.55824,-0.37375,-0.14379
1212,0.34505,-0.0089938,-0.072656,-0.067784,-0.043099,-0.32471,-0.10351
1213,0.38954,0.070584,-0.045697,-0.062587,0.41456,-0.22921,-0.062262
1214,0.40351,0.16673,-0.017764,-0.072656,0.7647,-0.087272,-0.019388
1215,0.38954,0.24988,0.0062721,-0.086948,0.99109,0.078055,0.026085
1216,0.34959,0.29178,0.019264,-0.092469,1.0804,0.21545,0.067986
1217,0.28658,0.27976,0.020239,-0.087272,0.99466,0.26514,0.096569
1218,0.20213,0.22065,0.010819,-0.0837,0.65102,0.18622,0.10761
1219,0.11118,0.13295,-0.0054209,-0.094743,-0.0057458,-0.0034721,0.10794
1220,0.036479,0.039078,-0.027183,-0.12365,-0.82004,-0.22921,0.10924
1221,-0.0018481,-0.038876,-0.051219,-0.16035,-1.4495,-0.39941,0.11606
1222,0.003024,-0.087922,-0.072006,-0.19056,-1.5752,-0.45495,0.12223
1223,0.03518,-0.10449,-0.081101,-0.20453,-1.0727,-0.38999,0.11541
1224,0.063438,-0.094743,-0.072656,-0.19738,-0.055441,-0.2448,0.097868
1225,0.067986,-0.070058,-0.051868,-0.174,1.2165,-0.067134,0.074806
1226,0.047523,-0.046347,-0.025234,-0.13632,2.4479,0.1245,0.051096
1227,0.015692,-0.03238,-0.0024977,-0.086298,3.3927,0.31257,0.029983
1228,-0.015165,-0.03173,0.013743,-0.027833,3.9027,0.44639,0.0010752
1229,-0.035628,-0.03238,0.029009,0.040702,3.9244,0.47854,-0.037902
1230,-0.040175,-0.022961,0.050446,0.1245,3.4008,0.39409,-0.088572
1231,-0.031081,0.0020496,0.080978,0.22877,2.3056,0.21058,-0.14444
1232,-0.010293,0.038753,0.11866,0.35544,0.80173,-0.028807,-0.18894
1233,0.019264,0.074482,0.16185,0.49771,-0.70116,-0.27339,-0.19706
1234,0.053044,0.099167,0.20635,0.6351,-1.7938,-0.47249,-0.15613
1235,0.087799,0.11378,0.24501,0.74261,-2.4363,-0.61476,-0.071357
1236,0.11606,0.12093,0.27261,0.80108,-2.8017,-0.73786,0.029009
1237,0.13132,0.12255,0.28171,0.79133,-3.0355,-0.89442,0.11736
1238,0.12125,0.11833,0.26579,0.69064,-3.2288,-1.1111,0.17225
1239,0.076431,0.098517,0.21447,0.47594,-3.4662,-1.3878,0.17939
1240,-0.0015233,0.059865,0.1245,0.14172,-3.8619,-1.7146,0.13944
1241,-0.096367,-0.0057458,-0.00087364,-0.28508,-4.4192,-2.079,0.063438
1242,-0.19413,-0.095717,-0.15353,-0.74143,-4.7986,-2.4324,-0.034004
1243,-0.28768,-0.20031,-0.31496,-1.1595,-4.5329,-2.6753,-0.14314
1244,-0.3744,-0.30782,-0.466,-1.4833,-3.4013,-2.7257,-0.25325
1245,-0.45041,-0.40201,-0.58488,-1.6847,-1.5314,-2.5285,-0.36044
1246,-0.5105,-0.46762,-0.66446,-1.7659,0.64679,-2.0566,-0.45788
1247,-0.54558,-0.49685,-0.70246,-1.7522,2.4453,-1.3284,-0.53551
1248,-0.54947,-0.48873,-0.70473,-1.6772,3.406,-0.4189,-0.58455
1249,-0.52154,-0.45528,-0.68232,-1.5716,3.4385,0.5487,-0.59462
1250,-0.47672,-0.41338,-0.64821,-1.456,2.822,1.412,-0.56864
1251,-0.43384,-0.3783,-0.61476,-1.343,2.0272,2.0431,-0.52804
1252,-0.41565,-0.35556,-0.58748,-1.2319,1.4458,2.3848,-0.50108
1253,-0.43319,-0.33835,-0.56247,-1.1153,1.2288,2.4693,-0.4975
1254,-0.47672,-0.31496,-0.52706,-0.98277,1.3039,2.3884,-0.50595
1255,-0.51927,-0.27728,-0.46697,-0.82913,1.4968,2.2406,-0.50303
1256,-0.54428,-0.22694,-0.38447,-0.66153,1.6569,2.0964,-0.4608
1257,-0.54233,-0.174,-0.29223,-0.48549,1.7245,1.9847,-0.36985
1258,-0.51569,-0.12917,-0.20453,-0.31139,1.7213,1.898,-0.24188
1259,-0.46535,-0.10124,-0.13275,-0.14899,1.6914,1.8193,-0.10059
1260,-0.39032,-0.089221,-0.07493,-0.0034721,1.6758,1.7209,0.027385
1261,-0.29385,-0.081751,-0.021337,0.12158,1.6862,1.5459,0.1271
1262,-0.18439,-0.066485,0.030308,0.22454,1.6677,1.2298,0.19174
1263,-0.073631,-0.038876,0.079029,0.30607,1.5234,0.7582,0.22844
1264,0.022837,0.0010752,0.12125,0.36486,1.186,0.19174,0.24825
1265,0.096569,0.049147,0.15666,0.40643,0.65166,-0.34614,0.26969
1266,0.14172,0.094945,0.18459,0.43372,0.010819,-0.72292,0.30802
1267,0.16121,0.1323,0.2044,0.44898,-0.56766,-0.8811,0.36778
1268,0.16185,0.16088,0.21415,0.45808,-0.95451,-0.86973,0.43274
1269,0.15633,0.17874,0.2148,0.46328,-1.1705,-0.80899,0.47562
1270,0.15503,0.18264,0.20863,0.46263,-1.3381,-0.80834,0.47854
1271,0.16153,0.1781,0.20343,0.46068,-1.4914,-0.89962,0.44119
1272,0.17485,0.17095,0.20311,0.46295,-1.5327,-1.0165,0.37948
1273,0.19693,0.16543,0.20928,0.47627,-1.3332,-1.0409,0.31679
1274,0.22194,0.1651,0.22292,0.50648,-0.87948,-0.87363,0.27294
1275,0.24176,0.1703,0.24468,0.5513,-0.32438,-0.50497,0.2567
1276,0.25085,0.1781,0.27099,0.60164,0.1323,-0.0083442,0.258
1277,0.2515,0.18719,0.29535,0.64647,0.38435,0.51427,0.26027
1278,0.24598,0.19563,0.31224,0.67473,0.4597,0.98005,0.25248
1279,0.23916,0.19661,0.31289,0.67667,0.43729,1.3305,0.23039
1280,0.23104,0.18816,0.29535,0.64744,0.3798,1.527,0.20051
1281,0.21675,0.16673,0.2606,0.59547,0.32328,1.5485,0.16868
1282,0.19109,0.13327,0.21577,0.53084,0.27229,1.3951,0.13652
1283,0.15991,0.095919,0.17062,0.461,0.22259,1.097,0.096244
1284,0.1258,0.065712,0.12678,0.38695,0.15503,0.69584,0.041351
1285,0.091696,0.047198,0.088124,0.31322,0.05272,0.23234,-0.02426
1286,0.062464,0.042001,0.062789,0.25507,-0.048945,-0.24253,-0.092145
1287,0.037129,0.048497,0.057592,0.22292,-0.11326,-0.65471,-0.15093
1288,0.011794,0.059541,0.070259,0.22097,-0.12008,-0.94541,-0.18926
1289,-0.017114,0.064737,0.092346,0.24306,-0.075255,-1.0818,-0.20745
1290,-0.04927,0.06019,0.11118,0.27749,-0.011917,-1.0604,-0.2094
1291,-0.079152,0.037454,0.11703,0.31257,0.038103,-0.91131,-0.20031
1292,-0.095717,0.00010078,0.11118,0.33595,0.047198,-0.68849,-0.18601
1293,-0.088247,-0.046671,0.096569,0.34375,-0.02361,-0.44489,-0.16977
1294,-0.052518,-0.090845,0.078055,0.33465,-0.21849,-0.20875,-0.15093
1295,0.0059473,-0.11326,0.065387,0.30704,-0.49815,0.012443,-0.12235
1296,0.072208,-0.097991,0.063438,0.26709,-0.72162,0.22487,-0.068758
1297,0.13522,-0.040825,0.073832,0.22714,-0.76709,0.43632,0.019264
1298,0.20018,0.047198,0.093321,0.19758,-0.61898,0.63575,0.13457
1299,0.27456,0.14561,0.11443,0.18427,-0.36044,0.79718,0.26027
1300,0.35252,0.22487,0.12872,0.18816,-0.087272,0.893,0.37201
1301,0.41618,0.26417,0.13295,0.20473,0.14561,0.90631,0.44639
1302,0.44476,0.26027,0.13197,0.22487,0.31419,0.83583,0.4714
1303,0.42982,0.23104,0.13002,0.24111,0.39637,0.69746,0.45028
1304,0.38045,0.20148,0.1323,0.25215,0.36908,0.52499,0.39702
1305,0.30574,0.18816,0.14139,0.25637,0.21382,0.35349,0.32653
1306,0.21707,0.19369,0.15373,0.2554,-0.083375,0.19401,0.25183
1307,0.13457,0.2083,0.16413,0.24858,-0.49815,0.041351,0.18004
1308,0.074806,0.22357,0.16998,0.23429,-1.0042,-0.10838,0.11801
1309,0.047847,0.22844,0.1729,0.20993,-1.5726,-0.25422,0.069934
1310,0.045899,0.2174,0.1716,0.18037,-2.0988,-0.38512,0.033881
1311,0.056617,0.18881,0.15958,0.15276,-2.4041,-0.47867,0.0049729
1312,0.067336,0.14496,0.13262,0.13425,-2.3142,-0.51829,-0.018413
1313,0.080653,0.091047,0.094945,0.13035,-1.7081,-0.5027,-0.037577
1314,0.10371,0.030308,0.056617,0.14529,-0.59917,-0.43969,-0.045372
1315,0.14659,-0.030106,0.027709,0.1755,0.71728,-0.36044,-0.033679
1316,0.20538,-0.071682,0.014068,0.22162,1.7518,-0.30912,-0.0041217
1317,0.26547,-0.070707,0.021863,0.28106,2.2396,-0.31171,0.034206
1318,0.30964,-0.017439,0.056292,0.35284,2.2777,-0.35394,0.079029
1319,0.33303,0.07708,0.11443,0.43632,2.1783,-0.38674,0.14139
1320,0.3379,0.18232,0.18557,0.51654,2.1867,-0.36368,0.22714
1321,0.3379,0.26417,0.2489,0.57014,2.3744,-0.26754,0.33108
1322,0.33887,0.3025,0.28691,0.57566,2.6275,-0.12365,0.43339
1323,0.33823,0.30022,0.28821,0.51914,2.6976,0.015042,0.50615
1324,0.32036,0.27132,0.25475,0.40838,2.3131,0.11054,0.52499
1325,0.26644,0.22649,0.20246,0.25735,1.2548,0.13327,0.47789
1326,0.17192,0.17192,0.14561,0.084226,-0.52057,0.056617,0.36843
1327,0.045249,0.11054,0.088124,-0.092145,-2.5493,-0.123,0.20603
1328,-0.096692,0.039727,0.025436,-0.26429,-4.2217,-0.37018,0.0046481
1329,-0.23798,-0.043423,-0.04992,-0.43384,-4.9695,-0.62775,-0.21979
1330,-0.35881,-0.13827,-0.14346,-0.60209,-4.9698,-0.83238,-0.43806
1331,-0.44261,-0.23993,-0.24773,-0.76644,-4.2442,-0.95646,-0.62515
1332,-0.48419,-0.3351,-0.35037,-0.92105,-2.9056,-1.0299,-0.75995
1333,-0.48191,-0.40948,-0.44196,-1.0604,-1.5811,-1.1026,-0.8392
1334,-0.44359,-0.44489,-0.51017,-1.1721,-0.65114,-1.1578,-0.87201
1335,-0.38707,-0.43189,-0.54525,-1.239,-0.19251,-1.1081,-0.86324
1336,-0.33185,-0.37765,-0.55077,-1.2511,-0.0034721,-0.8837,-0.81711
1337,-0.28963,-0.30197,-0.53583,-1.2046,0.18654,-0.50692,-0.73721
1338,-0.26527,-0.22304,-0.51212,-1.1133,0.52791,-0.0824,-0.64009
1339,-0.25357,-0.15711,-0.48419,-0.99673,0.99888,0.27034,-0.53746
1340,-0.24968,-0.11553,-0.45625,-0.87233,1.4663,0.48114,-0.43482
1341,-0.25747,-0.10059,-0.42929,-0.7541,1.7836,0.55552,-0.33575
1342,-0.27599,-0.10449,-0.40169,-0.64951,1.8538,0.55552,-0.24286
1343,-0.30587,-0.123,-0.36661,-0.55337,1.6589,0.54383,-0.15808
1344,-0.3351,-0.14444,-0.32016,-0.46178,1.2587,0.53928,-0.081101
1345,-0.34907,-0.15776,-0.25845,-0.37115,0.75723,0.53149,-0.011267
1346,-0.33932,-0.15451,-0.18699,-0.27858,0.28008,0.50972,0.055318
1347,-0.30359,-0.13242,-0.12073,-0.18796,-0.039201,0.48699,0.11671
1348,-0.24675,-0.098641,-0.071032,-0.11098,-0.13957,0.49283,0.16543
1349,-0.18179,-0.064211,-0.042124,-0.056416,-0.09929,0.54838,0.19174
1350,-0.12235,-0.03173,-0.028482,-0.021986,-0.052518,0.64874,0.19044
1351,-0.075579,0.0017248,-0.022961,0.0039985,-0.064211,0.77574,0.16575
1352,-0.033354,0.039727,-0.019388,0.033881,-0.094743,0.91411,0.13295
1353,0.013418,0.080003,-0.0093186,0.074806,-0.073631,1.0291,0.10144
1354,0.063763,0.11118,0.0059473,0.11963,0.011469,1.0522,0.072208
1355,0.10371,0.1232,0.027709,0.15926,0.10436,0.92645,0.037778
1356,0.12093,0.11541,0.048822,0.18849,0.14464,0.65914,-0.0018481
1357,0.11378,0.092021,0.066037,0.20993,0.10826,0.32458,-0.039526
1358,0.094945,0.063438,0.077405,0.23299,0.021213,0.020239,-0.063561
1359,0.074157,0.038103,0.0865,0.26157,-0.030756,-0.19543,-0.070382
1360,0.056617,0.01764,0.094295,0.28561,0.028359,-0.32763,-0.060313
1361,0.041351,0.0046481,0.098842,0.29405,0.22682,-0.41858,-0.034978
1362,0.033231,-0.00087364,0.090397,0.27944,0.54903,-0.504,-0.0031473
1363,0.038428,-0.0054209,0.072208,0.24858,0.91541,-0.60014,0.025761
1364,0.055643,-0.01484,0.050446,0.22194,1.212,-0.69953,0.050121
1365,0.084226,-0.029132,0.040052,0.21512,1.3594,-0.77067,0.074806
1366,0.11963,-0.044398,0.050446,0.23331,1.339,-0.78009,0.11183
1367,0.15309,-0.052518,0.079029,0.26287,1.1805,-0.73234,0.16608
1368,0.18232,-0.051544,0.10794,0.28821,0.93814,-0.66381,0.23169
1369,0.2057,-0.032705,0.12515,0.3012,0.67148,-0.61281,0.29113
1370,0.22324,0.013093,0.13067,0.30347,0.42332,-0.5852,0.32848
1371,0.23364,0.081627,0.13587,0.30347,0.2187,-0.55629,0.3366
1372,0.22227,0.15276,0.14756,0.30217,0.064413,-0.5001,0.31841
1373,0.1755,0.19986,0.15861,0.30022,-0.042774,-0.40266,0.28301
1374,0.095269,0.20635,0.1651,0.296,-0.10156,-0.26916,0.24176
1375,0.0017248,0.17225,0.1651,0.29535,-0.10741,-0.10968,0.21123
1376,-0.075904,0.11411,0.16413,0.29957,-0.055441,0.070259,0.20311
1377,-0.12235,0.054019,0.16445,0.30185,0.054019,0.24501,0.2135
1378,-0.13664,0.011144,0.16056,0.296,0.20343,0.36096,0.22032
1379,-0.12592,-0.0083442,0.14919,0.27619,0.37265,0.37753,0.20343
1380,-0.10351,-0.011592,0.131,0.24988,0.52726,0.29308,0.15828
1381,-0.075579,-0.0093186,0.11476,0.23104,0.62178,0.14464,0.10274
1382,-0.038551,-0.00022403,0.10404,0.22617,0.57631,-0.026858,0.052395
1383,0.009845,0.026735,0.10339,0.23169,0.31127,-0.19998,0.016991
1384,0.073182,0.076431,0.10794,0.23721,-0.11878,-0.37408,-0.00054884
1385,0.14399,0.13814,0.11346,0.23526,-0.52511,-0.54947,-0.0041217
1386,0.207,0.19856,0.11248,0.22974,-0.71545,-0.71772,-0.0015233
1387,0.24468,0.24078,0.11086,0.22779,-0.63132,-0.85707,-0.00022403
1388,0.25085,0.25637,0.11443,0.23559,-0.37018,-0.9204,-0.0044465
1389,0.23169,0.24143,0.1219,0.25118,-0.10936,-0.85707,-0.007045
1390,0.19953,0.20603,0.12743,0.27034,0.017316,-0.63945,0.0023744
1391,0.1703,0.16413,0.12775,0.28398,-0.020037,-0.28508,0.029333
1392,0.15601,0.13002,0.12548,0.28561,-0.17789,0.13522,0.070909
1393,0.16088,0.11476,0.12418,0.27619,-0.39876,0.54091,0.12613
1394,0.17355,0.11898,0.12353,0.2619,-0.65081,0.8839,0.19239
1395,0.18687,0.13067,0.1219,0.24436,-0.89604,1.1603,0.26742
1396,0.19401,0.13717,0.11606,0.21935,-1.0825,1.3805,0.34667
1397,0.19141,0.1284,0.10631,0.1755,-1.1731,1.5257,0.41585
1398,0.17095,0.10144,0.095919,0.10956,-1.1358,1.5748,0.45418
1399,0.1349,0.061489,0.083576,0.03518,-0.93307,1.5286,0.44769
1400,0.088773,0.018615,0.066686,-0.03173,-0.56539,1.4088,0.39734
1401,0.040702,-0.020687,0.04395,-0.08305,-0.048945,1.2704,0.31354
1402,-0.0041217,-0.056741,0.017965,-0.11943,0.62438,1.1733,0.21252
1403,-0.042774,-0.088896,-0.011592,-0.14964,1.3939,1.1457,0.11151
1404,-0.071357,-0.1178,-0.045372,-0.17367,2.1403,1.1714,0.027385
1405,-0.088896,-0.14184,-0.077203,-0.18991,2.7853,1.2155,-0.032705
1406,-0.097341,-0.16133,-0.10481,-0.19998,3.2086,1.2331,-0.073306
1407,-0.10481,-0.18082,-0.12885,-0.21265,3.1312,1.1684,-0.10124
1408,-0.11715,-0.2055,-0.14866,-0.23798,2.2345,0.96478,-0.12365
1409,-0.13534,-0.23116,-0.1636,-0.27858,0.56916,0.60294,-0.14964
1410,-0.14509,-0.2513,-0.17172,-0.32438,-1.3277,0.14432,-0.18277
1411,-0.13924,-0.25585,-0.17172,-0.35686,-2.7926,-0.27176,-0.21687
1412,-0.12365,-0.23831,-0.1623,-0.36368,-3.5231,-0.49718,-0.23961
1413,-0.10026,-0.20323,-0.14899,-0.34874,-3.5241,-0.4569,-0.24058
1414,-0.077528,-0.16003,-0.13177,-0.31983,-3.032,-0.19803,-0.21817
1415,-0.067784,-0.11813,-0.11521,-0.29125,-2.407,0.13132,-0.18471
1416,-0.075255,-0.077853,-0.10124,-0.27014,-1.9569,0.36161,-0.15678
1417,-0.084349,-0.032705,-0.092469,-0.25617,-1.8247,0.38792,-0.14249
1418,-0.077853,0.020888,-0.08305,-0.23571,-1.9822,0.17907,-0.13794
1419,-0.04992,0.080653,-0.068434,-0.19608,-2.242,-0.22856,-0.1308
1420,-0.0096434,0.13132,-0.042449,-0.13534,-2.3142,-0.73786,-0.11163
1421,0.025111,0.15861,-0.0073698,-0.060313,-1.9653,-1.1978,-0.078178
1422,0.041027,0.15276,0.028359,0.013093,-1.1601,-1.4541,-0.040175
1423,0.038103,0.11378,0.051745,0.069285,-0.058365,-1.4161,-0.01614
1424,0.024137,0.057917,0.057917,0.10404,1.0983,-1.0958,-0.020362
1425,0.0085458,0.014717,0.050446,0.12158,2.1377,-0.593,-0.050569
1426,-0.00087364,0.00010078,0.035505,0.13327,2.9711,-0.037902,-0.089546
1427,-0.0024977,0.0091954,0.024461,0.14659,3.4934,0.45256,-0.12008
1428,0.00010078,0.023812,0.021863,0.16965,3.5834,0.78419,-0.13502
1429,-0.0015233,0.029658,0.029658,0.20408,3.1774,0.89365,-0.13697
1430,-0.013541,0.019914,0.042001,0.23591,2.3939,0.78256,-0.12885
1431,-0.042124,-0.0057458,0.05142,0.23234,1.4962,0.53279,-0.12073
1432,-0.084999,-0.043748,0.045249,0.16673,0.74196,0.26742,-0.11358
1433,-0.13404,-0.085973,0.019589,0.036804,0.30802,0.079029,-0.10741
1434,-0.18212,-0.12625,-0.021337,-0.13112,0.22812,-0.020687,-0.10351
1435,-0.22369,-0.1623,-0.073306,-0.29547,0.34992,-0.10319,-0.10514
1436,-0.25487,-0.19283,-0.12885,-0.4202,0.49088,-0.27469,-0.11975
1437,-0.26949,-0.2146,-0.17335,-0.47899,0.68057,-0.59365,-0.15191
1438,-0.26364,-0.22142,-0.19283,-0.46243,1.0772,-1.0162,-0.19283
1439,-0.22856,-0.20128,-0.18277,-0.37992,1.63,-1.4284,-0.23019
1440,-0.16003,-0.15353,-0.15061,-0.26007,1.9434,-1.7266,-0.25585
1441,-0.064536,-0.0837,-0.11001,-0.15029,1.5657,-1.8565,-0.27144
1442,0.03453,-0.012242,-0.081751,-0.091495,0.40189,-1.8377,-0.28151
1443,0.10696,0.038428,-0.076879,-0.10189,-1.1452,-1.725,-0.29223
1444,0.13295,0.051745,-0.094418,-0.17172,-2.4525,-1.5612,-0.30424
1445,0.10891,0.025111,-0.12917,-0.27014,-3.1538,-1.3573,-0.31236
1446,0.049147,-0.024909,-0.1662,-0.36141,-3.1967,-1.1023,-0.31366
1447,-0.020037,-0.079152,-0.19381,-0.41695,-2.7926,-0.7921,-0.30229
1448,-0.074605,-0.11813,-0.19901,-0.41923,-2.2125,-0.44716,-0.27501
1449,-0.10449,-0.13242,-0.18147,-0.36921,-1.6606,-0.10546,-0.23279
1450,-0.10091,-0.11943,-0.14476,-0.28086,-1.2322,0.20181,-0.17757
1451,-0.062262,-0.084349,-0.097017,-0.1753,-0.92008,0.46555,-0.11813
1452,0.0072465,-0.036278,-0.046671,-0.068758,-0.66186,0.67667,-0.061288
1453,0.089748,0.013418,0.0023744,0.02641,-0.4124,0.82381,-0.0093186
1454,0.15893,0.050446,0.042651,0.10177,-0.17627,0.9284,0.033556
1455,0.18979,0.072208,0.070909,0.15698,0.013418,1.0489,0.063113
1456,0.16835,0.078704,0.081952,0.19044,0.13717,1.2168,0.075456
1457,0.10112,0.076106,0.079029,0.20668,0.20116,1.3987,0.066362
1458,0.0049729,0.065712,0.06961,0.21772,0.22129,1.5121,0.033231
1459,-0.10221,0.05142,0.06084,0.22454,0.21415,1.4604,-0.022311
1460,-0.20615,0.034206,0.055968,0.23169,0.20473,1.1753,-0.088896
1461,-0.29417,0.015692,0.053694,0.23656,0.21285,0.63737,-0.14476
1462,-0.34712,-0.0034721,0.051096,0.23559,0.22422,-0.10351,-0.1675
1463,-0.34452,-0.010943,0.047198,0.23136,0.17615,-0.89864,-0.14411
1464,-0.27728,0.0069217,0.047847,0.22974,-0.013216,-1.5833,-0.08305
1465,-0.16847,0.051096,0.052395,0.23461,-0.37083,-2.052,-0.0083442
1466,-0.054792,0.11151,0.058241,0.24695,-0.78886,-2.2664,0.060515
1467,0.032257,0.1703,0.062464,0.26255,-1.0776,-2.2456,0.11378
1468,0.076106,0.20798,0.064413,0.27521,-1.1036,-2.0602,0.15049
1469,0.079354,0.2122,0.065062,0.28138,-0.885,-1.8175,0.17615
1470,0.053694,0.18459,0.067011,0.27749,-0.64659,-1.6269,0.19499
1471,0.016016,0.13977,0.06961,0.2619,-0.60826,-1.5674,0.20538
1472,-0.020687,0.093645,0.070584,0.22909,-0.74858,-1.6554,0.20376
1473,-0.051868,0.057592,0.065712,0.17387,-0.79828,-1.8211,0.18687
1474,-0.079477,0.034855,0.053044,0.10404,-0.50985,-1.9182,0.16056
1475,-0.10741,0.022188,0.036479,0.027709,0.13944,-1.8032,0.13327
1476,-0.13632,0.016341,0.018615,-0.04927,0.96121,-1.4216,0.11183
1477,-0.15808,0.012768,-0.0050961,-0.1217,1.7229,-0.834,0.096893
1478,-0.1688,0.0078962,-0.031081,-0.17952,2.2611,-0.14639,0.095269
1479,-0.16035,0.0017248,-0.054142,-0.21232,2.4826,0.54253,0.11768
1480,-0.12755,0.0014,-0.06551,-0.20972,2.3595,1.159,0.1716
1481,-0.067784,0.009845,-0.059989,-0.16847,1.9506,1.653,0.2515
1482,0.013743,0.027709,-0.037577,-0.096042,1.3867,1.9766,0.33887
1483,0.10047,0.052395,-0.0041217,-0.017764,0.83323,2.0977,0.40838
1484,0.17647,0.077405,0.02706,0.042651,0.46035,2.0172,0.44249
1485,0.23331,0.099817,0.046548,0.070584,0.35706,1.7781,0.43957
1486,0.27261,0.11703,0.054019,0.067336,0.52174,1.4491,0.40481
1487,0.29535,0.12937,0.052395,0.047198,0.89072,1.0937,0.34602
1488,0.30347,0.13262,0.049147,0.033231,1.3659,0.77477,0.26774
1489,0.29665,0.12743,0.048497,0.038428,1.7424,0.5435,0.17647
1490,0.27619,0.11476,0.048822,0.058891,1.7544,0.42462,0.076755
1491,0.24338,0.097543,0.04395,0.082602,1.2837,0.40156,-0.021661
1492,0.2057,0.078704,0.031282,0.096569,0.4714,0.43762,-0.11098
1493,0.16998,0.063113,0.018615,0.10242,-0.36303,0.48276,-0.18374
1494,0.13782,0.056617,0.01894,0.11378,-0.89215,0.48796,-0.23636
1495,0.11443,0.059216,0.036804,0.13782,-0.96458,0.4243,-0.26527
1496,0.10599,0.063113,0.065712,0.16803,-0.66186,0.3012,-0.26949
1497,0.11443,0.061489,0.09397,0.19336,-0.22564,0.16283,-0.2487
1498,0.1349,0.049796,0.11443,0.20993,0.11768,0.063113,-0.19998
1499,0.15698,0.03453,0.1245,0.2148,0.26514,0.032906,-0.12722
1500,0.17615,0.024137,0.1258,0.2083,0.23299,0.070259,-0.035953
1501,0.19044,0.026735,0.1206,0.19628,0.094945,0.12223,0.060515
1502,0.19758,0.045574,0.11151,0.17745,-0.067134,0.11378,0.15049
1503,0.19628,0.074157,0.10014,0.15731,-0.20388,0.013743,0.23006
1504,0.18134,0.10436,0.090397,0.14237,-0.29677,-0.13372,0.29665
1505,0.15633,0.12905,0.089423,0.14399,-0.35037,-0.25,0.3444
1506,0.12905,0.14334,0.10209,0.16575,-0.38317,-0.27501,0.36973
1507,0.10794,0.14659,0.1258,0.19953,-0.4215,-0.19186,0.36908
1508,0.095594,0.13879,0.15016,0.23364,-0.49036,-0.026209,0.34082
1509,0.097868,0.12158,0.16315,0.25735,-0.60599,0.17062,0.2895
1510,0.11801,0.098517,0.16153,0.26937,-0.77197,0.34959,0.22617
1511,0.14464,0.075131,0.15016,0.27196,-0.99381,0.48276,0.16543
1512,0.15796,0.056942,0.13912,0.27359,-1.2666,0.57891,0.11573
1513,0.14529,0.051745,0.13717,0.27911,-1.5447,0.66011,0.086824
1514,0.11248,0.059865,0.14269,0.28788,-1.7363,0.74001,0.087474
1515,0.078704,0.080653,0.15503,0.29827,-1.7107,0.82933,0.11963
1516,0.056292,0.10501,0.1703,0.29892,-1.4086,0.92223,0.16998
1517,0.042001,0.11866,0.17939,0.27521,-0.91358,1.0028,0.2148
1518,0.023162,0.10859,0.16868,0.21642,-0.37927,1.0612,0.23234
1519,-0.0054209,0.066037,0.1297,0.131,0.094945,1.0804,0.2109
1520,-0.036602,-0.0031473,0.062464,0.034855,0.49316,1.0304,0.15114
1521,-0.051868,-0.079477,-0.019712,-0.052843,0.82381,0.893,0.069285
1522,-0.03238,-0.13664,-0.095393,-0.11553,1.0837,0.70818,-0.0093186
1523,0.035505,-0.15613,-0.14509,-0.14087,1.2571,0.53603,-0.059014
1524,0.15276,-0.13762,-0.16198,-0.13437,1.3143,0.41813,-0.067784
1525,0.29633,-0.098316,-0.15418,-0.11131,1.2376,0.35382,-0.045697
1526,0.42365,-0.059989,-0.13437,-0.086298,1.0661,0.30347,-0.014516
1527,0.48894,-0.034004,-0.10936,-0.06681,0.85434,0.19953,-0.00022403
1528,0.4688,-0.021661,-0.084349,-0.052518,0.68285,0.0033489,-0.022636
1529,0.36746,-0.014516,-0.063561,-0.041475,0.60457,-0.25195,-0.080127
1530,0.20765,-0.0015233,-0.042774,-0.032705,0.5133,-0.47899,-0.14314
1531,0.025436,0.021863,-0.018738,-0.027183,0.2148,-0.60502,-0.18082
1532,-0.13989,0.051745,0.010495,-0.024585,-0.28508,-0.60339,-0.17887
1533,-0.25682,0.071234,0.040052,-0.022311,-0.76904,-0.48581,-0.14444
1534,-0.31366,0.064413,0.057592,-0.017764,-0.99316,-0.29385,-0.09182
1535,-0.31366,0.032257,0.058566,-0.0096434,-0.85479,-0.083375,-0.032055
1536,-0.27144,-0.0093186,0.042326,0.0065969,-0.4569,0.096569,0.030308
1537,-0.19413,-0.045047,0.013418,0.028359,-0.086623,0.21317,0.087799
1538,-0.091495,-0.06616,-0.016789,0.046223,-0.051868,0.24825,0.13262
1539,0.016666,-0.073306,-0.038227,0.056617,-0.48094,0.20278,0.16056
1540,0.10664,-0.070707,-0.051219,0.057917,-1.3128,0.096244,0.1716
1541,0.15471,-0.061613,-0.058365,0.050771,-2.3528,-0.034329,0.1703
1542,0.15406,-0.045697,-0.059989,0.042001,-3.3172,-0.14736,0.16868
1543,0.11508,-0.023935,-0.054792,0.036479,-3.8833,-0.20745,0.17225
1544,0.059541,0.0059473,-0.044398,0.033881,-3.8287,-0.18504,0.18004
1545,0.0033489,0.044275,-0.032705,0.031932,-3.1697,-0.072656,0.18297
1546,-0.04862,0.081303,-0.025559,0.024461,-2.1615,0.095919,0.1716
1547,-0.092469,0.10631,-0.029132,0.0039985,-1.1539,0.258,0.14594
1548,-0.11813,0.10891,-0.0405,-0.025884,-0.40916,0.3353,0.11086
1549,-0.12008,0.083901,-0.056416,-0.055766,-0.0073698,0.25118,0.071883
1550,-0.10091,0.033231,-0.074605,-0.076554,0.1677,-0.028157,0.021863
1551,-0.069083,-0.025559,-0.092794,-0.089546,0.3051,-0.47055,-0.045372
1552,-0.042449,-0.069083,-0.10319,-0.10156,0.49608,-0.98342,-0.12885
1553,-0.03303,-0.0837,-0.10091,-0.11586,0.73806,-1.4492,-0.21265
1554,-0.038551,-0.070707,-0.085648,-0.1334,0.99953,-1.7568,-0.27923
1555,-0.04992,-0.0405,-0.063561,-0.15548,1.263,-1.824,-0.31496
1556,-0.066485,-0.0028225,-0.046671,-0.19024,1.5764,-1.5924,-0.31464
1557,-0.09182,0.031932,-0.046022,-0.2474,2.0347,-1.0718,-0.28248
1558,-0.13242,0.053694,-0.072981,-0.33315,2.646,-0.36888,-0.23506
1559,-0.18212,0.054019,-0.12008,-0.43319,3.231,0.32523,-0.19283
1560,-0.23149,0.030633,-0.1701,-0.52446,3.4421,0.80562,-0.16977
1561,-0.26657,-0.015165,-0.21135,-0.59007,3.0072,0.95828,-0.17107
1562,-0.27988,-0.077853,-0.24123,-0.62743,1.9044,0.8027,-0.19836
1563,-0.27728,-0.14541,-0.26267,-0.64886,0.41228,0.4649,-0.25033
1564,-0.27534,-0.19803,-0.27891,-0.66705,-0.95321,0.13002,-0.31236
1565,-0.28411,-0.22499,-0.29028,-0.68557,-1.7698,-0.039851,-0.36466
1566,-0.30424,-0.22532,-0.29547,-0.70116,-1.9624,0.023162,-0.39422
1567,-0.32211,-0.2042,-0.2958,-0.70895,-1.6863,0.2619,-0.40071
1568,-0.32341,-0.17302,-0.2893,-0.69986,-1.1643,0.53896,-0.39616
1569,-0.30717,-0.14574,-0.27793,-0.6651,-0.57513,0.71403,-0.38772
1570,-0.28183,-0.1295,-0.25845,-0.59917,-0.051219,0.70851,-0.37603
1571,-0.2591,-0.1295,-0.22824,-0.50725,0.32036,0.5487,-0.35946
1572,-0.24935,-0.13859,-0.18471,-0.39844,0.48536,0.33693,-0.3364
1573,-0.2539,-0.14444,-0.13242,-0.28118,0.44801,0.1716,-0.30262
1574,-0.26364,-0.14022,-0.076229,-0.16458,0.28463,0.092346,-0.25845
1575,-0.26916,-0.12463,-0.023285,-0.05739,0.091696,0.084226,-0.21265
1576,-0.25975,-0.10124,0.021538,0.037778,-0.05804,0.10989,-0.174
1577,-0.22986,-0.076554,0.05207,0.1206,-0.072656,0.12288,-0.14671
1578,-0.18179,-0.054467,0.066686,0.18719,0.11313,0.078704,-0.12625
1579,-0.12333,-0.035303,0.074157,0.24468,0.48861,-0.030431,-0.09994
1580,-0.059664,-0.014191,0.080328,0.29048,1.0005,-0.16035,-0.059664
1581,-0.00022403,0.013743,0.087474,0.32848,1.5897,-0.24708,-0.015815
1582,0.047847,0.050446,0.095269,0.35674,2.1796,-0.24545,0.022512
1583,0.074806,0.084876,0.10306,0.37298,2.6531,-0.16523,0.049472
1584,0.082277,0.10177,0.10729,0.37038,2.8659,-0.067459,0.066686
1585,0.077405,0.094945,0.10404,0.34764,2.7483,-0.015815,0.079354
1586,0.070584,0.068635,0.088773,0.3038,2.353,-0.035628,0.090397
1587,0.06019,0.031282,0.063113,0.23981,1.7557,-0.12917,0.092346
1588,0.042651,-0.0037969,0.031282,0.15828,0.91021,-0.29158,0.078704
1589,0.01764,-0.029132,0.0036737,0.068635,-0.19186,-0.51667,0.05142
1590,-0.011592,-0.041799,-0.013216,-0.0073698,-1.2959,-0.77229,0.017965
1591,-0.030756,-0.04115,-0.012567,-0.044398,-2.0426,-1.0133,-0.0089938
1592,-0.030756,-0.026533,0.0069217,-0.03303,-2.2417,-1.189,-0.022311
1593,-0.011267,-0.0024977,0.035505,0.016016,-1.9455,-1.2663,-0.020687
1594,0.020564,0.023162,0.061814,0.080003,-1.3839,-1.2322,-0.011592
1595,0.05272,0.044275,0.084226,0.131,-0.83108,-1.1007,-0.00087364
1596,0.076431,0.057592,0.10144,0.16056,-0.4975,-0.91131,0.0056225
1597,0.084551,0.06084,0.11476,0.1742,-0.43612,-0.7161,0.014068
1598,0.078055,0.057917,0.12515,0.18654,-0.53875,-0.55857,0.028359
1599,0.064737,0.054019,0.13295,0.21252,-0.6362,-0.45008,0.050771
1600,0.056292,0.053694,0.13944,0.25313,-0.60891,-0.37992,0.07773
1601,0.059865,0.058891,0.14821,0.29795,-0.44781,-0.31659,0.10469
1602,0.073832,0.070259,0.15861,0.34115,-0.22564,-0.23409,0.12807
1603,0.091372,0.079354,0.1677,0.38175,-0.031081,-0.11293,0.14496
1604,0.10826,0.081627,0.1716,0.41748,0.06831,0.066686,0.15698
1605,0.12158,0.078704,0.17387,0.44801,0.02706,0.31419,0.1742
1606,0.12872,0.071234,0.17842,0.46945,-0.15841,0.60522,0.2044
1607,0.131,0.06019,0.18881,0.47854,-0.43709,0.86701,0.24501
1608,0.12223,0.046548,0.20018,0.47237,-0.69726,1.0177,0.28138
1609,0.096569,0.031607,0.20246,0.45093,-0.83238,1.0096,0.30055
1610,0.053369,0.014717,0.19011,0.41293,-0.83465,0.85467,0.29957
1611,0.011794,-0.00054884,0.16283,0.35999,-0.83336,0.61951,0.28236
1612,-0.0083442,-0.013541,0.13002,0.30412,-0.92528,0.3746,0.25832
1613,0.00042559,-0.02361,0.098517,0.25962,-1.039,0.15049,0.23591
1614,0.033881,-0.026858,0.076431,0.24273,-0.97302,-0.086948,0.2135
1615,0.074157,-0.022311,0.071883,0.258,-0.51829,-0.39389,0.18979
1616,0.10729,-0.012567,0.08585,0.2934,0.34017,-0.78139,0.1664
1617,0.12223,0.00075039,0.11151,0.32816,1.301,-1.1926,0.14334
1618,0.12125,0.017316,0.13847,0.34277,1.9626,-1.5093,0.12775
1619,0.11833,0.033881,0.15438,0.3327,2.0948,-1.6191,0.1245
1620,0.12645,0.040052,0.15438,0.30899,1.7531,-1.4761,0.14302
1621,0.14432,0.031932,0.14009,0.28398,1.1973,-1.1049,0.17972
1622,0.15828,0.01894,0.11866,0.25995,0.70851,-0.59754,0.22422
1623,0.15503,0.014392,0.09397,0.22617,0.40741,-0.086948,0.2528
1624,0.12385,0.023812,0.069285,0.16445,0.22129,0.2934,0.24403
1625,0.070584,0.041676,0.044599,0.070259,0.044275,0.47464,0.18881
1626,0.015367,0.059865,0.021863,-0.037252,-0.10124,0.46977,0.10177
1627,-0.021661,0.074806,0.0052977,-0.12333,-0.13404,0.34635,0.0069217
1628,-0.030431,0.083901,-0.0034721,-0.1688,-0.040825,0.18362,-0.072981
1629,-0.010943,0.090072,-0.0073698,-0.174,0.11833,0.048172,-0.12235
1630,0.023162,0.096244,-0.0096434,-0.14996,0.27651,-0.018088,-0.13567
1631,0.063763,0.10144,-0.012242,-0.10644,0.42365,0.016016,-0.1178
1632,0.10306,0.10534,-0.016789,-0.052518,0.59482,0.16608,-0.079477
1633,0.13684,0.10339,-0.021661,0.0062721,0.79815,0.4204,-0.028807
1634,0.1638,0.095919,-0.018738,0.066362,0.9794,0.71922,0.02641
1635,0.18459,0.085525,-0.0063954,0.11801,1.083,0.96933,0.076431
1636,0.20018,0.079679,0.011794,0.14789,1.1356,1.1028,0.11151
1637,0.207,0.078379,0.023162,0.14172,1.2227,1.1194,0.12255
1638,0.19986,0.07773,0.021863,0.095594,1.4026,1.0898,0.11183
1639,0.17647,0.075456,0.0075714,0.019914,1.6274,1.0983,0.079029
1640,0.14009,0.068635,-0.016464,-0.063886,1.7011,1.1759,0.032582
1641,0.097868,0.053694,-0.044723,-0.14184,1.3672,1.2808,-0.019388
1642,0.057917,0.036479,-0.070707,-0.20843,0.40416,1.3256,-0.075255
1643,0.022512,0.020239,-0.093444,-0.26559,-1.189,1.2344,-0.1334
1644,-0.0063954,0.0065969,-0.11488,-0.31236,-2.9904,1.0031,-0.18569
1645,-0.026858,-0.0057458,-0.1334,-0.34647,-4.4699,0.69811,-0.22467
1646,-0.040825,-0.016464,-0.15256,-0.36856,-4.9691,0.40676,-0.24935
1647,-0.055766,-0.030756,-0.1688,-0.3809,-4.9695,0.16283,-0.26722
1648,-0.081751,-0.050894,-0.17822,-0.38415,-4.2721,-0.065186,-0.28995
1649,-0.11845,-0.075579,-0.17789,-0.37765,-3.07,-0.30035,-0.32406
1650,-0.16198,-0.096367,-0.1675,-0.36596,-1.8578,-0.51894,-0.36141
1651,-0.2042,-0.10514,-0.14964,-0.35589,-0.82004,-0.66998,-0.38382
1652,-0.24123,-0.10124,-0.13502,-0.35037,0.048497,-0.71058,-0.37635
1653,-0.26364,-0.086948,-0.12885,-0.34387,0.81764,-0.63132,-0.33348
1654,-0.26494,-0.06616,-0.12625,-0.32373,1.49,-0.46243,-0.25487
1655,-0.24123,-0.04115,-0.11975,-0.28346,1.9688,-0.26202,-0.14899
1656,-0.18439,-0.017764,-0.10644,-0.22726,2.1126,-0.088247,-0.029782
1657,-0.097341,0.0033489,-0.090196,-0.16165,1.8453,0.029009,0.085525
1658,0.0088706,0.020888,-0.071357,-0.097341,1.2516,0.094295,0.18914
1659,0.11541,0.030957,-0.055116,-0.037252,0.53506,0.13067,0.27846
1660,0.19823,0.033231,-0.036278,0.017316,-0.088572,0.14886,0.35024
1661,0.24858,0.034855,-0.0080194,0.070259,-0.48256,0.12807,0.40546
1662,0.27164,0.045899,0.029983,0.1232,-0.64497,0.03453,0.43859
1663,0.28268,0.06896,0.06831,0.17257,-0.64951,-0.13469,0.44379
1664,0.29178,0.097218,0.10079,0.20863,-0.57806,-0.34614,0.4165
1665,0.30022,0.1206,0.12093,0.22129,-0.50627,-0.53323,0.36064
1666,0.29795,0.12223,0.1258,0.20408,-0.44683,-0.6336,0.28301
1667,0.26937,0.097543,0.11768,0.1625,-0.3338,-0.61898,0.19109
1668,0.2044,0.05142,0.10014,0.11248,-0.10774,-0.4962,0.093645
1669,0.10144,0.00042559,0.080978,0.070584,0.21415,-0.2945,-0.00054884
1670,-0.018088,-0.04115,0.066362,0.052395,0.53376,-0.059989,-0.082076
1671,-0.1243,-0.062262,0.061165,0.063763,0.73092,0.16965,-0.13534
1672,-0.19413,-0.062587,0.064737,0.10209,0.74229,0.36161,-0.14606
1673,-0.22889,-0.04862,0.076755,0.15796,0.62925,0.48796,-0.10221
1674,-0.23863,-0.030431,0.095919,0.21902,0.55,0.51752,-0.010618
1675,-0.22824,-0.017114,0.11313,0.27132,0.61301,0.4256,0.10242
1676,-0.18991,-0.0041217,0.11931,0.30445,0.83551,0.22129,0.20408
1677,-0.092794,0.028684,0.11866,0.32458,1.2422,-0.024909,0.28008
1678,0.092346,0.10599,0.12418,0.35414,1.8561,-0.22239,0.3353
1679,0.35479,0.23396,0.14074,0.39929,2.558,-0.32276,0.38337
1680,0.62568,0.3772,0.16705,0.44606,3.0322,-0.35556,0.43339
1681,0.82024,0.48731,0.19531,0.48244,2.9507,-0.38739,0.47887
1682,0.88065,0.52791,0.21837,0.50485,2.1981,-0.47867,0.50713
1683,0.8027,0.49965,0.23396,0.51849,0.93717,-0.65146,0.50777
1684,0.63153,0.42138,0.24306,0.52856,-0.49458,-0.88078,0.47692
1685,0.42787,0.32426,0.24501,0.53116,-1.7181,-1.0861,0.41585
1686,0.24013,0.23429,0.23364,0.50193,-2.5591,-1.1741,0.3314
1687,0.088773,0.16088,0.20051,0.40741,-2.9657,-1.077,0.22194
1688,-0.031406,0.097543,0.13165,0.21545,-2.9147,-0.80217,0.084551
1689,-0.1334,0.035505,0.025111,-0.071032,-2.4947,-0.42865,-0.075904
1690,-0.21914,-0.025234,-0.10254,-0.40331,-1.963,-0.06681,-0.23636
1691,-0.28183,-0.081751,-0.22629,-0.71123,-1.5801,0.19856,-0.37278
1692,-0.31691,-0.13437,-0.32698,-0.93859,-1.3998,0.35414,-0.46243
1693,-0.32731,-0.18699,-0.39616,-1.0649,-1.3092,0.45483,-0.49523
1694,-0.31854,-0.24123,-0.43482,-1.1013,-1.2017,0.56072,-0.47509
1695,-0.30262,-0.28703,-0.44683,-1.0705,-1.0198,0.69227,-0.42215
1696,-0.28865,-0.30782,-0.44261,-0.99868,-0.71513,0.83323,-0.36661
1697,-0.27728,-0.29093,-0.42312,-0.89864,-0.2906,0.96965,-0.33283
1698,-0.26494,-0.23571,-0.38512,-0.77684,0.16445,1.109,-0.31854
1699,-0.24708,-0.15321,-0.32438,-0.63717,0.58995,1.247,-0.30457
1700,-0.22402,-0.068758,-0.24643,-0.48614,0.94919,1.3247,-0.27469
1701,-0.19966,-0.008669,-0.16685,-0.34517,1.1093,1.2727,-0.23116
1702,-0.17367,0.0075714,-0.098316,-0.23376,0.90469,1.0557,-0.19089
1703,-0.14736,-0.01614,-0.053168,-0.16685,0.34277,0.71728,-0.17302
1704,-0.12235,-0.063561,-0.039851,-0.14314,-0.37505,0.37168,-0.17822
1705,-0.094418,-0.11488,-0.057715,-0.15841,-1.0227,0.14724,-0.19706
1706,-0.06616,-0.15873,-0.095717,-0.20323,-1.442,0.095594,-0.21492
1707,-0.047971,-0.19381,-0.14022,-0.25812,-1.5135,0.16218,-0.22597
1708,-0.054467,-0.21687,-0.1753,-0.30457,-1.1991,0.20473,-0.23376
1709,-0.092794,-0.22564,-0.18991,-0.3351,-0.56182,0.087474,-0.25065
1710,-0.15418,-0.22077,-0.18342,-0.34517,0.22617,-0.23084,-0.28216
1711,-0.21914,-0.20583,-0.16653,-0.3351,0.9375,-0.68135,-0.32503
1712,-0.27534,-0.18796,-0.14964,-0.31464,1.4241,-1.1286,-0.37635
1713,-0.32048,-0.18114,-0.14216,-0.28995,1.6842,-1.4304,-0.42572
1714,-0.34939,-0.18829,-0.14184,-0.2578,1.8096,-1.483,-0.45041
1715,-0.35491,-0.19511,-0.13534,-0.20972,1.8768,-1.278,-0.42442
1716,-0.33218,-0.18861,-0.11748,-0.14411,1.8866,-0.91683,-0.34452
1717,-0.2867,-0.16977,-0.089546,-0.06681,1.807,-0.53973,-0.23019
1718,-0.23798,-0.14801,-0.058689,0.016341,1.6219,-0.24545,-0.11391
1719,-0.2055,-0.12592,-0.027833,0.10112,1.3568,-0.05739,-0.019063
1720,-0.19933,-0.09994,0.0026992,0.18134,1.0353,0.053694,0.04395
1721,-0.22077,-0.066485,0.031607,0.25118,0.65361,0.13522,0.074482
1722,-0.24968,-0.023285,0.054344,0.30704,0.22097,0.22032,0.081627
1723,-0.26104,0.030633,0.068635,0.34764,-0.23571,0.31549,0.074806
1724,-0.24318,0.09462,0.077405,0.37493,-0.66056,0.41163,0.063763
1725,-0.19868,0.15763,0.083576,0.385,-0.96945,0.50128,0.058891
1726,-0.14346,0.20246,0.089098,0.38272,-1.0835,0.58508,0.070584
1727,-0.086948,0.2174,0.094945,0.37395,-0.98959,0.66108,0.10047
1728,-0.034654,0.20018,0.10501,0.36551,-0.74371,0.71403,0.14269
1729,0.011794,0.16088,0.1206,0.36389,-0.42767,0.71273,0.18459
1730,0.053694,0.11313,0.13814,0.36941,-0.11553,0.62698,0.2135
1731,0.088773,0.062464,0.15049,0.37948,0.13035,0.45191,0.22227
1732,0.11995,0.013743,0.15341,0.38565,0.25085,0.21155,0.21772
1733,0.14399,-0.027183,0.14529,0.37493,0.20733,-0.046996,0.20928
1734,0.16088,-0.05804,0.12905,0.34894,0.05272,-0.27956,0.20668
1735,0.1742,-0.070058,0.11151,0.32361,-0.030106,-0.45528,0.21415
1736,0.18654,-0.051868,0.10144,0.31484,0.13717,-0.55954,0.22552
1737,0.19596,0.0075714,0.10989,0.33303,0.56786,-0.58195,0.22812
1738,0.19596,0.10566,0.13879,0.37298,1.1145,-0.50985,0.2148
1739,0.18816,0.21317,0.18069,0.4191,1.5589,-0.35946,0.18751
1740,0.17712,0.29243,0.21447,0.45516,1.7385,-0.17205,0.15958
1741,0.17095,0.32231,0.22909,0.47205,1.6092,0.0046481,0.14367
1742,0.1729,0.30639,0.22454,0.47042,1.2415,0.13425,0.13847
1743,0.1729,0.26579,0.21058,0.44963,0.76795,0.18881,0.13067
1744,0.1638,0.22487,0.19401,0.41196,0.32036,0.15666,0.11118
1745,0.14172,0.19953,0.17452,0.36031,0.012443,0.0433,0.084876
1746,0.11443,0.18687,0.15698,0.30315,-0.12268,-0.11586,0.062789
1747,0.092996,0.1755,0.14399,0.25248,-0.15418,-0.25975,0.058891
1748,0.076755,0.15536,0.13652,0.22129,-0.20355,-0.34225,0.069934
1749,0.059216,0.12483,0.13587,0.21447,-0.36238,-0.35621,0.082277
1750,0.039078,0.089423,0.14367,0.22487,-0.63003,-0.33543,0.08585
1751,0.012443,0.054019,0.15958,0.24273,-0.9295,-0.31366,0.079029
1752,-0.012242,0.027385,0.17517,0.25832,-1.2092,-0.30782,0.069285
1753,-0.021012,0.019264,0.18102,0.26319,-1.4956,-0.30782,0.06961
1754,0.00010078,0.028034,0.17322,0.25085,-1.7964,-0.27436,0.093645
1755,0.04395,0.045249,0.15666,0.22065,-2.0312,-0.17205,0.13912
1756,0.090722,0.056292,0.14009,0.17939,-2.105,0.0056225,0.18881
1757,0.12905,0.055318,0.12807,0.14302,-2.0046,0.22032,0.22682
1758,0.15861,0.04395,0.1219,0.12288,-1.7876,0.40838,0.24371
1759,0.18784,0.028359,0.11801,0.11638,-1.4943,0.51395,0.24143
1760,0.21902,0.014068,0.11281,0.11541,-1.0487,0.52954,0.23331
1761,0.24793,0.00075039,0.10306,0.11151,-0.33315,0.48147,0.23721
1762,0.26157,-0.012567,0.086824,0.10306,0.58216,0.38792,0.25183
1763,0.24923,-0.029457,0.067011,0.088448,1.3737,0.2489,0.25995
1764,0.2096,-0.053817,0.045574,0.063113,1.7635,0.067661,0.23851
1765,0.15309,-0.085973,0.024786,0.028034,1.7495,-0.12203,0.1768
1766,0.091372,-0.1217,0.0020496,-0.011592,1.4851,-0.27631,0.079029
1767,0.033231,-0.15678,-0.023935,-0.055116,0.97907,-0.34939,-0.037252
1768,-0.017439,-0.18699,-0.050894,-0.10774,0.073832,-0.31334,-0.14314
1769,-0.055116,-0.2055,-0.076554,-0.1649,-1.1887,-0.19446,-0.2107
1770,-0.069408,-0.20843,-0.093119,-0.21362,-2.4441,-0.08305,-0.22694
1771,-0.060963,-0.18991,-0.095068,-0.23571,-3.2727,-0.081101,-0.19706
1772,-0.035628,-0.14769,-0.075904,-0.2133,-3.4302,-0.20875,-0.13989
1773,-0.0034721,-0.087922,-0.031406,-0.14346,-2.9602,-0.38902,-0.075579
1774,0.029983,-0.02426,0.030633,-0.037902,-2.1115,-0.53388,-0.019388
1775,0.061489,0.032257,0.091696,0.081627,-1.1621,-0.60177,0.020564
1776,0.099817,0.076106,0.1349,0.18914,-0.31626,-0.60372,0.049147
1777,0.14432,0.11118,0.15406,0.26774,0.30997,-0.57936,0.073507
1778,0.18459,0.14204,0.15114,0.30315,0.68544,-0.56994,0.10469
1779,0.2083,0.1703,0.1336,0.29795,0.86311,-0.5878,0.15276
1780,0.21252,0.19271,0.10891,0.25767,0.969,-0.60599,0.21837
1781,0.19628,0.19953,0.080003,0.18816,1.1779,-0.58488,0.28431
1782,0.15958,0.18102,0.047847,0.098193,1.6258,-0.49653,0.32556
1783,0.10534,0.13587,0.011794,-0.0031473,2.3043,-0.35686,0.32653
1784,0.037129,0.076106,-0.024585,-0.10189,3.0361,-0.19641,0.29373
1785,-0.03303,0.018615,-0.057065,-0.17692,3.574,-0.029132,0.24663
1786,-0.088896,-0.02361,-0.0837,-0.21947,3.7032,0.13262,0.19953
1787,-0.12073,-0.046347,-0.10838,-0.24026,3.2885,0.27067,0.15081
1788,-0.1308,-0.059014,-0.1321,-0.26137,2.3446,0.37623,0.09397
1789,-0.12495,-0.070382,-0.15321,-0.2971,1.0788,0.43989,0.025111
1790,-0.11326,-0.086298,-0.17107,-0.34939,-0.17789,0.4597,-0.048945
1791,-0.10514,-0.10774,-0.18861,-0.40623,-1.088,0.45386,-0.12365
1792,-0.10903,-0.1321,-0.20453,-0.46048,-1.4651,0.45808,-0.19251
1793,-0.12138,-0.15905,-0.22532,-0.50497,-1.3202,0.49413,-0.24838
1794,-0.14022,-0.18244,-0.25845,-0.54135,-0.93242,0.52824,-0.29288
1795,-0.16458,-0.19576,-0.29742,-0.57286,-0.65406,0.51135,-0.32828
1796,-0.18926,-0.19316,-0.3325,-0.59657,-0.53616,0.42365,-0.35849
1797,-0.20843,-0.17237,-0.34777,-0.60209,-0.34679,0.28756,-0.37668
1798,-0.21525,-0.13567,-0.33705,-0.58033,0.081303,0.14854,-0.37992
1799,-0.21265,-0.096692,-0.30717,-0.53388,0.60489,0.056292,-0.36433
1800,-0.20355,-0.068758,-0.26949,-0.48224,0.88293,0.029983,-0.33348
1801,-0.19089,-0.058689,-0.23636,-0.43709,0.6718,0.064413,-0.2984
1802,-0.17302,-0.059014,-0.20908,-0.40363,0.00010078,0.14237,-0.26787
1803,-0.14899,-0.059339,-0.18569,-0.37733,-0.83303,0.24793,-0.24318
1804,-0.12333,-0.053492,-0.16198,-0.35037,-1.4599,0.37233,-0.22467
1805,-0.10189,-0.043099,-0.13957,-0.32146,-1.6769,0.49478,-0.21005
1806,-0.085973,-0.036927,-0.12105,-0.28963,-1.5125,0.58378,-0.20225
1807,-0.075255,-0.034654,-0.10514,-0.25357,-1.1624,0.61301,-0.20583
1808,-0.064861,-0.034978,-0.090196,-0.20745,-0.83271,0.57826,-0.21785
1809,-0.052193,-0.035953,-0.073955,-0.14671,-0.62418,0.49348,-0.23084
1810,-0.033354,-0.037577,-0.054792,-0.072006,-0.52122,0.3785,-0.23701
1811,-0.014191,-0.038551,-0.030106,0.0078962,-0.44456,0.2476,-0.22532
1812,0.00075039,-0.037252,0.0010752,0.081952,-0.31366,0.11378,-0.19089
1813,0.0091954,-0.032055,0.037454,0.14464,-0.10026,-0.0057458,-0.13762
1814,0.011469,-0.022961,0.074482,0.19141,0.15731,-0.099615,-0.07493
1815,0.013418,-0.010618,0.10631,0.22487,0.39896,-0.16815,-0.0057458
1816,0.021538,0.0023744,0.12483,0.24501,0.58021,-0.20648,0.062139
1817,0.035505,0.016016,0.12353,0.25443,0.68967,-0.20258,0.11736
1818,0.049472,0.026085,0.10664,0.25865,0.74586,-0.15451,0.14724
1819,0.056292,0.025761,0.080978,0.26157,0.77769,-0.072331,0.14886
1820,0.054668,0.012768,0.053044,0.26514,0.81244,0.031932,0.12548
1821,0.049796,-0.0028225,0.029009,0.27294,0.85434,0.14139,0.091047
1822,0.048822,-0.0028225,0.01894,0.28268,0.87318,0.23396,0.057267
1823,0.059541,0.024461,0.027709,0.29178,0.82739,0.28106,0.030633
1824,0.081303,0.075781,0.050446,0.29827,0.70298,0.25378,0.0091954
1825,0.11021,0.13522,0.07708,0.30087,0.48796,0.15179,-0.0089938
1826,0.1349,0.18427,0.098193,0.30022,0.15991,0.0046481,-0.022311
1827,0.14984,0.21123,0.11021,0.29762,-0.21492,-0.14509,-0.022961
1828,0.15373,0.21642,0.11866,0.29827,-0.46405,-0.26007,-0.00087364
1829,0.15309,0.20668,0.1271,0.30997,-0.44618,-0.31301,0.04395
1830,0.15763,0.19434,0.14107,0.33498,-0.14574,-0.28995,0.10989
1831,0.17355,0.18849,0.16413,0.37265,0.33368,-0.19283,0.19531
1832,0.19856,0.19109,0.19304,0.4178,0.85857,-0.040175,0.28561
1833,0.22422,0.19628,0.21837,0.45743,1.275,0.13197,0.35804
1834,0.24371,0.19888,0.22682,0.47887,1.4185,0.27846,0.39767
1835,0.25183,0.19141,0.21415,0.46977,1.2191,0.34829,0.40221
1836,0.2502,0.1729,0.18134,0.42722,0.71013,0.31776,0.37623
1837,0.24176,0.14432,0.13684,0.34992,0.0043233,0.19791,0.32166
1838,0.22454,0.10956,0.087799,0.2489,-0.71155,0.0033489,0.24046
1839,0.20018,0.075131,0.044924,0.14789,-1.2335,-0.24935,0.14626
1840,0.1729,0.049147,0.01764,0.067661,-1.4635,-0.52316,0.055968
1841,0.14886,0.03583,0.0017248,0.012768,-1.5291,-0.76807,-0.0089938
1842,0.1323,0.031932,-0.0054209,-0.03173,-1.6795,-0.92398,-0.0405
1843,0.11703,0.03518,-0.0083442,-0.081751,-2.0533,-0.93275,-0.042774
1844,0.099492,0.041027,-0.0089938,-0.13599,-2.6292,-0.76222,-0.021337
1845,0.079679,0.04395,-0.0047713,-0.174,-3.2908,-0.43677,0.015692
1846,0.057917,0.045249,0.0039985,-0.17919,-3.8817,-0.044723,0.059865
1847,0.037778,0.045574,0.01894,-0.15256,-4.2247,0.30282,0.093645
1848,0.020564,0.044924,0.031607,-0.11456,-4.2049,0.52142,0.099492
1849,0.0033489,0.036479,0.032257,-0.094093,-3.7911,0.58021,0.067986
1850,-0.023285,0.016341,0.015692,-0.11261,-3.0511,0.48731,-0.0015233
1851,-0.067459,-0.017114,-0.019063,-0.17335,-2.1722,0.28658,-0.09994
1852,-0.13112,-0.058689,-0.061937,-0.25292,-1.303,0.039727,-0.2094
1853,-0.20583,-0.10026,-0.10286,-0.32016,-0.37733,-0.212,-0.30912
1854,-0.28151,-0.13307,-0.13112,-0.34712,0.80887,-0.46665,-0.38382
1855,-0.34809,-0.15451,-0.14314,-0.3286,2.2348,-0.72357,-0.42897
1856,-0.39941,-0.16295,-0.13989,-0.28151,3.5587,-0.96198,-0.44781
1857,-0.43189,-0.16165,-0.13047,-0.23863,4.4006,-1.1465,-0.45268
1858,-0.44683,-0.15873,-0.12755,-0.22467,4.653,-1.2351,-0.45236
1859,-0.43904,-0.15938,-0.13762,-0.24123,4.5006,-1.1841,-0.44878
1860,-0.40623,-0.16555,-0.15613,-0.27534,4.2138,-0.95418,-0.43612
