,channel_1,channel_2,channel_3,channel_4,channel_5,channel_6,channel_7
0,-0.079802,-0.6297,-0.38122,-0.23798,-2.1781,0.031607,0.070259
1,0.17322,-0.56441,-0.43092,-0.27371,-1.3466,0.021213,0.061814
2,0.53246,-0.3731,-0.4176,-0.26527,-0.35491,0.057917,0.083901
3,0.969,-0.093119,-0.34874,-0.23474,0.57728,0.14529,0.14237
4,1.413,0.22941,-0.24805,-0.2055,1.2652,0.25897,0.22779
5,1.7774,0.55487,-0.14054,-0.18536,1.6365,0.36486,0.32718
6,2.0003,0.85142,-0.039526,-0.161,1.7651,0.4308,0.42365
7,2.0672,1.0869,0.048822,-0.123,1.8051,0.44054,0.50225
8,1.9999,1.2256,0.12645,-0.073955,1.8307,0.40514,0.55227
9,1.8314,1.2396,0.18329,-0.029132,1.795,0.34667,0.56429
10,1.5894,1.1295,0.21123,-0.00054884,1.6056,0.27456,0.53571
11,1.2951,0.92515,0.21123,0.013093,1.2415,0.19466,0.47399
12,0.97842,0.67862,0.19531,0.037129,0.77184,0.11086,0.39474
13,0.67895,0.44834,0.18134,0.11248,0.29308,0.036479,0.31159
14,0.43242,0.27554,0.1768,0.27359,-0.093444,-0.016789,0.23721
15,0.2541,0.1755,0.18037,0.51427,-0.32178,-0.040175,0.18297
16,0.14399,0.14464,0.19401,0.75918,-0.40428,-0.029782,0.15179
17,0.088773,0.16023,0.21285,0.89235,-0.40331,0.0033489,0.13425
18,0.070584,0.19563,0.22714,0.82414,-0.38707,0.032582,0.11736
19,0.078379,0.22097,0.22682,0.57111,-0.3809,0.030633,0.088124
20,0.10729,0.22,0.20538,0.24533,-0.36758,-0.0099683,0.0433
21,0.14269,0.18816,0.16868,-0.023935,-0.34874,-0.070382,-0.0083442
22,0.16933,0.1271,0.12385,-0.15776,-0.35849,-0.12073,-0.054792
23,0.17225,0.0433,0.081627,-0.15451,-0.41695,-0.14281,-0.090521
24,0.13132,-0.052843,0.047198,-0.070707,-0.50238,-0.13599,-0.11586
25,0.0433,-0.14866,0.014392,0.01894,-0.57318,-0.10741,-0.13112
26,-0.077203,-0.23733,-0.023285,0.072208,-0.59949,-0.067459,-0.13567
27,-0.19576,-0.31204,-0.060313,0.096569,-0.57643,-0.023285,-0.12722
28,-0.28508,-0.37018,-0.087597,0.13165,-0.52934,0.016666,-0.10644
29,-0.33997,-0.40981,-0.093769,0.20603,-0.49393,0.042001,-0.079477
30,-0.37408,-0.43449,-0.077853,0.31386,-0.48646,0.049147,-0.062262
31,-0.40201,-0.45041,-0.051219,0.42105,-0.51212,0.040702,-0.072006
32,-0.44131,-0.46307,-0.030106,0.48634,-0.57351,0.022188,-0.10903
33,-0.50952,-0.47769,-0.02361,0.48341,-0.66186,0.00075039,-0.15776
34,-0.63068,-0.5001,-0.03303,0.41683,-0.70863,-0.013216,-0.20063
35,-0.83433,-0.53518,-0.051219,0.31971,-0.58098,-0.0057458,-0.22694
36,-1.1328,-0.57611,-0.069083,0.22714,-0.14216,0.032906,-0.23409
37,-1.4989,-0.60891,-0.080127,0.15861,0.60457,0.09397,-0.22726
38,-1.8552,-0.61443,-0.081751,0.11378,1.4465,0.15373,-0.21687
39,-2.1037,-0.57708,-0.07493,0.081627,2.1159,0.19076,-0.20453
40,-2.1696,-0.49653,-0.059664,0.042651,2.4193,0.19888,-0.19056
41,-2.0358,-0.39227,-0.039526,-0.019063,2.2598,0.18102,-0.1753
42,-1.7542,-0.2984,-0.022961,-0.11391,1.6501,0.14529,-0.15841
43,-1.4109,-0.24286,-0.01549,-0.23603,0.7621,0.091696,-0.14346
44,-1.0861,-0.23441,-0.014191,-0.36596,-0.098641,0.016991,-0.13372
45,-0.82394,-0.25812,-0.013541,-0.47639,-0.64367,-0.071032,-0.13437
46,-0.62645,-0.28346,-0.0096434,-0.54623,-0.75995,-0.16425,-0.14249
47,-0.4673,-0.28346,-0.0041217,-0.56506,-0.48419,-0.24935,-0.14931
48,-0.31399,-0.24838,0.00010078,-0.53778,0.053369,-0.31399,-0.14606
49,-0.14899,-0.19089,-0.0034721,-0.46632,0.64939,-0.35329,-0.12592
50,0.023162,-0.14216,-0.018088,-0.35816,1.0716,-0.3731,-0.089546
51,0.17777,-0.11586,-0.042774,-0.23246,1.0915,-0.38415,-0.052193
52,0.28496,-0.10221,-0.072981,-0.11553,0.61269,-0.39292,-0.028807
53,0.33075,-0.080127,-0.098316,-0.024585,-0.19868,-0.39746,-0.025559
54,0.334,-0.029782,-0.11098,0.0433,-0.9623,-0.38057,-0.034978
55,0.32556,0.049472,-0.10644,0.11801,-1.3453,-0.33153,-0.043423
56,0.32426,0.15146,-0.081101,0.22974,-1.2322,-0.25227,-0.042124
57,0.33075,0.2619,-0.029782,0.39442,-0.70668,-0.15451,-0.028807
58,0.32556,0.34764,0.042651,0.58508,0.012119,-0.056741,-0.011267
59,0.27684,0.37168,0.11963,0.75365,0.65686,0.022512,-0.0015233
60,0.1677,0.31322,0.17062,0.84947,1.033,0.066686,-0.010293
61,0.012768,0.18329,0.17192,0.84168,1.1061,0.072208,-0.033679
62,-0.14379,0.022512,0.12125,0.73774,0.95958,0.042326,-0.061288
63,-0.24708,-0.11618,0.041351,0.57566,0.72247,-0.0018481,-0.075904
64,-0.26624,-0.19381,-0.035303,0.39994,0.5133,-0.040175,-0.074605
65,-0.20096,-0.20323,-0.088247,0.24923,0.4217,-0.056091,-0.061288
66,-0.082725,-0.16393,-0.11131,0.14042,0.50713,-0.035953,-0.040175
67,0.048822,-0.10903,-0.11715,0.069934,0.77964,0.020888,-0.014191
68,0.15958,-0.051868,-0.11293,0.026735,1.1762,0.10014,0.016016
69,0.23331,0.013418,-0.096692,-0.00022403,1.59,0.18427,0.052395
70,0.26839,0.097868,-0.065835,-0.019388,1.9103,0.25832,0.086824
71,0.27164,0.19531,-0.023285,-0.039526,2.0227,0.30315,0.11054
72,0.25832,0.28301,0.017965,-0.060638,1.7813,0.30769,0.11768
73,0.24273,0.3405,0.049796,-0.079477,1.0716,0.26872,0.11801
74,0.23591,0.35154,0.069285,-0.088572,-0.034329,0.19791,0.12288
75,0.24111,0.31744,0.080328,-0.085324,-1.2381,0.11054,0.13977
76,0.25767,0.26157,0.087474,-0.073631,-2.2024,0.016666,0.16283
77,0.29048,0.21382,0.089423,-0.064536,-2.7263,-0.078178,0.18004
78,0.35252,0.19011,0.082927,-0.069083,-2.8017,-0.16328,0.18329
79,0.44411,0.18914,0.06896,-0.086298,-2.6062,-0.22629,0.16835
80,0.53116,0.20148,0.050771,-0.11326,-2.3739,-0.26592,0.13197
81,0.56072,0.21188,0.029009,-0.14606,-2.2505,-0.2919,0.075131
82,0.50323,0.2057,-0.00054884,-0.17789,-2.2531,-0.31106,0.0085458
83,0.38078,0.1716,-0.038551,-0.2055,-2.3522,-0.32341,-0.04862
84,0.24533,0.10306,-0.080451,-0.22694,-2.5003,-0.33153,-0.080127
85,0.15276,0.023162,-0.11391,-0.23636,-2.6101,-0.34355,-0.077528
86,0.13652,-0.028807,-0.1243,-0.22954,-2.5977,-0.36466,-0.048945
87,0.19141,-0.01614,-0.10286,-0.20583,-2.4243,-0.38674,-0.011917
88,0.28398,0.06896,-0.056416,-0.17367,-2.1001,-0.39746,0.019589
89,0.36291,0.19921,-0.0031473,-0.14314,-1.6486,-0.39162,0.031282
90,0.37558,0.32393,0.037129,-0.12105,-1.113,-0.3705,0.016666
91,0.296,0.39117,0.057592,-0.11196,-0.57189,-0.33672,-0.024585
92,0.13684,0.37915,0.061165,-0.11066,-0.11845,-0.29288,-0.075904
93,-0.047321,0.29308,0.055968,-0.10871,0.18004,-0.23798,-0.1243
94,-0.18569,0.15828,0.048497,-0.10449,0.31484,-0.16555,-0.15646
95,-0.23409,0.014392,0.041351,-0.096367,0.35836,-0.068758,-0.16425
96,-0.17984,-0.10709,0.033231,-0.082076,0.41196,0.048172,-0.14184
97,-0.034004,-0.18926,0.025111,-0.058365,0.56104,0.17322,-0.093119
98,0.15276,-0.23344,0.019264,-0.028482,0.81667,0.29015,-0.032705
99,0.30477,-0.2578,0.012119,-0.0018481,1.1314,0.38045,0.022837
100,0.38792,-0.27566,-0.0018481,0.011794,1.437,0.43307,0.067011
101,0.44249,-0.27728,-0.025884,0.0088706,1.6846,0.44639,0.098193
102,0.53506,-0.23474,-0.05804,-0.0067202,1.8496,0.42495,0.1232
103,0.67862,-0.13567,-0.087922,-0.02361,1.9161,0.3824,0.14561
104,0.80302,0.010495,-0.098965,-0.030106,1.8349,0.34472,0.16868
105,0.81862,0.1742,-0.077853,-0.017439,1.5413,0.33303,0.20213
106,0.70558,0.3366,-0.016464,0.0072465,1.0219,0.35739,0.24663
107,0.52466,0.48601,0.085525,0.036479,0.35739,0.41293,0.29633
108,0.33595,0.60879,0.2096,0.06019,-0.30035,0.47237,0.33303
109,0.15536,0.6796,0.32556,0.065387,-0.7658,0.50648,0.33855
110,-0.015165,0.68155,0.39896,0.037778,-0.93599,0.49413,0.30737
111,-0.16555,0.60911,0.40968,-0.028807,-0.86389,0.4256,0.24273
112,-0.27306,0.47432,0.35706,-0.12495,-0.65146,0.31192,0.15406
113,-0.30165,0.29827,0.25767,-0.22661,-0.34874,0.17095,0.054668
114,-0.21167,0.096244,0.13749,-0.30165,0.033881,0.032257,-0.038876
115,0.016341,-0.11358,0.015692,-0.33088,0.47237,-0.078178,-0.10774
116,0.35739,-0.2893,-0.096367,-0.31496,0.88715,-0.14379,-0.14249
117,0.75853,-0.37245,-0.18699,-0.27404,1.1184,-0.17302,-0.14704
118,1.1736,-0.31724,-0.24643,-0.22402,1.006,-0.19478,-0.13145
119,1.5637,-0.13145,-0.27176,-0.16945,0.55974,-0.22856,-0.10644
120,1.8664,0.11898,-0.26624,-0.11261,0.038428,-0.26364,-0.076879
121,1.9853,0.3366,-0.23863,-0.067784,-0.22694,-0.26462,-0.046671
122,1.8255,0.45808,-0.19673,-0.050569,-0.096367,-0.19511,-0.013541
123,1.3747,0.46815,-0.14379,-0.075579,0.28885,-0.052843,0.029983
124,0.72442,0.39442,-0.085648,-0.14899,0.61106,0.12385,0.087799
125,0.030957,0.27196,-0.027833,-0.26657,0.63218,0.28008,0.14984
126,-0.54558,0.12645,0.020564,-0.41435,0.36843,0.36291,0.19693
127,-0.91878,-0.026209,0.050771,-0.57253,0.015692,0.35317,0.21772
128,-1.0805,-0.17659,0.05272,-0.72195,-0.27176,0.26352,0.2044
129,-1.0844,-0.32211,0.021538,-0.85187,-0.52901,0.12775,0.16218
130,-1.0217,-0.45398,-0.030106,-0.95451,-0.8444,-0.024909,0.10047
131,-0.97854,-0.55207,-0.090845,-1.013,-1.1796,-0.17172,0.028359
132,-1.0023,-0.5969,-0.14671,-0.98407,-1.4349,-0.29547,-0.045047
133,-1.0838,-0.57968,-0.18439,-0.80282,-1.5989,-0.3835,-0.11261
134,-1.1828,-0.5118,-0.19316,-0.40623,-1.7162,-0.43384,-0.16912
135,-1.2472,-0.41403,-0.16588,0.20408,-1.7503,-0.4582,-0.20972
136,-1.2309,-0.30457,-0.10351,0.9232,-1.5301,-0.47152,-0.23246
137,-1.1211,-0.18894,-0.018413,1.5907,-0.91391,-0.47607,-0.23214
138,-0.94217,-0.076879,0.071883,2.0587,0.018615,-0.45983,-0.2055
139,-0.73916,0.014392,0.14724,2.2332,0.9794,-0.41111,-0.1636
140,-0.55402,0.073507,0.18881,2.1065,1.6813,-0.3299,-0.11651
141,-0.41403,0.10047,0.18492,1.7573,1.9931,-0.22532,-0.073306
142,-0.32341,0.10014,0.14237,1.3071,1.936,-0.11683,-0.040825
143,-0.26949,0.079679,0.084226,0.87416,1.6404,-0.026533,-0.023935
144,-0.23668,0.046223,0.027385,0.53928,1.2811,0.034206,-0.021012
145,-0.21492,0.0095202,-0.012242,0.33238,0.99174,0.067986,-0.024585
146,-0.19608,-0.025884,-0.030106,0.23624,0.83063,0.08585,-0.025884
147,-0.174,-0.055441,-0.030431,0.19986,0.78581,0.097218,-0.020362
148,-0.13632,-0.078827,-0.023935,0.17647,0.8001,0.10826,-0.0089938
149,-0.075255,-0.094093,-0.017114,0.13457,0.81309,0.11931,0.00075039
150,0.0085458,-0.10416,-0.013866,0.066362,0.78646,0.12678,0.0043233
151,0.10274,-0.11001,-0.016789,-0.01549,0.71955,0.12807,-0.00087364
152,0.18589,-0.10968,-0.019388,-0.092145,0.639,0.1245,-0.011917
153,0.23818,-0.098641,-0.015815,-0.14574,0.57274,0.12158,-0.020362
154,0.25735,-0.076229,-0.0041217,-0.17042,0.53636,0.1206,-0.019063
155,0.24923,-0.04862,0.015042,-0.174,0.52921,0.12223,-0.0093186
156,0.22324,-0.030756,0.033881,-0.1675,0.53798,0.12645,0.0023744
157,0.19141,-0.035628,0.046548,-0.161,0.53733,0.131,0.0069217
158,0.16121,-0.067459,0.052395,-0.15776,0.5029,0.12905,0.00075039
159,0.12678,-0.12268,0.053369,-0.16263,0.41813,0.11573,-0.01614
160,0.069934,-0.18634,0.049472,-0.17627,0.29113,0.090397,-0.037902
161,-0.027833,-0.24026,0.040052,-0.19283,0.14789,0.061165,-0.060313
162,-0.17302,-0.27046,0.027385,-0.20485,0.015042,0.03583,-0.078178
163,-0.35621,-0.27988,0.0088706,-0.20843,-0.089871,0.01829,-0.090521
164,-0.55435,-0.28313,-0.012567,-0.19933,-0.16068,0.012119,-0.093119
165,-0.73137,-0.29223,-0.03238,-0.18212,-0.19803,0.019914,-0.0837
166,-0.85057,-0.30944,-0.044723,-0.1597,-0.20323,0.039727,-0.062262
167,-0.88208,-0.32373,-0.045047,-0.13989,-0.17205,0.06084,-0.035953
168,-0.82491,-0.32373,-0.036278,-0.12235,-0.098641,0.06831,-0.012242
169,-0.7083,-0.30294,-0.021661,-0.10579,0.023812,0.059541,0.0017248
170,-0.57708,-0.26494,-0.0050961,-0.09182,0.19823,0.036479,0.0010752
171,-0.47672,-0.22272,0.013093,-0.081426,0.40156,0.0078962,-0.013866
172,-0.43027,-0.19154,0.030957,-0.072656,0.59222,-0.01549,-0.040825
173,-0.43612,-0.17919,0.047847,-0.061937,0.73319,-0.024585,-0.072981
174,-0.46795,-0.18277,0.063438,-0.04115,0.80595,-0.018738,-0.10124
175,-0.50303,-0.19251,0.080328,-0.0080194,0.7949,0.0033489,-0.11748
176,-0.52804,-0.20031,0.10566,0.029983,0.68902,0.03583,-0.12365
177,-0.54005,-0.20096,0.14399,0.06019,0.49998,0.061489,-0.12787
178,-0.55857,-0.19511,0.18557,0.071234,0.28528,0.067986,-0.13924
179,-0.61768,-0.19024,0.2083,0.061165,0.12515,0.053044,-0.16393
180,-0.72162,-0.19056,0.19888,0.033231,0.052395,0.027709,-0.20323
181,-0.8418,-0.20225,0.15081,-0.011592,0.0069217,-0.0063954,-0.26104
182,-0.93599,-0.23214,0.063438,-0.072981,-0.13112,-0.04862,-0.33283
183,-0.96263,-0.28248,-0.059014,-0.15451,-0.44813,-0.096692,-0.39844
184,-0.86941,-0.33543,-0.19738,-0.24805,-0.91456,-0.13275,-0.41598
185,-0.61411,-0.34484,-0.31659,-0.32958,-1.3768,-0.13275,-0.35232
186,-0.18244,-0.27728,-0.38252,-0.36985,-1.646,-0.087272,-0.2133
187,0.38142,-0.13047,-0.37862,-0.35751,-1.5859,-0.015165,-0.032055
188,0.97907,0.079354,-0.31236,-0.30457,-1.1663,0.057267,0.14237
189,1.5319,0.33368,-0.20355,-0.23863,-0.49166,0.11118,0.27586
190,2.0061,0.61399,-0.079477,-0.18244,0.19369,0.14302,0.35999
191,2.3972,0.89495,0.03453,-0.14769,0.62211,0.15991,0.40643
192,2.6642,1.1343,0.12158,-0.13372,0.70136,0.16413,0.43015
193,2.7243,1.2792,0.17322,-0.13275,0.53928,0.16543,0.44151
194,2.5167,1.2854,0.18622,-0.13502,0.33758,0.16575,0.43989
195,2.0571,1.1486,0.16413,-0.12982,0.24111,0.1664,0.42722
196,1.452,0.91119,0.12093,-0.11845,0.28626,0.16965,0.40546
197,0.85402,0.64452,0.073832,-0.097666,0.41456,0.17615,0.37753
198,0.39279,0.41715,0.035505,-0.075904,0.51167,0.18687,0.34667
199,0.12093,0.27196,0.014068,-0.056741,0.44704,0.2044,0.31841
200,0.01764,0.2122,0.014717,-0.043748,0.12872,0.23461,0.296
201,0.030308,0.2148,0.030633,-0.037252,-0.43157,0.27554,0.28138
202,0.098193,0.24436,0.054019,-0.039201,-1.064,0.31679,0.26839
203,0.16673,0.26644,0.072533,-0.055116,-1.5213,0.3457,0.25248
204,0.20083,0.26255,0.073832,-0.087597,-1.6057,0.35252,0.22844
205,0.19596,0.23429,0.059541,-0.1269,-1.2819,0.33855,0.19758
206,0.16478,0.19401,0.04395,-0.15516,-0.68654,0.31646,0.1664
207,0.12807,0.15406,0.039078,-0.15873,-0.043748,0.29633,0.14367
208,0.10924,0.12223,0.049472,-0.13437,0.43469,0.28398,0.13392
209,0.11801,0.10047,0.067336,-0.090521,0.58638,0.27196,0.13522
210,0.14561,0.0865,0.082602,-0.036278,0.2999,0.24046,0.13847
211,0.1703,0.075781,0.089748,0.015367,-0.42247,0.16575,0.131
212,0.1755,0.067336,0.084876,0.045574,-1.3449,0.044599,0.10566
213,0.15536,0.055318,0.068635,0.039402,-2.1212,-0.10189,0.064088
214,0.10859,0.039078,0.045899,0.0017248,-2.5152,-0.24545,0.011469
215,0.044599,0.017316,0.023162,-0.031406,-2.4999,-0.37343,-0.040175
216,-0.02361,-0.0028225,0.0091954,-0.007045,-2.2271,-0.48191,-0.084674
217,-0.082076,-0.011267,0.010495,0.10924,-1.8633,-0.56506,-0.11683
218,-0.1178,-0.0044465,0.028684,0.29957,-1.4612,-0.62093,-0.13307
219,-0.13632,0.011469,0.054668,0.49251,-0.98991,-0.65244,-0.13632
220,-0.15353,0.025761,0.074482,0.61009,-0.44196,-0.66283,-0.13437
221,-0.19316,0.022188,0.073507,0.60587,0.10501,-0.65471,-0.13664
222,-0.26494,-0.0031473,0.046548,0.48666,0.55455,-0.6323,-0.14541
223,-0.35459,-0.041799,0.0020496,0.30412,0.85434,-0.59787,-0.15483
224,-0.42702,-0.082076,-0.044398,0.12288,1.0096,-0.54525,-0.15743
225,-0.45918,-0.11326,-0.080776,-0.011917,1.0564,-0.47477,-0.15126
226,-0.44716,-0.13015,-0.10059,-0.084674,1.0288,-0.39064,-0.13827
227,-0.39876,-0.13275,-0.10319,-0.10871,0.93847,-0.30522,-0.12333
228,-0.3286,-0.123,-0.094418,-0.10481,0.78841,-0.22889,-0.11131
229,-0.24838,-0.10546,-0.079802,-0.09117,0.61139,-0.16555,-0.10026
230,-0.1662,-0.086623,-0.062912,-0.078827,0.45321,-0.11196,-0.088247
231,-0.087597,-0.068758,-0.047321,-0.073955,0.33887,-0.063561,-0.075579
232,-0.019063,-0.05739,-0.034978,-0.076879,0.24825,-0.018738,-0.061288
233,0.031282,-0.055441,-0.030756,-0.084024,0.14789,0.019914,-0.046996
234,0.050771,-0.061937,-0.032705,-0.091495,0.031282,0.048822,-0.037252
235,0.029009,-0.073306,-0.040175,-0.097017,-0.068109,0.064088,-0.034978
236,-0.03173,-0.085324,-0.047646,-0.10091,-0.11521,0.067986,-0.039526
237,-0.12105,-0.090845,-0.047971,-0.10416,-0.10579,0.06831,-0.045697
238,-0.21882,-0.090196,-0.039201,-0.10936,-0.058689,0.071234,-0.04992
239,-0.30424,-0.089546,-0.024585,-0.12008,0.003024,0.075456,-0.054142
240,-0.35914,-0.09929,-0.010943,-0.14574,0.053369,0.078379,-0.056741
241,-0.37992,-0.12203,-0.0057458,-0.19608,0.068635,0.077405,-0.059989
242,-0.3783,-0.15418,-0.012567,-0.26397,0.044599,0.073182,-0.063237
243,-0.37733,-0.18536,-0.026209,-0.32438,-0.0021729,0.066362,-0.060313
244,-0.39324,-0.20485,-0.040825,-0.34582,-0.050244,0.063763,-0.052518
245,-0.41598,-0.20778,-0.052843,-0.31236,-0.080776,0.067986,-0.043748
246,-0.43059,-0.19738,-0.060638,-0.22759,-0.080451,0.076755,-0.033679
247,-0.42572,-0.18536,-0.063561,-0.11196,-0.04862,0.087149,-0.022961
248,-0.39681,-0.18049,-0.057065,0.009845,-0.0024977,0.094295,-0.011592
249,-0.34679,-0.18666,-0.045047,0.12353,0.03583,0.095269,-0.0034721
250,-0.28346,-0.20096,-0.035303,0.23071,0.048497,0.088124,0.00075039
251,-0.21752,-0.22044,-0.03173,0.35252,0.033556,0.07708,0.0014
252,-0.1597,-0.23474,-0.034329,0.5016,0.0052977,0.067336,0.0010752
253,-0.10416,-0.23409,-0.0405,0.65361,-0.019063,0.061814,0.0033489
254,-0.039201,-0.21037,-0.048945,0.73904,-0.022311,0.06019,0.0088706
255,0.03453,-0.16003,-0.053168,0.70331,0.0088706,0.057917,0.013418
256,0.10274,-0.084674,-0.046347,0.56169,0.075781,0.053369,0.013093
257,0.14594,0.0033489,-0.023935,0.39507,0.16803,0.044599,0.0065969
258,0.14789,0.087474,0.011144,0.2908,0.27002,0.03518,-0.0021729
259,0.10599,0.15309,0.049796,0.27749,0.36324,0.027385,-0.0080194
260,0.038428,0.18784,0.0852,0.31776,0.42917,0.025761,-0.0093186
261,-0.029457,0.19109,0.11021,0.34667,0.461,0.031607,-0.0057458
262,-0.0824,0.17355,0.1219,0.32361,0.45061,0.046223,0.0026992
263,-0.12495,0.15406,0.12807,0.2554,0.41585,0.075131,0.018615
264,-0.16393,0.14496,0.13392,0.17647,0.39084,0.11183,0.041676
265,-0.19478,0.15114,0.13944,0.11931,0.40026,0.14724,0.067661
266,-0.19511,0.16705,0.14204,0.098842,0.44346,0.17062,0.089423
267,-0.14054,0.17907,0.14139,0.10599,0.50648,0.18004,0.10112
268,-0.033679,0.17842,0.13652,0.12353,0.56949,0.17452,0.096893
269,0.10956,0.16315,0.12515,0.13327,0.61171,0.15503,0.077405
270,0.26904,0.1362,0.10404,0.12255,0.62471,0.12613,0.051096
271,0.41456,0.096893,0.06896,0.091047,0.60489,0.092996,0.029983
272,0.5107,0.049796,0.020239,0.047198,0.55422,0.062789,0.01764
273,0.53961,-0.0044465,-0.03238,-0.00087364,0.4662,0.045899,0.009845
274,0.50648,-0.059014,-0.078503,-0.043423,0.30217,0.048497,0.0026992
275,0.43339,-0.10059,-0.11423,-0.075255,0.0059473,0.063438,-0.0054209
276,0.36064,-0.11098,-0.1321,-0.093119,-0.44359,0.073832,-0.013216
277,0.33173,-0.078178,-0.12852,-0.095068,-0.96523,0.066037,-0.0063954
278,0.36259,-0.008669,-0.10741,-0.084999,-1.3628,0.036479,0.021863
279,0.43989,0.079679,-0.079152,-0.067134,-1.4115,-0.012892,0.066362
280,0.52337,0.16835,-0.052843,-0.045697,-0.97465,-0.072331,0.10989
281,0.56916,0.24208,-0.031081,-0.026209,-0.11293,-0.12852,0.13944
282,0.53993,0.28561,-0.010618,-0.0080194,0.8956,-0.16815,0.15276
283,0.42657,0.29243,0.011794,0.0065969,1.7261,-0.18244,0.15503
284,0.25832,0.26644,0.038103,0.01764,2.1714,-0.1753,0.15373
285,0.079679,0.2122,0.066037,0.029009,2.163,-0.15613,0.14886
286,-0.079802,0.1362,0.089098,0.042326,1.7472,-0.14216,0.14107
287,-0.21005,0.048172,0.10242,0.053369,1.0476,-0.15126,0.12418
288,-0.31464,-0.036602,0.10112,0.056292,0.22129,-0.18699,0.094945
289,-0.41305,-0.11878,0.084226,0.042651,-0.58553,-0.23766,0.047198
290,-0.53258,-0.21265,0.045574,0.010495,-1.2845,-0.28118,-0.020687
291,-0.6781,-0.33413,-0.010293,-0.040825,-1.8445,-0.2971,-0.10644
292,-0.80477,-0.47964,-0.07493,-0.10449,-2.2531,-0.27111,-0.19089
293,-0.84245,-0.61314,-0.12917,-0.16555,-2.5383,-0.19219,-0.24253
294,-0.77164,-0.67842,-0.15711,-0.20843,-2.7494,-0.071682,-0.24026
295,-0.63912,-0.63717,-0.14866,-0.22661,-2.904,0.061489,-0.18894
296,-0.52414,-0.50108,-0.10903,-0.22369,-2.9401,0.17452,-0.11878
297,-0.466,-0.31918,-0.059664,-0.2107,-2.7582,0.24143,-0.059339
298,-0.45625,-0.15613,-0.029782,-0.20583,-2.3242,0.25118,-0.027508
299,-0.47867,-0.070382,-0.038876,-0.22044,-1.7025,0.19953,-0.035303
300,-0.52024,-0.087922,-0.089871,-0.25422,-0.98114,0.095269,-0.079152
301,-0.54915,-0.19121,-0.1714,-0.29807,-0.22434,-0.035303,-0.13177
302,-0.51992,-0.32795,-0.26234,-0.33835,0.49706,-0.15808,-0.16458
303,-0.40169,-0.43092,-0.33185,-0.36109,1.0632,-0.24675,-0.15938
304,-0.19121,-0.44846,-0.35232,-0.35914,1.374,-0.28833,-0.11748
305,0.089098,-0.35361,-0.30944,-0.3286,1.4068,-0.28476,-0.052843
306,0.40416,-0.16393,-0.21557,-0.26981,1.2379,-0.23961,0.013743
307,0.71078,0.073832,-0.096692,-0.19154,0.99011,-0.16328,0.072533
308,0.97063,0.2921,0.012768,-0.10806,0.76665,-0.068434,0.11606
309,1.1548,0.44119,0.086824,-0.034004,0.5984,0.022188,0.14237
310,1.2438,0.49478,0.11378,0.016666,0.4623,0.088124,0.15114
311,1.2188,0.4571,0.10112,0.042975,0.33887,0.11898,0.14594
312,1.0898,0.35804,0.06961,0.046223,0.24273,0.11995,0.12807
313,0.89105,0.23364,0.037778,0.034206,0.2044,0.10242,0.10209
314,0.66791,0.11443,0.016991,0.016016,0.23201,0.07773,0.071883
315,0.4623,0.016341,0.0056225,0.0056225,0.31224,0.054344,0.039402
316,0.29568,-0.046671,0.0033489,0.0046481,0.42755,0.040052,0.010495
317,0.16705,-0.067459,0.010819,0.011794,0.58053,0.041351,-0.007045
318,0.067011,-0.048945,0.027385,0.021213,0.77672,0.062464,-0.010943
319,-0.012892,-0.00054884,0.051096,0.031282,1.0041,0.10079,-0.007045
320,-0.079152,0.064088,0.074806,0.041351,1.2272,0.14367,-0.0011985
321,-0.12527,0.13165,0.093321,0.051096,1.3922,0.17452,-0.0011985
322,-0.13892,0.18719,0.10404,0.055643,1.4468,0.18329,-0.0089938
323,-0.11553,0.22617,0.10339,0.047198,1.3549,0.16803,-0.02361
324,-0.068758,0.24436,0.087474,0.020564,1.1376,0.13684,-0.044398
325,-0.028807,0.24468,0.060515,-0.013216,0.86799,0.096244,-0.070382
326,-0.022636,0.24176,0.039078,-0.036278,0.62081,0.054344,-0.097017
327,-0.06551,0.24176,0.040052,-0.034004,0.44736,0.014068,-0.1204
328,-0.15093,0.23883,0.063438,-0.0083442,0.35641,-0.021337,-0.13664
329,-0.2487,0.21902,0.097868,0.027709,0.30802,-0.046671,-0.14087
330,-0.30619,0.18492,0.12775,0.062464,0.26807,-0.060638,-0.12852
331,-0.2854,0.15763,0.14626,0.089098,0.27684,-0.064211,-0.095393
332,-0.18212,0.15244,0.15244,0.10242,0.42527,-0.056416,-0.042449
333,-0.031406,0.15309,0.14302,0.10339,0.74813,-0.036927,0.019914
334,0.11281,0.12125,0.11671,0.093321,1.1282,-0.01549,0.074157
335,0.20863,0.03583,0.070584,0.069285,1.3523,0.008221,0.10599
336,0.23266,-0.090196,0.0075714,0.030633,1.2509,0.032582,0.11086
337,0.18816,-0.2055,-0.059989,-0.012892,0.766,0.053694,0.095269
338,0.099167,-0.25975,-0.11261,-0.047321,-0.042774,0.064088,0.067986
339,-0.0080194,-0.23733,-0.13924,-0.069408,-0.98764,0.054019,0.03583
340,-0.11391,-0.15548,-0.13957,-0.081751,-1.7759,0.022512,0.0072465
341,-0.19608,-0.053168,-0.12073,-0.085973,-2.1287,-0.019063,-0.0089938
342,-0.23798,0.038753,-0.09182,-0.079477,-1.8721,-0.04862,-0.0034721
343,-0.22402,0.10566,-0.060963,-0.056741,-1.0091,-0.044723,0.028034
344,-0.15321,0.15114,-0.028482,-0.014516,0.28106,0.00075039,0.078704
345,-0.053168,0.19174,0.010495,0.049147,1.6423,0.081303,0.13132
346,0.037129,0.23916,0.058241,0.1258,2.7249,0.17387,0.16803
347,0.084551,0.28788,0.10761,0.2044,3.3099,0.2606,0.18264
348,0.082927,0.32556,0.15406,0.27164,3.3291,0.32881,0.18427
349,0.041351,0.3418,0.18979,0.31484,2.8607,0.3733,0.17874
350,-0.012242,0.32783,0.20635,0.32913,2.0659,0.39149,0.16933
351,-0.04927,0.28171,0.19953,0.31386,1.1005,0.38467,0.15698
352,-0.051544,0.21317,0.17485,0.27586,0.060515,0.35641,0.14074
353,-0.031406,0.14269,0.14691,0.22682,-0.96588,0.31127,0.11963
354,-0.016464,0.087149,0.12905,0.17485,-1.8981,0.2515,0.093321
355,-0.029457,0.053694,0.13002,0.12775,-2.6867,0.18362,0.068635
356,-0.076554,0.037454,0.14237,0.089098,-3.2844,0.11638,0.04395
357,-0.14639,0.029333,0.15179,0.057267,-3.7047,0.05142,0.016666
358,-0.21882,0.019914,0.14919,0.029333,-3.9905,-0.011592,-0.011267
359,-0.27599,-0.0021729,0.1284,0.0072465,-4.1003,-0.071032,-0.034329
360,-0.30002,-0.048945,0.087799,-0.013866,-3.9093,-0.12592,-0.052518
361,-0.27858,-0.12138,0.031282,-0.036278,-3.3246,-0.1753,-0.068109
362,-0.19998,-0.19576,-0.030756,-0.059339,-2.3762,-0.22044,-0.085648
363,-0.068109,-0.23896,-0.084024,-0.075579,-1.2306,-0.25877,-0.10611
364,0.09397,-0.22402,-0.11553,-0.075904,-0.11878,-0.28833,-0.1282
365,0.24176,-0.15743,-0.12463,-0.05804,0.74878,-0.30652,-0.14444
366,0.3379,-0.06551,-0.11715,-0.021661,1.2649,-0.31561,-0.14964
367,0.36194,0.024786,-0.10221,0.019589,1.4215,-0.31204,-0.14671
368,0.31224,0.097218,-0.08305,0.053694,1.2818,-0.29028,-0.13762
369,0.19661,0.14399,-0.059989,0.076431,0.95049,-0.25065,-0.12105
370,0.04395,0.1651,-0.029782,0.088773,0.55195,-0.20388,-0.095393
371,-0.10774,0.16315,0.0049729,0.088124,0.19239,-0.16425,-0.064861
372,-0.23149,0.14269,0.035505,0.069934,-0.050569,-0.13729,-0.033679
373,-0.32016,0.10501,0.051745,0.03453,-0.13469,-0.11553,-0.012567
374,-0.38025,0.049147,0.048497,-0.008669,-0.084024,-0.092145,-0.0080194
375,-0.41435,-0.022636,0.024137,-0.048945,0.026085,-0.065835,-0.022636
376,-0.41955,-0.10124,-0.012567,-0.075255,0.1362,-0.034654,-0.052843
377,-0.39389,-0.17789,-0.048296,-0.078503,0.24111,0.0049729,-0.086948
378,-0.33348,-0.23376,-0.070058,-0.05739,0.35122,0.053044,-0.10709
379,-0.22499,-0.25227,-0.069083,-0.017114,0.44704,0.10047,-0.10254
380,-0.060638,-0.22467,-0.053168,0.030633,0.50095,0.13717,-0.075255
381,0.15016,-0.15158,-0.034978,0.068635,0.52337,0.15861,-0.031406
382,0.37753,-0.039201,-0.02426,0.0865,0.55682,0.16543,0.019914
383,0.58833,0.094295,-0.02361,0.085525,0.61139,0.15763,0.065387
384,0.75073,0.22227,-0.03173,0.076755,0.61691,0.13684,0.092671
385,0.842,0.32101,-0.037577,0.072858,0.46003,0.10144,0.095269
386,0.85402,0.37818,-0.030756,0.078704,0.070259,0.047847,0.076431
387,0.78484,0.39994,-0.0057458,0.089748,-0.48549,-0.028482,0.048497
388,0.64614,0.39669,0.037454,0.089423,-0.97822,-0.1191,0.028034
389,0.45905,0.37525,0.08585,0.070909,-1.1708,-0.20648,0.022512
390,0.24728,0.33433,0.12483,0.042975,-0.96685,-0.26787,0.031932
391,0.044275,0.27651,0.14561,0.01764,-0.46275,-0.28703,0.051096
392,-0.11456,0.20635,0.15114,-0.0011985,0.15244,-0.26851,0.072208
393,-0.21232,0.13262,0.13944,-0.014191,0.70851,-0.22889,0.0852
394,-0.25227,0.060515,0.10891,-0.028482,1.1083,-0.18374,0.083576
395,-0.2578,-0.013216,0.063763,-0.045372,1.2844,-0.13664,0.065712
396,-0.26624,-0.095068,0.01017,-0.060963,1.1593,-0.086298,0.034855
397,-0.30392,-0.18407,-0.039851,-0.078503,0.70169,-0.036278,-0.0015233
398,-0.35524,-0.26072,-0.078178,-0.10221,-0.010943,0.0056225,-0.027183
399,-0.39064,-0.30977,-0.10059,-0.1282,-0.7934,0.036804,-0.038227
400,-0.39584,-0.3286,-0.11228,-0.15581,-1.4498,0.063438,-0.043423
401,-0.37992,-0.32828,-0.1191,-0.18374,-1.8507,0.083576,-0.055441
402,-0.36173,-0.32211,-0.12657,-0.20745,-1.9422,0.08585,-0.08305
403,-0.35979,-0.32633,-0.13242,-0.22272,-1.7555,0.053369,-0.12787
404,-0.38772,-0.34939,-0.13729,-0.22954,-1.3872,-0.019063,-0.18277
405,-0.44099,-0.38934,-0.14509,-0.22889,-0.94606,-0.11586,-0.23019
406,-0.48906,-0.43839,-0.15451,-0.21687,-0.49393,-0.19608,-0.23863
407,-0.48938,-0.47964,-0.1636,-0.18666,-0.062587,-0.21979,-0.18212
408,-0.41695,-0.49588,-0.16263,-0.12722,0.32004,-0.1753,-0.05804
409,-0.28183,-0.48094,-0.14964,-0.045047,0.62438,-0.075255,0.10144
410,-0.11878,-0.43027,-0.12073,0.042975,0.83356,0.04395,0.24533
411,0.03583,-0.33867,-0.076879,0.11931,0.94789,0.14269,0.33595
412,0.15763,-0.20583,-0.025234,0.17095,0.97615,0.19304,0.35934
413,0.24111,-0.053168,0.021863,0.19109,0.92938,0.19239,0.32393
414,0.28268,0.083576,0.054019,0.17972,0.8066,0.15341,0.25475
415,0.27716,0.1742,0.071234,0.14724,0.61464,0.091696,0.17842
416,0.22389,0.20473,0.074482,0.10371,0.41001,0.025436,0.11573
417,0.14399,0.18622,0.071558,0.063438,0.28268,-0.029132,0.072533
418,0.073182,0.14594,0.06831,0.038103,0.29633,-0.058365,0.048822
419,0.042001,0.11183,0.067661,0.037454,0.45288,-0.055766,0.039727
420,0.061489,0.099492,0.067336,0.06019,0.69097,-0.022636,0.044924
421,0.1206,0.11411,0.066686,0.094945,0.89267,0.036154,0.056942
422,0.19304,0.15016,0.064413,0.12807,0.9703,0.10826,0.070584
423,0.24955,0.19596,0.060515,0.14951,0.91151,0.17712,0.080003
424,0.26449,0.23916,0.059865,0.15179,0.76827,0.23396,0.080328
425,0.23201,0.26839,0.063113,0.14009,0.57891,0.27554,0.075131
426,0.17485,0.27619,0.06831,0.12158,0.3327,0.29535,0.06896
427,0.12515,0.26125,0.065387,0.10274,0.0069217,0.28496,0.061814
428,0.10112,0.22649,0.053694,0.083901,-0.36011,0.24403,0.050771
429,0.08585,0.17062,0.038753,0.065062,-0.70051,0.17842,0.029333
430,0.046548,0.095594,0.029009,0.041676,-0.97172,0.10274,-0.0083442
431,-0.034978,0.0078962,0.025111,0.014392,-1.1562,0.031607,-0.058365
432,-0.15321,-0.075904,0.025111,-0.012892,-1.2582,-0.024909,-0.11326
433,-0.28605,-0.14834,0.022188,-0.04115,-1.2926,-0.072331,-0.1662
434,-0.42312,-0.20583,0.013418,-0.071357,-1.2679,-0.12755,-0.21492
435,-0.55954,-0.25552,0.0020496,-0.10156,-1.188,-0.2055,-0.25845
436,-0.68914,-0.29775,-0.011267,-0.12657,-1.0299,-0.30262,-0.2919
437,-0.7947,-0.32438,-0.026858,-0.14216,-0.75605,-0.39162,-0.30717
438,-0.85479,-0.32081,-0.044398,-0.14574,-0.3796,-0.44001,-0.29775
439,-0.8483,-0.27696,-0.061613,-0.14411,0.025111,-0.43514,-0.26657
440,-0.75508,-0.19673,-0.071357,-0.1334,0.3837,-0.38122,-0.21525
441,-0.58163,-0.10351,-0.067134,-0.097341,0.67473,-0.29288,-0.14736
442,-0.36076,-0.036278,-0.053817,-0.024909,0.93295,-0.18601,-0.071357
443,-0.1295,-0.027183,-0.042449,0.07708,1.1996,-0.075579,-0.00087364
444,0.088124,-0.077528,-0.039201,0.18654,1.4744,0.02706,0.056617
445,0.26807,-0.15061,-0.038876,0.27326,1.7027,0.11118,0.091696
446,0.39344,-0.19381,-0.038876,0.31062,1.8041,0.16803,0.10014
447,0.47854,-0.17205,-0.034654,0.28658,1.7213,0.19921,0.087474
448,0.5552,-0.081751,-0.03173,0.21317,1.4556,0.20765,0.074157
449,0.64907,0.055318,-0.033679,0.1219,1.0694,0.2057,0.082602
450,0.76275,0.2109,-0.041799,0.042975,0.65134,0.20928,0.11736
451,0.87903,0.36356,-0.052518,-0.0047713,0.26677,0.22487,0.1664
452,0.96543,0.49738,-0.05739,-0.023285,-0.11683,0.24663,0.2109
453,1.0018,0.5997,-0.052843,-0.024909,-0.60274,0.258,0.24111
454,0.99986,0.66206,-0.042449,-0.021337,-1.2319,0.24566,0.26449
455,0.9729,0.67765,-0.027508,-0.015815,-1.9072,0.2096,0.28983
456,0.91541,0.64257,-0.011267,-0.008669,-2.4519,0.15244,0.31386
457,0.81634,0.56202,0.0072465,-0.00087364,-2.6893,0.077405,0.32361
458,0.6692,0.45321,0.028034,0.009845,-2.5214,-0.0024977,0.30639
459,0.47399,0.32231,0.05142,0.021863,-1.9835,-0.071357,0.2593
460,0.23201,0.16153,0.072858,0.033231,-1.2202,-0.11488,0.18979
461,-0.046996,-0.036927,0.080328,0.041351,-0.44651,-0.13177,0.11411
462,-0.3286,-0.25942,0.063763,0.044924,0.13165,-0.12982,0.043625
463,-0.56052,-0.46567,0.024786,0.039727,0.44151,-0.123,-0.015165
464,-0.6781,-0.60859,-0.021012,0.019589,0.58833,-0.123,-0.059339
465,-0.64627,-0.65439,-0.059014,-0.0099683,0.75398,-0.1321,-0.086948
466,-0.48516,-0.59852,-0.074605,-0.042124,1.0648,-0.14119,-0.098316
467,-0.26429,-0.46957,-0.068434,-0.070382,1.5108,-0.13177,-0.097666
468,-0.073631,-0.31594,-0.051868,-0.092145,1.9788,-0.087922,-0.090196
469,0.019264,-0.174,-0.03303,-0.10156,2.3728,-0.0073698,-0.079802
470,0.0010752,-0.060963,-0.017114,-0.098641,2.6791,0.094945,-0.071357
471,-0.098641,0.023162,-0.010618,-0.084674,2.9136,0.19141,-0.068758
472,-0.22207,0.08585,-0.010943,-0.06616,3.0591,0.25995,-0.073631
473,-0.31951,0.13132,-0.012242,-0.043748,3.0679,0.28691,-0.080127
474,-0.37245,0.16023,-0.010618,-0.019712,2.8818,0.28431,-0.085324
475,-0.39194,0.1716,-0.0067202,0.003024,2.4816,0.26612,-0.085324
476,-0.39876,0.1625,0.00075039,0.021213,1.8866,0.25443,-0.076879
477,-0.39844,0.13782,0.012119,0.03583,1.1087,0.26092,-0.055116
478,-0.3796,0.10696,0.027709,0.045574,0.14139,0.28496,-0.022311
479,-0.33153,0.080328,0.045899,0.047847,-0.94379,0.30769,0.014392
480,-0.24805,0.061814,0.06019,0.039402,-1.9958,0.29892,0.038753
481,-0.12592,0.047523,0.064088,0.016341,-2.891,0.24078,0.045574
482,0.037129,0.037454,0.061814,-0.018413,-3.5228,0.1323,0.038103
483,0.23266,0.034206,0.06019,-0.052843,-3.8265,-0.0018481,0.027385
484,0.43339,0.041027,0.065062,-0.073955,-3.7852,-0.13047,0.01829
485,0.60035,0.056617,0.076755,-0.071682,-3.4393,-0.22597,0.016991
486,0.69519,0.080003,0.092021,-0.047321,-2.8952,-0.27664,0.022512
487,0.69129,0.10566,0.10339,-0.012242,-2.2895,-0.28443,0.031282
488,0.58898,0.12418,0.10794,0.020239,-1.7438,-0.26787,0.032257
489,0.42625,0.12158,0.10242,0.037129,-1.3141,-0.25195,0.017316
490,0.25378,0.09397,0.083251,0.031282,-0.98244,-0.25325,-0.015165
491,0.12807,0.048172,0.05142,0.0036737,-0.65828,-0.28053,-0.058689
492,0.07708,-0.0015233,0.013093,-0.030431,-0.22954,-0.32698,-0.10091
493,0.090072,-0.038876,-0.021012,-0.058365,0.33985,-0.37408,-0.13534
494,0.14724,-0.053817,-0.039526,-0.078178,0.93977,-0.39876,-0.15288
495,0.23656,-0.034654,-0.041475,-0.098965,1.3913,-0.38252,-0.14639
496,0.33887,0.031282,-0.027833,-0.13372,1.5621,-0.32471,-0.11813
497,0.42138,0.15666,0.0010752,-0.18471,1.4426,-0.24221,-0.07428
498,0.44379,0.3314,0.04395,-0.24188,1.1386,-0.15321,-0.019712
499,0.38987,0.51492,0.094295,-0.2893,0.82121,-0.071032,0.038753
500,0.26969,0.65199,0.14237,-0.31171,0.626,-0.0054209,0.092671
501,0.10729,0.70363,0.18297,-0.29547,0.58183,0.041676,0.13295
502,-0.064211,0.66368,0.21252,-0.24383,0.62828,0.076755,0.15731
503,-0.23019,0.5435,0.22812,-0.16588,0.67667,0.099817,0.16315
504,-0.40331,0.35706,0.22454,-0.081426,0.65686,0.10891,0.14594
505,-0.60794,0.11866,0.20051,0.0017248,0.55357,0.097543,0.097218
506,-0.85252,-0.15451,0.15341,0.093321,0.40254,0.065062,0.016341
507,-1.1107,-0.44066,0.074157,0.20863,0.26384,0.014392,-0.082725
508,-1.3105,-0.70863,-0.036927,0.34862,0.18979,-0.042774,-0.17367
509,-1.3703,-0.92268,-0.16815,0.48017,0.19791,-0.091495,-0.23084
510,-1.2504,-1.0542,-0.29742,0.54968,0.26807,-0.12203,-0.24383
511,-0.97367,-1.0861,-0.39779,0.52174,0.34862,-0.13599,-0.22044
512,-0.61996,-1.0169,-0.44651,0.40384,0.36486,-0.13404,-0.17594
513,-0.27631,-0.85901,-0.42832,0.23786,0.25962,-0.11845,-0.1191
514,0.0033489,-0.63262,-0.35524,0.080978,0.023487,-0.092145,-0.058689
515,0.19336,-0.37148,-0.2487,-0.032705,-0.29158,-0.060313,0.0010752
516,0.28236,-0.11618,-0.13275,-0.095393,-0.59884,-0.027833,0.054993
517,0.28398,0.096244,-0.028157,-0.11098,-0.80802,0.0020496,0.10306
518,0.23104,0.2463,0.05272,-0.08305,-0.86421,0.029009,0.13912
519,0.17355,0.3353,0.10761,-0.022636,-0.75475,0.051096,0.15731
520,0.14594,0.37363,0.14009,0.045574,-0.51894,0.066037,0.15666
521,0.15309,0.37493,0.14984,0.087799,-0.24156,0.069934,0.13555
522,0.18232,0.34862,0.12937,0.075781,-0.0057458,0.058891,0.099817
523,0.21285,0.3038,0.080328,-0.0015233,0.15666,0.03583,0.057917
524,0.23039,0.25313,0.014068,-0.13567,0.27391,0.0052977,0.020564
525,0.22844,0.20473,-0.056416,-0.30619,0.3837,-0.022961,-0.00087364
526,0.21545,0.15438,-0.12073,-0.48029,0.5016,-0.034654,-0.0018481
527,0.20181,0.10079,-0.16328,-0.60242,0.62503,-0.020687,0.020888
528,0.18946,0.056942,-0.16945,-0.60891,0.74001,0.021538,0.061165
529,0.16835,0.043625,-0.1308,-0.45495,0.83356,0.087149,0.10274
530,0.12645,0.080328,-0.054792,-0.14022,0.89202,0.16218,0.13392
531,0.06019,0.15926,0.040052,0.26807,0.91573,0.22487,0.14724
532,-0.024585,0.24533,0.12613,0.65361,0.92938,0.2554,0.14399
533,-0.11033,0.2973,0.17972,0.92418,0.99109,0.24598,0.12515
534,-0.17042,0.29568,0.19693,1.0531,1.1213,0.20733,0.10144
535,-0.18439,0.24858,0.18946,1.0798,1.2097,0.1651,0.088124
536,-0.14931,0.18167,0.17127,1.0629,1.0538,0.13977,0.092996
537,-0.080451,0.11378,0.15471,1.0343,0.55325,0.13814,0.11281
538,-0.0050961,0.054019,0.14399,0.97128,-0.24156,0.15438,0.1349
539,0.044924,0.014392,0.13879,0.83518,-1.2316,0.17257,0.14724
540,0.054019,0.0056225,0.131,0.61366,-2.283,0.1742,0.13327
541,0.031282,0.028034,0.11378,0.33368,-3.1707,0.14432,0.090397
542,0.0072465,0.076106,0.087799,0.049472,-3.6319,0.080003,0.02641
543,0.017316,0.13295,0.059865,-0.19089,-3.5013,-0.0083442,-0.036602
544,0.076431,0.18134,0.035505,-0.37115,-2.8264,-0.09994,-0.081426
545,0.17062,0.20603,0.012443,-0.50303,-1.9062,-0.18179,-0.10189
546,0.27261,0.19856,-0.012892,-0.59819,-1.1276,-0.2474,-0.10189
547,0.34505,0.15893,-0.040175,-0.65471,-0.7528,-0.2997,-0.092145
548,0.36616,0.097868,-0.062912,-0.65179,-0.78041,-0.33965,-0.084024
549,0.34147,0.036154,-0.07493,-0.55402,-0.961,-0.35881,-0.083375
550,0.29795,-0.0080194,-0.074605,-0.34355,-1.0113,-0.34777,-0.085648
551,0.26482,-0.025559,-0.064211,-0.044073,-0.81874,-0.30327,-0.081101
552,0.25735,-0.021986,-0.041799,0.2528,-0.50627,-0.24188,-0.067784
553,0.27716,-0.0073698,-0.015815,0.42527,-0.28735,-0.18894,-0.055116
554,0.31679,0.0052977,0.008221,0.40059,-0.25682,-0.16295,-0.050569
555,0.36161,0.011144,0.026735,0.20993,-0.32633,-0.15873,-0.052843
556,0.39409,0.017316,0.032906,-0.031406,-0.32146,-0.15938,-0.056416
557,0.40838,0.037778,0.02641,-0.20323,-0.10968,-0.14444,-0.061613
558,0.40059,0.082927,0.013418,-0.24903,0.32296,-0.11228,-0.070058
559,0.3772,0.14984,0.0069217,-0.18861,0.87318,-0.069733,-0.078827
560,0.35544,0.22487,0.010819,-0.082076,1.3662,-0.02426,-0.087272
561,0.36031,0.29503,0.02641,0.013743,1.6339,0.015692,-0.092145
562,0.39637,0.34862,0.043625,0.065712,1.5686,0.040702,-0.090521
563,0.43664,0.37006,0.055318,0.067661,1.1493,0.040702,-0.08305
564,0.44379,0.35057,0.055643,0.028684,0.45743,0.016341,-0.077203
565,0.40091,0.29535,0.046223,-0.036278,-0.30847,-0.022961,-0.07493
566,0.30769,0.2148,0.028034,-0.11066,-0.90968,-0.059664,-0.072331
567,0.1703,0.11086,-0.0021729,-0.18179,-1.1929,-0.079802,-0.072331
568,-0.013541,-0.012242,-0.039526,-0.2474,-1.1263,-0.078178,-0.081101
569,-0.24838,-0.15418,-0.078503,-0.30587,-0.79698,-0.059339,-0.10156
570,-0.51602,-0.30067,-0.10709,-0.34907,-0.35264,-0.027183,-0.12398
571,-0.77781,-0.43871,-0.11813,-0.36661,0.059216,0.021863,-0.13047
572,-0.99511,-0.56409,-0.11261,-0.35167,0.32491,0.090397,-0.11423
573,-1.1455,-0.68232,-0.10221,-0.31171,0.37136,0.16673,-0.081101
574,-1.2277,-0.79925,-0.10221,-0.26137,0.18687,0.22812,-0.046996
575,-1.2491,-0.90741,-0.11391,-0.21914,-0.14379,0.25962,-0.025234
576,-1.2056,-0.98017,-0.13469,-0.19933,-0.45041,0.26222,-0.016789
577,-1.0831,-0.98634,-0.15386,-0.19901,-0.56052,0.25702,-0.010943
578,-0.87526,-0.90968,-0.15743,-0.20388,-0.39162,0.2606,0.00010078
579,-0.59917,-0.76547,-0.14249,-0.19673,0.01017,0.27326,0.01894
580,-0.30294,-0.58001,-0.10871,-0.17042,0.52694,0.28236,0.039078
581,-0.041475,-0.38285,-0.065835,-0.1334,1.0486,0.27229,0.048172
582,0.13717,-0.20193,-0.030431,-0.10903,1.516,0.23331,0.032906
583,0.20311,-0.057065,-0.015815,-0.11423,1.9103,0.16738,-0.010943
584,0.16738,0.041027,-0.021986,-0.14931,2.2244,0.088448,-0.067459
585,0.072533,0.094295,-0.035628,-0.19446,2.4248,0.018615,-0.11358
586,-0.029132,0.11378,-0.050894,-0.22726,2.455,-0.023285,-0.13502
587,-0.10709,0.11248,-0.06616,-0.23701,2.2699,-0.037252,-0.12495
588,-0.15743,0.10112,-0.079152,-0.22856,1.8902,-0.032055,-0.092145
589,-0.17594,0.092021,-0.089546,-0.212,1.4055,-0.01614,-0.051868
590,-0.14866,0.097218,-0.092469,-0.2016,0.93165,0.0078962,-0.014516
591,-0.058689,0.12872,-0.084024,-0.20063,0.56494,0.038428,0.023162
592,0.088124,0.18427,-0.054467,-0.19283,0.35252,0.079029,0.067986
593,0.26092,0.25443,-0.0028225,-0.15841,0.27489,0.1245,0.11995
594,0.423,0.32231,0.059216,-0.083375,0.25897,0.1664,0.16738
595,0.54968,0.37363,0.11768,0.022188,0.22682,0.19239,0.19693
596,0.62081,0.39831,0.15536,0.13457,0.14432,0.19271,0.19661
597,0.62146,0.39279,0.16608,0.22682,0.039402,0.17192,0.1703
598,0.55877,0.36453,0.15146,0.28398,-0.039851,0.13912,0.12905
599,0.4584,0.32296,0.1271,0.30347,-0.054467,0.10047,0.083901
600,0.34635,0.28171,0.10371,0.29048,0.0010752,0.065387,0.044275
601,0.2502,0.24273,0.086175,0.25767,0.073182,0.034206,0.016991
602,0.18394,0.2096,0.073832,0.22129,0.072858,-0.00054884,0.0017248
603,0.14821,0.17874,0.062789,0.18849,-0.06681,-0.046022,-0.0031473
604,0.13067,0.14886,0.049472,0.16185,-0.31204,-0.10449,-0.0034721
605,0.11443,0.11378,0.033556,0.13879,-0.53356,-0.16458,0.00075039
606,0.088773,0.078704,0.017965,0.11801,-0.60274,-0.20615,0.015692
607,0.061489,0.050446,0.0043233,0.097543,-0.47704,-0.21102,0.041351
608,0.044599,0.036479,-0.0021729,0.085525,-0.20972,-0.17659,0.070909
609,0.046873,0.040377,0.00042559,0.079679,0.096893,-0.11813,0.094295
610,0.067986,0.066037,0.0091954,0.079029,0.34667,-0.061613,0.10306
611,0.095269,0.10534,0.024786,0.079354,0.48601,-0.024909,0.098517
612,0.11443,0.14367,0.044599,0.075456,0.51102,-0.012567,0.083901
613,0.11573,0.16998,0.060515,0.06896,0.45483,-0.017764,0.064737
614,0.10144,0.17452,0.069934,0.062464,0.37753,-0.028157,0.044599
615,0.076755,0.15568,0.073832,0.056942,0.34212,-0.032055,0.027385
616,0.037454,0.11476,0.070259,0.051745,0.38078,-0.022961,0.014717
617,-0.018738,0.059541,0.06084,0.048497,0.48017,0.0026992,0.0059473
618,-0.088896,0.0069217,0.053044,0.044924,0.5984,0.040702,-0.0011985
619,-0.16003,-0.027508,0.049472,0.041351,0.70233,0.080978,-0.0024977
620,-0.21362,-0.038227,0.05207,0.038428,0.77509,0.12093,0.0062721
621,-0.23344,-0.028482,0.06019,0.042001,0.80465,0.16185,0.025436
622,-0.21167,-0.012892,0.066037,0.053369,0.76795,0.20505,0.047847
623,-0.15386,0.00075039,0.064413,0.075781,0.6416,0.24793,0.06831
624,-0.06616,0.010819,0.058241,0.10664,0.41878,0.28528,0.0852
625,0.054668,0.022837,0.054668,0.14529,0.1219,0.32393,0.10014
626,0.2109,0.043625,0.059216,0.18719,-0.22954,0.36811,0.11411
627,0.37395,0.072208,0.068635,0.22357,-0.63555,0.40838,0.12613
628,0.49413,0.10306,0.075131,0.24273,-1.1185,0.423,0.1349
629,0.53441,0.12775,0.071558,0.23981,-1.6918,0.39149,0.13457
630,0.49316,0.14204,0.058566,0.21837,-2.3044,0.30997,0.12353
631,0.39702,0.14626,0.039078,0.18199,-2.8692,0.18849,0.10209
632,0.28398,0.14367,0.01894,0.13457,-3.285,0.041351,0.071883
633,0.18199,0.1349,0.00075039,0.081952,-3.4412,-0.11326,0.039727
634,0.11931,0.11833,-0.010293,0.031607,-3.2366,-0.2539,0.014717
635,0.10177,0.096244,-0.014191,-0.007045,-2.6425,-0.36596,-0.0034721
636,0.11736,0.072858,-0.013866,-0.030431,-1.7084,-0.45723,-0.020362
637,0.13555,0.051745,-0.013541,-0.043099,-0.5472,-0.54168,-0.044073
638,0.12255,0.031932,-0.018088,-0.056091,0.64647,-0.62256,-0.074605
639,0.057917,0.0088706,-0.03173,-0.078178,1.6202,-0.69304,-0.11001
640,-0.054142,-0.021012,-0.053168,-0.10774,2.2325,-0.72974,-0.14216
641,-0.18277,-0.054792,-0.072331,-0.13632,2.4872,-0.71058,-0.16035
642,-0.288,-0.089546,-0.081426,-0.15386,2.482,-0.63587,-0.15873
643,-0.3416,-0.12333,-0.080451,-0.15678,2.3105,-0.52186,-0.13924
644,-0.33705,-0.15386,-0.075904,-0.14541,2.0123,-0.40428,-0.11456
645,-0.28605,-0.17367,-0.072331,-0.12625,1.5985,-0.31496,-0.094418
646,-0.2107,-0.17302,-0.068434,-0.10806,1.072,-0.26884,-0.086623
647,-0.12722,-0.14834,-0.062262,-0.093444,0.48504,-0.26592,-0.085973
648,-0.046671,-0.10481,-0.050894,-0.081101,-0.045697,-0.2867,-0.0837
649,0.017965,-0.05804,-0.039526,-0.069733,-0.41598,-0.30262,-0.074605
650,0.051745,-0.028482,-0.03173,-0.060638,-0.61411,-0.28963,-0.058689
651,0.048822,-0.027508,-0.034329,-0.05739,-0.72942,-0.24188,-0.037577
652,0.022512,-0.050569,-0.043748,-0.055766,-0.86324,-0.1675,-0.013541
653,-0.0031473,-0.089221,-0.056416,-0.051544,-1.0425,-0.0824,0.0065969
654,-0.014516,-0.1243,-0.071032,-0.044398,-1.2049,-0.0060706,0.020239
655,-0.011592,-0.13762,-0.081751,-0.034329,-1.2624,0.049796,0.029333
656,0.00075039,-0.11261,-0.081101,-0.022636,-1.1741,0.089423,0.037129
657,0.020239,-0.044723,-0.069408,-0.010618,-0.9701,0.11703,0.044599
658,0.048172,0.053369,-0.054142,0.00010078,-0.72942,0.13749,0.054344
659,0.078704,0.15341,-0.038551,0.011794,-0.53226,0.15406,0.069285
660,0.10339,0.22357,-0.025234,0.030633,-0.4137,0.1729,0.088773
661,0.11671,0.24403,-0.013216,0.062139,-0.36466,0.19206,0.10339
662,0.11443,0.21512,-0.00054884,0.10339,-0.35556,0.20538,0.10826
663,0.09462,0.15471,0.015367,0.14984,-0.34777,0.2135,0.10566
664,0.055643,0.087474,0.029333,0.19239,-0.32341,0.22065,0.10177
665,0.0056225,0.037454,0.040052,0.22259,-0.28118,0.22389,0.10177
666,-0.046347,0.016016,0.048497,0.23266,-0.23409,0.22389,0.10436
667,-0.098316,0.016016,0.054668,0.22519,-0.19251,0.2187,0.10306
668,-0.14964,0.024137,0.06084,0.207,-0.15711,0.20863,0.093645
669,-0.19706,0.028684,0.065387,0.18069,-0.12398,0.19141,0.07773
670,-0.24156,0.026085,0.061165,0.14042,-0.098965,0.1677,0.060515
671,-0.27923,0.015367,0.050446,0.079029,-0.086948,0.14042,0.045574
672,-0.31139,-0.0028225,0.036154,-0.0031473,-0.08305,0.11443,0.033231
673,-0.33218,-0.030431,0.022837,-0.092145,-0.061613,0.095594,0.023812
674,-0.339,-0.06616,0.010495,-0.16912,0.003024,0.086175,0.014068
675,-0.32373,-0.10514,0.0017248,-0.2172,0.13327,0.083576,0.0023744
676,-0.28281,-0.13957,0.0026992,-0.22369,0.32231,0.081952,-0.0096434
677,-0.21752,-0.16165,0.01894,-0.18471,0.52272,0.075456,-0.022311
678,-0.13567,-0.17302,0.042326,-0.11326,0.66336,0.058891,-0.035303
679,-0.043423,-0.18374,0.058891,-0.025884,0.69097,0.031607,-0.047646
680,0.057267,-0.19608,0.055968,0.070259,0.61301,-0.00087364,-0.058689
681,0.1625,-0.2146,0.026735,0.18589,0.47302,-0.028807,-0.061613
682,0.26612,-0.23831,-0.02361,0.32946,0.32231,-0.044398,-0.054792
683,0.35447,-0.25292,-0.078827,0.47237,0.20311,-0.043423,-0.040825
684,0.40611,-0.23376,-0.11423,0.56624,0.1245,-0.026209,-0.025884
685,0.41423,-0.15743,-0.10936,0.57241,0.061814,0.0049729,-0.011267
686,0.39182,-0.026533,-0.059664,0.50485,-0.037577,0.049472,0.012443
687,0.35836,0.12937,0.019589,0.40936,-0.19543,0.097543,0.048497
688,0.32588,0.26547,0.096244,0.32296,-0.34907,0.13392,0.087799
689,0.29795,0.34732,0.13782,0.25897,-0.39129,0.14724,0.11638
690,0.26384,0.36324,0.12613,0.21188,-0.28021,0.13555,0.12483
691,0.19628,0.31549,0.06896,0.17127,-0.080776,0.10566,0.11118
692,0.06896,0.21967,-0.0021729,0.13457,0.0865,0.075781,0.090722
693,-0.11586,0.098842,-0.054142,0.10501,0.12028,0.056292,0.074157
694,-0.32243,-0.021337,-0.068758,0.082277,0.0043233,0.046873,0.063438
695,-0.49978,-0.12203,-0.055116,0.064088,-0.17465,0.030957,0.047198
696,-0.61054,-0.18536,-0.032055,0.047198,-0.29353,-0.0028225,0.019589
697,-0.63197,-0.20453,-0.013216,0.029983,-0.288,-0.044398,-0.016789
698,-0.57059,-0.18666,-0.0047713,0.012443,-0.21037,-0.067134,-0.044723
699,-0.44618,-0.15093,-0.0060706,-0.0096434,-0.19868,-0.042774,-0.045697
700,-0.28833,-0.1178,-0.011592,-0.037577,-0.36596,0.027385,-0.016464
701,-0.13372,-0.09994,-0.013216,-0.071682,-0.69369,0.11638,0.031282
702,-0.013541,-0.088572,-0.0076946,-0.10774,-1.0152,0.19076,0.072208
703,0.05142,-0.063237,0.0020496,-0.13729,-1.1504,0.22454,0.084226
704,0.047847,-0.0099683,0.012443,-0.15516,-1.0584,0.20765,0.061165
705,-0.028807,0.067011,0.01764,-0.16458,-0.81127,0.14724,0.0078962
706,-0.16003,0.14107,0.012119,-0.16945,-0.48614,0.062464,-0.060638
707,-0.29482,0.17355,-0.008669,-0.17367,-0.12105,-0.029457,-0.1217
708,-0.37862,0.14399,-0.046347,-0.17724,0.25183,-0.10838,-0.15256
709,-0.3822,0.065712,-0.092794,-0.18017,0.5841,-0.15905,-0.14119
710,-0.31204,-0.024585,-0.1308,-0.17692,0.84622,-0.17042,-0.096042
711,-0.19186,-0.090196,-0.14736,-0.16068,1.044,-0.13957,-0.036278
712,-0.048296,-0.09994,-0.13599,-0.13275,1.2146,-0.075579,0.016341
713,0.092346,-0.042124,-0.10221,-0.09994,1.3909,0.0033489,0.053044
714,0.20311,0.057592,-0.060638,-0.070382,1.5809,0.071883,0.068635
715,0.2606,0.15633,-0.02361,-0.044398,1.7823,0.11541,0.066362
716,0.25248,0.2122,0.0020496,-0.022961,1.9853,0.1336,0.05142
717,0.18751,0.21188,0.016341,-0.0041217,2.1656,0.13652,0.039078
718,0.095919,0.1664,0.023162,0.016016,2.278,0.13457,0.0433
719,0.017965,0.10534,0.031932,0.038753,2.2455,0.1336,0.065712
720,-0.018738,0.054993,0.047198,0.057917,1.9967,0.13392,0.092996
721,-0.0096434,0.022188,0.06896,0.069934,1.4712,0.12645,0.10501
722,0.028684,0.00010078,0.091696,0.068635,0.62308,0.097543,0.093321
723,0.072208,-0.021337,0.10761,0.053694,-0.52057,0.036804,0.056292
724,0.10112,-0.040175,0.11151,0.024137,-1.7759,-0.061937,-0.0047713
725,0.11021,-0.046347,0.097868,-0.017114,-2.8527,-0.18991,-0.081101
726,0.099492,-0.038551,0.06896,-0.059989,-3.4662,-0.32406,-0.15808
727,0.073507,-0.021986,0.030633,-0.093769,-3.4789,-0.42572,-0.21687
728,0.042975,-0.0073698,-0.0057458,-0.10676,-2.9625,-0.46178,-0.23831
729,0.021213,-0.0060706,-0.034329,-0.097991,-2.1469,-0.41598,-0.2055
730,0.015692,-0.022636,-0.050894,-0.073306,-1.3092,-0.29872,-0.12008
731,0.023487,-0.043099,-0.052518,-0.044723,-0.66835,-0.13892,-0.00054884
732,0.036154,-0.049595,-0.037577,-0.021012,-0.33348,0.022188,0.12288
733,0.04395,-0.031081,-0.011592,-0.0057458,-0.30067,0.14724,0.21967
734,0.042001,0.011469,0.015367,-0.0011985,-0.48159,0.21512,0.26839
735,0.037778,0.073507,0.040052,-0.0047713,-0.74208,0.21967,0.26287
736,0.034855,0.14529,0.063763,-0.0089938,-0.91878,0.16705,0.21512
737,0.022512,0.20473,0.0865,-0.0093186,-0.87266,0.07708,0.14529
738,-0.0041217,0.23234,0.10534,-0.008669,-0.56214,-0.027833,0.075131
739,-0.023935,0.22097,0.11021,-0.015165,-0.061288,-0.12657,0.016991
740,-0.0041217,0.18199,0.093321,-0.036602,0.47107,-0.20225,-0.024585
741,0.064737,0.13392,0.055318,-0.078503,0.85792,-0.24708,-0.056091
742,0.17452,0.091372,0.009845,-0.13697,0.99141,-0.26332,-0.090845
743,0.30899,0.059541,-0.026533,-0.19673,0.87351,-0.25975,-0.13697
744,0.44541,0.040377,-0.043748,-0.24545,0.60911,-0.24805,-0.19089
745,0.54285,0.026735,-0.048296,-0.27891,0.32913,-0.23798,-0.23993
746,0.56819,0.014717,-0.059989,-0.30652,0.15114,-0.23831,-0.27956
747,0.51297,0.009845,-0.090196,-0.33218,0.16413,-0.2461,-0.30619
748,0.39474,0.024137,-0.13567,-0.35394,0.37883,-0.24805,-0.31561
749,0.24013,0.060515,-0.18049,-0.36271,0.69714,-0.22824,-0.2984
750,0.0852,0.11183,-0.20518,-0.35264,0.95698,-0.17724,-0.25033
751,-0.03173,0.16705,-0.19511,-0.32113,1.0284,-0.093769,-0.16945
752,-0.097341,0.21415,-0.15158,-0.26787,0.86734,0.008221,-0.066485
753,-0.13437,0.23656,-0.092145,-0.20583,0.52759,0.10566,0.036479
754,-0.17432,0.22129,-0.0405,-0.14866,0.12645,0.1768,0.11378
755,-0.22272,0.16153,-0.0089938,-0.10774,-0.2042,0.21188,0.15471
756,-0.27144,0.051745,-0.0044465,-0.094093,-0.36336,0.21577,0.15796
757,-0.32633,-0.10156,-0.020687,-0.10644,-0.31236,0.19661,0.13262
758,-0.39032,-0.27176,-0.045047,-0.13664,-0.076879,0.169,0.095269
759,-0.45366,-0.41403,-0.057715,-0.1649,0.25995,0.14984,0.066037
760,-0.49556,-0.49231,-0.048296,-0.1714,0.60554,0.15991,0.055318
761,-0.49198,-0.49133,-0.01484,-0.14606,0.89592,0.20538,0.065062
762,-0.43482,-0.42052,0.037454,-0.097341,1.1005,0.27067,0.087799
763,-0.33445,-0.31106,0.09462,-0.048945,1.21,0.32653,0.11216
764,-0.22499,-0.19576,0.14334,-0.025559,1.2298,0.34505,0.12483
765,-0.14022,-0.10059,0.17355,-0.037577,1.1688,0.31646,0.12158
766,-0.093119,-0.037252,0.18297,-0.086623,1.031,0.2476,0.10404
767,-0.073631,-0.0060706,0.17127,-0.14736,0.81667,0.16445,0.082602
768,-0.060313,-0.0037969,0.14139,-0.17822,0.51947,0.092671,0.063113
769,-0.034329,-0.021012,0.10047,-0.14087,0.15276,0.041676,0.049147
770,0.012443,-0.037902,0.062464,0.0059473,-0.21362,0.0091954,0.040702
771,0.078379,-0.030431,0.046223,0.27846,-0.48906,-0.0099683,0.040377
772,0.15049,0.0075714,0.062464,0.6325,-0.62743,-0.021337,0.046548
773,0.22552,0.061489,0.10144,0.97777,-0.65666,-0.036927,0.053044
774,0.29892,0.11378,0.14659,1.2198,-0.64789,-0.068758,0.05142
775,0.35641,0.14951,0.17842,1.3013,-0.64464,-0.11651,0.040377
776,0.38045,0.15926,0.18524,1.2243,-0.64269,-0.17042,0.022837
777,0.36161,0.14204,0.16445,1.034,-0.60631,-0.21037,0.00075039
778,0.30542,0.10404,0.12288,0.79198,-0.51147,-0.21785,-0.019388
779,0.23266,0.06084,0.072208,0.55552,-0.35296,-0.18471,-0.037252
780,0.16056,0.023487,0.024461,0.36291,-0.14671,-0.11553,-0.051544
781,0.099492,0.0020496,-0.008669,0.22714,0.081303,-0.030106,-0.05804
782,0.055318,-0.0028225,-0.02361,0.14367,0.29015,0.045899,-0.052193
783,0.025111,0.0052977,-0.02361,0.097218,0.43339,0.096569,-0.030106
784,0.0036737,0.022837,-0.012242,0.073182,0.49933,0.11833,0.0056225
785,-0.0096434,0.039402,0.0056225,0.050121,0.51525,0.11541,0.040377
786,-0.017439,0.051745,0.021213,0.020239,0.51005,0.098193,0.059216
787,-0.018413,0.054668,0.028359,-0.018413,0.48309,0.075456,0.055968
788,-0.012892,0.050121,0.027709,-0.063886,0.4204,0.050446,0.036804
789,-0.00022403,0.040702,0.019914,-0.10936,0.32426,0.022837,0.0095202
790,0.01894,0.030308,0.013418,-0.14639,0.22227,-0.0037969,-0.014516
791,0.038428,0.021863,0.010495,-0.17172,0.14724,-0.027833,-0.033354
792,0.051745,0.01764,0.0085458,-0.18796,0.1271,-0.045372,-0.045372
793,0.057267,0.016016,0.0046481,-0.19836,0.16445,-0.054142,-0.04992
794,0.057592,0.016991,-0.0044465,-0.20225,0.24501,-0.051868,-0.049595
795,0.065387,0.016991,-0.01614,-0.19576,0.34342,-0.037577,-0.045047
796,0.080328,0.017965,-0.027183,-0.18147,0.42982,-0.017439,-0.038551
797,0.093645,0.022837,-0.031406,-0.161,0.48601,0.00075039,-0.036927
798,0.095594,0.033556,-0.026533,-0.13729,0.48699,0.016016,-0.039526
799,0.084226,0.049147,-0.017439,-0.11521,0.3889,0.029983,-0.044073
800,0.067986,0.066362,-0.010293,-0.097666,0.14594,0.038103,-0.042124
801,0.057267,0.081952,-0.0047713,-0.085648,-0.24318,0.027385,-0.030431
802,0.061814,0.092996,0.0046481,-0.079477,-0.70408,-0.0057458,-0.010293
803,0.088773,0.10436,0.016016,-0.0824,-1.1601,-0.059014,0.009845
804,0.13684,0.11606,0.023487,-0.094743,-1.5811,-0.1269,0.019914
805,0.19304,0.12678,0.022837,-0.11845,-1.9289,-0.20355,0.013418
806,0.23689,0.13165,0.013418,-0.14736,-2.131,-0.28411,-0.0076946
807,0.26125,0.12937,-0.0024977,-0.17887,-2.1241,-0.35719,-0.032705
808,0.27034,0.12223,-0.01549,-0.20485,-1.8945,-0.40461,-0.052843
809,0.27554,0.11476,-0.019063,-0.212,-1.4839,-0.41111,-0.060638
810,0.28593,0.11508,-0.011267,-0.19576,-0.96685,-0.37083,-0.054142
811,0.29048,0.12125,0.0046481,-0.15841,-0.42865,-0.29547,-0.038551
812,0.26807,0.12937,0.025111,-0.11228,0.047523,-0.21037,-0.02361
813,0.20603,0.13035,0.044275,-0.067459,0.39182,-0.14022,-0.01614
814,0.10599,0.11378,0.053694,-0.03173,0.56267,-0.10221,-0.014191
815,-0.016464,0.070259,0.045574,-0.011267,0.56624,-0.10091,-0.01549
816,-0.13957,-0.0063954,0.018615,-0.016789,0.44963,-0.13047,-0.02361
817,-0.24156,-0.11066,-0.023935,-0.045697,0.27684,-0.17237,-0.044073
818,-0.30912,-0.23116,-0.072331,-0.085648,0.094295,-0.20063,-0.072981
819,-0.3351,-0.34387,-0.11423,-0.11878,-0.081751,-0.20063,-0.095393
820,-0.33088,-0.41533,-0.14087,-0.13502,-0.24805,-0.1727,-0.094093
821,-0.32048,-0.4228,-0.14379,-0.1295,-0.41403,-0.1178,-0.06551
822,-0.33283,-0.36596,-0.12235,-0.10481,-0.593,-0.047971,-0.022311
823,-0.37408,-0.26429,-0.08305,-0.067784,-0.77099,0.019914,0.016666
824,-0.42832,-0.14834,-0.042124,-0.027508,-0.89539,0.075131,0.042975
825,-0.46405,-0.050894,-0.0099683,0.0091954,-0.89572,0.11313,0.057592
826,-0.46697,0.0046481,0.0088706,0.03583,-0.73169,0.13327,0.065062
827,-0.43936,0.014068,0.014717,0.051096,-0.42182,0.13879,0.072858
828,-0.39941,-0.007045,0.012443,0.060515,-0.035628,0.13555,0.080003
829,-0.35914,-0.038551,0.013418,0.066686,0.32523,0.13035,0.083576
830,-0.32633,-0.064861,0.018615,0.073182,0.56169,0.12937,0.079679
831,-0.30359,-0.082725,0.030957,0.081303,0.62276,0.12905,0.070584
832,-0.28995,-0.093444,0.047198,0.092346,0.5107,0.1284,0.056292
833,-0.28248,-0.097017,0.067336,0.10274,0.27684,0.12483,0.044924
834,-0.28021,-0.094093,0.08585,0.10566,-0.007045,0.12093,0.033881
835,-0.2906,-0.085324,0.090397,0.097543,-0.26657,0.11541,0.016341
836,-0.32471,-0.081751,0.072858,0.07708,-0.43579,0.10696,-0.012567
837,-0.3783,-0.095068,0.030957,0.047847,-0.4582,0.095269,-0.051868
838,-0.42377,-0.12852,-0.028807,0.0088706,-0.30035,0.074482,-0.094743
839,-0.40981,-0.16133,-0.09182,-0.037252,0.024461,0.0433,-0.12722
840,-0.29775,-0.16328,-0.14314,-0.0837,0.45028,0.0043233,-0.14087
841,-0.088247,-0.11683,-0.17562,-0.12073,0.88228,-0.033679,-0.13177
842,0.17907,-0.032705,-0.18536,-0.13859,1.2454,-0.05739,-0.097666
843,0.45126,0.064737,-0.17302,-0.12787,1.5105,-0.044073,-0.040825
844,0.67635,0.15211,-0.14119,-0.092469,1.6878,0.01764,0.031932
845,0.82933,0.22,-0.10124,-0.041799,1.8021,0.11801,0.11183
846,0.93197,0.27716,-0.059014,0.01017,1.8599,0.22747,0.19141
847,1.0051,0.33335,-0.021012,0.05207,1.8236,0.31614,0.25962
848,1.0359,0.38078,0.0075714,0.076106,1.6443,0.36129,0.30055
849,0.99921,0.40611,0.024137,0.080003,1.3039,0.35804,0.30867
850,0.8891,0.40091,0.030957,0.065062,0.83161,0.31614,0.28593
851,0.73514,0.37298,0.034206,0.041351,0.32036,0.24988,0.24208
852,0.58346,0.33595,0.033881,0.020239,-0.10384,0.17972,0.19369
853,0.47042,0.3012,0.034206,0.0072465,-0.32795,0.12158,0.15146
854,0.41131,0.27554,0.032906,0.0039985,-0.31951,0.082277,0.1219
855,0.39247,0.25865,0.033881,0.0085458,-0.13567,0.063763,0.10112
856,0.38565,0.24436,0.036154,0.015367,0.10826,0.062139,0.090072
857,0.36096,0.22389,0.035505,0.021538,0.30607,0.071234,0.087799
858,0.29535,0.19076,0.028684,0.026735,0.40741,0.082602,0.090072
859,0.18427,0.13977,0.015042,0.029983,0.41326,0.091047,0.090397
860,0.047523,0.072208,-0.0018481,0.032257,0.34764,0.092346,0.08585
861,-0.095393,-0.0063954,-0.018413,0.029009,0.24598,0.0852,0.072858
862,-0.22499,-0.081426,-0.034004,0.0033489,0.14594,0.071558,0.051096
863,-0.3364,-0.13859,-0.051868,-0.061937,0.079354,0.054344,0.029009
864,-0.42897,-0.17302,-0.070707,-0.1662,0.040377,0.033881,0.012443
865,-0.504,-0.18829,-0.087922,-0.28735,-0.0024977,0.0088706,0.0059473
866,-0.55759,-0.19186,-0.10091,-0.39487,-0.05739,-0.017114,0.0091954
867,-0.58748,-0.18634,-0.10351,-0.46145,-0.084349,-0.03173,0.015367
868,-0.58683,-0.17367,-0.095717,-0.47477,-0.078827,-0.025559,0.019589
869,-0.55207,-0.15776,-0.080127,-0.43741,-0.15646,-0.0041217,0.020888
870,-0.48516,-0.13989,-0.061937,-0.36336,-0.4569,0.011144,0.020888
871,-0.40006,-0.12463,-0.045697,-0.27988,-0.95613,0.0039985,0.015692
872,-0.31886,-0.11326,-0.039201,-0.21752,-1.4359,-0.031406,0.0046481
873,-0.25812,-0.10384,-0.045372,-0.18959,-1.6272,-0.086298,-0.012242
874,-0.22174,-0.094418,-0.059014,-0.16295,-1.3781,-0.14216,-0.030756
875,-0.2055,-0.084024,-0.061288,-0.071357,-0.74371,-0.17984,-0.044073
876,-0.20843,-0.073955,-0.029457,0.14302,0.050771,-0.18536,-0.046996
877,-0.22629,-0.053817,0.041351,0.47919,0.72767,-0.15743,-0.039201
878,-0.24773,-0.016789,0.13555,0.85922,1.096,-0.10774,-0.033354
879,-0.26169,0.033881,0.22389,1.1668,1.107,-0.054792,-0.040825
880,-0.2565,0.080978,0.27651,1.3032,0.82349,-0.018088,-0.06551
881,-0.23181,0.098193,0.27456,1.2353,0.37623,-0.0063954,-0.09929
882,-0.17919,0.067336,0.2161,1.0054,-0.075255,-0.013541,-0.12527
883,-0.090521,-0.0034721,0.12385,0.70104,-0.38057,-0.025559,-0.12657
884,0.038428,-0.085324,0.029009,0.41001,-0.46405,-0.034329,-0.097666
885,0.20311,-0.14184,-0.041475,0.19044,-0.3416,-0.034004,-0.043748
886,0.37688,-0.15288,-0.073306,0.058566,-0.11391,-0.031081,0.024461
887,0.51427,-0.11586,-0.063886,0.00075039,0.094295,-0.034329,0.083576
888,0.57111,-0.042124,-0.023935,-0.0083442,0.20538,-0.044398,0.11118
889,0.52337,0.03453,0.028684,0.014068,0.18167,-0.054142,0.099167
890,0.3785,0.083901,0.070909,0.057267,0.020564,-0.050569,0.063763
891,0.1755,0.0865,0.086824,0.10664,-0.23474,-0.022961,0.029983
892,-0.030756,0.05272,0.073507,0.13977,-0.50855,0.021213,0.013418
893,-0.18569,-0.0044465,0.039078,0.13782,-0.72779,0.066362,0.013093
894,-0.2565,-0.067134,-0.0057458,0.10209,-0.85739,0.099167,0.018615
895,-0.24318,-0.12203,-0.047321,0.048822,-0.89962,0.11346,0.018615
896,-0.17042,-0.15613,-0.072006,-0.0015233,-0.88695,0.10761,0.0069217
897,-0.077203,-0.15613,-0.073631,-0.034004,-0.88338,0.083901,-0.014191
898,0.0056225,-0.1178,-0.055441,-0.048296,-0.9636,0.050771,-0.034004
899,0.059541,-0.042774,-0.026209,-0.052518,-1.1702,0.019914,-0.039201
900,0.081952,0.055968,0.0052977,-0.049595,-1.4807,0.0075714,-0.021337
901,0.07773,0.15536,0.032582,-0.038876,-1.8,0.019589,0.01829
902,0.055643,0.23071,0.051096,-0.020362,-2.001,0.054344,0.066686
903,0.032257,0.2619,0.060515,-0.00054884,-1.9598,0.096244,0.10534
904,0.019264,0.24695,0.059216,0.016666,-1.5807,0.13002,0.12223
905,0.011144,0.20148,0.05142,0.028034,-0.84277,0.14529,0.11476
906,0.0039985,0.14886,0.039727,0.024786,0.11931,0.14334,0.086824
907,0.0078962,0.099817,0.026085,0.0026992,1.0509,0.13002,0.050121
908,0.033881,0.057267,0.015692,-0.036602,1.7401,0.11086,0.012443
909,0.084226,0.022837,0.0078962,-0.084349,2.1286,0.096244,-0.019063
910,0.15016,0.0062721,0.0039985,-0.13177,2.2929,0.090072,-0.036927
911,0.20928,0.017316,0.0014,-0.17465,2.3488,0.088124,-0.043748
912,0.24436,0.061814,-0.0015233,-0.21817,2.3608,0.082927,-0.046022
913,0.25572,0.12678,-0.0050961,-0.26429,2.3416,0.06961,-0.054142
914,0.2593,0.18719,-0.0093186,-0.30847,2.2432,0.048172,-0.069408
915,0.26352,0.22065,-0.013866,-0.34062,1.961,0.022188,-0.085648
916,0.27489,0.21837,-0.018738,-0.35816,1.3935,-0.010943,-0.097341
917,0.29373,0.18881,-0.024909,-0.36173,0.54903,-0.056741,-0.10124
918,0.31906,0.14659,-0.031406,-0.35686,-0.42767,-0.11131,-0.097017
919,0.34829,0.11151,-0.034654,-0.34549,-1.3345,-0.1623,-0.091495
920,0.37753,0.097543,-0.03238,-0.32341,-2.0527,-0.19738,-0.0837
921,0.39896,0.10209,-0.023935,-0.28898,-2.5584,-0.2146,-0.076229
922,0.39864,0.11054,-0.0096434,-0.24675,-2.8582,-0.21752,-0.072006
923,0.36518,0.11054,0.0033489,-0.20323,-2.9225,-0.21362,-0.073306
924,0.29762,0.093645,0.011469,-0.1597,-2.6984,-0.20648,-0.078178
925,0.20733,0.061814,0.011794,-0.11326,-2.1716,-0.19771,-0.087272
926,0.10566,0.026085,0.0020496,-0.068109,-1.3995,-0.18601,-0.097666
927,-0.0034721,-0.0067202,-0.013866,-0.031081,-0.51277,-0.17042,-0.10741
928,-0.12105,-0.03173,-0.026209,-0.0054209,0.29925,-0.15321,-0.11391
929,-0.25487,-0.055116,-0.029457,0.0085458,0.85694,-0.13989,-0.11651
930,-0.40851,-0.086298,-0.023935,0.015042,1.0853,-0.13275,-0.11456
931,-0.57156,-0.13145,-0.01549,0.01894,1.0216,-0.12787,-0.10774
932,-0.7148,-0.18991,-0.0063954,0.027385,0.77769,-0.11618,-0.096042
933,-0.80022,-0.2539,0.0014,0.036804,0.48179,-0.095717,-0.081751
934,-0.80217,-0.31009,0.0075714,0.046548,0.22649,-0.069408,-0.066485
935,-0.72422,-0.34647,0.014717,0.054344,0.044599,-0.043423,-0.049595
936,-0.60112,-0.35816,0.025111,0.063113,-0.085973,-0.023285,-0.034004
937,-0.47834,-0.34679,0.037778,0.073182,-0.21297,-0.010618,-0.018413
938,-0.38804,-0.31983,0.041351,0.076431,-0.35264,-0.0044465,-0.010618
939,-0.34549,-0.28281,0.029009,0.064413,-0.47607,-0.0028225,-0.017439
940,-0.33965,-0.24448,0.0020496,0.038428,-0.53323,-0.0050961,-0.038227
941,-0.34355,-0.20615,-0.028157,0.0036737,-0.48419,-0.011917,-0.064861
942,-0.33478,-0.17042,-0.052518,-0.028482,-0.31724,-0.025234,-0.086298
943,-0.30359,-0.14606,-0.059339,-0.047646,-0.053492,-0.043423,-0.093119
944,-0.25325,-0.13632,-0.047321,-0.045372,0.26482,-0.063561,-0.086948
945,-0.19348,-0.14444,-0.029132,-0.02361,0.59872,-0.077853,-0.075904
946,-0.14379,-0.1675,-0.013866,0.008221,0.93977,-0.076879,-0.065186
947,-0.12073,-0.19673,-0.0063954,0.038103,1.3065,-0.057065,-0.057715
948,-0.13047,-0.22012,-0.0089938,0.060515,1.7044,-0.02361,-0.051868
949,-0.16328,-0.22824,-0.017439,0.078055,2.0964,0.011144,-0.044723
950,-0.19381,-0.20972,-0.021986,0.097543,2.4163,0.039727,-0.032705
951,-0.20128,-0.15191,-0.013541,0.12353,2.5934,0.061165,-0.011592
952,-0.17659,-0.052518,0.0046481,0.15438,2.543,0.073832,0.013743
953,-0.12365,0.071558,0.028684,0.18264,2.1497,0.072858,0.038428
954,-0.054142,0.18784,0.052395,0.19531,1.3393,0.053694,0.053044
955,0.018615,0.26352,0.066686,0.19109,0.21415,0.01894,0.049796
956,0.089098,0.27619,0.063113,0.1742,-0.92982,-0.02361,0.029009
957,0.15438,0.22649,0.035505,0.14691,-1.7821,-0.065186,0.00042559
958,0.2187,0.14107,-0.0067202,0.11573,-2.2044,-0.098641,-0.020362
959,0.28756,0.054019,-0.048296,0.083901,-2.2284,-0.11683,-0.023285
960,0.35901,-0.0024977,-0.075904,0.053369,-1.9802,-0.11553,-0.0050961
961,0.41131,-0.023285,-0.087597,0.02706,-1.5947,-0.092145,0.029009
962,0.42008,-0.023935,-0.084024,0.012768,-1.1965,-0.046996,0.065387
963,0.37265,-0.010293,-0.061937,0.015367,-0.8811,0.012443,0.09462
964,0.27034,0.022512,-0.021337,0.03518,-0.68654,0.073182,0.11346
965,0.13197,0.074482,0.028034,0.063113,-0.60794,0.11703,0.12515
966,-0.012567,0.13717,0.076431,0.084876,-0.60404,0.13067,0.1297
967,-0.13242,0.18979,0.10761,0.091047,-0.57416,0.11248,0.13522
968,-0.20225,0.20798,0.11183,0.081952,-0.42215,0.078379,0.14886
969,-0.21102,0.18427,0.090722,0.064088,-0.1269,0.044924,0.17062
970,-0.1727,0.12385,0.055643,0.042975,0.25897,0.015367,0.19076
971,-0.10676,0.047847,0.025436,0.022188,0.64582,-0.011917,0.19758
972,-0.028482,-0.017764,0.013093,0.003024,0.95926,-0.047321,0.18329
973,0.059541,-0.055116,0.01829,-0.013541,1.1649,-0.10156,0.15049
974,0.15828,-0.051868,0.028034,-0.027833,1.2399,-0.16945,0.10209
975,0.24468,-0.0063954,0.03453,-0.038876,1.1129,-0.23181,0.048172
976,0.27489,0.065387,0.034855,-0.042449,0.69162,-0.26527,-0.00022403
977,0.22259,0.13879,0.029333,-0.03173,-0.013541,-0.26364,-0.034654
978,0.10989,0.18589,0.024137,-0.008669,-0.83498,-0.23376,-0.050894
979,-0.014516,0.19369,0.024461,0.019589,-1.5496,-0.19283,-0.047646
980,-0.092469,0.16445,0.033231,0.047847,-1.9884,-0.15353,-0.025559
981,-0.076554,0.11248,0.048172,0.069934,-2.0725,-0.11943,0.011469
982,0.041676,0.057917,0.062789,0.083251,-1.8396,-0.090196,0.048497
983,0.22454,0.021863,0.068635,0.088448,-1.4167,-0.064536,0.069285
984,0.41553,0.016666,0.06019,0.082927,-0.97432,-0.040825,0.070259
985,0.56819,0.042651,0.037454,0.063763,-0.66121,-0.012892,0.057592
986,0.66563,0.090397,0.0072465,0.033881,-0.52836,0.023162,0.042975
987,0.70428,0.15049,-0.019712,0.00042559,-0.51017,0.067986,0.038428
988,0.68382,0.21447,-0.036927,-0.033679,-0.48484,0.11281,0.049147
989,0.60717,0.27002,-0.039526,-0.062587,-0.36596,0.14139,0.069934
990,0.48829,0.30867,-0.035303,-0.084999,-0.12592,0.14854,0.088124
991,0.35252,0.32523,-0.027833,-0.098316,0.22292,0.1323,0.096893
992,0.22454,0.31841,-0.015815,-0.10189,0.62925,0.10306,0.096244
993,0.12613,0.29113,-0.0018481,-0.095393,1.0093,0.079679,0.084876
994,0.065712,0.2515,0.0085458,-0.08305,1.2756,0.075456,0.064413
995,0.038103,0.21155,0.0095202,-0.06681,1.3802,0.087474,0.042651
996,0.030308,0.17972,0.0010752,-0.048296,1.3373,0.10501,0.025111
997,0.030308,0.15731,-0.012242,-0.027833,1.2084,0.11995,0.012768
998,0.033881,0.14074,-0.021986,-0.0067202,1.0645,0.1284,0.0023744
999,0.033881,0.12125,-0.025884,0.012119,0.95049,0.13035,-0.0021729
1000,0.033231,0.097868,-0.020687,0.026085,0.88228,0.12937,0.0046481
1001,0.036479,0.070259,-0.010943,0.030957,0.86084,0.13002,0.020239
1002,0.045899,0.042651,0.0010752,0.027385,0.87383,0.1362,0.036804
1003,0.053044,0.019264,0.014392,0.024137,0.89137,0.14561,0.047847
1004,0.055318,0.0026992,0.028034,0.030633,0.88618,0.15536,0.053694
1005,0.05207,-0.0050961,0.039078,0.039078,0.8394,0.16283,0.057592
1006,0.048172,-0.0054209,0.048822,0.042326,0.74846,0.16738,0.064088
1007,0.045899,-0.0037969,0.051096,0.035505,0.62308,0.16738,0.073507
1008,0.044275,-0.0054209,0.045574,0.025111,0.48147,0.16543,0.081952
1009,0.042001,-0.0096434,0.033556,0.022188,0.35252,0.16348,0.083576
1010,0.037129,-0.014516,0.022837,0.033556,0.26287,0.16315,0.076755
1011,0.027709,-0.020687,0.016991,0.053369,0.22584,0.16056,0.063113
1012,0.013743,-0.026209,0.01829,0.071234,0.22844,0.15471,0.047523
1013,-0.0047713,-0.029132,0.023812,0.081303,0.25053,0.14854,0.03453
1014,-0.028482,-0.032705,0.029333,0.081627,0.27034,0.13977,0.025436
1015,-0.061288,-0.04115,0.032582,0.075456,0.27814,0.1297,0.01829
1016,-0.09929,-0.054792,0.03518,0.06896,0.28203,0.11411,0.013418
1017,-0.13924,-0.068109,0.036154,0.067661,0.3038,0.091696,0.0043233
1018,-0.17432,-0.074605,0.03453,0.072858,0.36518,0.056292,-0.011592
1019,-0.19803,-0.069733,0.028359,0.080653,0.47497,0.009845,-0.034004
1020,-0.2081,-0.054792,0.017316,0.084876,0.61496,-0.037902,-0.05739
1021,-0.2068,-0.037902,0.0017248,0.081627,0.73027,-0.076879,-0.07428
1022,-0.19608,-0.028807,-0.017764,0.067011,0.73676,-0.10481,-0.082076
1023,-0.17724,-0.029782,-0.038227,0.041351,0.54643,-0.1282,-0.08305
1024,-0.15516,-0.0405,-0.053817,0.013093,0.12678,-0.14834,-0.080127
1025,-0.13729,-0.056416,-0.057715,-0.0099683,-0.45301,-0.15646,-0.071357
1026,-0.12657,-0.071032,-0.051544,-0.022961,-1.0383,-0.14704,-0.056416
1027,-0.1191,-0.079802,-0.036927,-0.028157,-1.4839,-0.12365,-0.038876
1028,-0.11358,-0.080776,-0.018088,-0.027833,-1.7061,-0.098641,-0.022311
1029,-0.10579,-0.079152,-0.0050961,-0.023285,-1.6886,-0.075904,-0.010293
1030,-0.092145,-0.077203,-0.00087364,-0.016464,-1.4641,-0.058365,-0.0050961
1031,-0.07428,-0.07493,-0.0021729,-0.0096434,-1.0896,-0.041799,-0.0080194
1032,-0.058689,-0.071032,-0.0044465,-0.00087364,-0.64139,-0.029132,-0.017764
1033,-0.046347,-0.062912,-0.0047713,0.011144,-0.2029,-0.024909,-0.029132
1034,-0.043099,-0.050894,-0.00054884,0.024786,0.14399,-0.028807,-0.041475
1035,-0.052193,-0.037577,0.0072465,0.034206,0.33887,-0.036278,-0.050244
1036,-0.069733,-0.023285,0.016991,0.035505,0.35966,-0.040825,-0.055441
1037,-0.085973,-0.011267,0.023487,0.029983,0.22877,-0.040175,-0.057065
1038,-0.095068,-0.0024977,0.028034,0.019589,0.008221,-0.036927,-0.052843
1039,-0.090521,0.00010078,0.029658,0.0095202,-0.21622,-0.034329,-0.038227
1040,-0.072981,-0.0028225,0.029009,0.0056225,-0.35881,-0.034329,-0.01614
1041,-0.054792,-0.007045,0.026735,0.01017,-0.36466,-0.038876,0.0039985
1042,-0.053168,-0.014516,0.023812,0.018615,-0.22629,-0.04992,0.0088706
1043,-0.07493,-0.030106,0.01829,0.021538,0.016016,-0.062912,-0.007045
1044,-0.11293,-0.060638,0.0017248,0.016666,0.29892,-0.069733,-0.040175
1045,-0.15126,-0.10416,-0.024909,0.0062721,0.55942,-0.068109,-0.074605
1046,-0.16588,-0.15743,-0.056416,-0.0089938,0.75041,-0.059339,-0.097341
1047,-0.14281,-0.2172,-0.084999,-0.028807,0.8459,-0.050569,-0.10384
1048,-0.086948,-0.28118,-0.11131,-0.04992,0.84265,-0.04992,-0.097017
1049,-0.018088,-0.339,-0.13275,-0.069408,0.77672,-0.060313,-0.079477
1050,0.037454,-0.37343,-0.14346,-0.080127,0.69844,-0.073306,-0.058365
1051,0.065387,-0.36531,-0.13372,-0.084349,0.64712,-0.080776,-0.036927
1052,0.066037,-0.30782,-0.10416,-0.0824,0.6377,-0.080451,-0.020687
1053,0.050771,-0.21232,-0.061613,-0.079477,0.64452,-0.073306,-0.013216
1054,0.036154,-0.10091,-0.019712,-0.079477,0.62341,-0.061937,-0.017114
1055,0.03453,0.0023744,0.0078962,-0.079152,0.54155,-0.043748,-0.023285
1056,0.046548,0.076755,0.01829,-0.080776,0.39896,-0.021337,-0.026209
1057,0.055968,0.11378,0.013093,-0.085973,0.22129,0.0020496,-0.024585
1058,0.046223,0.11768,-0.0050961,-0.094743,0.044275,0.023812,-0.01484
1059,0.0088706,0.11086,-0.028807,-0.10156,-0.094743,0.047847,0.0033489
1060,-0.051544,0.11541,-0.051544,-0.10319,-0.17822,0.07708,0.031607
1061,-0.12203,0.13165,-0.062262,-0.10221,-0.20193,0.10794,0.066686
1062,-0.18147,0.14756,-0.059014,-0.10351,-0.18959,0.13165,0.095919
1063,-0.20713,0.15601,-0.0405,-0.10449,-0.17042,0.14139,0.11248
1064,-0.18764,0.15698,-0.010943,-0.088572,-0.16393,0.13425,0.11378
1065,-0.1256,0.15081,0.025761,-0.038227,-0.17107,0.11476,0.10404
1066,-0.032705,0.14172,0.062789,0.053694,-0.18407,0.090397,0.084226
1067,0.069285,0.13067,0.097218,0.17095,-0.2055,0.061814,0.055968
1068,0.15276,0.11216,0.12125,0.28398,-0.2487,0.026085,0.017965
1069,0.19206,0.073182,0.12483,0.36031,-0.33218,-0.022636,-0.027508
1070,0.15796,-0.00087364,0.10469,0.38435,-0.46015,-0.081426,-0.073955
1071,0.022512,-0.11586,0.063438,0.36194,-0.61379,-0.13794,-0.11553
1072,-0.20355,-0.25065,0.01017,0.30997,-0.77067,-0.18017,-0.14152
1073,-0.45301,-0.36141,-0.045047,0.24468,-0.90968,-0.20615,-0.14639
1074,-0.64464,-0.40493,-0.093444,0.1768,-1.0126,-0.21525,-0.13469
1075,-0.74371,-0.37245,-0.1321,0.10794,-1.0562,-0.20875,-0.1243
1076,-0.76222,-0.28833,-0.15321,0.041027,-1.0243,-0.18634,-0.11943
1077,-0.71285,-0.19543,-0.15548,-0.012892,-0.91066,-0.14541,-0.10416
1078,-0.59852,-0.12657,-0.13599,-0.034329,-0.71285,-0.080451,-0.055116
1079,-0.42377,-0.09182,-0.096042,-0.01614,-0.43904,0.011469,0.038753
1080,-0.18959,-0.068109,-0.043748,0.029009,-0.1178,0.11671,0.1651
1081,0.092021,-0.030431,0.01017,0.070909,0.15016,0.20018,0.2921
1082,0.37363,0.023812,0.050446,0.073507,0.19596,0.22389,0.38272
1083,0.58086,0.078704,0.065062,0.015367,-0.078827,0.1742,0.4165
1084,0.66303,0.11281,0.046548,-0.097666,-0.58585,0.066686,0.39474
1085,0.62276,0.11346,-0.00054884,-0.2435,-1.1062,-0.069408,0.33498
1086,0.51102,0.089748,-0.059989,-0.39032,-1.4307,-0.19446,0.26027
1087,0.41391,0.070909,-0.11163,-0.50433,-1.4385,-0.27404,0.19596
1088,0.40091,0.08585,-0.13762,-0.55662,-1.1348,-0.29255,0.15828
1089,0.48374,0.14074,-0.13307,-0.53258,-0.65276,-0.25845,0.14886
1090,0.61236,0.21285,-0.10644,-0.44618,-0.19966,-0.19901,0.14919
1091,0.71208,0.27586,-0.070382,-0.32503,0.061165,-0.14866,0.14009
1092,0.72994,0.31744,-0.03238,-0.18212,0.10729,-0.1269,0.10859
1093,0.65361,0.34017,0.0059473,-0.0099683,0.037454,-0.14054,0.059865
1094,0.50258,0.35057,0.040702,0.19044,-0.0028225,-0.17594,0.0095202
1095,0.31289,0.35187,0.070909,0.38402,0.10924,-0.20063,-0.026209
1096,0.11346,0.34342,0.10079,0.5146,0.40676,-0.18017,-0.038551
1097,-0.063886,0.32393,0.1284,0.5474,0.82154,-0.10189,-0.025884
1098,-0.19024,0.2921,0.15016,0.49348,1.2298,0.021538,0.003024
1099,-0.24773,0.25183,0.16348,0.39442,1.5163,0.15958,0.031282
1100,-0.23863,0.20928,0.16575,0.29275,1.6206,0.27554,0.042975
1101,-0.17594,0.17062,0.15698,0.21188,1.555,0.34537,0.036804
1102,-0.077528,0.14204,0.13977,0.15796,1.3653,0.35901,0.018615
1103,0.036804,0.12548,0.11638,0.12515,1.0882,0.32134,-0.0018481
1104,0.13944,0.11898,0.088773,0.10436,0.73546,0.2489,-0.017764
1105,0.20181,0.11183,0.062464,0.086824,0.32978,0.16218,-0.028482
1106,0.20603,0.096893,0.040052,0.06896,-0.088247,0.077405,-0.035628
1107,0.15568,0.074482,0.024137,0.053369,-0.44683,0.0056225,-0.038876
1108,0.080328,0.054344,0.020239,0.043625,-0.64042,-0.052843,-0.045697
1109,0.012119,0.048822,0.032582,0.042001,-0.60372,-0.097666,-0.059664
1110,-0.028482,0.060515,0.058566,0.047198,-0.38155,-0.12527,-0.075904
1111,-0.037577,0.081627,0.089423,0.05142,-0.10286,-0.13567,-0.093444
1112,-0.027833,0.097218,0.10924,0.046548,0.097868,-0.13502,-0.11066
1113,-0.018413,0.091696,0.10664,0.029009,0.15276,-0.13794,-0.12625
1114,-0.029782,0.056292,0.080978,-0.0047713,0.063763,-0.14996,-0.14087
1115,-0.066485,-0.0018481,0.041027,-0.04992,-0.12463,-0.1662,-0.15451
1116,-0.12105,-0.067459,0.0010752,-0.094743,-0.33705,-0.17107,-0.1649
1117,-0.17432,-0.12203,-0.028157,-0.12657,-0.52479,-0.15093,-0.1714
1118,-0.2042,-0.15029,-0.038876,-0.14087,-0.68329,-0.096692,-0.16977
1119,-0.20128,-0.14996,-0.03303,-0.13989,-0.82199,-0.015165,-0.15581
1120,-0.1727,-0.13242,-0.020362,-0.13145,-0.91391,0.079029,-0.12982
1121,-0.13632,-0.10968,-0.0093186,-0.123,-0.91748,0.16575,-0.10254
1122,-0.11163,-0.087272,-0.0018481,-0.11391,-0.79893,0.23591,-0.083375
1123,-0.10286,-0.069733,0.0010752,-0.10026,-0.56474,0.29113,-0.07493
1124,-0.10579,-0.05739,-0.0011985,-0.081426,-0.26624,0.33952,-0.072006
1125,-0.10709,-0.04992,-0.0073698,-0.064861,0.0075714,0.38337,-0.067459
1126,-0.10384,-0.047646,-0.01549,-0.055116,0.15763,0.41683,-0.061288
1127,-0.10319,-0.053492,-0.025559,-0.052843,0.10599,0.43177,-0.055116
1128,-0.10968,-0.067459,-0.035628,-0.059339,-0.15386,0.42397,-0.050244
1129,-0.1204,-0.084024,-0.043423,-0.069733,-0.55207,0.39344,-0.053817
1130,-0.12365,-0.094743,-0.046022,-0.075579,-0.96263,0.3457,-0.065186
1131,-0.11878,-0.096367,-0.041475,-0.071357,-1.2611,0.28918,-0.078827
1132,-0.10449,-0.088247,-0.028482,-0.061288,-1.392,0.23234,-0.086298
1133,-0.082725,-0.072331,-0.010618,-0.052843,-1.3904,0.17874,-0.085324
1134,-0.057065,-0.048296,0.0095202,-0.049595,-1.3527,0.12905,-0.078178
1135,-0.03238,-0.021337,0.02641,-0.048945,-1.3524,0.071558,-0.070707
1136,-0.01484,0.00010078,0.037129,-0.04927,-1.3855,-0.0047713,-0.067134
1137,-0.0093186,0.0088706,0.043625,-0.050894,-1.3566,-0.10481,-0.069733
1138,-0.012892,0.0059473,0.044924,-0.053492,-1.1179,-0.21914,-0.078827
1139,-0.022636,-0.0034721,0.03583,-0.055441,-0.58845,-0.32503,-0.087597
1140,-0.035628,-0.01614,0.016666,-0.056416,0.15633,-0.39811,-0.089871
1141,-0.04992,-0.026858,-0.0037969,-0.050244,0.90014,-0.4202,-0.083375
1142,-0.062912,-0.036278,-0.013541,-0.034329,1.4296,-0.3835,-0.072656
1143,-0.071032,-0.0405,-0.0099683,-0.016789,1.6397,-0.30294,-0.060313
1144,-0.070707,-0.036278,0.0026992,-0.0067202,1.554,-0.20258,-0.045047
1145,-0.060638,-0.023285,0.015042,-0.0018481,1.2912,-0.10546,-0.029132
1146,-0.039851,-0.0060706,0.021863,0.003024,0.98914,-0.029457,-0.013216
1147,-0.011592,0.011469,0.022188,0.011794,0.74813,0.022188,0.0036737
1148,0.01894,0.024786,0.01894,0.022837,0.60424,0.056617,0.019914
1149,0.045574,0.03518,0.014068,0.03518,0.54773,0.080328,0.036479
1150,0.066686,0.040702,0.011469,0.045574,0.54675,0.094945,0.048172
1151,0.083576,0.045899,0.011469,0.050446,0.56527,0.098517,0.054668
1152,0.098193,0.056617,0.012768,0.053694,0.57826,0.091696,0.055318
1153,0.11995,0.071883,0.011469,0.055318,0.57306,0.074806,0.051096
1154,0.15276,0.090072,0.0075714,0.056617,0.5448,0.05272,0.045899
1155,0.19401,0.10079,0.00042559,0.056292,0.49868,0.030308,0.038753
1156,0.23299,0.095269,-0.008669,0.049472,0.44866,0.0069217,0.030957
1157,0.25767,0.07773,-0.016464,0.03518,0.41033,-0.01614,0.022837
1158,0.2606,0.05207,-0.020362,0.020239,0.39572,-0.035628,0.016016
1159,0.23948,0.026735,-0.021012,0.013093,0.40514,-0.047321,0.012768
1160,0.19304,0.0095202,-0.018738,0.015692,0.43112,-0.051868,0.012443
1161,0.12418,0.003024,-0.013541,0.02706,0.4623,-0.050894,0.013093
1162,0.036479,0.0017248,-0.0047713,0.041351,0.49088,-0.045372,0.013743
1163,-0.062262,-0.0028225,0.0039985,0.054019,0.51427,-0.039201,0.016016
1164,-0.15321,-0.012242,0.012768,0.063113,0.53051,-0.037252,0.017965
1165,-0.212,-0.021337,0.020888,0.071558,0.53896,-0.039851,0.01829
1166,-0.22142,-0.031406,0.021863,0.072858,0.53701,-0.051219,0.01764
1167,-0.18991,-0.04927,0.013093,0.058891,0.52239,-0.071682,0.015367
1168,-0.15029,-0.086623,-0.0015233,0.01829,0.49706,-0.099615,0.011144
1169,-0.12398,-0.14671,-0.015815,-0.04992,0.47107,-0.1269,0.011144
1170,-0.11163,-0.21037,-0.023935,-0.13697,0.45905,-0.14541,0.022512
1171,-0.10514,-0.2578,-0.028157,-0.22856,0.47075,-0.14834,0.0433
1172,-0.10026,-0.27436,-0.030756,-0.30782,0.50745,-0.13469,0.068635
1173,-0.096042,-0.25747,-0.034978,-0.36271,0.57533,-0.10741,0.088448
1174,-0.10644,-0.20972,-0.039526,-0.3809,0.67603,-0.068758,0.096893
1175,-0.1334,-0.14119,-0.040825,-0.35784,0.79848,-0.029132,0.097543
1176,-0.1662,-0.064861,-0.035303,-0.29677,0.91151,0.0023744,0.092346
1177,-0.18861,-0.0011985,-0.026858,-0.21135,0.96575,0.016016,0.0852
1178,-0.19219,0.031607,-0.019388,-0.11163,0.91866,0.015692,0.086175
1179,-0.17497,0.023487,-0.012567,0.013743,0.77314,0.022512,0.099817
1180,-0.14574,-0.023935,-0.0034721,0.19141,0.56754,0.055968,0.12743
1181,-0.12138,-0.090196,0.01017,0.43307,0.34017,0.11573,0.1625
1182,-0.10514,-0.13794,0.032257,0.70526,0.093321,0.18167,0.19109
1183,-0.089221,-0.13177,0.062464,0.94139,-0.20388,0.22909,0.20148
1184,-0.060313,-0.062587,0.090397,1.0749,-0.56084,0.23883,0.18979
1185,-0.012892,0.038428,0.10729,1.0661,-0.93599,0.20246,0.16023
1186,0.057917,0.13327,0.10566,0.91801,-1.2774,0.1219,0.1219
1187,0.14042,0.19726,0.082602,0.66693,-1.5392,0.0085458,0.084876
1188,0.2109,0.21967,0.037778,0.37298,-1.6921,-0.11098,0.054019
1189,0.25118,0.19986,-0.017439,0.10047,-1.7513,-0.20583,0.03453
1190,0.24663,0.14367,-0.072981,-0.10416,-1.8052,-0.25747,0.026085
1191,0.19466,0.062139,-0.11521,-0.22434,-1.9513,-0.26624,0.025436
1192,0.10891,-0.027183,-0.14314,-0.27371,-2.1803,-0.25325,0.031607
1193,0.027385,-0.10546,-0.15451,-0.28313,-2.3395,-0.24318,0.041027
1194,-0.015165,-0.15776,-0.15191,-0.27209,-2.2388,-0.24675,0.050121
1195,-0.008669,-0.17497,-0.13632,-0.25292,-1.7785,-0.25975,0.055318
1196,0.036479,-0.15548,-0.11163,-0.22986,-1.0198,-0.26624,0.059865
1197,0.095269,-0.10709,-0.081101,-0.19966,-0.13729,-0.24805,0.067986
1198,0.15049,-0.039201,-0.050894,-0.16588,0.65524,-0.20193,0.076755
1199,0.19174,0.03453,-0.023935,-0.13534,1.1964,-0.13957,0.081303
1200,0.20993,0.10047,0.0014,-0.10806,1.4377,-0.081751,0.077405
1201,0.19466,0.15016,0.023162,-0.083375,1.4205,-0.038876,0.065387
1202,0.14529,0.18134,0.036804,-0.056741,1.2363,-0.012242,0.047523
1203,0.067011,0.19336,0.042651,-0.026533,0.98979,0.0010752,0.024786
1204,-0.028157,0.18459,0.042326,0.0046481,0.75723,0.0065969,0.0017248
1205,-0.11651,0.15601,0.039402,0.030957,0.58086,0.011144,-0.01614
1206,-0.16263,0.11638,0.037778,0.047847,0.46717,0.019589,-0.025234
1207,-0.14249,0.080003,0.034855,0.051096,0.41715,0.033881,-0.024585
1208,-0.068758,0.06019,0.032257,0.044599,0.42495,0.05207,-0.01614
1209,0.029333,0.063113,0.029009,0.03453,0.4727,0.067661,-0.0080194
1210,0.12515,0.082277,0.022512,0.025111,0.52044,0.07773,-0.0034721
1211,0.19693,0.10469,0.012443,0.018615,0.52044,0.083251,-0.0037969
1212,0.23364,0.11703,0.0043233,0.010495,0.44736,0.083901,-0.0031473
1213,0.23396,0.11151,0.003024,-0.0021729,0.31874,0.078055,-0.00054884
1214,0.20635,0.095594,0.009845,-0.018088,0.18264,0.06084,-0.0031473
1215,0.15698,0.076755,0.019914,-0.03303,0.085525,0.032582,-0.011917
1216,0.088448,0.054668,0.027709,-0.04992,0.033556,-0.0044465,-0.027508
1217,0.0017248,0.026735,0.028034,-0.064861,-0.00087364,-0.04115,-0.044073
1218,-0.10026,-0.0076946,0.019914,-0.076879,-0.044398,-0.071032,-0.057065
1219,-0.20615,-0.042124,0.008221,-0.084999,-0.094093,-0.087272,-0.063886
1220,-0.2984,-0.068758,-0.0024977,-0.088896,-0.12495,-0.088572,-0.061613
1221,-0.35102,-0.08305,-0.0080194,-0.085648,-0.10026,-0.072656,-0.052518
1222,-0.34777,-0.080451,-0.0054209,-0.072006,-0.0099683,-0.039851,-0.037902
1223,-0.29158,-0.063237,0.0026992,-0.052193,0.11541,0.0043233,-0.021986
1224,-0.20388,-0.037902,0.015367,-0.036602,0.23006,0.051096,-0.0063954
1225,-0.11261,-0.013541,0.026735,-0.029457,0.2947,0.091372,0.0052977
1226,-0.034978,0.0020496,0.032257,-0.029782,0.30087,0.12028,0.0056225
1227,0.026085,0.0065969,0.030633,-0.034004,0.25962,0.1362,-0.0067202
1228,0.073507,0.0043233,0.024786,-0.041799,0.18589,0.14009,-0.024909
1229,0.11736,0.0039985,0.018615,-0.04927,0.097218,0.13457,-0.038876
1230,0.15893,0.016016,0.016666,-0.051544,0.048497,0.12418,-0.04115
1231,0.18719,0.040052,0.01829,-0.046347,0.10859,0.11183,-0.026533
1232,0.19369,0.068635,0.019264,-0.033354,0.32328,0.10014,0.0052977
1233,0.17842,0.088448,0.014068,-0.021337,0.67505,0.096569,0.044275
1234,0.15373,0.095919,0.00042559,-0.018088,1.0902,0.099817,0.072858
1235,0.1336,0.087799,-0.017114,-0.023285,1.4715,0.10761,0.079679
1236,0.12288,0.06896,-0.031406,-0.034004,1.7291,0.12548,0.067986
1237,0.12548,0.048822,-0.036278,-0.038876,1.7901,0.16185,0.049147
1238,0.1284,0.035505,-0.030431,-0.034978,1.6206,0.21967,0.034206
1239,0.11313,0.036154,-0.017439,-0.02426,1.2435,0.28691,0.022837
1240,0.069285,0.046873,-0.0018481,-0.0063954,0.72247,0.34505,0.016341
1241,0.0014,0.054344,0.0085458,0.014392,0.12418,0.37525,0.012119
1242,-0.068434,0.05207,0.014392,0.029983,-0.47574,0.36259,0.0052977
1243,-0.12138,0.037454,0.016666,0.034855,-0.97367,0.30542,-0.0093186
1244,-0.14671,0.011144,0.016016,0.028684,-1.2439,0.21317,-0.035628
1245,-0.14509,-0.025234,0.010495,0.019589,-1.2001,0.10144,-0.068109
1246,-0.11521,-0.063561,0.0039985,0.016666,-0.8811,-0.010293,-0.096692
1247,-0.063237,-0.090196,0.00042559,0.02706,-0.43124,-0.09929,-0.11098
1248,0.00075039,-0.092794,0.0020496,0.051096,-0.047321,-0.15451,-0.10416
1249,0.059541,-0.073631,0.0043233,0.078055,0.10534,-0.18309,-0.076879
1250,0.094295,-0.040825,0.0049729,0.096569,-0.033354,-0.20128,-0.044723
1251,0.094945,-0.0099683,0.0020496,0.099817,-0.3848,-0.22986,-0.02426
1252,0.066686,0.0078962,-0.0041217,0.0865,-0.78333,-0.28021,-0.020037
1253,0.03453,0.013743,-0.01549,0.058241,-1.09,-0.34549,-0.02426
1254,0.029658,0.011144,-0.035953,0.023162,-1.2679,-0.40851,-0.026209
1255,0.063763,0.003024,-0.061937,-0.0080194,-1.3712,-0.4556,-0.017439
1256,0.1219,-0.0011985,-0.080776,-0.021986,-1.4771,-0.48191,-0.0015233
1257,0.1716,0.0088706,-0.078503,-0.01484,-1.6311,-0.48159,0.014392
1258,0.18492,0.041027,-0.048296,0.010819,-1.8139,-0.45333,0.025111
1259,0.14756,0.093645,0.0052977,0.042651,-1.9413,-0.39324,0.029009
1260,0.066037,0.15471,0.063113,0.062139,-1.926,-0.30944,0.030633
1261,-0.037577,0.20148,0.10404,0.054993,-1.7331,-0.22044,0.031282
1262,-0.13437,0.20765,0.11313,0.022512,-1.4037,-0.14346,0.025111
1263,-0.2016,0.16413,0.087474,-0.029782,-1.0282,-0.087922,0.0091954
1264,-0.23214,0.082927,0.040702,-0.088247,-0.69109,-0.052518,-0.014191
1265,-0.23409,-0.0031473,-0.0093186,-0.13762,-0.43839,-0.026209,-0.033679
1266,-0.21882,-0.062262,-0.044073,-0.17627,-0.26559,0.003024,-0.04115
1267,-0.18439,-0.080776,-0.050244,-0.21947,-0.15938,0.043625,-0.032705
1268,-0.1217,-0.062587,-0.029457,-0.27209,-0.11033,0.096569,-0.0099683
1269,-0.029132,-0.026533,0.0046481,-0.32048,-0.11131,0.15081,0.022188
1270,0.07773,0.0023744,0.03583,-0.34062,-0.1597,0.20083,0.062139
1271,0.17582,0.0036737,0.054019,-0.31431,-0.24221,0.24403,0.10469
1272,0.2502,-0.029782,0.056942,-0.23896,-0.3429,0.28593,0.14237
1273,0.30152,-0.082076,0.05142,-0.1269,-0.43904,0.32101,0.16738
1274,0.33563,-0.11488,0.047198,0.00010078,-0.49556,0.34602,0.17355
1275,0.36226,-0.10156,0.049796,0.11378,-0.47704,0.35934,0.16283
1276,0.39182,-0.046347,0.053694,0.19369,-0.37018,0.36064,0.13814
1277,0.43047,0.024137,0.053694,0.24241,-0.19608,0.35154,0.10306
1278,0.45581,0.081303,0.047847,0.26872,-0.010293,0.33075,0.067986
1279,0.43307,0.10761,0.044275,0.28366,0.11638,0.30217,0.044924
1280,0.34732,0.10404,0.05142,0.29178,0.14951,0.26709,0.03583
1281,0.22454,0.084226,0.070909,0.2895,0.13035,0.22584,0.038428
1282,0.10371,0.06896,0.086824,0.27164,0.16153,0.17582,0.041351
1283,0.0085458,0.064088,0.081952,0.24013,0.33108,0.11606,0.032257
1284,-0.05739,0.067011,0.051745,0.20246,0.64972,0.051096,0.0056225
1285,-0.10449,0.071234,0.0039985,0.16445,0.99953,-0.0096434,-0.03173
1286,-0.14509,0.066686,-0.046347,0.12515,1.1779,-0.057065,-0.067784
1287,-0.18244,0.044275,-0.086623,0.081952,1.0297,-0.087922,-0.088572
1288,-0.20225,0.014717,-0.10611,0.030957,0.58053,-0.10254,-0.088247
1289,-0.18049,-0.0021729,-0.10319,-0.025884,0.028034,-0.10806,-0.070382
1290,-0.09994,0.01764,-0.082725,-0.080451,-0.3718,-0.11358,-0.042449
1291,0.032906,0.08585,-0.052843,-0.1256,-0.44456,-0.1217,-0.015815
1292,0.17355,0.19369,-0.022311,-0.15093,-0.15841,-0.12463,0.0049729
1293,0.27521,0.31549,0.00010078,-0.15516,0.37103,-0.11943,0.017965
1294,0.31257,0.41585,0.012768,-0.14184,0.95309,-0.10579,0.024137
1295,0.29145,0.46815,0.020239,-0.11651,1.4286,-0.089546,0.021863
1296,0.23201,0.46068,0.024461,-0.079152,1.7294,-0.080127,0.010819
1297,0.15861,0.39831,0.024461,-0.026209,1.8642,-0.078503,-0.0050961
1298,0.090722,0.29795,0.020888,0.041351,1.8684,-0.0837,-0.019063
1299,0.03583,0.18232,0.021213,0.12125,1.7697,-0.091495,-0.028807
1300,-0.0093186,0.073182,0.026735,0.20148,1.5683,-0.095068,-0.034978
1301,-0.045372,-0.017764,0.030957,0.26579,1.2441,-0.096367,-0.038876
1302,-0.071032,-0.085324,0.029333,0.30315,0.8014,-0.10221,-0.038551
1303,-0.088572,-0.13177,0.020888,0.30899,0.30282,-0.1217,-0.035953
1304,-0.10449,-0.1597,0.0095202,0.28496,-0.14152,-0.14996,-0.035303
1305,-0.1282,-0.16847,0.0020496,0.24566,-0.44651,-0.17594,-0.038876
1306,-0.16003,-0.1597,0.0017248,0.20376,-0.59462,-0.18374,-0.047646
1307,-0.19543,-0.13567,0.0075714,0.16803,-0.60859,-0.16912,-0.056091
1308,-0.22726,-0.10124,0.016991,0.14107,-0.53811,-0.13047,-0.062262
1309,-0.25033,-0.066485,0.024461,0.12353,-0.42572,-0.073631,-0.063237
1310,-0.26527,-0.042449,0.026735,0.11281,-0.30002,-0.0057458,-0.061937
1311,-0.27176,-0.035628,0.02641,0.10436,-0.18049,0.062464,-0.061937
1312,-0.27176,-0.047646,0.022188,0.094295,-0.069083,0.11833,-0.059989
1313,-0.26884,-0.073631,0.014392,0.077405,0.063113,0.15828,-0.055116
1314,-0.26559,-0.10968,0.0039985,0.061489,0.27229,0.17907,-0.047971
1315,-0.26104,-0.15158,-0.0050961,0.047523,0.59742,0.18264,-0.044398
1316,-0.25455,-0.19251,-0.012567,0.037454,1.0005,0.18329,-0.044398
1317,-0.2461,-0.22824,-0.016789,0.027385,1.3825,0.19434,-0.044073
1318,-0.23961,-0.25682,-0.022636,0.016666,1.6271,0.22032,-0.041799
1319,-0.23668,-0.27501,-0.032055,0.0036737,1.6521,0.25637,-0.041475
1320,-0.23019,-0.28216,-0.044398,-0.012242,1.4445,0.28821,-0.045047
1321,-0.21525,-0.27306,-0.050894,-0.031406,1.0557,0.3012,-0.048945
1322,-0.18991,-0.2435,-0.046996,-0.052843,0.57566,0.28853,-0.049595
1323,-0.15581,-0.19511,-0.032705,-0.073955,0.10177,0.24728,-0.045372
1324,-0.11683,-0.13664,-0.01484,-0.090196,-0.28151,0.18589,-0.035303
1325,-0.078178,-0.080776,0.0014,-0.10059,-0.51634,0.11573,-0.022311
1326,-0.050569,-0.04115,0.011469,-0.10546,-0.61119,0.046548,-0.011267
1327,-0.0405,-0.027833,0.012768,-0.10676,-0.66121,-0.017764,-0.0073698
1328,-0.045372,-0.036927,0.0023744,-0.10156,-0.74631,-0.073955,-0.0060706
1329,-0.055766,-0.054467,-0.013216,-0.090196,-0.86356,-0.12203,-0.0057458
1330,-0.066485,-0.067134,-0.027833,-0.076229,-0.95711,-0.16295,-0.0063954
1331,-0.077203,-0.071682,-0.035303,-0.062587,-0.94769,-0.2055,-0.008669
1332,-0.09117,-0.072331,-0.034978,-0.052193,-0.77879,-0.24903,-0.014191
1333,-0.11651,-0.073306,-0.03238,-0.045372,-0.4595,-0.28508,-0.02361
1334,-0.15093,-0.080451,-0.028807,-0.04115,-0.069083,-0.30262,-0.03238
1335,-0.18471,-0.095717,-0.026533,-0.031406,0.28171,-0.28898,-0.036278
1336,-0.21232,-0.11586,-0.027508,-0.010293,0.49446,-0.24221,-0.032705
1337,-0.23116,-0.13372,-0.027508,0.021213,0.52531,-0.17172,-0.022311
1338,-0.24091,-0.14281,-0.020687,0.054668,0.37948,-0.094418,-0.0080194
1339,-0.2435,-0.13892,-0.0093186,0.080653,0.10436,-0.022961,0.010819
1340,-0.23538,-0.12625,0.0052977,0.092671,-0.22921,0.031282,0.031282
1341,-0.21265,-0.11163,0.01764,0.092346,-0.55045,0.063763,0.052395
1342,-0.16847,-0.10709,0.022837,0.080003,-0.83498,0.073182,0.071234
1343,-0.11001,-0.10903,0.017316,0.051096,-1.1387,0.054668,0.0865
1344,-0.051868,-0.10254,0.0014,-0.00087364,-1.5408,0.0014,0.092996
1345,-0.0031473,-0.069733,-0.020687,-0.072331,-2.0247,-0.0837,0.081627
1346,0.028684,-0.0034721,-0.042449,-0.14574,-2.4619,-0.18309,0.05272
1347,0.045899,0.088124,-0.051868,-0.19738,-2.6906,-0.27469,0.017965
1348,0.06084,0.18232,-0.047321,-0.21427,-2.626,-0.34062,-0.0080194
1349,0.082277,0.2567,-0.032705,-0.19803,-2.2885,-0.36823,-0.01484
1350,0.10826,0.29568,-0.015815,-0.16425,-1.7704,-0.35329,-0.0018481
1351,0.13197,0.29827,0.0017248,-0.12657,-1.1822,-0.30294,0.022837
1352,0.15341,0.27229,0.01829,-0.090196,-0.6232,-0.22597,0.055968
1353,0.17257,0.22292,0.031607,-0.060313,-0.17919,-0.1321,0.094295
1354,0.18427,0.15796,0.040702,-0.034978,0.097218,-0.036278,0.13165
1355,0.18751,0.089098,0.046548,-0.013866,0.19986,0.036804,0.15698
1356,0.18687,0.029009,0.048822,0.00010078,0.17842,0.074157,0.16348
1357,0.18849,-0.0099683,0.046873,0.0020496,0.12353,0.071558,0.14984
1358,0.19563,-0.02426,0.038428,-0.010618,0.131,0.037778,0.12353
1359,0.2057,-0.02361,0.022512,-0.037252,0.2593,-0.011267,0.091047
1360,0.20798,-0.022961,0.0020496,-0.073631,0.49868,-0.063886,0.057917
1361,0.18492,-0.030106,-0.013866,-0.10676,0.78516,-0.10644,0.028034
1362,0.14009,-0.042774,-0.02361,-0.12008,1.0343,-0.13112,0.010819
1363,0.092346,-0.052843,-0.030756,-0.10676,1.183,-0.13242,0.0059473
1364,0.058566,-0.053817,-0.038876,-0.07493,1.2126,-0.11293,0.010819
1365,0.04395,-0.046022,-0.046347,-0.042449,1.1489,-0.079477,0.01829
1366,0.042651,-0.031081,-0.050244,-0.018413,1.0583,-0.041475,0.021863
1367,0.053694,-0.0093186,-0.04927,0.008221,1.0012,-0.0076946,0.020564
1368,0.070909,0.018615,-0.041799,0.053369,0.99791,0.01829,0.015367
1369,0.090072,0.054019,-0.026533,0.12288,1.0463,0.038753,0.0095202
1370,0.10177,0.096893,-0.0041217,0.20408,1.1347,0.058566,0.0046481
1371,0.10696,0.13912,0.023812,0.27716,1.2438,0.0852,0.0078962
1372,0.11248,0.1729,0.054668,0.32556,1.3429,0.1206,0.020888
1373,0.12483,0.19239,0.082277,0.3431,1.3968,0.15861,0.038428
1374,0.14886,0.19628,0.097218,0.33173,1.3802,0.19531,0.049796
1375,0.18751,0.18459,0.092021,0.30152,1.287,0.22487,0.05272
1376,0.23624,0.15698,0.06896,0.25605,1.1321,0.24501,0.05272
1377,0.28463,0.11216,0.033556,0.20083,0.94334,0.25637,0.053369
1378,0.31679,0.056292,0.00042559,0.14172,0.72345,0.2593,0.054019
1379,0.32361,-0.00022403,-0.022636,0.083251,0.44021,0.25702,0.05272
1380,0.31159,-0.044723,-0.033679,0.028034,0.060515,0.2502,0.044924
1381,0.296,-0.072981,-0.0405,-0.029132,-0.40299,0.23559,0.029658
1382,0.28366,-0.09182,-0.049595,-0.084999,-0.87233,0.21155,0.009845
1383,0.27196,-0.10514,-0.064211,-0.13664,-1.2475,0.18102,-0.011592
1384,0.24988,-0.11553,-0.0837,-0.17984,-1.4537,0.14496,-0.03303
1385,0.20993,-0.11878,-0.10091,-0.2133,-1.4765,0.10501,-0.053492
1386,0.15179,-0.10871,-0.10644,-0.23376,-1.3644,0.070584,-0.072331
1387,0.082927,-0.076879,-0.10221,-0.23636,-1.179,0.053694,-0.084674
1388,0.013093,-0.025234,-0.090521,-0.22337,-0.95776,0.054344,-0.09117
1389,-0.048296,0.037778,-0.073955,-0.19576,-0.71935,0.068635,-0.090521
1390,-0.091495,0.10112,-0.049595,-0.15743,-0.47639,0.09397,-0.0837
1391,-0.10644,0.15276,-0.018088,-0.11196,-0.23993,0.12678,-0.075904
1392,-0.097666,0.18881,0.016666,-0.061288,-0.020687,0.15698,-0.067784
1393,-0.080451,0.21058,0.048497,-0.012892,0.17095,0.17615,-0.059989
1394,-0.071357,0.22032,0.070909,0.026735,0.32523,0.18394,-0.046671
1395,-0.084674,0.22194,0.084551,0.054019,0.44054,0.18069,-0.021012
1396,-0.12073,0.2161,0.090397,0.070259,0.51914,0.16705,0.01829
1397,-0.1714,0.20668,0.096569,0.078055,0.56039,0.14464,0.066686
1398,-0.22564,0.20051,0.10566,0.082602,0.5906,0.11313,0.11183
1399,-0.27274,0.19888,0.1206,0.087799,0.65004,0.074806,0.13587
1400,-0.31042,0.19628,0.13749,0.091047,0.74326,0.032906,0.13067
1401,-0.3299,0.18427,0.14659,0.078055,0.82121,-0.007045,0.099492
1402,-0.32178,0.15341,0.13847,0.037129,0.81082,-0.0405,0.058241
1403,-0.28118,0.099492,0.10794,-0.033679,0.65329,-0.071032,0.019914
1404,-0.22077,0.026085,0.058891,-0.12203,0.32328,-0.10189,-0.011917
1405,-0.15581,-0.071357,-0.0015233,-0.20713,-0.16653,-0.13437,-0.035953
1406,-0.10514,-0.18699,-0.060313,-0.26722,-0.77099,-0.16847,-0.047971
1407,-0.072656,-0.30132,-0.10481,-0.29645,-1.4216,-0.2029,-0.043423
1408,-0.045047,-0.38934,-0.12463,-0.29612,-2.0157,-0.23506,-0.026209
1409,-0.0037969,-0.4254,-0.11845,-0.26949,-2.4509,-0.25845,-0.0037969
1410,0.063763,-0.39681,-0.095068,-0.22726,-2.6666,-0.27371,0.019589
1411,0.14626,-0.30847,-0.065186,-0.17952,-2.6753,-0.28313,0.037129
1412,0.21155,-0.18894,-0.036927,-0.13015,-2.5389,-0.28995,0.046223
1413,0.22097,-0.076554,-0.020037,-0.077203,-2.3028,-0.30067,0.04395
1414,0.16218,0.0026992,-0.016464,-0.014191,-1.9491,-0.31431,0.032582
1415,0.054019,0.045899,-0.017114,0.070584,-1.4196,-0.32276,0.015692
1416,-0.061613,0.069934,-0.014191,0.18362,-0.69434,-0.31691,0.0014
1417,-0.13957,0.095594,-0.0015233,0.32198,0.12678,-0.28638,-0.00054884
1418,-0.1597,0.13749,0.02641,0.46133,0.85272,-0.23051,0.013093
1419,-0.12333,0.18654,0.065712,0.56527,1.3224,-0.16133,0.034206
1420,-0.055766,0.22194,0.10306,0.60099,1.4751,-0.095068,0.050771
1421,0.015042,0.23006,0.12353,0.56039,1.3575,-0.045697,0.054993
1422,0.071234,0.20376,0.1206,0.45873,1.0869,-0.017764,0.044924
1423,0.099817,0.15276,0.10566,0.33173,0.79101,-0.0073698,0.026085
1424,0.096569,0.098517,0.093645,0.21545,0.56039,-0.0047713,0.0069217
1425,0.072858,0.057917,0.087474,0.13425,0.43047,0.00042559,-0.0018481
1426,0.037778,0.03518,0.0852,0.091372,0.40124,0.0091954,-0.0067202
1427,-0.0093186,0.017316,0.081303,0.076431,0.4597,0.025111,-0.013866
1428,-0.062262,-0.0060706,0.071234,0.076755,0.56689,0.054019,-0.021012
1429,-0.10221,-0.040825,0.048822,0.080003,0.65946,0.09397,-0.02426
1430,-0.10124,-0.081101,0.012768,0.080653,0.67148,0.13457,-0.020687
1431,-0.05739,-0.11521,-0.023285,0.076755,0.57631,0.16803,-0.0080194
1432,-0.0021729,-0.13469,-0.043423,0.070909,0.41033,0.19401,0.0072465
1433,0.028684,-0.13989,-0.038551,0.058891,0.27067,0.2122,0.01829
1434,0.015692,-0.13664,-0.018413,0.042326,0.25572,0.21675,0.014392
1435,-0.030431,-0.12787,-0.00022403,0.023812,0.40643,0.20246,-0.0041217
1436,-0.077203,-0.11488,0.0072465,0.0046481,0.70331,0.16868,-0.026209
1437,-0.09117,-0.093769,0.0039985,-0.016464,1.069,0.12353,-0.039526
1438,-0.060638,-0.062262,-0.0037969,-0.04115,1.3455,0.072858,-0.039526
1439,-0.0011985,-0.019712,-0.012242,-0.070707,1.3425,0.021213,-0.032055
1440,0.057267,0.031282,-0.017439,-0.10026,1.0067,-0.025884,-0.019388
1441,0.097543,0.090397,-0.013866,-0.12495,0.49413,-0.063237,-0.007045
1442,0.13067,0.15796,-0.0047713,-0.14411,0.061489,-0.086948,-0.00022403
1443,0.18102,0.23396,0.0049729,-0.15646,-0.11196,-0.096367,-0.00054884
1444,0.25637,0.30802,0.016341,-0.16133,-0.020687,-0.093769,-0.0021729
1445,0.33303,0.36194,0.02706,-0.15613,0.19011,-0.079802,0.0033489
1446,0.38013,0.37655,0.032257,-0.14152,0.33043,-0.059339,0.017965
1447,0.3811,0.34797,0.029658,-0.11878,0.29015,-0.038227,0.035505
1448,0.34115,0.28658,0.020239,-0.088572,0.075131,-0.019063,0.048822
1449,0.27749,0.20993,0.0069217,-0.053168,-0.22174,-0.0041217,0.055643
1450,0.21058,0.14302,-0.0034721,-0.018413,-0.49588,0.012443,0.058891
1451,0.15244,0.095919,-0.0089938,0.013743,-0.67777,0.028684,0.060515
1452,0.10729,0.065062,-0.010618,0.037129,-0.75767,0.037454,0.059541
1453,0.073507,0.034855,-0.0096434,0.049796,-0.76644,0.039078,0.058241
1454,0.056617,0.0010752,-0.0083442,0.049472,-0.73461,0.03583,0.059216
1455,0.066686,-0.032055,-0.0073698,0.039078,-0.67225,0.032257,0.063438
1456,0.10794,-0.055116,-0.0067202,0.025111,-0.57124,0.030308,0.071234
1457,0.17127,-0.063561,-0.0041217,0.012119,-0.4163,0.030308,0.078055
1458,0.23364,-0.054792,0.0049729,0.0020496,-0.20518,0.030633,0.079354
1459,0.26807,-0.036927,0.015042,-0.0015233,0.038428,0.029009,0.070909
1460,0.25962,-0.021986,0.019914,-0.0031473,0.26125,0.021863,0.050121
1461,0.20311,-0.018738,0.015692,-0.007045,0.41715,0.0033489,0.020564
1462,0.10469,-0.034978,0.0043233,-0.018738,0.48796,-0.025559,-0.011592
1463,-0.018088,-0.069408,-0.0096434,-0.036927,0.48699,-0.053492,-0.045047
1464,-0.15093,-0.11358,-0.030431,-0.056741,0.45191,-0.070058,-0.072331
1465,-0.27826,-0.161,-0.057715,-0.076554,0.4256,-0.072006,-0.090845
1466,-0.39389,-0.20875,-0.084674,-0.096042,0.42722,-0.06681,-0.10514
1467,-0.49653,-0.25552,-0.10481,-0.11098,0.45581,-0.061937,-0.11943
1468,-0.58715,-0.29158,-0.11391,-0.11943,0.51525,-0.061613,-0.13177
1469,-0.65893,-0.30489,-0.11066,-0.1204,0.61431,-0.057715,-0.13729
1470,-0.70733,-0.29158,-0.095717,-0.11683,0.7543,-0.046022,-0.13794
1471,-0.72682,-0.25747,-0.075579,-0.10903,0.92125,-0.025884,-0.13015
1472,-0.71545,-0.2172,-0.054467,-0.096692,1.0837,-0.0011985,-0.11488
1473,-0.67875,-0.18309,-0.037252,-0.076879,1.2123,0.021863,-0.098965
1474,-0.6258,-0.16198,-0.028807,-0.045372,1.2909,0.041027,-0.084674
1475,-0.56312,-0.15288,-0.028157,-0.0083442,1.3023,0.054668,-0.071357
1476,-0.49133,-0.14704,-0.03173,0.029658,1.2155,0.063763,-0.060638
1477,-0.41338,-0.13859,-0.035953,0.056292,0.99336,0.061165,-0.054467
1478,-0.32893,-0.12527,-0.036602,0.070584,0.5971,0.043625,-0.054792
1479,-0.23701,-0.10806,-0.032705,0.074482,0.021863,0.013418,-0.059014
1480,-0.13762,-0.087597,-0.025559,0.072208,-0.64789,-0.020362,-0.060313
1481,-0.025884,-0.062587,-0.01484,0.065712,-1.2504,-0.049595,-0.060313
1482,0.10177,-0.028807,-0.0054209,0.055318,-1.6093,-0.068758,-0.062587
1483,0.23656,0.014068,-0.00022403,0.039078,-1.6291,-0.073631,-0.068434
1484,0.35187,0.058241,-0.0044465,0.021538,-1.2965,-0.063237,-0.069408
1485,0.42397,0.092671,-0.016464,0.013743,-0.65016,-0.035953,-0.05804
1486,0.44216,0.11151,-0.028807,0.019589,0.20408,0.015042,-0.031081
1487,0.40579,0.11378,-0.03173,0.039727,1.082,0.090072,0.0088706
1488,0.32588,0.10144,-0.024909,0.067661,1.7869,0.18134,0.054344
1489,0.22422,0.079679,-0.011267,0.092346,2.175,0.26774,0.088124
1490,0.13002,0.050771,0.0036737,0.10859,2.19,0.32751,0.10144
1491,0.074806,0.01829,0.013418,0.11671,1.857,0.34797,0.096244
1492,0.070584,-0.012242,0.018615,0.11638,1.2353,0.32913,0.07773
1493,0.11248,-0.03303,0.020239,0.11248,0.39604,0.28106,0.055318
1494,0.19206,-0.029782,0.022512,0.10501,-0.56019,0.22487,0.040702
1495,0.30055,0.0043233,0.024137,0.093321,-1.5382,0.17939,0.043625
1496,0.42268,0.065387,0.029983,0.070259,-2.4951,0.13847,0.062139
1497,0.53181,0.14074,0.03518,0.030633,-3.3724,0.076431,0.081952
1498,0.59222,0.21577,0.041351,-0.023935,-4.0473,-0.025559,0.086175
1499,0.57533,0.27294,0.046548,-0.086298,-4.3384,-0.16685,0.069934
1500,0.47335,0.29145,0.048497,-0.14476,-4.1357,-0.31659,0.043625
1501,0.30607,0.2593,0.042975,-0.18114,-3.5094,-0.44359,0.021863
1502,0.11118,0.18362,0.033556,-0.18082,-2.6325,-0.52219,0.014392
1503,-0.070382,0.0852,0.023812,-0.14184,-1.6658,-0.54005,0.019264
1504,-0.2029,-0.0067202,0.015692,-0.077203,-0.73819,-0.5001,0.032906
1505,-0.27241,-0.070058,0.013743,-0.008669,0.029658,-0.41208,0.048497
1506,-0.28281,-0.097991,0.021863,0.049147,0.52661,-0.30165,0.060515
1507,-0.24903,-0.098965,0.036479,0.095269,0.69746,-0.19771,0.064737
1508,-0.18374,-0.0824,0.049796,0.13132,0.56202,-0.12008,0.065062
1509,-0.092469,-0.057715,0.054993,0.15698,0.21967,-0.068434,0.067986
1510,0.016341,-0.027508,0.051745,0.1703,-0.18536,-0.038876,0.078055
1511,0.13132,0.0020496,0.042326,0.16673,-0.52674,-0.022961,0.090722
1512,0.24078,0.029983,0.02706,0.15114,-0.73851,-0.020687,0.10209
1513,0.33952,0.055968,0.011469,0.12678,-0.81582,-0.032705,0.10761
1514,0.4217,0.083251,0.00075039,0.098842,-0.81354,-0.058689,0.10664
1515,0.47952,0.11508,-0.0034721,0.065387,-0.8457,-0.095717,0.098842
1516,0.49868,0.14854,-0.0024977,0.026735,-1.0088,-0.14184,0.087474
1517,0.4649,0.17452,0.0023744,-0.014191,-1.2433,-0.19998,0.071234
1518,0.37201,0.18589,0.0069217,-0.046671,-1.3352,-0.26332,0.049472
1519,0.22747,0.1742,0.012768,-0.070058,-1.0357,-0.31561,0.021538
1520,0.055318,0.14042,0.017965,-0.084349,-0.24415,-0.33478,-0.0054209
1521,-0.10709,0.090072,0.019589,-0.085648,0.85597,-0.30035,-0.030431
1522,-0.22954,0.039402,0.016666,-0.072656,1.8804,-0.20713,-0.050244
1523,-0.2984,0.00042559,0.013418,-0.050894,2.5443,-0.063561,-0.062587
1524,-0.32308,-0.019063,0.011794,-0.03238,2.7392,0.10112,-0.062912
1525,-0.32568,-0.017114,0.014717,-0.027508,2.5365,0.25345,-0.053817
1526,-0.32438,0.0014,0.022188,-0.038551,2.1234,0.36389,-0.043099
1527,-0.32568,0.029983,0.029009,-0.062587,1.7014,0.41683,-0.04115
1528,-0.32438,0.055643,0.028359,-0.090845,1.4114,0.4204,-0.050894
1529,-0.31009,0.06831,0.016666,-0.11488,1.2948,0.39896,-0.06616
1530,-0.27566,0.058891,-0.0011985,-0.1256,1.3045,0.37948,-0.077853
1531,-0.22272,0.032906,-0.017764,-0.11715,1.3675,0.37818,-0.077528
1532,-0.16068,0.0014,-0.026533,-0.086948,1.4257,0.39312,-0.061937
1533,-0.10189,-0.022961,-0.027508,-0.048296,1.4504,0.41261,-0.035953
1534,-0.056091,-0.036602,-0.022636,-0.013866,1.438,0.4243,-0.0099683
1535,-0.032705,-0.040175,-0.014191,0.0075714,1.3903,0.4191,0.010495
1536,-0.029457,-0.032705,-0.0073698,0.01764,1.2834,0.39214,0.01829
1537,-0.03303,-0.016464,-0.0018481,0.018615,1.0707,0.33823,0.013093
1538,-0.030756,0.0026992,0.003024,0.013093,0.71143,0.25962,-0.0037969
1539,-0.019712,0.018615,0.0056225,0.0056225,0.21188,0.16445,-0.025234
1540,-0.0044465,0.029009,0.0059473,0.00042559,-0.35621,0.06019,-0.044723
1541,0.016341,0.034855,0.0075714,0.0010752,-0.89377,-0.040175,-0.055116
1542,0.0433,0.039078,0.012768,0.0059473,-1.3186,-0.12398,-0.053168
1543,0.073507,0.044924,0.014068,0.010495,-1.5661,-0.18147,-0.040825
1544,0.10047,0.051096,0.0075714,0.013418,-1.5863,-0.20485,-0.02361
1545,0.1206,0.05272,-0.0063954,0.011794,-1.3693,-0.19446,-0.0089938
1546,0.13002,0.04395,-0.021661,0.0072465,-0.96912,-0.15808,-0.0018481
1547,0.1258,0.02706,-0.034654,0.0049729,-0.48549,-0.10936,-0.0015233
1548,0.11183,0.011144,-0.041799,0.01017,-0.028157,-0.060963,-0.0050961
1549,0.093321,0.008221,-0.045047,0.025436,0.31906,-0.018413,-0.010943
1550,0.073182,0.023162,-0.041475,0.047523,0.52889,0.014717,-0.015815
1551,0.061165,0.042326,-0.037577,0.067661,0.62048,0.042001,-0.015165
1552,0.058566,0.053694,-0.034329,0.07708,0.63185,0.06831,-0.0080194
1553,0.06019,0.06019,-0.029782,0.081303,0.59612,0.094945,0.0072465
1554,0.064413,0.073507,-0.013541,0.093645,0.53051,0.12483,0.029983
1555,0.077405,0.10631,0.01764,0.11703,0.43664,0.15601,0.057267
1556,0.10306,0.15633,0.056617,0.13749,0.30737,0.17972,0.083251
1557,0.13587,0.20603,0.090722,0.1297,0.13555,0.19011,0.098842
1558,0.15406,0.23591,0.11118,0.078379,-0.093444,0.17615,0.091047
1559,0.14334,0.24208,0.12158,-0.01549,-0.39649,0.13912,0.06019
1560,0.10761,0.22844,0.1271,-0.13632,-0.76287,0.082927,0.016666
1561,0.059865,0.19921,0.1297,-0.25552,-1.1319,0.015367,-0.027508
1562,0.003024,0.15276,0.12483,-0.35199,-1.4089,-0.057065,-0.066485
1563,-0.062912,0.086175,0.10306,-0.41793,-1.5206,-0.13307,-0.098316
1564,-0.12625,-0.0050961,0.054993,-0.45333,-1.4515,-0.21395,-0.12463
1565,-0.1727,-0.12885,-0.021012,-0.46535,-1.2394,-0.29223,-0.14152
1566,-0.18796,-0.27761,-0.11553,-0.45203,-0.95223,-0.35199,-0.13469
1567,-0.1623,-0.4176,-0.20225,-0.39259,-0.66251,-0.36888,-0.093444
1568,-0.092145,-0.50043,-0.24805,-0.2591,-0.41305,-0.32666,-0.020687
1569,0.0075714,-0.50075,-0.23863,-0.03303,-0.212,-0.23538,0.067011
1570,0.10729,-0.42832,-0.18666,0.27229,-0.055116,-0.12138,0.14691
1571,0.18069,-0.31561,-0.11521,0.60035,0.057917,-0.024585,0.19596
1572,0.2096,-0.19868,-0.050569,0.86929,0.13652,0.033881,0.20343
1573,0.18394,-0.097666,-0.011917,1.0161,0.19239,0.050771,0.1755
1574,0.11476,-0.017439,-0.00054884,1.0184,0.24013,0.038103,0.12937
1575,0.021213,0.041027,-0.0050961,0.90112,0.29113,0.0091954,0.085525
1576,-0.079152,0.070909,-0.010943,0.71825,0.35576,-0.022311,0.061165
1577,-0.17757,0.066362,-0.013866,0.52337,0.43729,-0.044073,0.062789
1578,-0.25942,0.034855,-0.012892,0.35349,0.53116,-0.046996,0.0852
1579,-0.31301,-0.0028225,-0.0073698,0.22747,0.63802,-0.030756,0.11995
1580,-0.32925,-0.023935,0.0036737,0.15016,0.7569,-0.0057458,0.15503
1581,-0.31561,-0.022636,0.021213,0.11313,0.8839,0.020564,0.18102
1582,-0.29125,-0.0099683,0.042326,0.10014,1.0086,0.040702,0.18946
1583,-0.27176,0.00042559,0.057592,0.092996,1.1171,0.05142,0.18167
1584,-0.25942,0.00075039,0.061165,0.081303,1.1818,0.052395,0.16121
1585,-0.24968,-0.0063954,0.053369,0.06019,1.1691,0.043625,0.13522
1586,-0.24253,-0.016464,0.039402,0.029658,1.0733,0.02641,0.10631
1587,-0.24545,-0.02361,0.025111,-0.0034721,0.91281,0.0049729,0.075456
1588,-0.25455,-0.019712,0.016991,-0.028807,0.72312,-0.011917,0.049796
1589,-0.25357,-0.0021729,0.022512,-0.041799,0.52726,-0.019063,0.035505
1590,-0.22759,0.024137,0.038103,-0.044723,0.32328,-0.017439,0.032257
1591,-0.17789,0.049472,0.056617,-0.040175,0.096244,-0.014516,0.034855
1592,-0.11326,0.064088,0.06961,-0.034978,-0.14834,-0.014191,0.037129
1593,-0.048945,0.062139,0.071558,-0.037577,-0.38545,-0.016464,0.03453
1594,0.0043233,0.046873,0.064413,-0.046671,-0.59202,-0.020687,0.028034
1595,0.042975,0.019589,0.051096,-0.060313,-0.75832,-0.026209,0.021863
1596,0.064737,-0.018738,0.032257,-0.072331,-0.90319,-0.036602,0.016341
1597,0.070909,-0.062912,0.011144,-0.081101,-1.0545,-0.050569,0.010495
1598,0.062789,-0.092145,-0.0034721,-0.085973,-1.2075,-0.061613,0.0052977
1599,0.039078,-0.088572,-0.0024977,-0.086623,-1.3157,-0.064211,0.00075039
1600,-0.00087364,-0.052518,0.019589,-0.084024,-1.3251,-0.059989,-0.0041217
1601,-0.046671,-0.0028225,0.053369,-0.079152,-1.2098,-0.052518,-0.008669
1602,-0.079152,0.040052,0.084551,-0.075904,-0.99056,-0.047321,-0.015165
1603,-0.075255,0.065387,0.10209,-0.076554,-0.72,-0.046022,-0.02361
1604,-0.038876,0.071234,0.097868,-0.078178,-0.45171,-0.042774,-0.034329
1605,0.01017,0.056617,0.072533,-0.079152,-0.22304,-0.037902,-0.047646
1606,0.047198,0.022188,0.027709,-0.088572,-0.061937,-0.033354,-0.064861
1607,0.061814,-0.024909,-0.026209,-0.11131,0.019264,-0.033354,-0.089546
1608,0.065387,-0.066485,-0.072006,-0.14931,0.023162,-0.039526,-0.11845
1609,0.081952,-0.078503,-0.095393,-0.19219,-0.023935,-0.04927,-0.13794
1610,0.13749,-0.047971,-0.091495,-0.22661,-0.081426,-0.052193,-0.13599
1611,0.24208,0.019589,-0.070058,-0.23993,-0.11131,-0.0405,-0.10611
1612,0.3733,0.099492,-0.039851,-0.22856,-0.090196,-0.011592,-0.053817
1613,0.48894,0.15893,-0.010618,-0.20063,-0.032705,0.026085,0.0039985
1614,0.54968,0.17939,0.0085458,-0.17107,0.030633,0.059216,0.048172
1615,0.53538,0.15698,0.014392,-0.14866,0.076755,0.076431,0.066362
1616,0.44509,0.10891,0.0091954,-0.13567,0.10144,0.074806,0.062464
1617,0.3012,0.063438,0.0023744,-0.12982,0.1232,0.054993,0.048497
1618,0.14107,0.047198,0.0026992,-0.12235,0.17127,0.024461,0.033231
1619,0.011794,0.069934,0.012443,-0.11033,0.26255,-0.013541,0.021538
1620,-0.051219,0.11768,0.029009,-0.090521,0.39637,-0.053817,0.010819
1621,-0.042124,0.1638,0.044924,-0.06616,0.56202,-0.088896,0.0014
1622,0.022837,0.18589,0.055643,-0.040825,0.73222,-0.11293,-0.0031473
1623,0.10501,0.18037,0.061489,-0.018738,0.86279,-0.1204,-0.0037969
1624,0.16705,0.15633,0.062789,-0.0067202,0.91443,-0.11326,-0.0037969
1625,0.18784,0.12613,0.058566,-0.0096434,0.87221,-0.098965,-0.0041217
1626,0.16835,0.099167,0.050446,-0.019063,0.7582,-0.079477,-0.0057458
1627,0.13067,0.075456,0.040052,-0.019388,0.61594,-0.054467,-0.0050961
1628,0.092671,0.054668,0.030633,-0.0060706,0.49576,-0.024585,-0.0021729
1629,0.063113,0.03583,0.026735,0.016016,0.42755,0.0033489,-0.0018481
1630,0.045249,0.020564,0.028684,0.040377,0.40741,0.026085,-0.007045
1631,0.037129,0.011794,0.034206,0.060515,0.41326,0.037129,-0.01614
1632,0.037129,0.0072465,0.032582,0.067336,0.4165,0.033881,-0.024909
1633,0.040052,0.0036737,0.018615,0.057267,0.385,0.016016,-0.030756
1634,0.040052,-0.00087364,-0.0037969,0.034855,0.27294,-0.013866,-0.036278
1635,0.030633,-0.0054209,-0.025884,0.01017,0.044599,-0.04992,-0.046996
1636,0.0065969,-0.013216,-0.044723,-0.010293,-0.27923,-0.087597,-0.063561
1637,-0.030431,-0.026533,-0.053817,-0.023935,-0.62158,-0.12268,-0.076879
1638,-0.077853,-0.045697,-0.056091,-0.030106,-0.88532,-0.14704,-0.0837
1639,-0.12885,-0.069408,-0.051544,-0.03238,-1.0133,-0.15841,-0.080451
1640,-0.16912,-0.09182,-0.042774,-0.036278,-1.0113,-0.15776,-0.067784
1641,-0.18991,-0.11131,-0.034004,-0.048945,-0.91196,-0.14996,-0.054792
1642,-0.18699,-0.12138,-0.029782,-0.069733,-0.75638,-0.13892,-0.052518
1643,-0.16425,-0.11521,-0.032705,-0.091495,-0.5943,-0.12885,-0.062587
1644,-0.12755,-0.085648,-0.039526,-0.10286,-0.47022,-0.1204,-0.080776
1645,-0.081751,-0.036602,-0.046671,-0.097666,-0.39681,-0.10968,-0.09994
1646,-0.035303,0.021538,-0.051544,-0.077528,-0.35134,-0.092145,-0.11553
1647,0.0078962,0.072858,-0.055766,-0.051544,-0.30262,-0.066485,-0.12235
1648,0.045899,0.11248,-0.060963,-0.028157,-0.22532,-0.034329,-0.1191
1649,0.078704,0.14594,-0.061613,-0.011592,-0.12073,0.00042559,-0.10709
1650,0.10989,0.17907,-0.055116,0.0020496,-0.011592,0.031607,-0.090196
1651,0.13782,0.21025,-0.038551,0.016341,0.074482,0.056292,-0.068109
1652,0.15828,0.23364,-0.013866,0.03518,0.11216,0.073182,-0.041475
1653,0.16315,0.24143,0.015042,0.060515,0.0852,0.083251,-0.011917
1654,0.15016,0.23104,0.042651,0.088124,-0.008669,0.089748,0.01764
1655,0.11703,0.19921,0.059865,0.10761,-0.15386,0.097543,0.041027
1656,0.058241,0.14561,0.061814,0.11476,-0.31496,0.10826,0.051096
1657,-0.023935,0.06961,0.048497,0.10826,-0.4543,0.12093,0.047523
1658,-0.1204,-0.026858,0.025111,0.092346,-0.54915,0.13457,0.036804
1659,-0.21914,-0.13177,0.00010078,0.070584,-0.59137,0.14399,0.024786
1660,-0.30652,-0.22856,-0.018088,0.048822,-0.58033,0.14561,0.012768
1661,-0.36726,-0.30229,-0.028482,0.030957,-0.51569,0.1362,-0.00022403
1662,-0.38804,-0.34647,-0.039851,0.011794,-0.39681,0.11086,-0.012892
1663,-0.36466,-0.36726,-0.058365,-0.010943,-0.23311,0.071234,-0.020687
1664,-0.2984,-0.36888,-0.082076,-0.033354,-0.039851,0.026085,-0.021337
1665,-0.19706,-0.35329,-0.10156,-0.046671,0.15211,-0.008669,-0.018088
1666,-0.064536,-0.31756,-0.11033,-0.045697,0.31029,-0.021012,-0.013866
1667,0.082602,-0.26169,-0.10514,-0.030431,0.41228,-0.010293,-0.0083442
1668,0.2161,-0.18861,-0.083375,-0.0076946,0.45483,0.01894,0.0017248
1669,0.30542,-0.10903,-0.048945,0.018615,0.45093,0.056617,0.020564
1670,0.33335,-0.035628,-0.010618,0.044924,0.4178,0.092021,0.044924
1671,0.30964,0.020564,0.022188,0.068635,0.38013,0.11898,0.066362
1672,0.25897,0.059216,0.04395,0.086824,0.37233,0.1349,0.080978
1673,0.2083,0.083576,0.052395,0.099817,0.42203,0.13749,0.0865
1674,0.1677,0.09462,0.05272,0.10859,0.52304,0.13295,0.0865
1675,0.13587,0.096569,0.052395,0.10924,0.59093,0.12093,0.079679
1676,0.10306,0.092671,0.05142,0.099817,0.51135,0.10242,0.063438
1677,0.061814,0.079029,0.047198,0.080328,0.26514,0.072208,0.03518
1678,0.0072465,0.053694,0.039402,0.056942,-0.03238,0.030633,-0.0021729
1679,-0.05739,0.020239,0.032257,0.036479,-0.21232,-0.015815,-0.038876
1680,-0.12008,-0.012892,0.02641,0.024461,-0.1701,-0.05804,-0.066485
1681,-0.1662,-0.041475,0.020564,0.025111,0.073507,-0.082725,-0.078178
1682,-0.18666,-0.064211,0.012119,0.037129,0.39929,-0.085324,-0.07428
1683,-0.18569,-0.080127,-0.00022403,0.054344,0.67797,-0.068109,-0.059339
1684,-0.17562,-0.081751,-0.0089938,0.072208,0.82089,-0.040175,-0.039201
1685,-0.17172,-0.064211,-0.0093186,0.0852,0.81407,-0.01484,-0.016789
1686,-0.18114,-0.021337,0.00042559,0.089423,0.70591,0.0020496,0.0036737
1687,-0.19868,0.03583,0.01894,0.086824,0.55877,0.013093,0.014717
1688,-0.21167,0.087149,0.042326,0.079679,0.39409,0.021213,0.013743
1689,-0.21167,0.11508,0.059865,0.071558,0.18622,0.023162,0.0065969
1690,-0.18991,0.11021,0.063763,0.064737,-0.086623,0.016016,0.0014
1691,-0.15126,0.080328,0.048822,0.054993,-0.40396,-0.0021729,0.0036737
1692,-0.10806,0.044924,0.016341,0.038753,-0.70376,-0.022961,0.016666
1693,-0.070058,0.013418,-0.028807,0.015692,-0.90741,-0.034329,0.037129
1694,-0.04115,-0.0047713,-0.076554,-0.013216,-0.96068,-0.03238,0.058566
1695,-0.011592,-0.0047713,-0.11586,-0.042774,-0.85349,-0.018413,0.078055
1696,0.026735,0.020564,-0.13567,-0.065835,-0.62873,0.0023744,0.088773
1697,0.079029,0.06896,-0.1282,-0.069408,-0.33932,0.029333,0.091047
1698,0.14269,0.12353,-0.093769,-0.046671,-0.011917,0.065062,0.087799
1699,0.20083,0.16315,-0.042124,-0.0044465,0.33205,0.10794,0.0852
1700,0.22389,0.17127,0.010495,0.047523,0.65686,0.15406,0.088124
1701,0.19531,0.14821,0.050121,0.092671,0.90177,0.19369,0.098842
1702,0.13197,0.10696,0.071234,0.11898,0.99694,0.21837,0.11573
1703,0.071883,0.066686,0.075781,0.12678,0.87741,0.21967,0.13197
1704,0.041676,0.039727,0.06961,0.11833,0.53571,0.19661,0.13684
1705,0.042326,0.029333,0.058891,0.10274,0.050121,0.15601,0.13035
1706,0.061489,0.034855,0.049796,0.085525,-0.42702,0.10631,0.11801
1707,0.087474,0.044275,0.046223,0.069285,-0.75345,0.053044,0.10436
1708,0.11054,0.046873,0.047198,0.054019,-0.86291,-0.0018481,0.092021
1709,0.11963,0.039727,0.042975,0.041351,-0.73689,-0.052193,0.079354
1710,0.11054,0.029658,0.032582,0.03518,-0.39194,-0.089221,0.070259
1711,0.0865,0.023812,0.019914,0.039078,0.10144,-0.095393,0.062789
1712,0.057267,0.025111,0.011794,0.053044,0.60522,-0.06681,0.058566
1713,0.033231,0.028684,0.0088706,0.067661,0.94627,-0.0080194,0.061165
1714,0.022512,0.032582,0.0043233,0.06831,0.99369,0.065712,0.071234
1715,0.023162,0.03583,-0.0073698,0.045899,0.69486,0.13132,0.088448
1716,0.030633,0.038103,-0.021337,0.0069217,0.090722,0.16835,0.10339
1717,0.041351,0.037778,-0.036602,-0.030106,-0.68492,0.16413,0.10729
1718,0.051096,0.034855,-0.048296,-0.054467,-1.444,0.12125,0.095919
1719,0.056617,0.023162,-0.051544,-0.071032,-2.0179,0.047523,0.072208
1720,0.055318,0.0036737,-0.046022,-0.086298,-2.3122,-0.045372,0.041027
1721,0.050121,-0.019063,-0.034329,-0.10091,-2.3379,-0.13989,0.012443
1722,0.047198,-0.034654,-0.018088,-0.11163,-2.2271,-0.22142,-0.0060706
1723,0.048497,-0.037252,0.00042559,-0.11228,-2.1157,-0.2906,-0.014191
1724,0.056942,-0.025559,0.01829,-0.10449,-2.0049,-0.34712,-0.017439
1725,0.063113,-0.0063954,0.030957,-0.090196,-1.7876,-0.40071,-0.021986
1726,0.064413,0.014717,0.036154,-0.071682,-1.3722,-0.44748,-0.032705
1727,0.059865,0.030957,0.03518,-0.048945,-0.77456,-0.47477,-0.050569
1728,0.048822,0.038753,0.032257,-0.022636,-0.11715,-0.46535,-0.06681
1729,0.024461,0.037778,0.029009,0.0036737,0.43794,-0.41208,-0.070707
1730,-0.01549,0.030957,0.026085,0.021213,0.77184,-0.32406,-0.06551
1731,-0.068758,0.013093,0.022512,0.024461,0.86604,-0.22174,-0.05739
1732,-0.1269,-0.013541,0.016666,0.015367,0.78321,-0.12463,-0.051868
1733,-0.17887,-0.046022,0.01017,0.0020496,0.62341,-0.042774,-0.049595
1734,-0.20875,-0.071682,0.0046481,-0.0073698,0.48082,0.016016,-0.053492
1735,-0.20843,-0.080127,0.0023744,-0.0096434,0.40741,0.048822,-0.059339
1736,-0.18764,-0.068758,0.003024,-0.0063954,0.40514,0.055318,-0.064861
1737,-0.1649,-0.0405,0.0085458,-0.0028225,0.44574,0.041027,-0.065835
1738,-0.15516,-0.0031473,0.015367,-0.010618,0.49478,0.01894,-0.062262
1739,-0.1649,0.032906,0.019264,-0.0405,0.52596,-0.0028225,-0.057065
1740,-0.19056,0.055968,0.015692,-0.086623,0.53214,-0.019063,-0.053817
1741,-0.21849,0.060515,0.0091954,-0.12365,0.53408,-0.026858,-0.052518
1742,-0.23733,0.048172,0.0091954,-0.11845,0.57274,-0.023935,-0.048296
1743,-0.24091,0.021538,0.020239,-0.051219,0.68739,-0.016789,-0.041799
1744,-0.23084,-0.019063,0.033556,0.066037,0.893,-0.010293,-0.038227
1745,-0.20323,-0.064211,0.041027,0.19369,1.1545,-0.0057458,-0.043099
1746,-0.15418,-0.10514,0.039078,0.29308,1.402,-0.00087364,-0.057715
1747,-0.079152,-0.13502,0.028684,0.33952,1.5559,0.01017,-0.071682
1748,0.012768,-0.15126,0.015692,0.33498,1.5679,0.027709,-0.076879
1749,0.097868,-0.15678,0.0036737,0.29275,1.4403,0.048822,-0.074605
1750,0.16088,-0.15776,-0.0076946,0.23071,1.2181,0.072208,-0.065835
1751,0.20603,-0.15353,-0.01614,0.1625,0.9703,0.095594,-0.047646
1752,0.24436,-0.14541,-0.020687,0.097543,0.75885,0.12223,-0.015165
1753,0.27359,-0.13599,-0.021986,0.044924,0.61951,0.15146,0.027709
1754,0.28106,-0.12625,-0.021012,0.0091954,0.54773,0.18102,0.072208
1755,0.25832,-0.11651,-0.019063,-0.010943,0.5146,0.20116,0.10404
1756,0.2148,-0.10221,-0.012892,-0.019388,0.48309,0.2044,0.11183
1757,0.16933,-0.078503,-0.0015233,-0.022961,0.423,0.18654,0.09397
1758,0.13847,-0.041799,0.013093,-0.023935,0.33205,0.14951,0.058566
1759,0.12288,0.0052977,0.029333,-0.019712,0.24403,0.10729,0.024786
1760,0.11281,0.051096,0.045574,-0.01484,0.2044,0.074482,0.0039985
1761,0.091696,0.090072,0.057592,-0.014516,0.22844,0.061814,0.0010752
1762,0.050446,0.11931,0.063438,-0.019063,0.28528,0.065387,0.012768
1763,-0.010293,0.14626,0.069285,-0.02361,0.33238,0.078055,0.032906
1764,-0.080127,0.1781,0.079354,-0.01549,0.33563,0.087474,0.054668
1765,-0.14054,0.21285,0.094945,0.0026992,0.29145,0.085525,0.070909
1766,-0.17075,0.24436,0.10826,0.025436,0.2148,0.074806,0.077405
1767,-0.16295,0.26157,0.11216,0.044924,0.12743,0.065712,0.071558
1768,-0.11715,0.25702,0.10079,0.053694,0.048822,0.065062,0.058891
1769,-0.053168,0.22552,0.071883,0.050121,-0.010943,0.070259,0.051745
1770,0.012443,0.17225,0.030633,0.037454,-0.04927,0.077405,0.054668
1771,0.067011,0.10761,-0.011267,0.01764,-0.071682,0.082602,0.063438
1772,0.10664,0.044924,-0.04115,-0.0057458,-0.087272,0.083576,0.073507
1773,0.1284,-0.0024977,-0.056416,-0.025234,-0.10741,0.07708,0.079679
1774,0.12645,-0.026858,-0.057715,-0.033679,-0.13827,0.065062,0.074806
1775,0.10112,-0.024909,-0.04927,-0.026533,-0.17659,0.048497,0.059216
1776,0.06084,-0.0031473,-0.038227,-0.011592,-0.21849,0.031932,0.037778
1777,0.019589,0.028034,-0.029782,0.0039985,-0.25357,0.019589,0.014068
1778,-0.011267,0.059865,-0.025234,0.012768,-0.27111,0.014392,-0.0057458
1779,-0.027183,0.084551,-0.022311,0.013418,-0.27436,0.012119,-0.019712
1780,-0.030431,0.098842,-0.022636,0.010495,-0.26851,0.01017,-0.030756
1781,-0.030756,0.10436,-0.024585,0.0052977,-0.26234,0.0049729,-0.043423
1782,-0.035303,0.10306,-0.025884,-0.0031473,-0.26527,-0.0015233,-0.058365
1783,-0.047321,0.095269,-0.02361,-0.012892,-0.27599,-0.0050961,-0.072656
1784,-0.063237,0.083901,-0.013541,-0.020687,-0.2893,-0.0028225,-0.081751
1785,-0.079152,0.070909,0.0026992,-0.025559,-0.2958,0.0036737,-0.079152
1786,-0.092145,0.055643,0.020239,-0.025884,-0.2932,0.010819,-0.062912
1787,-0.097341,0.036154,0.032257,-0.018413,-0.28768,0.01764,-0.038227
1788,-0.090521,0.016991,0.029983,-0.0060706,-0.28183,0.022837,-0.011592
1789,-0.068434,0.0017248,0.015042,0.0052977,-0.27988,0.023812,0.0078962
1790,-0.027183,-0.0031473,-0.00054884,0.0095202,-0.28638,0.019589,0.015692
1791,0.027709,0.00010078,-0.011917,0.0043233,-0.30782,0.012119,0.015367
1792,0.085525,0.0052977,-0.018413,-0.0057458,-0.34452,0.0059473,0.0069217
1793,0.13587,0.0088706,-0.018413,-0.01614,-0.38772,-0.00087364,-0.00054884
1794,0.16575,0.016016,-0.0089938,-0.023935,-0.42085,-0.011917,-0.0037969
1795,0.18167,0.036479,0.0078962,-0.030756,-0.43677,-0.02426,-0.0047713
1796,0.19044,0.071883,0.021213,-0.036278,-0.43774,-0.037902,-0.007045
1797,0.20246,0.11476,0.023812,-0.039526,-0.42897,-0.055441,-0.011592
1798,0.22162,0.15406,0.021863,-0.039851,-0.40786,-0.079477,-0.016464
