,channel_1,channel_2,channel_3,channel_4,channel_5,channel_6,channel_7
0,0.050446,0.016016,-0.047971,0.021538,0.11931,0.069934,0.079679
1,0.055643,0.016666,-0.10351,0.020564,0.12158,0.074157,0.071883
2,0.057917,0.012768,-0.16782,0.015692,0.13132,0.082927,0.059865
3,0.058891,0.0014,-0.24123,0.01017,0.1297,0.089098,0.05207
4,0.055968,-0.01484,-0.32178,0.0085458,0.10242,0.080653,0.051096
5,0.049147,-0.031406,-0.39876,0.0062721,0.059216,0.055318,0.053369
6,0.042651,-0.044073,-0.46048,0.00042559,0.023812,0.021213,0.057267
7,0.03518,-0.052518,-0.50692,-0.0089938,0.016991,-0.0080194,0.062464
8,0.029009,-0.059989,-0.55272,-0.021661,0.043625,-0.025234,0.064737
9,0.025436,-0.069408,-0.61346,-0.037252,0.095269,-0.038227,0.062789
10,0.021863,-0.080451,-0.67582,-0.050244,0.16835,-0.05804,0.057592
11,0.021213,-0.085648,-0.70993,-0.054142,0.2606,-0.090521,0.049472
12,0.019914,-0.080451,-0.69012,-0.043423,0.35739,-0.12755,0.041027
13,0.016666,-0.059989,-0.61703,-0.02426,0.41456,-0.15678,0.032906
14,0.013743,-0.022636,-0.50985,-0.0037969,0.37363,-0.17107,0.026735
15,0.013743,0.032582,-0.38934,0.015042,0.18427,-0.17302,0.024461
16,0.016666,0.10371,-0.2552,0.033231,-0.14931,-0.17237,0.025436
17,0.018615,0.17387,-0.070382,0.050121,-0.555,-0.17757,0.026735
18,0.01764,0.22487,0.19206,0.062139,-0.93047,-0.18894,0.025761
19,0.015692,0.24695,0.50355,0.066362,-1.1958,-0.20355,0.022188
20,0.012768,0.24143,0.79426,0.062789,-1.3092,-0.21395,0.015367
21,0.010819,0.2148,0.99823,0.055968,-1.2712,-0.21135,0.0072465
22,0.013418,0.17517,1.0817,0.048172,-1.1215,-0.19251,-0.0011985
23,0.024786,0.12385,1.0593,0.042975,-0.91456,-0.16133,-0.0060706
24,0.042326,0.056942,0.98102,0.038103,-0.69466,-0.12333,-0.007045
25,0.054993,-0.02361,0.90696,0.032257,-0.50205,-0.085324,-0.0024977
26,0.055968,-0.10351,0.88877,0.021863,-0.35004,-0.050244,0.0046481
27,0.046873,-0.16068,0.93035,0.0085458,-0.23993,-0.022636,0.011469
28,0.031607,-0.18212,0.97712,0.00042559,-0.16458,0.0014,0.020888
29,0.014392,-0.1662,0.95991,0.0023744,-0.11618,0.028359,0.033556
30,0.00042559,-0.12885,0.8381,0.014068,-0.084999,0.062789,0.048822
31,-0.0047713,-0.086948,0.61853,0.030633,-0.059014,0.099492,0.059865
32,-0.0037969,-0.053817,0.35252,0.049147,-0.02426,0.13132,0.066037
33,0.00075039,-0.036927,0.10924,0.064737,0.02641,0.15601,0.068635
34,0.008221,-0.034978,-0.064861,0.072533,0.092021,0.1716,0.06896
35,0.015692,-0.041475,-0.15516,0.073507,0.16445,0.17939,0.063438
36,0.020239,-0.04862,-0.17302,0.066362,0.23039,0.17972,0.050446
37,0.019264,-0.047321,-0.14346,0.055643,0.27164,0.17225,0.033231
38,0.010495,-0.033354,-0.097017,0.042651,0.27326,0.15861,0.015042
39,-0.0031473,-0.008669,-0.055116,0.029333,0.23721,0.14302,-0.0028225
40,-0.017764,0.016341,-0.027183,0.01894,0.17907,0.12775,-0.020362
41,-0.030106,0.030957,-0.01614,0.010495,0.13067,0.11313,-0.039201
42,-0.036602,0.029333,-0.020362,0.0046481,0.11703,0.097543,-0.060313
43,-0.038551,0.012119,-0.036278,-0.0021729,0.15244,0.078704,-0.078827
44,-0.036278,-0.013541,-0.055116,-0.0099683,0.23689,0.058241,-0.086948
45,-0.032705,-0.038551,-0.071357,-0.017114,0.35836,0.042326,-0.084349
46,-0.031081,-0.052843,-0.088247,-0.022961,0.50258,0.036479,-0.075904
47,-0.034004,-0.050244,-0.10221,-0.029782,0.64452,0.038103,-0.067459
48,-0.040175,-0.032055,-0.10968,-0.035953,0.7543,0.042651,-0.059339
49,-0.046347,-0.007045,-0.10221,-0.040175,0.81504,0.042651,-0.050244
50,-0.049595,0.017965,-0.0837,-0.04115,0.81277,0.032906,-0.045047
51,-0.04992,0.033556,-0.071032,-0.043423,0.74488,0.0091954,-0.046022
52,-0.045047,0.037778,-0.075255,-0.052843,0.61529,-0.030106,-0.052843
53,-0.037252,0.029009,-0.10774,-0.070058,0.42885,-0.081751,-0.059989
54,-0.029132,0.011794,-0.16782,-0.088247,0.19953,-0.13632,-0.062587
55,-0.022961,-0.0060706,-0.24286,-0.10124,-0.03238,-0.18049,-0.056091
56,-0.019063,-0.016789,-0.31399,-0.10546,-0.20972,-0.20583,-0.042774
57,-0.01614,-0.016789,-0.36109,-0.094093,-0.28573,-0.21005,-0.028807
58,-0.0093186,-0.007045,-0.38025,-0.068434,-0.25455,-0.19738,-0.019712
59,0.00042559,0.0091954,-0.37668,-0.031081,-0.15418,-0.17107,-0.01484
60,0.0078962,0.02641,-0.36206,0.012443,-0.068434,-0.13729,-0.010943
61,0.012119,0.045574,-0.34582,0.05142,-0.077528,-0.10449,-0.0067202
62,0.014392,0.06896,-0.32763,0.078379,-0.18407,-0.079477,-0.0041217
63,0.016341,0.093321,-0.30847,0.092346,-0.301,-0.065186,-0.00087364
64,0.023162,0.11378,-0.29223,0.091372,-0.33283,-0.057065,0.0091954
65,0.03453,0.12678,-0.28216,0.075131,-0.23246,-0.048296,0.023812
66,0.048172,0.13327,-0.27858,0.050771,-0.023285,-0.033354,0.037129
67,0.056942,0.13295,-0.27664,0.02641,0.22844,-0.010943,0.044599
68,0.059216,0.12937,-0.27469,0.010819,0.44509,0.014717,0.042651
69,0.054019,0.12288,-0.26819,0.009845,0.57176,0.039078,0.03453
70,0.046223,0.11476,-0.25942,0.020564,0.58605,0.059216,0.02706
71,0.03583,0.10469,-0.24968,0.032906,0.49576,0.071883,0.021538
72,0.022512,0.089748,-0.23474,0.036479,0.35154,0.07708,0.015367
73,0.010495,0.068635,-0.2172,0.030633,0.21415,0.078055,0.0069217
74,0.0049729,0.0433,-0.20225,0.021538,0.13035,0.079354,-0.0015233
75,0.0052977,0.01829,-0.18277,0.017965,0.13457,0.081303,-0.007045
76,0.012768,-0.0054209,-0.14834,0.020564,0.22682,0.081952,-0.0083442
77,0.023487,-0.030431,-0.083375,0.027709,0.35739,0.081952,-0.0050961
78,0.027709,-0.056416,0.029009,0.03518,0.44379,0.087149,-0.0031473
79,0.024137,-0.086298,0.19531,0.0433,0.43047,0.096244,-0.0044465
80,0.014717,-0.12463,0.40676,0.048172,0.31289,0.10371,-0.010293
81,0.0026992,-0.17692,0.61756,0.044599,0.13197,0.10371,-0.017764
82,-0.0083442,-0.24221,0.77022,0.031607,-0.056416,0.093321,-0.027183
83,-0.019063,-0.31139,0.82349,0.012443,-0.23051,0.071558,-0.038551
84,-0.027833,-0.36758,0.76957,-0.0073698,-0.39259,0.042651,-0.050894
85,-0.034329,-0.39292,0.64614,-0.022636,-0.56409,0.011794,-0.062262
86,-0.038551,-0.37375,0.50323,-0.028807,-0.75053,-0.016464,-0.070707
87,-0.04115,-0.31301,0.37688,-0.026209,-0.92365,-0.039851,-0.071682
88,-0.044398,-0.22337,0.27976,-0.019712,-1.0393,-0.061937,-0.065835
89,-0.049595,-0.12592,0.22194,-0.012567,-1.0698,-0.085648,-0.055766
90,-0.055441,-0.036602,0.22844,-0.0099683,-1.0052,-0.11228,-0.050569
91,-0.061288,0.033231,0.30867,-0.013216,-0.85772,-0.13924,-0.055766
92,-0.062587,0.080328,0.42105,-0.026209,-0.66023,-0.15743,-0.067459
93,-0.057715,0.10534,0.45743,-0.045697,-0.45008,-0.16653,-0.076879
94,-0.046022,0.10794,0.33465,-0.064861,-0.26202,-0.1688,-0.075255
95,-0.03173,0.093645,0.082602,-0.076554,-0.12852,-0.1662,-0.065186
96,-0.016464,0.073182,-0.17887,-0.075579,-0.068758,-0.1597,-0.054142
97,-0.0034721,0.055318,-0.32276,-0.063237,-0.068109,-0.15029,-0.048296
98,0.00075039,0.048172,-0.28735,-0.039851,-0.083375,-0.13664,-0.046996
99,-0.0031473,0.051096,-0.10189,-0.008669,-0.0837,-0.1191,-0.045047
100,-0.010618,0.058566,0.13977,0.021538,-0.051219,-0.096692,-0.037252
101,-0.019388,0.065387,0.34245,0.045574,0.01764,-0.072331,-0.023935
102,-0.026858,0.069285,0.45223,0.064737,0.10989,-0.046996,-0.0093186
103,-0.030431,0.066037,0.46458,0.081952,0.20148,-0.021986,0.0039985
104,-0.03173,0.06019,0.39669,0.098517,0.27229,0.00010078,0.014717
105,-0.030106,0.054993,0.25735,0.11313,0.31354,0.016666,0.023487
106,-0.022961,0.054993,0.019914,0.1219,0.32004,0.024786,0.030633
107,-0.0083442,0.059216,-0.3718,0.12385,0.29665,0.021538,0.036154
108,0.010495,0.063113,-0.90286,0.11443,0.25183,0.012443,0.038753
109,0.026735,0.064413,-1.4492,0.095594,0.19531,0.0039985,0.039078
110,0.039402,0.062789,-1.8458,0.074157,0.1349,0.00042559,0.037778
111,0.047523,0.058241,-1.9679,0.054344,0.07773,0.003024,0.03583
112,0.048822,0.055968,-1.7899,0.037778,0.029983,0.013093,0.032582
113,0.044599,0.056942,-1.3842,0.025436,-0.0073698,0.029658,0.031607
114,0.039727,0.060515,-0.87948,0.014392,-0.029782,0.044275,0.033231
115,0.037129,0.067011,-0.40428,0.0088706,-0.034978,0.054344,0.038103
116,0.040377,0.07708,-0.042774,0.011144,-0.025559,0.061489,0.045899
117,0.047847,0.089748,0.18102,0.01829,-0.01484,0.067661,0.056617
118,0.056292,0.10112,0.28788,0.032257,-0.01614,0.075131,0.067011
119,0.059865,0.11151,0.32134,0.049796,-0.03238,0.084551,0.074482
120,0.058241,0.12125,0.32263,0.070909,-0.051219,0.092996,0.075781
121,0.051745,0.13035,0.31776,0.090397,-0.061937,0.098842,0.071234
122,0.042975,0.13327,0.31809,0.10371,-0.057065,0.099492,0.064413
123,0.03583,0.1258,0.31646,0.10696,-0.037902,0.094945,0.062139
124,0.030308,0.10794,0.30834,0.10306,-0.011267,0.0865,0.064737
125,0.024137,0.080978,0.29438,0.093321,0.013093,0.073507,0.067011
126,0.018615,0.050446,0.27456,0.078055,0.028684,0.062139,0.064413
127,0.013743,0.024461,0.2502,0.058891,0.036804,0.048497,0.056617
128,0.0069217,0.008221,0.22357,0.035505,0.040377,0.032906,0.042975
129,-0.00054884,0.00075039,0.20181,0.012119,0.038103,0.01829,0.02706
130,-0.0060706,-0.00054884,0.18946,-0.0073698,0.031282,0.011469,0.010495
131,-0.010618,0.0043233,0.18557,-0.02361,0.022837,0.013093,-0.0024977
132,-0.011917,0.012119,0.18687,-0.034654,0.026735,0.019914,-0.0063954
133,-0.0083442,0.020564,0.19239,-0.036927,0.054668,0.02706,0.00010078
134,0.00042559,0.026735,0.19823,-0.029132,0.10729,0.029009,0.01764
135,0.011469,0.030308,0.20148,-0.01549,0.1703,0.02706,0.037454
136,0.022837,0.030308,0.19953,0.0043233,0.22519,0.024137,0.050771
137,0.033231,0.031607,0.19271,0.024786,0.26774,0.026085,0.058891
138,0.041676,0.03453,0.18654,0.038753,0.2999,0.033881,0.061165
139,0.046548,0.034206,0.18037,0.041676,0.32751,0.046873,0.058891
140,0.048172,0.028684,0.17355,0.042001,0.35024,0.06084,0.054019
141,0.048497,0.020888,0.16673,0.045249,0.36031,0.071883,0.045249
142,0.045899,0.016341,0.16185,0.054019,0.35414,0.075781,0.034855
143,0.042326,0.015692,0.16153,0.065062,0.32848,0.069285,0.024461
144,0.038753,0.019264,0.16608,0.067986,0.28138,0.055968,0.016341
145,0.039078,0.024786,0.16705,0.057917,0.2187,0.041676,0.010495
146,0.042651,0.022837,0.1651,0.03453,0.15211,0.031932,0.0046481
147,0.042975,0.011794,0.16056,0.00075039,0.091372,0.026085,0.0017248
148,0.036804,-0.0024977,0.15146,-0.03303,0.041027,0.023487,0.00042559
149,0.027385,-0.017114,0.13587,-0.057715,-0.0083442,0.025761,-0.0031473
150,0.019264,-0.026209,0.11703,-0.06616,-0.067134,0.030957,-0.0096434
151,0.016991,-0.028482,0.10209,-0.063886,-0.13534,0.03583,-0.013866
152,0.019589,-0.027508,0.095269,-0.05804,-0.20713,0.037454,-0.016464
153,0.024461,-0.024909,0.097218,-0.055116,-0.27469,0.030957,-0.01549
154,0.02641,-0.021986,0.099817,-0.051868,-0.32406,0.012443,-0.013216
155,0.023487,-0.020037,0.096893,-0.044073,-0.33283,-0.012242,-0.011592
156,0.013418,-0.018738,0.088124,-0.029132,-0.28378,-0.037902,-0.0093186
157,-0.0028225,-0.016789,0.076106,-0.012892,-0.1753,-0.060638,-0.0063954
158,-0.018088,-0.011592,0.065062,-0.0031473,-0.037902,-0.075904,-0.00054884
159,-0.022961,-0.0047713,0.057917,-0.00022403,0.060515,-0.084999,0.003024
160,-0.016789,0.003024,0.055643,-0.00087364,0.033231,-0.094418,0.0014
161,-0.0031473,0.012443,0.058566,-0.00022403,-0.17465,-0.11066,-0.0018481
162,0.011469,0.018615,0.066686,0.0020496,-0.542,-0.13664,-0.0021729
163,0.01829,0.018615,0.07708,0.009845,-0.9649,-0.17042,-0.0015233
164,0.015692,0.016666,0.087799,0.024137,-1.3157,-0.20096,-0.0041217
165,0.010495,0.015042,0.091047,0.039078,-1.5012,-0.21557,-0.0089938
166,0.0049729,0.016016,0.087149,0.048497,-1.4895,-0.21265,-0.011267
167,-0.00087364,0.019264,0.07708,0.053369,-1.3047,-0.19641,-0.010618
168,-0.0083442,0.022188,0.062789,0.053694,-1.001,-0.17367,-0.011917
169,-0.018413,0.022188,0.0433,0.045899,-0.64269,-0.15321,-0.018088
170,-0.025559,0.020564,0.021538,0.031607,-0.2854,-0.13534,-0.025884
171,-0.028482,0.016341,-0.0018481,0.01764,0.030633,-0.11553,-0.031081
172,-0.027183,0.0088706,-0.019063,0.0085458,0.27132,-0.088896,-0.030756
173,-0.024909,-0.0015233,-0.0093186,0.003024,0.4269,-0.054792,-0.026858
174,-0.022636,-0.010943,0.050121,-0.0024977,0.50777,-0.014516,-0.022961
175,-0.024585,-0.01549,0.15926,-0.0063954,0.5422,0.028359,-0.018088
176,-0.030756,-0.014191,0.2973,-0.0096434,0.55162,0.071234,-0.0089938
177,-0.038876,-0.008669,0.43827,-0.0089938,0.53636,0.10924,0.0010752
178,-0.046022,0.00010078,0.55877,-0.0060706,0.48536,0.13912,0.009845
179,-0.051544,0.0091954,0.6377,-0.0028225,0.41098,0.15926,0.013743
180,-0.053168,0.011469,0.6744,-0.0028225,0.34115,0.17452,0.012443
181,-0.053817,0.0033489,0.677,-0.007045,0.30899,0.18654,0.0072465
182,-0.051544,-0.016789,0.62958,-0.014191,0.35284,0.19856,0.0036737
183,-0.04862,-0.044723,0.48341,-0.024909,0.48114,0.20798,0.0014
184,-0.04927,-0.07428,0.2096,-0.035303,0.65784,0.21642,-0.0011985
185,-0.055116,-0.10156,-0.16328,-0.044398,0.81991,0.21772,-0.0031473
186,-0.061288,-0.1191,-0.5524,-0.054467,0.91801,0.21058,-0.0034721
187,-0.062262,-0.12592,-0.87331,-0.063886,0.93522,0.19466,-0.0015233
188,-0.057715,-0.123,-1.0737,-0.072331,0.88845,0.16998,-0.00054884
189,-0.050244,-0.11391,-1.1481,-0.081751,0.81082,0.14042,-0.0018481
190,-0.044723,-0.10221,-1.1202,-0.092145,0.72734,0.10469,-0.0044465
191,-0.047321,-0.092145,-1.0351,-0.10384,0.64387,0.065712,-0.0063954
192,-0.055441,-0.087922,-0.94509,-0.11456,0.5539,0.028034,-0.0073698
193,-0.064536,-0.087922,-0.8889,-0.1191,0.44281,0.00075039,-0.0080194
194,-0.070382,-0.088247,-0.85284,-0.11845,0.28593,-0.01484,-0.0080194
195,-0.072006,-0.082725,-0.79665,-0.11651,0.063763,-0.024909,-0.010618
196,-0.066485,-0.069083,-0.67972,-0.11033,-0.21655,-0.038551,-0.018088
197,-0.056091,-0.048945,-0.50173,-0.096367,-0.50335,-0.059989,-0.025559
198,-0.0405,-0.024585,-0.2958,-0.073955,-0.72942,-0.084349,-0.03238
199,-0.022311,0.0010752,-0.11066,-0.048296,-0.85089,-0.10871,-0.034654
200,-0.0028225,0.022512,0.016991,-0.023935,-0.86908,-0.13047,-0.029782
201,0.013743,0.037778,0.080003,0.00010078,-0.81419,-0.14996,-0.021661
202,0.022837,0.047523,0.095594,0.017316,-0.71383,-0.16588,-0.013216
203,0.025111,0.053369,0.090722,0.02706,-0.58293,-0.17302,-0.0096434
204,0.021538,0.054019,0.086175,0.030633,-0.42475,-0.16977,-0.010293
205,0.016666,0.051745,0.09397,0.031282,-0.2513,-0.15646,-0.012567
206,0.013418,0.049472,0.11995,0.031932,-0.076229,-0.13307,-0.014191
207,0.012443,0.050121,0.16543,0.03453,0.079354,-0.10546,-0.011267
208,0.012768,0.05207,0.22454,0.042326,0.19986,-0.081101,-0.0015233
209,0.013743,0.054668,0.28885,0.057917,0.28041,-0.066485,0.012768
210,0.015042,0.056292,0.34245,0.079354,0.31809,-0.062587,0.027709
211,0.016341,0.058566,0.37623,0.097868,0.31971,-0.061613,0.039402
212,0.019914,0.065062,0.3863,0.10664,0.29275,-0.056741,0.044924
213,0.027385,0.071234,0.37493,0.10371,0.24241,-0.04862,0.047847
214,0.035505,0.072858,0.35122,0.092671,0.17647,-0.042124,0.048172
215,0.040377,0.071558,0.32166,0.076431,0.10436,-0.044398,0.044599
216,0.038753,0.06831,0.296,0.061165,0.037129,-0.060963,0.042001
217,0.033881,0.062789,0.28203,0.044275,-0.010618,-0.090845,0.038428
218,0.030633,0.054993,0.27521,0.027385,-0.027833,-0.12527,0.028684
219,0.030633,0.047198,0.27099,0.0091954,-0.011592,-0.15158,0.011469
220,0.029983,0.037454,0.26709,-0.0034721,0.025761,-0.16133,-0.0067202
221,0.028359,0.02641,0.25897,-0.008669,0.070259,-0.15451,-0.019712
222,0.022837,0.016666,0.23039,-0.0073698,0.10209,-0.13599,-0.021661
223,0.01764,0.0069217,0.15828,-0.0021729,0.10631,-0.11131,-0.012242
224,0.018615,-0.00022403,0.01894,0.0023744,0.080653,-0.081751,0.0010752
225,0.026085,-0.0028225,-0.18114,0.0049729,0.030633,-0.053492,0.015042
226,0.034206,-0.0031473,-0.39422,0.0026992,-0.033354,-0.032705,0.022512
227,0.036479,-0.0037969,-0.55175,-0.0050961,-0.098316,-0.025884,0.024461
228,0.031607,-0.0054209,-0.60112,-0.010943,-0.15451,-0.030431,0.02706
229,0.024786,-0.0047713,-0.5433,-0.0073698,-0.19154,-0.041799,0.032906
230,0.019914,-0.0018481,-0.4163,0.0033489,-0.2055,-0.051219,0.039402
231,0.01894,0.0020496,-0.27339,0.019589,-0.19706,-0.051544,0.042326
232,0.021863,0.0052977,-0.16003,0.038428,-0.174,-0.034978,0.041351
233,0.028359,0.0078962,-0.099615,0.055318,-0.14541,-0.0050961,0.037454
234,0.03583,0.010495,-0.089871,0.069285,-0.11813,0.025436,0.033556
235,0.041027,0.011794,-0.10903,0.076755,-0.098965,0.045574,0.032257
236,0.044599,0.011794,-0.1191,0.081627,-0.093119,0.05207,0.032582
237,0.048822,0.008221,-0.060638,0.08585,-0.10319,0.050446,0.033231
238,0.049472,0.0069217,0.096244,0.087799,-0.13469,0.046548,0.031932
239,0.047523,0.0056225,0.31159,0.084551,-0.18569,0.040052,0.028034
240,0.039727,0.0020496,0.50193,0.075456,-0.25,0.029658,0.020239
241,0.030957,-0.0057458,0.61204,0.057917,-0.30912,0.017965,0.011144
242,0.023162,-0.013866,0.62048,0.03583,-0.33932,0.0088706,0.0046481
243,0.01764,-0.019063,0.54708,0.012443,-0.32276,0.0020496,0.00075039
244,0.014717,-0.018088,0.4295,-0.0028225,-0.25812,0.0026992,0.0033489
245,0.017965,-0.010618,0.31484,-0.0057458,-0.15581,0.011144,0.011144
246,0.029009,0.00042559,0.23851,0.0059473,-0.034329,0.024137,0.017316
247,0.044275,0.013418,0.2148,0.029658,0.081303,0.038753,0.021538
248,0.056942,0.021538,0.22747,0.056292,0.16575,0.052395,0.021863
249,0.060515,0.026735,0.2528,0.073832,0.20603,0.065387,0.018615
250,0.051745,0.031607,0.26872,0.078379,0.20635,0.072533,0.012768
251,0.037454,0.03518,0.26709,0.068635,0.18492,0.071558,0.0046481
252,0.018615,0.040377,0.24695,0.046548,0.16315,0.060515,-0.0057458
253,0.00075039,0.045899,0.21317,0.021863,0.15438,0.043625,-0.014191
254,-0.012892,0.049147,0.16673,0.0043233,0.15958,0.027709,-0.016464
255,-0.019063,0.048497,0.11248,0.003024,0.1651,0.01764,-0.012567
256,-0.017439,0.050121,0.049796,0.016991,0.15796,0.014717,-0.0076946
257,-0.010618,0.054019,-0.018088,0.039078,0.13262,0.021213,-0.0050961
258,-0.0041217,0.057917,-0.088247,0.057592,0.084876,0.025761,-0.0037969
259,-0.00054884,0.058566,-0.1597,0.066037,0.017316,0.023162,-0.0063954
260,-0.0024977,0.059865,-0.22824,0.061814,-0.052193,0.017316,-0.013216
261,-0.0099683,0.066362,-0.28768,0.046873,-0.10838,0.013093,-0.018088
262,-0.018738,0.082927,-0.33218,0.023812,-0.14834,0.016341,-0.018088
263,-0.02426,0.10794,-0.36173,-0.0044465,-0.1714,0.025436,-0.0093186
264,-0.025559,0.12905,-0.39259,-0.031081,-0.18179,0.033556,0.0033489
265,-0.021012,0.13749,-0.43449,-0.045697,-0.18309,0.038103,0.014392
266,-0.013216,0.12613,-0.47087,-0.047646,-0.17984,0.038428,0.016016
267,-0.0024977,0.10079,-0.47607,-0.038876,-0.17497,0.03518,0.014068
268,0.0059473,0.072858,-0.43027,-0.021337,-0.1727,0.029983,0.012768
269,0.011144,0.050121,-0.3364,0.00042559,-0.17594,0.028359,0.014068
270,0.010819,0.037129,-0.2172,0.019264,-0.18471,0.029658,0.014717
271,0.008221,0.03583,-0.10384,0.03453,-0.19283,0.029009,0.011794
272,0.010819,0.042975,-0.019388,0.045249,-0.19251,0.01829,0.0065969
273,0.014717,0.054668,0.032582,0.05142,-0.18342,-0.0021729,0.0036737
274,0.019914,0.064088,0.061489,0.049472,-0.16263,-0.023285,0.0075714
275,0.020888,0.065062,0.076106,0.040377,-0.1256,-0.037252,0.018615
276,0.014717,0.057917,0.081952,0.02641,-0.069733,-0.038876,0.033881
277,0.0026992,0.0433,0.078379,0.0088706,-0.0044465,-0.030106,0.046223
278,-0.0083442,0.026735,0.066037,-0.0063954,0.055318,-0.013541,0.049796
279,-0.012567,0.011794,0.050771,-0.01484,0.087799,0.0095202,0.046223
280,-0.0076946,0.00042559,0.03453,-0.013866,0.071558,0.032906,0.041027
281,0.0010752,-0.0080194,0.020239,-0.007045,0.0033489,0.052395,0.034206
282,0.0088706,-0.014191,0.0062721,0.00042559,-0.093119,0.061814,0.025761
283,0.014717,-0.017439,-0.0054209,0.0059473,-0.17854,0.058241,0.01829
284,0.019589,-0.01549,-0.012892,0.0085458,-0.21817,0.051096,0.016991
285,0.020888,-0.008669,-0.018738,0.0072465,-0.20355,0.044924,0.027709
286,0.017316,-0.0031473,-0.020037,0.0020496,-0.14996,0.037454,0.045249
287,0.0059473,-0.0050961,-0.019063,-0.0057458,-0.084024,0.023487,0.057917
288,-0.010293,-0.014191,-0.016464,-0.011917,-0.031081,0.0043233,0.056942
289,-0.029782,-0.025559,-0.013216,-0.014191,-0.0041217,-0.014516,0.044599
290,-0.045697,-0.033679,-0.008669,-0.014191,0.0039985,-0.027183,0.027385
291,-0.051219,-0.035953,-0.0057458,-0.012242,-0.012242,-0.030106,0.012119
292,-0.046347,-0.034329,-0.0044465,-0.0099683,-0.067784,-0.027833,-0.00022403
293,-0.039201,-0.034654,-0.0044465,-0.008669,-0.15029,-0.028807,-0.0063954
294,-0.033679,-0.039851,-0.0083442,-0.010293,-0.19381,-0.033679,-0.0041217
295,-0.032055,-0.04927,-0.01484,-0.012892,-0.1243,-0.035953,0.0049729
296,-0.034978,-0.059989,-0.022636,-0.012567,0.076106,-0.027508,0.0072465
297,-0.040175,-0.068109,-0.022961,-0.0057458,0.34959,-0.0083442,-0.0031473
298,-0.045047,-0.068434,-0.012567,0.0043233,0.60522,0.016016,-0.017764
299,-0.043748,-0.058365,0.0075714,0.015367,0.77704,0.037129,-0.023935
300,-0.029132,-0.040825,0.030957,0.023162,0.84298,0.05272,-0.020687
301,-0.0057458,-0.02361,0.050446,0.02641,0.81309,0.062789,-0.0089938
302,0.01894,-0.010943,0.061814,0.025436,0.70493,0.067661,0.0052977
303,0.033231,-0.0063954,0.06019,0.023487,0.54026,0.070909,0.01894
304,0.031282,-0.0060706,0.042651,0.023162,0.33335,0.071883,0.031932
305,0.017965,-0.0076946,0.012119,0.022512,0.11346,0.068635,0.042651
306,0.0056225,-0.0076946,-0.018413,0.024137,-0.068434,0.064088,0.045899
307,0.0052977,-0.010293,-0.039201,0.028684,-0.15581,0.062464,0.042001
308,0.013743,-0.011917,-0.046996,0.035505,-0.12365,0.063763,0.030957
309,0.020888,-0.015165,-0.047321,0.047198,0.0026992,0.064088,0.016016
310,0.021863,-0.017439,-0.048945,0.058566,0.16413,0.060515,0.0046481
311,0.01894,-0.018088,-0.055441,0.066037,0.29665,0.05142,-0.0024977
312,0.013743,-0.020037,-0.060313,0.064413,0.34472,0.035505,-0.0063954
313,0.008221,-0.024909,-0.059339,0.050771,0.26937,0.015692,-0.010293
314,0.0062721,-0.032055,-0.054142,0.024786,0.071234,-0.0099683,-0.017439
315,0.0039985,-0.041799,-0.049595,-0.0076946,-0.20225,-0.042774,-0.03173
316,-0.0018481,-0.047971,-0.050894,-0.041475,-0.46178,-0.07428,-0.046996
317,-0.0076946,-0.04862,-0.060313,-0.067459,-0.61508,-0.095393,-0.054467
318,-0.013216,-0.044723,-0.071357,-0.081426,-0.62126,-0.10221,-0.051544
319,-0.010618,-0.039526,-0.078827,-0.081101,-0.49848,-0.099615,-0.042774
320,-0.0060706,-0.034004,-0.082076,-0.070382,-0.30294,-0.095393,-0.03238
321,0.0039985,-0.029132,-0.084024,-0.054142,-0.098316,-0.094418,-0.023935
322,0.013093,-0.02361,-0.088572,-0.036602,0.06019,-0.098641,-0.017114
323,0.016991,-0.017439,-0.097341,-0.019712,0.14269,-0.10546,-0.0093186
324,0.019264,-0.0080194,-0.10838,-0.011267,0.13457,-0.11358,-0.0018481
325,0.020888,0.00042559,-0.11163,-0.012242,0.021863,-0.12235,0.00075039
326,0.022837,0.0072465,-0.087922,-0.01614,-0.18731,-0.12527,0.0010752
327,0.026735,0.0085458,-0.0093186,-0.01614,-0.43157,-0.11975,0.0017248
328,0.029009,0.0033489,0.14009,-0.0096434,-0.62418,-0.10416,0.0010752
329,0.031932,-0.008669,0.34017,0.0017248,-0.70733,-0.081426,-0.0037969
330,0.036804,-0.020687,0.52954,0.017316,-0.66608,-0.056091,-0.013541
331,0.042975,-0.028807,0.63932,0.034206,-0.53453,-0.031081,-0.021012
332,0.045249,-0.030106,0.63477,0.051745,-0.37213,-0.008669,-0.020037
333,0.04395,-0.022636,0.52077,0.065062,-0.23831,0.012443,-0.014191
334,0.041676,-0.0083442,0.3366,0.06831,-0.16165,0.032906,-0.0044465
335,0.039727,0.0065969,0.13782,0.062139,-0.13307,0.05207,0.0059473
336,0.038428,0.017965,-0.033679,0.047847,-0.11618,0.070259,0.015367
337,0.036804,0.022188,-0.161,0.031282,-0.073306,0.086824,0.025111
338,0.033881,0.018615,-0.24903,0.014717,0.014717,0.097868,0.037129
339,0.034855,0.0085458,-0.30587,0.0059473,0.15016,0.098517,0.046873
340,0.040052,-0.0021729,-0.33607,0.0056225,0.31257,0.088124,0.050446
341,0.047847,-0.008669,-0.34322,0.0095202,0.46328,0.072858,0.046223
342,0.053369,-0.0057458,-0.32731,0.012119,0.56689,0.063438,0.036804
343,0.05207,0.0039985,-0.29125,0.010819,0.60262,0.059216,0.026085
344,0.042651,0.016991,-0.23506,0.0052977,0.57339,0.056617,0.017965
345,0.027709,0.02706,-0.15873,-0.0021729,0.49803,0.049796,0.011469
346,0.011144,0.03453,-0.072656,-0.011267,0.40773,0.039402,0.003024
347,-0.0021729,0.041676,0.016341,-0.020362,0.32816,0.02641,-0.0076946
348,-0.013541,0.045574,0.11151,-0.027833,0.26872,0.013743,-0.017114
349,-0.023285,0.040702,0.20505,-0.033679,0.22649,0.0026992,-0.020362
350,-0.031406,0.022512,0.296,-0.037577,0.18914,-0.0054209,-0.017764
351,-0.03303,-0.0021729,0.39344,-0.037577,0.14302,-0.007045,-0.014191
352,-0.028482,-0.02361,0.50063,-0.033679,0.084226,-0.0015233,-0.011592
353,-0.018088,-0.03173,0.60229,-0.026858,0.017965,0.0072465,-0.0080194
354,-0.0031473,-0.023285,0.67603,-0.017114,-0.046022,0.016666,-0.007045
355,0.0091954,-0.0034721,0.70818,-0.0063954,-0.10059,0.025111,-0.012892
356,0.015692,0.022512,0.70851,0.0014,-0.14541,0.031607,-0.020687
357,0.013418,0.042975,0.70104,0.0023744,-0.18471,0.036479,-0.029132
358,0.0072465,0.05207,0.69714,0.0020496,-0.21979,0.038428,-0.036602
359,-0.00022403,0.053044,0.69616,0.0059473,-0.24545,0.03518,-0.045047
360,-0.0057458,0.048822,0.68967,0.019264,-0.26072,0.019589,-0.055766
361,-0.011917,0.042651,0.66953,0.036479,-0.26267,-0.0054209,-0.069083
362,-0.020037,0.036479,0.63283,0.049472,-0.24448,-0.033679,-0.079152
363,-0.030756,0.031282,0.56202,0.051745,-0.21037,-0.055766,-0.081426
364,-0.038876,0.020888,0.40319,0.045899,-0.17107,-0.068109,-0.075904
365,-0.041799,0.0010752,0.061814,0.034855,-0.14574,-0.072981,-0.065835
366,-0.038876,-0.035953,-0.48484,0.022188,-0.14411,-0.071682,-0.054792
367,-0.034004,-0.090521,-1.1185,0.014068,-0.16782,-0.061288,-0.046022
368,-0.031406,-0.15158,-1.6571,0.015367,-0.19576,-0.045047,-0.04115
369,-0.030431,-0.20583,-1.9452,0.02641,-0.20485,-0.028807,-0.036927
370,-0.026533,-0.23538,-1.9263,0.041676,-0.17822,-0.017439,-0.029457
371,-0.020037,-0.22759,-1.6473,0.054993,-0.10611,-0.01549,-0.020037
372,-0.013541,-0.18309,-1.2221,0.062139,0.022837,-0.021012,-0.0099683
373,-0.012892,-0.11521,-0.77554,0.059541,0.21058,-0.032705,-0.00087364
374,-0.01614,-0.040175,-0.39974,0.044275,0.43307,-0.047971,0.0039985
375,-0.020687,0.025111,-0.14119,0.021863,0.64582,-0.061937,0.0062721
376,-0.020687,0.074157,-0.0034721,0.0049729,0.79783,-0.069733,0.0095202
377,-0.011592,0.10794,0.028034,0.0014,0.85142,-0.069733,0.016016
378,0.00010078,0.13002,-0.013541,0.009845,0.80238,-0.061288,0.023162
379,0.010495,0.14399,-0.082076,0.025761,0.67603,-0.047971,0.029983
380,0.015367,0.15276,-0.12333,0.041676,0.51395,-0.039851,0.034206
381,0.015692,0.15828,-0.098641,0.050446,0.35934,-0.036927,0.038428
382,0.011144,0.15926,0.00010078,0.045249,0.25572,-0.035628,0.045899
383,0.008221,0.15633,0.15341,0.026085,0.22065,-0.036927,0.053044
384,0.0078962,0.14919,0.30672,0.00010078,0.23883,-0.042124,0.053369
385,0.010819,0.14302,0.36973,-0.022311,0.27521,-0.04862,0.046223
386,0.014717,0.13684,0.27132,-0.035953,0.29568,-0.053492,0.035505
387,0.014717,0.131,0.038103,-0.039526,0.28333,-0.053492,0.02641
388,0.010495,0.11898,-0.2159,-0.036602,0.24111,-0.048296,0.017965
389,0.003024,0.096893,-0.3822,-0.034004,0.18297,-0.043423,0.012119
390,-0.0041217,0.062139,-0.43027,-0.034978,0.12125,-0.043423,0.010495
391,-0.008669,0.021538,-0.38512,-0.043748,0.056942,-0.043748,0.014392
392,-0.0054209,-0.011592,-0.28346,-0.057065,-0.013541,-0.038551,0.018615
393,0.0039985,-0.025884,-0.16393,-0.069733,-0.097666,-0.026533,0.020888
394,0.015367,-0.021337,-0.054792,-0.073955,-0.20128,-0.011592,0.025436
395,0.025436,-0.0028225,0.028034,-0.064536,-0.32016,-0.00054884,0.035505
396,0.036154,0.021213,0.080653,-0.041475,-0.43871,0.0046481,0.047847
397,0.048497,0.041676,0.10989,-0.014516,-0.53778,0.003024,0.056617
398,0.059865,0.054668,0.1219,0.01017,-0.59267,-0.0011985,0.061165
399,0.06896,0.058241,0.12418,0.029009,-0.57481,-0.0047713,0.056617
400,0.073182,0.054993,0.11833,0.041351,-0.4595,-0.0021729,0.047523
401,0.073507,0.051096,0.10989,0.046873,-0.24708,0.0039985,0.038428
402,0.070259,0.050446,0.10696,0.049147,0.021863,0.010495,0.033881
403,0.062464,0.054668,0.11671,0.051745,0.28203,0.016666,0.032906
404,0.049472,0.064088,0.13782,0.055968,0.4727,0.021538,0.032906
405,0.034855,0.074157,0.16348,0.062464,0.56007,0.02706,0.029983
406,0.019264,0.077405,0.18816,0.071558,0.5422,0.034206,0.027709
407,0.0075714,0.073182,0.20668,0.082602,0.44606,0.039402,0.024461
408,0.00010078,0.066362,0.21447,0.088773,0.3038,0.038428,0.016991
409,-0.0031473,0.059541,0.21447,0.087149,0.14854,0.032906,0.0062721
410,-0.0037969,0.052395,0.21512,0.075781,0.008221,0.023812,-0.0073698
411,-0.00022403,0.046548,0.2187,0.06019,-0.095068,0.011469,-0.021986
412,0.0052977,0.042326,0.22454,0.046223,-0.15646,-0.0034721,-0.03238
413,0.0088706,0.040702,0.22909,0.037454,-0.18374,-0.011592,-0.0405
414,0.0062721,0.037778,0.22844,0.033556,-0.19641,-0.008669,-0.0405
415,-0.0015233,0.032906,0.22649,0.03453,-0.21395,0.0039985,-0.033679
416,-0.008669,0.028359,0.22357,0.039402,-0.2539,0.019914,-0.02426
417,-0.011267,0.02641,0.22032,0.044924,-0.32503,0.033231,-0.011267
418,-0.0096434,0.034206,0.21447,0.045899,-0.42312,0.037129,0.0039985
419,-0.0057458,0.05142,0.207,0.036479,-0.52739,0.035505,0.01764
420,-0.0031473,0.075131,0.19758,0.016666,-0.60729,0.033881,0.023487
421,-0.0028225,0.10112,0.18719,-0.0054209,-0.64919,0.03518,0.023487
422,-0.0037969,0.11963,0.18264,-0.017114,-0.66251,0.042651,0.024461
423,-0.0060706,0.1245,0.18394,-0.013541,-0.66705,0.054019,0.032257
424,-0.010943,0.11086,0.19076,0.0020496,-0.67258,0.067011,0.0433
425,-0.021012,0.083901,0.19888,0.024137,-0.6742,0.079679,0.050446
426,-0.03303,0.051745,0.20213,0.047523,-0.66121,0.087799,0.050121
427,-0.042449,0.022512,0.19369,0.067661,-0.62483,0.086175,0.042326
428,-0.048945,0.0020496,0.17192,0.07773,-0.56117,0.073832,0.032257
429,-0.051219,-0.0099683,0.14496,0.075456,-0.47834,0.053369,0.022188
430,-0.04992,-0.019388,0.12158,0.065387,-0.39584,0.029658,0.014717
431,-0.046671,-0.027833,0.10631,0.05207,-0.32438,0.0072465,0.013743
432,-0.039851,-0.035303,0.095594,0.038428,-0.26072,-0.010943,0.01894
433,-0.034978,-0.042449,0.083251,0.023812,-0.19511,-0.025884,0.025761
434,-0.034329,-0.050894,0.060515,0.0088706,-0.12917,-0.038876,0.024137
435,-0.04115,-0.05739,0.031282,-0.0031473,-0.067459,-0.04862,0.016016
436,-0.051544,-0.059989,0.0075714,-0.007045,-0.013216,-0.051544,0.009845
437,-0.054142,-0.055441,0.0033489,0.00042559,0.032257,-0.046022,0.010495
438,-0.043423,-0.042774,0.025761,0.016666,0.065387,-0.035953,0.014717
439,-0.02426,-0.027183,0.067986,0.032582,0.088773,-0.031081,0.01764
440,-0.0060706,-0.015165,0.11086,0.040702,0.10436,-0.038876,0.015367
441,0.00075039,-0.010943,0.13847,0.038428,0.11216,-0.059664,0.0052977
442,-0.007045,-0.012567,0.14594,0.030633,0.11411,-0.084349,-0.0093186
443,-0.024585,-0.017114,0.13132,0.018615,0.10696,-0.098965,-0.021661
444,-0.039526,-0.020687,0.099167,0.0062721,0.087799,-0.098641,-0.024909
445,-0.041799,-0.022311,0.057267,-0.0083442,0.057592,-0.085973,-0.020687
446,-0.034329,-0.02426,0.0069217,-0.02361,0.029658,-0.070058,-0.013216
447,-0.023935,-0.027508,-0.047646,-0.041475,0.021538,-0.059014,-0.011917
448,-0.01549,-0.033354,-0.10416,-0.064536,0.038428,-0.058365,-0.018413
449,-0.012567,-0.036927,-0.16068,-0.091495,0.065712,-0.068434,-0.025884
450,-0.017114,-0.037577,-0.21622,-0.11683,0.091047,-0.085648,-0.033354
451,-0.02426,-0.035953,-0.26169,-0.1321,0.11281,-0.10546,-0.037252
452,-0.029457,-0.036927,-0.28638,-0.13177,0.14107,-0.11975,-0.036602
453,-0.03303,-0.038876,-0.28313,-0.11586,0.17615,-0.12235,-0.033679
454,-0.036278,-0.045372,-0.25747,-0.091495,0.20408,-0.11586,-0.029132
455,-0.038227,-0.05804,-0.22921,-0.06616,0.21025,-0.10481,-0.021012
456,-0.038551,-0.073955,-0.2094,-0.042124,0.18751,-0.09182,-0.01549
457,-0.036602,-0.082076,-0.19089,-0.015815,0.13749,-0.080451,-0.013216
458,-0.031081,-0.07428,-0.16165,0.011144,0.062789,-0.068434,-0.012567
459,-0.02361,-0.051544,-0.12268,0.030633,-0.055766,-0.056416,-0.0083442
460,-0.014191,-0.021337,-0.086623,0.03518,-0.23668,-0.046671,-0.0015233
461,-0.0054209,0.0023744,-0.059339,0.020888,-0.45755,-0.045372,0.0072465
462,0.0036737,0.016016,-0.035628,-0.0083442,-0.65893,-0.053817,0.011144
463,0.012443,0.016016,-0.0096434,-0.040175,-0.77294,-0.065835,0.0043233
464,0.022512,0.0078962,0.024137,-0.062262,-0.74955,-0.072981,-0.0096434
465,0.032257,-0.0024977,0.063438,-0.068109,-0.57481,-0.072981,-0.025234
466,0.03453,-0.014516,0.12385,-0.057065,-0.29937,-0.064861,-0.034329
467,0.028034,-0.027833,0.23559,-0.035303,-0.0076946,-0.051219,-0.037902
468,0.016666,-0.038551,0.40156,-0.01484,0.22194,-0.037252,-0.037252
469,0.0062721,-0.045697,0.57111,-0.0031473,0.35836,-0.024909,-0.03238
470,0.0017248,-0.048945,0.6783,0.0010752,0.42495,-0.013216,-0.025884
471,0.0033489,-0.049595,0.68447,0.0020496,0.46685,-0.00087364,-0.018088
472,0.0072465,-0.046671,0.58768,0.0065969,0.5159,0.014717,-0.010618
473,0.011469,-0.042124,0.41326,0.017316,0.57533,0.034855,-0.0034721
474,0.016341,-0.036602,0.19856,0.034206,0.62211,0.058891,0.0033489
475,0.025436,-0.031406,-0.022311,0.05207,0.62795,0.07773,0.012119
476,0.040052,-0.022961,-0.22434,0.066037,0.58021,0.084551,0.019914
477,0.057917,-0.011917,-0.38934,0.070259,0.48926,0.080653,0.030633
478,0.073832,-0.0015233,-0.51245,0.063438,0.38207,0.065387,0.042326
479,0.083901,0.0033489,-0.59819,0.045899,0.28463,0.044275,0.05207
480,0.088448,-0.0021729,-0.669,0.021863,0.21577,0.022837,0.056292
481,0.08585,-0.018088,-0.74111,-0.0024977,0.1768,0.013418,0.055318
482,0.07773,-0.037252,-0.7973,-0.020037,0.16056,0.015692,0.046548
483,0.068635,-0.051544,-0.79438,-0.028482,0.15633,0.024786,0.033556
484,0.059865,-0.054142,-0.70083,-0.026858,0.15828,0.035505,0.019589
485,0.055643,-0.045047,-0.52349,-0.016789,0.16023,0.047847,0.011794
486,0.053694,-0.030106,-0.30554,-0.00054884,0.16153,0.059865,0.012119
487,0.052395,-0.012892,-0.11098,0.018615,0.16868,0.067011,0.01764
488,0.050771,0.003024,0.016341,0.040702,0.17777,0.06896,0.023487
489,0.049147,0.015367,0.065387,0.062139,0.18329,0.068635,0.024137
490,0.0433,0.021213,0.060515,0.079029,0.18102,0.070909,0.020564
491,0.033556,0.020239,0.03518,0.089098,0.17095,0.074806,0.018615
492,0.022188,0.020888,0.016991,0.091047,0.15471,0.080328,0.021538
493,0.016341,0.023162,0.01829,0.086824,0.1336,0.083901,0.028359
494,0.017965,0.025111,0.039078,0.078704,0.10371,0.086824,0.036154
495,0.022837,0.029983,0.076106,0.06961,0.062464,0.089748,0.04395
496,0.028034,0.037454,0.13295,0.059865,0.018615,0.093321,0.049147
497,0.028034,0.044924,0.21123,0.050446,-0.019388,0.097543,0.049472
498,0.021538,0.049796,0.31094,0.040702,-0.046671,0.10339,0.049147
499,0.011794,0.049472,0.42625,0.032906,-0.068758,0.10469,0.048822
500,0.0095202,0.042651,0.53733,0.029983,-0.087272,0.099167,0.048822
501,0.016016,0.033556,0.61788,0.033556,-0.10026,0.084226,0.046873
502,0.023487,0.030308,0.64322,0.041676,-0.098316,0.063763,0.040702
503,0.028034,0.033556,0.60262,0.054668,-0.071357,0.044275,0.035505
504,0.027385,0.039727,0.48504,0.071234,-0.014516,0.033556,0.032906
505,0.024786,0.039727,0.28723,0.081952,0.067661,0.033881,0.032582
506,0.021863,0.032906,0.017965,0.083576,0.16056,0.042326,0.03453
507,0.018615,0.021863,-0.27339,0.076106,0.23981,0.05142,0.041027
508,0.016991,0.013093,-0.51472,0.061165,0.28788,0.050446,0.046548
509,0.014392,0.0072465,-0.64269,0.044924,0.30445,0.032906,0.048822
510,0.009845,0.0036737,-0.63685,0.029009,0.29697,0.00075039,0.046873
511,0.0010752,-0.00054884,-0.52381,0.013418,0.26482,-0.038876,0.041351
512,-0.010618,-0.0054209,-0.35751,-0.00087364,0.19109,-0.07493,0.029333
513,-0.020687,-0.010293,-0.19771,-0.011917,0.050771,-0.10026,0.013418
514,-0.024585,-0.014516,-0.085324,-0.022636,-0.16945,-0.11683,-0.0028225
515,-0.025559,-0.019712,-0.034654,-0.03173,-0.44196,-0.12885,-0.01549
516,-0.027183,-0.02426,-0.035953,-0.034004,-0.69791,-0.14119,-0.020687
517,-0.029132,-0.026858,-0.062912,-0.028157,-0.86714,-0.15029,-0.018738
518,-0.030756,-0.028482,-0.087597,-0.018413,-0.90936,-0.15093,-0.012567
519,-0.030431,-0.029782,-0.098641,-0.0099683,-0.82881,-0.13892,-0.0060706
520,-0.028482,-0.034329,-0.096042,-0.0028225,-0.66543,-0.11618,-0.0018481
521,-0.027508,-0.038227,-0.084999,0.0056225,-0.47152,-0.084024,-0.0018481
522,-0.027508,-0.037902,-0.072656,0.016016,-0.28995,-0.046996,-0.0037969
523,-0.025884,-0.035628,-0.063237,0.02641,-0.15191,-0.010293,-0.0060706
524,-0.024909,-0.033354,-0.055116,0.033881,-0.063886,0.019914,-0.0024977
525,-0.025884,-0.031081,-0.049595,0.033556,-0.01484,0.04395,0.0056225
526,-0.023935,-0.028807,-0.045047,0.028034,0.013743,0.066362,0.015367
527,-0.013216,-0.024909,-0.04115,0.021863,0.033881,0.0865,0.021538
528,0.0043233,-0.021661,-0.034329,0.017316,0.047523,0.10274,0.022837
529,0.026085,-0.020362,-0.025234,0.015042,0.049472,0.10826,0.019264
530,0.044275,-0.019712,-0.015165,0.010819,0.032906,0.10112,0.013093
531,0.054993,-0.019712,-0.0080194,-0.00054884,-0.0015233,0.081952,0.0036737
532,0.054993,-0.019063,-0.0050961,-0.01614,-0.039851,0.057267,-0.0089938
533,0.0433,-0.018738,-0.008669,-0.033354,-0.071682,0.032906,-0.021986
534,0.023487,-0.010618,-0.01484,-0.04862,-0.092469,0.012119,-0.031406
535,0.00075039,0.017316,-0.018088,-0.05804,-0.10221,-0.0037969,-0.037902
536,-0.021337,0.066362,-0.013866,-0.057715,-0.09929,-0.01484,-0.039526
537,-0.036278,0.12288,0.0023744,-0.047646,-0.090845,-0.017114,-0.035303
538,-0.035628,0.16738,0.031282,-0.027183,-0.081751,-0.0099683,-0.025559
539,-0.021012,0.18849,0.065387,-0.0015233,-0.078178,0.0059473,-0.01549
540,-0.00054884,0.18427,0.095269,0.01829,-0.081426,0.025436,-0.007045
541,0.015042,0.16185,0.11151,0.028034,-0.082725,0.043625,-0.0047713
542,0.015692,0.13262,0.11151,0.028359,-0.065186,0.055643,-0.0096434
543,0.0010752,0.10371,0.098193,0.026085,-0.022961,0.059865,-0.015165
544,-0.016464,0.077405,0.076106,0.02706,0.05142,0.059216,-0.013216
545,-0.030106,0.053369,0.05142,0.032257,0.16478,0.053694,-0.0047713
546,-0.034654,0.03583,0.030633,0.038103,0.31419,0.042326,0.0039985
547,-0.030756,0.027385,0.018615,0.039727,0.47822,0.025111,0.0078962
548,-0.023285,0.02641,0.015692,0.037454,0.62406,0.0049729,0.003024
549,-0.013541,0.031932,0.015367,0.031932,0.72215,-0.01614,-0.008669
550,-0.0080194,0.040377,0.014392,0.026735,0.74359,-0.034654,-0.021012
551,-0.0099683,0.046873,0.011144,0.024137,0.67862,-0.048296,-0.027833
552,-0.018088,0.050446,0.010819,0.024137,0.53441,-0.05804,-0.028157
553,-0.027508,0.048497,0.016016,0.023162,0.33563,-0.059339,-0.024585
554,-0.034004,0.042651,0.028684,0.016991,0.11768,-0.055766,-0.018413
555,-0.035628,0.034855,0.042651,0.0062721,-0.075579,-0.053168,-0.01549
556,-0.033679,0.026735,0.05272,-0.0015233,-0.21037,-0.051544,-0.015815
557,-0.029782,0.019589,0.050446,0.00042559,-0.27631,-0.048296,-0.018738
558,-0.021661,0.012443,0.038428,0.0049729,-0.28605,-0.041475,-0.023935
559,-0.011267,0.0017248,0.021863,0.0046481,-0.26364,-0.035628,-0.026209
560,-0.0018481,-0.010293,0.0059473,-0.0034721,-0.23051,-0.032705,-0.024909
561,0.0023744,-0.021012,-0.00022403,-0.012242,-0.20063,-0.035303,-0.020687
562,0.0026992,-0.026209,0.0062721,-0.017764,-0.18601,-0.04115,-0.01614
563,0.0056225,-0.025234,0.025761,-0.017114,-0.18796,-0.045372,-0.0089938
564,0.010819,-0.018738,0.049472,-0.012242,-0.20453,-0.045047,-0.0021729
565,0.016666,-0.007045,0.073832,-0.0031473,-0.22434,-0.042449,0.00075039
566,0.019264,0.0088706,0.099817,0.0091954,-0.24058,-0.039851,-0.00054884
567,0.015042,0.02641,0.12872,0.019589,-0.25325,-0.036927,-0.0047713
568,0.003024,0.040377,0.15958,0.025436,-0.2591,-0.035628,-0.010293
569,-0.0099683,0.047847,0.18654,0.02706,-0.25357,-0.036278,-0.013541
570,-0.017439,0.050121,0.20213,0.026735,-0.23668,-0.037577,-0.013216
571,-0.01614,0.047198,0.19823,0.025111,-0.2094,-0.036602,-0.0099683
572,-0.0054209,0.041676,0.17777,0.026735,-0.17335,-0.036278,-0.0034721
573,0.0088706,0.033231,0.14496,0.03518,-0.13242,-0.035953,0.0069217
574,0.019264,0.022512,0.10989,0.050446,-0.085648,-0.037902,0.019914
575,0.022512,0.013743,0.083901,0.075781,-0.034329,-0.036927,0.036154
576,0.024461,0.0088706,0.071558,0.10826,0.0088706,-0.033354,0.052395
577,0.02706,0.0069217,0.069285,0.13847,0.03583,-0.029132,0.063438
578,0.031607,0.0056225,0.069285,0.15698,0.048822,-0.027508,0.067011
579,0.03583,0.0043233,0.069285,0.15861,0.055643,-0.029782,0.065062
580,0.037778,0.0085458,0.071234,0.14334,0.06831,-0.033679,0.062789
581,0.039727,0.015367,0.073832,0.11638,0.094945,-0.032055,0.062464
582,0.043625,0.022837,0.076106,0.079029,0.131,-0.02361,0.064413
583,0.051096,0.028034,0.078379,0.036154,0.1664,-0.012242,0.065062
584,0.054668,0.029009,0.083251,-0.0041217,0.19239,-0.0050961,0.064413
585,0.049796,0.022512,0.088448,-0.037902,0.20213,0.00075039,0.062464
586,0.039078,0.012768,0.087799,-0.06616,0.19953,0.003024,0.057267
587,0.023812,0.0039985,0.081303,-0.092469,0.19466,-0.00022403,0.049796
588,0.009845,-0.00022403,0.067336,-0.11618,0.2057,-0.0089938,0.040377
589,-0.0018481,-0.0011985,0.048497,-0.13729,0.24371,-0.021661,0.029009
590,-0.010618,0.00075039,0.026735,-0.15743,0.31224,-0.032705,0.014392
591,-0.014191,0.00075039,0.0091954,-0.17789,0.40059,-0.040825,-0.0018481
592,-0.012892,0.0023744,0.0069217,-0.19576,0.49251,-0.045372,-0.020037
593,-0.0083442,0.0023744,0.038103,-0.2042,0.56721,-0.044723,-0.038876
594,-0.0067202,0.00075039,0.11054,-0.19738,0.60554,-0.035303,-0.056741
595,-0.0083442,-0.0044465,0.21252,-0.17724,0.5958,-0.018413,-0.07428
596,-0.013216,-0.010618,0.32069,-0.14964,0.53961,0.0023744,-0.083375
597,-0.019063,-0.012567,0.40903,-0.12398,0.45353,0.021213,-0.075904
598,-0.024585,-0.011592,0.46263,-0.10546,0.35706,0.03518,-0.056741
599,-0.026533,-0.008669,0.47984,-0.09182,0.26839,0.047198,-0.037252
600,-0.024585,-0.0047713,0.4662,-0.077853,0.19563,0.059865,-0.024585
601,-0.018738,0.00010078,0.42787,-0.058689,0.14529,0.071883,-0.020037
602,-0.010293,0.0049729,0.37298,-0.033354,0.11768,0.080978,-0.022311
603,-0.0047713,0.0075714,0.3038,-0.0060706,0.10371,0.088448,-0.026858
604,-0.0041217,0.009845,0.2148,0.017965,0.093321,0.091047,-0.030431
605,-0.0050961,0.010819,0.089423,0.035505,0.078055,0.086824,-0.025559
606,-0.0054209,0.0095202,-0.10903,0.047523,0.057267,0.078704,-0.013541
607,-0.0024977,-0.0011985,-0.45723,0.054668,0.03453,0.070584,0.00042559
608,0.003024,-0.022636,-1.0006,0.05272,0.0062721,0.065062,0.0088706
609,0.0091954,-0.048296,-1.6434,0.042651,-0.03238,0.062789,0.0072465
610,0.019264,-0.070707,-2.1904,0.028359,-0.0824,0.064413,-0.0015233
611,0.028359,-0.081751,-2.4623,0.016666,-0.13534,0.063113,-0.0099683
612,0.03453,-0.077853,-2.3752,0.011469,-0.18407,0.054993,-0.013866
613,0.039727,-0.060638,-1.9702,0.013743,-0.23474,0.039727,-0.017764
614,0.044924,-0.034004,-1.3777,0.023162,-0.32471,0.019914,-0.025234
615,0.048172,-0.0034721,-0.75475,0.038103,-0.48549,-0.0044465,-0.033354
616,0.049796,0.022837,-0.22629,0.053369,-0.69824,-0.032055,-0.038551
617,0.049472,0.039727,0.15698,0.067336,-0.88922,-0.063237,-0.041799
618,0.044924,0.044275,0.40221,0.075781,-0.98699,-0.09117,-0.04115
619,0.038428,0.036479,0.52109,0.073832,-0.96198,-0.11326,-0.037577
620,0.034855,0.016341,0.51232,0.056942,-0.83628,-0.12852,-0.034654
621,0.033556,-0.007045,0.3863,0.033556,-0.66348,-0.13502,-0.036927
622,0.030957,-0.02426,0.19499,0.016666,-0.5001,-0.13534,-0.042449
623,0.023812,-0.02426,0.013743,0.016666,-0.3783,-0.12917,-0.042774
624,0.013418,-0.0037969,-0.10124,0.029009,-0.30944,-0.1178,-0.035953
625,0.00042559,0.031932,-0.12722,0.046873,-0.29093,-0.10156,-0.023285
626,-0.010618,0.070909,-0.075579,0.064413,-0.31204,-0.084674,-0.0067202
627,-0.017439,0.10404,0.022837,0.075781,-0.35004,-0.069733,0.008221
628,-0.014516,0.12515,0.1271,0.080653,-0.37603,-0.060638,0.017965
629,-0.0073698,0.1284,0.20278,0.076431,-0.36076,-0.057065,0.022512
630,0.0014,0.11346,0.23591,0.068635,-0.288,-0.060638,0.021213
631,0.008221,0.08585,0.22747,0.062789,-0.16458,-0.067134,0.018615
632,0.0075714,0.057267,0.19693,0.064413,-0.027508,-0.072656,0.01894
633,-0.0018481,0.035505,0.16218,0.072858,0.080978,-0.076554,0.022188
634,-0.012242,0.019264,0.14074,0.078379,0.13295,-0.080127,0.024461
635,-0.017114,0.0072465,0.14724,0.076431,0.12743,-0.082725,0.024137
636,-0.01549,-0.0060706,0.19044,0.064737,0.087474,-0.084024,0.022188
637,-0.008669,-0.020037,0.26644,0.047198,0.038103,-0.079152,0.022188
638,-0.0015233,-0.034978,0.36713,0.029983,-0.0018481,-0.065835,0.02706
639,0.0010752,-0.051544,0.50128,0.01894,-0.024585,-0.047646,0.036479
640,-0.0031473,-0.072006,0.66791,0.017965,-0.028157,-0.028482,0.047523
641,-0.012567,-0.10221,0.84557,0.028034,-0.013541,-0.013866,0.059216
642,-0.020037,-0.14801,0.99174,0.042975,0.015367,-0.0063954,0.071883
643,-0.022311,-0.20518,1.059,0.056292,0.05142,-0.0037969,0.080978
644,-0.021661,-0.26202,1.034,0.064088,0.090072,-0.0011985,0.084226
645,-0.020037,-0.29612,0.94399,0.068635,0.1219,-0.0011985,0.081303
646,-0.014191,-0.29028,0.83388,0.069934,0.1349,-0.0031473,0.075131
647,-0.0034721,-0.24513,0.74164,0.067986,0.1258,-0.0076946,0.065387
648,0.011469,-0.17237,0.68415,0.06084,0.097868,-0.011592,0.052395
649,0.02641,-0.092145,0.66303,0.045899,0.056292,-0.012567,0.039402
650,0.038428,-0.017764,0.66693,0.027709,0.017316,-0.008669,0.027709
651,0.045899,0.040377,0.67992,0.013093,0.0010752,0.00075039,0.019914
652,0.049796,0.082927,0.69064,0.0069217,0.020888,0.016666,0.020564
653,0.049472,0.11086,0.69129,0.011794,0.070584,0.042651,0.02641
654,0.047198,0.12645,0.6822,0.024786,0.13457,0.073832,0.032582
655,0.043625,0.13555,0.66043,0.040702,0.19369,0.10436,0.038753
656,0.042975,0.14399,0.61074,0.054668,0.23624,0.12905,0.040377
657,0.042326,0.15211,0.47497,0.065712,0.23883,0.14237,0.037778
658,0.035505,0.16153,0.18979,0.075131,0.17712,0.14107,0.033881
659,0.021213,0.1677,-0.23116,0.075781,0.049147,0.13132,0.030633
660,0.0017248,0.1677,-0.67615,0.063438,-0.11131,0.11638,0.027385
661,-0.015815,0.16121,-1.0045,0.0433,-0.24968,0.097868,0.027709
662,-0.02426,0.14756,-1.1211,0.026735,-0.32503,0.080328,0.031607
663,-0.020362,0.13327,-1.0143,0.01894,-0.3286,0.067661,0.035505
664,-0.0054209,0.12093,-0.7619,0.021538,-0.27306,0.059541,0.038103
665,0.016341,0.11151,-0.47607,0.030957,-0.16653,0.055968,0.035505
666,0.03518,0.10404,-0.24383,0.041676,-0.0044465,0.054019,0.028034
667,0.045249,0.096569,-0.10351,0.050121,0.20928,0.04395,0.016991
668,0.046548,0.088448,-0.038551,0.054344,0.44574,0.021863,0.0043233
669,0.041027,0.080003,-0.013866,0.050446,0.65426,-0.0067202,-0.0080194
670,0.029658,0.074157,0.0017248,0.042001,0.78808,-0.03238,-0.014516
671,0.014717,0.066037,0.028684,0.032906,0.82511,-0.046347,-0.014516
672,0.00010078,0.048172,0.064088,0.020564,0.77639,-0.046671,-0.0083442
673,-0.011267,0.013418,0.084876,0.0069217,0.67245,-0.037252,-0.0018481
674,-0.017764,-0.036927,0.091047,-0.0037969,0.54838,-0.027183,0.0010752
675,-0.018738,-0.088247,0.095919,-0.0060706,0.42917,-0.019712,-0.0018481
676,-0.021012,-0.1256,0.10599,-0.0018481,0.31744,-0.019712,-0.0076946
677,-0.025559,-0.13957,0.10566,-0.0018481,0.19239,-0.031406,-0.010943
678,-0.029782,-0.1308,0.075781,-0.0096434,0.020564,-0.055116,-0.0054209
679,-0.032055,-0.10644,0.0010752,-0.027183,-0.22304,-0.084999,0.0049729
680,-0.031081,-0.076554,-0.11488,-0.04992,-0.52284,-0.11358,0.013743
681,-0.027183,-0.048945,-0.24708,-0.076879,-0.81971,-0.13534,0.016016
682,-0.020687,-0.026533,-0.35394,-0.10514,-1.0364,-0.14639,0.0095202
683,-0.012567,-0.0093186,-0.40461,-0.12722,-1.1185,-0.13827,0.00075039
684,-0.0034721,0.0052977,-0.39324,-0.13892,-1.0539,-0.11033,-0.0047713
685,0.0039985,0.016666,-0.33965,-0.13664,-0.87883,-0.069733,-0.0067202
686,0.0056225,0.02706,-0.27631,-0.11975,-0.65276,-0.029457,-0.0041217
687,0.0059473,0.032582,-0.22791,-0.092469,-0.42767,0.0039985,0.00042559
688,0.010819,0.033881,-0.20485,-0.062912,-0.23506,0.029009,0.0069217
689,0.01764,0.029983,-0.20843,-0.035628,-0.078178,0.046223,0.013093
690,0.023812,0.025111,-0.22467,-0.0080194,0.049472,0.058566,0.020239
691,0.025111,0.024137,-0.24058,0.024137,0.15861,0.070259,0.030957
692,0.023162,0.029009,-0.24708,0.057592,0.25183,0.0852,0.040052
693,0.022837,0.039402,-0.2448,0.090072,0.32004,0.10274,0.041676
694,0.022837,0.048172,-0.23279,0.11378,0.35024,0.11768,0.039078
695,0.021538,0.053694,-0.21395,0.11736,0.33238,0.1258,0.030633
696,0.01829,0.051745,-0.19154,0.093645,0.28236,0.11801,0.016666
697,0.011794,0.046873,-0.17042,0.043625,0.23591,0.099492,-0.0018481
698,0.00010078,0.039078,-0.15776,-0.017764,0.23494,0.07773,-0.017764
699,-0.015165,0.029333,-0.15711,-0.070707,0.2947,0.06084,-0.025234
700,-0.029132,0.020239,-0.1649,-0.10384,0.38857,0.053694,-0.025559
701,-0.039851,0.014717,-0.17789,-0.11261,0.46717,0.05207,-0.023935
702,-0.048296,0.014392,-0.19251,-0.10351,0.49608,0.050771,-0.021661
703,-0.054467,0.016016,-0.20453,-0.084999,0.47432,0.046548,-0.019712
704,-0.058689,0.016016,-0.2081,-0.065835,0.4191,0.034855,-0.020362
705,-0.058365,0.012443,-0.20193,-0.054467,0.35512,0.019264,-0.022636
706,-0.051868,0.0095202,-0.18829,-0.054467,0.29827,0.0065969,-0.027183
707,-0.047646,0.011469,-0.1714,-0.060963,0.24078,-0.00022403,-0.033679
708,-0.048945,0.018615,-0.15808,-0.06551,0.17452,-0.0050961,-0.037577
709,-0.057065,0.02706,-0.14931,-0.065835,0.10014,-0.007045,-0.038227
710,-0.068109,0.034206,-0.14866,-0.061613,0.028034,-0.0028225,-0.037577
711,-0.077853,0.041351,-0.16003,-0.052843,-0.029132,0.0075714,-0.034329
712,-0.080776,0.047198,-0.18666,-0.042124,-0.063237,0.016666,-0.029457
713,-0.072981,0.05207,-0.21882,-0.029457,-0.079152,0.025111,-0.02361
714,-0.059664,0.053044,-0.21297,-0.016464,-0.08305,0.030308,-0.020362
715,-0.041475,0.046548,-0.11845,-0.0047713,-0.080127,0.027385,-0.018738
716,-0.023935,0.036479,0.065712,0.0088706,-0.072981,0.015042,-0.01484
717,-0.0076946,0.026085,0.27814,0.022512,-0.057715,-0.00054884,-0.0067202
718,0.0043233,0.014717,0.44249,0.032906,-0.035628,-0.011592,0.0033489
719,0.010819,0.00010078,0.5146,0.036804,-0.0089938,-0.015165,0.010819
720,0.014392,-0.015165,0.49673,0.03453,0.01829,-0.01484,0.0088706
721,0.018615,-0.027833,0.41196,0.026735,0.04395,-0.013216,0.0026992
722,0.023487,-0.034329,0.29568,0.021538,0.06084,-0.0080194,-0.0018481
723,0.029333,-0.03238,0.18004,0.02706,0.06019,0.003024,-0.0031473
724,0.034855,-0.026209,0.087799,0.044599,0.041676,0.013743,-0.0034721
725,0.037778,-0.019712,0.022837,0.071234,0.013093,0.018615,-0.0028225
726,0.037778,-0.015165,-0.015165,0.10079,-0.013866,0.017316,0.0036737
727,0.033556,-0.012567,-0.035628,0.12125,-0.039201,0.011144,0.011144
728,0.025436,-0.015165,-0.051219,0.12548,-0.062912,-0.00054884,0.013418
729,0.013418,-0.023935,-0.064536,0.11346,-0.079477,-0.018738,0.010819
730,0.0010752,-0.034004,-0.070707,0.091047,-0.078178,-0.039851,0.0088706
731,-0.0080194,-0.036927,-0.067134,0.06831,-0.049595,-0.057065,0.010819
732,-0.0093186,-0.031406,-0.056741,0.053369,-0.0021729,-0.06551,0.016666
733,-0.0015233,-0.020037,-0.041475,0.049147,0.050771,-0.06551,0.023812
734,0.010819,-0.0060706,-0.025559,0.054668,0.08585,-0.058689,0.025761
735,0.024786,0.0052977,-0.012567,0.069285,0.0865,-0.04862,0.022837
736,0.036804,0.0091954,-0.0047713,0.0865,0.050771,-0.040825,0.019264
737,0.042975,0.0062721,-0.0021729,0.098517,-0.012242,-0.034978,0.019589
738,0.042001,-0.0044465,-0.0076946,0.094295,-0.093769,-0.028157,0.022837
739,0.036804,-0.012892,-0.020687,0.074482,-0.18829,-0.018738,0.025761
740,0.027709,-0.010943,-0.040175,0.0433,-0.28508,-0.0044465,0.028684
741,0.014392,0.0026992,-0.060638,0.013743,-0.37927,0.0085458,0.031282
742,-0.0011985,0.024137,-0.076554,-0.0037969,-0.46762,0.0091954,0.031607
743,-0.01549,0.041676,-0.081751,-0.0060706,-0.54785,-0.0021729,0.030308
744,-0.02361,0.047523,-0.069408,0.0017248,-0.61119,-0.020037,0.025761
745,-0.020037,0.04395,-0.041799,0.017316,-0.64009,-0.033679,0.020888
746,-0.0057458,0.033231,-0.011267,0.036154,-0.62418,-0.033679,0.016341
747,0.013418,0.020239,0.010819,0.051096,-0.57026,-0.021661,0.015692
748,0.032906,0.0088706,0.012768,0.055643,-0.49491,-0.0057458,0.017316
749,0.046223,-0.00022403,-0.0041217,0.048172,-0.4163,0.0072465,0.019264
750,0.05207,-0.0080194,-0.031081,0.030633,-0.3416,0.012119,0.020564
751,0.049472,-0.014516,-0.059664,0.0085458,-0.26722,0.0072465,0.024786
752,0.039402,-0.01614,-0.079802,-0.013216,-0.18471,-0.0054209,0.029983
753,0.027709,-0.013541,-0.087922,-0.031406,-0.080127,-0.020362,0.032582
754,0.023162,-0.007045,-0.085648,-0.039851,0.045899,-0.030106,0.031932
755,0.02641,0.00010078,-0.079152,-0.037252,0.18069,-0.027833,0.028034
756,0.030308,0.0039985,-0.071682,-0.028482,0.29438,-0.01614,0.022512
757,0.031607,0.0049729,-0.065835,-0.017439,0.35024,-0.0028225,0.01764
758,0.030633,0.0043233,-0.057065,-0.0057458,0.33173,0.0039985,0.012119
759,0.028359,0.0023744,-0.038227,0.0020496,0.2619,0.00010078,0.0043233
760,0.025436,0.0017248,-0.0076946,0.0033489,0.18037,-0.010943,-0.0047713
761,0.022837,0.0026992,0.024137,-0.0015233,0.1219,-0.025559,-0.015165
762,0.021863,0.0062721,0.048497,-0.008669,0.11606,-0.039201,-0.021337
763,0.019264,0.012119,0.056617,-0.011917,0.18979,-0.048945,-0.020687
764,0.015042,0.021538,0.05142,-0.0076946,0.34017,-0.052843,-0.01484
765,0.013418,0.028359,0.040052,-0.0031473,0.52921,-0.054467,-0.008669
766,0.013093,0.026085,0.030957,-0.0031473,0.70266,-0.054792,-0.0021729
767,0.012119,0.014717,0.029009,-0.0080194,0.79913,-0.052518,0.0036737
768,0.0075714,-0.0011985,0.033231,-0.015815,0.78386,-0.047646,0.0065969
769,-0.0031473,-0.017114,0.047847,-0.022636,0.65654,-0.04115,0.0043233
770,-0.016464,-0.031406,0.074157,-0.024585,0.45223,-0.037902,-0.0031473
771,-0.030756,-0.042449,0.10761,-0.02361,0.22779,-0.039851,-0.014516
772,-0.042124,-0.050569,0.13912,-0.019712,0.031932,-0.047321,-0.024585
773,-0.048296,-0.056741,0.16835,-0.012567,-0.10579,-0.055766,-0.030756
774,-0.046022,-0.05739,0.20668,-0.0021729,-0.17724,-0.060313,-0.034004
775,-0.037902,-0.051219,0.26092,0.013093,-0.18894,-0.059989,-0.032055
776,-0.024585,-0.04115,0.32491,0.034206,-0.16393,-0.055116,-0.022636
777,-0.0076946,-0.028482,0.38597,0.055318,-0.1269,-0.046996,-0.0080194
778,0.0039985,-0.017764,0.42592,0.069285,-0.10319,-0.039526,0.0026992
779,0.01017,-0.0099683,0.43404,0.069934,-0.10481,-0.0405,0.0036737
780,0.010819,-0.0044465,0.40221,0.056942,-0.12333,-0.051219,-0.0050961
781,0.0085458,-0.0041217,0.3353,0.034206,-0.13989,-0.065835,-0.020687
782,0.0065969,-0.0073698,0.24403,0.0088706,-0.13989,-0.074605,-0.037252
783,0.0075714,-0.010943,0.14334,-0.0089938,-0.11586,-0.068758,-0.045372
784,0.01017,-0.013541,0.045249,-0.013866,-0.071682,-0.043099,-0.040825
785,0.015367,-0.012567,-0.047646,-0.0076946,-0.017114,-0.00087364,-0.026533
786,0.020564,-0.0083442,-0.13372,0.0049729,0.036154,0.050771,-0.010293
787,0.024786,-0.0015233,-0.21297,0.018615,0.070259,0.097543,0.0017248
788,0.027385,0.0023744,-0.28086,0.030957,0.065062,0.12807,0.0059473
789,0.024786,0.0023744,-0.3338,0.03518,0.011794,0.13457,0.003024
790,0.019914,0.00010078,-0.36985,0.026085,-0.076554,0.11833,-0.0034721
791,0.0091954,-0.0063954,-0.39259,0.0010752,-0.17042,0.087799,-0.010293
792,-0.0060706,-0.016789,-0.42085,-0.031081,-0.23474,0.054668,-0.013216
793,-0.025234,-0.03173,-0.46275,-0.063886,-0.2435,0.022837,-0.012567
794,-0.043748,-0.046347,-0.49101,-0.090845,-0.19024,-0.0044465,-0.012242
795,-0.05804,-0.046347,-0.46502,-0.10936,-0.086948,-0.032705,-0.014516
796,-0.062912,-0.022311,-0.36044,-0.11715,0.041351,-0.061613,-0.017114
797,-0.059664,0.023812,-0.18569,-0.11456,0.16023,-0.085324,-0.016789
798,-0.052518,0.080978,0.019914,-0.10254,0.24143,-0.10221,-0.013866
799,-0.043099,0.13067,0.2044,-0.080776,0.2593,-0.10741,-0.0080194
800,-0.03238,0.15601,0.32848,-0.047971,0.20278,-0.10449,-0.0018481
801,-0.021986,0.15341,0.37688,-0.013866,0.067661,-0.097017,0.0020496
802,-0.01549,0.12613,0.34862,0.014392,-0.12333,-0.094418,0.0052977
803,-0.012567,0.083251,0.24923,0.028684,-0.31334,-0.096367,0.011144
804,-0.010618,0.037129,0.096893,0.031282,-0.44911,-0.10091,0.015692
805,-0.0073698,-0.0021729,-0.064861,0.027709,-0.49296,-0.09929,0.018615
806,-0.0028225,-0.029132,-0.18731,0.022188,-0.42832,-0.087272,0.021863
807,0.00010078,-0.039201,-0.23863,0.018615,-0.26981,-0.064211,0.024137
808,-0.0021729,-0.035303,-0.22012,0.019914,-0.07428,-0.03238,0.024461
809,-0.0083442,-0.02426,-0.15093,0.026735,0.093645,0.0020496,0.023162
810,-0.015165,-0.011917,-0.064861,0.03518,0.19401,0.030957,0.021538
811,-0.01549,-0.0021729,0.014068,0.039402,0.22844,0.050771,0.019589
812,-0.0060706,0.0036737,0.069285,0.036479,0.22194,0.061814,0.01829
813,0.0085458,0.0052977,0.10209,0.02641,0.20668,0.067661,0.021538
814,0.022188,0.0046481,0.11573,0.011469,0.19888,0.071234,0.027709
815,0.032257,0.0010752,0.11995,-0.0054209,0.18102,0.074157,0.031932
816,0.038753,-0.0024977,0.12385,-0.019388,0.12937,0.075781,0.028684
817,0.039078,-0.0047713,0.13425,-0.027508,0.041027,0.076106,0.020888
818,0.033881,-0.0050961,0.15438,-0.032705,-0.061937,0.074482,0.013093
819,0.025761,-0.0060706,0.18037,-0.035303,-0.14671,0.069285,0.0065969
820,0.017965,-0.0067202,0.20765,-0.034004,-0.18342,0.059541,-0.0018481
821,0.015367,-0.0067202,0.23136,-0.026858,-0.16328,0.047847,-0.0080194
822,0.021213,-0.0024977,0.24793,-0.016464,-0.10286,0.040377,-0.0083442
823,0.033881,0.0017248,0.24403,-0.007045,-0.026533,0.044924,-0.00054884
824,0.048822,0.0039985,0.19596,0.0052977,0.051096,0.065712,0.012768
825,0.056942,0.0023744,0.080328,0.020564,0.12028,0.094295,0.02641
826,0.049796,-0.0031473,-0.096367,0.033231,0.17387,0.11931,0.033556
827,0.02641,-0.013541,-0.28605,0.03583,0.20246,0.131,0.031282
828,-0.0034721,-0.024585,-0.4176,0.031607,0.19986,0.12937,0.01894
829,-0.029132,-0.033679,-0.43579,0.024461,0.17062,0.11638,0.0046481
830,-0.042449,-0.036602,-0.32146,0.023162,0.12418,0.099492,-0.0047713
831,-0.040825,-0.033679,-0.10319,0.029333,0.075456,0.080978,-0.0054209
832,-0.029132,-0.025234,0.16413,0.041676,0.036479,0.067336,0.00075039
833,-0.016789,-0.015165,0.42365,0.056617,0.009845,0.059865,0.009845
834,-0.0083442,-0.0021729,0.63542,0.072533,-0.008669,0.059216,0.019264
835,-0.0041217,0.016341,0.77834,0.089748,-0.02361,0.064413,0.028684
836,-0.00087364,0.03453,0.84817,0.10696,-0.036602,0.072208,0.036479
837,0.0059473,0.05272,0.85629,0.12093,-0.04862,0.077405,0.037454
838,0.020564,0.067011,0.81894,0.12872,-0.061937,0.07708,0.035505
839,0.036479,0.080328,0.74683,0.12775,-0.078503,0.071883,0.033231
840,0.050771,0.089748,0.64777,0.1245,-0.10449,0.064737,0.030633
841,0.058891,0.099167,0.53668,0.1232,-0.13242,0.057267,0.029333
842,0.061165,0.10469,0.42625,0.12548,-0.14801,0.050446,0.030633
843,0.060515,0.10501,0.32231,0.1271,-0.14736,0.04395,0.031607
844,0.057267,0.099492,0.2057,0.1219,-0.13957,0.034855,0.032582
845,0.051096,0.086175,0.041351,0.11086,-0.13372,0.019914,0.030957
846,0.043625,0.065062,-0.23409,0.092996,-0.13697,0.0049729,0.023812
847,0.03583,0.042326,-0.66608,0.070259,-0.15093,-0.0089938,0.014392
848,0.028359,0.016991,-1.19,0.041027,-0.17497,-0.017764,0.003024
849,0.021538,-0.0083442,-1.6532,0.0065969,-0.19836,-0.021012,-0.0063954
850,0.01829,-0.038227,-1.9094,-0.028482,-0.20843,-0.021661,-0.011917
851,0.01829,-0.068109,-1.874,-0.056091,-0.19446,-0.022636,-0.012567
852,0.017965,-0.090845,-1.5557,-0.066485,-0.16003,-0.025884,-0.011267
853,0.019589,-0.10384,-1.0737,-0.060638,-0.11098,-0.031081,-0.011267
854,0.020888,-0.10579,-0.59527,-0.040175,-0.054142,-0.035953,-0.0096434
855,0.025436,-0.097991,-0.24123,-0.011917,0.0052977,-0.040825,-0.0047713
856,0.033881,-0.077528,-0.046671,0.019589,0.06019,-0.042774,0.0065969
857,0.041351,-0.048296,0.022837,0.04395,0.095594,-0.043423,0.019589
858,0.040377,-0.012242,0.034206,0.056292,0.096893,-0.049595,0.034206
859,0.032582,0.020564,0.042975,0.054344,0.061165,-0.063886,0.046548
860,0.022188,0.043625,0.078055,0.036804,0.00042559,-0.080127,0.052395
861,0.013418,0.054668,0.13749,0.010495,-0.069408,-0.092145,0.053369
862,0.0065969,0.056942,0.20408,-0.013216,-0.15776,-0.10091,0.051745
863,0.00075039,0.055643,0.25865,-0.026533,-0.2919,-0.11001,0.050121
864,-0.0015233,0.051745,0.28788,-0.027183,-0.45041,-0.11683,0.048497
865,-0.00022403,0.048172,0.2908,-0.016464,-0.55792,-0.12105,0.042651
866,0.0023744,0.045899,0.26969,-0.0024977,-0.54493,-0.11878,0.032906
867,0.0069217,0.044275,0.23591,0.010819,-0.39811,-0.10351,0.024461
868,0.012768,0.041027,0.19888,0.020888,-0.16165,-0.077853,0.021863
869,0.014392,0.038103,0.16445,0.02641,0.0865,-0.04927,0.023487
870,0.016341,0.031932,0.13067,0.02641,0.27781,-0.024909,0.029658
871,0.019914,0.023487,0.094945,0.021863,0.3811,-0.008669,0.034855
872,0.023487,0.017965,0.064413,0.016991,0.40384,-0.0028225,0.037129
873,0.024461,0.016016,0.059216,0.016016,0.38142,-0.0024977,0.038103
874,0.023487,0.01829,0.088124,0.018615,0.35252,-0.0044465,0.038103
875,0.019589,0.025761,0.14367,0.023812,0.34375,-0.0093186,0.033231
876,0.01829,0.0433,0.20765,0.029009,0.36031,-0.01549,0.021538
877,0.022512,0.071883,0.26352,0.031932,0.39377,-0.018738,0.01017
878,0.028359,0.10599,0.30737,0.030633,0.42982,-0.018088,0.0039985
879,0.034206,0.14529,0.33855,0.029983,0.44639,-0.017114,0.0043233
880,0.036479,0.18329,0.35999,0.033231,0.4204,-0.021012,0.0085458
881,0.036154,0.2135,0.3811,0.039078,0.33725,-0.032055,0.013093
882,0.032257,0.22812,0.40351,0.042001,0.17874,-0.050894,0.019264
883,0.022512,0.22324,0.42397,0.036154,-0.071357,-0.079477,0.021538
884,0.0078962,0.20116,0.43502,0.019589,-0.428,-0.11488,0.015692
885,-0.0093186,0.16705,0.42787,-0.0073698,-0.87006,-0.15288,0.0026992
886,-0.02361,0.13165,0.40254,-0.038227,-1.3222,-0.18536,-0.012892
887,-0.028482,0.10209,0.35544,-0.064536,-1.6668,-0.20485,-0.025559
888,-0.024909,0.082927,0.28398,-0.077853,-1.7841,-0.20778,-0.030106
889,-0.019063,0.069934,0.19271,-0.075255,-1.6243,-0.19673,-0.024585
890,-0.015815,0.055968,0.092996,-0.060638,-1.2351,-0.17627,-0.013216
891,-0.015165,0.037129,-0.0073698,-0.0405,-0.74014,-0.14866,0.0023744
892,-0.010943,0.0078962,-0.11033,-0.020037,-0.27956,-0.12008,0.018615
893,-0.0034721,-0.027833,-0.20908,-0.00022403,0.0433,-0.092794,0.033231
894,0.0065969,-0.065835,-0.27858,0.017316,0.19823,-0.068109,0.042001
895,0.017316,-0.10124,-0.29547,0.031282,0.21967,-0.047321,0.047523
896,0.027385,-0.13372,-0.24643,0.037454,0.17062,-0.034329,0.050121
897,0.03583,-0.17205,-0.12885,0.03453,0.11021,-0.028157,0.05142
898,0.041676,-0.21525,0.041676,0.022512,0.075131,-0.026858,0.049472
899,0.042975,-0.25585,0.23234,0.0026992,0.072858,-0.03173,0.0433
900,0.033881,-0.27891,0.39604,-0.017439,0.09397,-0.037902,0.037778
901,0.017965,-0.27664,0.48634,-0.033679,0.12288,-0.04115,0.032257
902,0.003024,-0.24903,0.48147,-0.043423,0.14302,-0.044723,0.026735
903,-0.0050961,-0.20225,0.3876,-0.046347,0.15049,-0.044723,0.01894
904,-0.007045,-0.14931,0.23948,-0.042124,0.15211,-0.043423,0.009845
905,-0.0060706,-0.10026,0.079354,-0.03173,0.15666,-0.044723,-0.0018481
906,-0.0050961,-0.063237,-0.052518,-0.013866,0.17225,-0.046671,-0.012242
907,-0.007045,-0.036278,-0.12755,0.0072465,0.2044,-0.045697,-0.019063
908,-0.013216,-0.013216,-0.14087,0.027709,0.2567,-0.036927,-0.017439
909,-0.021661,0.0072465,-0.10286,0.046548,0.31809,-0.019388,-0.0073698
910,-0.031081,0.022837,-0.034004,0.065387,0.37298,0.0046481,0.0023744
911,-0.037577,0.032906,0.048497,0.079029,0.40124,0.032906,0.0043233
912,-0.040175,0.042001,0.12937,0.078379,0.39474,0.06084,-0.00087364
913,-0.041475,0.05142,0.19076,0.057592,0.36486,0.079354,-0.0093186
914,-0.042774,0.060515,0.18914,0.024786,0.3314,0.086175,-0.021337
915,-0.046022,0.067661,0.053694,-0.0060706,0.31322,0.082277,-0.031406
916,-0.052518,0.070584,-0.22986,-0.027508,0.31744,0.070584,-0.034978
917,-0.061613,0.067011,-0.57741,-0.038876,0.34602,0.054993,-0.032705
918,-0.069733,0.056942,-0.85609,-0.04115,0.38045,0.041351,-0.028157
919,-0.073955,0.046223,-0.95223,-0.037252,0.40708,0.033881,-0.021986
920,-0.074605,0.040052,-0.82491,-0.028482,0.4295,0.03518,-0.01614
921,-0.073631,0.040377,-0.53226,-0.016789,0.45418,0.04395,-0.012567
922,-0.070707,0.044275,-0.18731,-0.0037969,0.48309,0.050121,-0.013541
923,-0.063886,0.049796,0.098517,0.0091954,0.5081,0.053694,-0.015815
924,-0.052518,0.053044,0.25832,0.019264,0.51297,0.06019,-0.017764
925,-0.038227,0.054019,0.27879,0.024461,0.48114,0.071883,-0.019388
926,-0.02361,0.058241,0.19336,0.019914,0.4178,0.083901,-0.018738
927,-0.012242,0.066362,0.06961,0.009845,0.3444,0.089748,-0.016464
928,-0.0047713,0.078379,-0.03173,-0.0031473,0.28496,0.090722,-0.01484
929,-0.0018481,0.093321,-0.076554,-0.010293,0.24208,0.086824,-0.018413
930,0.00075039,0.10956,-0.068109,-0.0041217,0.2044,0.079679,-0.02426
931,0.0023744,0.12385,-0.033354,0.012119,0.15796,0.073182,-0.030106
932,0.0059473,0.13197,-0.0093186,0.03453,0.10339,0.069934,-0.033679
933,0.013093,0.13165,-0.018413,0.056292,0.048822,0.071883,-0.033679
934,0.020564,0.1219,-0.062912,0.074157,-0.0024977,0.078055,-0.03238
935,0.028034,0.10469,-0.12982,0.083901,-0.047646,0.083901,-0.030431
936,0.033881,0.083251,-0.20063,0.0865,-0.090196,0.083901,-0.031406
937,0.038753,0.063113,-0.26527,0.082602,-0.13047,0.078379,-0.035628
938,0.040377,0.046548,-0.31431,0.070259,-0.1688,0.069934,-0.039201
939,0.036804,0.030308,-0.34484,0.047523,-0.20031,0.059865,-0.043423
940,0.027385,0.011469,-0.36466,0.013743,-0.21037,0.046223,-0.051868
941,0.012119,-0.0093186,-0.38447,-0.025234,-0.18374,0.025436,-0.059664
942,-0.007045,-0.026858,-0.40526,-0.061937,-0.10579,-0.0021729,-0.063561
943,-0.025234,-0.039201,-0.39811,-0.092469,0.024137,-0.035628,-0.064536
944,-0.034329,-0.044398,-0.30652,-0.11715,0.18524,-0.067784,-0.068109
945,-0.035953,-0.044073,-0.098316,-0.13534,0.33985,-0.093444,-0.073306
946,-0.033679,-0.04115,0.18459,-0.14671,0.44736,-0.11066,-0.07493
947,-0.03173,-0.042774,0.46393,-0.14964,0.5016,-0.11651,-0.071357
948,-0.034329,-0.052518,0.67862,-0.14152,0.52402,-0.11163,-0.063886
949,-0.039851,-0.067134,0.79523,-0.11748,0.54091,-0.097991,-0.054467
950,-0.044073,-0.075579,0.8079,-0.078827,0.56364,-0.079477,-0.045697
951,-0.039526,-0.072331,0.72929,-0.036927,0.58833,-0.059989,-0.037902
952,-0.026533,-0.058689,0.58605,-0.00022403,0.59742,-0.041475,-0.035628
953,-0.0099683,-0.040175,0.41618,0.028034,0.57014,-0.02426,-0.039851
954,0.0059473,-0.020037,0.25345,0.045574,0.50193,-0.0063954,-0.046996
955,0.017316,-0.0015233,0.11703,0.052395,0.40189,0.01017,-0.051219
956,0.025436,0.012768,0.010495,0.050446,0.28658,0.024137,-0.048296
957,0.030308,0.024786,-0.070058,0.04395,0.17387,0.032257,-0.037577
958,0.030957,0.033231,-0.1334,0.036804,0.074806,0.038428,-0.023285
959,0.029009,0.037778,-0.19121,0.031282,-0.0067202,0.045249,-0.012892
960,0.028684,0.038753,-0.24903,0.027709,-0.067459,0.055318,-0.008669
961,0.029983,0.036804,-0.30587,0.023812,-0.10936,0.067011,-0.0099683
962,0.030957,0.031607,-0.35589,0.019589,-0.13469,0.079029,-0.008669
963,0.029658,0.024786,-0.39357,0.014068,-0.14801,0.092021,-0.0041217
964,0.029333,0.01764,-0.41403,0.0065969,-0.15483,0.10404,0.0014
965,0.026735,0.015042,-0.415,-0.0031473,-0.16035,0.11606,0.0052977
966,0.021538,0.017965,-0.39584,-0.013541,-0.16588,0.12483,0.009845
967,0.012443,0.024137,-0.35979,-0.022636,-0.17659,0.12872,0.014392
968,0.0033489,0.026735,-0.30749,-0.027508,-0.19089,0.12613,0.018615
969,0.00075039,0.021538,-0.23636,-0.027183,-0.20875,0.11736,0.019589
970,0.00010078,0.009845,-0.14964,-0.019712,-0.22856,0.10404,0.019589
971,-0.0028225,-0.007045,-0.050569,-0.0073698,-0.2461,0.090722,0.021213
972,-0.0073698,-0.030106,0.045899,0.0059473,-0.26332,0.080003,0.02706
973,-0.010293,-0.063561,0.11573,0.020239,-0.27826,0.070584,0.03583
974,-0.011917,-0.10189,0.14464,0.033881,-0.2893,0.058566,0.04395
975,-0.01484,-0.13924,0.15211,0.050771,-0.29353,0.044275,0.048497
976,-0.019388,-0.1623,0.16348,0.072208,-0.2893,0.031932,0.047847
977,-0.018088,-0.1636,0.18199,0.092996,-0.28021,0.020564,0.045249
978,-0.007045,-0.14249,0.19336,0.10859,-0.27371,0.011794,0.042001
979,0.011794,-0.10871,0.18264,0.11476,-0.28053,0.0049729,0.043625
980,0.032257,-0.071357,0.14724,0.11281,-0.31659,-0.0018481,0.049796
981,0.044275,-0.039201,0.097868,0.10664,-0.37992,-0.0093186,0.055318
982,0.043625,-0.013866,0.054993,0.099167,-0.45366,-0.018088,0.054993
983,0.039402,0.0065969,0.030633,0.083576,-0.5118,-0.027508,0.046223
984,0.036479,0.021213,0.014068,0.061165,-0.53518,-0.036927,0.031607
985,0.036154,0.031607,-0.021012,0.036154,-0.52381,-0.040175,0.014392
986,0.034206,0.042651,-0.091495,0.010495,-0.48646,-0.033679,-0.0011985
987,0.028359,0.053694,-0.18926,-0.0089938,-0.43547,-0.019388,-0.007045
988,0.020564,0.065062,-0.28216,-0.018738,-0.38382,-0.0067202,-0.0028225
989,0.013093,0.071883,-0.33867,-0.019063,-0.34192,0.00010078,0.0085458
990,0.0088706,0.073832,-0.34257,-0.012892,-0.31074,0.0010752,0.021538
991,0.0065969,0.06961,-0.29937,-0.0021729,-0.2906,-0.00087364,0.033556
992,0.0039985,0.057917,-0.23051,0.012119,-0.28476,-0.00087364,0.040702
993,0.0010752,0.0433,-0.16068,0.024786,-0.28768,0.0023744,0.045574
994,-0.0015233,0.030308,-0.10903,0.036154,-0.28735,0.010819,0.048172
995,-0.0044465,0.022512,-0.081426,0.046223,-0.28378,0.021863,0.05142
996,-0.0041217,0.020888,-0.070707,0.057592,-0.28053,0.032257,0.053694
997,0.0017248,0.023487,-0.06681,0.067986,-0.28411,0.039078,0.057267
998,0.01017,0.028684,-0.063237,0.075131,-0.30165,0.043625,0.060515
999,0.01764,0.030633,-0.058365,0.074157,-0.339,0.043625,0.063763
1000,0.019914,0.02706,-0.050894,0.066037,-0.38967,0.040377,0.063763
1001,0.017316,0.01764,-0.043748,0.053044,-0.43417,0.033231,0.054668
1002,0.012768,0.0065969,-0.041475,0.038103,-0.45106,0.013743,0.041676
1003,0.0091954,-0.00087364,-0.046671,0.023487,-0.4254,-0.018413,0.030633
1004,0.0095202,-0.0028225,-0.055116,0.012443,-0.36109,-0.054467,0.02706
1005,0.012443,0.0020496,-0.060313,0.0026992,-0.28053,-0.085324,0.029983
1006,0.021538,0.0095202,-0.058689,-0.007045,-0.20972,-0.10384,0.03518
1007,0.03583,0.015367,-0.048296,-0.017764,-0.17562,-0.10903,0.035505
1008,0.047523,0.017316,-0.031406,-0.028807,-0.19056,-0.10384,0.031607
1009,0.053369,0.014068,-0.014191,-0.040175,-0.23896,-0.093769,0.024786
1010,0.05272,0.0095202,0.0020496,-0.048945,-0.29547,-0.084674,0.01829
1011,0.042326,0.0065969,0.01829,-0.051219,-0.33315,-0.075904,0.014717
1012,0.025111,0.0065969,0.030633,-0.045372,-0.33607,-0.070707,0.013418
1013,0.011469,0.009845,0.036804,-0.030106,-0.30294,-0.067459,0.015367
1014,0.0062721,0.015692,0.040052,-0.010943,-0.2461,-0.06681,0.01894
1015,0.013093,0.022837,0.044275,0.0065969,-0.17919,-0.066485,0.023812
1016,0.026735,0.029658,0.052395,0.016016,-0.11228,-0.064211,0.028359
1017,0.039402,0.034206,0.057917,0.016991,-0.045372,-0.059989,0.029009
1018,0.044275,0.034855,0.061489,0.010495,0.022837,-0.056091,0.02706
1019,0.042326,0.031932,0.063438,0.00042559,0.083576,-0.052518,0.022512
1020,0.037778,0.028684,0.065387,-0.0063954,0.1284,-0.047971,0.021538
1021,0.03518,0.02641,0.06961,-0.0076946,0.15958,-0.042774,0.023812
1022,0.034855,0.02641,0.073182,-0.0047713,0.18264,-0.035628,0.027709
1023,0.03518,0.031282,0.073182,0.0033489,0.2044,-0.025559,0.030633
1024,0.037778,0.040052,0.073182,0.014717,0.23754,-0.013216,0.030957
1025,0.041351,0.047198,0.076431,0.030308,0.29015,-0.0018481,0.029009
1026,0.039727,0.045574,0.09397,0.04395,0.35447,0.009845,0.025111
1027,0.032582,0.033881,0.13327,0.054668,0.41326,0.020239,0.020888
1028,0.022837,0.019264,0.18751,0.060515,0.44476,0.025111,0.01829
1029,0.011794,0.0046481,0.23754,0.06084,0.43762,0.022188,0.018615
1030,0.00075039,-0.0047713,0.26255,0.053369,0.39864,0.011469,0.016341
1031,-0.0080194,-0.0076946,0.25897,0.040052,0.3431,-0.0083442,0.010495
1032,-0.011917,-0.0054209,0.23364,0.026085,0.29178,-0.031406,0.0043233
1033,-0.011592,-0.0028225,0.20213,0.015692,0.25637,-0.050894,0.0014
1034,-0.0063954,-0.0024977,0.17322,0.01017,0.24403,-0.063561,0.0033489
1035,0.0033489,-0.0047713,0.14821,0.009845,0.24955,-0.062587,0.009845
1036,0.013418,-0.011267,0.12483,0.011144,0.26709,-0.04862,0.019264
1037,0.019589,-0.018738,0.098193,0.012443,0.2908,-0.025884,0.024137
1038,0.020564,-0.024909,0.071883,0.012119,0.31094,-0.0024977,0.023487
1039,0.019589,-0.024909,0.053044,0.01017,0.31192,0.016991,0.019264
1040,0.016666,-0.017114,0.045574,0.0069217,0.27326,0.024786,0.016991
1041,0.014068,-0.0063954,0.047523,0.0043233,0.20018,0.020888,0.016016
1042,0.009845,0.0046481,0.055643,0.0033489,0.12937,0.010495,0.015367
1043,-0.0011985,0.011144,0.065712,0.0046481,0.10047,-0.0050961,0.016666
1044,-0.015165,0.012119,0.073507,0.0065969,0.1245,-0.01614,0.021538
1045,-0.024909,0.0078962,0.076431,0.009845,0.18297,-0.018738,0.02641
1046,-0.024909,-0.00054884,0.074157,0.014068,0.2476,-0.014191,0.026735
1047,-0.019388,-0.0076946,0.061814,0.014392,0.30445,-0.0080194,0.020239
1048,-0.013541,-0.0096434,0.042001,0.0062721,0.35382,-0.0018481,0.011794
1049,-0.013541,-0.0057458,0.023162,-0.0047713,0.39767,0.0020496,0.0049729
1050,-0.019712,0.0052977,0.008221,-0.012892,0.43632,0.003024,-0.00054884
1051,-0.029782,0.01829,-0.0050961,-0.012567,0.47302,-0.00022403,-0.007045
1052,-0.037252,0.026085,-0.017114,-0.010618,0.50453,-0.0073698,-0.015815
1053,-0.038551,0.027709,-0.026858,-0.015815,0.52369,-0.016789,-0.027508
1054,-0.039201,0.024137,-0.03238,-0.03238,0.51719,-0.032055,-0.039526
1055,-0.042124,0.019914,-0.029132,-0.054467,0.4649,-0.054792,-0.044398
1056,-0.045047,0.017316,-0.014516,-0.075255,0.33693,-0.079802,-0.044073
1057,-0.048945,0.016341,0.0095202,-0.084999,0.11183,-0.10871,-0.039201
1058,-0.054467,0.016016,0.053369,-0.078827,-0.18634,-0.13632,-0.028482
1059,-0.060313,0.018615,0.13717,-0.05739,-0.48126,-0.15548,-0.014191
1060,-0.063237,0.025436,0.26644,-0.025559,-0.69044,-0.1597,-0.0028225
1061,-0.059014,0.030308,0.42365,0.0075714,-0.7645,-0.14281,0.0059473
1062,-0.045372,0.030308,0.5906,0.037129,-0.69759,-0.10838,0.011794
1063,-0.03173,0.022188,0.75171,0.058891,-0.52576,-0.064536,0.016341
1064,-0.025234,0.0014,0.88747,0.071558,-0.31334,-0.020687,0.020564
1065,-0.026209,-0.030106,0.95146,0.074482,-0.1178,0.013743,0.025111
1066,-0.030756,-0.064211,0.90209,0.070909,0.020564,0.035505,0.027385
1067,-0.03303,-0.089221,0.75073,0.061489,0.092346,0.044275,0.026735
1068,-0.032055,-0.097666,0.54675,0.047847,0.10924,0.040702,0.025436
1069,-0.031081,-0.089546,0.34764,0.032582,0.097868,0.031932,0.022837
1070,-0.031406,-0.073955,0.19434,0.01764,0.084226,0.022837,0.018615
1071,-0.030431,-0.057065,0.095919,0.0036737,0.081952,0.017316,0.013743
1072,-0.026858,-0.04927,0.036804,-0.0034721,0.091696,0.016341,0.008221
1073,-0.018088,-0.04992,-0.0037969,0.0023744,0.10306,0.019264,0.00075039
1074,-0.008669,-0.056741,-0.036602,0.017316,0.10404,0.023162,-0.0073698
1075,0.00010078,-0.063237,-0.06681,0.031282,0.092346,0.028359,-0.014191
1076,0.0091954,-0.067784,-0.10774,0.032582,0.06961,0.031932,-0.017764
1077,0.015367,-0.069083,-0.19608,0.022188,0.045574,0.030957,-0.017439
1078,0.015692,-0.068109,-0.36726,0.0023744,0.025436,0.026085,-0.013541
1079,0.011469,-0.068434,-0.64951,-0.018413,0.01764,0.023487,-0.0067202
1080,0.0056225,-0.069733,-1.0604,-0.0405,0.024461,0.029009,0.00042559
1081,0.0014,-0.069083,-1.5388,-0.059014,0.041027,0.044275,0.0088706
1082,0.0014,-0.064536,-1.9523,-0.070707,0.057267,0.062789,0.020564
1083,0.0056225,-0.053492,-2.1696,-0.072006,0.064413,0.076106,0.031282
1084,0.015692,-0.03238,-2.1232,-0.062262,0.055968,0.080653,0.036479
1085,0.029333,-0.0024977,-1.8347,-0.042124,0.029009,0.076106,0.034855
1086,0.041676,0.039402,-1.3875,-0.01549,-0.014191,0.065387,0.025436
1087,0.047847,0.092996,-0.89474,0.014068,-0.069083,0.055643,0.012443
1088,0.045899,0.14756,-0.45366,0.037129,-0.13307,0.046873,0.0017248
1089,0.038103,0.19336,-0.11813,0.05142,-0.20063,0.036804,-0.0044465
1090,0.028684,0.21902,0.10371,0.056942,-0.26202,0.024137,-0.0083442
1091,0.024786,0.22065,0.23559,0.054993,-0.301,0.01017,-0.010293
1092,0.025111,0.20181,0.30769,0.051745,-0.31139,-0.0015233,-0.0076946
1093,0.030633,0.16933,0.34862,0.052395,-0.29905,-0.010293,-0.00087364
1094,0.034206,0.13165,0.37915,0.054344,-0.27988,-0.017439,0.0091954
1095,0.036804,0.093645,0.41293,0.053369,-0.26169,-0.029132,0.017316
1096,0.038753,0.062789,0.44834,0.047847,-0.24805,-0.042124,0.016666
1097,0.042326,0.042975,0.47919,0.038753,-0.23538,-0.052193,0.0069217
1098,0.044599,0.033881,0.50128,0.029009,-0.21849,-0.059664,-0.0057458
1099,0.042326,0.030957,0.51784,0.019914,-0.19121,-0.069083,-0.01484
1100,0.036804,0.027709,0.52954,0.015042,-0.15483,-0.079152,-0.01614
1101,0.026085,0.022837,0.53733,0.01764,-0.10384,-0.082076,-0.0080194
1102,0.0095202,0.019914,0.54026,0.025436,-0.036927,-0.071357,0.0059473
1103,-0.0063954,0.022512,0.51719,0.038428,0.045249,-0.04992,0.01894
1104,-0.015815,0.02706,0.44379,0.051096,0.13912,-0.025234,0.02706
1105,-0.01614,0.029333,0.29633,0.06084,0.24273,-0.0028225,0.033556
1106,-0.011267,0.02641,0.094945,0.067661,0.34894,0.016991,0.035505
1107,-0.0021729,0.021863,-0.10156,0.069934,0.4584,0.039402,0.036804
1108,0.009845,0.016991,-0.22499,0.069285,0.56364,0.059541,0.037454
1109,0.023162,0.012768,-0.24123,0.06896,0.63932,0.071234,0.041351
1110,0.034855,0.012119,-0.15905,0.069934,0.65946,0.069934,0.042975
1111,0.039727,0.012768,-0.019388,0.067336,0.61399,0.057917,0.042326
1112,0.033556,0.013743,0.12483,0.058241,0.51167,0.043625,0.038103
1113,0.016991,0.012768,0.23526,0.038428,0.3785,0.029658,0.034206
1114,-0.0034721,0.0091954,0.29308,0.014068,0.2515,0.022512,0.028684
1115,-0.021012,0.0010752,0.30282,-0.0057458,0.15893,0.028359,0.022837
1116,-0.030756,-0.010618,0.28203,-0.015815,0.10242,0.044275,0.014068
1117,-0.030756,-0.021661,0.2515,-0.015815,0.065712,0.065387,0.0049729
1118,-0.025559,-0.031406,0.22259,-0.010293,0.034855,0.0865,-0.0015233
1119,-0.017114,-0.036927,0.20343,-0.00054884,0.0023744,0.097218,-0.0063954
1120,-0.011267,-0.037252,0.19531,0.0095202,-0.037902,0.091047,-0.013541
1121,-0.013541,-0.032055,0.19531,0.017316,-0.095717,0.061814,-0.025234
1122,-0.025234,-0.022636,0.20148,0.01894,-0.17335,0.009845,-0.043748
1123,-0.040175,-0.0099683,0.21707,0.012119,-0.26884,-0.051219,-0.064211
1124,-0.04862,0.003024,0.23786,-0.0073698,-0.36985,-0.10481,-0.076879
1125,-0.048945,0.013418,0.25832,-0.037577,-0.46178,-0.14281,-0.081426
1126,-0.04115,0.015692,0.27002,-0.070382,-0.52674,-0.15873,-0.076554
1127,-0.029457,0.010819,0.26514,-0.096692,-0.55402,-0.15321,-0.069408
1128,-0.017439,0.0023744,0.23851,-0.10774,-0.54298,-0.12722,-0.06616
1129,-0.0080194,-0.0096434,0.19563,-0.10286,-0.5027,-0.092469,-0.064536
1130,-0.0063954,-0.022311,0.14886,-0.087272,-0.44261,-0.060313,-0.058365
1131,-0.010943,-0.029782,0.10566,-0.066485,-0.36433,-0.035303,-0.046671
1132,-0.01549,-0.033354,0.066362,-0.046996,-0.26916,-0.019712,-0.035628
1133,-0.015165,-0.032705,0.029658,-0.03303,-0.15938,-0.016464,-0.033354
1134,-0.012242,-0.030756,-0.010618,-0.026209,-0.022311,-0.022961,-0.039526
1135,-0.0093186,-0.027508,-0.054467,-0.022961,0.15179,-0.034654,-0.047971
1136,-0.0050961,-0.025559,-0.095393,-0.020037,0.35576,-0.044723,-0.057065
1137,0.003024,-0.026858,-0.12365,-0.012242,0.54383,-0.047321,-0.061613
1138,0.013743,-0.031406,-0.13729,-0.0028225,0.64744,-0.042124,-0.061288
1139,0.023162,-0.03173,-0.14249,0.0046481,0.61951,-0.032705,-0.05804
1140,0.032582,-0.027833,-0.14249,0.0046481,0.46295,-0.024909,-0.053168
1141,0.041676,-0.022636,-0.14152,-0.00054884,0.22454,-0.021661,-0.04862
1142,0.046548,-0.018738,-0.13827,-0.0067202,-0.008669,-0.021012,-0.047646
1143,0.041676,-0.017764,-0.13599,-0.0099683,-0.13957,-0.018088,-0.046996
1144,0.029009,-0.016464,-0.13015,-0.0076946,-0.13404,-0.013216,-0.041799
1145,0.018615,-0.018088,-0.11651,-0.00054884,-0.025234,-0.0060706,-0.032055
1146,0.015692,-0.021986,-0.097341,0.011144,0.11346,0.0036737,-0.021661
1147,0.020239,-0.02426,-0.076229,0.025111,0.21155,0.014717,-0.012567
1148,0.029333,-0.021337,-0.054467,0.040052,0.22974,0.028684,-0.0050961
1149,0.03518,-0.012242,-0.025884,0.05207,0.16121,0.043625,0.00042559
1150,0.034855,-0.00054884,0.015042,0.058891,0.029333,0.054019,0.0043233
1151,0.030308,0.0085458,0.070259,0.054019,-0.13015,0.054344,0.0072465
1152,0.025761,0.014717,0.12645,0.041027,-0.27761,0.048172,0.0088706
1153,0.021863,0.020564,0.169,0.024137,-0.38837,0.039078,0.0049729
1154,0.013418,0.024137,0.18784,0.0069217,-0.45236,0.030633,-0.0067202
1155,0.003024,0.030308,0.18232,-0.0054209,-0.47769,0.026085,-0.019388
1156,-0.0047713,0.040052,0.16413,-0.008669,-0.48484,0.022188,-0.020687
1157,-0.0047713,0.050771,0.14561,-0.0041217,-0.48906,0.018615,-0.010293
1158,0.0075714,0.059541,0.12937,0.0039985,-0.49328,0.017316,0.0049729
1159,0.026735,0.067011,0.11248,0.014068,-0.48711,0.017316,0.019914
1160,0.045249,0.074157,0.092346,0.026085,-0.4673,0.018615,0.028034
1161,0.053694,0.080328,0.063438,0.039078,-0.43904,0.021538,0.030957
1162,0.050771,0.084876,0.023487,0.056292,-0.4137,0.024137,0.031607
1163,0.042651,0.085525,-0.028157,0.076106,-0.39584,0.023812,0.031282
1164,0.031932,0.084226,-0.089871,0.094945,-0.38545,0.019589,0.033231
1165,0.024137,0.081952,-0.15126,0.10696,-0.37343,0.0085458,0.036479
1166,0.021213,0.076431,-0.20323,0.10631,-0.35134,-0.0076946,0.038428
1167,0.019589,0.068635,-0.24415,0.092996,-0.30392,-0.025234,0.036154
1168,0.016341,0.06019,-0.27501,0.072858,-0.22337,-0.042774,0.030633
1169,0.0065969,0.05142,-0.29417,0.055968,-0.12398,-0.057065,0.023812
1170,-0.0083442,0.047523,-0.29937,0.0433,-0.029457,-0.064211,0.021213
1171,-0.020362,0.048822,-0.28768,0.03583,0.037454,-0.063561,0.019264
1172,-0.021661,0.060515,-0.2435,0.031607,0.062464,-0.057715,0.021213
1173,-0.0093186,0.080978,-0.13372,0.029009,0.047523,-0.046671,0.028034
1174,0.013093,0.10469,0.058241,0.026735,0.009845,-0.035953,0.034206
1175,0.036154,0.12613,0.28853,0.025111,-0.026209,-0.028482,0.034206
1176,0.052395,0.14399,0.48439,0.024786,-0.039851,-0.023285,0.028034
1177,0.055643,0.15536,0.59255,0.026735,-0.027183,-0.017764,0.017316
1178,0.044599,0.15893,0.59645,0.027709,-0.0021729,-0.011592,0.01017
1179,0.028359,0.15601,0.51492,0.026085,0.014392,-0.0063954,0.013093
1180,0.016991,0.14691,0.3863,0.026085,0.009845,0.00075039,0.027709
1181,0.013093,0.1362,0.24988,0.029009,-0.015815,0.0095202,0.049796
1182,0.012443,0.12223,0.12125,0.03518,-0.046347,0.015042,0.070909
1183,0.012119,0.10371,0.01017,0.038428,-0.06681,0.015367,0.082277
1184,0.013093,0.081952,-0.080127,0.034855,-0.063886,0.013743,0.082602
1185,0.015042,0.057592,-0.14639,0.023487,-0.036278,0.016666,0.071234
1186,0.016341,0.030957,-0.18666,0.009845,0.0059473,0.02641,0.055643
1187,0.01829,0.0017248,-0.19966,-0.0021729,0.050121,0.040702,0.041676
1188,0.014717,-0.028807,-0.19154,-0.0067202,0.079029,0.057917,0.033556
1189,0.0043233,-0.058689,-0.1714,-0.00087364,0.081627,0.076431,0.03453
1190,-0.0073698,-0.088247,-0.14996,0.010819,0.055318,0.09462,0.044275
1191,-0.017764,-0.11813,-0.12852,0.024461,0.013418,0.11346,0.058566
1192,-0.027183,-0.15743,-0.10871,0.034206,-0.024909,0.12905,0.06961
1193,-0.033679,-0.21102,-0.09182,0.035505,-0.044073,0.13782,0.070259
1194,-0.032055,-0.27599,-0.073955,0.029009,-0.039526,0.13522,0.063113
1195,-0.02361,-0.339,-0.042124,0.014392,-0.017764,0.12158,0.051745
1196,-0.015815,-0.37798,0.0075714,-0.0060706,0.0091954,0.10274,0.038753
1197,-0.013866,-0.3783,0.053694,-0.026858,0.031282,0.084876,0.025761
1198,-0.019388,-0.33607,0.031282,-0.041475,0.040052,0.06831,0.014068
1199,-0.026209,-0.26364,-0.13632,-0.047646,0.035505,0.050446,0.0065969
1200,-0.028807,-0.18244,-0.43709,-0.045372,0.028034,0.030308,0.0049729
1201,-0.021337,-0.10871,-0.76157,-0.036602,0.029333,0.012768,0.0085458
1202,-0.0076946,-0.051219,-0.96718,-0.021661,0.044924,-0.00087364,0.020239
1203,0.0033489,-0.011267,-0.96815,0.0026992,0.079029,-0.013216,0.036479
1204,0.0075714,0.015042,-0.76677,0.036154,0.14821,-0.021012,0.050771
1205,0.0095202,0.03518,-0.44781,0.072208,0.27586,-0.020687,0.054993
1206,0.011794,0.054993,-0.14444,0.10112,0.46652,-0.01549,0.050446
1207,0.015042,0.074157,0.020888,0.11866,0.67473,-0.011267,0.042975
1208,0.014392,0.087149,-0.0024977,0.1206,0.7962,-0.012892,0.035505
1209,0.0075714,0.092671,-0.17172,0.10534,0.73579,-0.021337,0.029658
1210,-0.0034721,0.087149,-0.3809,0.076755,0.5042,-0.037577,0.022188
1211,-0.011267,0.074157,-0.51667,0.042651,0.22617,-0.056741,0.015692
1212,-0.015815,0.054019,-0.5053,0.010819,0.040377,-0.075904,0.0075714
1213,-0.015165,0.029658,-0.35167,-0.01614,0.0052977,-0.094743,-0.0021729
1214,-0.012892,0.0072465,-0.12657,-0.0405,0.0865,-0.10968,-0.0063954
1215,-0.0099683,-0.0050961,0.062464,-0.061613,0.2044,-0.123,-0.0031473
1216,-0.0057458,-0.007045,0.13587,-0.080451,0.28821,-0.13469,0.0033489
1217,0.0017248,0.00075039,0.078379,-0.095717,0.30672,-0.14249,0.0091954
1218,0.0085458,0.013093,-0.066485,-0.10514,0.27196,-0.14119,0.0088706
1219,0.01017,0.021213,-0.23863,-0.10741,0.21837,-0.12885,0.0088706
1220,0.0036737,0.019914,-0.39324,-0.10611,0.1755,-0.10644,0.009845
1221,-0.0080194,0.0065969,-0.49945,-0.10449,0.15373,-0.081426,0.012443
1222,-0.021337,-0.0096434,-0.53063,-0.10514,0.15438,-0.057715,0.01764
1223,-0.036278,-0.022636,-0.47899,-0.10676,0.16705,-0.042774,0.021213
1224,-0.04927,-0.025884,-0.35134,-0.10579,0.18394,-0.035628,0.021863
1225,-0.05804,-0.016789,-0.16165,-0.098965,0.19953,-0.036602,0.019589
1226,-0.052518,0.008221,0.064413,-0.084674,0.21512,-0.038227,0.01894
1227,-0.032705,0.049147,0.28658,-0.065186,0.22974,-0.035953,0.01894
1228,-0.0050961,0.094945,0.461,-0.046022,0.23591,-0.029132,0.022837
1229,0.022837,0.13262,0.56137,-0.028482,0.22974,-0.019063,0.028034
1230,0.042651,0.15438,0.58443,-0.0099683,0.21707,-0.0093186,0.029333
1231,0.053694,0.15926,0.54935,0.0095202,0.2057,-0.0021729,0.028034
1232,0.054019,0.15244,0.48601,0.028034,0.19888,0.0033489,0.025436
1233,0.046223,0.14074,0.41748,0.041027,0.18946,0.012119,0.024786
1234,0.032582,0.12743,0.36324,0.051745,0.16998,0.024137,0.030308
1235,0.01894,0.11378,0.32718,0.056292,0.14042,0.036479,0.040052
1236,0.0091954,0.10047,0.30282,0.055643,0.10664,0.045249,0.047847
1237,0.0085458,0.087799,0.28138,0.05272,0.078055,0.049796,0.049796
1238,0.013093,0.078379,0.25897,0.049147,0.059216,0.050121,0.044599
1239,0.019914,0.073182,0.23786,0.049147,0.050771,0.046223,0.033881
1240,0.025761,0.072858,0.22162,0.054344,0.047523,0.044599,0.019914
1241,0.027385,0.073507,0.20538,0.058566,0.051096,0.048822,0.0085458
1242,0.024461,0.074157,0.18849,0.058566,0.063763,0.056942,-0.00087364
1243,0.019914,0.073507,0.17192,0.054019,0.0852,0.063438,-0.0083442
1244,0.016666,0.067986,0.15763,0.048172,0.10339,0.066037,-0.011917
1245,0.014068,0.061165,0.14854,0.039402,0.11021,0.061489,-0.015815
1246,0.010495,0.054019,0.14302,0.029009,0.10371,0.048497,-0.020037
1247,0.0056225,0.044924,0.1336,0.020888,0.087799,0.030957,-0.025234
1248,0.00042559,0.036479,0.11086,0.01894,0.067661,0.014068,-0.030756
1249,-0.0050961,0.029009,0.073832,0.021863,0.044275,0.00075039,-0.037577
1250,-0.010618,0.022837,0.034206,0.028684,0.022512,-0.0047713,-0.041799
1251,-0.01614,0.016016,0.0078962,0.031607,-0.00054884,-0.0044465,-0.045372
1252,-0.019712,0.0085458,0.0065969,0.028359,-0.034978,-0.0028225,-0.048296
1253,-0.022311,0.0049729,0.030308,0.020888,-0.093444,-0.0063954,-0.050244
1254,-0.024909,0.0052977,0.067986,0.011794,-0.17919,-0.016464,-0.047321
1255,-0.026858,0.0085458,0.10534,0.0072465,-0.28151,-0.027833,-0.039201
1256,-0.025234,0.014068,0.13262,0.01017,-0.37895,-0.040825,-0.027508
1257,-0.021337,0.019264,0.14237,0.01764,-0.45268,-0.051544,-0.018738
1258,-0.01484,0.021213,0.13457,0.024786,-0.4975,-0.062912,-0.014191
1259,-0.0093186,0.015692,0.11898,0.028684,-0.54135,-0.07493,-0.012567
1260,-0.0057458,0.0033489,0.10306,0.028684,-0.63068,-0.088572,-0.010618
1261,-0.0047713,-0.010943,0.086175,0.026735,-0.7947,-0.10676,-0.011592
1262,-0.0050961,-0.021012,0.065387,0.022837,-1.0101,-0.1282,-0.018088
1263,-0.00054884,-0.024585,0.046223,0.021538,-1.2079,-0.14574,-0.028482
1264,0.0056225,-0.025559,0.028034,0.022512,-1.3124,-0.15288,-0.037577
1265,0.009845,-0.027833,0.016341,0.028359,-1.28,-0.14834,-0.043423
1266,0.0091954,-0.030756,0.016991,0.036479,-1.1163,-0.13112,-0.045047
1267,0.0072465,-0.031081,0.030633,0.045574,-0.86584,-0.10221,-0.042774
1268,0.0095202,-0.027833,0.05207,0.051096,-0.59105,-0.067459,-0.036602
1269,0.016991,-0.021337,0.074157,0.048497,-0.34387,-0.035303,-0.027508
1270,0.025436,-0.012567,0.090397,0.041676,-0.15126,-0.011592,-0.019712
1271,0.029658,-0.0044465,0.096893,0.037778,-0.0080194,0.0046481,-0.013216
1272,0.028684,0.0014,0.092346,0.03583,0.095594,0.012768,-0.0063954
1273,0.024786,-0.00022403,0.077405,0.036154,0.16413,0.021213,0.00075039
1274,0.019589,-0.011267,0.053694,0.037778,0.19888,0.031607,0.0085458
1275,0.015367,-0.026209,0.024461,0.041351,0.20343,0.042975,0.016666
1276,0.015042,-0.040825,-0.0015233,0.046223,0.18037,0.053044,0.025111
1277,0.017316,-0.04862,-0.017439,0.052395,0.13002,0.063113,0.032257
1278,0.017965,-0.046347,-0.022636,0.054668,0.059541,0.076431,0.03583
1279,0.016666,-0.039526,-0.022636,0.050446,-0.017764,0.093321,0.039402
1280,0.013418,-0.031081,-0.021661,0.037778,-0.085973,0.10956,0.042651
1281,0.0078962,-0.02426,-0.021986,0.020888,-0.13762,0.11801,0.041027
1282,-0.0018481,-0.017764,-0.028157,0.0043233,-0.16815,0.11898,0.036479
1283,-0.010293,-0.0096434,-0.044398,-0.0067202,-0.1753,0.11378,0.030633
1284,-0.015815,0.0010752,-0.069733,-0.0063954,-0.16425,0.10339,0.019589
1285,-0.018738,0.013743,-0.09994,0.0033489,-0.15093,0.0865,0.0056225
1286,-0.015815,0.028034,-0.1295,0.017316,-0.14574,0.063113,-0.0054209
1287,-0.0047713,0.044275,-0.14996,0.033231,-0.14866,0.03453,-0.013541
1288,0.01017,0.058566,-0.13827,0.045249,-0.15451,0.0017248,-0.019388
1289,0.021213,0.069285,-0.086298,0.051096,-0.15061,-0.028807,-0.022636
1290,0.023487,0.077405,0.0078962,0.050446,-0.12235,-0.049595,-0.019712
1291,0.013093,0.081952,0.1349,0.048497,-0.050569,-0.057065,-0.010293
1292,-0.0067202,0.083251,0.27684,0.048822,0.071234,-0.052518,0.00075039
1293,-0.026533,0.080978,0.42365,0.045899,0.22487,-0.037577,0.0085458
1294,-0.039201,0.072533,0.57339,0.037129,0.38305,-0.020687,0.0062721
1295,-0.043099,0.06019,0.7241,0.021538,0.51362,-0.0083442,-0.0050961
1296,-0.042124,0.048172,0.86084,-0.0011985,0.59872,-0.00054884,-0.019712
1297,-0.037902,0.037454,0.97842,-0.032055,0.6364,0.0020496,-0.031406
1298,-0.030106,0.024137,1.0749,-0.061288,0.6403,-0.00022403,-0.036602
1299,-0.018413,-0.0047713,1.1223,-0.082076,0.63283,-0.0073698,-0.038227
1300,-0.0093186,-0.058689,1.0726,-0.096042,0.63218,-0.011592,-0.042124
1301,-0.0057458,-0.12917,0.90696,-0.10611,0.64484,-0.0093186,-0.052193
1302,-0.010943,-0.19836,0.64192,-0.11456,0.6692,-0.0054209,-0.063561
1303,-0.020037,-0.2461,0.29697,-0.11845,0.69876,-0.0060706,-0.071357
1304,-0.028807,-0.26299,-0.15353,-0.11553,0.72247,-0.0089938,-0.071357
1305,-0.030106,-0.24935,-0.74403,-0.10286,0.73287,-0.0037969,-0.061288
1306,-0.020687,-0.21395,-1.4161,-0.083375,0.72085,0.014068,-0.045047
1307,-0.00087364,-0.17107,-2.0244,-0.062262,0.67732,0.039727,-0.030106
1308,0.017965,-0.13112,-2.4109,-0.04992,0.60164,0.062789,-0.021337
1309,0.02641,-0.10124,-2.484,-0.054467,0.5016,0.075456,-0.020037
1310,0.022188,-0.080776,-2.2521,-0.072006,0.39084,0.072858,-0.023935
1311,0.011144,-0.068109,-1.8081,-0.090521,0.27976,0.053369,-0.027833
1312,-0.00054884,-0.055441,-1.28,-0.10124,0.17452,0.025761,-0.028807
1313,-0.008669,-0.04115,-0.78204,-0.10026,0.088773,-0.0015233,-0.026858
1314,-0.013216,-0.021337,-0.38155,-0.09182,0.032582,-0.024585,-0.023935
1315,-0.013866,0.00010078,-0.097666,-0.080776,0.0065969,-0.04115,-0.022636
1316,-0.010293,0.018615,0.07773,-0.07428,-0.00087364,-0.051544,-0.023935
1317,-0.0067202,0.029009,0.16868,-0.072331,-0.0054209,-0.056091,-0.023935
1318,-0.0034721,0.031932,0.207,-0.072656,-0.019712,-0.055766,-0.018088
1319,0.0010752,0.031282,0.21772,-0.068434,-0.044723,-0.054467,-0.0093186
1320,0.011794,0.029333,0.22,-0.056416,-0.073306,-0.056091,-0.0031473
1321,0.024137,0.02706,0.22259,-0.035303,-0.092469,-0.059339,-0.00022403
1322,0.030957,0.025761,0.22909,-0.0093186,-0.097991,-0.061937,0.0010752
1323,0.029658,0.025436,0.23851,0.013743,-0.089221,-0.058365,0.0020496
1324,0.024137,0.028684,0.24858,0.032906,-0.076554,-0.047321,0.0046481
1325,0.01894,0.03453,0.2567,0.044924,-0.075579,-0.034004,0.009845
1326,0.015692,0.042651,0.25832,0.053044,-0.097017,-0.022961,0.016341
1327,0.016016,0.049147,0.25345,0.061814,-0.13827,-0.021337,0.023487
1328,0.015367,0.05142,0.24111,0.071234,-0.18796,-0.023935,0.02706
1329,0.013418,0.049147,0.22747,0.078379,-0.22337,-0.029132,0.023162
1330,0.009845,0.045574,0.21837,0.079029,-0.22077,-0.033354,0.016016
1331,0.01017,0.043625,0.21577,0.072533,-0.17367,-0.036602,0.011144
1332,0.015692,0.045574,0.21512,0.059865,-0.098965,-0.038227,0.012443
1333,0.024461,0.049472,0.21317,0.046548,-0.019712,-0.040825,0.01894
1334,0.030308,0.05142,0.20668,0.041351,0.044599,-0.04115,0.022512
1335,0.028359,0.052395,0.19726,0.044924,0.079354,-0.036927,0.019589
1336,0.021213,0.054993,0.18751,0.054344,0.077405,-0.030431,0.015042
1337,0.012443,0.059216,0.18167,0.070259,0.041351,-0.022636,0.014392
1338,0.0046481,0.064737,0.18264,0.091696,-0.025559,-0.012242,0.017965
1339,0.00075039,0.069285,0.18914,0.11151,-0.11748,0.003024,0.023162
1340,0.0020496,0.072858,0.19758,0.12483,-0.22791,0.016341,0.028034
1341,0.0049729,0.076106,0.20376,0.13132,-0.35004,0.020239,0.030308
1342,0.010819,0.078379,0.20928,0.13002,-0.47574,0.013743,0.031282
1343,0.017965,0.076431,0.21447,0.12028,-0.5943,0.00010078,0.031932
1344,0.023812,0.070259,0.21577,0.10469,-0.69206,-0.017764,0.034206
1345,0.029983,0.062139,0.21545,0.089423,-0.758,-0.030106,0.037778
1346,0.036479,0.054993,0.21155,0.080328,-0.77846,-0.035303,0.042326
1347,0.042326,0.050121,0.20733,0.078055,-0.75053,-0.035303,0.045899
1348,0.045899,0.050446,0.20148,0.081627,-0.67452,-0.026858,0.049147
1349,0.047847,0.055318,0.19076,0.084876,-0.56539,-0.0073698,0.052395
1350,0.048497,0.061814,0.1716,0.082927,-0.44586,0.014717,0.057267
1351,0.049147,0.06961,0.14919,0.074157,-0.33413,0.032257,0.063763
1352,0.053694,0.076106,0.12743,0.065712,-0.23798,0.043625,0.071234
1353,0.059541,0.080003,0.11346,0.061814,-0.15321,0.054344,0.079029
1354,0.064413,0.078379,0.11021,0.066037,-0.072656,0.064088,0.078704
1355,0.06831,0.070909,0.11541,0.073507,0.0049729,0.067011,0.069934
1356,0.069934,0.061489,0.11866,0.079029,0.079354,0.059216,0.06019
1357,0.06896,0.05142,0.11021,0.079679,0.13749,0.046873,0.053044
1358,0.061165,0.042326,0.091047,0.075781,0.1651,0.029333,0.050121
1359,0.045574,0.033556,0.065712,0.066686,0.15763,0.0075714,0.05142
1360,0.029983,0.029333,0.042975,0.052395,0.12807,-0.014516,0.054019
1361,0.01764,0.028034,0.028034,0.034206,0.095269,-0.030106,0.056292
1362,0.0085458,0.029333,0.020239,0.016341,0.071234,-0.034004,0.055643
1363,0.0014,0.028684,0.016341,0.0033489,0.059541,-0.030756,0.053044
1364,-0.0054209,0.023812,0.014392,-0.0011985,0.058241,-0.022311,0.047523
1365,-0.012242,0.015692,0.013093,0.0020496,0.062789,-0.012242,0.039402
1366,-0.01549,0.0052977,0.01017,0.012443,0.067011,-0.0028225,0.027709
1367,-0.016464,-0.0041217,0.0056225,0.023812,0.070259,0.0046481,0.015042
1368,-0.018088,-0.011917,-0.00022403,0.033231,0.070259,0.0065969,0.0056225
1369,-0.021661,-0.017439,-0.0089938,0.03518,0.066686,0.003024,0.00010078
1370,-0.026858,-0.021986,-0.020037,0.030633,0.054668,-0.0037969,-0.0015233
1371,-0.031081,-0.02426,-0.027508,0.021213,0.032582,-0.0089938,0.0036737
1372,-0.034654,-0.026533,-0.028482,0.013743,0.0020496,-0.010293,0.016991
1373,-0.03303,-0.029132,-0.024585,0.011469,-0.034329,-0.0093186,0.031932
1374,-0.026533,-0.032705,-0.017764,0.012443,-0.07493,-0.0099683,0.045249
1375,-0.018413,-0.037577,-0.015815,0.011144,-0.11651,-0.014516,0.056617
1376,-0.013866,-0.040175,-0.022311,0.0075714,-0.15321,-0.021337,0.065712
1377,-0.014191,-0.038876,-0.036602,0.00042559,-0.17692,-0.027508,0.06831
1378,-0.01484,-0.037902,-0.053168,-0.008669,-0.18536,-0.034978,0.063113
1379,-0.013866,-0.038227,-0.068434,-0.013866,-0.17724,-0.043423,0.053694
1380,-0.0063954,-0.043748,-0.080451,-0.015165,-0.15483,-0.049595,0.047847
1381,0.003024,-0.04862,-0.086298,-0.012567,-0.12008,-0.046022,0.044599
1382,0.009845,-0.050244,-0.084999,-0.0041217,-0.084999,-0.033679,0.042001
1383,0.0078962,-0.046996,-0.075904,0.0095202,-0.054792,-0.01549,0.038103
1384,0.00010078,-0.042449,-0.063561,0.021863,-0.037252,0.0026992,0.03583
1385,-0.0083442,-0.037902,-0.053492,0.026735,-0.033679,0.016341,0.03453
1386,-0.011592,-0.036602,-0.045047,0.026085,-0.048296,0.022188,0.031282
1387,-0.0083442,-0.036927,-0.037902,0.020564,-0.078827,0.019589,0.027709
1388,-0.0018481,-0.037577,-0.032705,0.012768,-0.11878,0.010819,0.023812
1389,0.0046481,-0.036278,-0.032055,0.0023744,-0.15938,-0.0015233,0.01829
1390,0.0075714,-0.029782,-0.036602,-0.012567,-0.19024,-0.014191,0.0072465
1391,0.0023744,-0.011267,-0.043423,-0.030431,-0.19901,-0.026533,-0.0073698
1392,-0.0080194,0.020564,-0.044398,-0.045047,-0.18147,-0.035953,-0.021661
1393,-0.016789,0.059541,-0.02426,-0.052518,-0.15029,-0.0405,-0.032055
1394,-0.01614,0.097218,0.036154,-0.047971,-0.123,-0.040825,-0.035303
1395,-0.0031473,0.12678,0.14009,-0.033679,-0.10286,-0.037252,-0.034004
1396,0.016991,0.14009,0.26937,-0.01549,-0.081751,-0.028482,-0.031081
1397,0.031607,0.13002,0.3889,-0.007045,-0.044073,-0.020362,-0.03173
1398,0.031932,0.10014,0.46717,-0.011592,0.019264,-0.010618,-0.034654
1399,0.01764,0.059865,0.48634,-0.024909,0.11833,-0.0021729,-0.040825
1400,-0.0011985,0.020564,0.44184,-0.035303,0.2528,0.0059473,-0.046996
1401,-0.01614,-0.0089938,0.34667,-0.036602,0.40091,0.014392,-0.053492
1402,-0.022961,-0.025234,0.22552,-0.026533,0.51947,0.024786,-0.056741
1403,-0.022636,-0.029457,0.10014,-0.010943,0.57404,0.034855,-0.058689
1404,-0.018413,-0.025234,-0.016789,0.0036737,0.5513,0.039727,-0.061613
1405,-0.015815,-0.01614,-0.12463,0.014068,0.4701,0.039402,-0.064211
1406,-0.016464,-0.0063954,-0.22499,0.017316,0.36843,0.03583,-0.064861
1407,-0.021012,-0.0018481,-0.32113,0.015042,0.28885,0.029009,-0.061937
1408,-0.026533,-0.0037969,-0.40981,0.013418,0.25313,0.019264,-0.055441
1409,-0.031081,-0.011592,-0.48224,0.014068,0.25995,0.0088706,-0.045372
1410,-0.031406,-0.022636,-0.52998,0.013743,0.28788,0.00075039,-0.037252
1411,-0.030106,-0.034004,-0.55564,0.010495,0.30932,-0.0050961,-0.032705
1412,-0.029132,-0.043748,-0.57871,0.0059473,0.296,-0.0099683,-0.031081
1413,-0.027183,-0.050244,-0.61216,0.0033489,0.23299,-0.014191,-0.030431
1414,-0.025234,-0.04927,-0.63815,0.0020496,0.13879,-0.018738,-0.032705
1415,-0.027183,-0.042774,-0.6245,-0.0024977,0.051745,-0.022961,-0.035628
1416,-0.032705,-0.030106,-0.54233,-0.012567,0.013093,-0.028157,-0.036602
1417,-0.036278,-0.013216,-0.38869,-0.025559,0.046223,-0.031081,-0.032055
1418,-0.035303,0.0062721,-0.19381,-0.039526,0.1258,-0.030431,-0.022961
1419,-0.026209,0.026735,-0.0050961,-0.050244,0.20408,-0.026858,-0.011592
1420,-0.0093186,0.043625,0.13847,-0.058689,0.22844,-0.022961,0.0017248
1421,0.009845,0.05207,0.22292,-0.065835,0.16218,-0.021012,0.015042
1422,0.021213,0.049472,0.25053,-0.074605,0.0078962,-0.025559,0.023812
1423,0.019589,0.038428,0.22974,-0.084674,-0.18634,-0.035628,0.02706
1424,0.0056225,0.021538,0.1638,-0.093119,-0.34972,-0.043423,0.021213
1425,-0.013541,0.0023744,0.062464,-0.095717,-0.42962,-0.043748,0.011144
1426,-0.024909,-0.013866,-0.048945,-0.09117,-0.40916,-0.031406,-0.0021729
1427,-0.025234,-0.023285,-0.13242,-0.078503,-0.30652,-0.0080194,-0.014516
1428,-0.017764,-0.02426,-0.16165,-0.064211,-0.16328,0.018615,-0.024909
1429,-0.010943,-0.017764,-0.13794,-0.054142,-0.026533,0.040052,-0.032055
1430,-0.010618,-0.008669,-0.096692,-0.055766,0.073182,0.048822,-0.033679
1431,-0.017114,-0.0011985,-0.086948,-0.071682,0.12548,0.044275,-0.030756
1432,-0.025234,0.0017248,-0.14379,-0.09117,0.1362,0.033881,-0.027183
1433,-0.033354,-0.0011985,-0.25747,-0.10481,0.1219,0.02641,-0.021337
1434,-0.038876,-0.01484,-0.37148,-0.10319,0.10306,0.021538,-0.013866
1435,-0.041799,-0.033354,-0.42442,-0.087922,0.087474,0.015692,-0.0063954
1436,-0.042449,-0.046671,-0.38577,-0.062587,0.074157,0.0062721,-0.0015233
1437,-0.039526,-0.04862,-0.26169,-0.031406,0.06084,-0.008669,0.00075039
1438,-0.030431,-0.038876,-0.086298,0.0049729,0.042651,-0.027183,0.0020496
1439,-0.014516,-0.018088,0.0865,0.039078,0.021213,-0.038227,0.0010752
1440,0.0020496,0.0075714,0.2135,0.063763,-0.00054884,-0.033354,-0.00054884
1441,0.015367,0.029333,0.27196,0.073832,-0.02361,-0.014191,-0.0018481
1442,0.021213,0.040702,0.2593,0.075781,-0.041799,0.01017,-0.0021729
1443,0.022837,0.037778,0.19174,0.073832,-0.046996,0.032257,-0.0015233
1444,0.019264,0.022837,0.098842,0.072208,-0.034654,0.045249,0.0026992
1445,0.014392,0.0039985,0.008221,0.070584,-0.00054884,0.053044,0.008221
1446,0.015042,-0.011267,-0.06551,0.06961,0.058241,0.059216,0.014068
1447,0.021863,-0.020687,-0.11878,0.06896,0.13717,0.064413,0.018615
1448,0.030633,-0.02361,-0.15223,0.066362,0.22,0.067986,0.020888
1449,0.032582,-0.021661,-0.17302,0.058241,0.28918,0.069934,0.01894
1450,0.027385,-0.018738,-0.19089,0.045249,0.33205,0.066037,0.016016
1451,0.015692,-0.018413,-0.21102,0.032906,0.34505,0.055968,0.015692
1452,0.0036737,-0.017439,-0.23701,0.023162,0.32686,0.043625,0.01764
1453,-0.0041217,-0.01614,-0.26299,0.01829,0.28073,0.03453,0.019914
1454,-0.0054209,-0.010943,-0.27566,0.016991,0.2148,0.031282,0.022188
1455,-0.0024977,-0.0037969,-0.24448,0.016666,0.14367,0.029333,0.023487
1456,0.003024,0.0023744,-0.12657,0.01764,0.080653,0.02641,0.025761
1457,0.0075714,0.0072465,0.088773,0.020564,0.033231,0.026085,0.028684
1458,0.0095202,0.013743,0.34992,0.024786,0.0026992,0.030633,0.032582
1459,0.013418,0.023812,0.58281,0.029333,-0.018088,0.038753,0.036479
1460,0.01894,0.035505,0.73092,0.027709,-0.040175,0.047847,0.03583
1461,0.021213,0.05142,0.77119,0.01894,-0.064211,0.053044,0.030308
1462,0.01764,0.070259,0.715,0.0072465,-0.091495,0.053694,0.026085
1463,0.014392,0.095594,0.59255,-0.00087364,-0.12917,0.053369,0.028359
1464,0.012443,0.12483,0.44736,-0.00087364,-0.17854,0.05272,0.034855
1465,0.013093,0.15081,0.31711,0.0065969,-0.22824,0.050771,0.038753
1466,0.015042,0.16738,0.22552,0.017316,-0.27209,0.0433,0.040052
1467,0.019264,0.17322,0.1755,0.029658,-0.30392,0.030957,0.038753
1468,0.028684,0.16933,0.15893,0.043625,-0.32016,0.014392,0.030633
1469,0.044924,0.15991,0.17127,0.058566,-0.31918,-0.0044465,0.020239
1470,0.064737,0.14789,0.21415,0.072858,-0.29905,-0.022311,0.014717
1471,0.081627,0.13392,0.28008,0.0852,-0.26397,-0.033679,0.017316
1472,0.088448,0.11638,0.35934,0.095594,-0.2107,-0.039201,0.022188
1473,0.084226,0.093321,0.44086,0.10404,-0.13892,-0.0405,0.025111
1474,0.073832,0.064413,0.50745,0.11086,-0.058689,-0.038551,0.024137
1475,0.059865,0.031932,0.54253,0.11151,0.022188,-0.034654,0.01894
1476,0.048822,0.00042559,0.53961,0.10534,0.088773,-0.032055,0.010495
1477,0.044599,-0.032055,0.50323,0.092671,0.13197,-0.034004,0.00010078
1478,0.043625,-0.067784,0.44086,0.075781,0.15763,-0.040175,-0.0099683
1479,0.040377,-0.11391,0.36389,0.057267,0.17972,-0.051219,-0.017439
1480,0.03518,-0.17042,0.28171,0.039402,0.20148,-0.062262,-0.020037
1481,0.026085,-0.23668,0.20213,0.028034,0.21447,-0.06616,-0.015815
1482,0.015042,-0.29255,0.13684,0.028034,0.20668,-0.061288,-0.0041217
1483,0.0033489,-0.31659,0.09462,0.039727,0.16998,-0.052518,0.008221
1484,-0.0031473,-0.2971,0.082602,0.056292,0.10729,-0.047646,0.021538
1485,-0.0057458,-0.23896,0.090722,0.071883,0.013743,-0.051868,0.03518
1486,-0.0067202,-0.161,0.09462,0.087799,-0.11943,-0.060313,0.048497
1487,-0.0083442,-0.083375,0.078379,0.10339,-0.28053,-0.067784,0.057592
1488,-0.012242,-0.023285,0.036479,0.11281,-0.44099,-0.073955,0.053694
1489,-0.01484,0.013743,-0.022636,0.10956,-0.57481,-0.078178,0.036804
1490,-0.012567,0.032582,-0.090845,0.090722,-0.6716,-0.081101,0.016666
1491,-0.0060706,0.039078,-0.15711,0.060515,-0.73396,-0.0824,0.0026992
1492,-0.0015233,0.042001,-0.21232,0.027385,-0.76677,-0.084024,0.0014
1493,-0.0015233,0.047198,-0.25098,-0.0018481,-0.76904,-0.087597,0.009845
1494,-0.0037969,0.057267,-0.27436,-0.019388,-0.73884,-0.09117,0.020888
1495,0.00042559,0.069934,-0.28768,-0.024585,-0.67517,-0.092469,0.02706
1496,0.013093,0.083576,-0.2958,-0.024585,-0.57318,-0.087597,0.026085
1497,0.029658,0.094945,-0.30262,-0.02426,-0.41598,-0.079152,0.023162
1498,0.042975,0.10079,-0.30489,-0.025234,-0.19673,-0.069408,0.020239
1499,0.045899,0.10404,-0.30359,-0.022636,0.063438,-0.060313,0.01894
1500,0.039078,0.10371,-0.30522,-0.014191,0.31257,-0.051219,0.021213
1501,0.028359,0.10112,-0.31886,-0.00022403,0.5016,-0.042449,0.023812
1502,0.01894,0.095269,-0.34614,0.016016,0.60262,-0.03303,0.023487
1503,0.016016,0.087474,-0.37635,0.032257,0.61821,-0.023285,0.021538
1504,0.017316,0.083251,-0.39681,0.047198,0.57501,-0.0060706,0.021863
1505,0.021538,0.084226,-0.39844,0.061489,0.50745,0.01894,0.031282
1506,0.027709,0.0865,-0.37862,0.075131,0.44184,0.048172,0.044599
1507,0.035505,0.087149,-0.34647,0.084226,0.38597,0.074157,0.056942
1508,0.040377,0.085525,-0.31399,0.08585,0.34147,0.089748,0.061814
1509,0.038753,0.080003,-0.29417,0.074157,0.30769,0.091047,0.054344
1510,0.029658,0.06961,-0.29905,0.048497,0.28463,0.078704,0.03518
1511,0.014717,0.054993,-0.32568,0.011144,0.26255,0.054344,0.011144
1512,-0.0047713,0.040377,-0.35556,-0.031406,0.23461,0.02706,-0.0057458
1513,-0.025559,0.02641,-0.36563,-0.070058,0.20278,0.0049729,-0.010618
1514,-0.038876,0.017316,-0.34095,-0.097341,0.17485,-0.008669,-0.010618
1515,-0.043099,0.016016,-0.28411,-0.11001,0.15731,-0.011267,-0.008669
1516,-0.04115,0.025436,-0.2133,-0.10481,0.14659,-0.007045,-0.010943
1517,-0.040825,0.042001,-0.14866,-0.082725,0.1297,-0.0015233,-0.017114
1518,-0.043099,0.059541,-0.10189,-0.051219,0.096569,0.0010752,-0.026209
1519,-0.045372,0.072208,-0.080127,-0.015815,0.042651,-0.0015233,-0.033679
1520,-0.042774,0.076431,-0.080451,0.016016,-0.027833,-0.010943,-0.038876
1521,-0.035628,0.074157,-0.094418,0.039078,-0.10546,-0.023285,-0.040825
1522,-0.027183,0.064737,-0.12073,0.048497,-0.18147,-0.035303,-0.041799
1523,-0.022636,0.048497,-0.15418,0.039402,-0.24805,-0.043748,-0.045047
1524,-0.022311,0.030957,-0.18471,0.016016,-0.29742,-0.046347,-0.047646
1525,-0.023935,0.016666,-0.20193,-0.011267,-0.32763,-0.044073,-0.042449
1526,-0.024909,0.0075714,-0.18374,-0.032055,-0.34452,-0.038227,-0.029132
1527,-0.022311,0.003024,-0.10319,-0.039526,-0.35784,-0.033679,-0.013866
1528,-0.013541,0.0010752,0.058241,-0.034978,-0.37473,-0.036278,-0.0015233
1529,-0.0028225,-0.0011985,0.28593,-0.023935,-0.39487,-0.052518,0.0017248
1530,0.008221,-0.0050961,0.52596,-0.016464,-0.41078,-0.078178,-0.0047713
1531,0.013418,-0.0089938,0.71078,-0.021012,-0.41143,-0.10481,-0.019712
1532,0.013093,-0.011267,0.79458,-0.037577,-0.39941,-0.12268,-0.038551
1533,0.008221,-0.0083442,0.77249,-0.063886,-0.37992,-0.1282,-0.053168
1534,-0.0015233,-0.0034721,0.67732,-0.092794,-0.36271,-0.11975,-0.057065
1535,-0.014516,0.0017248,0.5578,-0.11651,-0.35134,-0.10189,-0.047321
1536,-0.026533,0.0036737,0.46035,-0.12657,-0.33997,-0.080776,-0.027833
1537,-0.029782,0.003024,0.40384,-0.11878,-0.32048,-0.060313,-0.0089938
1538,-0.025234,0.0043233,0.36453,-0.09182,-0.28833,-0.042124,0.0026992
1539,-0.017764,0.011144,0.27196,-0.054792,-0.24188,-0.026533,0.0062721
1540,-0.011267,0.019914,0.066686,-0.015165,-0.18309,-0.011917,0.0020496
1541,-0.0080194,0.02641,-0.22467,0.021213,-0.12203,0.0046481,-0.0041217
1542,-0.0050961,0.030308,-0.49296,0.051096,-0.068109,0.026085,-0.0060706
1543,0.0010752,0.030633,-0.61866,0.070909,-0.025884,0.050771,-0.0024977
1544,0.011144,0.029983,-0.54298,0.081952,0.010819,0.072208,0.0014
1545,0.019914,0.030308,-0.29125,0.082602,0.056292,0.0865,0.0039985
1546,0.023487,0.032906,0.046873,0.075456,0.1284,0.091696,0.0072465
1547,0.021863,0.035505,0.36453,0.066037,0.23494,0.091372,0.010495
1548,0.020239,0.041027,0.5971,0.055968,0.36973,0.092671,0.015367
1549,0.021863,0.046873,0.73384,0.042326,0.51135,0.10014,0.022512
1550,0.025761,0.05207,0.8053,0.02641,0.62406,0.11281,0.031607
1551,0.031932,0.052395,0.85629,0.015042,0.68447,0.12645,0.039078
1552,0.040052,0.04395,0.90891,0.012119,0.68707,0.13587,0.044275
1553,0.044924,0.020239,0.9323,0.011794,0.63965,0.13587,0.045899
1554,0.042975,-0.018088,0.85629,0.008221,0.55162,0.12807,0.039727
1555,0.033556,-0.059664,0.63023,0.0043233,0.43534,0.11476,0.028034
1556,0.018615,-0.092145,0.21447,0.00042559,0.30834,0.097218,0.014392
1557,0.0014,-0.10871,-0.40169,-0.0063954,0.18719,0.080978,0.0023744
1558,-0.011267,-0.11358,-1.1286,-0.016789,0.086175,0.064737,-0.0050961
1559,-0.017114,-0.11131,-1.7971,-0.025559,0.0078962,0.05207,-0.0096434
1560,-0.012892,-0.10676,-2.242,-0.033354,-0.055766,0.044599,-0.008669
1561,-0.0031473,-0.10124,-2.3739,-0.038551,-0.11391,0.041027,-0.0015233
1562,0.0039985,-0.091495,-2.2066,-0.039201,-0.1662,0.040377,0.011794
1563,0.0014,-0.077203,-1.8373,-0.032705,-0.19576,0.043625,0.028034
1564,-0.0073698,-0.062587,-1.3894,-0.022636,-0.19381,0.049147,0.039402
1565,-0.015815,-0.052843,-0.97497,-0.012567,-0.15776,0.049472,0.040052
1566,-0.021661,-0.049595,-0.65796,-0.0063954,-0.076879,0.034855,0.030633
1567,-0.028157,-0.054467,-0.45041,-0.0047713,0.059216,0.0023744,0.012768
1568,-0.034329,-0.064861,-0.33283,-0.012892,0.24143,-0.04115,-0.0067202
1569,-0.042124,-0.07493,-0.26624,-0.03238,0.43794,-0.087922,-0.022636
1570,-0.052518,-0.076229,-0.2068,-0.057065,0.60392,-0.13112,-0.034654
1571,-0.065835,-0.064211,-0.12073,-0.075579,0.69292,-0.15905,-0.044723
1572,-0.07428,-0.040175,-0.0015233,-0.078178,0.67635,-0.16425,-0.04992
1573,-0.069408,-0.0083442,0.13132,-0.064211,0.55877,-0.14379,-0.045372
1574,-0.048945,0.029009,0.24306,-0.034329,0.37363,-0.10449,-0.032055
1575,-0.017764,0.064088,0.31192,0.0014,0.17452,-0.054467,-0.01549
1576,0.011469,0.089423,0.33205,0.038428,0.0072465,-0.0067202,-0.00022403
1577,0.026735,0.10177,0.31322,0.067336,-0.10156,0.029009,0.010819
1578,0.02641,0.10339,0.27229,0.081303,-0.14996,0.042975,0.01829
1579,0.015367,0.097218,0.22909,0.080653,-0.15841,0.036479,0.023162
1580,0.0033489,0.087149,0.20376,0.06961,-0.15873,0.019914,0.023487
1581,-0.0024977,0.073832,0.21642,0.054344,-0.18309,-0.00087364,0.015692
1582,-0.0024977,0.063113,0.27976,0.041351,-0.2461,-0.019063,0.0046481
1583,0.00042559,0.055318,0.38565,0.030308,-0.33413,-0.032705,-0.00054884
1584,0.0017248,0.047523,0.52304,0.016666,-0.42085,-0.037902,-0.0011985
1585,-0.00087364,0.036479,0.66401,-0.0015233,-0.47834,-0.034004,-0.00022403
1586,-0.0054209,0.01894,0.77996,-0.020362,-0.49523,-0.026209,0.00010078
1587,-0.010618,-0.0060706,0.85467,-0.035628,-0.47574,-0.016789,0.00010078
1588,-0.012567,-0.035953,0.88585,-0.043423,-0.43514,-0.010293,0.0023744
1589,-0.0076946,-0.070707,0.88065,-0.039851,-0.39129,-0.0031473,0.0059473
1590,0.0043233,-0.10156,0.86376,-0.025559,-0.35361,0.0046481,0.011144
1591,0.017316,-0.12008,0.85434,-0.0034721,-0.32243,0.012443,0.015692
1592,0.029983,-0.12105,0.8459,0.023162,-0.29905,0.01894,0.017316
1593,0.041351,-0.10319,0.81569,0.046223,-0.27306,0.024137,0.01829
1594,0.048497,-0.073306,0.74586,0.063763,-0.22726,0.028359,0.022512
1595,0.049796,-0.042449,0.63835,0.078055,-0.15516,0.031932,0.02706
1596,0.047847,-0.017764,0.5133,0.091372,-0.064861,0.032257,0.027709
1597,0.041676,-0.0034721,0.39896,0.10177,0.033881,0.027709,0.026735
1598,0.036154,0.0023744,0.30737,0.10924,0.13165,0.01894,0.023487
1599,0.036804,0.003024,0.22324,0.11118,0.21577,0.011144,0.020239
1600,0.044599,0.0052977,0.1271,0.10891,0.28008,0.003024,0.016016
1601,0.054344,0.009845,0.019264,0.10599,0.30737,-0.0083442,0.011469
1602,0.06019,0.01764,-0.080776,0.10339,0.26644,-0.025234,0.0075714
1603,0.060515,0.02706,-0.14834,0.096893,0.14626,-0.047321,0.0052977
1604,0.052395,0.033556,-0.16912,0.0852,-0.008669,-0.070382,0.003024
1605,0.037454,0.036154,-0.14736,0.065712,-0.11391,-0.084999,0.003024
1606,0.019914,0.03518,-0.098316,0.043625,-0.11001,-0.089871,0.0062721
1607,0.0046481,0.032906,-0.040825,0.026085,-0.00054884,-0.08305,0.011794
1608,-0.0080194,0.029658,0.0078962,0.015692,0.1638,-0.064536,0.014392
1609,-0.01484,0.023487,0.036804,0.0091954,0.32231,-0.04115,0.0095202
1610,-0.016464,0.016666,0.046873,0.0026992,0.42332,-0.019063,-0.0037969
1611,-0.01614,0.012119,0.041351,-0.0024977,0.45028,-0.0024977,-0.018738
1612,-0.01484,0.012119,0.029983,-0.00054884,0.4152,0.0039985,-0.028157
1613,-0.013216,0.014717,0.01829,0.0039985,0.3431,0.0039985,-0.031081
1614,-0.0099683,0.01894,0.0095202,0.0062721,0.25865,0.0046481,-0.030106
1615,-0.0060706,0.022512,0.0078962,0.0039985,0.17485,0.012443,-0.02361
1616,-0.0041217,0.023812,0.012768,-0.00022403,0.10924,0.029333,-0.011267
1617,-0.0076946,0.02641,0.01894,0.00075039,0.080003,0.047523,0.0033489
1618,-0.01614,0.029658,0.021538,0.0088706,0.092996,0.062139,0.017316
1619,-0.027183,0.030957,0.019914,0.016991,0.12418,0.068635,0.030308
1620,-0.033354,0.029009,0.01894,0.022512,0.13814,0.065712,0.038753
1621,-0.029457,0.024786,0.020888,0.028034,0.11541,0.055968,0.039078
1622,-0.016464,0.022512,0.030633,0.033556,0.059216,0.044924,0.032582
1623,-0.0041217,0.023162,0.047523,0.037778,-0.01614,0.03518,0.022512
1624,0.00042559,0.02706,0.065712,0.041351,-0.088572,0.028359,0.015042
1625,-0.0041217,0.036154,0.077405,0.0433,-0.14119,0.024461,0.0095202
1626,-0.012892,0.049147,0.081627,0.039402,-0.1675,0.01894,0.008221
1627,-0.021012,0.063763,0.079029,0.028684,-0.1701,0.011794,0.009845
1628,-0.024909,0.075131,0.071234,0.015692,-0.15938,0.0056225,0.011794
1629,-0.023285,0.082602,0.058566,0.0059473,-0.14509,-0.0031473,0.012119
1630,-0.01614,0.08585,0.037454,0.0033489,-0.14411,-0.017439,0.0088706
1631,-0.0076946,0.082602,0.0065969,0.0065969,-0.18991,-0.034978,0.0017248
1632,0.0014,0.074482,-0.026533,0.01017,-0.31789,-0.053817,-0.0057458
1633,0.011469,0.062789,-0.053817,0.0085458,-0.53583,-0.075255,-0.0083442
1634,0.022512,0.049472,-0.071032,0.0043233,-0.79405,-0.096367,-0.0080194
1635,0.030633,0.036479,-0.080776,-0.0011985,-1.0101,-0.11196,-0.0083442
1636,0.032906,0.025436,-0.086623,-0.0011985,-1.1117,-0.11748,-0.0089938
1637,0.030633,0.01829,-0.087597,0.0010752,-1.0705,-0.11033,-0.0080194
1638,0.024786,0.014717,-0.085973,0.0039985,-0.90286,-0.092145,-0.0024977
1639,0.019264,0.014717,-0.0837,0.008221,-0.65958,-0.065186,0.0062721
1640,0.01764,0.01764,-0.085648,0.012768,-0.40234,-0.03303,0.017316
1641,0.021863,0.021538,-0.095393,0.01829,-0.18179,-0.0024977,0.025436
1642,0.026085,0.022188,-0.11228,0.023487,-0.025884,0.021863,0.030633
1643,0.029658,0.019264,-0.13015,0.025436,0.061489,0.033556,0.031932
1644,0.032582,0.013743,-0.14249,0.022837,0.090397,0.029333,0.03518
1645,0.037778,0.008221,-0.14931,0.015042,0.083576,0.014392,0.039727
1646,0.044275,0.0056225,-0.14964,0.0085458,0.067661,0.00042559,0.041351
1647,0.047847,0.0072465,-0.14704,0.0072465,0.057917,-0.0080194,0.040052
1648,0.051096,0.011469,-0.14509,0.014717,0.065062,-0.013216,0.037778
1649,0.05272,0.013093,-0.14509,0.026735,0.0865,-0.01614,0.036479
1650,0.049472,0.012119,-0.14671,0.039402,0.11346,-0.013541,0.03583
1651,0.042326,0.0069217,-0.14736,0.045249,0.13132,-0.0028225,0.038103
1652,0.034855,-0.00087364,-0.13502,0.046223,0.1323,0.015042,0.041351
1653,0.031282,-0.011592,-0.096367,0.044275,0.11281,0.034855,0.044275
1654,0.032257,-0.021986,-0.023935,0.044924,0.082602,0.054344,0.041676
1655,0.032906,-0.029132,0.073832,0.049796,0.050121,0.066362,0.035505
1656,0.033556,-0.031081,0.17517,0.055968,0.021863,0.069285,0.02641
1657,0.032582,-0.030756,0.2528,0.059865,-0.00022403,0.061814,0.016341
1658,0.029009,-0.028807,0.28821,0.057267,-0.021012,0.047198,0.0056225
1659,0.027385,-0.025559,0.27684,0.046873,-0.046022,0.026085,-0.0015233
1660,0.025436,-0.020362,0.22519,0.028359,-0.082076,-0.0021729,-0.0037969
1661,0.020239,-0.015165,0.15114,0.00010078,-0.1282,-0.036278,-0.0044465
1662,0.014717,-0.011592,0.063113,-0.03173,-0.17367,-0.071032,-0.007045
1663,0.015367,-0.013216,-0.03173,-0.056416,-0.20453,-0.095717,-0.012567
1664,0.026735,-0.016789,-0.12982,-0.065835,-0.2133,-0.10059,-0.017764
1665,0.042326,-0.020687,-0.23084,-0.061288,-0.19608,-0.084674,-0.018413
1666,0.051745,-0.023935,-0.33543,-0.043099,-0.15158,-0.055766,-0.014191
1667,0.049472,-0.022311,-0.43904,-0.018738,-0.078827,-0.027183,-0.007045
1668,0.037454,-0.017764,-0.53486,0.0033489,0.0091954,-0.0093186,-0.0015233
1669,0.020239,-0.01549,-0.61281,0.016341,0.093645,-0.0028225,-0.0031473
1670,0.0052977,-0.016789,-0.66705,0.020564,0.15536,-0.00022403,-0.0096434
1671,-0.0028225,-0.02361,-0.70928,0.021213,0.18816,0.00042559,-0.018413
1672,-0.0031473,-0.035953,-0.75832,0.019264,0.20148,0.0065969,-0.022636
1673,0.00010078,-0.046347,-0.80412,0.013418,0.20733,0.01764,-0.020037
1674,0.0049729,-0.040175,-0.81354,0.0039985,0.22162,0.030957,-0.0099683
1675,0.0091954,-0.0067202,-0.75573,-0.0050961,0.25118,0.042001,0.0033489
1676,0.014392,0.049147,-0.63132,-0.014516,0.30542,0.050771,0.015692
1677,0.022837,0.10826,-0.47574,-0.02361,0.38825,0.05272,0.024137
1678,0.032906,0.15244,-0.33413,-0.029132,0.50323,0.046873,0.029009
1679,0.038753,0.1716,-0.23798,-0.03238,0.64777,0.036154,0.031607
1680,0.037778,0.16185,-0.17659,-0.034329,0.80302,0.024786,0.032906
1681,0.031607,0.13327,-0.10091,-0.039851,0.93327,0.014392,0.030633
1682,0.024461,0.091047,0.034206,-0.051544,0.99823,0.0056225,0.017316
1683,0.018615,0.047198,0.21512,-0.070707,0.97875,0.00075039,-0.0057458
1684,0.013093,0.010819,0.38987,-0.092469,0.89624,0.00042559,-0.030431
1685,0.0065969,-0.012242,0.50842,-0.10903,0.80108,0.0017248,-0.04992
1686,-0.0021729,-0.019712,0.5487,-0.11651,0.73611,0.0036737,-0.061613
1687,-0.012892,-0.01484,0.51557,-0.11586,0.7189,0.0069217,-0.064536
1688,-0.02426,0.00042559,0.43762,-0.11228,0.73092,0.012768,-0.062262
1689,-0.034978,0.021213,0.35252,-0.10579,0.73482,0.01829,-0.054142
1690,-0.04115,0.043625,0.29048,-0.095393,0.69064,0.021213,-0.038551
1691,-0.043423,0.062789,0.26157,-0.085648,0.58378,0.01764,-0.020037
1692,-0.043423,0.071883,0.25345,-0.081426,0.43177,0.008221,-0.0024977
1693,-0.043099,0.067336,0.23754,-0.080776,0.27034,-0.0060706,0.0069217
1694,-0.044398,0.050771,0.18004,-0.084024,0.13035,-0.023285,0.0069217
1695,-0.048296,0.026735,0.066686,-0.089221,0.022837,-0.038876,-0.0021729
1696,-0.052518,0.0020496,-0.078503,-0.093119,-0.051868,-0.045372,-0.015165
1697,-0.053817,-0.017114,-0.20518,-0.087597,-0.097666,-0.035628,-0.02426
1698,-0.051544,-0.026533,-0.26332,-0.070382,-0.12755,-0.0083442,-0.024585
1699,-0.046022,-0.027183,-0.22824,-0.0405,-0.15581,0.029658,-0.015165
1700,-0.039526,-0.021661,-0.11066,0.00010078,-0.19348,0.070259,0.00042559
1701,-0.032055,-0.018413,0.054019,0.044599,-0.24318,0.10371,0.013418
1702,-0.026858,-0.025884,0.22097,0.080978,-0.29872,0.12678,0.017316
1703,-0.022311,-0.047321,0.35479,0.10112,-0.35004,0.13782,0.016991
1704,-0.020362,-0.081101,0.43762,0.10696,-0.38967,0.13262,0.015692
1705,-0.024585,-0.12885,0.46685,0.10242,-0.40818,0.11346,0.015692
1706,-0.033354,-0.19186,0.44963,0.091047,-0.40493,0.083251,0.013743
1707,-0.044073,-0.26039,0.40416,0.07773,-0.3861,0.051096,0.010819
1708,-0.050894,-0.31269,0.35576,0.065387,-0.36271,0.023812,0.0085458
1709,-0.051219,-0.32666,0.32816,0.055318,-0.339,0.0056225,0.011469
1710,-0.044723,-0.29288,0.33173,0.047523,-0.31496,-0.011267,0.017965
1711,-0.039526,-0.21947,0.36616,0.0433,-0.29028,-0.026533,0.027709
1712,-0.041475,-0.12917,0.40189,0.044275,-0.26754,-0.038551,0.038753
1713,-0.047321,-0.04862,0.36843,0.05142,-0.24675,-0.042449,0.048497
1714,-0.046996,0.0056225,0.18719,0.063113,-0.22629,-0.037252,0.055968
1715,-0.037252,0.031282,-0.13437,0.075781,-0.20648,-0.026533,0.061814
1716,-0.028157,0.03518,-0.49263,0.085525,-0.19771,-0.017764,0.066362
1717,-0.025884,0.030308,-0.75508,0.089098,-0.20355,-0.020687,0.067986
1718,-0.032055,0.025111,-0.83271,0.089423,-0.21947,-0.034978,0.066686
1719,-0.041799,0.029009,-0.7174,0.087799,-0.23344,-0.053168,0.061165
1720,-0.045697,0.041027,-0.48386,0.083576,-0.24221,-0.066485,0.054668
1721,-0.038551,0.058241,-0.23344,0.07708,-0.2435,-0.072006,0.049796
1722,-0.023935,0.07708,-0.048296,0.073507,-0.23636,-0.068434,0.049147
1723,-0.008669,0.092021,0.039078,0.076106,-0.22532,-0.056091,0.049472
1724,0.003024,0.10339,0.041676,0.080978,-0.22369,-0.042774,0.050121
1725,0.008221,0.10826,-0.0021729,0.083251,-0.25292,-0.034978,0.046873
1726,0.0078962,0.10826,-0.047971,0.078055,-0.32828,-0.037902,0.043625
1727,0.0059473,0.10664,-0.067784,0.064088,-0.44196,-0.047971,0.042975
1728,0.0056225,0.10566,-0.052193,0.046223,-0.55532,-0.063237,0.041351
1729,0.0046481,0.10274,-0.0080194,0.033881,-0.62678,-0.078503,0.037778
1730,0.0052977,0.097868,0.051745,0.032582,-0.631,-0.090845,0.033231
1731,0.0059473,0.091372,0.11671,0.040377,-0.57578,-0.099615,0.028359
1732,0.0059473,0.086175,0.17712,0.054668,-0.49458,-0.10124,0.022188
1733,0.0056225,0.083901,0.23234,0.06896,-0.41565,-0.097341,0.013418
1734,0.0046481,0.081952,0.28821,0.07708,-0.36076,-0.089546,0.0069217
1735,0.00075039,0.072858,0.32783,0.074482,-0.32925,-0.080451,0.0043233
1736,-0.0073698,0.05207,0.31029,0.060515,-0.30814,-0.072331,0.0039985
1737,-0.021012,0.020564,0.2135,0.036804,-0.27826,-0.066485,0.0056225
1738,-0.034004,-0.010943,0.064088,0.0078962,-0.22954,-0.067134,0.0095202
