,channel_1,channel_2,channel_3,channel_4,channel_5,channel_6,channel_7
0,0.00075039,0.04395,-0.039201,-0.0015233,0.88358,-0.058689,-0.008669
1,0.0072465,0.06831,-0.048296,0.011469,1.0034,-0.020037,-0.0047713
2,0.015367,0.092346,-0.035628,0.039078,0.98849,0.019264,0.0017248
3,0.019914,0.10859,-0.0011985,0.078379,0.92158,0.056292,0.0091954
4,0.020888,0.10924,0.041351,0.1219,0.85662,0.088773,0.019264
5,0.020564,0.09397,0.073507,0.15796,0.80497,0.11508,0.028359
6,0.018615,0.070584,0.084876,0.17745,0.74846,0.13717,0.038753
7,0.012443,0.046223,0.075781,0.18102,0.64647,0.15211,0.049472
8,0.0043233,0.024786,0.053369,0.1755,0.46133,0.15503,0.063438
9,-0.0011985,0.0078962,0.02641,0.16673,0.1781,0.14432,0.079029
10,0.00075039,-0.0031473,0.0010752,0.15861,-0.21427,0.11736,0.088773
11,0.0023744,-0.0067202,-0.021337,0.15211,-0.72357,0.07708,0.088124
12,-0.0015233,-0.0037969,-0.042774,0.14204,-1.2705,0.030633,0.076755
13,-0.008669,-0.00022403,-0.063886,0.12872,-1.6821,-0.012567,0.059541
14,-0.013541,0.00075039,-0.085648,0.11378,-1.7987,-0.041799,0.041676
15,-0.017114,-0.00087364,-0.10838,0.10079,-1.569,-0.054467,0.025111
16,-0.022311,-0.0060706,-0.12852,0.093645,-1.0688,-0.046671,0.013418
17,-0.027508,-0.012892,-0.13762,0.092671,-0.44424,-0.026209,0.0088706
18,-0.032055,-0.017439,-0.13242,0.096244,0.14951,0.0059473,0.0075714
19,-0.034004,-0.018088,-0.11553,0.10047,0.5984,0.041351,0.0069217
20,-0.034978,-0.013216,-0.095717,0.10144,0.84557,0.078379,0.0091954
21,-0.035628,-0.0067202,-0.080776,0.095594,0.88715,0.11281,0.014392
22,-0.035628,-0.0031473,-0.072331,0.078704,0.79263,0.13814,0.017965
23,-0.031081,-0.0060706,-0.072006,0.05207,0.66823,0.14789,0.015042
24,-0.021661,-0.012892,-0.079477,0.024137,0.60392,0.13814,0.0049729
25,-0.011267,-0.01614,-0.087597,0.0059473,0.64679,0.11054,-0.0063954
26,0.0020496,-0.012567,-0.089546,0.0026992,0.7621,0.070909,-0.013541
27,0.014392,-0.0011985,-0.0824,0.012768,0.84882,0.022837,-0.017764
28,0.022512,0.014068,-0.067134,0.027709,0.82121,-0.029782,-0.02426
29,0.029009,0.031932,-0.052518,0.036479,0.66628,-0.078827,-0.034004
30,0.030633,0.044275,-0.04862,0.026085,0.42657,-0.11521,-0.044073
31,0.027709,0.046548,-0.056741,-0.012892,0.15016,-0.1334,-0.04862
32,0.01894,0.038103,-0.067134,-0.076879,-0.12625,-0.13275,-0.047321
33,0.0026992,0.023162,-0.067459,-0.14899,-0.37927,-0.1204,-0.044073
34,-0.017114,0.0043233,-0.04862,-0.2107,-0.57708,-0.10286,-0.042774
35,-0.035303,-0.013216,-0.011592,-0.24838,-0.67517,-0.082725,-0.045372
36,-0.048296,-0.026858,0.034206,-0.26137,-0.64367,-0.064536,-0.046022
37,-0.054467,-0.034654,0.066686,-0.25455,-0.48159,-0.049595,-0.039851
38,-0.055441,-0.033354,0.073832,-0.23474,-0.23279,-0.038551,-0.026858
39,-0.051544,-0.023285,0.058241,-0.2042,0.031282,-0.029132,-0.010618
40,-0.044398,-0.008669,0.031932,-0.1675,0.21675,-0.018738,0.0043233
41,-0.035628,0.0072465,0.011469,-0.12755,0.22584,-0.011267,0.015692
42,-0.027183,0.021538,0.0039985,-0.086298,0.021538,-0.0073698,0.025111
43,-0.018413,0.029658,0.010495,-0.046671,-0.31399,-0.0093186,0.03583
44,-0.007045,0.032257,0.026735,-0.012892,-0.61151,-0.018088,0.046548
45,0.0056225,0.033556,0.046223,0.013743,-0.69824,-0.03303,0.054668
46,0.017965,0.037778,0.066037,0.037454,-0.48159,-0.047971,0.058891
47,0.028684,0.04395,0.0865,0.057917,-0.01614,-0.053817,0.056942
48,0.039727,0.050121,0.10242,0.079029,0.51817,-0.046022,0.055968
49,0.050771,0.055968,0.11378,0.097543,0.93587,-0.027183,0.058566
50,0.061165,0.057267,0.12125,0.11183,1.1343,-0.0018481,0.065062
51,0.06831,0.051096,0.12937,0.11866,1.1083,0.021863,0.076755
52,0.069934,0.042326,0.14074,0.11833,0.91801,0.033881,0.091696
53,0.06896,0.036154,0.15893,0.11248,0.63477,0.031607,0.10242
54,0.066037,0.036154,0.18362,0.10436,0.30737,0.015367,0.10371
55,0.058891,0.042326,0.21058,0.096244,-0.020687,-0.0050961,0.094945
56,0.049796,0.05142,0.23818,0.091696,-0.31301,-0.019388,0.076755
57,0.040702,0.058241,0.25443,0.093321,-0.56312,-0.021986,0.053694
58,0.037454,0.061165,0.23299,0.094295,-0.77294,-0.012242,0.032582
59,0.039402,0.060515,0.15536,0.088773,-0.9243,0.0052977,0.022512
60,0.040052,0.058241,0.030957,0.074482,-0.99511,0.025436,0.025761
61,0.036154,0.054993,-0.09929,0.057267,-0.98212,0.045249,0.036154
62,0.032257,0.050121,-0.18861,0.047847,-0.91943,0.054993,0.044924
63,0.028359,0.042651,-0.2133,0.045574,-0.84537,0.048497,0.046223
64,0.020888,0.033881,-0.18342,0.045249,-0.78496,0.01829,0.037778
65,0.012443,0.024786,-0.12592,0.040052,-0.74403,-0.033679,0.022188
66,0.012119,0.020239,-0.067784,0.029009,-0.70668,-0.094418,0.0075714
67,0.022188,0.020564,-0.02426,0.017965,-0.64659,-0.14022,-0.0015233
68,0.038428,0.022188,0.00075039,0.0085458,-0.55207,-0.15353,-0.0015233
69,0.050121,0.022512,0.0069217,0.0010752,-0.43547,-0.13015,0.0049729
70,0.05272,0.020564,-0.0034721,-0.0060706,-0.31561,-0.0824,0.019264
71,0.050771,0.016341,-0.028157,-0.0093186,-0.20615,-0.028807,0.039402
72,0.05142,0.015042,-0.061288,-0.010293,-0.11683,0.015367,0.059541
73,0.057917,0.016016,-0.097341,-0.007045,-0.059014,0.036154,0.072533
74,0.068635,0.016016,-0.13112,0.0017248,-0.034004,0.031607,0.074806
75,0.075131,0.012119,-0.16068,0.014717,-0.027508,0.0069217,0.067986
76,0.074482,0.0036737,-0.17659,0.029009,-0.021337,-0.027183,0.051745
77,0.067011,-0.0073698,-0.174,0.039078,0.0062721,-0.059664,0.026735
78,0.054668,-0.01614,-0.15646,0.042326,0.075781,-0.0824,-0.00087364
79,0.040702,-0.021986,-0.12982,0.037129,0.20246,-0.096367,-0.02426
80,0.029658,-0.026209,-0.10059,0.029009,0.40449,-0.10741,-0.038227
81,0.023487,-0.027183,-0.076229,0.022837,0.6796,-0.11488,-0.046347
82,0.020888,-0.024909,-0.059664,0.021863,0.98946,-0.11878,-0.051544
83,0.01764,-0.021661,-0.043423,0.02706,1.2753,-0.11326,-0.054142
84,0.013418,-0.020687,-0.018738,0.033231,1.478,-0.10059,-0.055116
85,0.0078962,-0.019388,0.020564,0.036479,1.565,-0.0824,-0.054467
86,-0.0015233,-0.017439,0.07773,0.031932,1.5332,-0.062587,-0.054792
87,-0.012567,-0.01549,0.14724,0.020888,1.4007,-0.042774,-0.055116
88,-0.022311,-0.017439,0.22032,0.0069217,1.1941,-0.021661,-0.054792
89,-0.027833,-0.020687,0.28528,-0.0018481,0.93717,-0.0015233,-0.055116
90,-0.030106,-0.019388,0.32718,-0.0031473,0.65134,0.011469,-0.061288
91,-0.034978,-0.011592,0.3405,0.0017248,0.34764,0.011794,-0.068434
92,-0.046671,0.0023744,0.33075,0.0088706,0.033881,0.0014,-0.07493
93,-0.060313,0.01829,0.31484,0.011794,-0.288,-0.011917,-0.079152
94,-0.071357,0.034206,0.30607,0.0088706,-0.60339,-0.021661,-0.077853
95,-0.076554,0.046223,0.30412,-0.00087364,-0.88045,-0.032705,-0.069408
96,-0.078827,0.056617,0.30445,-0.013541,-1.0844,-0.047971,-0.056091
97,-0.082725,0.062464,0.30055,-0.031406,-1.1825,-0.070707,-0.044723
98,-0.086948,0.064413,0.29178,-0.052843,-1.1387,-0.095393,-0.039851
99,-0.088896,0.064737,0.27359,-0.067784,-0.94249,-0.11131,-0.039851
100,-0.086623,0.066362,0.24241,-0.070382,-0.63392,-0.11131,-0.040825
101,-0.078827,0.067011,0.18979,-0.058365,-0.29417,-0.089546,-0.040825
102,-0.063237,0.064737,0.1219,-0.038551,-0.0060706,-0.053492,-0.037252
103,-0.044398,0.057917,0.053369,-0.019063,0.17972,-0.0099683,-0.025234
104,-0.026858,0.048172,-0.0018481,-0.0011985,0.25183,0.027385,-0.0080194
105,-0.012567,0.03583,-0.04115,0.014717,0.23201,0.056292,0.0085458
106,-0.00022403,0.022837,-0.07493,0.024137,0.15796,0.071883,0.019589
107,0.0088706,0.016991,-0.10968,0.023487,0.068635,0.069934,0.023487
108,0.016016,0.016341,-0.15256,0.016341,-0.012242,0.05272,0.022188
109,0.022188,0.021538,-0.20583,0.0091954,-0.081426,0.025436,0.016666
110,0.025111,0.028684,-0.26202,0.0043233,-0.14022,0.0014,0.010495
111,0.026085,0.032257,-0.30977,0.003024,-0.18731,-0.0083442,0.0091954
112,0.022188,0.029983,-0.33672,0.0085458,-0.22532,0.00075039,0.014068
113,0.014717,0.022188,-0.33835,0.022837,-0.2539,0.028359,0.022837
114,0.0075714,0.015042,-0.31074,0.040052,-0.27111,0.061814,0.030633
115,0.0023744,0.0085458,-0.24383,0.054019,-0.27793,0.084876,0.029658
116,-0.0057458,0.0049729,-0.11293,0.056942,-0.28281,0.0852,0.019264
117,-0.01614,0.003024,0.098842,0.047523,-0.28703,0.067986,0.0043233
118,-0.023935,0.0039985,0.37038,0.031932,-0.28313,0.045574,-0.0089938
119,-0.026858,0.0010752,0.64095,0.014392,-0.26851,0.028359,-0.01549
120,-0.027833,-0.0096434,0.8472,-0.0021729,-0.24026,0.01764,-0.018088
121,-0.03173,-0.027833,0.98069,-0.020362,-0.19251,0.0085458,-0.023285
122,-0.035628,-0.054792,1.0486,-0.046671,-0.1178,-0.0050961,-0.032705
123,-0.039851,-0.087922,0.99986,-0.08305,-0.022311,-0.028482,-0.045697
124,-0.041799,-0.12365,0.75041,-0.1256,0.071883,-0.056416,-0.056741
125,-0.042124,-0.15581,0.2999,-0.1649,0.13684,-0.080451,-0.060963
126,-0.039201,-0.17724,-0.23636,-0.18926,0.15438,-0.094093,-0.057065
127,-0.034004,-0.18796,-0.68459,-0.19219,0.11931,-0.092145,-0.051219
128,-0.026858,-0.18894,-0.92235,-0.1727,0.049796,-0.077853,-0.046347
129,-0.018738,-0.17887,-0.91975,-0.13404,-0.026858,-0.056741,-0.0405
130,-0.012242,-0.15808,-0.74111,-0.085324,-0.087597,-0.034329,-0.032055
131,-0.0057458,-0.1256,-0.4988,-0.035628,-0.12365,-0.014191,-0.024909
132,-0.0018481,-0.088247,-0.29158,0.0052977,-0.14087,0.0049729,-0.01614
133,-0.0018481,-0.04927,-0.17107,0.031607,-0.14541,0.027385,-0.0073698
134,-0.0024977,-0.013541,-0.14152,0.041676,-0.14216,0.049472,0.00010078
135,0.0014,0.012443,-0.16393,0.039078,-0.1282,0.065712,0.0059473
136,0.0075714,0.024461,-0.18471,0.029009,-0.096692,0.072858,0.0088706
137,0.017965,0.024137,-0.16782,0.020239,-0.039201,0.072208,0.0088706
138,0.02641,0.013743,-0.098316,0.017965,0.03583,0.067661,0.0072465
139,0.028034,-0.0018481,0.01894,0.023487,0.11963,0.06084,0.0078962
140,0.021863,-0.011917,0.15828,0.037129,0.19304,0.053369,0.010819
141,0.012119,-0.010943,0.28008,0.055968,0.22714,0.046223,0.015042
142,0.0017248,0.0020496,0.34602,0.072858,0.20733,0.036479,0.020239
143,-0.0050961,0.020888,0.34602,0.078379,0.14756,0.023162,0.026735
144,-0.010293,0.038428,0.28983,0.073832,0.078379,0.0078962,0.034206
145,-0.012892,0.047198,0.2057,0.065712,0.037778,-0.0037969,0.040052
146,-0.0083442,0.048497,0.12937,0.061165,0.051096,-0.010943,0.045574
147,0.0046481,0.044924,0.086824,0.061489,0.11736,-0.010618,0.049796
148,0.022837,0.0433,0.074157,0.064413,0.19499,-0.0044465,0.051745
149,0.040702,0.045249,0.053369,0.069934,0.21772,0.0014,0.051745
150,0.052395,0.051745,-0.012892,0.078055,0.14464,0.0023744,0.047523
151,0.053694,0.058241,-0.11683,0.080328,0.014068,-0.0054209,0.038103
152,0.04395,0.064088,-0.21297,0.074482,-0.098316,-0.022311,0.023812
153,0.030957,0.067336,-0.25585,0.062464,-0.13697,-0.042449,0.0088706
154,0.018615,0.070584,-0.22954,0.054993,-0.09182,-0.055116,-0.0031473
155,0.009845,0.080003,-0.15483,0.058241,0.016991,-0.056091,-0.0080194
156,0.0043233,0.098517,-0.073631,0.067986,0.15438,-0.047646,-0.0080194
157,0.0026992,0.12385,-0.026533,0.073182,0.28658,-0.032705,-0.0044465
158,0.0023744,0.14561,-0.037577,0.071558,0.3798,-0.0099683,-0.0011985
159,-0.0028225,0.15861,-0.10384,0.064088,0.40514,0.016016,-0.0083442
160,-0.010293,0.16348,-0.20258,0.051096,0.35057,0.035505,-0.024585
161,-0.013866,0.16348,-0.30424,0.036479,0.22747,0.042975,-0.041799
162,-0.010943,0.16056,-0.38642,0.024137,0.061814,0.039402,-0.047971
163,-0.0021729,0.15601,-0.43677,0.021538,-0.12203,0.032906,-0.044398
164,0.0059473,0.14854,-0.46275,0.025761,-0.28995,0.027709,-0.034654
165,0.009845,0.13555,-0.48679,0.026085,-0.40916,0.025761,-0.021986
166,0.009845,0.11931,-0.53388,0.017965,-0.45723,0.028359,-0.011592
167,0.0059473,0.098193,-0.60924,0.0023744,-0.43741,0.037778,-0.0021729
168,-0.00054884,0.073832,-0.68297,-0.015165,-0.37668,0.052395,0.0085458
169,-0.0060706,0.051096,-0.70538,-0.031406,-0.31139,0.065387,0.017965
170,-0.0063954,0.03453,-0.63717,-0.040175,-0.26916,0.075781,0.025111
171,-0.0011985,0.025436,-0.46925,-0.035953,-0.2565,0.087474,0.034206
172,0.0059473,0.020239,-0.23571,-0.017439,-0.2526,0.10144,0.047847
173,0.012768,0.011794,0.0010752,0.011794,-0.22954,0.11313,0.059541
174,0.01764,-0.0083442,0.19369,0.04395,-0.16685,0.12093,0.062139
175,0.019264,-0.045697,0.31711,0.067336,-0.059989,0.1271,0.054019
176,0.01829,-0.10611,0.36713,0.076755,0.078379,0.13327,0.044599
177,0.019264,-0.18796,0.36843,0.073832,0.22129,0.13132,0.0433
178,0.019589,-0.27079,0.37136,0.061489,0.33433,0.11378,0.046223
179,0.022512,-0.33055,0.41878,0.050771,0.40221,0.082277,0.047847
180,0.027385,-0.35556,0.50615,0.048172,0.43892,0.049147,0.044275
181,0.034206,-0.3429,0.61269,0.054668,0.45743,0.028034,0.037129
182,0.043625,-0.29515,0.72182,0.065712,0.45418,0.022512,0.030308
183,0.047847,-0.22597,0.80985,0.073182,0.41423,0.030308,0.024137
184,0.046548,-0.15093,0.84363,0.063763,0.3327,0.04395,0.020564
185,0.041676,-0.084024,0.80173,0.030957,0.22422,0.054019,0.020239
186,0.034206,-0.036927,0.68577,-0.023285,0.1206,0.055643,0.024137
187,0.023487,-0.013216,0.52174,-0.08305,0.053369,0.05272,0.029983
188,0.01017,-0.0096434,0.34147,-0.12982,0.03583,0.048822,0.032257
189,-0.0057458,-0.01484,0.16153,-0.15353,0.050771,0.042326,0.026735
190,-0.018413,-0.011267,0.00075039,-0.15451,0.067986,0.027709,0.015367
191,-0.026209,0.012768,-0.11488,-0.13892,0.06896,0.0052977,0.0017248
192,-0.029132,0.058566,-0.17594,-0.11293,0.06019,-0.017764,-0.0076946
193,-0.028157,0.11378,-0.2029,-0.08305,0.057592,-0.034978,-0.0093186
194,-0.024585,0.16121,-0.25975,-0.054467,0.073182,-0.037252,-0.0050961
195,-0.018738,0.18329,-0.46275,-0.034329,0.10209,-0.025559,-0.0018481
196,-0.016789,0.17192,-0.86259,-0.030431,0.13002,-0.011267,-0.0047713
197,-0.019063,0.13684,-1.3553,-0.044073,0.13912,-0.0031473,-0.010618
198,-0.025234,0.094295,-1.7483,-0.072331,0.11833,-0.007045,-0.016789
199,-0.030431,0.06084,-1.8825,-0.10319,0.06961,-0.024909,-0.018738
200,-0.030106,0.04395,-1.7087,-0.1204,0.0039985,-0.053817,-0.018413
201,-0.023935,0.040052,-1.2995,-0.11748,-0.061937,-0.085324,-0.018413
202,-0.019063,0.042651,-0.79763,-0.094418,-0.11521,-0.11228,-0.019063
203,-0.013866,0.046548,-0.34095,-0.060963,-0.14574,-0.1282,-0.022311
204,-0.0089938,0.047847,-0.016464,-0.024585,-0.14996,-0.13502,-0.02426
205,0.0020496,0.046873,0.16348,0.013418,-0.13242,-0.13275,-0.023935
206,0.019914,0.047847,0.23559,0.054344,-0.10579,-0.123,-0.016789
207,0.041027,0.053369,0.2541,0.095269,-0.086948,-0.10741,0.00010078
208,0.058891,0.059865,0.26547,0.13197,-0.096692,-0.088572,0.022837
209,0.06961,0.065712,0.29503,0.15601,-0.14411,-0.073955,0.044599
210,0.066037,0.06831,0.33823,0.16185,-0.21427,-0.067459,0.056942
211,0.054668,0.071883,0.37948,0.15276,-0.27566,-0.068109,0.062464
212,0.044924,0.073507,0.39539,0.13262,-0.29872,-0.069408,0.062464
213,0.042651,0.070584,0.37623,0.10631,-0.26819,-0.063561,0.061489
214,0.044599,0.063113,0.33433,0.082927,-0.19219,-0.050244,0.058891
215,0.048822,0.054668,0.29957,0.063113,-0.084024,-0.030106,0.052395
216,0.052395,0.048822,0.29145,0.05207,0.041676,-0.0060706,0.044924
217,0.054668,0.049472,0.31841,0.054019,0.16998,0.021863,0.041351
218,0.054344,0.056292,0.36778,0.06896,0.27424,0.049147,0.045899
219,0.053044,0.067986,0.42235,0.095269,0.30964,0.066037,0.055643
220,0.047847,0.082602,0.4675,0.12548,0.23624,0.059541,0.060515
221,0.037454,0.095594,0.49543,0.14789,0.066037,0.023487,0.055968
222,0.024137,0.10209,0.5055,0.14919,-0.13502,-0.033354,0.041351
223,0.011144,0.096569,0.50128,0.1271,-0.27469,-0.094418,0.021213
224,0.00010078,0.080003,0.48374,0.080653,-0.28865,-0.13957,0.003024
225,-0.011592,0.058891,0.45353,0.020239,-0.17854,-0.15808,-0.0096434
226,-0.022311,0.038428,0.41715,-0.043748,0.0033489,-0.14996,-0.013866
227,-0.027508,0.019264,0.3798,-0.098316,0.18946,-0.12235,-0.011917
228,-0.026209,0.00075039,0.34537,-0.13599,0.33498,-0.085973,-0.0096434
229,-0.029132,-0.018088,0.31971,-0.15288,0.42235,-0.050894,-0.0060706
230,-0.038227,-0.032055,0.30639,-0.14379,0.45386,-0.025234,-0.00054884
231,-0.050244,-0.038227,0.30445,-0.11196,0.44086,-0.011917,0.0072465
232,-0.059989,-0.035953,0.30639,-0.069733,0.38857,-0.011592,0.016016
233,-0.062262,-0.028157,0.30737,-0.030106,0.30347,-0.022636,0.024137
234,-0.052193,-0.013541,0.31094,0.0010752,0.18589,-0.036278,0.031932
235,-0.031081,0.0036737,0.31614,0.023162,0.027385,-0.043099,0.037129
236,-0.0024977,0.020239,0.31159,0.039727,-0.17854,-0.038227,0.0433
237,0.025436,0.034206,0.27586,0.053694,-0.39779,-0.025884,0.049472
238,0.044275,0.046223,0.20246,0.061165,-0.56669,-0.013216,0.048172
239,0.050446,0.051745,0.11021,0.062464,-0.6245,-0.00087364,0.0433
240,0.046223,0.049796,0.030957,0.06084,-0.53875,0.016991,0.042975
241,0.037454,0.042001,-0.012567,0.060515,-0.32828,0.043625,0.050771
242,0.028684,0.032582,-0.01549,0.060515,-0.056091,0.079029,0.061165
243,0.023162,0.020239,0.01017,0.058891,0.20473,0.11378,0.070909
244,0.021863,0.0052977,0.044924,0.054993,0.40091,0.13814,0.077405
245,0.023162,-0.013216,0.074157,0.052395,0.50095,0.14464,0.078379
246,0.028359,-0.032055,0.0865,0.048822,0.50323,0.13847,0.074157
247,0.03583,-0.042774,0.080328,0.045574,0.42787,0.12905,0.066362
248,0.045899,-0.041799,0.060515,0.045899,0.30574,0.12353,0.058891
249,0.055968,-0.034329,0.031282,0.054668,0.1755,0.1232,0.054019
250,0.061814,-0.025884,-0.013541,0.070259,0.06961,0.12223,0.054668
251,0.061489,-0.021661,-0.070382,0.089098,0.0056225,0.11508,0.058566
252,0.057592,-0.018088,-0.1269,0.11313,-0.0093186,0.10436,0.062139
253,0.052395,-0.012567,-0.1701,0.14139,0.0091954,0.099492,0.061165
254,0.046223,-0.007045,-0.19511,0.16608,0.0014,0.10469,0.055643
255,0.042975,-0.0047713,-0.20485,0.17387,-0.13599,0.11606,0.050446
256,0.044599,-0.0080194,-0.20355,0.15893,-0.48224,0.11866,0.049147
257,0.051745,-0.01614,-0.19413,0.12255,-1.0036,0.097218,0.048497
258,0.058891,-0.028482,-0.18244,0.073507,-1.5612,0.04395,0.041351
259,0.060515,-0.041799,-0.16945,0.020239,-1.9712,-0.033679,0.022837
260,0.052395,-0.055441,-0.15743,-0.026858,-2.0858,-0.11586,-0.0044465
261,0.033231,-0.064211,-0.14379,-0.062262,-1.8705,-0.17724,-0.033354
262,0.0075714,-0.067784,-0.12463,-0.08305,-1.432,-0.20713,-0.058689
263,-0.015165,-0.067784,-0.096692,-0.087922,-0.94736,-0.20875,-0.07428
264,-0.025559,-0.067134,-0.059664,-0.081426,-0.55467,-0.19348,-0.077853
265,-0.022311,-0.06681,-0.020362,-0.070707,-0.28508,-0.1701,-0.070707
266,-0.015815,-0.064211,0.014068,-0.067134,-0.10026,-0.14769,-0.059014
267,-0.01614,-0.059664,0.044275,-0.075579,0.041676,-0.13632,-0.054467
268,-0.029132,-0.053168,0.072208,-0.092145,0.1742,-0.13859,-0.061937
269,-0.048945,-0.043748,0.10209,-0.10416,0.30087,-0.14574,-0.079152
270,-0.06551,-0.031406,0.1323,-0.10189,0.41228,-0.15061,-0.098316
271,-0.07428,-0.019063,0.15666,-0.087272,0.51882,-0.15191,-0.10774
272,-0.076554,-0.011592,0.16348,-0.072006,0.63965,-0.15191,-0.10416
273,-0.07428,-0.011917,0.14367,-0.061613,0.77022,-0.14769,-0.089221
274,-0.066485,-0.01484,0.097868,-0.05804,0.88845,-0.13502,-0.069733
275,-0.052518,-0.018738,0.039078,-0.059339,0.97712,-0.11131,-0.053817
276,-0.033354,-0.021661,-0.010293,-0.058365,1.0356,-0.073306,-0.046996
277,-0.016464,-0.022311,-0.029782,-0.051868,1.0596,-0.025884,-0.046347
278,-0.012892,-0.022961,-0.014191,-0.039201,1.0401,0.020564,-0.050569
279,-0.023935,-0.027183,0.024137,-0.021986,0.97063,0.054019,-0.054467
280,-0.045372,-0.034004,0.06084,-0.0054209,0.84752,0.061814,-0.056091
281,-0.064861,-0.040825,0.071558,0.0056225,0.68382,0.035505,-0.05804
282,-0.076879,-0.047646,0.047198,0.0088706,0.49608,-0.017764,-0.065186
283,-0.077853,-0.058689,-0.0024977,0.0046481,0.30542,-0.078503,-0.077528
284,-0.073631,-0.070707,-0.05804,-0.0018481,0.13035,-0.1256,-0.085324
285,-0.06681,-0.076229,-0.10059,0.00010078,-0.018413,-0.14444,-0.0824
286,-0.057715,-0.068109,-0.1204,0.014068,-0.13794,-0.13242,-0.067459
287,-0.044398,-0.042774,-0.12138,0.033231,-0.22726,-0.097991,-0.042774
288,-0.027833,-0.0041217,-0.10968,0.048822,-0.28411,-0.061613,-0.017764
289,-0.012242,0.037454,-0.093119,0.057917,-0.31106,-0.027833,0.00075039
290,-0.00087364,0.069285,-0.07493,0.063438,-0.32601,0.00075039,0.01017
291,0.0072465,0.088448,-0.056091,0.065712,-0.34387,0.023812,0.008221
292,0.0088706,0.093321,-0.045697,0.062139,-0.37635,0.039402,0.00010078
293,0.0017248,0.086175,-0.056741,0.049796,-0.42182,0.045574,-0.0083442
294,-0.0089938,0.069934,-0.091495,0.028684,-0.46925,0.044924,-0.012567
295,-0.017439,0.052395,-0.14216,0.0026992,-0.50043,0.042001,-0.011917
296,-0.018088,0.039727,-0.19381,-0.018088,-0.49198,0.042651,-0.011267
297,-0.010943,0.036479,-0.23214,-0.030106,-0.42735,0.047523,-0.0076946
298,0.00075039,0.040377,-0.25,-0.035953,-0.31042,0.057267,-0.00054884
299,0.010495,0.046873,-0.24708,-0.038227,-0.15386,0.071558,0.01017
300,0.012119,0.050446,-0.22239,-0.038551,0.030957,0.088773,0.01829
301,0.0056225,0.050446,-0.17594,-0.039851,0.23299,0.10079,0.020239
302,-0.0037969,0.047523,-0.11098,-0.037577,0.43404,0.10826,0.015692
303,-0.011267,0.0433,-0.036602,-0.028157,0.60976,0.10729,0.0065969
304,-0.016789,0.038753,0.040702,-0.01484,0.73124,0.099492,-0.0031473
305,-0.022311,0.033881,0.11963,0.0010752,0.77184,0.089423,-0.0089938
306,-0.028157,0.024461,0.17387,0.016341,0.7215,0.076431,-0.0096434
307,-0.034329,0.010495,0.15796,0.027385,0.59872,0.061489,-0.0028225
308,-0.035303,-0.010293,0.047523,0.031607,0.44314,0.043625,0.0052977
309,-0.030431,-0.032705,-0.12235,0.030633,0.29665,0.030308,0.011469
310,-0.023935,-0.049595,-0.2932,0.030633,0.18622,0.025436,0.016016
311,-0.014191,-0.057715,-0.41728,0.036479,0.12028,0.034855,0.020888
312,-0.00022403,-0.057065,-0.48191,0.047523,0.093321,0.061165,0.027709
313,0.015042,-0.053492,-0.50627,0.060515,0.091372,0.094295,0.040377
314,0.029333,-0.04927,-0.52381,0.06896,0.099492,0.12255,0.053694
315,0.038753,-0.043748,-0.56214,0.074157,0.10534,0.13392,0.060515
316,0.042326,-0.035303,-0.61541,0.07708,0.10566,0.12872,0.057917
317,0.042326,-0.021337,-0.65991,0.076755,0.098517,0.11313,0.05142
318,0.043625,-0.0076946,-0.6703,0.066686,0.084551,0.088448,0.044599
319,0.041676,0.0033489,-0.6375,0.049147,0.066037,0.058891,0.0433
320,0.034855,0.0095202,-0.56831,0.025436,0.039078,0.02706,0.042975
321,0.025111,0.011794,-0.47964,0.0010752,-0.00022403,-0.0021729,0.037129
322,0.017316,0.01017,-0.38545,-0.01549,-0.054142,-0.027833,0.029983
323,0.013093,0.0062721,-0.29158,-0.018738,-0.11326,-0.044073,0.029658
324,0.014392,0.0062721,-0.19836,-0.011592,-0.16912,-0.051219,0.038753
325,0.01764,0.011469,-0.10579,0.00010078,-0.2133,-0.046022,0.056292
326,0.023162,0.022188,-0.017764,0.011794,-0.24253,-0.032705,0.074806
327,0.030308,0.039402,0.069285,0.022837,-0.25552,-0.017764,0.086824
328,0.033881,0.058891,0.16121,0.033556,-0.27014,-0.0060706,0.091372
329,0.032582,0.075456,0.26384,0.039727,-0.30749,-0.0015233,0.092346
330,0.028359,0.081627,0.38857,0.03583,-0.38317,-0.0067202,0.090072
331,0.021863,0.078704,0.54578,0.021863,-0.50627,-0.021337,0.081952
332,0.013418,0.067661,0.73287,0.00042559,-0.66056,-0.042124,0.066037
333,0.0091954,0.058891,0.92028,-0.021986,-0.79535,-0.059014,0.046223
334,0.014068,0.059541,1.0492,-0.035303,-0.84992,-0.060963,0.031607
335,0.025436,0.073832,1.0249,-0.032055,-0.79048,-0.045372,0.025436
336,0.039402,0.099492,0.77639,-0.013216,-0.61411,-0.017439,0.026735
337,0.048822,0.13132,0.33693,0.01764,-0.35491,0.015367,0.031932
338,0.053369,0.15958,-0.14801,0.048822,-0.067134,0.045899,0.038103
339,0.05272,0.17842,-0.50368,0.070259,0.20116,0.069934,0.042001
340,0.05272,0.18394,-0.62158,0.074806,0.4191,0.084876,0.042651
341,0.058241,0.1781,-0.4699,0.059541,0.57501,0.089748,0.042975
342,0.065387,0.16413,-0.10156,0.035505,0.67278,0.083251,0.046873
343,0.068635,0.14594,0.34959,0.01017,0.7241,0.071558,0.050121
344,0.064413,0.12353,0.72605,-0.0073698,0.73871,0.061489,0.051096
345,0.056617,0.10112,0.93035,-0.013216,0.72052,0.058566,0.048497
346,0.05272,0.080653,0.94302,-0.0050961,0.66661,0.063113,0.041676
347,0.056292,0.062789,0.804,0.012443,0.56234,0.073507,0.032257
348,0.06019,0.044924,0.5893,0.036804,0.39604,0.081303,0.022188
349,0.055643,0.029009,0.36843,0.06084,0.16705,0.076106,0.013743
350,0.043625,0.016016,0.18816,0.080003,-0.096692,0.050121,0.0056225
351,0.029009,0.0072465,0.067011,0.088448,-0.35394,0.0065969,-0.0018481
352,0.016016,0.0026992,-0.0054209,0.079029,-0.57221,-0.043423,-0.0063954
353,0.0046481,0.0017248,-0.046671,0.051745,-0.74371,-0.089871,-0.0080194
354,0.00075039,0.0039985,-0.075579,0.016016,-0.86973,-0.1308,-0.0083442
355,0.0052977,0.0069217,-0.10254,-0.019063,-0.94411,-0.16198,-0.010293
356,0.014392,0.008221,-0.13177,-0.047971,-0.94444,-0.17854,-0.01484
357,0.023487,0.0046481,-0.15905,-0.066485,-0.85089,-0.18212,-0.019712
358,0.028034,-0.0031473,-0.18082,-0.069408,-0.66705,-0.17497,-0.023935
359,0.026085,-0.015815,-0.18959,-0.057065,-0.43092,-0.15841,-0.027833
360,0.019589,-0.030431,-0.18374,-0.038876,-0.2081,-0.13664,-0.030756
361,0.014392,-0.043099,-0.16977,-0.021661,-0.052193,-0.11326,-0.029782
362,0.010819,-0.048945,-0.15581,-0.007045,0.019264,-0.088247,-0.021661
363,0.009845,-0.046671,-0.14444,0.0036737,0.030633,-0.063886,-0.0099683
364,0.0069217,-0.038876,-0.13989,0.013093,0.021863,-0.039851,-0.0011985
365,0.0026992,-0.028807,-0.13827,0.025436,0.025436,-0.017764,-0.0024977
366,-0.00087364,-0.021986,-0.13827,0.042326,0.053369,-0.00022403,-0.010293
367,-0.00087364,-0.018738,-0.13827,0.058891,0.097543,0.014392,-0.020037
368,0.0023744,-0.019388,-0.14476,0.064413,0.14074,0.020888,-0.03173
369,0.0036737,-0.022961,-0.16035,0.049472,0.16705,0.014068,-0.043748
370,-0.00054884,-0.027833,-0.18147,0.014392,0.16283,-0.011267,-0.053168
371,-0.0096434,-0.033679,-0.20388,-0.03303,0.12418,-0.051544,-0.059014
372,-0.017114,-0.04115,-0.22499,-0.082076,0.05272,-0.095393,-0.064861
373,-0.020037,-0.04862,-0.23961,-0.11293,-0.039851,-0.12463,-0.070707
374,-0.020037,-0.055766,-0.25,-0.11488,-0.1295,-0.12787,-0.072656
375,-0.018738,-0.063237,-0.25942,-0.089546,-0.19836,-0.10741,-0.067459
376,-0.020362,-0.067784,-0.26916,-0.051219,-0.23409,-0.072981,-0.056416
377,-0.024585,-0.067459,-0.26851,-0.021337,-0.22791,-0.037577,-0.042449
378,-0.031081,-0.065186,-0.24675,-0.0089938,-0.18309,-0.0050961,-0.031081
379,-0.038551,-0.064861,-0.18277,-0.007045,-0.11131,0.024786,-0.020037
380,-0.043099,-0.067134,-0.058365,-0.010293,-0.028807,0.055643,-0.0089938
381,-0.044723,-0.07493,0.1232,-0.011917,0.053694,0.084226,-0.00054884
382,-0.043423,-0.084349,0.32166,-0.0099683,0.13327,0.10534,0.0014
383,-0.037577,-0.088896,0.47659,-0.0063954,0.207,0.11411,-0.0018481
384,-0.027508,-0.084024,0.54383,-0.0015233,0.26449,0.10501,-0.0093186
385,-0.020037,-0.070058,0.50875,0.0023744,0.29665,0.078704,-0.018088
386,-0.018738,-0.04927,0.39182,0.0056225,0.30997,0.042975,-0.024585
387,-0.015815,-0.023285,0.23461,0.0062721,0.32588,0.008221,-0.026858
388,-0.0076946,0.0010752,0.087149,0.0078962,0.35804,-0.016789,-0.027183
389,0.0052977,0.01829,-0.017114,0.012443,0.39312,-0.028482,-0.029457
390,0.016341,0.028684,-0.067784,0.018615,0.39994,-0.03303,-0.034329
391,0.022512,0.036154,-0.070382,0.022837,0.37785,-0.031081,-0.039851
392,0.022837,0.042001,-0.038227,0.023812,0.36324,-0.021337,-0.040175
393,0.022188,0.044275,0.0065969,0.020239,0.39344,-0.0047713,-0.034329
394,0.022188,0.040377,0.044599,0.011794,0.48406,0.015042,-0.022961
395,0.021863,0.031607,0.063763,-0.0018481,0.62146,0.031932,-0.013866
396,0.013093,0.020239,0.065387,-0.022961,0.76762,0.039727,-0.0099683
397,-0.0060706,0.0075714,0.058891,-0.047646,0.87318,0.034855,-0.012567
398,-0.027833,-0.0050961,0.049147,-0.067459,0.86246,0.019589,-0.021337
399,-0.044073,-0.017764,0.044275,-0.079152,0.69421,-0.0037969,-0.034654
400,-0.050894,-0.027508,0.053044,-0.081101,0.41423,-0.037252,-0.04862
401,-0.04862,-0.034654,0.073182,-0.078827,0.14107,-0.072981,-0.058365
402,-0.0405,-0.037577,0.075131,-0.07428,-0.024909,-0.097991,-0.062912
403,-0.030431,-0.034004,0.014392,-0.064211,-0.062262,-0.10514,-0.060963
404,-0.021337,-0.028807,-0.11975,-0.045372,-0.033354,-0.095068,-0.050569
405,-0.016464,-0.027508,-0.28346,-0.021012,-0.024909,-0.074605,-0.032705
406,-0.016464,-0.033679,-0.39519,0.0014,-0.088896,-0.050569,-0.010618
407,-0.020037,-0.042449,-0.39194,0.019914,-0.22272,-0.027833,0.0088706
408,-0.025559,-0.045047,-0.26657,0.037454,-0.38512,-0.0096434,0.020888
409,-0.032705,-0.033354,-0.063237,0.054344,-0.52154,0.0023744,0.024786
410,-0.035303,-0.010618,0.15244,0.06831,-0.59495,0.0085458,0.021538
411,-0.034978,0.017316,0.32036,0.077405,-0.59819,0.0069217,0.011469
412,-0.034329,0.041351,0.40968,0.082277,-0.55922,-0.0021729,-0.00054884
413,-0.032705,0.053694,0.42495,0.084226,-0.51927,-0.011917,-0.0054209
414,-0.027833,0.053694,0.39117,0.083251,-0.5079,-0.017114,0.00075039
415,-0.018738,0.045249,0.34082,0.075131,-0.53551,-0.016789,0.013743
416,-0.008669,0.03518,0.28788,0.062464,-0.58423,-0.012892,0.02641
417,-0.00087364,0.025436,0.22714,0.050446,-0.6258,-0.0054209,0.036804
418,0.0014,0.019264,0.12743,0.041027,-0.63782,0.0062721,0.045899
419,-0.0015233,0.014392,-0.063561,0.036804,-0.61216,0.018615,0.056617
420,-0.0096434,0.010819,-0.3731,0.033231,-0.55012,0.030633,0.070259
421,-0.020687,0.0043233,-0.75183,0.02641,-0.45301,0.040052,0.083901
422,-0.028482,-0.0034721,-1.0588,0.016666,-0.33055,0.046873,0.092996
423,-0.028807,-0.0047713,-1.1325,0.0095202,-0.20258,0.05142,0.094295
424,-0.022961,0.0062721,-0.90351,0.01017,-0.088896,0.054019,0.089098
425,-0.012892,0.033231,-0.44164,0.024461,-0.0018481,0.055643,0.082927
426,0.00042559,0.071234,0.080653,0.054344,0.06019,0.06019,0.07773
427,0.014068,0.11346,0.48017,0.090722,0.10177,0.066686,0.073832
428,0.024461,0.14984,0.66011,0.1271,0.14204,0.071883,0.071558
429,0.030633,0.17485,0.61139,0.15633,0.19791,0.074482,0.071234
430,0.036804,0.18816,0.39474,0.17517,0.27196,0.076755,0.073182
431,0.042001,0.19044,0.10664,0.18199,0.3457,0.076106,0.077405
432,0.044924,0.18329,-0.16003,0.1755,0.39669,0.073182,0.081952
433,0.044599,0.1703,-0.34322,0.1625,0.40319,0.067986,0.082277
434,0.040052,0.15438,-0.42702,0.14951,0.35479,0.062789,0.076106
435,0.029983,0.13879,-0.42962,0.13555,0.26222,0.055318,0.060515
436,0.015692,0.12028,-0.38869,0.11638,0.15633,0.037778,0.03583
437,0.00042559,0.095919,-0.3364,0.088124,0.075131,0.008221,0.0069217
438,-0.013216,0.064088,-0.29937,0.053044,0.035505,-0.031406,-0.018088
439,-0.026209,0.027709,-0.30035,0.014068,0.031932,-0.07493,-0.031406
440,-0.038551,-0.007045,-0.33802,-0.023935,0.044599,-0.11293,-0.033679
441,-0.047971,-0.037902,-0.3744,-0.057715,0.046223,-0.13664,-0.031081
442,-0.055116,-0.068109,-0.35719,-0.088572,0.01764,-0.14574,-0.030431
443,-0.055441,-0.10741,-0.26364,-0.11683,-0.032705,-0.14834,-0.03238
444,-0.049595,-0.16263,-0.10611,-0.14119,-0.079477,-0.14834,-0.034654
445,-0.039526,-0.23116,0.076106,-0.15678,-0.081751,-0.14444,-0.035953
446,-0.026858,-0.2932,0.23948,-0.15613,-0.0015233,-0.13632,-0.033679
447,-0.013216,-0.32958,0.35024,-0.13632,0.16835,-0.11878,-0.030431
448,0.0010752,-0.32601,0.39961,-0.10124,0.3876,-0.092794,-0.023935
449,0.014717,-0.28183,0.39799,-0.059664,0.57631,-0.062262,-0.01549
450,0.024137,-0.20908,0.36129,-0.019712,0.66466,-0.033354,-0.008669
451,0.030308,-0.12495,0.31127,0.010495,0.62471,-0.0093186,-0.0031473
452,0.037454,-0.046671,0.27261,0.029983,0.49446,0.0088706,0.003024
453,0.049796,0.013743,0.26287,0.039078,0.36876,0.026085,0.011794
454,0.064413,0.052395,0.27846,0.041676,0.34407,0.041676,0.024461
455,0.074157,0.072533,0.31549,0.041351,0.46555,0.058241,0.034206
456,0.073832,0.076431,0.36096,0.044924,0.71208,0.076755,0.037129
457,0.065712,0.073832,0.39994,0.05272,1.0161,0.10339,0.032906
458,0.054993,0.070909,0.423,0.058566,1.2932,0.13814,0.029658
459,0.047847,0.074157,0.42722,0.057917,1.4828,0.169,0.029658
460,0.046873,0.080003,0.40871,0.048822,1.5592,0.18849,0.034206
461,0.050121,0.090397,0.36941,0.037129,1.5225,0.18979,0.038103
462,0.058241,0.097218,0.31419,0.027709,1.3883,0.17615,0.040052
463,0.067661,0.097218,0.24988,0.021213,1.1493,0.15406,0.042651
464,0.074482,0.089748,0.18102,0.015367,0.75106,0.1245,0.049472
465,0.073507,0.079029,0.10371,0.011794,0.13912,0.091047,0.054668
466,0.067986,0.070909,0.014717,0.011144,-0.65504,0.054344,0.05207
467,0.056942,0.069285,-0.081101,0.016016,-1.4911,0.017965,0.041027
468,0.044599,0.075131,-0.1727,0.027709,-2.1949,-0.017114,0.023487
469,0.035505,0.0852,-0.2461,0.036804,-2.6195,-0.050569,-0.0011985
470,0.028034,0.092346,-0.30879,0.031607,-2.6877,-0.085648,-0.023935
471,0.018615,0.091696,-0.37408,0.012119,-2.4243,-0.1204,-0.037577
472,0.0062721,0.081952,-0.43904,-0.022311,-1.9383,-0.14606,-0.044073
473,-0.011267,0.071234,-0.47802,-0.059989,-1.3764,-0.15223,-0.047646
474,-0.026533,0.066362,-0.45918,-0.087597,-0.86908,-0.13957,-0.04992
475,-0.034978,0.065712,-0.37505,-0.095717,-0.48191,-0.11943,-0.052843
476,-0.034004,0.06896,-0.24221,-0.082725,-0.19933,-0.10221,-0.054142
477,-0.023285,0.074157,-0.087597,-0.057065,0.034206,-0.089546,-0.050569
478,-0.0054209,0.074806,0.06019,-0.031081,0.26092,-0.073631,-0.04115
479,0.013093,0.070909,0.18622,-0.01549,0.47497,-0.04927,-0.026858
480,0.025436,0.063438,0.28106,-0.013866,0.62438,-0.021661,-0.010618
481,0.029333,0.055643,0.35869,-0.020687,0.64192,-0.0028225,0.0023744
482,0.025111,0.044275,0.44249,-0.028157,0.49316,0.0036737,0.010495
483,0.015367,0.022188,0.52661,-0.033679,0.22227,-0.0011985,0.012443
484,0.0017248,-0.017764,0.59093,-0.034978,-0.062587,-0.01614,0.0088706
485,-0.0096434,-0.069083,0.65102,-0.031081,-0.25227,-0.038227,0.0026992
486,-0.013216,-0.11618,0.72475,-0.018738,-0.28443,-0.061288,-0.0044465
487,-0.0073698,-0.14216,0.80725,0.0046481,-0.16815,-0.076554,-0.013541
488,0.0033489,-0.13924,0.87351,0.036479,0.021863,-0.079477,-0.01549
489,0.016991,-0.11358,0.89949,0.070909,0.19239,-0.067784,-0.0054209
490,0.031607,-0.077203,0.87091,0.10079,0.27684,-0.046996,0.015692
491,0.041676,-0.0405,0.79718,0.12255,0.2541,-0.023285,0.037129
492,0.046548,-0.01484,0.69356,0.1349,0.14107,-0.0041217,0.052395
493,0.048172,-0.0037969,0.57826,0.13587,-0.035953,0.0059473,0.06019
494,0.046548,-0.0041217,0.46782,0.12775,-0.2487,0.0033489,0.058891
495,0.042975,-0.0047713,0.36161,0.11736,-0.466,-0.010618,0.05272
496,0.037778,0.0059473,0.23494,0.11151,-0.669,-0.023935,0.045899
497,0.030308,0.034855,0.042651,0.10826,-0.83238,-0.027833,0.044599
498,0.023812,0.075781,-0.28995,0.096569,-0.9321,-0.023935,0.046873
499,0.019589,0.11508,-0.81549,0.067336,-0.9649,-0.017439,0.046873
500,0.01764,0.1362,-1.4609,0.024137,-0.94314,-0.010943,0.042326
501,0.012119,0.13132,-2.0377,-0.028157,-0.88987,-0.0089938,0.033881
502,0.0010752,0.10242,-2.3587,-0.080127,-0.82069,-0.010943,0.021538
503,-0.011592,0.059216,-2.3346,-0.12398,-0.73656,-0.010943,0.0091954
504,-0.019712,0.015367,-1.9991,-0.15126,-0.6271,-0.0021729,-0.0015233
505,-0.021986,-0.01614,-1.4732,-0.15191,-0.48873,0.016341,-0.0057458
506,-0.020362,-0.025884,-0.89799,-0.1256,-0.33283,0.041351,-0.0050961
507,-0.01614,-0.01614,-0.39422,-0.080776,-0.17367,0.069934,-0.0080194
508,-0.011592,0.0046481,-0.023285,-0.029132,-0.017439,0.10469,-0.013216
509,-0.0099683,0.025111,0.20278,0.01764,0.13717,0.14659,-0.020362
510,-0.013541,0.03518,0.31386,0.053044,0.28138,0.18914,-0.021661
511,-0.022311,0.032906,0.35057,0.075456,0.39539,0.22682,-0.01549
512,-0.029457,0.020239,0.34472,0.090397,0.46035,0.25183,-0.0031473
513,-0.029132,0.0056225,0.31484,0.097218,0.47335,0.258,0.010495
514,-0.022311,-0.0063954,0.27424,0.094295,0.44281,0.24208,0.019589
515,-0.017439,-0.012242,0.22747,0.076431,0.385,0.20083,0.019589
516,-0.019712,-0.014516,0.18297,0.04395,0.31549,0.13944,0.0075714
517,-0.025234,-0.014516,0.14626,0.0056225,0.24143,0.065712,-0.013866
518,-0.028157,-0.014191,0.11638,-0.030431,0.16705,-0.0057458,-0.038876
519,-0.026858,-0.013541,0.093645,-0.055766,0.099492,-0.065835,-0.059339
520,-0.021661,-0.015815,0.078379,-0.068109,0.050121,-0.10449,-0.070382
521,-0.01614,-0.019388,0.069934,-0.069733,0.029658,-0.1217,-0.070382
522,-0.008669,-0.021661,0.069285,-0.065835,0.042326,-0.12008,-0.058689
523,0.00010078,-0.022311,0.074482,-0.059339,0.082602,-0.10611,-0.039201
524,0.0075714,-0.019712,0.081627,-0.043748,0.1349,-0.088572,-0.017439
525,0.01017,-0.016464,0.086175,-0.022311,0.18622,-0.077528,0.0026992
526,0.0091954,-0.013866,0.088773,0.0014,0.23364,-0.077528,0.018615
527,0.010819,-0.01484,0.090722,0.01764,0.27067,-0.086623,0.030633
528,0.014392,-0.019388,0.097868,0.019264,0.28821,-0.098316,0.032582
529,0.014392,-0.027508,0.11054,0.0052977,0.28496,-0.10579,0.023162
530,0.0075714,-0.036278,0.12548,-0.016464,0.27294,-0.10351,0.0062721
531,-0.0044465,-0.043423,0.14042,-0.032705,0.26157,-0.088247,-0.0054209
532,-0.01484,-0.04862,0.15568,-0.034654,0.25735,-0.064211,-0.0047713
533,-0.020037,-0.048945,0.16933,-0.018738,0.26157,-0.036602,0.0072465
534,-0.022311,-0.044398,0.18329,0.0059473,0.27294,-0.013541,0.02706
535,-0.019712,-0.034329,0.19693,0.033881,0.28723,0.0014,0.049472
536,-0.012567,-0.017114,0.21188,0.059216,0.30217,0.0062721,0.063438
537,-0.00054884,0.0072465,0.23169,0.082277,0.30802,-0.0031473,0.063763
538,0.011144,0.032906,0.25507,0.097543,0.29697,-0.021337,0.052395
539,0.019589,0.056617,0.27619,0.10761,0.26482,-0.050894,0.036479
540,0.017965,0.073182,0.28723,0.10826,0.2187,-0.084024,0.020564
541,0.0056225,0.081627,0.27814,0.097543,0.17322,-0.11293,0.0088706
542,-0.0093186,0.080978,0.24598,0.078704,0.14074,-0.1282,0.0049729
543,-0.01484,0.076106,0.19466,0.055643,0.12385,-0.12495,0.0046481
544,-0.014191,0.072858,0.13652,0.034855,0.11313,-0.10351,0.0039985
545,-0.011267,0.06961,0.090397,0.019914,0.09462,-0.073631,0.0033489
546,-0.0080194,0.063438,0.070259,0.01017,0.064088,-0.044073,0.0036737
547,-0.0028225,0.053044,0.07773,0.0052977,0.029009,-0.02361,0.0069217
548,0.0023744,0.041676,0.10826,0.0039985,0.0036737,-0.014516,0.011794
549,0.0059473,0.033556,0.15276,0.0056225,-0.0076946,-0.017439,0.014068
550,0.0072465,0.030633,0.20311,0.0072465,-0.0060706,-0.023935,0.012443
551,0.0049729,0.029009,0.2593,0.012768,0.0072465,-0.030106,0.0072465
552,-0.0028225,0.026735,0.32166,0.023812,0.03583,-0.030756,0.0023744
553,-0.014516,0.01894,0.36551,0.03518,0.082927,-0.023935,0.0033489
554,-0.027183,0.00075039,0.33855,0.042001,0.14724,-0.012567,0.0072465
555,-0.036927,-0.026533,0.21285,0.040702,0.22032,-0.0057458,0.0095202
556,-0.036278,-0.057065,0.013093,0.037778,0.28983,-0.0050961,0.009845
557,-0.029457,-0.085324,-0.2068,0.03518,0.34472,-0.0060706,0.009845
558,-0.021986,-0.10449,-0.39519,0.029983,0.37363,-0.0037969,0.012119
559,-0.016464,-0.11163,-0.52154,0.019264,0.36194,0.0020496,0.016341
560,-0.013216,-0.10741,-0.58033,0.0095202,0.30282,0.009845,0.024461
561,-0.013541,-0.093769,-0.58553,0.0091954,0.20505,0.01764,0.038103
562,-0.013866,-0.07428,-0.55597,0.017316,0.090722,0.021863,0.051745
563,-0.010943,-0.050894,-0.50627,0.028359,-0.01484,0.020888,0.056292
564,-0.0044465,-0.029457,-0.44489,0.039078,-0.088247,0.016016,0.049147
565,0.0033489,-0.010943,-0.37668,0.047198,-0.11683,0.0059473,0.035505
566,0.0078962,0.0056225,-0.31042,0.049147,-0.10091,-0.007045,0.021213
567,0.010495,0.020564,-0.24903,0.046548,-0.050894,-0.021012,0.012443
568,0.014717,0.032906,-0.19771,0.039727,0.015367,-0.030431,0.0088706
569,0.021538,0.041676,-0.161,0.030308,0.078704,-0.034978,0.0059473
570,0.024137,0.040702,-0.14346,0.022188,0.12418,-0.033679,0.0033489
571,0.022512,0.033231,-0.14541,0.018615,0.15016,-0.02426,0.0014
572,0.01894,0.023487,-0.15191,0.01764,0.16315,-0.0080194,0.0026992
573,0.012768,0.016016,-0.12625,0.016666,0.1768,0.0088706,0.0026992
574,0.0069217,0.0091954,-0.014516,0.011144,0.2057,0.021863,-0.00087364
575,0.0046481,0.0056225,0.19499,-0.0034721,0.23526,0.02641,-0.0054209
576,0.0056225,0.0017248,0.44346,-0.018738,0.20635,0.020888,-0.0096434
577,0.0072465,-0.0024977,0.64874,-0.029132,0.034206,0.0046481,-0.01484
578,0.0072465,-0.0067202,0.74716,-0.038876,-0.31691,-0.017439,-0.020037
579,0.0059473,-0.0060706,0.73222,-0.052193,-0.78723,-0.040175,-0.025559
580,0.0036737,0.0026992,0.6403,-0.070058,-1.2436,-0.054142,-0.03173
581,0.0043233,0.016016,0.51947,-0.086298,-1.5473,-0.056091,-0.036927
582,0.010495,0.029009,0.41163,-0.094418,-1.5973,-0.045697,-0.039851
583,0.020239,0.042651,0.33887,-0.094418,-1.3625,-0.023935,-0.039526
584,0.033881,0.056292,0.30315,-0.087922,-0.89994,0.0049729,-0.031081
585,0.046873,0.067661,0.29633,-0.078827,-0.3312,0.033881,-0.012242
586,0.055643,0.076106,0.3025,-0.072006,0.19628,0.050771,0.008221
587,0.057267,0.078379,0.30445,-0.062262,0.57176,0.048822,0.019589
588,0.05142,0.073832,0.26449,-0.047646,0.76372,0.025436,0.013418
589,0.041027,0.060515,0.11801,-0.031081,0.79361,-0.007045,-0.0083442
590,0.023487,0.040052,-0.15905,-0.017764,0.68772,-0.033679,-0.035953
591,0.0036737,0.015367,-0.4988,-0.013216,0.46295,-0.043423,-0.058365
592,-0.011917,-0.0067202,-0.77359,-0.01614,0.16673,-0.03303,-0.068434
593,-0.02361,-0.018738,-0.87818,-0.021661,-0.097666,-0.0067202,-0.06616
594,-0.033354,-0.018413,-0.78561,-0.025884,-0.23279,0.025761,-0.055116
595,-0.0405,-0.0037969,-0.54915,-0.02361,-0.19641,0.057917,-0.040175
596,-0.043423,0.01764,-0.26884,-0.013216,-0.020037,0.087149,-0.026858
597,-0.042124,0.041351,-0.035953,0.0036737,0.21155,0.11086,-0.01614
598,-0.036602,0.057592,0.096244,0.021863,0.40838,0.12775,-0.0096434
599,-0.025884,0.065062,0.1297,0.032582,0.50777,0.13262,-0.0080194
600,-0.015165,0.063763,0.10047,0.029333,0.49771,0.12515,-0.012567
601,-0.012892,0.057917,0.050121,0.013743,0.40579,0.10274,-0.017764
602,-0.019388,0.050771,0.0095202,-0.0057458,0.27781,0.067011,-0.02426
603,-0.028157,0.046548,-0.011592,-0.02426,0.16478,0.022837,-0.033679
604,-0.038551,0.045899,-0.01549,-0.036278,0.10404,-0.019388,-0.0405
605,-0.045047,0.045249,-0.011267,-0.037577,0.11248,-0.047321,-0.040175
606,-0.043748,0.043625,-0.0050961,-0.028807,0.18264,-0.050244,-0.030106
607,-0.032055,0.039727,-0.00054884,-0.017764,0.28561,-0.029132,-0.012567
608,-0.018088,0.032257,0.0014,-0.0099683,0.38954,0.0078962,0.0059473
609,-0.0037969,0.022512,0.0023744,-0.0057458,0.46815,0.048172,0.021538
610,0.0059473,0.013093,-0.0031473,-0.0067202,0.5003,0.079679,0.030957
611,0.008221,0.0069217,-0.018088,-0.0073698,0.47107,0.093645,0.03518
612,0.0046481,0.00042559,-0.044398,-0.0096434,0.3876,0.088448,0.034206
613,-0.0015233,-0.0054209,-0.080127,-0.0089938,0.27716,0.070259,0.028684
614,-0.0011985,-0.012242,-0.11553,-0.0018481,0.17062,0.05142,0.019264
615,0.0059473,-0.017764,-0.14054,0.012119,0.083901,0.041027,0.0091954
616,0.016016,-0.020037,-0.14931,0.028359,0.018615,0.039402,0.0033489
617,0.024137,-0.017114,-0.14346,0.042975,-0.037577,0.037129,0.0062721
618,0.024786,-0.010293,-0.12755,0.052395,-0.097017,0.028034,0.016341
619,0.021538,-0.00022403,-0.11033,0.053694,-0.1636,0.016991,0.029983
620,0.022188,0.0095202,-0.097341,0.047198,-0.23474,0.010819,0.039078
621,0.028359,0.013093,-0.094418,0.03583,-0.30814,0.010819,0.044599
622,0.036479,0.0069217,-0.09929,0.023162,-0.3783,0.0095202,0.049472
623,0.042326,-0.0063954,-0.10741,0.013418,-0.43189,0.0020496,0.054668
624,0.040702,-0.016789,-0.11391,0.015042,-0.4569,-0.0096434,0.059541
625,0.035505,-0.021986,-0.11618,0.024786,-0.44878,-0.024909,0.063113
626,0.029983,-0.021012,-0.11391,0.041027,-0.41728,-0.037577,0.063763
627,0.024461,-0.017439,-0.10741,0.06019,-0.37765,-0.041799,0.063438
628,0.021863,-0.011592,-0.098965,0.082602,-0.33932,-0.035953,0.063438
629,0.022188,-0.007045,-0.088247,0.10209,-0.2997,-0.024909,0.063113
630,0.028684,-0.0044465,-0.073955,0.11541,-0.25357,-0.01549,0.057267
631,0.03583,-0.0011985,-0.058689,0.11866,-0.20615,-0.011592,0.046873
632,0.040702,0.0026992,-0.047321,0.11216,-0.17562,-0.012567,0.036154
633,0.045574,0.0062721,-0.045047,0.10112,-0.1727,-0.013866,0.027385
634,0.054344,0.0085458,-0.04992,0.091372,-0.19933,-0.01549,0.025436
635,0.065712,0.010495,-0.04927,0.085525,-0.25033,-0.019063,0.030633
636,0.078379,0.014068,-0.037577,0.081952,-0.31951,-0.025559,0.039402
637,0.085525,0.019264,-0.018738,0.080328,-0.39584,-0.036278,0.051745
638,0.083576,0.024786,0.00010078,0.077405,-0.46795,-0.055441,0.058891
639,0.071558,0.028034,0.012768,0.068635,-0.53258,-0.0824,0.056942
640,0.05272,0.025436,0.020888,0.054668,-0.58033,-0.11098,0.047523
641,0.033556,0.016341,0.028034,0.035505,-0.59917,-0.13502,0.037454
642,0.01829,0.0039985,0.039727,0.015367,-0.57253,-0.15126,0.032906
643,0.010819,-0.0028225,0.054344,-0.00087364,-0.48841,-0.15581,0.033231
644,0.0088706,-0.0047713,0.070584,-0.0096434,-0.34777,-0.14769,0.036154
645,0.014717,-0.00022403,0.080328,-0.008669,-0.1688,-0.12495,0.041351
646,0.024786,0.0075714,0.082277,0.00075039,0.015042,-0.090196,0.046873
647,0.033231,0.017316,0.076431,0.013743,0.16933,-0.048296,0.050771
648,0.036479,0.024786,0.060515,0.027709,0.26872,-0.0067202,0.054344
649,0.033881,0.02641,0.023487,0.039727,0.30607,0.026085,0.057267
650,0.024137,0.02706,-0.044723,0.051096,0.29762,0.047523,0.057267
651,0.0088706,0.031607,-0.13502,0.058241,0.27261,0.057917,0.05142
652,-0.0057458,0.042326,-0.21687,0.059216,0.26352,0.059865,0.042001
653,-0.017764,0.055968,-0.25975,0.055318,0.28463,0.061814,0.029333
654,-0.023935,0.065062,-0.24578,0.049796,0.33758,0.06896,0.015367
655,-0.025559,0.063113,-0.18342,0.044275,0.40773,0.088773,0.0026992
656,-0.023935,0.049796,-0.096692,0.038753,0.46782,0.11801,-0.0050961
657,-0.019388,0.025761,-0.01549,0.034855,0.49413,0.14984,-0.0063954
658,-0.016464,-0.00022403,0.038103,0.031282,0.47789,0.1755,-0.00054884
659,-0.01614,-0.02361,0.054344,0.027385,0.42625,0.19044,0.0065969
660,-0.022636,-0.039526,0.041027,0.017965,0.35382,0.19206,0.0088706
661,-0.032705,-0.048945,0.010495,0.0043233,0.27359,0.17972,0.0023744
662,-0.043748,-0.052843,-0.028157,-0.013866,0.19174,0.14756,-0.01484
663,-0.054142,-0.056416,-0.070707,-0.035628,0.10729,0.097868,-0.040825
664,-0.06616,-0.059014,-0.10611,-0.060313,0.029658,0.037778,-0.067784
665,-0.077528,-0.059664,-0.1295,-0.080776,-0.035628,-0.015815,-0.088572
666,-0.082725,-0.055441,-0.13275,-0.09117,-0.087272,-0.052193,-0.098316
667,-0.07428,-0.047321,-0.10286,-0.084349,-0.1308,-0.070058,-0.094418
668,-0.050244,-0.038551,-0.016789,-0.062912,-0.17627,-0.073306,-0.07493
669,-0.018413,-0.03173,0.13814,-0.03238,-0.22921,-0.067459,-0.044073
670,0.0072465,-0.026858,0.34894,-0.00087364,-0.28995,-0.060963,-0.010293
671,0.021213,-0.025234,0.56981,0.01829,-0.35264,-0.054467,0.01894
672,0.021213,-0.024585,0.73449,0.021538,-0.41013,-0.047971,0.031282
673,0.015042,-0.024585,0.79458,0.015367,-0.45658,-0.045697,0.025761
674,0.008221,-0.021986,0.74131,0.0088706,-0.48938,-0.051544,0.012768
675,0.0072465,-0.01614,0.61139,0.0046481,-0.5027,-0.066485,0.0023744
676,0.013743,-0.0057458,0.45873,-0.00054884,-0.49133,-0.084349,0.00075039
677,0.024461,0.0062721,0.33011,-0.007045,-0.45008,-0.10026,0.0023744
678,0.029009,0.013418,0.24436,-0.017439,-0.36466,-0.11326,0.0017248
679,0.025436,0.013093,0.18459,-0.031081,-0.22207,-0.12398,-0.0044465
680,0.022188,0.0075714,0.11118,-0.044398,-0.014191,-0.13112,-0.011592
681,0.025436,-0.00022403,-0.0060706,-0.050569,0.23851,-0.13145,-0.012242
682,0.03453,-0.0073698,-0.15061,-0.043423,0.47075,-0.12398,-0.0054209
683,0.041351,-0.0099683,-0.26981,-0.023285,0.60164,-0.11456,0.0059473
684,0.040052,-0.008669,-0.30814,0.00042559,0.588,-0.10968,0.015367
685,0.030957,-0.0060706,-0.24415,0.017965,0.44834,-0.10579,0.016666
686,0.016991,-0.0037969,-0.09929,0.028034,0.24663,-0.098641,0.013743
687,0.0020496,0.0010752,0.071883,0.035505,0.081627,-0.085973,0.012768
688,-0.0099683,0.011794,0.2096,0.047523,0.03453,-0.06551,0.017316
689,-0.01549,0.023812,0.27911,0.066037,0.11378,-0.035953,0.026735
690,-0.017764,0.032582,0.27456,0.087799,0.2606,0.0017248,0.031607
691,-0.018413,0.03518,0.22097,0.10794,0.40156,0.042975,0.025111
692,-0.021012,0.03518,0.13912,0.11508,0.48439,0.075781,0.011144
693,-0.026858,0.038753,0.045899,0.10339,0.48309,0.091696,-0.0021729
694,-0.033679,0.047847,-0.052843,0.069285,0.38857,0.0852,-0.011917
695,-0.041799,0.057917,-0.15905,0.020564,0.19206,0.058241,-0.021986
696,-0.046022,0.064088,-0.26657,-0.029457,-0.092794,0.023162,-0.033354
697,-0.04115,0.062464,-0.36011,-0.069733,-0.39454,-0.0041217,-0.042449
698,-0.025884,0.052395,-0.4241,-0.091495,-0.61606,-0.012892,-0.045697
699,-0.0076946,0.03518,-0.44618,-0.092469,-0.68817,-0.0037969,-0.045047
700,0.0049729,0.016016,-0.44261,-0.080451,-0.5969,0.0085458,-0.044398
701,0.011144,-0.0011985,-0.44748,-0.062262,-0.3861,0.011469,-0.04115
702,0.013093,-0.01484,-0.46048,-0.045372,-0.13827,0.0020496,-0.033679
703,0.016016,-0.020037,-0.44618,-0.033679,0.057267,-0.013541,-0.024585
704,0.022837,-0.011917,-0.36726,-0.027183,0.14334,-0.029457,-0.017114
705,0.029333,0.014392,-0.22337,-0.021986,0.11054,-0.040825,-0.011592
706,0.030308,0.053369,-0.048945,-0.015165,0.0010752,-0.043748,-0.011917
707,0.025436,0.091696,0.10859,-0.0050961,-0.12463,-0.037252,-0.018413
708,0.019589,0.11671,0.21382,0.0072465,-0.22532,-0.02426,-0.027833
709,0.013743,0.1258,0.25605,0.013093,-0.28898,-0.010293,-0.040175
710,0.0059473,0.1206,0.24306,0.0085458,-0.32698,-0.0057458,-0.051219
711,-0.0057458,0.10664,0.20408,0.00042559,-0.34647,-0.014516,-0.054467
712,-0.015815,0.09462,0.16608,-0.0037969,-0.34355,-0.027833,-0.046671
713,-0.021986,0.088773,0.14594,0.003024,-0.32081,-0.030756,-0.030431
714,-0.022961,0.087149,0.14367,0.011794,-0.28605,-0.016789,-0.0096434
715,-0.021986,0.08585,0.14561,0.017316,-0.24838,0.0072465,0.010495
716,-0.02426,0.079029,0.1323,0.011469,-0.20972,0.032582,0.025436
717,-0.030431,0.064413,0.093645,-0.0067202,-0.15873,0.05142,0.034855
718,-0.032705,0.038428,0.03583,-0.029782,-0.088572,0.063763,0.038103
719,-0.031406,0.00042559,-0.025884,-0.04927,-0.0018481,0.067986,0.038428
720,-0.030756,-0.044073,-0.080127,-0.060313,0.084226,0.066037,0.031932
721,-0.030431,-0.085648,-0.11521,-0.060638,0.14432,0.061165,0.019589
722,-0.034004,-0.11943,-0.1269,-0.051544,0.15861,0.054668,0.0052977
723,-0.038551,-0.14184,-0.11618,-0.037577,0.1297,0.046223,-0.0063954
724,-0.037577,-0.16068,-0.097341,-0.024909,0.07773,0.035505,-0.0096434
725,-0.028807,-0.18569,-0.087597,-0.017114,0.034206,0.022512,-0.0041217
726,-0.017764,-0.22337,-0.094093,-0.018738,0.021863,0.0065969,0.0033489
727,-0.0099683,-0.26754,-0.11521,-0.026858,0.045249,-0.007045,0.0026992
728,-0.008669,-0.29872,-0.13534,-0.032055,0.090722,-0.01549,-0.0096434
729,-0.010618,-0.30197,-0.14054,-0.029782,0.14691,-0.016464,-0.02361
730,-0.007045,-0.26754,-0.12365,-0.019388,0.20505,-0.011592,-0.025234
731,0.0043233,-0.20031,-0.085648,-0.0037969,0.2515,-0.0044465,-0.013866
732,0.019264,-0.11553,-0.030431,0.013418,0.27424,0.0010752,0.0033489
733,0.032582,-0.032705,0.029009,0.029983,0.27099,0.0052977,0.015692
734,0.036479,0.036804,0.080978,0.043625,0.24241,0.012119,0.019264
735,0.026735,0.092996,0.11801,0.054993,0.19758,0.019589,0.014068
736,0.012768,0.13587,0.13814,0.063763,0.14399,0.026735,0.0046481
737,-0.00054884,0.16445,0.14724,0.074482,0.083901,0.028359,-0.0031473
738,-0.012892,0.18102,0.15179,0.092346,0.027385,0.024137,-0.0057458
739,-0.019388,0.18492,0.15309,0.11866,-0.0050961,0.016991,0.0036737
740,-0.015815,0.17874,0.15276,0.14984,0.003024,0.012768,0.021538
741,-0.0031473,0.16738,0.15341,0.17874,0.060515,0.016666,0.041027
742,0.012443,0.15601,0.15763,0.19661,0.16413,0.028034,0.056292
743,0.022837,0.14399,0.15861,0.19336,0.29762,0.045249,0.066037
744,0.025436,0.12678,0.14496,0.16283,0.43177,0.063763,0.06961
745,0.022188,0.10177,0.10761,0.10956,0.49998,0.081627,0.06896
746,0.019264,0.066037,0.040052,0.049147,0.41423,0.098517,0.061814
747,0.019589,0.019589,-0.041799,-0.0018481,0.14561,0.11118,0.045899
748,0.025761,-0.029132,-0.093769,-0.031081,-0.23474,0.11931,0.032582
749,0.03453,-0.068758,-0.095393,-0.035303,-0.58715,0.12223,0.027709
750,0.044275,-0.092145,-0.058365,-0.020037,-0.76612,0.12158,0.033231
751,0.049796,-0.093769,-0.0050961,0.0020496,-0.70181,0.11541,0.04395
752,0.050771,-0.075904,0.045899,0.022188,-0.43449,0.10404,0.054668
753,0.056617,-0.043099,0.095594,0.036804,-0.086948,0.091696,0.059865
754,0.069934,-0.0011985,0.15698,0.042001,0.19888,0.075131,0.058566
755,0.082602,0.037454,0.24598,0.037778,0.3392,0.050121,0.053044
756,0.0865,0.056942,0.35187,0.02706,0.33498,0.014068,0.044924
757,0.077405,0.048497,0.42138,0.013418,0.2502,-0.029457,0.03583
758,0.056292,0.016991,0.40806,-0.008669,0.16608,-0.073306,0.021863
759,0.028684,-0.021661,0.31614,-0.036602,0.14529,-0.11131,0.0017248
760,-0.0018481,-0.052193,0.18687,-0.06551,0.19953,-0.13957,-0.015165
761,-0.025559,-0.064536,0.06896,-0.085324,0.30997,-0.15581,-0.02426
762,-0.034329,-0.05739,-0.015165,-0.092794,0.42787,-0.16263,-0.022961
763,-0.026209,-0.035303,-0.066485,-0.084999,0.48991,-0.16035,-0.017764
764,-0.0080194,-0.0089938,-0.098965,-0.063237,0.43502,-0.15223,-0.013541
765,0.013418,0.011469,-0.11943,-0.032055,0.23624,-0.14022,-0.0099683
766,0.032906,0.021538,-0.13567,0.0014,-0.077853,-0.1282,-0.0080194
767,0.044599,0.025761,-0.15126,0.030308,-0.42572,-0.11715,-0.0050961
768,0.047198,0.030308,-0.1675,0.049147,-0.71253,-0.10774,0.00010078
769,0.041676,0.036154,-0.18017,0.055318,-0.87785,-0.098641,0.0078962
770,0.029983,0.042651,-0.18082,0.053044,-0.91228,-0.092145,0.016016
771,0.016666,0.049472,-0.17042,0.040052,-0.8496,-0.093769,0.021863
772,0.0069217,0.054019,-0.15905,0.016991,-0.73007,-0.10449,0.023487
773,0.0052977,0.057592,-0.15191,-0.0067202,-0.5891,-0.11488,0.021538
774,0.011469,0.061165,-0.14314,-0.022311,-0.44424,-0.11748,0.01829
775,0.019589,0.063763,-0.11975,-0.026858,-0.30489,-0.11293,0.014717
776,0.023162,0.065062,-0.068434,-0.019712,-0.16977,-0.11001,0.011144
777,0.020564,0.064413,0.016991,-0.0067202,-0.025234,-0.10936,0.0059473
778,0.013093,0.061165,0.13392,0.0043233,0.15244,-0.11033,-0.0021729
779,0.0039985,0.056617,0.26644,0.01017,0.35024,-0.11261,-0.0083442
780,-0.0024977,0.057917,0.39149,0.013093,0.51135,-0.11066,-0.0096434
781,-0.0057458,0.062139,0.49088,0.016666,0.57988,-0.098641,-0.007045
782,-0.0067202,0.067336,0.55292,0.022188,0.52661,-0.076229,-0.00054884
783,-0.0083442,0.070259,0.57826,0.024786,0.37688,-0.053817,0.0085458
784,-0.013216,0.071883,0.56754,0.016991,0.19369,-0.045697,0.012443
785,-0.018413,0.069285,0.53051,-0.00022403,0.0433,-0.055116,0.0078962
786,-0.023285,0.063438,0.46945,-0.022961,-0.035303,-0.076879,-0.0028225
787,-0.025559,0.05272,0.3772,-0.043748,-0.03238,-0.096042,-0.013216
788,-0.025559,0.03518,0.24923,-0.054142,0.036154,-0.098965,-0.018088
789,-0.025234,0.012443,0.096893,-0.050894,0.14074,-0.077528,-0.01614
790,-0.022311,-0.008669,-0.058689,-0.037902,0.25378,-0.033679,-0.011267
791,-0.019063,-0.027183,-0.20355,-0.017764,0.35706,0.016991,-0.0076946
792,-0.016464,-0.041799,-0.35329,0.0039985,0.44216,0.059541,-0.0050961
793,-0.012567,-0.054467,-0.55987,0.023487,0.512,0.085525,-0.0018481
794,-0.0047713,-0.063561,-0.90351,0.033231,0.57306,0.095594,0.0020496
795,0.0046481,-0.061937,-1.3894,0.031932,0.63445,0.095594,0.0059473
796,0.011469,-0.04115,-1.8945,0.023487,0.69194,0.093645,0.0095202
797,0.013418,0.0017248,-2.244,0.013093,0.72864,0.094295,0.011794
798,0.012443,0.056617,-2.3142,-0.00087364,0.73676,0.098517,0.011794
799,0.009845,0.10956,-2.0887,-0.018088,0.7111,0.10047,0.010495
800,0.0059473,0.14691,-1.66,-0.035303,0.6286,0.092346,0.012119
801,-0.00054884,0.16121,-1.1669,-0.044398,0.47724,0.074482,0.01764
802,-0.0063954,0.15211,-0.7213,-0.042124,0.28008,0.058241,0.022837
803,-0.012242,0.12613,-0.34809,-0.03173,0.088448,0.053694,0.023812
804,-0.017439,0.086824,0.0023744,-0.019712,-0.05739,0.055643,0.015042
805,-0.021986,0.038753,0.36356,-0.016464,-0.15581,0.051096,0.00010078
806,-0.029457,-0.0093186,0.71305,-0.026533,-0.22726,0.030957,-0.018738
807,-0.037252,-0.045047,0.99758,-0.038551,-0.28281,0.0020496,-0.034978
808,-0.041799,-0.060963,1.1707,-0.041799,-0.31106,-0.025884,-0.044723
809,-0.038227,-0.056741,1.2178,-0.030106,-0.29807,-0.045047,-0.045697
810,-0.029132,-0.036927,1.1613,-0.0099683,-0.2461,-0.050894,-0.040825
811,-0.018738,-0.0073698,1.0499,0.013418,-0.17822,-0.044398,-0.03303
812,-0.012892,0.028034,0.93814,0.036479,-0.1204,-0.026533,-0.022311
813,-0.008669,0.065062,0.86994,0.054993,-0.095393,-0.0047713,-0.008669
814,-0.0063954,0.097218,0.85824,0.065062,-0.11488,0.012443,0.0017248
815,-0.0047713,0.11963,0.89235,0.065712,-0.1727,0.017965,0.0069217
816,-0.00054884,0.12872,0.94627,0.060515,-0.24415,0.012768,0.0062721
817,0.0062721,0.12515,0.99434,0.054668,-0.30035,0.0039985,0.0033489
818,0.013418,0.11054,1.0125,0.053694,-0.32308,-0.00022403,0.0020496
819,0.020239,0.092671,0.95309,0.055968,-0.30619,0.0056225,0.0049729
820,0.027385,0.072208,0.75138,0.059865,-0.2565,0.021538,0.016016
821,0.036479,0.050121,0.39117,0.061165,-0.18699,0.045249,0.035505
822,0.046548,0.024786,-0.046022,0.059541,-0.11228,0.072208,0.054344
823,0.055643,-0.0011985,-0.41858,0.06019,-0.046671,0.10014,0.067011
824,0.06084,-0.021012,-0.60924,0.06831,-0.0083442,0.1245,0.070909
825,0.059541,-0.032055,-0.58325,0.079679,-0.012242,0.14074,0.069934
826,0.053369,-0.03173,-0.38999,0.092021,-0.051544,0.14756,0.071883
827,0.043625,-0.022311,-0.13469,0.10079,-0.099615,0.13879,0.076106
828,0.031607,-0.0089938,0.082277,0.10371,-0.12138,0.11638,0.078704
829,0.018615,0.0020496,0.20928,0.099817,-0.081101,0.084226,0.071883
830,0.0095202,0.0065969,0.24371,0.092671,0.022837,0.05142,0.057592
831,0.0075714,0.0043233,0.21123,0.0865,0.1349,0.02641,0.041676
832,0.0091954,0.00042559,0.14334,0.082927,0.16673,0.010495,0.028684
833,0.01017,-0.0037969,0.055318,0.080328,0.085525,0.00075039,0.021863
834,0.010819,-0.0089938,-0.053492,0.074482,-0.052518,-0.010293,0.017316
835,0.0078962,-0.014516,-0.17919,0.065387,-0.15743,-0.025234,0.012443
836,-0.0021729,-0.020687,-0.30327,0.050446,-0.18244,-0.042774,0.009845
837,-0.01549,-0.029457,-0.39324,0.032906,-0.13177,-0.060313,0.01017
838,-0.027508,-0.044398,-0.42215,0.010495,-0.045697,-0.079802,0.0088706
839,-0.034978,-0.064861,-0.37765,-0.011592,0.031932,-0.097341,0.0043233
840,-0.0405,-0.084349,-0.27306,-0.027183,0.074482,-0.10676,-0.0076946
841,-0.044398,-0.096042,-0.14119,-0.03303,0.076755,-0.10709,-0.023935
842,-0.047646,-0.096042,-0.019063,-0.027508,0.050446,-0.09994,-0.038227
843,-0.047971,-0.084999,0.066362,-0.01484,0.011469,-0.086298,-0.044723
844,-0.0405,-0.068434,0.10469,0.003024,-0.021661,-0.070058,-0.044073
845,-0.027183,-0.050244,0.10566,0.024786,-0.03303,-0.051544,-0.038551
846,-0.010943,-0.034978,0.088124,0.049796,-0.01549,-0.026209,-0.030431
847,0.0069217,-0.021986,0.070259,0.080653,0.023162,0.0065969,-0.018088
848,0.023812,-0.0096434,0.067011,0.11443,0.072858,0.043625,-0.0024977
849,0.034855,0.0017248,0.081303,0.14626,0.11638,0.080003,0.010495
850,0.041027,0.011144,0.10436,0.16803,0.14074,0.11476,0.016666
851,0.041351,0.019914,0.12483,0.17582,0.13749,0.14237,0.014392
852,0.036804,0.028359,0.12905,0.1664,0.099492,0.1625,0.0062721
853,0.028684,0.03583,0.10924,0.13652,0.013418,0.17095,-0.0034721
854,0.019264,0.035505,0.066362,0.084551,-0.1334,0.16315,-0.012567
855,0.0088706,0.026085,0.012443,0.014068,-0.34744,0.13425,-0.022311
856,-0.0021729,0.0072465,-0.044073,-0.063237,-0.60599,0.083901,-0.035953
857,-0.013866,-0.01484,-0.097341,-0.13177,-0.85804,0.027385,-0.050244
858,-0.025559,-0.033679,-0.14216,-0.17822,-1.0477,-0.011917,-0.058365
859,-0.037252,-0.046671,-0.17107,-0.19186,-1.1484,-0.01484,-0.055441
860,-0.04927,-0.054142,-0.18277,-0.1753,-1.1608,0.014717,-0.044398
861,-0.054467,-0.057715,-0.18244,-0.14119,-1.0906,0.058241,-0.035303
862,-0.052518,-0.060638,-0.17692,-0.10319,-0.93047,0.089098,-0.033679
863,-0.043748,-0.06616,-0.1714,-0.076879,-0.66705,0.093321,-0.039851
864,-0.031406,-0.073631,-0.1727,-0.069408,-0.31269,0.070909,-0.052518
865,-0.020362,-0.078178,-0.17952,-0.078827,0.079029,0.035505,-0.064211
866,-0.01549,-0.079477,-0.18471,-0.098316,0.4269,-0.0021729,-0.065186
867,-0.013216,-0.078827,-0.18471,-0.1191,0.66043,-0.032055,-0.056741
868,-0.012242,-0.076229,-0.17789,-0.13372,0.75171,-0.051219,-0.04115
869,-0.0099683,-0.068758,-0.1662,-0.13567,0.7202,-0.059664,-0.021986
870,-0.010943,-0.055116,-0.15483,-0.1243,0.61366,-0.059989,-0.0024977
871,-0.011917,-0.039851,-0.14314,-0.10514,0.48829,-0.052843,0.013418
872,-0.011267,-0.026209,-0.1321,-0.085324,0.3798,-0.045047,0.018615
873,-0.0076946,-0.017764,-0.11651,-0.072006,0.30347,-0.043748,0.015367
874,-0.0011985,-0.01549,-0.10124,-0.063561,0.25085,-0.051544,0.0062721
875,0.008221,-0.015165,-0.088896,-0.054792,0.20538,-0.06551,-0.0034721
876,0.019589,-0.017114,-0.080127,-0.043423,0.16413,-0.07428,-0.0067202
877,0.027709,-0.019388,-0.072006,-0.028157,0.12743,-0.075904,-0.0028225
878,0.024786,-0.021012,-0.064211,-0.0054209,0.092346,-0.073631,0.0056225
879,0.017965,-0.020687,-0.053168,0.024137,0.055968,-0.071032,0.01764
880,0.016016,-0.014516,-0.037577,0.05272,0.025111,-0.072006,0.032257
881,0.022512,-0.0050961,-0.021661,0.073507,0.010495,-0.074605,0.041676
882,0.030633,0.0033489,-0.012242,0.082602,0.017965,-0.079802,0.044275
883,0.033231,0.0059473,-0.012242,0.079354,0.038428,-0.086298,0.039727
884,0.031282,0.0036737,-0.020362,0.068635,0.055968,-0.092469,0.029009
885,0.029009,0.0026992,-0.03173,0.057592,0.059865,-0.09182,0.01829
886,0.029983,0.0059473,-0.040825,0.050121,0.04395,-0.082725,0.015042
887,0.036804,0.014717,-0.044723,0.047523,0.0036737,-0.067134,0.018615
888,0.045899,0.023487,-0.042124,0.047847,-0.064536,-0.047321,0.025761
889,0.054993,0.029983,-0.034978,0.045899,-0.16523,-0.027183,0.034855
890,0.061814,0.031932,-0.025559,0.041676,-0.30067,-0.010943,0.044275
891,0.064737,0.030633,-0.015165,0.039078,-0.46795,-0.0021729,0.049147
892,0.062789,0.029009,-0.0080194,0.036479,-0.64984,-0.0031473,0.046223
893,0.059216,0.02641,-0.0060706,0.034206,-0.80932,-0.013866,0.039078
894,0.054993,0.025436,-0.0080194,0.026735,-0.89637,-0.030106,0.030633
895,0.046548,0.026085,-0.012892,0.012443,-0.87915,-0.042774,0.019589
896,0.032257,0.028359,-0.018088,-0.0037969,-0.76612,-0.048945,0.0091954
897,0.01764,0.030957,-0.018738,-0.016789,-0.59105,-0.050244,0.0033489
898,0.0069217,0.031282,-0.014516,-0.024585,-0.40006,-0.053492,0.0052977
899,0.0043233,0.031932,-0.0076946,-0.026209,-0.23149,-0.057065,0.011144
900,0.0059473,0.033231,-0.0015233,-0.019712,-0.10579,-0.059664,0.017316
901,0.012443,0.036479,0.0033489,-0.008669,-0.018738,-0.05804,0.024461
902,0.017965,0.038428,0.0088706,0.01017,0.043625,-0.052843,0.026085
903,0.020239,0.041351,0.016341,0.032582,0.095269,-0.046996,0.019914
904,0.01764,0.04395,0.022512,0.05207,0.14367,-0.042124,0.010495
905,0.013418,0.044275,0.027385,0.062139,0.1768,-0.039526,0.0023744
906,0.0059473,0.040702,0.028359,0.064088,0.16575,-0.040825,-0.0028225
907,-0.0047713,0.032257,0.025111,0.062139,0.10631,-0.044398,-0.0096434
908,-0.013866,0.021863,0.019589,0.06084,0.02706,-0.048945,-0.015165
909,-0.01614,0.014068,0.015367,0.059865,-0.034654,-0.050894,-0.01484
910,-0.015165,0.0088706,0.013743,0.057917,-0.041799,-0.04927,-0.0044465
911,-0.012567,0.0046481,0.015692,0.055968,0.02641,-0.042449,0.012119
912,-0.0080194,0.0010752,0.020888,0.056292,0.14659,-0.028482,0.02641
913,-0.0024977,0.0010752,0.028359,0.058241,0.26872,-0.010293,0.030633
914,0.0036737,0.0046481,0.033231,0.059541,0.34992,0.0036737,0.025111
915,0.0072465,0.011794,0.036154,0.057917,0.37688,0.009845,0.020239
916,0.0078962,0.020888,0.035505,0.049147,0.36648,0.012119,0.021538
917,0.0072465,0.028034,0.030633,0.033556,0.3457,0.017316,0.025111
918,0.0062721,0.032906,0.023812,0.015692,0.33823,0.029983,0.024786
919,0.0043233,0.033881,0.015367,-0.0024977,0.35024,0.04395,0.017316
920,0.0020496,0.031607,0.0043233,-0.014516,0.37558,0.052395,0.0056225
921,-0.00022403,0.029658,-0.0060706,-0.019712,0.40254,0.051745,-0.0024977
922,-0.0063954,0.030633,-0.0096434,-0.011917,0.4256,0.047523,-0.0024977
923,-0.016789,0.033556,-0.0047713,0.008221,0.44541,0.046223,0.0036737
924,-0.032055,0.036804,0.0062721,0.032582,0.45938,0.053044,0.01017
925,-0.046671,0.038103,0.016991,0.050771,0.46782,0.064088,0.01764
926,-0.051219,0.03453,0.018615,0.058241,0.4727,0.075456,0.022837
927,-0.04115,0.028359,0.0078962,0.056617,0.47172,0.084876,0.024137
928,-0.019712,0.021863,-0.018088,0.051096,0.46555,0.089423,0.022837
929,0.0072465,0.01764,-0.054792,0.041676,0.45613,0.089098,0.017965
930,0.028684,0.013743,-0.09117,0.028359,0.43567,0.082927,0.012768
931,0.039402,0.014068,-0.11618,0.014392,0.3889,0.06961,0.0085458
932,0.041351,0.01894,-0.12333,0.0078962,0.30867,0.054344,0.0039985
933,0.041351,0.029333,-0.10936,0.011144,0.20278,0.040702,-0.0018481
934,0.04395,0.0433,-0.077528,0.023487,0.08585,0.031607,-0.0044465
935,0.046223,0.06084,-0.03173,0.036479,-0.027183,0.028034,0.00075039
936,0.045899,0.076755,0.021538,0.041676,-0.1178,0.027385,0.012443
937,0.039402,0.089423,0.079029,0.035505,-0.17562,0.028359,0.022188
938,0.029009,0.094295,0.13555,0.022512,-0.19998,0.025436,0.024786
939,0.016666,0.089423,0.18427,0.009845,-0.19836,0.022188,0.021538
940,0.0062721,0.078379,0.22649,-0.0018481,-0.18374,0.020239,0.014068
941,0.00075039,0.063438,0.26872,-0.0083442,-0.17107,0.023812,0.0078962
942,-0.00054884,0.047847,0.31776,-0.010943,-0.16198,0.032257,0.0052977
943,0.0049729,0.033556,0.3733,-0.0073698,-0.14964,0.039727,0.009845
944,0.014717,0.017965,0.44346,0.0036737,-0.12398,0.0433,0.021213
945,0.025111,-0.0041217,0.53538,0.015367,-0.081426,0.041676,0.031607
946,0.029658,-0.036602,0.61886,0.021538,-0.034329,0.031282,0.03453
947,0.022188,-0.077203,0.63445,0.014392,-0.015815,0.014068,0.029658
948,0.0043233,-0.11066,0.54026,-0.007045,-0.072331,-0.008669,0.020564
949,-0.01614,-0.12463,0.34147,-0.032705,-0.22434,-0.036927,0.014392
950,-0.034654,-0.11098,0.0865,-0.051544,-0.44131,-0.062912,0.010495
951,-0.048296,-0.07493,-0.14866,-0.059014,-0.66478,-0.0824,0.0059473
952,-0.056416,-0.026858,-0.29905,-0.053492,-0.83141,-0.090196,-0.0024977
953,-0.060313,0.01764,-0.3416,-0.036602,-0.90124,-0.081751,-0.011592
954,-0.059014,0.045574,-0.2932,-0.01484,-0.85414,-0.059339,-0.016464
955,-0.051868,0.051745,-0.19901,0.0085458,-0.70148,-0.029782,-0.014191
956,-0.042124,0.042001,-0.10838,0.028359,-0.4699,0.0017248,-0.0050961
957,-0.033679,0.023812,-0.050894,0.040052,-0.18666,0.030633,0.0059473
958,-0.030106,0.0049729,-0.029457,0.045899,0.11021,0.047847,0.016341
959,-0.026533,-0.0080194,-0.032055,0.051096,0.36876,0.049472,0.026085
960,-0.020687,-0.010618,-0.044723,0.063113,0.53831,0.037129,0.030957
961,-0.0096434,-0.0054209,-0.057715,0.076106,0.58183,0.01894,0.031607
962,0.0010752,0.0026992,-0.062587,0.079679,0.49088,-0.0041217,0.02706
963,0.0033489,0.010819,-0.059339,0.059865,0.31127,-0.031081,0.015367
964,-0.0050961,0.01894,-0.04862,0.015042,0.1206,-0.059664,-0.0031473
965,-0.01614,0.025761,-0.036278,-0.041799,-0.0021729,-0.083375,-0.024909
966,-0.021661,0.032582,-0.028807,-0.089546,-0.017114,-0.098641,-0.037252
967,-0.017764,0.037778,-0.025884,-0.11813,0.067986,-0.10124,-0.034654
968,-0.0083442,0.038753,-0.013541,-0.12527,0.20668,-0.097341,-0.02426
969,-0.0015233,0.037454,0.02641,-0.11845,0.3444,-0.088247,-0.015165
970,-0.0037969,0.033881,0.097218,-0.10676,0.44151,-0.075255,-0.014191
971,-0.014191,0.027385,0.18557,-0.096692,0.48114,-0.062262,-0.021337
972,-0.022311,0.020239,0.27034,-0.088896,0.46523,-0.052843,-0.030431
973,-0.017764,0.017316,0.3366,-0.081101,0.40189,-0.04862,-0.036602
974,0.0014,0.021538,0.37558,-0.071032,0.30185,-0.048945,-0.038551
975,0.028034,0.029658,0.37915,-0.059664,0.18459,-0.054467,-0.034978
976,0.050121,0.039078,0.34537,-0.046996,0.07708,-0.062912,-0.026209
977,0.058566,0.047523,0.27359,-0.034978,-0.0063954,-0.067134,-0.01549
978,0.054019,0.051096,0.17095,-0.023285,-0.072006,-0.067459,-0.0034721
979,0.042326,0.047523,0.047847,-0.014516,-0.13404,-0.063561,0.01017
980,0.034206,0.038753,-0.084674,-0.0067202,-0.18601,-0.054467,0.021538
981,0.031607,0.031282,-0.21687,-0.00022403,-0.2146,-0.042124,0.026735
982,0.032257,0.024137,-0.34322,0.0088706,-0.2094,-0.029782,0.025436
983,0.032906,0.01894,-0.45268,0.020888,-0.17757,-0.019712,0.023812
984,0.033231,0.014392,-0.53486,0.031932,-0.13957,-0.007045,0.026735
985,0.031607,0.009845,-0.5865,0.038103,-0.11975,0.0072465,0.033556
986,0.029009,0.0043233,-0.61086,0.042326,-0.12203,0.023812,0.043625
987,0.024786,-0.0024977,-0.62288,0.045249,-0.13404,0.038428,0.053369
988,0.020564,-0.011917,-0.64074,0.041351,-0.14509,0.047847,0.057592
989,0.016341,-0.020037,-0.65211,0.029009,-0.15288,0.052395,0.055643
990,0.013743,-0.021012,-0.61866,0.013093,-0.15711,0.050771,0.048497
991,0.016016,-0.0073698,-0.50887,-0.00054884,-0.17075,0.046873,0.038428
992,0.021538,0.023162,-0.3312,-0.0067202,-0.20583,0.041351,0.028359
993,0.02706,0.067011,-0.12592,-0.0047713,-0.25617,0.038753,0.020888
994,0.029009,0.11281,0.055968,0.003024,-0.29353,0.040377,0.01894
995,0.030957,0.14919,0.17939,0.016341,-0.2893,0.0433,0.022837
996,0.03453,0.16998,0.23721,0.038103,-0.23181,0.042975,0.028034
997,0.042975,0.17517,0.24371,0.065387,-0.13307,0.039727,0.031607
998,0.052395,0.16868,0.22552,0.089098,-0.026858,0.030633,0.031932
999,0.054668,0.15471,0.20376,0.10209,0.047847,0.013093,0.026735
1000,0.05207,0.13425,0.18589,0.10079,0.078055,-0.010943,0.01764
1001,0.048822,0.10859,0.17615,0.088124,0.081627,-0.037577,0.01017
1002,0.042975,0.079354,0.16803,0.070259,0.09397,-0.058689,0.0062721
1003,0.033881,0.049472,0.15536,0.05272,0.13555,-0.068434,0.0046481
1004,0.019264,0.021863,0.13457,0.037129,0.20603,-0.069733,0.0036737
1005,0.00042559,-0.0031473,0.10989,0.024137,0.29665,-0.062587,0.0036737
1006,-0.016789,-0.026209,0.081303,0.013093,0.39702,-0.051544,0.0033489
1007,-0.027183,-0.04862,0.05272,0.003024,0.49511,-0.039851,0.0017248
1008,-0.028807,-0.070707,0.026735,-0.0047713,0.57566,-0.030756,0.00075039
1009,-0.02426,-0.094743,-0.0034721,-0.0089938,0.61951,-0.028482,-0.00087364
1010,-0.018413,-0.12333,-0.047646,-0.0067202,0.61041,-0.03238,-0.0057458
1011,-0.013866,-0.1649,-0.10903,0.00075039,0.54643,-0.04115,-0.013541
1012,-0.0099683,-0.22239,-0.18082,0.011144,0.43339,-0.048945,-0.02426
1013,-0.010618,-0.288,-0.24903,0.019589,0.27976,-0.04992,-0.038227
1014,-0.021012,-0.34355,-0.29223,0.021863,0.10761,-0.043748,-0.04862
1015,-0.038227,-0.36823,-0.29482,0.018615,-0.050244,-0.036278,-0.051219
1016,-0.056091,-0.35524,-0.25292,0.015042,-0.16068,-0.034329,-0.045047
1017,-0.068434,-0.30554,-0.17627,0.017316,-0.20615,-0.039526,-0.037252
1018,-0.069733,-0.23051,-0.079152,0.02641,-0.19121,-0.045697,-0.031406
1019,-0.059989,-0.14736,0.020239,0.041027,-0.13275,-0.046671,-0.029132
1020,-0.044398,-0.072656,0.10501,0.059541,-0.059014,-0.040175,-0.027833
1021,-0.028482,-0.016789,0.15893,0.079354,-0.0028225,-0.023285,-0.025234
1022,-0.013541,0.015367,0.1716,0.097543,0.015367,0.0023744,-0.019712
1023,-0.0028225,0.029658,0.14789,0.11378,-0.0076946,0.034206,-0.012567
1024,0.0056225,0.03583,0.099817,0.1232,-0.055441,0.062464,-0.0031473
1025,0.012443,0.042975,0.049147,0.1219,-0.10351,0.080328,0.0049729
1026,0.016341,0.056292,0.038103,0.10924,-0.13502,0.085525,0.0075714
1027,0.016016,0.074157,0.090072,0.092021,-0.14509,0.081627,0.0065969
1028,0.0091954,0.087799,0.18784,0.075456,-0.13664,0.074482,0.0072465
1029,-0.0011985,0.092996,0.29113,0.061814,-0.11326,0.071234,0.014717
1030,-0.011267,0.08585,0.36096,0.05272,-0.076554,0.06961,0.027385
1031,-0.016789,0.066686,0.38305,0.048822,-0.021661,0.065712,0.038753
1032,-0.020037,0.04395,0.37136,0.046223,0.056617,0.062789,0.042975
1033,-0.023935,0.027385,0.35089,0.045574,0.15861,0.06019,0.038103
1034,-0.027508,0.023162,0.34017,0.045574,0.27067,0.054019,0.025111
1035,-0.025234,0.030957,0.33855,0.039727,0.37006,0.039078,0.0095202
1036,-0.019063,0.047847,0.34017,0.028034,0.40741,0.013093,-0.0037969
1037,-0.010618,0.066362,0.334,0.014717,0.2934,-0.020687,-0.0089938
1038,-0.0034721,0.079354,0.30737,0.0043233,-0.025234,-0.058689,-0.007045
1039,-0.0018481,0.083901,0.25995,-0.00054884,-0.48451,-0.092794,-0.00022403
1040,-0.0047713,0.080328,0.19401,0.0033489,-0.93664,-0.11586,0.0069217
1041,-0.0093186,0.071234,0.11898,0.014068,-1.2338,-0.12463,0.008221
1042,-0.0083442,0.064737,0.044275,0.031282,-1.2783,-0.12203,0.0043233
1043,-0.0034721,0.063438,-0.020362,0.046873,-1.0692,-0.11033,0.0017248
1044,0.00042559,0.072533,-0.075904,0.059865,-0.69369,-0.093444,0.0020496
1045,0.0014,0.0865,-0.13275,0.071234,-0.2867,-0.070382,0.0065969
1046,-0.00022403,0.10306,-0.19803,0.083576,0.022512,-0.045697,0.013743
1047,0.00010078,0.11898,-0.26592,0.097543,0.13327,-0.023285,0.020564
1048,0.0056225,0.1258,-0.32276,0.11281,0.014717,-0.0057458,0.024786
1049,0.016341,0.11898,-0.35589,0.11801,-0.25033,0.0056225,0.027385
1050,0.029009,0.099167,-0.36173,0.10631,-0.51472,0.0091954,0.027709
1051,0.039402,0.071558,-0.34452,0.080003,-0.65796,0.00042559,0.025111
1052,0.044599,0.047523,-0.29288,0.045249,-0.64204,-0.018413,0.020564
1053,0.042326,0.037129,-0.18991,0.013743,-0.5066,-0.039201,0.013743
1054,0.032257,0.039727,-0.035953,-0.011917,-0.33835,-0.054142,0.0036737
1055,0.018615,0.049147,0.12028,-0.035628,-0.2042,-0.057065,-0.0093186
1056,0.0026992,0.055643,0.18167,-0.060963,-0.11423,-0.042124,-0.022961
1057,-0.012242,0.054993,0.091047,-0.087597,-0.049595,-0.010618,-0.028807
1058,-0.025559,0.046223,-0.11066,-0.11293,0.011794,0.029658,-0.027508
1059,-0.033679,0.026735,-0.31659,-0.13242,0.082277,0.064413,-0.019712
1060,-0.034329,-0.010618,-0.44196,-0.14411,0.16056,0.08585,-0.008669
1061,-0.031406,-0.062587,-0.43319,-0.14931,0.23494,0.09397,-0.00087364
1062,-0.029132,-0.11521,-0.28346,-0.14606,0.28821,0.091047,-0.00054884
1063,-0.026533,-0.15093,-0.050244,-0.1334,0.30802,0.084551,-0.0060706
1064,-0.020362,-0.15613,0.17225,-0.11358,0.28463,0.074157,-0.012567
1065,-0.015165,-0.13534,0.29957,-0.091495,0.21805,0.059541,-0.020687
1066,-0.010618,-0.097666,0.28366,-0.070707,0.13522,0.042651,-0.025234
1067,-0.0047713,-0.05804,0.13587,-0.056091,0.070259,0.021213,-0.029132
1068,0.0010752,-0.025884,-0.072006,-0.046671,0.046548,-0.0011985,-0.035953
1069,0.0072465,-0.0076946,-0.2461,-0.04115,0.084226,-0.018413,-0.043099
1070,0.014392,0.00010078,-0.32373,-0.034329,0.19856,-0.027183,-0.046671
1071,0.017965,-0.00022403,-0.29612,-0.024909,0.38435,-0.017439,-0.043748
1072,0.016991,-0.0028225,-0.19543,-0.013216,0.60522,0.017965,-0.031081
1073,0.012119,-0.0024977,-0.055116,0.00075039,0.80238,0.071234,-0.0099683
1074,0.0095202,0.0026992,0.10891,0.014717,0.91736,0.12418,0.016016
1075,0.012768,0.013418,0.28821,0.024461,0.91249,0.15796,0.037778
1076,0.019589,0.022512,0.47724,0.026735,0.79458,0.16803,0.049147
1077,0.028359,0.025761,0.66433,0.022188,0.59775,0.15601,0.05142
1078,0.03518,0.024786,0.81959,0.010819,0.37395,0.12807,0.044924
1079,0.036804,0.024137,0.90696,-0.0031473,0.16803,0.091372,0.030308
1080,0.032906,0.023487,0.90047,-0.016464,0.0095202,0.054344,0.011469
1081,0.022188,0.021538,0.8014,-0.024585,-0.09929,0.027709,-0.0080194
1082,0.0056225,0.016991,0.62276,-0.027833,-0.17042,0.015692,-0.021337
1083,-0.014191,0.0062721,0.38045,-0.030431,-0.21525,0.017965,-0.024909
1084,-0.031081,-0.0080194,0.069285,-0.0405,-0.23149,0.034855,-0.024585
1085,-0.040175,-0.027183,-0.35816,-0.059339,-0.21687,0.058241,-0.021661
1086,-0.042124,-0.053492,-0.90644,-0.08305,-0.17789,0.078379,-0.016464
1087,-0.04115,-0.080776,-1.4693,-0.10384,-0.12268,0.083901,-0.012567
1088,-0.042774,-0.098641,-1.8796,-0.11456,-0.059014,0.075781,-0.007045
1089,-0.046347,-0.099615,-2.0056,-0.11358,-0.0024977,0.061814,0.0017248
1090,-0.043423,-0.0824,-1.823,-0.10091,0.026085,0.051096,0.011469
1091,-0.032705,-0.054792,-1.404,-0.078827,0.016991,0.044924,0.018615
1092,-0.017439,-0.023285,-0.88305,-0.04927,-0.026533,0.045574,0.019589
1093,0.0020496,0.0059473,-0.39616,-0.016464,-0.085648,0.050446,0.015367
1094,0.025761,0.029333,-0.036927,0.013418,-0.14314,0.051745,0.0088706
1095,0.045899,0.050446,0.16933,0.039078,-0.18894,0.046223,0.0069217
1096,0.054993,0.069934,0.25605,0.063438,-0.22077,0.032906,0.011794
1097,0.048822,0.089423,0.28073,0.0865,-0.24383,0.014392,0.01764
1098,0.030957,0.11183,0.29665,0.10339,-0.26072,-0.0028225,0.023162
1099,0.010819,0.14204,0.32881,0.11281,-0.27176,-0.013541,0.024786
1100,-0.0063954,0.17842,0.37688,0.11638,-0.27241,-0.015165,0.024137
1101,-0.019063,0.21577,0.43502,0.11248,-0.2552,-0.0089938,0.023162
1102,-0.02361,0.24078,0.49251,0.10274,-0.20972,-0.00022403,0.023812
1103,-0.019712,0.24208,0.54383,0.085525,-0.12495,0.0043233,0.025436
1104,-0.012892,0.21935,0.58183,0.061489,0.0056225,-0.0063954,0.022512
1105,-0.0063954,0.18102,0.59547,0.036804,0.16835,-0.03303,0.015692
1106,0.0020496,0.13717,0.57956,0.014392,0.33985,-0.067134,0.0039985
1107,0.0095202,0.098193,0.53473,0.00042559,0.48731,-0.097991,-0.011267
1108,0.016016,0.072533,0.47367,0.00042559,0.57079,-0.11878,-0.022636
1109,0.020239,0.063763,0.41423,0.017316,0.55065,-0.12625,-0.025234
1110,0.022188,0.067336,0.36778,0.038428,0.40546,-0.12722,-0.021012
1111,0.022512,0.073507,0.33823,0.047847,0.14367,-0.13404,-0.013866
1112,0.022512,0.07773,0.32718,0.040702,-0.17465,-0.15029,-0.0047713
1113,0.024461,0.078379,0.32718,0.024461,-0.45333,-0.1727,0.0049729
1114,0.027385,0.074482,0.32751,0.0043233,-0.59949,-0.19348,0.012119
1115,0.031282,0.063763,0.31549,-0.011592,-0.56766,-0.20388,0.015042
1116,0.036804,0.049472,0.28106,-0.017764,-0.38285,-0.2016,0.015367
1117,0.042975,0.034206,0.22584,-0.01614,-0.12073,-0.18764,0.011144
1118,0.047198,0.020888,0.15698,-0.010943,0.13457,-0.161,0.0072465
1119,0.046548,0.0062721,0.08585,-0.00087364,0.32328,-0.1217,0.0085458
1120,0.049472,-0.0089938,0.025111,0.013093,0.42397,-0.074605,0.01829
1121,0.057267,-0.024585,-0.013866,0.026735,0.44411,-0.028482,0.033881
1122,0.06831,-0.038227,-0.034978,0.038753,0.3863,0.0088706,0.049147
1123,0.077405,-0.047971,-0.044723,0.049147,0.26092,0.031282,0.056942
1124,0.080653,-0.052843,-0.047971,0.050446,0.099167,0.037778,0.057917
1125,0.076431,-0.052518,-0.047646,0.039078,-0.054792,0.029658,0.053044
1126,0.064737,-0.047971,-0.043748,0.019264,-0.16782,0.011794,0.043625
1127,0.050771,-0.041475,-0.040175,-0.00054884,-0.22629,-0.012567,0.029333
1128,0.039078,-0.035628,-0.037902,-0.011917,-0.23246,-0.040175,0.011469
1129,0.031282,-0.027833,-0.033354,-0.0096434,-0.19543,-0.062587,-0.0057458
1130,0.029333,-0.018413,-0.027833,0.0085458,-0.13047,-0.070707,-0.018088
1131,0.030957,-0.008669,-0.016464,0.03583,-0.055116,-0.064861,-0.021661
1132,0.03518,-0.0031473,-0.0028225,0.067661,0.0085458,-0.04862,-0.017439
1133,0.038753,-0.0041217,0.0052977,0.094295,0.047523,-0.027833,-0.0083442
1134,0.041351,-0.0096434,0.0056225,0.10956,0.06019,-0.012567,0.0014
1135,0.041027,-0.016464,0.00042559,0.11638,0.047198,-0.0083442,0.0075714
1136,0.039078,-0.02426,-0.0018481,0.1232,-0.0024977,-0.01484,0.0075714
1137,0.032257,-0.028807,0.0046481,0.13295,-0.088896,-0.028482,0.003024
1138,0.022188,-0.031406,0.01829,0.14042,-0.19121,-0.042774,-0.0011985
1139,0.009845,-0.031406,0.030957,0.1336,-0.28378,-0.056091,-0.0031473
1140,-0.0028225,-0.028807,0.034855,0.098517,-0.34192,-0.067784,-0.00022403
1141,-0.016789,-0.024909,0.02706,0.033881,-0.34225,-0.073955,0.0049729
1142,-0.029782,-0.019712,0.012443,-0.046022,-0.27469,-0.072656,0.008221
1143,-0.037252,-0.015165,-0.0057458,-0.12365,-0.14801,-0.065186,0.0072465
1144,-0.034654,-0.010943,-0.028482,-0.17919,0.010819,-0.050244,0.0075714
1145,-0.023285,-0.0083442,-0.054467,-0.20323,0.16218,-0.032705,0.010819
1146,-0.010618,-0.0083442,-0.081426,-0.19836,0.258,-0.017764,0.01829
1147,-0.00022403,-0.0093186,-0.10579,-0.17627,0.24501,-0.0083442,0.030633
1148,0.0056225,-0.010943,-0.12073,-0.15061,0.095269,-0.0054209,0.04395
1149,0.0056225,-0.012567,-0.12625,-0.1321,-0.17205,-0.0089938,0.051745
1150,0.003024,-0.01484,-0.1269,-0.12203,-0.48679,-0.021986,0.050771
1151,-0.0024977,-0.017439,-0.1282,-0.11098,-0.7541,-0.039851,0.044924
1152,-0.0063954,-0.020037,-0.13145,-0.092145,-0.89897,-0.055766,0.038428
1153,-0.0067202,-0.022311,-0.13469,-0.060963,-0.89604,-0.063237,0.034206
1154,-0.0024977,-0.021661,-0.1334,-0.022311,-0.77294,-0.059014,0.031607
1155,0.0039985,-0.021986,-0.12852,0.014068,-0.59202,-0.043748,0.030633
1156,0.0091954,-0.024909,-0.12463,0.042975,-0.41533,-0.021986,0.026735
1157,0.0091954,-0.030431,-0.12333,0.061814,-0.28346,-0.00022403,0.021863
1158,0.0043233,-0.038876,-0.12203,0.070584,-0.20453,0.016341,0.019264
1159,-0.0028225,-0.047646,-0.11553,0.073507,-0.16133,0.019914,0.016666
1160,-0.010943,-0.054467,-0.10124,0.073182,-0.12722,0.014068,0.012768
1161,-0.018413,-0.056416,-0.0837,0.071234,-0.079802,0.0078962,0.0088706
1162,-0.021012,-0.051868,-0.068758,0.06961,-0.0063954,0.0095202,0.0062721
1163,-0.017764,-0.045372,-0.063561,0.06961,0.093645,0.016016,0.0049729
1164,-0.010943,-0.0405,-0.065835,0.071883,0.2057,0.022188,0.0072465
1165,0.00042559,-0.037902,-0.072656,0.074482,0.31192,0.026735,0.0095202
1166,0.014068,-0.037577,-0.080127,0.077405,0.39702,0.028359,0.012443
1167,0.028684,-0.035953,-0.081101,0.081627,0.44411,0.028034,0.015692
1168,0.036479,-0.03303,-0.076229,0.087799,0.43339,0.024461,0.018615
1169,0.03453,-0.027183,-0.067784,0.092996,0.34862,0.01829,0.01764
1170,0.025761,-0.023285,-0.058689,0.091696,0.19109,0.0075714,0.014717
1171,0.016016,-0.021986,-0.051219,0.082602,-0.010943,-0.0060706,0.012119
1172,0.011469,-0.026209,-0.046347,0.070259,-0.20388,-0.018088,0.011794
1173,0.012768,-0.03303,-0.039526,0.061489,-0.33478,-0.020687,0.014717
1174,0.016666,-0.0405,-0.036602,0.06019,-0.37018,-0.013866,0.016991
1175,0.018615,-0.046347,-0.04115,0.064737,-0.30294,-0.0028225,0.020239
1176,0.012768,-0.046022,-0.04862,0.067336,-0.15581,0.013093,0.023162
1177,0.0049729,-0.039526,-0.053168,0.064413,0.028359,0.03453,0.021863
1178,-0.0031473,-0.026533,-0.054467,0.055643,0.20668,0.055643,0.016016
1179,-0.0083442,-0.0089938,-0.05739,0.044275,0.35641,0.070259,0.011794
1180,-0.013541,0.0075714,-0.067459,0.03583,0.46945,0.075781,0.010819
1181,-0.017439,0.019589,-0.082076,0.033231,0.54968,0.076106,0.011794
1182,-0.019388,0.024461,-0.095068,0.039078,0.60587,0.074157,0.012443
1183,-0.018088,0.024137,-0.10481,0.053369,0.65004,0.073182,0.0085458
1184,-0.01484,0.019914,-0.10644,0.070909,0.68609,0.07708,0.00075039
1185,-0.011267,0.016991,-0.095717,0.087149,0.71468,0.0865,-0.0047713
1186,-0.0093186,0.016016,-0.070707,0.096893,0.72507,0.098517,-0.0050961
1187,-0.010293,0.015692,-0.030431,0.10144,0.70071,0.11118,0.00042559
1188,-0.0096434,0.012768,0.024786,0.097543,0.61691,0.11476,0.010495
1189,-0.0080194,0.0062721,0.091047,0.0865,0.45646,0.10079,0.021213
1190,-0.0099683,-0.0021729,0.16413,0.070584,0.22682,0.077405,0.023487
1191,-0.01614,-0.0073698,0.24468,0.049147,-0.040175,0.054668,0.017316
1192,-0.023285,-0.0093186,0.33011,0.026085,-0.29937,0.041351,0.0072465
1193,-0.031081,-0.014191,0.39279,-0.0011985,-0.51862,0.03583,0.00010078
1194,-0.040825,-0.025884,0.38045,-0.027508,-0.69466,0.033231,-0.0024977
1195,-0.052193,-0.044723,0.26482,-0.050244,-0.8353,0.031607,-0.0028225
1196,-0.065835,-0.065835,0.082277,-0.064861,-0.92105,0.029658,-0.0054209
1197,-0.077853,-0.0837,-0.10319,-0.069083,-0.91033,0.031607,-0.011267
1198,-0.082725,-0.093444,-0.23668,-0.061613,-0.77392,0.033231,-0.018413
1199,-0.077528,-0.092794,-0.30132,-0.046996,-0.52219,0.030308,-0.019388
1200,-0.061613,-0.079477,-0.30522,-0.032055,-0.20745,0.017965,-0.011267
1201,-0.036602,-0.055441,-0.27144,-0.017439,0.099167,0.0023744,0.0039985
1202,-0.0080194,-0.026209,-0.22174,-0.008669,0.3379,-0.0089938,0.01829
1203,0.016016,0.0014,-0.1753,-0.0057458,0.47757,-0.008669,0.026735
1204,0.030957,0.022512,-0.14087,-0.0076946,0.5146,0.0043233,0.027385
1205,0.037454,0.030633,-0.1178,-0.014191,0.47984,0.023487,0.023162
1206,0.040702,0.028359,-0.10351,-0.025559,0.42625,0.037778,0.018615
1207,0.041351,0.020564,-0.092469,-0.037902,0.39864,0.041351,0.014068
1208,0.039402,0.016991,-0.077203,-0.043099,0.41196,0.03453,0.014717
1209,0.032257,0.022188,-0.053817,-0.037252,0.45646,0.020564,0.019914
1210,0.021863,0.036154,-0.02426,-0.020037,0.50777,0.0075714,0.024461
1211,0.012119,0.05142,0.0049729,-0.00087364,0.55032,-0.00087364,0.024786
1212,0.0039985,0.061489,0.03518,0.010495,0.57436,-0.0063954,0.020564
1213,-0.00022403,0.065712,0.06961,0.01017,0.56916,-0.0093186,0.012443
1214,-0.0024977,0.066362,0.11411,0.0078962,0.52044,-0.012242,0.003024
1215,-0.0028225,0.065712,0.16348,0.0078962,0.41326,-0.017114,-0.0076946
1216,-0.0018481,0.065712,0.207,0.0091954,0.25475,-0.01614,-0.017764
1217,-0.0024977,0.065387,0.23851,0.0088706,0.074806,-0.0021729,-0.025884
1218,-0.0054209,0.064088,0.25475,0.0046481,-0.094743,0.02706,-0.032705
1219,-0.012567,0.062464,0.2528,-0.007045,-0.23149,0.062464,-0.038551
1220,-0.021012,0.059216,0.21902,-0.02426,-0.32308,0.092021,-0.044073
1221,-0.028157,0.056292,0.13879,-0.040825,-0.36433,0.11021,-0.048945
1222,-0.031081,0.051745,0.015042,-0.050244,-0.36401,0.11898,-0.054142
1223,-0.030431,0.0433,-0.11943,-0.053168,-0.33185,0.12125,-0.053817
1224,-0.029782,0.034855,-0.20972,-0.04992,-0.27404,0.11541,-0.049595
1225,-0.027508,0.031932,-0.2133,-0.043423,-0.20388,0.10014,-0.046022
1226,-0.022961,0.036154,-0.12235,-0.035953,-0.13372,0.081303,-0.046996
1227,-0.017439,0.046548,0.029009,-0.026858,-0.070058,0.070909,-0.04992
1228,-0.010943,0.061814,0.18264,-0.015815,-0.019712,0.066686,-0.054792
1229,-0.0054209,0.080978,0.28008,-0.0021729,-0.0034721,0.065387,-0.060313
1230,-0.0015233,0.10014,0.28431,0.011469,-0.032705,0.056617,-0.065186
1231,0.0010752,0.11378,0.18914,0.020239,-0.095393,0.036479,-0.067134
1232,0.0017248,0.11606,0.029658,0.024461,-0.16782,0.012119,-0.061937
1233,0.0046481,0.10371,-0.1282,0.027709,-0.20713,-0.0076946,-0.050894
1234,0.010819,0.080978,-0.21265,0.032582,-0.16977,-0.021661,-0.034004
1235,0.017965,0.057917,-0.20453,0.036154,-0.060963,-0.033354,-0.01549
1236,0.024137,0.041676,-0.14476,0.037129,0.069285,-0.044398,0.00075039
1237,0.027709,0.033556,-0.10481,0.034206,0.16445,-0.054467,0.0065969
1238,0.026735,0.031282,-0.13177,0.023487,0.20278,-0.065835,0.0020496
1239,0.017965,0.02706,-0.22986,0.0056225,0.19986,-0.080776,-0.010293
1240,0.0059473,0.01764,-0.377,-0.017114,0.18589,-0.096692,-0.022961
1241,-0.0047713,0.0020496,-0.54265,-0.039526,0.18037,-0.11488,-0.028482
1242,-0.0083442,-0.01484,-0.68622,-0.056741,0.17972,-0.13145,-0.022961
1243,-0.0050961,-0.023935,-0.73981,-0.06551,0.1625,-0.14281,-0.0050961
1244,0.0017248,-0.020362,-0.62256,-0.061613,0.10534,-0.14834,0.020888
1245,0.0075714,-0.007045,-0.31691,-0.044723,-0.0024977,-0.14964,0.045899
1246,0.012119,0.011794,0.089748,-0.01549,-0.15093,-0.14606,0.058891
1247,0.014392,0.028034,0.47042,0.023812,-0.31594,-0.13924,0.056292
1248,0.014717,0.040377,0.72799,0.064737,-0.46502,-0.13275,0.047847
1249,0.013418,0.050121,0.83323,0.10047,-0.57676,-0.1243,0.04395
1250,0.013093,0.056942,0.81309,0.12807,-0.63717,-0.11715,0.047847
1251,0.01764,0.060515,0.72052,0.14204,-0.63392,-0.10968,0.058241
1252,0.024137,0.06019,0.5997,0.1362,-0.56766,-0.10644,0.066362
1253,0.028684,0.061165,0.48082,0.11054,-0.4556,-0.11066,0.064737
1254,0.024786,0.06019,0.37753,0.071234,-0.34744,-0.12527,0.051745
1255,0.018615,0.057592,0.29243,0.022188,-0.29353,-0.14249,0.030957
1256,0.017965,0.050771,0.22454,-0.028157,-0.29385,-0.15353,0.012119
1257,0.022837,0.042326,0.1677,-0.069408,-0.27501,-0.15158,0.0010752
1258,0.028359,0.038428,0.11736,-0.096692,-0.15191,-0.13372,-0.0018481
1259,0.030957,0.045574,0.076106,-0.10709,0.10729,-0.10156,0.0036737
1260,0.032582,0.065062,0.054668,-0.096692,0.46035,-0.05739,0.013418
1261,0.03518,0.092346,0.063438,-0.068109,0.81602,-0.0054209,0.025761
1262,0.039727,0.1219,0.097543,-0.028157,1.0772,0.049472,0.037129
1263,0.0433,0.14237,0.13912,0.01017,1.1866,0.096244,0.045899
1264,0.044599,0.15114,0.16803,0.038103,1.1467,0.12613,0.047847
1265,0.041676,0.14789,0.17095,0.052395,1.0145,0.14074,0.038753
1266,0.034206,0.13587,0.14626,0.051745,0.87643,0.14529,0.021538
1267,0.023487,0.11638,0.10209,0.040052,0.79101,0.14009,-0.00022403
1268,0.010819,0.090072,0.051745,0.023487,0.73514,0.12255,-0.021337
1269,0.00042559,0.063438,0.011469,0.0072465,0.60944,0.094945,-0.037577
1270,-0.0028225,0.040052,-0.0076946,-0.0076946,0.33498,0.060515,-0.045372
1271,0.00075039,0.024137,-0.0073698,-0.021337,-0.061613,0.026735,-0.044073
1272,0.0065969,0.013418,0.0033489,-0.032055,-0.46015,-0.0015233,-0.036602
1273,0.012119,0.0043233,0.011144,-0.039526,-0.7226,-0.017764,-0.025234
1274,0.01764,-0.0089938,0.0046481,-0.042124,-0.76125,-0.025559,-0.011592
1275,0.019914,-0.029132,-0.017439,-0.043748,-0.58813,-0.02426,0.0020496
1276,0.020888,-0.056741,-0.051544,-0.049595,-0.29677,-0.01484,0.014717
1277,0.020888,-0.092794,-0.092469,-0.057715,-0.0099683,-0.00022403,0.028359
1278,0.020239,-0.13827,-0.13729,-0.061613,0.17517,0.018615,0.037778
1279,0.016666,-0.19803,-0.18309,-0.055766,0.21382,0.03453,0.040702
1280,0.012119,-0.26916,-0.22791,-0.038876,0.094945,0.040377,0.03583
1281,0.0059473,-0.3364,-0.26169,-0.017439,-0.16003,0.031607,0.026735
1282,-0.0034721,-0.37668,-0.27046,0.0052977,-0.47217,0.0078962,0.019264
1283,-0.015815,-0.37733,-0.24903,0.028034,-0.73364,-0.022311,0.016991
1284,-0.027508,-0.33543,-0.2068,0.047847,-0.86226,-0.044398,0.016991
1285,-0.034654,-0.26299,-0.1623,0.061489,-0.82816,-0.046022,0.015042
1286,-0.037902,-0.17757,-0.13664,0.070259,-0.66251,-0.027183,0.011144
1287,-0.033354,-0.10156,-0.14346,0.07773,-0.44034,0.0043233,0.0088706
1288,-0.018738,-0.047646,-0.18569,0.082927,-0.23441,0.032906,0.012443
1289,-0.0021729,-0.022636,-0.2591,0.083901,-0.094093,0.046548,0.019914
1290,0.0085458,-0.020037,-0.35459,0.078055,-0.038551,0.042001,0.029658
1291,0.013093,-0.026533,-0.45203,0.065062,-0.059989,0.025436,0.039078
1292,0.011144,-0.026533,-0.53128,0.043625,-0.12398,0.0062721,0.041027
1293,0.0023744,-0.012242,-0.57481,0.019264,-0.18471,-0.010618,0.03453
1294,-0.011592,0.016016,-0.57189,0.00010078,-0.21135,-0.027183,0.023487
1295,-0.025234,0.050446,-0.52316,-0.0047713,-0.18894,-0.038551,0.012443
1296,-0.031081,0.079029,-0.43287,0.0033489,-0.13177,-0.046671,0.0056225
1297,-0.027183,0.089423,-0.31106,0.016991,-0.068758,-0.052193,0.0078962
1298,-0.013216,0.079679,-0.174,0.026735,-0.020037,-0.056741,0.016341
1299,0.0017248,0.061165,-0.044723,0.029009,0.009845,-0.057715,0.026085
1300,0.013743,0.044275,0.06084,0.027385,0.025761,-0.053492,0.034206
1301,0.022512,0.03583,0.14756,0.025436,0.032582,-0.044073,0.041351
1302,0.026735,0.037778,0.22519,0.030633,0.039078,-0.029782,0.049147
1303,0.02706,0.045249,0.3038,0.043625,0.051096,-0.013541,0.054344
1304,0.025111,0.051745,0.38922,0.056292,0.072533,0.0010752,0.058566
1305,0.024786,0.051745,0.49024,0.063763,0.10436,0.009845,0.063438
1306,0.022837,0.046873,0.61041,0.064088,0.14659,0.0072465,0.065062
1307,0.016341,0.041027,0.74813,0.058891,0.19369,-0.0076946,0.057917
1308,0.0039985,0.037778,0.86961,0.053369,0.23201,-0.036602,0.038428
1309,-0.0063954,0.043625,0.8878,0.054019,0.25572,-0.073631,0.014717
1310,-0.0096434,0.056942,0.70916,0.062139,0.26644,-0.10676,-0.0047713
1311,-0.0076946,0.072208,0.34212,0.078379,0.26417,-0.12398,-0.013866
1312,-0.0018481,0.085525,-0.090845,0.097868,0.23396,-0.12105,-0.013216
1313,0.0075714,0.098193,-0.4228,0.11183,0.14302,-0.10838,-0.0057458
1314,0.021538,0.11151,-0.54363,0.11086,-0.04115,-0.098316,-0.0024977
1315,0.031282,0.12483,-0.44554,0.087149,-0.3299,-0.10514,-0.0089938
1316,0.03518,0.1336,-0.21232,0.038428,-0.69888,-0.12722,-0.023935
1317,0.033231,0.13652,0.031932,-0.020687,-1.0848,-0.15353,-0.038876
1318,0.026085,0.13262,0.19044,-0.075255,-1.4096,-0.16945,-0.047646
1319,0.015692,0.11995,0.23039,-0.11131,-1.607,-0.17302,-0.047321
1320,0.0056225,0.099492,0.17322,-0.12008,-1.6376,-0.1662,-0.040825
1321,-0.0021729,0.07773,0.072208,-0.10124,-1.4963,-0.15029,-0.033354
1322,-0.008669,0.057917,-0.017439,-0.06616,-1.2221,-0.12592,-0.025559
1323,-0.015815,0.046873,-0.067784,-0.027183,-0.8902,-0.10189,-0.018413
1324,-0.019712,0.043625,-0.078827,0.0075714,-0.57773,-0.085324,-0.014191
1325,-0.01484,0.042326,-0.065835,0.028684,-0.33607,-0.077528,-0.014191
1326,-0.0028225,0.039727,-0.044073,0.037454,-0.17465,-0.072981,-0.017114
1327,0.010495,0.037129,-0.026209,0.0433,-0.075255,-0.064536,-0.021986
1328,0.019589,0.036479,-0.019388,0.054019,-0.013866,-0.051544,-0.027833
1329,0.022512,0.036804,-0.021661,0.064737,0.037778,-0.037577,-0.029457
1330,0.016991,0.033881,-0.027508,0.065712,0.10112,-0.027508,-0.023935
1331,0.0091954,0.027709,-0.033354,0.057592,0.18362,-0.018738,-0.014191
1332,0.0023744,0.019589,-0.036602,0.044599,0.27944,-0.0080194,-0.0015233
1333,-0.0031473,0.0095202,-0.036278,0.031607,0.37298,0.0052977,0.010495
1334,-0.010293,-0.0034721,-0.028157,0.01829,0.44444,0.025111,0.017965
1335,-0.019388,-0.01614,-0.014191,0.0078962,0.48309,0.050446,0.021863
1336,-0.025884,-0.026533,-0.007045,0.0046481,0.49381,0.073182,0.022188
1337,-0.023935,-0.032055,-0.033679,0.009845,0.48309,0.086175,0.021538
1338,-0.013541,-0.03238,-0.10221,0.016991,0.45678,0.090397,0.020888
1339,-0.0067202,-0.029457,-0.18244,0.017965,0.4178,0.092021,0.023487
1340,-0.010943,-0.026858,-0.22791,0.0088706,0.36421,0.090397,0.02706
1341,-0.022636,-0.026533,-0.21037,-0.0073698,0.30022,0.089098,0.029983
1342,-0.03173,-0.026533,-0.13762,-0.019063,0.23461,0.0865,0.032906
1343,-0.037902,-0.02426,-0.037902,-0.019388,0.17647,0.080978,0.033231
1344,-0.0405,-0.020687,0.055318,-0.0076946,0.1284,0.076755,0.031607
1345,-0.039201,-0.01549,0.1219,0.013743,0.087474,0.074482,0.028034
1346,-0.03173,-0.011917,0.15601,0.040052,0.051096,0.071883,0.022837
1347,-0.020037,-0.011917,0.15763,0.066362,0.022837,0.067011,0.016666
1348,-0.0060706,-0.011592,0.1284,0.084226,0.013093,0.064737,0.011469
1349,0.0062721,-0.0073698,0.075131,0.087149,0.030957,0.06831,0.01017
1350,0.014392,-0.0011985,0.0052977,0.076431,0.074157,0.07773,0.011144
1351,0.01829,0.0043233,-0.072006,0.057592,0.13749,0.0865,0.014717
1352,0.018615,0.0056225,-0.15191,0.037129,0.2187,0.09397,0.019914
1353,0.013418,0.0052977,-0.22304,0.020239,0.31516,0.098842,0.023812
1354,0.0091954,0.0020496,-0.26851,0.0078962,0.41618,0.10014,0.02641
1355,0.012119,-0.0034721,-0.27111,-0.0021729,0.50615,0.096569,0.02706
1356,0.01894,-0.011267,-0.23181,-0.012242,0.56819,0.090397,0.023487
1357,0.021863,-0.023285,-0.17205,-0.022311,0.59255,0.087149,0.014717
1358,0.021213,-0.035303,-0.11878,-0.031406,0.57728,0.086175,0.0023744
1359,0.016341,-0.046671,-0.078503,-0.036602,0.53181,0.0865,-0.0057458
1360,0.0075714,-0.051868,-0.039851,-0.03303,0.47529,0.087474,-0.0073698
1361,0.0020496,-0.050244,0.024137,-0.021337,0.42527,0.091047,-0.0041217
1362,0.0020496,-0.042774,0.13132,-0.0047713,0.39182,0.09397,0.0026992
1363,0.0091954,-0.036278,0.26352,0.013743,0.36876,0.093321,0.012443
1364,0.018615,-0.032055,0.37493,0.029333,0.33758,0.086175,0.020239
1365,0.026085,-0.027508,0.43437,0.040377,0.28788,0.070584,0.023487
1366,0.026735,-0.016789,0.44704,0.052395,0.22909,0.05142,0.020564
1367,0.02641,0.0033489,0.423,0.066037,0.18557,0.039402,0.016666
1368,0.032906,0.030633,0.36843,0.07773,0.17322,0.042001,0.014392
1369,0.047198,0.053694,0.27944,0.080003,0.18589,0.058566,0.014392
1370,0.063113,0.063763,0.15568,0.068635,0.20635,0.079354,0.01894
1371,0.070909,0.054344,0.013743,0.045574,0.21902,0.091047,0.024461
1372,0.066686,0.032582,-0.12138,0.019264,0.21188,0.0852,0.022188
1373,0.054993,0.0059473,-0.22369,-0.0021729,0.18914,0.06019,0.0088706
1374,0.04395,-0.014516,-0.28313,-0.015815,0.15828,0.025111,-0.010943
1375,0.039402,-0.02361,-0.30652,-0.025234,0.12937,-0.007045,-0.030756
1376,0.039727,-0.022961,-0.30197,-0.036278,0.10534,-0.030106,-0.045047
1377,0.039727,-0.020037,-0.28411,-0.052843,0.082602,-0.045047,-0.051868
1378,0.037454,-0.01549,-0.26429,-0.071357,0.058241,-0.05739,-0.055116
1379,0.030957,-0.011917,-0.24156,-0.085648,0.030308,-0.06681,-0.05739
1380,0.019264,-0.0076946,-0.20128,-0.093444,0.0072465,-0.069408,-0.05739
1381,0.0085458,-0.00054884,-0.1308,-0.089546,-0.00022403,-0.061288,-0.047321
1382,0.00075039,0.008221,-0.024585,-0.075904,0.0091954,-0.040825,-0.030756
1383,-0.0034721,0.014717,0.11346,-0.056741,0.030308,-0.012242,-0.013541
1384,-0.008669,0.016016,0.27261,-0.039526,0.054993,0.019264,-0.0024977
1385,-0.013216,0.015692,0.42982,-0.029457,0.082602,0.044924,0.00075039
1386,-0.017439,0.015042,0.56202,-0.029457,0.10469,0.06084,-0.0015233
1387,-0.021337,0.016991,0.66661,-0.033354,0.11248,0.064413,-0.0050961
1388,-0.02426,0.023162,0.7543,-0.033679,0.09397,0.055968,-0.0076946
1389,-0.026858,0.033556,0.85792,-0.025559,0.051745,0.036154,-0.0067202
1390,-0.029457,0.048497,0.99953,-0.0080194,-0.0031473,0.014068,-0.0015233
1391,-0.032705,0.063438,1.1642,0.015367,-0.050894,-0.0031473,0.0062721
1392,-0.035303,0.07708,1.3123,0.040377,-0.074605,-0.0089938,0.013093
1393,-0.038227,0.083901,1.401,0.058566,-0.070058,-0.0067202,0.017965
1394,-0.042124,0.080003,1.39,0.06831,-0.046996,-0.0041217,0.019914
1395,-0.046996,0.064088,1.2327,0.067336,-0.019388,-0.0044465,0.021863
1396,-0.047646,0.035505,0.85987,0.057917,0.0065969,-0.008669,0.020888
1397,-0.044398,-0.0028225,0.20148,0.038753,0.028359,-0.01484,0.019914
1398,-0.040825,-0.042774,-0.68979,0.014717,0.046548,-0.018413,0.022512
1399,-0.034004,-0.075904,-1.5911,-0.010293,0.057592,-0.01484,0.031607
1400,-0.024909,-0.096042,-2.2615,-0.029132,0.063438,0.00010078,0.0433
1401,-0.014191,-0.09929,-2.5448,-0.038227,0.064737,0.021863,0.049796
1402,-0.0024977,-0.089871,-2.4191,-0.035953,0.064737,0.044275,0.047847
1403,0.0085458,-0.073631,-1.99,-0.020362,0.059216,0.063763,0.038428
1404,0.014717,-0.054467,-1.4245,0.0049729,0.032582,0.072208,0.028034
1405,0.014717,-0.035628,-0.88338,0.030308,-0.030756,0.065062,0.021538
1406,0.009845,-0.019388,-0.47542,0.045899,-0.13632,0.039727,0.016991
1407,0.0056225,-0.0063954,-0.23149,0.046548,-0.27891,-0.00054884,0.012768
1408,0.0062721,-0.0018481,-0.1321,0.030308,-0.44878,-0.046671,0.0043233
1409,0.008221,-0.0041217,-0.1243,0.00075039,-0.62288,-0.093444,-0.010943
1410,0.010495,-0.010943,-0.1597,-0.03238,-0.7567,-0.1334,-0.034004
1411,0.011794,-0.018088,-0.20225,-0.055441,-0.79795,-0.15418,-0.062262
1412,0.011144,-0.021986,-0.22889,-0.060963,-0.72195,-0.15029,-0.086298
1413,0.011144,-0.022636,-0.23214,-0.048945,-0.54363,-0.12787,-0.095068
1414,0.0091954,-0.021012,-0.21265,-0.027183,-0.31464,-0.097017,-0.0837
1415,0.0052977,-0.020362,-0.17562,-0.0076946,-0.095393,-0.065835,-0.059339
1416,-0.0024977,-0.024585,-0.12625,-0.00022403,0.067986,-0.0405,-0.03303
1417,-0.010943,-0.033354,-0.077528,-0.0041217,0.16315,-0.022961,-0.01549
1418,-0.018738,-0.044723,-0.03173,-0.017439,0.20603,-0.011917,-0.0060706
1419,-0.022636,-0.052843,0.019589,-0.029132,0.22389,-0.0047713,-0.00054884
1420,-0.022311,-0.049595,0.08585,-0.026858,0.24046,0.003024,0.0088706
1421,-0.013541,-0.030106,0.15958,-0.0076946,0.25897,0.011794,0.024461
1422,0.0043233,-0.00054884,0.22649,0.024137,0.26839,0.016666,0.039078
1423,0.024461,0.030308,0.27229,0.058891,0.26937,0.016991,0.045574
1424,0.039727,0.05272,0.2947,0.0852,0.27489,0.015042,0.044924
1425,0.045899,0.062789,0.30315,0.096893,0.29665,0.012768,0.041351
1426,0.042001,0.065062,0.29925,0.090397,0.32588,0.0072465,0.032906
1427,0.026735,0.06084,0.28658,0.069934,0.3327,-0.0034721,0.023162
1428,0.008221,0.052395,0.26872,0.040377,0.27586,-0.01484,0.013418
1429,-0.0050961,0.043625,0.25345,0.009845,0.14237,-0.021661,-0.0031473
1430,-0.010293,0.032582,0.24533,-0.014191,-0.047321,-0.026209,-0.029457
1431,-0.010293,0.020239,0.24403,-0.031406,-0.26104,-0.038227,-0.055766
1432,-0.011917,0.009845,0.24728,-0.043099,-0.46892,-0.062912,-0.070707
1433,-0.015165,0.0010752,0.2476,-0.048296,-0.65471,-0.097341,-0.073631
1434,-0.020687,-0.0057458,0.24111,-0.045372,-0.80705,-0.13437,-0.070382
1435,-0.026858,-0.0076946,0.23136,-0.034654,-0.91781,-0.16653,-0.06681
1436,-0.028807,-0.0034721,0.21772,-0.019063,-0.98926,-0.18959,-0.058689
1437,-0.022961,0.0036737,0.18654,0.00010078,-1.0282,-0.19966,-0.039201
1438,-0.010293,0.012119,0.12093,0.017965,-1.0432,-0.19641,-0.010943
1439,0.0091954,0.01894,0.021863,0.03453,-1.0383,-0.18049,0.01764
1440,0.025436,0.022837,-0.086623,0.046873,-1.0126,-0.15678,0.038103
1441,0.034855,0.025111,-0.1688,0.055968,-0.95548,-0.13015,0.049796
1442,0.034206,0.028684,-0.20128,0.06084,-0.84602,-0.10838,0.054668
1443,0.027385,0.033231,-0.17887,0.062464,-0.66705,-0.095717,0.055643
1444,0.019914,0.039727,-0.11326,0.063763,-0.42215,-0.092794,0.054019
1445,0.015692,0.044599,-0.027183,0.069285,-0.13859,-0.09929,0.051096
1446,0.016016,0.047847,0.054344,0.079029,0.14529,-0.10676,0.048822
1447,0.020239,0.051096,0.11508,0.087799,0.39702,-0.10221,0.048822
1448,0.022188,0.054993,0.14854,0.092346,0.59417,-0.07493,0.046873
1449,0.01829,0.058566,0.15731,0.084551,0.73417,-0.027833,0.044599
1450,0.014717,0.06019,0.14854,0.065062,0.82641,0.027385,0.045249
1451,0.015042,0.059865,0.13067,0.042651,0.88812,0.080328,0.046548
1452,0.018615,0.058891,0.11118,0.019914,0.93847,0.1219,0.04395
1453,0.021538,0.059216,0.097543,-0.00022403,0.97745,0.14432,0.038428
1454,0.023812,0.06084,0.095594,-0.012567,0.99109,0.14529,0.029983
1455,0.024137,0.06019,0.10144,-0.010943,0.95796,0.131,0.022188
1456,0.021863,0.056942,0.10566,-0.0018481,0.85369,0.11443,0.017316
1457,0.019264,0.054668,0.10177,0.0072465,0.68609,0.10534,0.015692
1458,0.015042,0.055643,0.089098,0.0072465,0.49673,0.11021,0.016016
1459,0.010495,0.056942,0.064737,-0.0018481,0.34505,0.1284,0.016666
1460,0.0062721,0.059216,0.028684,-0.017764,0.296,0.15536,0.015367
1461,0.0023744,0.060515,-0.012242,-0.033354,0.40319,0.18492,0.015367
1462,-0.00087364,0.06019,-0.052843,-0.045047,0.65881,0.20765,0.016666
1463,-0.0047713,0.058891,-0.086623,-0.053168,0.98946,0.22,0.019914
1464,-0.007045,0.057267,-0.10936,-0.056741,1.2883,0.22162,0.019914
1465,-0.011917,0.055968,-0.12073,-0.056091,1.4445,0.21805,0.011794
1466,-0.021337,0.054344,-0.11715,-0.053817,1.3692,0.21512,-0.0021729
1467,-0.030106,0.053369,-0.10351,-0.055766,1.0427,0.21317,-0.012892
1468,-0.029457,0.050771,-0.086948,-0.059664,0.54935,0.20668,-0.010293
1469,-0.017114,0.050446,-0.072656,-0.061613,0.037778,0.19726,0.0014
1470,0.0017248,0.050771,-0.046996,-0.059339,-0.34874,0.18816,0.01764
1471,0.01764,0.048822,0.036154,-0.054467,-0.54395,0.1781,0.030957
1472,0.02706,0.040052,0.20148,-0.052193,-0.5865,0.15991,0.041676
1473,0.024786,0.026735,0.41845,-0.057065,-0.58455,0.12807,0.049796
1474,0.014392,0.0056225,0.61724,-0.068434,-0.60859,0.081627,0.054019
1475,0.0014,-0.020037,0.73936,-0.081751,-0.63652,0.022837,0.053044
1476,-0.010293,-0.045372,0.76112,-0.090845,-0.60079,-0.042774,0.044924
1477,-0.016464,-0.069733,0.69584,-0.092469,-0.45918,-0.11066,0.030633
1478,-0.017764,-0.084999,0.57663,-0.088572,-0.24221,-0.17107,0.012119
1479,-0.016464,-0.084024,0.43145,-0.079152,-0.047321,-0.21232,-0.0093186
1480,-0.013866,-0.071032,0.26125,-0.065186,0.016341,-0.22759,-0.028807
1481,-0.010943,-0.051868,0.049796,-0.047321,-0.10838,-0.21979,-0.043748
1482,-0.007045,-0.036278,-0.18601,-0.025884,-0.39097,-0.20096,-0.046347
1483,-0.00054884,-0.027833,-0.39681,0.00075039,-0.72357,-0.17919,-0.036278
1484,0.0026992,-0.022636,-0.51959,0.031607,-0.99284,-0.15613,-0.018413
1485,0.0026992,-0.018413,-0.5092,0.066686,-1.1302,-0.13567,-0.00087364
1486,0.0039985,-0.0096434,-0.36693,0.10599,-1.1218,-0.11618,0.011144
1487,0.0088706,0.0059473,-0.14249,0.14237,-0.99641,-0.096367,0.017965
1488,0.01764,0.024137,0.086824,0.16933,-0.81322,-0.077203,0.022512
1489,0.024137,0.039402,0.24988,0.17712,-0.63912,-0.066485,0.022188
1490,0.023162,0.045899,0.31451,0.15991,-0.52251,-0.067784,0.021538
1491,0.013093,0.046873,0.28268,0.12093,-0.47249,-0.079477,0.019264
1492,0.0014,0.043625,0.18784,0.071234,-0.4647,-0.093769,0.016341
1493,-0.0073698,0.037778,0.07708,0.024137,-0.4595,-0.10059,0.014392
1494,-0.013866,0.028359,0.0049729,-0.008669,-0.42735,-0.097017,0.015692
1495,-0.019388,0.019589,0.013743,-0.021337,-0.36173,-0.0837,0.020564
1496,-0.021337,0.013418,0.10209,-0.010618,-0.27599,-0.060963,0.023812
1497,-0.020687,0.011144,0.21902,0.021213,-0.18829,-0.034004,0.023487
1498,-0.01549,0.010819,0.29438,0.064088,-0.10936,-0.0089938,0.024137
1499,-0.0037969,0.011469,0.27132,0.10566,-0.047646,0.0072465,0.027385
1500,0.010495,0.011794,0.14529,0.13522,-0.0067202,0.012768,0.029009
1501,0.024137,0.013093,-0.047646,0.14919,0.021863,0.014068,0.02706
1502,0.030308,0.015042,-0.24935,0.14529,0.053369,0.01764,0.022837
1503,0.030633,0.015692,-0.4176,0.12872,0.094945,0.027709,0.016991
1504,0.025761,0.011794,-0.54623,0.10274,0.13879,0.042975,0.012443
1505,0.019589,0.0039985,-0.63977,0.074482,0.16673,0.055318,0.009845
1506,0.017965,-0.0060706,-0.6807,0.050771,0.16965,0.058891,0.0085458
1507,0.022188,-0.011267,-0.64692,0.03518,0.14367,0.055968,0.009845
1508,0.028034,-0.0080194,-0.5394,0.028684,0.089748,0.047847,0.011469
1509,0.031607,0.0023744,-0.38382,0.031282,0.0091954,0.039727,0.011144
1510,0.029658,0.015367,-0.22759,0.038753,-0.093119,0.028684,0.0075714
1511,0.023812,0.026085,-0.10871,0.044924,-0.2016,0.011469,0.0036737
1512,0.019264,0.030633,-0.042774,0.045899,-0.29028,-0.014516,0.00075039
1513,0.019589,0.029333,-0.026533,0.040052,-0.33445,-0.044723,-0.0018481
1514,0.025111,0.025111,-0.039851,0.027709,-0.32828,-0.074605,-0.0018481
1515,0.032906,0.01829,-0.062912,0.013418,-0.28963,-0.098641,0.0033489
1516,0.038428,0.011144,-0.078503,-0.0024977,-0.2448,-0.11553,0.016666
1517,0.033231,0.003024,-0.082076,-0.015815,-0.20713,-0.123,0.032582
1518,0.021213,-0.0015233,-0.078827,-0.019712,-0.17789,-0.12268,0.040702
1519,0.0085458,-0.00054884,-0.072006,-0.012242,-0.15061,-0.11748,0.042326
1520,0.0010752,0.0010752,-0.062912,0.00042559,-0.11845,-0.10871,0.041027
1521,-0.00022403,0.00042559,-0.052843,0.016016,-0.08305,-0.094418,0.0433
1522,0.0014,-0.00054884,-0.044398,0.029658,-0.050569,-0.075255,0.048172
1523,0.0026992,0.00042559,-0.040825,0.036154,-0.031081,-0.055766,0.051745
1524,0.0072465,0.0020496,-0.039201,0.03518,-0.021661,-0.039851,0.054019
1525,0.014717,0.0059473,-0.039851,0.033556,-0.011592,-0.030431,0.054019
1526,0.021863,0.010819,-0.038227,0.035505,0.01764,-0.027508,0.050771
1527,0.024137,0.012443,-0.03303,0.041676,0.067986,-0.026209,0.044599
1528,0.018615,0.012119,-0.025884,0.05142,0.1258,-0.023935,0.033881
1529,0.0062721,0.01017,-0.02361,0.06019,0.17517,-0.023935,0.019589
1530,-0.0050961,0.0085458,-0.027183,0.066686,0.2083,-0.025559,0.0078962
1531,-0.0076946,0.0088706,-0.033354,0.071234,0.23526,-0.027508,0.0026992
1532,0.0014,0.011144,-0.037902,0.077405,0.28236,-0.022311,0.0026992
1533,0.015367,0.012119,-0.034004,0.086175,0.36421,-0.0057458,0.0026992
1534,0.024461,0.010495,-0.021661,0.095269,0.47757,0.019914,0.0017248
1535,0.022837,0.0052977,-0.00054884,0.095594,0.59158,0.045249,0.00010078
1536,0.009845,-0.0037969,0.026085,0.07708,0.66563,0.063113,-0.0021729
1537,-0.010943,-0.013866,0.054668,0.03453,0.67408,0.064737,-0.0063954
1538,-0.03173,-0.019712,0.082602,-0.024585,0.62178,0.047847,-0.0096434
1539,-0.047971,-0.023285,0.10501,-0.084349,0.53408,0.023487,-0.0083442
1540,-0.057065,-0.025234,0.11638,-0.12592,0.44216,0.0036737,-0.0041217
1541,-0.054467,-0.026209,0.11086,-0.13924,0.36356,-0.0031473,-0.0024977
1542,-0.042449,-0.024909,0.0865,-0.12787,0.29925,0.0033489,-0.0018481
1543,-0.027183,-0.020037,0.050771,-0.098316,0.23656,0.019589,0.0010752
1544,-0.013216,-0.011267,0.014392,-0.062587,0.16348,0.040702,0.0049729
1545,-0.0018481,0.00042559,-0.014191,-0.028807,0.074806,0.056292,0.011144
1546,0.0095202,0.011794,-0.029782,-0.0057458,-0.026858,0.057267,0.016341
1547,0.019589,0.01894,-0.03238,0.0075714,-0.12203,0.044275,0.01894
1548,0.024461,0.019264,-0.024909,0.014392,-0.19673,0.025111,0.017965
1549,0.024786,0.014392,-0.007045,0.016991,-0.24545,0.0088706,0.013093
1550,0.020564,0.0078962,0.024137,0.01764,-0.26494,0.0026992,0.01017
1551,0.013418,0.0036737,0.065387,0.020888,-0.25065,0.011144,0.012443
1552,0.0059473,0.0046481,0.10566,0.028359,-0.2055,0.029658,0.016991
1553,0.0059473,0.0091954,0.14237,0.037454,-0.13664,0.047523,0.017965
1554,0.012443,0.011144,0.17452,0.042975,-0.059664,0.055643,0.012119
1555,0.019914,0.0088706,0.20213,0.039078,0.010819,0.047523,0.0043233
1556,0.024461,0.0023744,0.23104,0.023487,0.062464,0.025436,0.00075039
1557,0.024461,-0.0041217,0.26904,0.0049729,0.095594,-0.0031473,0.00010078
1558,0.019589,-0.0063954,0.31614,-0.01549,0.11801,-0.030756,-0.00087364
1559,0.012768,-0.0037969,0.36064,-0.033679,0.13749,-0.047321,-0.0044465
1560,0.0075714,0.0014,0.36973,-0.039851,0.16218,-0.046347,-0.012242
1561,0.0043233,0.0062721,0.27651,-0.027508,0.19628,-0.029132,-0.019063
1562,0.0026992,0.0033489,0.034206,-0.0044465,0.23429,0.0017248,-0.021012
1563,0.003024,-0.0044465,-0.31139,0.01829,0.27132,0.038428,-0.014191
1564,0.0059473,-0.008669,-0.63815,0.033881,0.29438,0.067661,-0.0034721
1565,0.008221,-0.0021729,-0.82036,0.039402,0.2908,0.083251,0.0043233
1566,0.0085458,0.019589,-0.79275,0.037778,0.24695,0.081627,0.0049729
1567,0.0052977,0.051745,-0.58033,0.030957,0.15991,0.062139,-0.0024977
1568,-0.0024977,0.081952,-0.27923,0.018615,0.049472,0.029983,-0.014191
1569,-0.010618,0.10242,-0.0037969,-0.00087364,-0.043099,-0.0054209,-0.022636
1570,-0.01614,0.11151,0.17322,-0.021986,-0.077853,-0.027833,-0.024585
1571,-0.016464,0.10891,0.23526,-0.041475,-0.045047,-0.03173,-0.017114
1572,-0.010293,0.096569,0.2109,-0.052518,0.035505,-0.018738,-0.0031473
1573,-0.0024977,0.078055,0.14626,-0.050244,0.13002,0.0017248,0.011144
1574,0.0062721,0.056292,0.080978,-0.038227,0.20538,0.01829,0.024786
1575,0.012443,0.035505,0.034855,-0.021986,0.24598,0.024786,0.032906
1576,0.01829,0.01764,0.018615,-0.0076946,0.24728,0.023487,0.031282
1577,0.023487,0.0036737,0.032257,0.0059473,0.21935,0.013093,0.018615
1578,0.023812,-0.0089938,0.068635,0.01829,0.17192,-0.0060706,-0.0031473
1579,0.016341,-0.02426,0.10956,0.02706,0.11898,-0.03238,-0.026533
1580,0.003024,-0.043748,0.13879,0.031932,0.067336,-0.060313,-0.046996
1581,-0.012892,-0.068434,0.13944,0.032257,0.014717,-0.084674,-0.063561
1582,-0.027508,-0.099615,0.10664,0.031282,-0.0405,-0.10384,-0.073631
1583,-0.036602,-0.13599,0.042001,0.027709,-0.090196,-0.11293,-0.076879
1584,-0.037902,-0.18179,-0.043423,0.017965,-0.13242,-0.10903,-0.07428
1585,-0.031081,-0.24026,-0.1321,0.0017248,-0.16977,-0.09182,-0.067134
1586,-0.021012,-0.30327,-0.20096,-0.019712,-0.2068,-0.06681,-0.057715
1587,-0.012242,-0.35069,-0.23279,-0.038227,-0.24253,-0.042774,-0.050569
1588,-0.0057458,-0.36303,-0.21785,-0.046022,-0.26884,-0.027183,-0.046022
1589,-0.0015233,-0.33348,-0.1636,-0.043099,-0.27761,-0.019712,-0.046022
1590,-0.00087364,-0.27241,-0.090521,-0.030431,-0.26722,-0.014191,-0.046996
1591,-0.0011985,-0.19543,-0.020687,-0.013216,-0.23766,-0.0044465,-0.047321
1592,0.00010078,-0.1204,0.032582,0.0014,-0.19836,0.0078962,-0.042774
1593,0.0059473,-0.056416,0.069285,0.0095202,-0.15321,0.020888,-0.036602
1594,0.014392,-0.0063954,0.095269,0.0088706,-0.10903,0.031607,-0.030431
1595,0.023812,0.032582,0.11833,0.0039985,-0.070707,0.041027,-0.023285
1596,0.031282,0.064413,0.14399,-0.00022403,-0.038227,0.054019,-0.016789
1597,0.033881,0.090722,0.16738,-0.0050961,-0.0093186,0.06961,-0.008669
1598,0.033231,0.11118,0.18394,-0.0089938,0.018615,0.086175,-0.0015233
1599,0.032906,0.12385,0.18589,-0.008669,0.042975,0.10014,0.0046481
1600,0.034206,0.12775,0.17257,-0.0011985,0.059865,0.11183,0.008221
1601,0.032906,0.1245,0.14854,0.013743,0.069285,0.11866,0.0095202
1602,0.030308,0.11476,0.11898,0.029658,0.071234,0.11768,0.010495
1603,0.022512,0.10436,0.089748,0.040052,0.065062,0.10404,0.011469
1604,0.009845,0.097218,0.062789,0.042651,0.052395,0.078055,0.011144
1605,-0.0057458,0.093321,0.03453,0.035505,0.037129,0.04395,0.003024
1606,-0.021337,0.09397,0.008221,0.018615,0.027709,0.0091954,-0.010293
1607,-0.028807,0.099492,-0.010618,-0.0034721,0.030633,-0.019063,-0.019388
1608,-0.026209,0.10469,-0.020362,-0.021986,0.05142,-0.034978,-0.020687
1609,-0.018088,0.10794,-0.022961,-0.034004,0.083251,-0.038551,-0.016789
1610,-0.0099683,0.11183,-0.017114,-0.0405,0.11216,-0.032705,-0.014516
1611,-0.0028225,0.11736,-0.0011985,-0.039851,0.13132,-0.024909,-0.012892
1612,0.0023744,0.12353,0.023812,-0.032705,0.13977,-0.018738,-0.011267
1613,0.0033489,0.1284,0.061814,-0.021986,0.13814,-0.015815,-0.0096434
1614,0.0023744,0.12905,0.11638,-0.011267,0.12937,-0.015815,-0.0057458
1615,0.0026992,0.1258,0.18557,0.00075039,0.11508,-0.019388,0.0017248
1616,0.003024,0.12288,0.26644,0.014717,0.092346,-0.024585,0.011469
1617,-0.0011985,0.1206,0.35284,0.026085,0.053369,-0.032705,0.020564
1618,-0.0063954,0.11768,0.43145,0.032582,-0.0034721,-0.038227,0.02641
1619,-0.0093186,0.10599,0.46295,0.032257,-0.074605,-0.040825,0.032257
1620,-0.0047713,0.082602,0.39929,0.02641,-0.15451,-0.036278,0.039078
1621,0.0059473,0.051096,0.23948,0.018615,-0.23668,-0.025234,0.047523
1622,0.016016,0.019589,0.030633,0.014392,-0.31561,-0.008669,0.051096
1623,0.017965,-0.0037969,-0.1636,0.013743,-0.38642,0.0085458,0.045899
1624,0.013743,-0.011917,-0.29742,0.021863,-0.43709,0.027385,0.034855
1625,0.0056225,-0.0054209,-0.36726,0.039078,-0.4569,0.049472,0.024137
1626,-0.00087364,0.0065969,-0.415,0.059865,-0.43514,0.070584,0.019264
1627,-0.00087364,0.016341,-0.47996,0.080328,-0.37213,0.083251,0.019589
1628,0.0085458,0.021538,-0.56994,0.094945,-0.27891,0.081303,0.02641
1629,0.026735,0.023162,-0.65893,0.10404,-0.17367,0.064737,0.038103
1630,0.047523,0.024137,-0.70441,0.10696,-0.085324,0.033881,0.048822
1631,0.063438,0.02641,-0.67225,0.099492,-0.043748,-0.01549,0.053694
1632,0.071558,0.032582,-0.56312,0.075456,-0.064861,-0.077203,0.050446
1633,0.072208,0.041027,-0.40558,0.036804,-0.11456,-0.14119,0.041027
1634,0.06831,0.049147,-0.23019,-0.008669,-0.11586,-0.19413,0.028684
1635,0.06019,0.055318,-0.058689,-0.051544,-0.021012,-0.22109,0.020888
1636,0.046873,0.057267,0.095919,-0.082725,0.15503,-0.21817,0.01894
1637,0.029333,0.05272,0.23006,-0.094418,0.34992,-0.18796,0.017316
1638,0.0095202,0.043625,0.34894,-0.089221,0.50225,-0.14476,0.012768
1639,-0.0093186,0.032906,0.44249,-0.075579,0.57826,-0.10579,0.0033489
1640,-0.029132,0.021863,0.49381,-0.061613,0.57728,-0.081751,-0.010618
1641,-0.050894,0.016666,0.49413,-0.052518,0.52207,-0.075579,-0.026209
1642,-0.06616,0.021213,0.45093,-0.051219,0.44476,-0.0837,-0.036927
1643,-0.069408,0.039402,0.38435,-0.058365,0.36681,-0.10124,-0.0405
1644,-0.059664,0.066362,0.31451,-0.070382,0.29405,-0.11845,-0.034004
1645,-0.045697,0.094945,0.26352,-0.07428,0.22747,-0.12755,-0.020362
1646,-0.03238,0.12028,0.24241,-0.060638,0.17777,-0.12105,-0.0011985
1647,-0.018738,0.13425,0.24858,-0.03303,0.14756,-0.095068,0.022188
1648,-0.0047713,0.13197,0.2606,-0.0011985,0.12613,-0.053817,0.042975
1649,0.0069217,0.11248,0.23786,0.024137,0.083576,-0.0073698,0.049472
1650,0.013743,0.084226,0.15666,0.036479,0.0085458,0.03453,0.042001
1651,0.014068,0.057267,0.036154,0.037454,-0.084674,0.066362,0.027385
1652,0.0052977,0.039402,-0.069408,0.038428,-0.174,0.087149,0.012443
1653,-0.0076946,0.030308,-0.11066,0.047198,-0.24838,0.096244,0.0023744
1654,-0.020037,0.027385,-0.076879,0.062464,-0.30554,0.091696,0.00010078
1655,-0.031081,0.026735,-0.00022403,0.07708,-0.3325,0.073507,0.0010752
1656,-0.040175,0.023812,0.076106,0.080003,-0.31594,0.047198,-0.0037969
1657,-0.050244,0.014717,0.11248,0.064088,-0.26007,0.016016,-0.017764
1658,-0.059664,-0.0037969,0.097868,0.030957,-0.17465,-0.012567,-0.036927
1659,-0.061937,-0.027833,0.048497,-0.0080194,-0.072981,-0.033679,-0.054142
1660,-0.054142,-0.052193,-0.015815,-0.041475,0.039402,-0.039851,-0.062587
1661,-0.04115,-0.070058,-0.072981,-0.061288,0.15211,-0.027508,-0.060638
1662,-0.029457,-0.079152,-0.11261,-0.06681,0.2554,-0.0028225,-0.052518
1663,-0.021012,-0.082076,-0.13827,-0.061288,0.33758,0.027385,-0.037577
1664,-0.016789,-0.081751,-0.14931,-0.04927,0.39084,0.055643,-0.019063
1665,-0.012892,-0.079477,-0.13502,-0.030106,0.41423,0.079679,0.00075039
1666,-0.007045,-0.073306,-0.084674,-0.0060706,0.40481,0.097868,0.01829
1667,0.00042559,-0.06616,0.0014,0.015367,0.35414,0.11021,0.031607
1668,0.0085458,-0.05804,0.10566,0.026735,0.24273,0.11443,0.037778
1669,0.015692,-0.053168,0.20473,0.025111,0.057267,0.10989,0.034206
1670,0.019589,-0.056416,0.27911,0.012119,-0.19056,0.093321,0.022837
1671,0.017965,-0.065835,0.31874,-0.0073698,-0.45138,0.067336,0.0052977
1672,0.010819,-0.076554,0.32881,-0.026209,-0.65211,0.038103,-0.013216
1673,0.0033489,-0.076229,0.32588,-0.04115,-0.73559,0.016666,-0.024909
1674,-0.00054884,-0.053817,0.32263,-0.052193,-0.68135,0.011469,-0.027183
1675,-0.0011985,-0.0057458,0.32361,-0.05739,-0.52479,0.022512,-0.021012
1676,0.0017248,0.055968,0.33011,-0.053492,-0.32925,0.038103,-0.013866
1677,0.0059473,0.11378,0.34407,-0.036278,-0.1597,0.047198,-0.0050961
1678,0.0075714,0.15211,0.36389,-0.0083442,-0.045697,0.050446,0.0052977
1679,0.0069217,0.16218,0.37298,0.025436,0.0091954,0.051745,0.016016
1680,0.0049729,0.14756,0.33075,0.058891,0.0091954,0.052395,0.026735
1681,0.0039985,0.11963,0.18719,0.087474,-0.03173,0.053694,0.03583
1682,0.0078962,0.08585,-0.12885,0.10664,-0.10319,0.05272,0.042326
1683,0.016341,0.049472,-0.65081,0.11216,-0.18926,0.045249,0.047523
1684,0.02641,0.0088706,-1.2757,0.10339,-0.26981,0.03453,0.048822
1685,0.034206,-0.030756,-1.8049,0.08585,-0.3351,0.028359,0.049796
1686,0.034855,-0.061613,-2.0611,0.066037,-0.38577,0.029009,0.049472
1687,0.02641,-0.077528,-1.9598,0.057267,-0.43774,0.030633,0.050771
1688,0.013743,-0.081101,-1.5135,0.062789,-0.50335,0.029658,0.053044
1689,0.0020496,-0.072656,-0.8444,0.078379,-0.58423,0.023487,0.054344
1690,-0.0037969,-0.05804,-0.15158,0.093645,-0.66381,0.014392,0.053044
1691,0.00042559,-0.04115,0.37818,0.098193,-0.72519,0.0078962,0.050771
1692,0.0091954,-0.030106,0.66108,0.092346,-0.74436,0.0069217,0.045249
1693,0.016016,-0.028157,0.72345,0.080328,-0.68947,0.0091954,0.037454
1694,0.017965,-0.03303,0.64289,0.072533,-0.5433,0.014717,0.034206
1695,0.01764,-0.040825,0.50258,0.069934,-0.31951,0.01829,0.032906
1696,0.016991,-0.046996,0.36486,0.074482,-0.067459,0.01764,0.029333
1697,0.018615,-0.047321,0.26222,0.082602,0.14302,0.012443,0.023162
1698,0.022188,-0.039526,0.19661,0.087799,0.26774,0.00075039,0.016341
1699,0.022188,-0.028157,0.15601,0.089423,0.31029,-0.016789,0.008221
1700,0.01894,-0.021012,0.12743,0.0865,0.31939,-0.037577,-0.0015233
1701,0.012768,-0.018738,0.10209,0.080978,0.35966,-0.059014,-0.0073698
1702,0.0052977,-0.019388,0.077405,0.072208,0.4636,-0.06681,-0.0037969
1703,-0.0044465,-0.019388,0.055968,0.06084,0.61399,-0.054792,0.0085458
1704,-0.016464,-0.021337,0.040702,0.05142,0.75463,-0.027833,0.022512
1705,-0.029782,-0.021661,0.029983,0.045574,0.82219,0.00010078,0.030308
1706,-0.038876,-0.017764,0.01894,0.042975,0.77866,0.015692,0.030308
1707,-0.039201,-0.008669,0.00042559,0.040377,0.60619,0.012443,0.026735
1708,-0.030106,0.0043233,-0.030431,0.036479,0.2973,-0.014191,0.020564
1709,-0.017764,0.01829,-0.068434,0.027385,-0.097017,-0.061937,0.015042
1710,-0.0067202,0.028684,-0.10611,0.012768,-0.45463,-0.11813,0.0072465
1711,-0.0021729,0.033231,-0.13632,-0.0024977,-0.65081,-0.16653,-0.0011985
1712,-0.00022403,0.030957,-0.15711,-0.01549,-0.63327,-0.19413,-0.0073698
1713,0.0036737,0.026735,-0.1636,-0.022961,-0.44164,-0.19446,-0.0057458
1714,0.01017,0.021538,-0.14314,-0.023285,-0.17367,-0.1727,0.0046481
1715,0.017965,0.020888,-0.089871,-0.017764,0.067661,-0.13372,0.022512
1716,0.025436,0.024786,-0.0044465,-0.010943,0.22194,-0.086623,0.039727
1717,0.028034,0.031282,0.10274,-0.0028225,0.27814,-0.044073,0.049796
1718,0.022188,0.035505,0.21967,0.0072465,0.2554,-0.011267,0.048497
1719,0.012443,0.033881,0.33043,0.01829,0.17387,0.01017,0.036479
1720,0.0026992,0.023812,0.4165,0.029658,0.058891,0.021863,0.020239
1721,-0.00087364,0.0078962,0.4636,0.038753,-0.05739,0.028684,0.0078962
1722,0.00010078,-0.018413,0.45516,0.046548,-0.13957,0.032582,0.0039985
1723,0.00075039,-0.057065,0.38402,0.045574,-0.1714,0.033881,0.0069217
1724,-0.0015233,-0.10091,0.27781,0.03583,-0.16035,0.031607,0.012768
1725,-0.0080194,-0.13664,0.1755,0.014717,-0.13697,0.025111,0.019264
1726,-0.011592,-0.15321,0.091696,-0.0076946,-0.12755,0.013743,0.023812
1727,-0.0050961,-0.14899,0.02706,-0.023285,-0.13275,-0.0015233,0.024137
1728,0.0075714,-0.13242,-0.034978,-0.027833,-0.13989,-0.017764,0.023162
1729,0.01764,-0.11098,-0.10546,-0.023935,-0.13437,-0.029132,0.021538
1730,0.024461,-0.093119,-0.17107,-0.016464,-0.11488,-0.034654,0.017965
1731,0.029009,-0.083375,-0.21785,-0.013866,-0.095393,-0.038876,0.011794
1732,0.029983,-0.079802,-0.24026,-0.019388,-0.088896,-0.040175,0.0072465
1733,0.027385,-0.078503,-0.23311,-0.030431,-0.098316,-0.033679,0.0078962
1734,0.026085,-0.070382,-0.19413,-0.040825,-0.11261,-0.017439,0.014392
1735,0.026085,-0.048296,-0.12625,-0.04115,-0.12105,0.0026992,0.023812
1736,0.029983,-0.012567,-0.044073,-0.030106,-0.11845,0.018615,0.031282
1737,0.035505,0.028684,0.030308,-0.012567,-0.10774,0.023162,0.032257
1738,0.040702,0.065712,0.075781,0.008221,-0.092145,0.01894,0.028684
1739,0.044924,0.089423,0.0852,0.025111,-0.070707,0.010819,0.023812
1740,0.047523,0.10014,0.070259,0.034206,-0.040175,0.0014,0.01894
1741,0.050121,0.10047,0.04395,0.031932,-0.0015233,-0.0028225,0.015367
1742,0.052395,0.10047,0.018615,0.020564,0.042326,0.00075039,0.012443
