,channel_1,channel_2,channel_3,channel_4,channel_5,channel_6,channel_7
0,0.067661,-0.068758,-0.02426,-0.028157,-0.35654,-0.063561,0.029009
1,0.047198,-0.056416,-0.031406,-0.017764,-0.11326,-0.064211,0.026735
2,0.01829,-0.045372,-0.03238,-0.0060706,0.098842,-0.060313,0.01829
3,-0.0047713,-0.033679,-0.025884,0.0056225,0.25183,-0.053492,0.0056225
4,-0.011267,-0.020362,-0.013866,0.016341,0.33952,-0.046347,-0.0063954
5,0.0023744,-0.0041217,-0.0011985,0.025761,0.36973,-0.043423,-0.01614
6,0.027709,0.014717,0.010819,0.029658,0.36356,-0.043423,-0.023285
7,0.052395,0.031607,0.019264,0.029658,0.33725,-0.038551,-0.027508
8,0.061489,0.04395,0.023162,0.029333,0.29665,-0.029132,-0.030106
9,0.045899,0.048172,0.019914,0.031282,0.24241,-0.018088,-0.029457
10,0.012443,0.041676,0.013093,0.037778,0.169,-0.0073698,-0.018738
11,-0.019388,0.032906,0.0075714,0.046223,0.06896,0.0014,0.0059473
12,-0.03173,0.031607,0.008221,0.053694,-0.069733,0.0065969,0.037778
13,-0.019388,0.042326,0.014392,0.056617,-0.24708,0.0088706,0.062789
14,0.0075714,0.061814,0.023812,0.056617,-0.43969,0.0065969,0.072208
15,0.029658,0.084551,0.032906,0.055643,-0.6245,0.00010078,0.066362
16,0.032582,0.10177,0.037454,0.056617,-0.78171,-0.011267,0.050771
17,0.016991,0.10014,0.036479,0.056617,-0.8915,-0.020687,0.03453
18,-0.0041217,0.079354,0.031282,0.049472,-0.94119,-0.026209,0.022837
19,-0.014191,0.045249,0.022837,0.034855,-0.93145,-0.028157,0.01894
20,-0.0024977,0.014392,0.015042,0.020888,-0.87623,-0.031406,0.022188
21,0.031282,-0.0037969,0.009845,0.012443,-0.77749,-0.035953,0.029009
22,0.07708,-0.0080194,0.0046481,0.008221,-0.64204,-0.042449,0.031282
23,0.12353,-0.0018481,-0.0031473,0.0046481,-0.48321,-0.056416,0.025436
24,0.15893,0.013093,-0.011267,-0.0011985,-0.31886,-0.078503,0.012443
25,0.17322,0.031607,-0.017114,-0.0076946,-0.17594,-0.10546,-0.007045
26,0.16673,0.048822,-0.017439,-0.012242,-0.078503,-0.13047,-0.024585
27,0.14139,0.061814,-0.011917,-0.012892,-0.028807,-0.14476,-0.035628
28,0.10209,0.066362,-0.0024977,-0.0083442,-0.0028225,-0.14249,-0.038227
29,0.055318,0.06084,0.0062721,0.003024,0.02706,-0.12592,-0.036278
30,0.0065969,0.047523,0.008221,0.016016,0.06896,-0.097341,-0.035303
31,-0.040825,0.028034,0.0043233,0.025111,0.11248,-0.062912,-0.036278
32,-0.077528,0.0095202,-0.0041217,0.024786,0.14529,-0.028482,-0.033679
33,-0.092469,-0.0021729,-0.011267,0.014392,0.15796,0.00075039,-0.02361
34,-0.082076,-0.007045,-0.013866,-0.0018481,0.15016,0.023812,-0.0073698
35,-0.053168,-0.0037969,-0.012242,-0.014191,0.13392,0.042975,0.012768
36,-0.015165,0.009845,-0.0089938,-0.014516,0.12288,0.060515,0.032582
37,0.020888,0.032257,-0.0083442,-0.0034721,0.12515,0.075131,0.048822
38,0.044924,0.058241,-0.0083442,0.014068,0.14269,0.087149,0.055643
39,0.048497,0.080328,-0.010618,0.030957,0.16673,0.095269,0.05272
40,0.033556,0.09462,-0.0089938,0.041027,0.18914,0.098517,0.042001
41,0.011469,0.098517,-0.0044465,0.041027,0.20083,0.095919,0.030308
42,-0.0015233,0.088124,0.0023744,0.034206,0.19758,0.088773,0.022837
43,0.00075039,0.064413,0.0088706,0.025111,0.17745,0.07708,0.020888
44,0.014068,0.03518,0.012768,0.019264,0.14561,0.064737,0.019264
45,0.029009,0.0059473,0.0091954,0.017965,0.11086,0.05272,0.0091954
46,0.037129,-0.014516,0.0023744,0.019589,0.083251,0.042651,-0.0067202
47,0.037129,-0.023935,-0.0041217,0.024137,0.067661,0.037129,-0.02361
48,0.032906,-0.024585,-0.0060706,0.029983,0.06084,0.032906,-0.039201
49,0.028034,-0.020362,-0.0083442,0.031607,0.059865,0.025436,-0.054467
50,0.02641,-0.013866,-0.015165,0.029009,0.063438,0.014392,-0.061937
51,0.026085,-0.011267,-0.021012,0.022188,0.066686,0.0059473,-0.05739
52,0.02641,-0.012892,-0.019388,0.013418,0.069934,0.0026992,-0.046671
53,0.025111,-0.017439,-0.012567,0.0075714,0.079679,0.0036737,-0.036602
54,0.023162,-0.020037,-0.0047713,0.009845,0.10306,0.0020496,-0.034004
55,0.022837,-0.018738,0.00010078,0.016016,0.14594,-0.0060706,-0.042449
56,0.026735,-0.011917,0.00075039,0.021863,0.20343,-0.019063,-0.058689
57,0.033231,-0.0021729,-0.0018481,0.021863,0.26157,-0.028157,-0.07428
58,0.036479,0.0065969,-0.0044465,0.014068,0.30802,-0.031406,-0.082076
59,0.030957,0.008221,-0.0054209,0.0026992,0.34147,-0.027833,-0.084349
60,0.016341,0.0043233,-0.0057458,-0.008669,0.36389,-0.019388,-0.086298
61,0.00010078,-0.00022403,-0.0073698,-0.012567,0.37038,-0.0073698,-0.089546
62,-0.014191,-0.0021729,-0.0080194,-0.010618,0.35771,0.0043233,-0.09117
63,-0.02426,-0.0021729,-0.0076946,-0.007045,0.32296,0.010819,-0.090196
64,-0.032055,-0.0041217,-0.008669,-0.0060706,0.27002,0.0078962,-0.088896
65,-0.0405,-0.0099683,-0.011917,-0.0083442,0.20603,-0.0021729,-0.092794
66,-0.050569,-0.018738,-0.013866,-0.011917,0.1362,-0.011917,-0.10059
67,-0.060638,-0.027833,-0.012567,-0.016464,0.065387,-0.01549,-0.10611
68,-0.064211,-0.033679,-0.0063954,-0.017114,0.0014,-0.01549,-0.10481
69,-0.053168,-0.037902,0.0026992,-0.013216,-0.050894,-0.01549,-0.09182
70,-0.030106,-0.038227,0.008221,-0.0034721,-0.094093,-0.012242,-0.068758
71,-0.0011985,-0.034654,0.008221,0.0039985,-0.1334,-0.0018481,-0.039526
72,0.027385,-0.027833,0.0059473,0.0065969,-0.17465,0.012443,-0.013541
73,0.05142,-0.023285,0.0026992,0.0059473,-0.22012,0.023162,0.0010752
74,0.063438,-0.022961,0.0010752,0.0046481,-0.26916,0.024137,0.003024
75,0.064413,-0.022961,0.0020496,0.0069217,-0.31821,0.018615,-0.0034721
76,0.061814,-0.018738,0.0036737,0.010819,-0.36141,0.014392,-0.0076946
77,0.061489,-0.0083442,0.0062721,0.015367,-0.38837,0.013418,-0.0024977
78,0.063763,0.0010752,0.0085458,0.017965,-0.39357,0.016991,0.012119
79,0.064088,0.0052977,0.0075714,0.017316,-0.3731,0.026085,0.032582
80,0.057917,0.0052977,0.003024,0.01764,-0.32568,0.040702,0.052395
81,0.048822,0.0023744,-0.0018481,0.020564,-0.2591,0.061165,0.066686
82,0.039078,0.0036737,-0.0047713,0.026085,-0.18536,0.081952,0.071234
83,0.030957,0.014717,-0.0037969,0.027385,-0.11228,0.097218,0.066362
84,0.029333,0.037454,-0.0015233,0.022837,-0.037902,0.097543,0.057267
85,0.030957,0.06961,0.00042559,0.013418,0.041027,0.08585,0.047847
86,0.026735,0.099817,0.0010752,0.0046481,0.11768,0.068635,0.041351
87,0.009845,0.11866,0.0046481,-0.0034721,0.18199,0.05207,0.038428
88,-0.01549,0.12158,0.012768,-0.008669,0.22714,0.037778,0.038103
89,-0.04115,0.11313,0.022837,-0.012567,0.25345,0.023487,0.038753
90,-0.060963,0.096569,0.033881,-0.012892,0.27034,0.0095202,0.037129
91,-0.072981,0.075456,0.03583,-0.0067202,0.29308,-0.0018481,0.033556
92,-0.072656,0.046873,0.025761,0.00075039,0.31289,-0.011917,0.034206
93,-0.061613,0.013743,0.011144,0.0036737,0.28626,-0.021012,0.041027
94,-0.047971,-0.019063,-0.00054884,0.0039985,0.16543,-0.034329,0.05142
95,-0.039526,-0.045372,-0.0028225,0.0046481,-0.055116,-0.052518,0.061165
96,-0.038876,-0.059014,-0.0024977,0.0072465,-0.32828,-0.072331,0.068635
97,-0.043099,-0.065186,-0.0054209,0.010495,-0.58163,-0.084999,0.066686
98,-0.049595,-0.069408,-0.0076946,0.010495,-0.7502,-0.086948,0.055643
99,-0.050894,-0.072656,-0.0037969,0.009845,-0.80055,-0.085973,0.037454
100,-0.046347,-0.072656,0.0056225,0.0069217,-0.74631,-0.086298,0.014392
101,-0.044723,-0.072331,0.013743,0.00010078,-0.63685,-0.092794,-0.011267
102,-0.047971,-0.069083,0.020239,-0.0096434,-0.52089,-0.10286,-0.032705
103,-0.051868,-0.064861,0.026735,-0.015165,-0.41825,-0.11066,-0.045047
104,-0.047646,-0.060638,0.031282,-0.013866,-0.32211,-0.11423,-0.043423
105,-0.036927,-0.061288,0.031932,-0.0093186,-0.21785,-0.11358,-0.028157
106,-0.022636,-0.072006,0.025436,-0.0076946,-0.10286,-0.11196,-0.0047713
107,-0.0063954,-0.092469,0.012443,-0.0083442,0.01829,-0.11326,0.019589
108,0.008221,-0.11618,-0.0076946,-0.0083442,0.13132,-0.11748,0.039402
109,0.013743,-0.13242,-0.024585,-0.00054884,0.2174,-0.12495,0.050446
110,0.009845,-0.13242,-0.031081,0.013093,0.25378,-0.1295,0.05272
111,0.00075039,-0.11163,-0.022636,0.030633,0.23169,-0.12527,0.047847
112,-0.0089938,-0.07493,-0.0083442,0.049796,0.16868,-0.11033,0.040052
113,-0.018413,-0.034329,0.0017248,0.067661,0.09462,-0.085648,0.034206
114,-0.027183,-0.0050961,0.0010752,0.080328,0.032906,-0.052843,0.030957
115,-0.032055,0.0062721,-0.012567,0.080978,0.00042559,-0.021012,0.029333
116,-0.033354,0.0039985,-0.034329,0.069934,0.012119,0.0056225,0.028359
117,-0.031081,-0.00054884,-0.051868,0.056617,0.074482,0.028684,0.031607
118,-0.029132,0.0078962,-0.050569,0.048172,0.17095,0.050121,0.038753
119,-0.028482,0.03518,-0.027833,0.042001,0.27196,0.071558,0.048497
120,-0.028157,0.071558,0.0033489,0.03583,0.34472,0.090397,0.059216
121,-0.023285,0.10112,0.026735,0.026085,0.36648,0.10534,0.071558
122,-0.0050961,0.11541,0.036479,0.014717,0.33368,0.11703,0.082927
123,0.026735,0.11443,0.036154,0.0065969,0.26807,0.12515,0.090722
124,0.071558,0.10404,0.033231,0.0049729,0.20343,0.13035,0.093645
125,0.11931,0.091696,0.038428,0.0095202,0.16543,0.13749,0.092671
126,0.15438,0.081627,0.049472,0.013743,0.16413,0.14691,0.0852
127,0.16998,0.074806,0.061489,0.01764,0.18849,0.15406,0.070259
128,0.1625,0.06961,0.067336,0.023162,0.19206,0.14984,0.049472
129,0.13782,0.062139,0.065062,0.030957,0.12775,0.13002,0.029983
130,0.10306,0.053694,0.061165,0.037129,-0.0083442,0.097543,0.01764
131,0.071234,0.044599,0.054668,0.041027,-0.16912,0.066037,0.013093
132,0.046548,0.036154,0.046873,0.044275,-0.27793,0.04395,0.012119
133,0.033231,0.02706,0.036479,0.042326,-0.27696,0.030633,0.013743
134,0.027385,0.014392,0.021213,0.030308,-0.16425,0.023162,0.016341
135,0.025761,0.0010752,0.0033489,0.0075714,0.013743,0.021538,0.019264
136,0.023162,-0.011917,-0.015165,-0.018413,0.18849,0.02641,0.024786
137,0.020564,-0.022961,-0.026533,-0.037577,0.30639,0.033556,0.02641
138,0.022188,-0.03303,-0.026858,-0.044723,0.34082,0.036804,0.024137
139,0.028359,-0.036602,-0.018738,-0.036278,0.29145,0.032582,0.019914
140,0.031932,-0.03303,-0.0076946,-0.016464,0.16803,0.020239,0.011794
141,0.028684,-0.022961,0.0039985,0.0072465,-0.011917,0.0010752,0.0023744
142,0.023812,-0.0073698,0.0085458,0.022188,-0.23961,-0.020687,-0.0047713
143,0.020239,0.0065969,0.0033489,0.020888,-0.49945,-0.042124,-0.011592
144,0.014717,0.015367,-0.0083442,0.0036737,-0.75767,-0.063886,-0.013541
145,0.0017248,0.01829,-0.022961,-0.022311,-0.9727,-0.0837,-0.010943
146,-0.014191,0.016016,-0.037252,-0.047321,-1.1062,-0.094093,-0.008669
147,-0.027183,0.0088706,-0.050244,-0.060963,-1.1396,-0.093444,-0.0093186
148,-0.034654,-0.0031473,-0.060638,-0.060638,-1.0682,-0.088247,-0.011267
149,-0.036927,-0.016789,-0.065835,-0.053168,-0.89897,-0.084674,-0.013541
150,-0.039526,-0.024909,-0.059989,-0.050244,-0.64724,-0.080776,-0.016464
151,-0.042124,-0.028482,-0.043748,-0.050894,-0.34062,-0.078827,-0.018738
152,-0.042774,-0.026858,-0.019063,-0.051544,-0.021986,-0.082076,-0.01484
153,-0.041799,-0.022636,0.0062721,-0.046022,0.26384,-0.092469,-0.0044465
154,-0.040175,-0.017764,0.027385,-0.033354,0.48601,-0.11358,0.0069217
155,-0.037577,-0.016464,0.041676,-0.017114,0.63185,-0.14152,0.01017
156,-0.032705,-0.020362,0.046223,-0.0034721,0.70266,-0.17172,0.0010752
157,-0.026533,-0.029132,0.043625,0.0059473,0.7176,-0.19738,-0.01484
158,-0.019388,-0.037252,0.037778,0.016016,0.69714,-0.20908,-0.027183
159,-0.010293,-0.038876,0.032582,0.027385,0.65589,-0.20193,-0.027508
160,0.0010752,-0.030756,0.028034,0.041676,0.60164,-0.17789,-0.019712
161,0.01017,-0.018088,0.022837,0.059216,0.53961,-0.14671,-0.011267
162,0.014068,-0.0041217,0.016666,0.074806,0.47529,-0.11586,-0.010293
163,0.012119,0.0072465,0.0095202,0.081952,0.40806,-0.09182,-0.017439
164,0.0043233,0.016666,0.0062721,0.07773,0.33758,-0.07493,-0.028157
165,-0.0076946,0.026085,0.0065969,0.064088,0.26807,-0.064861,-0.036927
166,-0.016464,0.038428,0.011469,0.050771,0.20733,-0.057065,-0.042124
167,-0.019712,0.053694,0.021863,0.042975,0.16315,-0.044723,-0.040825
168,-0.015165,0.069285,0.032582,0.038428,0.14529,-0.026858,-0.03303
169,-0.00022403,0.083901,0.039727,0.033231,0.15471,-0.0031473,-0.021986
170,0.027385,0.095919,0.040702,0.02641,0.17972,0.024137,-0.010618
171,0.059216,0.094295,0.031932,0.019914,0.20895,0.047198,-0.0080194
172,0.082927,0.073182,0.015692,0.014068,0.23364,0.060515,-0.021986
173,0.094945,0.036804,-0.0034721,0.0069217,0.2515,0.063438,-0.046996
174,0.094295,-0.0018481,-0.020037,-0.00054884,0.26125,0.059216,-0.070382
175,0.076431,-0.030431,-0.028482,-0.0047713,0.24533,0.055968,-0.082076
176,0.034855,-0.043423,-0.024585,-0.0018481,0.17485,0.057267,-0.080776
177,-0.030431,-0.0405,-0.010293,0.0062721,0.046548,0.058891,-0.070382
178,-0.10579,-0.024909,0.0069217,0.016991,-0.11748,0.055643,-0.055766
179,-0.17107,-0.0063954,0.017965,0.025436,-0.27599,0.048172,-0.040175
180,-0.20778,0.0072465,0.019914,0.030957,-0.38057,0.044275,-0.02426
181,-0.2068,0.013418,0.012768,0.033556,-0.40006,0.048822,-0.0089938
182,-0.17107,0.013418,-0.00087364,0.033556,-0.3299,0.057917,0.0023744
183,-0.1178,0.0056225,-0.017114,0.029009,-0.19251,0.070584,0.011144
184,-0.061937,-0.011917,-0.035303,0.014392,-0.02426,0.084876,0.017316
185,-0.017764,-0.036927,-0.04992,-0.0063954,0.14042,0.10014,0.022512
186,0.0014,-0.059989,-0.056091,-0.027508,0.27261,0.11216,0.028359
187,-0.0028225,-0.072006,-0.055116,-0.043423,0.35804,0.11378,0.030957
188,-0.022636,-0.06681,-0.047321,-0.051219,0.39637,0.10112,0.02641
189,-0.048945,-0.046022,-0.034654,-0.04862,0.39474,0.079029,0.015692
190,-0.072981,-0.013216,-0.020362,-0.039201,0.37168,0.056617,0.0075714
191,-0.085648,0.024137,-0.0076946,-0.026209,0.34472,0.042326,0.0072465
192,-0.085324,0.055968,-0.0018481,-0.01484,0.32231,0.042001,0.014717
193,-0.072656,0.071234,-0.0054209,-0.0015233,0.30997,0.051745,0.027385
194,-0.04992,0.058241,-0.015165,0.013418,0.30445,0.061165,0.041676
195,-0.019712,0.025761,-0.028157,0.028684,0.30055,0.064088,0.056292
196,0.012768,-0.0089938,-0.0405,0.041676,0.28983,0.055643,0.066037
197,0.035505,-0.023935,-0.047646,0.048172,0.26417,0.040052,0.065387
198,0.040377,-0.014516,-0.051219,0.046223,0.21707,0.023487,0.056292
199,0.030633,0.012768,-0.051544,0.038103,0.15146,0.0069217,0.042326
200,0.013743,0.045574,-0.049595,0.030957,0.081952,-0.0093186,0.031932
201,0.0010752,0.073507,-0.044723,0.02706,0.029009,-0.022636,0.02641
202,-0.0050961,0.091047,-0.036278,0.02641,-0.0037969,-0.03173,0.024137
203,-0.0076946,0.097543,-0.026533,0.028684,-0.038551,-0.034004,0.025761
204,-0.008669,0.092346,-0.01549,0.031932,-0.11553,-0.026533,0.027709
205,-0.008669,0.079354,-0.0083442,0.030308,-0.25812,-0.012567,0.029983
206,-0.010293,0.061489,-0.0047713,0.022188,-0.45106,0.0039985,0.031282
207,-0.010618,0.042975,-0.0015233,0.0078962,-0.64724,0.019914,0.034206
208,-0.010293,0.027709,0.0020496,-0.0083442,-0.7986,0.03518,0.036154
209,-0.008669,0.016016,0.0078962,-0.016789,-0.86876,0.048822,0.037454
210,-0.0047713,0.0075714,0.017965,-0.01549,-0.84277,0.061489,0.036154
211,0.0039985,0.0023744,0.029009,-0.0060706,-0.73169,0.073182,0.030957
212,0.014717,-0.0015233,0.033556,0.0065969,-0.56636,0.079029,0.021863
213,0.022512,-0.007045,0.02706,0.015042,-0.39454,0.077405,0.011794
214,0.025436,-0.0096434,0.009845,0.016341,-0.26559,0.067661,0.003024
215,0.020564,-0.0018481,-0.0099683,0.010819,-0.21102,0.050121,-0.0054209
216,0.0095202,0.016991,-0.022961,0.0020496,-0.23214,0.028034,-0.013216
217,-0.0063954,0.0433,-0.023285,-0.0067202,-0.31236,0.0075714,-0.02426
218,-0.022636,0.067336,-0.021337,-0.015165,-0.41825,-0.0076946,-0.039526
219,-0.039526,0.083901,-0.017764,-0.028157,-0.50303,-0.021012,-0.055116
220,-0.053168,0.090397,-0.013216,-0.041475,-0.52284,-0.034329,-0.065835
221,-0.059989,0.083251,-0.0037969,-0.050244,-0.45853,-0.044398,-0.066485
222,-0.055116,0.064088,0.0049729,-0.048945,-0.32178,-0.046996,-0.056091
223,-0.037902,0.041027,0.011144,-0.039201,-0.15223,-0.040175,-0.03303
224,-0.0057458,0.027385,0.014068,-0.024909,0.0065969,-0.031406,-0.0044465
225,0.035505,0.029983,0.015042,-0.012892,0.11736,-0.020362,0.020239
226,0.081952,0.048497,0.014717,-0.0067202,0.16445,-0.0083442,0.036804
227,0.13197,0.075131,0.010819,-0.0050961,0.15471,0.00075039,0.044924
228,0.17777,0.10014,0.0049729,-0.0015233,0.10566,0.0033489,0.044275
229,0.20928,0.11021,-0.0015233,0.0039985,0.033881,0.0010752,0.033556
230,0.2161,0.10209,-0.0076946,0.015367,-0.044723,-0.0011985,0.016016
231,0.19791,0.080653,-0.0099683,0.029658,-0.11553,-0.0024977,0.00010078
232,0.1625,0.057917,-0.0067202,0.047198,-0.16685,-0.0021729,-0.011267
233,0.11703,0.042001,0.0072465,0.064413,-0.19024,-0.0031473,-0.016464
234,0.073182,0.030633,0.02706,0.078704,-0.18991,-0.0047713,-0.018088
235,0.042651,0.021863,0.041027,0.085525,-0.1714,-0.007045,-0.014516
236,0.030633,0.012768,0.040052,0.082277,-0.14314,-0.0083442,-0.0083442
237,0.033881,0.0069217,0.025436,0.074806,-0.11326,-0.0073698,-0.0057458
238,0.042975,0.0026992,0.008221,0.067661,-0.080127,-0.0063954,-0.0080194
239,0.051096,0.00042559,-0.0050961,0.066037,-0.046022,-0.0076946,-0.010943
240,0.053369,0.0020496,-0.013216,0.067011,-0.0096434,-0.014516,-0.010618
241,0.049147,0.0046481,-0.014516,0.070584,0.029983,-0.026858,-0.010293
242,0.037454,0.0062721,-0.0099683,0.070909,0.075131,-0.045047,-0.012567
243,0.022512,0.0052977,-0.0034721,0.066037,0.1271,-0.064861,-0.020687
244,0.0091954,0.0014,0.0020496,0.056942,0.18394,-0.08305,-0.03303
245,-0.0011985,-0.0054209,0.0039985,0.044924,0.24468,-0.097341,-0.045697
246,-0.0096434,-0.013541,0.0014,0.030308,0.30704,-0.10514,-0.057715
247,-0.015165,-0.021986,0.0020496,0.013743,0.36778,-0.10806,-0.064211
248,-0.015815,-0.026858,0.0056225,-0.0021729,0.4243,-0.10611,-0.063561
249,-0.014191,-0.025559,0.0091954,-0.011267,0.47952,-0.095717,-0.056741
250,-0.014191,-0.022311,0.013418,-0.015165,0.53116,-0.078503,-0.042774
251,-0.017114,-0.022311,0.019589,-0.01484,0.56916,-0.05804,-0.022636
252,-0.025234,-0.028807,0.025111,-0.011917,0.57793,-0.042124,-0.0037969
253,-0.037252,-0.043099,0.024461,-0.0041217,0.55227,-0.030431,0.011469
254,-0.046022,-0.061613,0.015367,0.0039985,0.49738,-0.018088,0.022837
255,-0.046671,-0.080127,0.0033489,0.009845,0.42462,-0.0021729,0.032906
256,-0.037902,-0.087922,-0.0044465,0.011469,0.34407,0.017316,0.04395
257,-0.024585,-0.079477,-0.0047713,0.010495,0.2606,0.039727,0.055968
258,-0.01614,-0.054792,0.0033489,0.0039985,0.17062,0.061814,0.06961
259,-0.018738,-0.018088,0.014392,-0.0076946,0.071234,0.07773,0.082602
260,-0.026209,0.016666,0.021863,-0.021337,-0.029457,0.087149,0.088448
261,-0.031406,0.042651,0.019264,-0.029457,-0.12073,0.092346,0.088448
262,-0.021012,0.050771,0.0072465,-0.030106,-0.18601,0.090397,0.087799
263,0.003024,0.046223,-0.0073698,-0.022961,-0.21362,0.083251,0.089098
264,0.029658,0.032906,-0.021012,-0.016464,-0.20875,0.066686,0.091696
265,0.046548,0.016666,-0.033354,-0.014191,-0.18634,0.047198,0.091372
266,0.050771,0.0020496,-0.042449,-0.016464,-0.15548,0.029983,0.084876
267,0.044924,-0.0073698,-0.044398,-0.019388,-0.13015,0.020239,0.072858
268,0.035505,-0.0099683,-0.034978,-0.021337,-0.12398,0.019914,0.059216
269,0.029658,0.00010078,-0.01484,-0.021986,-0.13859,0.025761,0.047523
270,0.029009,0.020888,0.0095202,-0.024909,-0.17302,0.032257,0.038103
271,0.029983,0.047198,0.02641,-0.028157,-0.22726,0.03518,0.031932
272,0.027385,0.071558,0.029983,-0.027183,-0.2932,0.03583,0.02641
273,0.020888,0.086175,0.020888,-0.020362,-0.36238,0.031932,0.022512
274,0.0095202,0.08585,0.008221,-0.010943,-0.4202,0.022188,0.016666
275,-0.008669,0.072533,-0.0031473,-0.0031473,-0.43969,0.0010752,0.0062721
276,-0.029782,0.050771,-0.0093186,-0.0037969,-0.39551,-0.030756,-0.007045
277,-0.045372,0.027385,-0.010618,-0.014191,-0.2854,-0.063886,-0.022636
278,-0.047971,0.0069217,-0.008669,-0.030106,-0.13145,-0.09182,-0.039851
279,-0.034004,-0.0060706,-0.0021729,-0.041799,0.034855,-0.10968,-0.055116
280,-0.0076946,-0.013216,0.0059473,-0.043423,0.18881,-0.12138,-0.066485
281,0.021863,-0.01614,0.016341,-0.035303,0.31192,-0.1256,-0.075255
282,0.046873,-0.016464,0.024786,-0.021986,0.39149,-0.12008,-0.07493
283,0.066037,-0.017114,0.031932,-0.010293,0.4295,-0.10416,-0.068109
284,0.083251,-0.019063,0.030633,-0.0031473,0.43015,-0.086623,-0.055441
285,0.096569,-0.025884,0.019914,0.00075039,0.39604,-0.077528,-0.041475
286,0.10209,-0.038876,0.0017248,0.0033489,0.31451,-0.080776,-0.030431
287,0.090397,-0.056416,-0.018088,0.0062721,0.15893,-0.086948,-0.019388
288,0.053369,-0.071357,-0.031406,0.013093,-0.067784,-0.088572,-0.0099683
289,-0.0089938,-0.07428,-0.031406,0.024137,-0.31204,-0.084674,-0.0050961
290,-0.080776,-0.058365,-0.016789,0.036479,-0.50627,-0.073955,-0.0015233
291,-0.13794,-0.024585,0.0043233,0.049796,-0.60794,-0.063561,0.0065969
292,-0.1636,0.01764,0.024137,0.057267,-0.61021,-0.057065,0.021863
293,-0.15841,0.055643,0.035505,0.056617,-0.53226,-0.056091,0.038753
294,-0.1334,0.072858,0.037454,0.048497,-0.40916,-0.056091,0.050446
295,-0.10156,0.065387,0.028034,0.036479,-0.27599,-0.053817,0.05142
296,-0.071032,0.041351,0.013743,0.023487,-0.16068,-0.049595,0.039078
297,-0.047321,0.010495,-0.0011985,0.012443,-0.080776,-0.046347,0.017316
298,-0.034329,-0.020362,-0.015165,0.0069217,-0.035303,-0.045047,-0.0034721
299,-0.031406,-0.044073,-0.023935,0.011469,-0.015815,-0.044398,-0.013866
300,-0.035303,-0.057715,-0.023935,0.024786,-0.010293,-0.045047,-0.0093186
301,-0.042449,-0.059664,-0.014191,0.041027,-0.010293,-0.046347,0.0036737
302,-0.047321,-0.053492,0.0020496,0.050446,-0.0093186,-0.048296,0.019914
303,-0.046996,-0.045047,0.01829,0.05142,-0.0050961,-0.051219,0.035505
304,-0.043423,-0.042774,0.025111,0.047198,0.0020496,-0.053817,0.048497
305,-0.042449,-0.04862,0.01894,0.042001,0.016016,-0.051868,0.053369
306,-0.044723,-0.065835,0.0056225,0.037454,0.039402,-0.044073,0.044599
307,-0.045372,-0.089871,-0.007045,0.031932,0.070584,-0.035953,0.019264
308,-0.039851,-0.11163,-0.01549,0.025111,0.10599,-0.026858,-0.0080194
309,-0.028157,-0.1217,-0.01549,0.016666,0.14139,-0.01549,-0.023935
310,-0.0083442,-0.10644,-0.0057458,0.008221,0.17485,-0.00022403,-0.018738
311,0.016666,-0.063237,0.011469,0.0056225,0.19693,0.021863,0.003024
312,0.039078,0.00010078,0.030633,0.013418,0.20668,0.044275,0.028359
313,0.052395,0.067661,0.049472,0.027385,0.20603,0.056617,0.048497
314,0.053044,0.12288,0.065062,0.042651,0.19693,0.061165,0.059541
315,0.046873,0.15536,0.073507,0.052395,0.18167,0.064088,0.063763
316,0.0433,0.15958,0.075781,0.054344,0.15893,0.065062,0.064088
317,0.046223,0.14042,0.070909,0.05207,0.1271,0.066362,0.059541
318,0.049796,0.11086,0.058241,0.049796,0.0852,0.06831,0.049147
319,0.05142,0.079679,0.037129,0.044924,0.032906,0.070909,0.036479
320,0.049147,0.054019,0.013093,0.036479,-0.023285,0.070909,0.022837
321,0.042001,0.033881,-0.0093186,0.021863,-0.072006,0.064413,0.0091954
322,0.027385,0.021538,-0.026209,0.011469,-0.10026,0.055318,-0.0028225
323,0.0020496,0.013093,-0.033679,0.0078962,-0.09994,0.048172,-0.0083442
324,-0.028157,0.0033489,-0.031081,0.013093,-0.076229,0.045249,-0.0099683
325,-0.059989,-0.012242,-0.02426,0.018615,-0.044398,0.048822,-0.010293
326,-0.086948,-0.03238,-0.015165,0.019914,-0.012242,0.06084,-0.010293
327,-0.098965,-0.048945,-0.0080194,0.016991,0.020239,0.076431,-0.0080194
328,-0.090845,-0.054792,-0.0063954,0.009845,0.055643,0.090397,-0.0054209
329,-0.063561,-0.047971,-0.0089938,0.0052977,0.10209,0.099492,0.0014
330,-0.025884,-0.034978,-0.01614,0.0039985,0.15926,0.10729,0.0095202
331,0.0075714,-0.02426,-0.020687,0.0072465,0.21967,0.11768,0.016991
332,0.028359,-0.017439,-0.017764,0.013418,0.27781,0.12807,0.024137
333,0.038753,-0.018413,-0.0073698,0.024137,0.32686,0.1349,0.033881
334,0.047847,-0.027833,0.0078962,0.033556,0.36226,0.13555,0.042651
335,0.064413,-0.043748,0.023162,0.038753,0.37006,0.12645,0.04395
336,0.090397,-0.060638,0.033881,0.036804,0.34082,0.10534,0.032906
337,0.11281,-0.073955,0.037129,0.029983,0.27846,0.079029,0.011794
338,0.12483,-0.073955,0.031282,0.01894,0.19141,0.053369,-0.011267
339,0.1232,-0.055116,0.01829,0.0069217,0.096244,0.029658,-0.033679
340,0.10956,-0.022636,0.00010078,-0.0031473,0.015367,0.0023744,-0.052843
341,0.091696,0.011794,-0.018738,-0.013866,-0.038227,-0.028807,-0.066485
342,0.080653,0.036804,-0.033354,-0.023935,-0.067784,-0.05804,-0.071357
343,0.080978,0.045249,-0.038876,-0.03238,-0.083375,-0.077203,-0.061613
344,0.087149,0.037778,-0.035628,-0.035953,-0.10579,-0.086948,-0.042774
345,0.090722,0.019264,-0.024909,-0.034004,-0.17854,-0.095393,-0.022311
346,0.086824,-0.0015233,-0.0083442,-0.02426,-0.34614,-0.10838,-0.0089938
347,0.073182,-0.01614,0.010819,-0.007045,-0.61086,-0.13275,-0.0080194
348,0.050771,-0.021337,0.026735,0.0095202,-0.92657,-0.1701,-0.019388
349,0.01894,-0.016789,0.033231,0.015692,-1.1975,-0.21655,-0.037902
350,-0.018088,-0.0057458,0.028359,0.0078962,-1.3118,-0.26787,-0.058365
351,-0.048945,0.0075714,0.017965,-0.011267,-1.2023,-0.31561,-0.073306
352,-0.06551,0.024461,0.010819,-0.030756,-0.8824,-0.34809,-0.076879
353,-0.06681,0.046223,0.0095202,-0.047321,-0.43579,-0.34939,-0.069083
354,-0.057065,0.071883,0.010819,-0.059664,0.033231,-0.32113,-0.056416
355,-0.042774,0.096893,0.0072465,-0.069083,0.44704,-0.27436,-0.048945
356,-0.029132,0.11086,-0.0044465,-0.072981,0.77022,-0.22207,-0.049595
357,-0.019388,0.10859,-0.020687,-0.070382,0.99499,-0.17172,-0.054142
358,-0.01614,0.085525,-0.041799,-0.062262,1.1213,-0.12495,-0.055116
359,-0.016789,0.04395,-0.064211,-0.052518,1.1564,-0.079802,-0.04927
360,-0.019388,-0.008669,-0.080776,-0.039526,1.1116,-0.035628,-0.03303
361,-0.027183,-0.057065,-0.084349,-0.027183,1.0054,0.0033489,-0.0073698
362,-0.036602,-0.086948,-0.076879,-0.015815,0.86019,0.041351,0.021863
363,-0.041799,-0.093769,-0.064211,-0.0083442,0.69974,0.078379,0.052395
364,-0.039526,-0.079802,-0.048945,-0.00054884,0.53603,0.11378,0.078704
365,-0.029457,-0.048296,-0.029132,0.0059473,0.37525,0.14432,0.092996
366,-0.022636,-0.0044465,-0.0054209,0.016991,0.20993,0.1651,0.092671
367,-0.027183,0.042651,0.020888,0.031282,0.030308,0.17485,0.081303
368,-0.039526,0.083576,0.04395,0.041676,-0.15288,0.17355,0.065062
369,-0.050894,0.10794,0.054668,0.047523,-0.32081,0.1638,0.051096
370,-0.054792,0.11183,0.05272,0.050121,-0.45528,0.14951,0.041027
371,-0.046996,0.097218,0.041351,0.049147,-0.54298,0.13197,0.036804
372,-0.025234,0.070584,0.024137,0.046548,-0.58488,0.10761,0.038103
373,0.0036737,0.040052,0.0056225,0.043625,-0.59495,0.080003,0.040702
374,0.028034,0.015042,-0.0080194,0.040052,-0.57773,0.056942,0.043625
375,0.041027,0.0010752,-0.012567,0.03453,-0.53096,0.042326,0.046873
376,0.044924,-0.0028225,-0.0099683,0.029333,-0.45495,0.038103,0.049472
377,0.045574,0.00075039,-0.0034721,0.026085,-0.35102,0.041676,0.050121
378,0.045574,0.0059473,0.0023744,0.023812,-0.23896,0.046873,0.045574
379,0.042975,0.0095202,0.0072465,0.021213,-0.13989,0.051096,0.03518
380,0.037778,0.010495,0.008221,0.019589,-0.065835,0.055643,0.022188
381,0.033881,0.011144,0.0049729,0.020239,-0.018413,0.062464,0.010819
382,0.037778,0.012443,0.00042559,0.024137,0.0095202,0.070584,0.0023744
383,0.048822,0.012768,-0.0047713,0.029333,0.024461,0.080003,-0.0067202
384,0.06084,0.014392,-0.011267,0.032906,0.030633,0.089423,-0.01484
385,0.066362,0.014068,-0.017439,0.031932,0.028359,0.097218,-0.023285
386,0.064737,0.012443,-0.021661,0.027385,0.026735,0.099492,-0.029782
387,0.062139,0.011144,-0.018738,0.020239,0.032906,0.098517,-0.033354
388,0.059541,0.009845,-0.011592,0.015042,0.045574,0.095919,-0.034004
389,0.057592,0.0085458,-0.0011985,0.014717,0.054019,0.095269,-0.03238
390,0.055968,0.0075714,0.0069217,0.022188,0.056617,0.092671,-0.029132
391,0.056617,0.0078962,0.009845,0.040377,0.051745,0.0865,-0.025559
392,0.057592,0.011144,0.009845,0.062139,0.042975,0.076755,-0.019063
393,0.052395,0.015042,0.0085458,0.080003,0.03453,0.067011,-0.011592
394,0.040377,0.016341,0.0075714,0.088448,0.026085,0.059865,-0.0063954
395,0.024137,0.015042,0.0072465,0.0865,0.01764,0.053369,-0.0037969
396,0.0072465,0.013743,0.0069217,0.07773,0.0072465,0.045249,-0.00087364
397,-0.0076946,0.014717,0.0069217,0.06896,-0.0080194,0.034855,0.0046481
398,-0.019063,0.017316,0.011469,0.063438,-0.023935,0.024786,0.013418
399,-0.024909,0.01829,0.01829,0.062139,-0.040825,0.020564,0.021863
400,-0.024585,0.015042,0.021863,0.063113,-0.062262,0.021538,0.023487
401,-0.024585,0.0091954,0.017965,0.062464,-0.090196,0.019914,0.016991
402,-0.028157,0.0017248,0.0088706,0.059865,-0.1191,0.0095202,0.00075039
403,-0.028807,-0.0031473,0.00042559,0.054344,-0.14184,-0.0060706,-0.020037
404,-0.02426,-0.00022403,-0.00022403,0.05207,-0.14379,-0.019712,-0.039201
405,-0.01614,0.0062721,0.010819,0.055968,-0.11456,-0.026209,-0.047321
406,-0.0063954,0.015367,0.030633,0.065712,-0.059989,-0.025234,-0.040175
407,-0.00087364,0.024461,0.049147,0.076431,0.0036737,-0.02426,-0.02426
408,0.0039985,0.028684,0.057267,0.078379,0.054993,-0.030756,-0.011267
409,0.010495,0.027709,0.048172,0.071234,0.084226,-0.04115,-0.0083442
410,0.01894,0.021538,0.022188,0.05142,0.092346,-0.048296,-0.019712
411,0.026085,0.0056225,-0.01484,0.019264,0.088124,-0.046671,-0.0405
412,0.028359,-0.019063,-0.054142,-0.01614,0.07773,-0.038551,-0.065835
413,0.022512,-0.047646,-0.083375,-0.042124,0.06961,-0.027833,-0.087272
414,0.0062721,-0.073306,-0.095068,-0.055766,0.072858,-0.020687,-0.092794
415,-0.021012,-0.092469,-0.095068,-0.052518,0.091696,-0.017439,-0.080776
416,-0.058365,-0.09994,-0.087597,-0.0405,0.12548,-0.015815,-0.060638
417,-0.097991,-0.097341,-0.075579,-0.026858,0.17322,-0.012242,-0.042449
418,-0.12852,-0.087272,-0.060638,-0.016464,0.23201,-0.011267,-0.03303
419,-0.14736,-0.071357,-0.040175,-0.012892,0.2908,-0.020037,-0.039851
420,-0.15548,-0.04992,-0.017439,-0.018413,0.34375,-0.04115,-0.058689
421,-0.15483,-0.028482,0.00010078,-0.03238,0.38435,-0.066485,-0.082725
422,-0.14801,-0.011917,0.0017248,-0.050569,0.40384,-0.084349,-0.10351
423,-0.13859,-0.0041217,-0.01614,-0.068758,0.39864,-0.09117,-0.11131
424,-0.1256,-0.00054884,-0.045697,-0.0837,0.37525,-0.088572,-0.10449
425,-0.10124,0.0020496,-0.070707,-0.096367,0.34505,-0.076879,-0.084999
426,-0.062262,0.0043233,-0.084024,-0.10838,0.32426,-0.05804,-0.059014
427,-0.017114,0.0069217,-0.084349,-0.12008,0.31939,-0.036927,-0.031081
428,0.023812,0.0072465,-0.07428,-0.12755,0.31354,-0.016789,-0.0063954
429,0.05142,0.0043233,-0.055116,-0.12657,0.28366,-0.00054884,0.012443
430,0.057917,-0.0028225,-0.029457,-0.11683,0.22292,0.012768,0.026735
431,0.040702,-0.010943,-0.0024977,-0.10189,0.15406,0.019589,0.035505
432,0.0036737,-0.014516,0.01764,-0.082076,0.10891,0.017965,0.039402
433,-0.043423,-0.008669,0.029333,-0.060313,0.08585,0.011794,0.037454
434,-0.084024,0.0062721,0.038103,-0.041475,0.037129,0.0046481,0.031932
435,-0.10189,0.030633,0.045574,-0.028482,-0.09929,0.0023744,0.027709
436,-0.088247,0.058891,0.050446,-0.022311,-0.34842,0.0052977,0.029658
437,-0.047321,0.088448,0.050771,-0.016789,-0.6807,0.0078962,0.03518
438,0.0065969,0.11443,0.046873,-0.007045,-1.0341,0.0023744,0.039078
439,0.051096,0.1362,0.039078,0.0065969,-1.3381,-0.0093186,0.038428
440,0.075456,0.15049,0.032906,0.017316,-1.5369,-0.01484,0.037129
441,0.076755,0.15828,0.029983,0.021538,-1.6031,-0.0060706,0.038428
442,0.062139,0.15861,0.029658,0.017316,-1.5336,0.013743,0.045249
443,0.042975,0.14984,0.031282,0.0059473,-1.3414,0.033556,0.053694
444,0.026085,0.1323,0.031932,-0.0073698,-1.0575,0.044599,0.062464
445,0.017316,0.10826,0.024461,-0.018413,-0.72779,0.042975,0.067011
446,0.016016,0.082277,0.014068,-0.022636,-0.40591,0.032906,0.065387
447,0.017316,0.059216,0.010819,-0.020687,-0.1334,0.020564,0.058241
448,0.01829,0.044275,0.018615,-0.01549,0.06961,0.0088706,0.052395
449,0.014068,0.03583,0.03453,-0.0060706,0.20343,-0.0024977,0.05272
450,0.0046481,0.033231,0.047198,0.0065969,0.28496,-0.012567,0.056617
451,-0.0063954,0.030633,0.048497,0.017965,0.3327,-0.023935,0.058891
452,-0.016789,0.024786,0.040052,0.025436,0.34635,-0.035953,0.056292
453,-0.022636,0.016341,0.02641,0.027385,0.32036,-0.050894,0.044924
454,-0.021661,0.0033489,0.011144,0.026735,0.26872,-0.064211,0.029009
455,-0.018413,-0.015815,-0.0021729,0.024461,0.22682,-0.070707,0.014717
456,-0.016789,-0.038551,-0.013216,0.023487,0.22877,-0.065835,0.010819
457,-0.015165,-0.062587,-0.021986,0.026085,0.28171,-0.049595,0.020888
458,-0.0089938,-0.080451,-0.025559,0.031932,0.36389,-0.024585,0.042651
459,0.0059473,-0.082725,-0.021661,0.039078,0.44379,0.0062721,0.062789
460,0.032257,-0.062587,-0.0093186,0.044275,0.48829,0.03518,0.071558
461,0.067336,-0.024585,0.0078962,0.047523,0.48049,0.054993,0.06831
462,0.10177,0.016666,0.025761,0.046548,0.40351,0.066037,0.060515
463,0.12418,0.052395,0.039402,0.042651,0.25345,0.071234,0.051745
464,0.12645,0.076755,0.045899,0.040377,0.037129,0.067986,0.041676
465,0.10729,0.090722,0.047523,0.039402,-0.21102,0.057267,0.034855
466,0.071558,0.093321,0.0433,0.039727,-0.44001,0.040702,0.031282
467,0.025111,0.084226,0.033231,0.038753,-0.59982,0.01829,0.030633
468,-0.018088,0.065387,0.021213,0.033556,-0.66608,-0.011267,0.030308
469,-0.045047,0.040052,0.0091954,0.022837,-0.66088,-0.041475,0.033556
470,-0.049595,0.012443,0.00010078,0.013743,-0.62548,-0.072006,0.039402
471,-0.032705,-0.012567,-0.0041217,0.0085458,-0.57936,-0.10026,0.044924
472,-0.0011985,-0.032705,-0.0054209,0.012119,-0.5105,-0.12722,0.046548
473,0.032257,-0.042449,-0.0034721,0.023487,-0.39811,-0.15808,0.041027
474,0.057917,-0.039201,0.0010752,0.040052,-0.23961,-0.18991,0.028359
475,0.068635,-0.022636,0.0033489,0.055318,-0.04992,-0.212,0.011469
476,0.062139,0.0043233,0.0033489,0.067011,0.14821,-0.21297,-0.0021729
477,0.046873,0.031932,0.0036737,0.073832,0.32556,-0.19738,-0.0067202
478,0.037454,0.053694,0.0091954,0.074482,0.4584,-0.17789,-0.0028225
479,0.040052,0.066037,0.016666,0.071558,0.53603,-0.16198,0.0078962
480,0.054668,0.071883,0.021538,0.063763,0.56299,-0.14834,0.016991
481,0.072858,0.074157,0.019264,0.051745,0.56202,-0.13794,0.024786
482,0.086175,0.074806,0.011469,0.038753,0.55455,-0.13599,0.031932
483,0.090072,0.072533,0.00075039,0.024461,0.55877,-0.14736,0.034855
484,0.084551,0.065062,-0.011267,0.012119,0.57079,-0.17367,0.032257
485,0.075456,0.05207,-0.02426,0.0049729,0.56819,-0.20648,0.025111
486,0.065062,0.033231,-0.033354,0.0085458,0.52174,-0.23506,0.021213
487,0.056942,0.012443,-0.032705,0.020239,0.4243,-0.25487,0.019264
488,0.05142,-0.0054209,-0.023935,0.033881,0.29697,-0.26299,0.020564
489,0.047198,-0.016464,-0.011917,0.042001,0.17322,-0.25747,0.023487
490,0.042326,-0.019388,-0.0031473,0.045249,0.083251,-0.23733,0.028034
491,0.03583,-0.01614,0.0039985,0.049147,0.042326,-0.20518,0.029983
492,0.027709,-0.011917,0.0095202,0.054019,0.045574,-0.16977,0.028359
493,0.01894,-0.0076946,0.015692,0.058241,0.071558,-0.13729,0.021538
494,0.0085458,-0.0044465,0.021538,0.058566,0.096569,-0.10968,0.012768
495,-0.00054884,-0.0031473,0.023162,0.054668,0.10891,-0.0837,0.0062721
496,-0.0054209,-0.0028225,0.019589,0.045574,0.10794,-0.059339,0.0052977
497,-0.0057458,-0.0054209,0.01017,0.031932,0.095594,-0.037902,0.011794
498,0.00042559,-0.011267,0.00075039,0.016666,0.072533,-0.016789,0.022837
499,0.015367,-0.019712,-0.0028225,0.0020496,0.034855,0.0062721,0.03518
500,0.029658,-0.030106,-0.0054209,-0.010943,-0.01484,0.030308,0.042326
501,0.038428,-0.038551,-0.010618,-0.020037,-0.072656,0.051745,0.041027
502,0.036479,-0.042774,-0.018738,-0.022636,-0.1269,0.067661,0.032906
503,0.02641,-0.042124,-0.022311,-0.018738,-0.1649,0.07708,0.021863
504,0.010819,-0.039851,-0.022636,-0.013541,-0.17692,0.080003,0.014392
505,-0.0099683,-0.036927,-0.022636,-0.0089938,-0.14801,0.07773,0.010495
506,-0.037252,-0.03173,-0.021012,-0.0060706,-0.059664,0.075131,0.012768
507,-0.061613,-0.024585,-0.015165,-0.00087364,0.081627,0.076755,0.019914
508,-0.071357,-0.017764,-0.011592,0.008221,0.23818,0.083901,0.030308
509,-0.061288,-0.017439,-0.013216,0.022188,0.36713,0.092671,0.040052
510,-0.038876,-0.025234,-0.021012,0.036804,0.44281,0.096893,0.044275
511,-0.01614,-0.038227,-0.030106,0.045574,0.45548,0.095269,0.039727
512,-0.0011985,-0.051544,-0.034004,0.046873,0.41845,0.092021,0.028684
513,0.0033489,-0.058365,-0.031081,0.041351,0.35349,0.09462,0.016991
514,-0.0063954,-0.058689,-0.021012,0.038103,0.28333,0.10729,0.017316
515,-0.027508,-0.052843,-0.0044465,0.041351,0.22747,0.12937,0.031607
516,-0.055441,-0.043748,0.015367,0.045899,0.19141,0.15373,0.049472
517,-0.080776,-0.031081,0.032906,0.044275,0.16835,0.1742,0.063763
518,-0.095717,-0.015165,0.0433,0.035505,0.14951,0.18687,0.06896
519,-0.092794,0.003024,0.048172,0.024786,0.13132,0.18751,0.066362
520,-0.069083,0.01764,0.045249,0.018615,0.11411,0.18199,0.055318
521,-0.03238,0.023487,0.039402,0.018615,0.095594,0.17257,0.038428
522,0.0052977,0.023162,0.034855,0.024137,0.07773,0.16218,0.021213
523,0.031607,0.021863,0.031932,0.031282,0.059216,0.15081,0.0088706
524,0.045249,0.023812,0.030308,0.038103,0.040052,0.13977,0.0059473
525,0.054019,0.029983,0.031282,0.042651,0.022188,0.13197,0.013093
526,0.062789,0.036804,0.03583,0.045249,0.009845,0.12678,0.022837
527,0.06961,0.039078,0.039078,0.040377,-0.0021729,0.1219,0.026735
528,0.067661,0.03583,0.036804,0.02706,-0.014516,0.11671,0.019589
529,0.059216,0.028684,0.030633,0.011794,-0.024909,0.11671,0.0085458
530,0.050771,0.020564,0.020888,0.0046481,-0.030756,0.12093,0.0033489
531,0.042326,0.011794,0.0085458,0.0072465,-0.028482,0.13035,0.0078962
532,0.036154,0.0023744,-0.0011985,0.014392,-0.017114,0.14204,0.020239
533,0.031607,-0.0060706,-0.0060706,0.023162,0.0014,0.15309,0.03453
534,0.025436,-0.010618,-0.0021729,0.033231,0.025111,0.1625,0.042975
535,0.019589,-0.0080194,0.010819,0.04395,0.049796,0.16803,0.0433
536,0.01894,-0.0018481,0.023812,0.050446,0.073182,0.16705,0.03453
537,0.023812,0.0020496,0.032582,0.050121,0.083576,0.16023,0.021538
538,0.033556,0.0069217,0.033556,0.042651,0.068635,0.14984,0.0049729
539,0.045249,0.014068,0.025436,0.032906,0.027385,0.13652,-0.013541
540,0.049796,0.023162,0.0072465,0.021213,-0.034978,0.12483,-0.029782
541,0.046223,0.031607,-0.015165,0.010495,-0.10676,0.11476,-0.039851
542,0.033231,0.039727,-0.029132,0.00010078,-0.17075,0.10664,-0.039526
543,0.0095202,0.044275,-0.026533,-0.0073698,-0.21102,0.10306,-0.03303
544,-0.025559,0.042975,-0.013866,-0.012242,-0.21979,0.099817,-0.027183
545,-0.071032,0.031932,-0.0024977,-0.011917,-0.20615,0.096893,-0.02426
546,-0.11488,0.010819,-0.0011985,-0.007045,-0.18342,0.091047,-0.027183
547,-0.14801,-0.018738,-0.0073698,0.00042559,-0.15711,0.084226,-0.035303
548,-0.16133,-0.052843,-0.016464,0.0065969,-0.12495,0.079679,-0.045697
549,-0.15451,-0.088572,-0.02361,0.0091954,-0.084349,0.078379,-0.052843
550,-0.13794,-0.1217,-0.028157,0.01017,-0.038227,0.080653,-0.04862
551,-0.11878,-0.14801,-0.028482,0.011144,0.012443,0.080653,-0.034004
552,-0.097017,-0.16718,-0.026209,0.014068,0.064088,0.080653,-0.017439
553,-0.073631,-0.17854,-0.027508,0.015042,0.10631,0.078704,-0.0041217
554,-0.046347,-0.17757,-0.038876,0.008221,0.1206,0.072533,0.00075039
555,-0.014516,-0.15873,-0.056416,-0.007045,0.089423,0.058566,-0.0076946
556,0.021538,-0.12138,-0.073955,-0.027508,-0.0028225,0.032257,-0.03173
557,0.050446,-0.067134,-0.084349,-0.047646,-0.17107,-0.008669,-0.065186
558,0.057267,-0.0080194,-0.081101,-0.062262,-0.41825,-0.057065,-0.097341
559,0.03583,0.045249,-0.066485,-0.071682,-0.69986,-0.10449,-0.11943
560,-0.00054884,0.086175,-0.047321,-0.07428,-0.93729,-0.14314,-0.1295
561,-0.02361,0.12028,-0.026533,-0.072006,-1.0481,-0.17172,-0.12495
562,-0.014191,0.15471,-0.0057458,-0.068434,-0.98926,-0.19154,-0.11001
563,0.033231,0.19271,0.013743,-0.064211,-0.78983,-0.20096,-0.087922
564,0.10761,0.22682,0.029658,-0.059014,-0.52934,-0.19836,-0.061937
565,0.18751,0.24793,0.038428,-0.04992,-0.28411,-0.18926,-0.036602
566,0.24825,0.24143,0.037129,-0.04115,-0.096042,-0.17984,-0.019063
567,0.27684,0.20798,0.026085,-0.038551,0.033231,-0.1753,-0.01614
568,0.26644,0.15633,0.0088706,-0.042449,0.12645,-0.17659,-0.022961
569,0.22259,0.098517,-0.0073698,-0.04992,0.19856,-0.18407,-0.032055
570,0.16023,0.048172,-0.019063,-0.054467,0.25702,-0.19154,-0.036602
571,0.095269,0.011794,-0.025559,-0.051219,0.29957,-0.19478,-0.039201
572,0.040052,-0.011592,-0.027183,-0.038876,0.31971,-0.19219,-0.039526
573,0.00075039,-0.025234,-0.023285,-0.023285,0.30964,-0.18017,-0.041475
574,-0.020362,-0.030756,-0.01484,-0.010618,0.26937,-0.15873,-0.043423
575,-0.026858,-0.031406,-0.0073698,-0.0028225,0.20993,-0.1334,-0.045372
576,-0.025884,-0.027833,-0.0034721,0.0010752,0.14659,-0.11196,-0.047321
577,-0.026209,-0.020687,-0.00054884,0.0033489,0.092996,-0.09994,-0.050244
578,-0.031081,-0.011267,0.0026992,0.0033489,0.054019,-0.090521,-0.054142
579,-0.040175,-0.0028225,0.0075714,-0.0031473,0.02641,-0.081751,-0.060963
580,-0.046347,0.0014,0.011469,-0.013866,-0.0067202,-0.073306,-0.065835
581,-0.048296,-0.00087364,0.012119,-0.023935,-0.06616,-0.065835,-0.063561
582,-0.047971,-0.0089938,0.0072465,-0.027183,-0.16165,-0.059339,-0.050894
583,-0.047646,-0.020362,0.0023744,-0.02361,-0.28411,-0.054467,-0.030756
584,-0.046996,-0.028157,-0.0031473,-0.013866,-0.40786,-0.050569,-0.011592
585,-0.045697,-0.025884,-0.0076946,-0.007045,-0.50757,-0.047971,0.0010752
586,-0.046671,-0.01614,-0.010943,-0.0050961,-0.56604,-0.044398,0.0075714
587,-0.054142,-0.0037969,-0.011917,-0.0080194,-0.57741,-0.038227,0.01017
588,-0.071357,0.0039985,-0.0096434,-0.0099683,-0.555,-0.026858,0.011469
589,-0.093444,0.0069217,-0.0031473,-0.007045,-0.51374,-0.014191,0.012119
590,-0.11553,0.0065969,0.008221,-0.0011985,-0.45138,-0.0063954,0.011794
591,-0.13404,0.0056225,0.021863,0.0085458,-0.34322,-0.0011985,0.013093
592,-0.14866,0.0072465,0.034206,0.019264,-0.16523,-0.0011985,0.016991
593,-0.15873,0.008221,0.040052,0.026735,0.076106,-0.0073698,0.020888
594,-0.16198,0.0039985,0.037454,0.027709,0.347,-0.01484,0.021538
595,-0.15256,-0.0076946,0.031282,0.025436,0.5958,-0.014516,0.016666
596,-0.123,-0.022636,0.026735,0.022188,0.76957,-0.007045,0.0062721
597,-0.077528,-0.035628,0.029333,0.020564,0.83096,0.0069217,0.00075039
598,-0.026533,-0.047321,0.037778,0.024786,0.76989,0.021863,0.0026992
599,0.023162,-0.05739,0.042975,0.034855,0.60522,0.036479,0.013418
600,0.067011,-0.063237,0.042651,0.047523,0.37168,0.050771,0.026735
601,0.094295,-0.059989,0.038428,0.055318,0.11248,0.060515,0.032906
602,0.095269,-0.050569,0.032582,0.054344,-0.14184,0.061814,0.031282
603,0.074157,-0.037252,0.025761,0.043625,-0.37375,0.054344,0.022837
604,0.039727,-0.024909,0.019264,0.027385,-0.58163,0.038103,0.012443
605,0.0062721,-0.013866,0.014717,0.013743,-0.76352,0.017965,0.0033489
606,-0.017439,-0.0093186,0.0091954,0.0043233,-0.92203,0.00010078,-0.0031473
607,-0.026858,-0.010618,-0.0011985,-0.0041217,-1.0461,-0.014191,-0.0096434
608,-0.029782,-0.016789,-0.019388,-0.016789,-1.1068,-0.028157,-0.014516
609,-0.034004,-0.024909,-0.039526,-0.031406,-1.0695,-0.043099,-0.014191
610,-0.046022,-0.037252,-0.057065,-0.045372,-0.923,-0.058689,-0.0096434
611,-0.063237,-0.052843,-0.068434,-0.059014,-0.68037,-0.073631,-0.0028225
612,-0.077203,-0.062912,-0.06681,-0.071357,-0.38025,-0.090845,0.0023744
613,-0.077203,-0.062912,-0.054792,-0.072331,-0.080776,-0.10676,0.0026992
614,-0.058365,-0.050244,-0.036927,-0.063237,0.16023,-0.11813,0.0020496
615,-0.024585,-0.03238,-0.018738,-0.04862,0.30867,-0.11683,0.0033489
616,0.016341,-0.014191,-0.0057458,-0.030106,0.36324,-0.10254,0.0088706
617,0.051745,0.0017248,0.00042559,-0.012242,0.35544,-0.081751,0.015692
618,0.070584,0.016666,0.00042559,0.0017248,0.32231,-0.060963,0.025436
619,0.066362,0.030308,-0.0031473,0.012443,0.29308,-0.04115,0.037778
620,0.039727,0.04395,-0.0037969,0.022188,0.28431,-0.024585,0.047198
621,0.0017248,0.054993,0.00010078,0.033231,0.30347,-0.012892,0.05272
622,-0.03173,0.061814,0.0065969,0.044599,0.34407,-0.0047713,0.054344
623,-0.054792,0.063113,0.013743,0.05142,0.39604,-0.0031473,0.056292
624,-0.06616,0.058891,0.019264,0.05142,0.44509,-0.0028225,0.055643
625,-0.072656,0.048822,0.022188,0.044599,0.47789,-0.0034721,0.051745
626,-0.076879,0.037454,0.022837,0.034855,0.48796,-0.0057458,0.047198
627,-0.077853,0.028684,0.023162,0.026085,0.48244,-0.0067202,0.040702
628,-0.074605,0.022837,0.019914,0.022837,0.4688,-0.0054209,0.026085
629,-0.068434,0.019264,0.013743,0.02706,0.45386,-0.0018481,0.008221
630,-0.059339,0.015367,0.00075039,0.037454,0.43924,0.0036737,-0.0041217
631,-0.045372,0.010819,-0.012567,0.049147,0.42397,0.0091954,-0.0021729
632,-0.022636,0.012443,-0.018413,0.060515,0.40481,0.01894,0.011144
633,0.01017,0.018615,-0.015165,0.06896,0.37948,0.030957,0.033881
634,0.047198,0.028034,-0.0096434,0.070909,0.3431,0.041351,0.058891
635,0.079029,0.038428,-0.0067202,0.067011,0.29957,0.051745,0.080003
636,0.10242,0.048822,-0.0080194,0.059216,0.2554,0.066686,0.092346
637,0.11216,0.057267,-0.010943,0.054668,0.21642,0.084876,0.094945
638,0.10826,0.063763,-0.0089938,0.055968,0.18524,0.10014,0.08585
639,0.096244,0.070259,-0.0018481,0.063438,0.16478,0.10696,0.066686
640,0.080328,0.075781,0.0069217,0.072208,0.14919,0.10469,0.037129
641,0.066037,0.075781,0.011144,0.080328,0.1297,0.095594,0.00042559
642,0.050446,0.065062,0.010495,0.083901,0.10209,0.084551,-0.034004
643,0.027709,0.045899,0.010495,0.080003,0.070909,0.074806,-0.053168
644,-0.0050961,0.025436,0.015367,0.071883,0.044924,0.069285,-0.050894
645,-0.043748,0.011794,0.026085,0.062464,0.030308,0.06831,-0.031406
646,-0.078503,0.0085458,0.038103,0.055643,0.026735,0.073507,-0.0060706
647,-0.098316,0.016991,0.048822,0.050446,0.027709,0.083251,0.013418
648,-0.097666,0.03453,0.055968,0.047198,0.023162,0.093321,0.023162
649,-0.077528,0.055643,0.061489,0.051745,0.0069217,0.096244,0.023487
650,-0.044073,0.075781,0.064088,0.061814,-0.018413,0.091696,0.023162
651,-0.0028225,0.090397,0.062464,0.070584,-0.047646,0.082277,0.027709
652,0.038753,0.093321,0.056292,0.070259,-0.072656,0.068635,0.033881
653,0.073182,0.083901,0.042975,0.056292,-0.080127,0.049147,0.032582
654,0.090722,0.065062,0.021863,0.032582,-0.064861,0.023487,0.019589
655,0.091047,0.042651,-0.0021729,0.0069217,-0.031406,-0.0083442,-0.0031473
656,0.080328,0.020888,-0.019063,-0.013866,0.0088706,-0.039526,-0.025884
657,0.065712,0.0014,-0.022961,-0.023935,0.044924,-0.060638,-0.039526
658,0.05272,-0.013866,-0.017439,-0.02361,0.064413,-0.064536,-0.038876
659,0.047847,-0.02361,-0.0063954,-0.013216,0.061165,-0.054467,-0.022961
660,0.051096,-0.027508,0.01017,0.0017248,0.036479,-0.037252,0.0023744
661,0.055643,-0.025234,0.023162,0.014717,-0.0031473,-0.020362,0.02706
662,0.057592,-0.01614,0.028359,0.021538,-0.053168,-0.0099683,0.040052
663,0.053694,-0.0037969,0.025111,0.019914,-0.10416,-0.007045,0.040377
664,0.043625,0.0059473,0.01829,0.01017,-0.14411,-0.0089938,0.032906
665,0.02706,0.0091954,0.010495,-0.0037969,-0.16133,-0.014516,0.023162
666,0.0059473,0.0046481,0.0043233,-0.016464,-0.15256,-0.022961,0.013093
667,-0.017439,-0.0031473,0.00010078,-0.023285,-0.12235,-0.030431,0.0069217
668,-0.039851,-0.008669,-0.0034721,-0.022311,-0.082076,-0.033354,0.0056225
669,-0.05804,-0.0089938,-0.0067202,-0.017114,-0.045047,-0.029782,0.009845
670,-0.067459,-0.0034721,-0.0057458,-0.010943,-0.015165,-0.021337,0.016016
671,-0.063561,0.0026992,0.00042559,-0.0047713,0.0095202,-0.013541,0.025761
672,-0.044398,0.0069217,0.0095202,0.0020496,0.038428,-0.011917,0.039078
673,-0.017114,0.0039985,0.013093,0.008221,0.071883,-0.01484,0.054668
674,0.0075714,-0.0063954,0.0072465,0.013093,0.10469,-0.016789,0.067986
675,0.024137,-0.018088,-0.007045,0.016991,0.131,-0.013541,0.076431
676,0.035505,-0.028157,-0.023285,0.021863,0.14367,-0.0063954,0.080003
677,0.042975,-0.031081,-0.036602,0.024786,0.14464,0.0014,0.076431
678,0.049796,-0.028482,-0.045697,0.021213,0.13847,0.0078962,0.066686
679,0.053044,-0.021012,-0.048945,0.016016,0.12288,0.012119,0.057267
680,0.049472,-0.013866,-0.046347,0.013093,0.09397,0.014068,0.049796
681,0.039078,-0.0093186,-0.042774,0.016341,0.05272,0.010495,0.043625
682,0.023812,-0.0083442,-0.040175,0.024786,0.0062721,0.0017248,0.037778
683,0.0046481,-0.0057458,-0.032705,0.037454,-0.035628,-0.0093186,0.028359
684,-0.020362,-0.0028225,-0.015165,0.050121,-0.069408,-0.020362,0.016666
685,-0.04862,-0.0021729,0.0085458,0.058566,-0.091495,-0.025234,0.008221
686,-0.07428,-0.0099683,0.029333,0.067011,-0.10676,-0.022961,0.010495
687,-0.093444,-0.029132,0.041676,0.078055,-0.11975,-0.014191,0.026085
688,-0.10319,-0.056741,0.0433,0.084551,-0.13145,-0.0021729,0.046873
689,-0.094093,-0.076554,0.033881,0.083251,-0.13892,0.0078962,0.063113
690,-0.06551,-0.075579,0.017316,0.075131,-0.14119,0.009845,0.065387
691,-0.021012,-0.047646,0.0026992,0.064737,-0.13599,0.0026992,0.053694
692,0.027385,-0.0011985,-0.0044465,0.056617,-0.1269,-0.013216,0.031282
693,0.06831,0.042651,-0.0047713,0.049472,-0.12787,-0.031081,0.0072465
694,0.092996,0.062464,-0.0024977,0.040377,-0.16912,-0.047646,-0.015165
695,0.10534,0.05207,-0.0028225,0.028359,-0.25845,-0.058365,-0.025559
696,0.11313,0.020239,-0.008669,0.016341,-0.36238,-0.062262,-0.019388
697,0.12613,-0.018413,-0.020037,0.0069217,-0.43157,-0.061613,-0.0044465
698,0.14919,-0.052843,-0.032705,-0.00054884,-0.42832,-0.058689,0.0091954
699,0.18297,-0.071357,-0.040825,-0.0041217,-0.34322,-0.053168,0.015692
700,0.22097,-0.06551,-0.040825,-0.0044465,-0.20355,-0.04927,0.008221
701,0.24501,-0.033354,-0.03303,-0.0063954,-0.051544,-0.053168,-0.0099683
702,0.23429,0.01764,-0.020037,-0.015165,0.072858,-0.063886,-0.030756
703,0.18167,0.070259,-0.00054884,-0.027183,0.15244,-0.070382,-0.046022
704,0.097868,0.10891,0.019264,-0.042124,0.18622,-0.068434,-0.048945
705,0.003024,0.1271,0.029983,-0.056416,0.18914,-0.054142,-0.040175
706,-0.076554,0.12807,0.028359,-0.064861,0.18524,-0.028157,-0.027833
707,-0.12333,0.11866,0.018615,-0.062912,0.18687,0.0049729,-0.016464
708,-0.13372,0.10566,0.0095202,-0.04927,0.19401,0.038753,-0.0057458
709,-0.11586,0.09397,0.0056225,-0.031406,0.19986,0.064413,0.0049729
710,-0.082725,0.083576,0.0062721,-0.015815,0.20213,0.081303,0.014717
711,-0.048945,0.067336,0.0095202,-0.0073698,0.19434,0.093321,0.022512
712,-0.019712,0.04395,0.009845,-0.0067202,0.1651,0.10534,0.026085
713,0.0062721,0.015367,0.0020496,-0.017439,0.10761,0.11638,0.025111
714,0.028359,-0.0083442,-0.014191,-0.035953,0.020564,0.1232,0.022837
715,0.046548,-0.014191,-0.035628,-0.057715,-0.087272,0.12028,0.019264
716,0.067011,0.0059473,-0.054467,-0.078503,-0.2042,0.10794,0.015367
717,0.093645,0.047847,-0.063237,-0.090845,-0.31789,0.083576,0.0085458
718,0.11995,0.10079,-0.055766,-0.094743,-0.428,0.05207,-0.00054884
719,0.13392,0.14821,-0.034004,-0.088896,-0.53908,0.017316,-0.007045
720,0.12937,0.17907,-0.0054209,-0.072981,-0.65634,-0.017764,-0.0041217
721,0.10436,0.18719,0.024461,-0.053492,-0.76839,-0.053817,0.0033489
722,0.065712,0.17647,0.045899,-0.035628,-0.8457,-0.093444,0.011144
723,0.019914,0.14919,0.055643,-0.019712,-0.85187,-0.12982,0.011794
724,-0.02361,0.10859,0.053694,-0.0044465,-0.76287,-0.15808,0.003024
725,-0.05804,0.066037,0.044924,0.0078962,-0.58065,-0.17237,-0.010618
726,-0.078503,0.030633,0.031282,0.014068,-0.3312,-0.17627,-0.023285
727,-0.086298,0.011794,0.016016,0.013418,-0.063237,-0.17562,-0.030756
728,-0.0824,0.0088706,-0.0034721,0.0049729,0.15601,-0.17627,-0.035628
729,-0.072981,0.017965,-0.02426,-0.0096434,0.27196,-0.18017,-0.0405
730,-0.060963,0.028684,-0.039526,-0.028157,0.28301,-0.19024,-0.044398
731,-0.049595,0.031932,-0.050244,-0.048945,0.23559,-0.2029,-0.046347
732,-0.040825,0.022512,-0.061613,-0.06616,0.20408,-0.21492,-0.050894
733,-0.039526,0.0052977,-0.07493,-0.072981,0.24501,-0.21979,-0.060963
734,-0.040825,-0.012892,-0.0837,-0.064861,0.36973,-0.21005,-0.073955
735,-0.046347,-0.025559,-0.080776,-0.044073,0.53896,-0.18439,-0.086298
736,-0.055116,-0.031081,-0.063886,-0.015165,0.69551,-0.14801,-0.094418
737,-0.064211,-0.030756,-0.043748,0.014068,0.78971,-0.10709,-0.095717
738,-0.072656,-0.028807,-0.028807,0.039402,0.79588,-0.06551,-0.090845
739,-0.077853,-0.03238,-0.022636,0.054993,0.71955,-0.026858,-0.081751
740,-0.077853,-0.049595,-0.019712,0.056617,0.59547,0.003024,-0.070707
741,-0.075579,-0.077203,-0.020687,0.042651,0.46717,0.021538,-0.059664
742,-0.070058,-0.10871,-0.02426,0.01829,0.36778,0.032257,-0.048945
743,-0.058689,-0.13112,-0.026209,-0.0060706,0.30867,0.036804,-0.042449
744,-0.040175,-0.13794,-0.024585,-0.025884,0.28301,0.038428,-0.043423
745,-0.017439,-0.13275,-0.019388,-0.042449,0.26644,0.039078,-0.047646
746,0.003024,-0.12592,-0.016789,-0.05804,0.23754,0.038103,-0.053817
747,0.009845,-0.12398,-0.020362,-0.073955,0.19336,0.03583,-0.062587
748,-0.0011985,-0.12885,-0.028807,-0.086948,0.14367,0.029333,-0.070058
749,-0.023285,-0.13112,-0.037252,-0.093769,0.099492,0.021213,-0.076229
750,-0.035303,-0.12722,-0.039201,-0.089871,0.063113,0.014068,-0.077853
751,-0.017764,-0.11813,-0.033354,-0.073306,0.021863,0.010819,-0.073955
752,0.031607,-0.10319,-0.018088,-0.04927,-0.045372,0.015042,-0.066485
753,0.094295,-0.080776,-0.0015233,-0.021012,-0.15678,0.026735,-0.05739
754,0.14139,-0.053168,0.013418,0.0043233,-0.30749,0.043625,-0.050569
755,0.14984,-0.022636,0.023487,0.021213,-0.4608,0.064088,-0.040175
756,0.11963,0.0059473,0.031607,0.030957,-0.56539,0.083901,-0.021661
757,0.071883,0.024786,0.037129,0.039402,-0.58715,0.10079,0.0052977
758,0.023162,0.028359,0.034855,0.051096,-0.52771,0.10956,0.03583
759,-0.01614,0.015367,0.023162,0.069934,-0.4228,0.10599,0.059541
760,-0.045047,-0.0044465,0.0065969,0.089098,-0.31691,0.090722,0.071558
761,-0.068758,-0.023935,-0.0054209,0.10144,-0.24221,0.06896,0.068635
762,-0.089871,-0.035303,-0.0076946,0.10469,-0.21297,0.046548,0.051745
763,-0.11163,-0.038227,-0.0021729,0.10209,-0.23279,0.023812,0.030633
764,-0.1308,-0.030106,0.011794,0.096244,-0.29385,0.003024,0.015042
765,-0.14671,-0.017764,0.028034,0.0852,-0.37083,-0.013541,0.0069217
766,-0.15808,-0.0073698,0.041676,0.070909,-0.42702,-0.026533,0.0039985
767,-0.16328,-0.0015233,0.051096,0.055318,-0.43417,-0.037252,0.0039985
768,-0.15873,0.0017248,0.054019,0.041676,-0.38057,-0.050569,0.0059473
769,-0.14314,0.0023744,0.048497,0.031282,-0.27728,-0.059989,0.01017
770,-0.11326,0.0059473,0.040377,0.025436,-0.15516,-0.062912,0.014392
771,-0.063561,0.01829,0.030957,0.025436,-0.051219,-0.056416,0.01894
772,-0.00054884,0.039402,0.021863,0.028684,0.0046481,-0.039201,0.023162
773,0.057592,0.067336,0.011469,0.032257,0.0085458,-0.01484,0.029983
774,0.092996,0.092996,0.0052977,0.03453,-0.021337,0.01017,0.036479
775,0.10144,0.10989,0.010495,0.041027,-0.052843,0.032257,0.041351
776,0.089748,0.11378,0.025111,0.051096,-0.066485,0.049472,0.042651
777,0.072533,0.10469,0.045574,0.061489,-0.046996,0.061165,0.039402
778,0.058566,0.086824,0.063438,0.067336,0.0059473,0.069285,0.037778
779,0.054344,0.067011,0.071883,0.065062,0.082602,0.074806,0.040052
780,0.062789,0.048497,0.070584,0.059541,0.16608,0.080978,0.044599
781,0.078055,0.032582,0.061489,0.056942,0.24078,0.087149,0.048497
782,0.091372,0.020564,0.049796,0.058891,0.2986,0.092996,0.052395
783,0.096244,0.010495,0.039402,0.062789,0.32816,0.094945,0.051745
784,0.089748,0.00010078,0.030957,0.062139,0.32458,0.091372,0.046873
785,0.070259,-0.012242,0.024461,0.053044,0.29015,0.083901,0.039078
786,0.045574,-0.025234,0.020239,0.041027,0.23948,0.076755,0.032582
787,0.021538,-0.034329,0.017965,0.031932,0.18427,0.071558,0.029333
788,-0.00087364,-0.037252,0.014392,0.024461,0.11866,0.070909,0.031932
789,-0.018088,-0.036927,0.010495,0.020239,0.024461,0.072858,0.037454
790,-0.025884,-0.033354,0.0072465,0.01894,-0.10189,0.073507,0.043625
791,-0.022961,-0.029782,0.0056225,0.019589,-0.23474,0.06831,0.048497
792,-0.012567,-0.028157,0.0059473,0.024137,-0.3403,0.063438,0.051096
793,0.0056225,-0.029457,0.0072465,0.032582,-0.38837,0.058241,0.05272
794,0.032257,-0.034654,0.0085458,0.041027,-0.37083,0.050446,0.05272
795,0.062789,-0.041799,0.008221,0.047847,-0.30359,0.037454,0.05142
796,0.084551,-0.045047,0.0059473,0.050121,-0.212,0.023812,0.048172
797,0.09397,-0.036602,0.0017248,0.05272,-0.12365,0.013743,0.042651
798,0.095594,-0.01484,-0.0018481,0.055643,-0.054792,0.010495,0.037129
799,0.09462,0.018615,-0.0037969,0.057267,-0.0050961,0.016666,0.034206
800,0.089748,0.056942,-0.0034721,0.054993,0.030957,0.028034,0.032257
801,0.079354,0.088448,-0.0057458,0.050446,0.059865,0.038753,0.02706
802,0.066362,0.10436,-0.0060706,0.04395,0.0852,0.041351,0.021538
803,0.054668,0.10274,-0.0041217,0.038428,0.11378,0.037778,0.018615
804,0.042326,0.086175,-0.0028225,0.033881,0.15341,0.033231,0.020888
805,0.030957,0.059865,-0.0024977,0.033881,0.21415,0.030957,0.029009
806,0.023162,0.029983,0.0010752,0.036804,0.2999,0.030957,0.037778
807,0.022188,0.0056225,0.0065969,0.041027,0.39409,0.033231,0.047198
808,0.029009,-0.0076946,0.014068,0.044599,0.47399,0.039402,0.055968
809,0.040702,-0.0083442,0.019914,0.046873,0.52499,0.047198,0.064088
810,0.054019,0.00010078,0.023162,0.045899,0.5422,0.054344,0.066037
811,0.06019,0.017316,0.026735,0.040377,0.53246,0.058566,0.058891
812,0.049796,0.036154,0.029983,0.031607,0.5042,0.059541,0.045249
813,0.017965,0.048822,0.030633,0.022837,0.46165,0.059865,0.029009
814,-0.026533,0.049796,0.029333,0.01764,0.40903,0.061814,0.014392
815,-0.071032,0.038753,0.025436,0.014392,0.35512,0.061489,0.0072465
816,-0.10936,0.019589,0.020888,0.014392,0.30769,0.055318,0.0023744
817,-0.14054,-0.0018481,0.014392,0.015367,0.27294,0.042326,-0.0028225
818,-0.16523,-0.021012,0.0085458,0.015042,0.25085,0.023487,-0.019063
819,-0.18439,-0.035628,0.003024,0.013418,0.23039,0.003024,-0.044723
820,-0.19706,-0.040825,0.00010078,0.0075714,0.2083,-0.016464,-0.071032
821,-0.20063,-0.037577,0.00075039,-0.0041217,0.18784,-0.033354,-0.086298
822,-0.19576,-0.032705,0.0049729,-0.018413,0.17355,-0.045697,-0.088247
823,-0.19316,-0.035303,0.0065969,-0.030431,0.16835,-0.050244,-0.077853
824,-0.19283,-0.053492,-0.00087364,-0.040175,0.16673,-0.04862,-0.059014
825,-0.18829,-0.086298,-0.019063,-0.049595,0.16153,-0.043099,-0.035628
826,-0.1675,-0.12527,-0.043748,-0.059339,0.15244,-0.032705,-0.011592
827,-0.12138,-0.15646,-0.067784,-0.067784,0.14204,-0.019388,0.011469
828,-0.056091,-0.16685,-0.081426,-0.069408,0.13067,-0.0047713,0.030633
829,0.018615,-0.15256,-0.081751,-0.060963,0.10826,0.0052977,0.043625
830,0.093321,-0.11456,-0.067459,-0.043099,0.065712,0.0091954,0.05142
831,0.16121,-0.058365,-0.043423,-0.021012,-0.008669,0.009845,0.051745
832,0.21123,0.0062721,-0.014516,0.00075039,-0.12495,0.010495,0.049796
833,0.23721,0.061489,0.011469,0.019589,-0.28248,0.011794,0.048822
834,0.23624,0.091047,0.029333,0.029983,-0.4699,0.010819,0.053369
835,0.21188,0.091696,0.034206,0.02706,-0.65666,0.0039985,0.064088
836,0.16998,0.073182,0.023812,0.011144,-0.80997,-0.0067202,0.075456
837,0.11508,0.046548,0.0049729,-0.012567,-0.90092,-0.017114,0.080978
838,0.056292,0.022837,-0.014191,-0.034329,-0.91845,-0.027508,0.074806
839,0.0062721,0.011144,-0.02426,-0.047971,-0.85349,-0.040175,0.058891
840,-0.028807,0.012443,-0.02361,-0.049595,-0.69434,-0.058689,0.039078
841,-0.046022,0.025111,-0.01614,-0.04115,-0.43352,-0.082725,0.020564
842,-0.04862,0.047198,-0.0037969,-0.028807,-0.077203,-0.11033,0.0062721
843,-0.041475,0.073507,0.0088706,-0.018413,0.33725,-0.13112,0.0010752
844,-0.031081,0.096893,0.016666,-0.011267,0.73969,-0.13989,0.0056225
845,-0.020687,0.10566,0.020564,-0.0083442,1.0541,-0.13827,0.016666
846,-0.011267,0.09397,0.021863,-0.010943,1.2272,-0.13632,0.030308
847,-0.0011985,0.066037,0.016666,-0.014191,1.2435,-0.13502,0.041676
848,0.0043233,0.030633,0.0043233,-0.013541,1.1256,-0.13502,0.047523
849,0.0059473,-0.0031473,-0.01614,-0.0063954,0.91898,-0.13729,0.045574
850,0.010495,-0.030106,-0.034004,0.0039985,0.66466,-0.14216,0.035505
851,0.025111,-0.047971,-0.039851,0.011794,0.39182,-0.14769,0.021863
852,0.049796,-0.052193,-0.03303,0.014068,0.11183,-0.15451,0.0095202
853,0.076755,-0.036278,-0.020037,0.012768,-0.1649,-0.16685,0.0014
854,0.096569,0.0017248,-0.0050961,0.010495,-0.42637,-0.18277,-0.0060706
855,0.10242,0.053369,0.0085458,0.0078962,-0.66543,-0.19836,-0.017114
856,0.086824,0.10566,0.019264,0.0049729,-0.87396,-0.20355,-0.029782
857,0.054019,0.14432,0.024137,-0.0015233,-1.0451,-0.19283,-0.04115
858,0.014717,0.16023,0.024137,-0.012242,-1.1731,-0.16555,-0.044073
859,-0.016464,0.15244,0.021538,-0.025559,-1.2501,-0.12917,-0.035953
860,-0.029782,0.12613,0.01764,-0.037577,-1.2624,-0.094093,-0.024585
861,-0.021012,0.091047,0.015042,-0.044723,-1.2079,-0.068109,-0.018088
862,0.0039985,0.058566,0.011144,-0.044398,-1.0929,-0.057065,-0.020687
863,0.031282,0.031607,0.0036737,-0.037577,-0.94541,-0.056091,-0.030431
864,0.046873,0.012119,-0.0089938,-0.027833,-0.8064,-0.059664,-0.041799
865,0.041351,0.0010752,-0.027508,-0.02361,-0.72,-0.061288,-0.04927
866,0.017965,-0.00054884,-0.047646,-0.028482,-0.71123,-0.05739,-0.050244
867,-0.017764,0.003024,-0.065186,-0.037577,-0.75897,-0.046022,-0.046022
868,-0.064536,0.0017248,-0.078503,-0.046347,-0.81614,-0.027833,-0.037902
869,-0.10968,-0.0080194,-0.081751,-0.04992,-0.8392,-0.0015233,-0.022636
870,-0.14087,-0.02361,-0.071682,-0.046022,-0.80964,0.031282,0.0020496
871,-0.15256,-0.038876,-0.04992,-0.030431,-0.73169,0.063113,0.030957
872,-0.14769,-0.047321,-0.023285,-0.0021729,-0.61216,0.092671,0.053694
873,-0.13145,-0.04927,0.0039985,0.03518,-0.4621,0.11931,0.062139
874,-0.11066,-0.047971,0.028359,0.072533,-0.29515,0.14139,0.056617
875,-0.081426,-0.040825,0.044275,0.099167,-0.12592,0.15276,0.045249
876,-0.040175,-0.026533,0.050446,0.10924,0.041676,0.15536,0.032582
877,0.014392,-0.0031473,0.047523,0.10729,0.20246,0.15276,0.020564
878,0.073507,0.022512,0.036804,0.10177,0.34959,0.14334,0.0078962
879,0.12548,0.045899,0.020239,0.095919,0.47107,0.12872,-0.0047713
880,0.15698,0.059865,0.0033489,0.088773,0.55942,0.11313,-0.017114
881,0.15893,0.060515,-0.0089938,0.078055,0.61041,0.099817,-0.02361
882,0.13327,0.048172,-0.016789,0.068635,0.62633,0.088773,-0.018413
883,0.088448,0.029333,-0.021012,0.064737,0.61659,0.084551,-0.0047713
884,0.045249,0.011144,-0.018088,0.06961,0.5958,0.0852,0.013743
885,0.014717,0.0014,-0.0067202,0.084876,0.56981,0.087149,0.033231
886,-0.0015233,0.0052977,0.0072465,0.10826,0.52889,0.084226,0.046873
887,-0.0060706,0.022512,0.016016,0.1323,0.44509,0.073507,0.044275
888,-0.0073698,0.044924,0.020239,0.14984,0.2895,0.056292,0.02641
889,-0.0099683,0.064737,0.022512,0.15731,0.059865,0.03583,0.0014
890,-0.020037,0.076755,0.021538,0.15146,-0.19673,0.013093,-0.020362
891,-0.03173,0.078704,0.015367,0.13425,-0.41305,-0.012242,-0.03238
892,-0.036927,0.067661,0.0020496,0.10924,-0.54882,-0.040175,-0.037577
893,-0.034654,0.042975,-0.01614,0.080978,-0.59819,-0.075904,-0.037577
894,-0.027183,0.011469,-0.034978,0.053694,-0.54785,-0.11715,-0.035953
895,-0.014516,-0.013541,-0.046996,0.026085,-0.36563,-0.15483,-0.038876
896,-0.0018481,-0.022636,-0.048296,-0.0024977,-0.047646,-0.18179,-0.047971
897,0.0095202,-0.020362,-0.043748,-0.028157,0.36681,-0.19154,-0.061288
898,0.015692,-0.016789,-0.038227,-0.048945,0.8092,-0.18212,-0.069733
899,0.015042,-0.015165,-0.036278,-0.064861,1.1999,-0.15548,-0.072006
900,0.0078962,-0.01549,-0.035628,-0.075255,1.4747,-0.11618,-0.072006
901,-0.0050961,-0.018738,-0.03303,-0.082076,1.6011,-0.071682,-0.069408
902,-0.022311,-0.025559,-0.026209,-0.085973,1.5878,-0.029457,-0.065835
903,-0.045372,-0.038551,-0.020362,-0.087597,1.4767,0.0046481,-0.064211
904,-0.065186,-0.054467,-0.016789,-0.095393,1.3191,0.024137,-0.069408
905,-0.071357,-0.069083,-0.015165,-0.1178,1.1545,0.024137,-0.079152
906,-0.061937,-0.079477,-0.017114,-0.15548,1.0038,0.0075714,-0.089546
907,-0.044723,-0.085648,-0.021661,-0.19771,0.86799,-0.015165,-0.097017
908,-0.032705,-0.0837,-0.028807,-0.23376,0.74066,-0.033354,-0.097991
909,-0.025884,-0.072981,-0.036927,-0.25617,0.60847,-0.04115,-0.087922
910,-0.020362,-0.051544,-0.043423,-0.25877,0.45516,-0.036602,-0.072331
911,-0.014191,-0.021337,-0.045697,-0.24026,0.27456,-0.02361,-0.057715
912,-0.0076946,0.013418,-0.038551,-0.20615,0.07773,-0.0080194,-0.049595
913,-0.0024977,0.048172,-0.021661,-0.16068,-0.10611,0.0069217,-0.047646
914,-0.0037969,0.07708,-0.00054884,-0.11293,-0.25195,0.017965,-0.044398
915,-0.011917,0.095594,0.016991,-0.072656,-0.34712,0.026085,-0.035953
916,-0.024585,0.10339,0.033556,-0.044723,-0.39454,0.03583,-0.022311
917,-0.03173,0.10242,0.048497,-0.028482,-0.40916,0.054344,-0.0083442
918,-0.03173,0.096893,0.057592,-0.020037,-0.40688,0.080003,0.0033489
919,-0.027833,0.085525,0.06019,-0.010943,-0.39974,0.10436,0.014717
920,-0.02361,0.071883,0.056292,0.0020496,-0.39227,0.1232,0.024137
921,-0.017439,0.056942,0.051096,0.01829,-0.38122,0.12872,0.032906
922,-0.0050961,0.047198,0.048172,0.033556,-0.36563,0.12223,0.040052
923,0.020888,0.0433,0.047847,0.047847,-0.34809,0.10924,0.045574
924,0.061489,0.042975,0.047198,0.059865,-0.33218,0.092021,0.046223
925,0.11118,0.044924,0.041027,0.071883,-0.31529,0.073182,0.040702
926,0.15633,0.044275,0.029009,0.080653,-0.28898,0.054019,0.032582
927,0.18037,0.036154,0.01894,0.085525,-0.24708,0.034206,0.024461
928,0.17322,0.020564,0.011144,0.085525,-0.19024,0.013743,0.019914
929,0.13392,0.0010752,0.008221,0.081952,-0.12203,-0.0054209,0.017316
930,0.074806,-0.012892,0.008221,0.075131,-0.047321,-0.019388,0.014392
931,0.01829,-0.016789,0.0065969,0.064088,0.026085,-0.030106,0.013093
932,-0.021012,-0.010943,0.0046481,0.05207,0.095269,-0.038227,0.011469
933,-0.0405,0.0014,0.0046481,0.043625,0.15406,-0.039851,0.009845
934,-0.045372,0.014392,0.0043233,0.042326,0.18751,-0.036278,0.01017
935,-0.043423,0.022512,0.00042559,0.046548,0.18751,-0.028807,0.012768
936,-0.040825,0.02706,-0.0067202,0.051745,0.16153,-0.017764,0.014717
937,-0.0405,0.028684,-0.014191,0.054344,0.12613,-0.0034721,0.014068
938,-0.045697,0.029658,-0.019712,0.054019,0.092346,0.014068,0.0088706
939,-0.058689,0.026735,-0.020037,0.054668,0.059541,0.031282,0.0046481
940,-0.07428,0.019264,-0.015165,0.058566,0.011469,0.045249,0.0075714
941,-0.086298,0.01017,-0.0063954,0.066362,-0.06551,0.054993,0.020239
942,-0.088572,0.0017248,0.0020496,0.07708,-0.1688,0.059865,0.037454
943,-0.075579,-0.0073698,0.010819,0.089098,-0.27956,0.056942,0.05207
944,-0.048945,-0.019712,0.016016,0.092996,-0.37473,0.045249,0.06019
945,-0.013541,-0.034004,0.017316,0.083576,-0.43774,0.025761,0.063113
946,0.01829,-0.047646,0.01764,0.063763,-0.46243,0.0010752,0.063438
947,0.042651,-0.058365,0.019914,0.039078,-0.45366,-0.020687,0.060515
948,0.058891,-0.060638,0.026735,0.014717,-0.42377,-0.037252,0.053369
949,0.064088,-0.051219,0.036804,-0.0057458,-0.38155,-0.049595,0.046873
950,0.053694,-0.029132,0.048822,-0.018738,-0.3364,-0.056741,0.042651
951,0.029983,-0.0015233,0.055968,-0.021986,-0.29515,-0.059664,0.042001
952,0.00010078,0.019589,0.051096,-0.013216,-0.26072,-0.059014,0.044599
953,-0.028482,0.022837,0.033231,0.0056225,-0.23311,-0.052518,0.046223
954,-0.050244,0.0036737,0.0065969,0.029009,-0.20908,-0.039851,0.0433
955,-0.061288,-0.029457,-0.020362,0.048172,-0.18829,-0.022961,0.03518
956,-0.060313,-0.061613,-0.041799,0.057917,-0.16945,-0.0034721,0.025436
957,-0.049595,-0.079802,-0.053817,0.059865,-0.14801,0.016341,0.020239
958,-0.03173,-0.078827,-0.054467,0.059216,-0.1204,0.031607,0.023487
959,-0.0080194,-0.059664,-0.044073,0.059541,-0.087922,0.040052,0.033881
960,0.015042,-0.026209,-0.025559,0.062464,-0.053168,0.039402,0.045249
961,0.033881,0.015692,-0.0067202,0.065062,-0.021661,0.033881,0.05272
962,0.046223,0.056617,0.0052977,0.067986,0.0062721,0.028034,0.05142
963,0.056617,0.091047,0.011469,0.073182,0.032906,0.023812,0.043625
964,0.069285,0.11086,0.016016,0.083901,0.057267,0.016666,0.03583
965,0.080978,0.11054,0.022512,0.097868,0.080328,0.0069217,0.032906
966,0.089748,0.088448,0.029658,0.11021,0.10177,-0.0047713,0.034855
967,0.093645,0.057592,0.033556,0.11476,0.12158,-0.01484,0.03583
968,0.092021,0.027385,0.034206,0.10956,0.13717,-0.021012,0.033231
969,0.083901,0.0043233,0.029333,0.10144,0.14854,-0.024585,0.031282
970,0.069934,-0.011917,0.019589,0.095269,0.16283,-0.024909,0.032257
971,0.050121,-0.020037,0.010819,0.093321,0.18297,-0.019388,0.036154
972,0.030633,-0.018738,0.0075714,0.096893,0.20343,-0.0076946,0.043625
973,0.01829,-0.012892,0.011469,0.10306,0.21805,0.0085458,0.053369
974,0.010495,-0.011592,0.016666,0.10729,0.22065,0.024137,0.062464
975,0.0020496,-0.01484,0.021863,0.10729,0.207,0.033881,0.065387
976,-0.0093186,-0.02361,0.024137,0.10306,0.16803,0.03518,0.059865
977,-0.022636,-0.033354,0.019589,0.093645,0.10501,0.029009,0.047198
978,-0.031406,-0.04115,0.0078962,0.078055,0.024461,0.023812,0.030633
979,-0.031081,-0.045372,-0.0089938,0.058891,-0.066485,0.02706,0.019914
980,-0.018738,-0.046022,-0.021661,0.039727,-0.17042,0.037454,0.022837
981,0.0056225,-0.040175,-0.023935,0.019589,-0.29937,0.049796,0.033881
982,0.040052,-0.026533,-0.016789,-0.00054884,-0.4608,0.053694,0.046223
983,0.074806,-0.0076946,-0.0031473,-0.020687,-0.6362,0.049796,0.051096
984,0.095269,0.013093,0.012119,-0.04115,-0.78431,0.039078,0.047523
985,0.09462,0.030633,0.02641,-0.057065,-0.85869,0.027385,0.034855
986,0.071234,0.041027,0.036804,-0.063561,-0.83336,0.015692,0.015367
987,0.035505,0.042651,0.038753,-0.061613,-0.7148,0.0046481,-0.0047713
988,0.0039985,0.041676,0.032906,-0.052193,-0.53518,-0.0047713,-0.021012
989,-0.01484,0.042326,0.019589,-0.045047,-0.33867,-0.0099683,-0.033354
990,-0.017764,0.041351,0.0010752,-0.046347,-0.15711,-0.0096434,-0.036602
991,-0.0041217,0.03453,-0.023935,-0.057065,-0.0067202,0.00010078,-0.025884
992,0.026085,0.023162,-0.049595,-0.067784,0.10794,0.022188,0.0014
993,0.061489,0.013093,-0.064536,-0.068109,0.19661,0.053369,0.039727
994,0.090072,0.0088706,-0.059664,-0.052193,0.26904,0.084226,0.081303
995,0.10404,0.012768,-0.039201,-0.025234,0.32134,0.10404,0.11378
996,0.098193,0.022837,-0.012242,0.00010078,0.33725,0.10631,0.13035
997,0.06896,0.040702,0.011144,0.012768,0.30055,0.093321,0.12807
998,0.021538,0.065387,0.024137,0.012443,0.19466,0.068635,0.11118
999,-0.027833,0.092346,0.029658,0.0056225,0.026085,0.036154,0.082927
1000,-0.060963,0.11411,0.029983,-0.0034721,-0.17887,0.00042559,0.051096
1001,-0.06681,0.12872,0.032582,-0.0099683,-0.38415,-0.037902,0.024786
1002,-0.046022,0.13457,0.040702,-0.013866,-0.54915,-0.07428,0.009845
1003,-0.0099683,0.13425,0.049472,-0.018088,-0.64594,-0.10416,0.0065969
1004,0.025111,0.1258,0.050121,-0.02426,-0.65893,-0.12657,0.010819
1005,0.044275,0.11248,0.038103,-0.032055,-0.5891,-0.14671,0.014717
1006,0.03453,0.089423,0.013418,-0.043748,-0.44618,-0.17237,0.0078962
1007,-0.0021729,0.053044,-0.020037,-0.059664,-0.24253,-0.20388,-0.01549
1008,-0.054467,0.0085458,-0.055441,-0.077528,0.0036737,-0.23279,-0.04992
1009,-0.10351,-0.034329,-0.082076,-0.087597,0.25345,-0.24415,-0.0824
1010,-0.13242,-0.065186,-0.091495,-0.087597,0.4584,-0.23214,-0.098965
1011,-0.13827,-0.080776,-0.084674,-0.076879,0.58573,-0.20063,-0.093444
1012,-0.13664,-0.082076,-0.064536,-0.056091,0.62828,-0.15808,-0.070382
1013,-0.13859,-0.071032,-0.037902,-0.028157,0.59742,-0.11423,-0.041475
1014,-0.14379,-0.056091,-0.015165,0.0020496,0.52402,-0.073306,-0.019712
1015,-0.14671,-0.044723,0.00042559,0.028359,0.44184,-0.035953,-0.010618
1016,-0.14054,-0.038876,0.0095202,0.041351,0.37168,-0.0060706,-0.014191
1017,-0.11748,-0.035628,0.010819,0.042326,0.31971,0.012443,-0.023285
1018,-0.078827,-0.037902,0.0049729,0.03453,0.28236,0.019914,-0.029782
1019,-0.03238,-0.045697,-0.0028225,0.022837,0.24858,0.021863,-0.028482
1020,0.0088706,-0.056741,-0.0083442,0.012768,0.2109,0.022188,-0.022961
1021,0.039078,-0.066485,-0.008669,0.0046481,0.16705,0.027709,-0.017114
1022,0.063438,-0.070707,-0.008669,-0.0018481,0.11508,0.037454,-0.013866
1023,0.083576,-0.067459,-0.011592,-0.0083442,0.052395,0.045574,-0.013541
1024,0.098193,-0.060963,-0.019388,-0.015815,-0.014516,0.047847,-0.021337
1025,0.10436,-0.053168,-0.03173,-0.021661,-0.075904,0.044275,-0.036602
1026,0.10014,-0.045697,-0.044398,-0.021986,-0.12333,0.038753,-0.051219
1027,0.083576,-0.039526,-0.050244,-0.019063,-0.14931,0.03583,-0.057065
1028,0.055643,-0.030106,-0.040825,-0.012892,-0.14509,0.038428,-0.052193
1029,0.019264,-0.0096434,-0.013866,-0.0034721,-0.10936,0.048172,-0.037577
1030,-0.017439,0.021538,0.019589,0.0062721,-0.052843,0.06084,-0.019712
1031,-0.046347,0.055643,0.048822,0.016016,0.010819,0.072533,-0.0034721
1032,-0.059014,0.082927,0.067011,0.025111,0.071883,0.080328,0.0095202
1033,-0.05804,0.097868,0.072858,0.031932,0.12483,0.081627,0.015042
1034,-0.047646,0.097543,0.06831,0.034206,0.16478,0.079679,0.012443
1035,-0.032705,0.083901,0.055318,0.030957,0.19693,0.072533,0.0023744
1036,-0.014516,0.061489,0.038753,0.023162,0.22877,0.062464,-0.013216
1037,0.0046481,0.037454,0.021213,0.013418,0.26709,0.052395,-0.028482
1038,0.022512,0.01829,0.0091954,0.0085458,0.31354,0.044924,-0.038227
1039,0.038428,0.0056225,0.0036737,0.012119,0.35804,0.039727,-0.039526
1040,0.047847,-0.0011985,0.00042559,0.024137,0.39344,0.033881,-0.037577
1041,0.053044,-0.0028225,-0.00022403,0.034855,0.41585,0.027385,-0.036278
1042,0.055643,-0.00054884,0.0023744,0.038103,0.423,0.016991,-0.037577
1043,0.053044,0.0023744,0.010495,0.031607,0.40286,-0.0015233,-0.045697
1044,0.044599,0.0017248,0.018615,0.017316,0.34505,-0.032055,-0.062587
1045,0.028684,-0.0037969,0.025436,0.0046481,0.24533,-0.070058,-0.080127
1046,0.009845,-0.014516,0.024786,-0.0037969,0.11054,-0.10676,-0.096367
1047,-0.0034721,-0.026858,0.014068,-0.011917,-0.029457,-0.13307,-0.10806
1048,-0.0057458,-0.036602,-0.0028225,-0.020687,-0.13469,-0.14411,-0.11683
1049,0.0052977,-0.0405,-0.016464,-0.027833,-0.17692,-0.14411,-0.1217
1050,0.022837,-0.039201,-0.022311,-0.028157,-0.15061,-0.13989,-0.11975
1051,0.035505,-0.038551,-0.020037,-0.022961,-0.077853,-0.13404,-0.11098
1052,0.030957,-0.04115,-0.019388,-0.015165,0.011794,-0.12787,-0.098641
1053,0.0056225,-0.046347,-0.022636,-0.0067202,0.093645,-0.12268,-0.084024
1054,-0.031081,-0.048945,-0.031081,0.0017248,0.15016,-0.11391,-0.068434
1055,-0.069733,-0.047321,-0.039526,0.008221,0.16965,-0.099615,-0.04927
1056,-0.097341,-0.041799,-0.044398,0.0088706,0.14919,-0.080451,-0.027833
1057,-0.10871,-0.033354,-0.046022,0.0043233,0.095919,-0.059989,-0.0073698
1058,-0.10774,-0.022961,-0.044073,0.00075039,0.019914,-0.041799,0.010819
1059,-0.095717,-0.013866,-0.038876,0.0023744,-0.06681,-0.030431,0.022512
1060,-0.074605,-0.0080194,-0.025884,0.010819,-0.14736,-0.025559,0.023812
1061,-0.046022,-0.0044465,-0.0050961,0.018615,-0.20323,-0.024909,0.016666
1062,-0.012892,-0.00087364,0.020564,0.021863,-0.21947,-0.022636,0.0069217
1063,0.01829,0.0010752,0.040052,0.019264,-0.18342,-0.021337,-0.0021729
1064,0.037129,-0.0015233,0.049147,0.011469,-0.084999,-0.028482,-0.008669
1065,0.039402,-0.0060706,0.043625,-0.0011985,0.067986,-0.043423,-0.015165
1066,0.031607,-0.010293,0.024786,-0.013866,0.24533,-0.061613,-0.020037
1067,0.026735,-0.010618,0.0023744,-0.02361,0.39409,-0.078178,-0.017439
1068,0.03583,-0.0034721,-0.016464,-0.030106,0.44769,-0.088247,-0.0041217
1069,0.056942,0.008221,-0.025234,-0.03173,0.35609,-0.092145,0.016991
1070,0.075781,0.022188,-0.025559,-0.03303,0.13002,-0.090521,0.037454
1071,0.078055,0.037129,-0.018738,-0.035628,-0.161,-0.08305,0.050446
1072,0.062789,0.054019,-0.011267,-0.034329,-0.42117,-0.071682,0.056942
1073,0.038753,0.070909,-0.0041217,-0.02361,-0.57806,-0.056416,0.056617
1074,0.017316,0.080653,0.0036737,-0.0015233,-0.60339,-0.038551,0.051096
1075,0.0095202,0.081303,0.014068,0.026735,-0.52284,-0.020687,0.044924
1076,0.017316,0.077405,0.024461,0.051096,-0.38934,-0.0083442,0.037778
1077,0.037778,0.070584,0.033231,0.063763,-0.2578,-0.0050961,0.031607
1078,0.059865,0.061814,0.037454,0.064088,-0.16263,-0.0050961,0.022512
1079,0.071883,0.053694,0.038753,0.059216,-0.10319,0.0020496,0.011144
1080,0.067661,0.050446,0.039078,0.059216,-0.060963,0.01764,0.0017248
1081,0.052395,0.05207,0.040377,0.064088,-0.01549,0.039402,0.0014
1082,0.032906,0.055318,0.0433,0.071234,0.042651,0.062464,0.013743
1083,0.014392,0.058241,0.044275,0.075781,0.10306,0.0852,0.035505
1084,0.0020496,0.057592,0.038753,0.073507,0.15114,0.10631,0.056617
1085,0.0010752,0.05142,0.024137,0.063113,0.1703,0.12158,0.070259
1086,0.015042,0.0433,0.0039985,0.050121,0.15731,0.1284,0.079354
1087,0.036479,0.03453,-0.01484,0.043625,0.11801,0.1271,0.088124
1088,0.054019,0.026085,-0.022636,0.0433,0.064737,0.12255,0.10144
1089,0.058566,0.015367,-0.020362,0.047847,0.0069217,0.11833,0.11508
1090,0.046873,0.0033489,-0.015165,0.05142,-0.04862,0.11671,0.11606
1091,0.024137,-0.007045,-0.010293,0.056292,-0.090845,0.11573,0.10469
1092,0.00075039,-0.012567,-0.0047713,0.06084,-0.11553,0.10891,0.086175
1093,-0.019712,-0.010943,-0.0011985,0.063438,-0.12592,0.098517,0.06896
1094,-0.035303,0.00042559,0.0010752,0.061489,-0.12982,0.093321,0.057917
1095,-0.042449,0.015042,0.0052977,0.058891,-0.13112,0.094945,0.055643
1096,-0.043099,0.027709,0.011144,0.055643,-0.12787,0.10079,0.061814
1097,-0.043099,0.033881,0.017965,0.051096,-0.10286,0.10631,0.073507
1098,-0.046022,0.031282,0.024786,0.044924,-0.042774,0.11216,0.082277
1099,-0.052843,0.023162,0.02706,0.039727,0.054344,0.11898,0.082277
1100,-0.059989,0.014392,0.019264,0.037454,0.17452,0.12515,0.072533
1101,-0.069408,0.010819,0.0062721,0.03583,0.29665,0.12743,0.057267
1102,-0.080776,0.011794,-0.0063954,0.034206,0.39474,0.12093,0.042651
1103,-0.094418,0.011794,-0.011917,0.031282,0.44769,0.10631,0.032906
1104,-0.11358,0.0039985,-0.012892,0.02641,0.45353,0.087474,0.027385
1105,-0.13957,-0.016464,-0.014516,0.019914,0.42332,0.066686,0.022837
1106,-0.16847,-0.042124,-0.018413,0.011794,0.36194,0.05272,0.021538
1107,-0.19283,-0.063561,-0.020687,0.0075714,0.26872,0.049796,0.028034
1108,-0.20225,-0.070058,-0.017439,0.0075714,0.14139,0.054344,0.046223
1109,-0.18894,-0.060963,-0.0093186,0.0062721,-0.02361,0.057917,0.070259
1110,-0.15321,-0.038876,-0.00087364,-0.00054884,-0.22629,0.049147,0.089748
1111,-0.10026,-0.017439,-0.0034721,-0.0089938,-0.45171,0.021863,0.096893
1112,-0.034978,-0.0044465,-0.020687,-0.01614,-0.67063,-0.019063,0.0852
1113,0.039078,-0.0028225,-0.046022,-0.021661,-0.84667,-0.064536,0.057592
1114,0.11443,-0.01549,-0.068109,-0.025884,-0.94671,-0.10579,0.026085
1115,0.18037,-0.039851,-0.084999,-0.034004,-0.94671,-0.13664,0.00075039
1116,0.22584,-0.068109,-0.094743,-0.046996,-0.8483,-0.15548,-0.010943
1117,0.24338,-0.088247,-0.096042,-0.060313,-0.6742,-0.16295,-0.0089938
1118,0.23591,-0.089546,-0.087597,-0.070707,-0.45463,-0.16295,0.0049729
1119,0.2135,-0.06616,-0.067459,-0.072981,-0.22986,-0.15743,0.022188
1120,0.19174,-0.021337,-0.037252,-0.064211,-0.038227,-0.14671,0.034855
1121,0.17939,0.031932,-0.0050961,-0.043423,0.091696,-0.12982,0.03453
1122,0.17647,0.075456,0.021538,-0.01549,0.15438,-0.10091,0.023162
1123,0.17647,0.095269,0.040052,0.014068,0.16608,-0.059989,0.0039985
1124,0.17225,0.087799,0.047523,0.037778,0.14854,-0.018088,-0.014516
1125,0.15666,0.063113,0.04395,0.047847,0.10956,0.011469,-0.028157
1126,0.12775,0.031282,0.030633,0.042975,0.048172,0.020888,-0.039201
1127,0.083576,0.00042559,0.010495,0.025111,-0.0405,0.008221,-0.052843
1128,0.031282,-0.024909,-0.0099683,-0.00022403,-0.1688,-0.022311,-0.072656
1129,-0.017114,-0.043748,-0.025234,-0.026533,-0.32341,-0.066485,-0.098641
1130,-0.055766,-0.058365,-0.029782,-0.049595,-0.45788,-0.11423,-0.12917
1131,-0.078827,-0.071357,-0.024909,-0.062587,-0.50562,-0.15678,-0.15581
1132,-0.0824,-0.079152,-0.015165,-0.064861,-0.42475,-0.18439,-0.16847
1133,-0.065835,-0.07428,-0.0037969,-0.056091,-0.23376,-0.19219,-0.16068
1134,-0.032055,-0.057065,0.0059473,-0.042449,0.011469,-0.18147,-0.13632
1135,0.0091954,-0.030431,0.0091954,-0.029457,0.25313,-0.15451,-0.10871
1136,0.044599,-0.0015233,0.0075714,-0.021661,0.44606,-0.12203,-0.087922
1137,0.075131,0.019914,0.0046481,-0.017764,0.56916,-0.096367,-0.0837
1138,0.10761,0.030308,0.0010752,-0.018738,0.61106,-0.084674,-0.097017
1139,0.13912,0.034206,-0.0057458,-0.023285,0.55162,-0.087272,-0.12138
1140,0.15698,0.037778,-0.011267,-0.030756,0.38013,-0.097666,-0.14314
1141,0.14756,0.050771,-0.01484,-0.042124,0.1284,-0.10546,-0.14801
1142,0.10112,0.06896,-0.018088,-0.054467,-0.1321,-0.10026,-0.12755
1143,0.020888,0.087799,-0.020037,-0.060638,-0.31496,-0.083375,-0.089221
1144,-0.075579,0.099167,-0.021661,-0.05739,-0.3718,-0.063561,-0.046671
1145,-0.16295,0.093645,-0.023935,-0.048945,-0.32016,-0.044073,-0.012242
1146,-0.2172,0.067661,-0.025559,-0.036278,-0.21557,-0.022311,0.011794
1147,-0.22597,0.030308,-0.021012,-0.020362,-0.12073,0.0059473,0.029983
1148,-0.19511,-0.0015233,-0.0083442,-0.0011985,-0.075579,0.041027,0.044599
1149,-0.14574,-0.016789,0.01017,0.019914,-0.090845,0.080978,0.058891
1150,-0.10384,-0.013216,0.029658,0.041027,-0.14704,0.12385,0.073832
1151,-0.080776,0.008221,0.05142,0.057917,-0.20713,0.16445,0.084551
1152,-0.072656,0.037129,0.070909,0.068635,-0.24675,0.19823,0.088124
1153,-0.06616,0.063113,0.087149,0.076431,-0.25747,0.21642,0.080328
1154,-0.052843,0.076106,0.093321,0.079029,-0.24318,0.21317,0.067011
1155,-0.032705,0.074806,0.089748,0.070909,-0.20648,0.19044,0.053044
1156,-0.013541,0.061165,0.075131,0.054993,-0.14834,0.15373,0.039402
1157,-0.0034721,0.041676,0.052395,0.033881,-0.062912,0.10924,0.025436
1158,-0.0044465,0.016016,0.028684,0.011144,0.052395,0.066037,0.011144
1159,-0.011917,-0.015165,0.0085458,-0.0057458,0.18459,0.03583,0.0023744
1160,-0.016464,-0.046347,-0.011592,-0.014516,0.31029,0.024137,0.0014
1161,-0.012242,-0.072006,-0.031081,-0.013866,0.40579,0.028684,0.0062721
1162,0.00075039,-0.084999,-0.048945,-0.0073698,0.4597,0.039078,0.014068
1163,0.022837,-0.078827,-0.062262,-0.00087364,0.47724,0.053369,0.025761
1164,0.048822,-0.054467,-0.062587,0.0043233,0.46847,0.06831,0.038103
1165,0.065062,-0.018413,-0.050244,0.0078962,0.44411,0.080328,0.046548
1166,0.065712,0.020888,-0.028157,0.013418,0.41456,0.085525,0.048172
1167,0.054668,0.057592,-0.0024977,0.022837,0.3876,0.082277,0.047523
1168,0.041351,0.088773,0.020239,0.038753,0.36453,0.072208,0.050771
1169,0.032906,0.10599,0.035505,0.054993,0.3431,0.054668,0.057592
1170,0.029658,0.10761,0.0433,0.064737,0.31776,0.03453,0.061489
1171,0.030308,0.098517,0.044924,0.066362,0.28821,0.019264,0.057267
1172,0.031607,0.082277,0.044599,0.057917,0.26125,0.012443,0.048822
1173,0.029983,0.062464,0.039402,0.04395,0.24143,0.0078962,0.041351
1174,0.023487,0.040052,0.028684,0.028684,0.22584,0.0033489,0.03453
1175,0.013418,0.018615,0.015042,0.016016,0.21317,-0.0041217,0.027385
1176,0.0033489,0.00075039,0.0056225,0.0091954,0.20213,-0.013541,0.02641
1177,-0.0054209,-0.012892,0.0010752,0.008221,0.19499,-0.024585,0.033231
1178,-0.011917,-0.022636,-0.00054884,0.01017,0.18394,-0.03303,0.041027
1179,-0.013216,-0.026533,-0.0034721,0.012768,0.16705,-0.037577,0.044275
1180,-0.007045,-0.023935,-0.0067202,0.014717,0.14107,-0.039526,0.039727
1181,0.0017248,-0.016464,-0.0073698,0.015367,0.10664,-0.042124,0.029983
1182,0.0085458,-0.0089938,-0.0041217,0.016991,0.06961,-0.040825,0.016341
1183,0.015367,-0.0057458,0.00075039,0.019589,0.032906,-0.036278,0.0056225
1184,0.020239,-0.011917,0.00075039,0.023487,-0.00054884,-0.030106,-0.0011985
1185,0.020239,-0.026858,-0.0050961,0.022188,-0.027833,-0.02426,-0.0057458
1186,0.016016,-0.046022,-0.011917,0.016341,-0.046671,-0.020687,-0.0096434
1187,0.0062721,-0.062912,-0.01549,0.0059473,-0.058689,-0.017764,-0.010293
1188,-0.01484,-0.07428,-0.0093186,-0.0018481,-0.065835,-0.012567,-0.010293
1189,-0.047971,-0.079152,0.0036737,-0.00022403,-0.071357,-0.0096434,-0.0073698
1190,-0.084999,-0.073955,0.01894,0.009845,-0.074605,-0.0093186,-0.0021729
1191,-0.11521,-0.058689,0.028359,0.025111,-0.077528,-0.011592,0.0010752
1192,-0.12982,-0.038876,0.029658,0.040702,-0.084024,-0.013541,0.0017248
1193,-0.12657,-0.017764,0.025761,0.052395,-0.093444,-0.010943,-0.00054884
1194,-0.11033,0.0010752,0.023487,0.055318,-0.10124,-0.0047713,-0.0057458
1195,-0.085973,0.023812,0.02706,0.05207,-0.10481,0.0014,-0.011592
1196,-0.053817,0.05207,0.036154,0.045574,-0.10416,0.0059473,-0.015815
1197,-0.0099683,0.086175,0.045249,0.040052,-0.10319,0.012119,-0.015165
1198,0.042975,0.1206,0.044275,0.032906,-0.10709,0.020239,-0.0096434
1199,0.099167,0.14594,0.032906,0.021863,-0.1191,0.022837,-0.0028225
1200,0.14691,0.15666,0.015042,0.012768,-0.13827,0.016341,0.0017248
1201,0.18004,0.15373,-0.00087364,0.008221,-0.15516,0.0033489,0.01017
1202,0.19304,0.14334,-0.013216,0.011144,-0.1675,-0.0093186,0.024461
1203,0.18459,0.13262,-0.016789,0.021538,-0.17887,-0.013216,0.039727
1204,0.15049,0.12418,-0.012892,0.036804,-0.19381,-0.012242,0.045574
1205,0.094945,0.11898,-0.0024977,0.05207,-0.20843,-0.0096434,0.041351
1206,0.031282,0.11541,0.01017,0.061165,-0.20258,-0.0080194,0.030308
1207,-0.024585,0.10859,0.01894,0.062789,-0.14119,-0.0083442,0.022188
1208,-0.064536,0.095594,0.024137,0.060515,-0.00087364,-0.0076946,0.022188
1209,-0.09182,0.075456,0.024786,0.057592,0.20928,0.0026992,0.02706
1210,-0.11618,0.05272,0.023487,0.055643,0.44606,0.022837,0.026085
1211,-0.13827,0.030957,0.024461,0.054019,0.66173,0.047198,0.018615
1212,-0.15483,0.014068,0.028359,0.054344,0.81829,0.06831,0.014068
1213,-0.15321,0.00010078,0.031607,0.056292,0.89689,0.084551,0.016016
1214,-0.13437,-0.014516,0.031282,0.058891,0.89722,0.09462,0.021213
1215,-0.10579,-0.032055,0.021213,0.059541,0.84005,0.095594,0.024461
1216,-0.079802,-0.053492,0.0059473,0.054668,0.74521,0.092346,0.021213
1217,-0.062262,-0.079477,-0.013216,0.043625,0.62503,0.090397,0.014717
1218,-0.051219,-0.10838,-0.028157,0.031282,0.48374,0.088773,0.011144
1219,-0.035628,-0.12982,-0.037902,0.023487,0.31679,0.087799,0.012443
1220,-0.007045,-0.13307,-0.039851,0.026735,0.10859,0.082277,0.016666
1221,0.034855,-0.11326,-0.033679,0.042326,-0.161,0.072858,0.022188
1222,0.08585,-0.076229,-0.020037,0.062464,-0.49003,0.063763,0.029658
1223,0.12937,-0.035628,-0.0047713,0.077405,-0.84505,0.058241,0.040702
1224,0.14886,-0.0099683,0.008221,0.07708,-1.1793,0.053369,0.053694
1225,0.13814,-0.0060706,0.013093,0.057917,-1.4609,0.040702,0.063763
1226,0.10306,-0.018738,0.0062721,0.024137,-1.6811,0.01017,0.065712
1227,0.062464,-0.034978,-0.0057458,-0.011592,-1.8354,-0.043748,0.054019
1228,0.028684,-0.04862,-0.019063,-0.039851,-1.8964,-0.11423,0.030633
1229,0.0046481,-0.056091,-0.030756,-0.059664,-1.8195,-0.18699,0.0017248
1230,-0.012892,-0.061937,-0.037252,-0.073306,-1.5772,-0.25,-0.028157
1231,-0.027183,-0.066485,-0.038551,-0.082725,-1.1913,-0.2984,-0.054792
1232,-0.0405,-0.068109,-0.037577,-0.088896,-0.7109,-0.32893,-0.073955
1233,-0.050569,-0.059989,-0.037902,-0.088896,-0.2094,-0.34484,-0.080451
1234,-0.057065,-0.042774,-0.042774,-0.082076,0.22292,-0.34939,-0.076554
1235,-0.056416,-0.019712,-0.050244,-0.070707,0.50388,-0.34874,-0.065186
1236,-0.04862,-0.0021729,-0.055116,-0.059339,0.5932,-0.35102,-0.050569
1237,-0.035303,0.0036737,-0.053817,-0.053492,0.50777,-0.35686,-0.039851
1238,-0.020037,-0.0028225,-0.045697,-0.056091,0.30217,-0.36011,-0.029457
1239,-0.010293,-0.018413,-0.033679,-0.065186,0.05272,-0.35686,-0.022636
1240,-0.011267,-0.036278,-0.025559,-0.071357,-0.16588,-0.34744,-0.023285
1241,-0.019712,-0.055441,-0.025884,-0.069408,-0.30717,-0.3351,-0.030106
1242,-0.03303,-0.081751,-0.038227,-0.059664,-0.35784,-0.32471,-0.037577
1243,-0.052518,-0.1256,-0.056416,-0.048945,-0.32536,-0.31074,-0.044723
1244,-0.078827,-0.19056,-0.072331,-0.042774,-0.23571,-0.29158,-0.051219
1245,-0.10644,-0.27274,-0.080776,-0.043423,-0.12138,-0.26462,-0.056091
1246,-0.12235,-0.36303,-0.075579,-0.044398,-0.0073698,-0.22954,-0.061937
1247,-0.11975,-0.44813,-0.059014,-0.040175,0.081303,-0.18731,-0.068434
1248,-0.10221,-0.50692,-0.032055,-0.026858,0.1349,-0.14216,-0.07428
1249,-0.077203,-0.52316,-0.00022403,-0.0057458,0.15373,-0.095393,-0.077853
1250,-0.057715,-0.49068,0.028034,0.016666,0.14659,-0.048296,-0.079477
1251,-0.052193,-0.40428,0.047847,0.033881,0.1219,-0.0024977,-0.077853
1252,-0.055766,-0.26397,0.055318,0.044924,0.089748,0.036154,-0.069733
1253,-0.056741,-0.078503,0.050771,0.048172,0.055643,0.063113,-0.054467
1254,-0.046996,0.11931,0.037129,0.042326,0.022837,0.07773,-0.035303
1255,-0.02426,0.2921,0.019914,0.024786,-0.00054884,0.08585,-0.01484
1256,0.013418,0.42073,0.0020496,0.0052977,-0.012567,0.093321,0.0075714
1257,0.065387,0.5029,-0.013216,-0.0080194,-0.0024977,0.10599,0.030633
1258,0.12158,0.55455,-0.024585,-0.008669,0.03583,0.12515,0.056617
1259,0.16445,0.59482,-0.028807,0.0020496,0.098842,0.15179,0.078379
1260,0.18492,0.63348,-0.022961,0.018615,0.1703,0.18232,0.092346
1261,0.18687,0.65816,-0.011917,0.032906,0.23883,0.20863,0.094295
1262,0.17972,0.64777,-0.0015233,0.038753,0.30087,0.22227,0.086824
1263,0.1651,0.59287,0.0020496,0.03453,0.35674,0.22065,0.076431
1264,0.14269,0.5042,0.00010078,0.022837,0.40546,0.2109,0.066686
1265,0.10859,0.40708,0.00042559,0.012768,0.44216,0.19953,0.059216
1266,0.06831,0.32718,0.011144,0.0072465,0.47367,0.18914,0.056942
1267,0.031932,0.27489,0.031607,0.0059473,0.50907,0.18004,0.056942
1268,0.0033489,0.23754,0.049472,0.0065969,0.55,0.17712,0.059216
1269,-0.015165,0.19921,0.058241,0.0088706,0.59158,0.17582,0.061814
1270,-0.022961,0.15211,0.056617,0.012768,0.61496,0.17225,0.063113
1271,-0.023285,0.099167,0.046223,0.017965,0.60619,0.16283,0.064737
1272,-0.01484,0.046873,0.031932,0.023487,0.56234,0.14821,0.067661
1273,-0.00054884,0.0056225,0.019264,0.031932,0.48894,0.13425,0.06831
1274,0.016666,-0.021986,0.0078962,0.042651,0.39214,0.12483,0.065387
1275,0.031607,-0.036278,-0.0021729,0.052395,0.28041,0.12028,0.056617
1276,0.042001,-0.038551,-0.0080194,0.056942,0.16153,0.1206,0.048497
1277,0.045249,-0.032705,-0.0076946,0.058566,0.03583,0.1232,0.040702
1278,0.041676,-0.026858,-0.0024977,0.058241,-0.10774,0.12483,0.034206
1279,0.036154,-0.026209,-0.00054884,0.056942,-0.27209,0.12483,0.02706
1280,0.030957,-0.033354,-0.0021729,0.054019,-0.43092,0.1219,0.016341
1281,0.029009,-0.046671,-0.0057458,0.049472,-0.53616,0.11898,0.0017248
1282,0.032582,-0.061937,-0.0083442,0.045249,-0.5537,0.11703,-0.011592
1283,0.042975,-0.075904,-0.0083442,0.040702,-0.48061,0.11606,-0.014191
1284,0.056292,-0.087272,-0.0073698,0.032582,-0.3403,0.11151,-0.007045
1285,0.067011,-0.095068,-0.0028225,0.024137,-0.1649,0.099167,0.0023744
1286,0.067661,-0.098641,0.0065969,0.016991,0.012119,0.079679,0.0069217
1287,0.054668,-0.097341,0.01829,0.012119,0.1651,0.056292,0.0056225
1288,0.029983,-0.092145,0.02641,0.012119,0.28593,0.037454,0.0036737
1289,0.0023744,-0.084349,0.032582,0.016016,0.37915,0.030633,0.0049729
1290,-0.021986,-0.072981,0.038103,0.024461,0.45223,0.036154,0.012443
1291,-0.039201,-0.056091,0.044275,0.03583,0.50907,0.049147,0.023487
1292,-0.048296,-0.040175,0.051096,0.046548,0.5539,0.062464,0.030957
1293,-0.051219,-0.032705,0.057917,0.05142,0.59287,0.074806,0.029983
1294,-0.050244,-0.033679,0.059541,0.050446,0.6286,0.082927,0.019264
1295,-0.04862,-0.043099,0.056942,0.044599,0.65231,0.085525,0.0023744
1296,-0.046996,-0.057065,0.043625,0.042001,0.65264,0.084226,-0.01549
1297,-0.044073,-0.073306,0.021863,0.044599,0.62146,0.081627,-0.029782
1298,-0.038551,-0.087272,0.00075039,0.049472,0.55747,0.078379,-0.035628
1299,-0.03173,-0.097991,-0.012242,0.05207,0.46328,0.077405,-0.034978
1300,-0.029782,-0.10481,-0.012567,0.050121,0.33498,0.080328,-0.030431
1301,-0.034978,-0.10936,0.00075039,0.046548,0.16185,0.088448,-0.021661
1302,-0.046671,-0.11423,0.016991,0.0433,-0.060313,0.095269,-0.01484
1303,-0.058689,-0.11878,0.029333,0.040052,-0.31626,0.094945,-0.013216
1304,-0.061613,-0.12105,0.033881,0.034206,-0.56669,0.085525,-0.017114
1305,-0.046022,-0.12203,0.034206,0.025761,-0.76807,0.067011,-0.025884
1306,-0.013866,-0.11748,0.032582,0.019264,-0.90124,0.039402,-0.037902
1307,0.025111,-0.10319,0.029333,0.012443,-0.97302,0.0088706,-0.04862
1308,0.054668,-0.081751,0.023162,0.0046481,-0.99771,-0.023285,-0.056416
1309,0.062139,-0.059664,0.011794,-0.0067202,-0.98309,-0.051868,-0.062262
1310,0.045899,-0.046022,-0.0044465,-0.025559,-0.93145,-0.071032,-0.066485
1311,0.011794,-0.042774,-0.020687,-0.047646,-0.85089,-0.084024,-0.073306
1312,-0.022311,-0.046347,-0.030106,-0.064861,-0.7502,-0.095068,-0.082725
1313,-0.037252,-0.053492,-0.027508,-0.072006,-0.64237,-0.10709,-0.090845
1314,-0.025559,-0.05804,-0.01484,-0.072331,-0.53063,-0.12008,-0.090845
1315,0.0056225,-0.059014,-0.0015233,-0.069733,-0.40916,-0.1334,-0.078178
1316,0.043625,-0.059989,0.0020496,-0.06616,-0.27631,-0.13762,-0.046022
1317,0.075781,-0.063886,-0.0060706,-0.061613,-0.13892,-0.1256,0.0043233
1318,0.0865,-0.063237,-0.021337,-0.053817,-0.0096434,-0.097341,0.061165
1319,0.071558,-0.051219,-0.037577,-0.042774,0.10501,-0.059664,0.10534
1320,0.042651,-0.028482,-0.045372,-0.030106,0.20863,-0.026209,0.12418
1321,0.012768,-0.0054209,-0.041799,-0.017764,0.30997,-0.0054209,0.11606
1322,-0.0057458,0.010495,-0.029457,-0.0073698,0.41098,-0.00022403,0.088448
1323,-0.0063954,0.016991,-0.013216,0.00042559,0.50907,-0.0067202,0.06019
1324,0.011469,0.019914,0.00042559,0.0043233,0.60035,-0.01484,0.042975
1325,0.045249,0.021538,0.008221,0.0046481,0.67148,-0.018738,0.037454
1326,0.083251,0.022837,0.012443,0.0026992,0.71435,-0.017764,0.03453
1327,0.12028,0.023162,0.014068,0.0017248,0.70201,-0.017764,0.028684
1328,0.14302,0.019264,0.010495,-0.00054884,0.59775,-0.029132,0.015042
1329,0.14269,0.011469,-0.00022403,-0.0060706,0.3863,-0.053168,-0.0024977
1330,0.1206,0.0036737,-0.013541,-0.014191,0.10826,-0.085973,-0.021012
1331,0.083576,-0.00087364,-0.02426,-0.021986,-0.15158,-0.12333,-0.034004
1332,0.047847,0.00010078,-0.029457,-0.022961,-0.30457,-0.15808,-0.039526
1333,0.022188,0.0026992,-0.025234,-0.017439,-0.31399,-0.18114,-0.037577
1334,0.013418,0.0036737,-0.012242,-0.010943,-0.20615,-0.18991,-0.030756
1335,0.018615,0.0026992,0.0026992,-0.0050961,-0.045372,-0.18471,-0.022311
1336,0.028684,0.00010078,0.014068,0.00042559,0.11248,-0.16782,-0.01549
1337,0.03453,-0.00022403,0.015042,0.0065969,0.23039,-0.14216,-0.013866
1338,0.037129,-0.00087364,0.0095202,0.016016,0.2947,-0.11391,-0.016789
1339,0.037454,-0.0063954,0.0036737,0.024786,0.31029,-0.089546,-0.016789
1340,0.036804,-0.013866,0.0046481,0.030957,0.2921,-0.069083,-0.015165
1341,0.025436,-0.020362,0.012768,0.033556,0.25897,-0.057065,-0.013866
1342,-0.0047713,-0.022961,0.024786,0.033231,0.23201,-0.050894,-0.013216
1343,-0.05804,-0.023935,0.03453,0.028034,0.22162,-0.046671,-0.01614
1344,-0.12722,-0.031081,0.039078,0.017316,0.22519,-0.046996,-0.018413
1345,-0.19803,-0.048296,0.03453,-0.0011985,0.22714,-0.050569,-0.019388
1346,-0.2578,-0.069408,0.021213,-0.025559,0.2161,-0.05739,-0.020687
1347,-0.29515,-0.087272,0.0014,-0.049595,0.19109,-0.065186,-0.025559
1348,-0.2984,-0.097017,-0.019063,-0.070058,0.15796,-0.067459,-0.031406
1349,-0.26332,-0.09929,-0.038227,-0.0837,0.1258,-0.060963,-0.031081
1350,-0.19478,-0.095068,-0.051219,-0.088572,0.096244,-0.045372,-0.020362
1351,-0.10968,-0.080776,-0.059664,-0.086298,0.065712,-0.021986,0.0026992
1352,-0.024585,-0.050894,-0.062262,-0.075255,0.028359,0.0065969,0.031607
1353,0.050121,-0.0057458,-0.058365,-0.057065,-0.01614,0.031607,0.058241
1354,0.11118,0.048822,-0.048945,-0.036927,-0.075255,0.0433,0.07773
1355,0.15568,0.10177,-0.038876,-0.021661,-0.15678,0.042001,0.085525
1356,0.17452,0.14237,-0.029132,-0.013866,-0.25162,0.033231,0.080978
1357,0.16543,0.16185,-0.017764,-0.011267,-0.34192,0.026085,0.070909
1358,0.13555,0.16088,-0.0054209,-0.0089938,-0.41208,0.025111,0.061814
1359,0.099817,0.14529,0.0072465,-0.0044465,-0.44943,0.030957,0.054019
1360,0.065387,0.12613,0.019264,0.0017248,-0.44229,0.038428,0.044275
1361,0.040052,0.11183,0.028684,0.0085458,-0.38317,0.0433,0.032257
1362,0.029009,0.10404,0.034206,0.015692,-0.28021,0.042326,0.016666
1363,0.030957,0.10079,0.031282,0.022837,-0.15646,0.042001,0.0056225
1364,0.040052,0.09462,0.019914,0.025436,-0.043423,0.045899,0.0017248
1365,0.051096,0.079354,0.0026992,0.022512,0.031282,0.056617,0.0043233
1366,0.056617,0.058241,-0.014191,0.016341,0.061814,0.072208,0.012768
1367,0.054993,0.03583,-0.024585,0.015692,0.055643,0.088124,0.01764
1368,0.047198,0.017965,-0.023285,0.021213,0.026735,0.095919,0.015042
1369,0.032582,0.0069217,-0.013866,0.032906,-0.011267,0.086824,0.0065969
1370,0.010495,0.0010752,-0.00087364,0.04395,-0.045372,0.064413,-0.0044465
1371,-0.015815,0.00010078,0.0072465,0.050446,-0.074605,0.037129,-0.013866
1372,-0.037902,0.0039985,0.0091954,0.05142,-0.096367,0.013743,-0.021661
1373,-0.052193,0.011469,0.0078962,0.046548,-0.10936,0.0010752,-0.025559
1374,-0.056416,0.019264,0.011469,0.040702,-0.11196,0.0017248,-0.022311
1375,-0.051544,0.024461,0.021213,0.03583,-0.10514,0.0085458,-0.012567
1376,-0.041475,0.028684,0.032257,0.036154,-0.089871,0.017316,0.00075039
1377,-0.034978,0.029983,0.035505,0.041676,-0.070707,0.025761,0.010819
1378,-0.03238,0.02641,0.028359,0.050121,-0.046022,0.029658,0.014392
1379,-0.029782,0.021863,0.013418,0.059216,-0.021661,0.027709,0.012768
1380,-0.026209,0.022837,-0.0021729,0.065387,-0.00087364,0.021213,0.010495
1381,-0.02361,0.030308,-0.011592,0.066037,0.01017,0.013418,0.009845
1382,-0.021986,0.042001,-0.010293,0.063438,0.0065969,0.0046481,0.010819
1383,-0.022961,0.055318,0.00010078,0.062139,-0.0080194,-0.0011985,0.009845
1384,-0.024585,0.064088,0.010819,0.062789,-0.021337,-0.0034721,0.008221
1385,-0.026858,0.063763,0.019264,0.063763,-0.020362,-0.0054209,0.009845
1386,-0.030106,0.054993,0.020239,0.065387,-0.0024977,-0.0044465,0.013093
1387,-0.037577,0.041351,0.012443,0.065712,0.023487,0.0043233,0.016666
1388,-0.046996,0.033231,0.0033489,0.063763,0.049147,0.020239,0.016016
1389,-0.053492,0.032582,0.0017248,0.060515,0.067661,0.03453,0.010495
1390,-0.055766,0.038428,0.0088706,0.055968,0.07708,0.044599,0.0036737
1391,-0.050894,0.043625,0.017965,0.050771,0.080003,0.049147,-0.00022403
1392,-0.040825,0.046223,0.024461,0.047847,0.07708,0.053044,0.003024
1393,-0.026533,0.041676,0.025436,0.050446,0.070259,0.056942,0.017316
1394,-0.0083442,0.033231,0.024461,0.053369,0.062139,0.056617,0.038428
1395,0.0069217,0.027385,0.024137,0.056617,0.05272,0.054344,0.057917
1396,0.01764,0.027709,0.02706,0.056617,0.035505,0.049147,0.068635
1397,0.024786,0.036154,0.029983,0.054668,0.0046481,0.046873,0.067661
1398,0.037129,0.045899,0.029009,0.047523,-0.036602,0.050771,0.061165
1399,0.060515,0.056617,0.025111,0.041351,-0.087272,0.059216,0.050771
1400,0.095594,0.067011,0.020239,0.042651,-0.14671,0.066362,0.044599
1401,0.1362,0.072208,0.018615,0.049796,-0.21395,0.065387,0.042975
1402,0.1716,0.066362,0.019589,0.055643,-0.28865,0.055318,0.042975
1403,0.18816,0.049147,0.020239,0.054344,-0.36628,0.036154,0.040702
1404,0.17777,0.026085,0.01829,0.044599,-0.44099,0.011794,0.035505
1405,0.13717,0.0010752,0.012119,0.032257,-0.50043,-0.019063,0.029333
1406,0.073832,-0.020687,0.0014,0.023487,-0.52674,-0.055441,0.023812
1407,0.0020496,-0.034004,-0.013216,0.019914,-0.50205,-0.084349,0.021863
1408,-0.060638,-0.034654,-0.024909,0.019264,-0.41046,-0.098965,0.025111
1409,-0.10221,-0.029457,-0.027833,0.021213,-0.25033,-0.098641,0.032257
1410,-0.12105,-0.029457,-0.023935,0.021538,-0.040825,-0.092794,0.039727
1411,-0.1243,-0.037577,-0.018413,0.018615,0.18134,-0.087597,0.041027
1412,-0.11878,-0.051868,-0.01549,0.014392,0.37655,-0.086948,0.030957
1413,-0.10741,-0.069733,-0.011917,0.011469,0.5146,-0.09117,0.014717
1414,-0.088247,-0.084674,-0.008669,0.011144,0.59385,-0.097017,0.0020496
1415,-0.059989,-0.092794,-0.0083442,0.013093,0.62276,-0.10254,-0.0011985
1416,-0.022961,-0.097017,-0.013541,0.017316,0.60847,-0.10059,0.0056225
1417,0.012443,-0.10416,-0.021661,0.021863,0.56234,-0.09117,0.019589
1418,0.038428,-0.11326,-0.030106,0.024461,0.49316,-0.081101,0.03583
1419,0.052395,-0.11521,-0.034654,0.022512,0.40091,-0.077528,0.045249
1420,0.06019,-0.096692,-0.034654,0.013743,0.28073,-0.083375,0.042001
1421,0.070259,-0.053168,-0.029457,-0.0047713,0.11703,-0.092145,0.029333
1422,0.086824,0.01017,-0.022636,-0.029132,-0.11131,-0.10254,0.014717
1423,0.10761,0.078704,-0.015815,-0.054467,-0.41598,-0.12138,0.00042559
1424,0.12353,0.13425,-0.010943,-0.077853,-0.78918,-0.14964,-0.016789
1425,0.1297,0.16153,-0.0083442,-0.092145,-1.188,-0.17984,-0.034329
1426,0.13067,0.15893,-0.0080194,-0.095068,-1.5505,-0.20225,-0.045372
1427,0.13165,0.13912,-0.0089938,-0.084024,-1.8243,-0.21232,-0.046347
1428,0.12872,0.11833,-0.010293,-0.068434,-1.9968,-0.21362,-0.037577
1429,0.11443,0.10079,-0.0099683,-0.05804,-2.0722,-0.20648,-0.019712
1430,0.079029,0.082602,-0.007045,-0.05739,-2.0325,-0.19576,0.0020496
1431,0.019589,0.059865,-0.0037969,-0.065186,-1.8364,-0.18601,0.021538
1432,-0.050894,0.032257,0.00042559,-0.076554,-1.4599,-0.17887,0.036804
1433,-0.11586,0.00010078,0.0059473,-0.085648,-0.94152,-0.17107,0.040702
1434,-0.16133,-0.026209,0.012119,-0.086298,-0.3783,-0.15613,0.033231
1435,-0.18504,-0.041799,0.017965,-0.080776,0.10924,-0.12755,0.024461
1436,-0.18829,-0.043423,0.01829,-0.069083,0.43242,-0.082725,0.024786
1437,-0.17757,-0.038551,0.012443,-0.056416,0.57209,-0.030431,0.030308
1438,-0.16068,-0.036927,-0.00022403,-0.047646,0.56527,0.017316,0.03453
1439,-0.14184,-0.045372,-0.019063,-0.046022,0.46815,0.048822,0.030633
1440,-0.11975,-0.06551,-0.039851,-0.052518,0.34472,0.066037,0.017965
1441,-0.089221,-0.088572,-0.056416,-0.062262,0.25605,0.06831,0.003024
1442,-0.054467,-0.10514,-0.068758,-0.070058,0.24436,0.058891,-0.0096434
1443,-0.02361,-0.10514,-0.077853,-0.071682,0.32263,0.040377,-0.019712
1444,-0.0067202,-0.086298,-0.080451,-0.062912,0.46815,0.024137,-0.03238
1445,-0.0044465,-0.051219,-0.072656,-0.043748,0.63445,0.015367,-0.047321
1446,-0.010943,-0.0089938,-0.055116,-0.017764,0.77379,0.016016,-0.062587
1447,-0.013866,0.029333,-0.036602,0.0033489,0.86344,0.022188,-0.077203
1448,-0.0063954,0.057267,-0.022961,0.015367,0.8956,0.028034,-0.092145
1449,0.013418,0.072208,-0.019712,0.018615,0.87871,0.023487,-0.10774
1450,0.03583,0.077405,-0.021012,0.018615,0.82933,0.0072465,-0.11878
1451,0.047198,0.07773,-0.020362,0.025436,0.76795,-0.013216,-0.12008
1452,0.041676,0.072208,-0.010943,0.037129,0.70753,-0.025884,-0.11098
1453,0.021538,0.063763,0.0056225,0.048822,0.64744,-0.028157,-0.094418
1454,-0.0044465,0.05207,0.025436,0.055968,0.58313,-0.021337,-0.073955
1455,-0.026533,0.040702,0.04395,0.055968,0.50713,-0.010943,-0.054792
1456,-0.035628,0.033556,0.054993,0.05272,0.41845,-0.0018481,-0.042124
1457,-0.024909,0.030957,0.054668,0.047523,0.32491,-0.00022403,-0.037577
1458,0.0033489,0.029983,0.043625,0.041351,0.24988,-0.0063954,-0.037902
1459,0.037454,0.024461,0.029658,0.033556,0.22,-0.015815,-0.037902
1460,0.057592,0.013418,0.016991,0.026735,0.24111,-0.021661,-0.034978
1461,0.059865,0.0014,0.0085458,0.022188,0.3038,-0.021012,-0.029457
1462,0.052395,-0.0050961,-0.0015233,0.019914,0.38467,-0.014516,-0.026209
1463,0.045249,-0.0044465,-0.0096434,0.01894,0.4584,-0.0057458,-0.026209
1464,0.044599,0.00075039,-0.015165,0.020888,0.49933,0.00042559,-0.029782
1465,0.047198,0.0052977,-0.01484,0.027709,0.49576,0.011144,-0.032055
1466,0.044275,0.0085458,-0.0076946,0.042001,0.45581,0.029333,-0.028807
1467,0.02706,0.011144,0.0088706,0.062789,0.39409,0.054668,-0.020037
1468,-0.0034721,0.013743,0.033231,0.08585,0.32621,0.082277,-0.008669
1469,-0.036278,0.015367,0.059865,0.10469,0.26774,0.10566,-0.00087364
1470,-0.059339,0.017316,0.083251,0.11703,0.22519,0.11963,-0.0015233
1471,-0.064861,0.021538,0.094945,0.12353,0.20376,0.12548,-0.0054209
1472,-0.055116,0.028359,0.09397,0.12937,0.19726,0.12872,-0.0044465
1473,-0.038876,0.034855,0.083901,0.13912,0.19726,0.13035,0.0033489
1474,-0.027833,0.039727,0.071883,0.15049,0.19596,0.13035,0.016991
1475,-0.024585,0.039078,0.057917,0.15731,0.18914,0.13262,0.031932
1476,-0.025234,0.034206,0.045899,0.15731,0.17745,0.13782,0.042651
1477,-0.02426,0.024786,0.038103,0.14984,0.16348,0.14464,0.046223
1478,-0.023935,0.010495,0.03583,0.13749,0.14724,0.14594,0.0433
1479,-0.021012,-0.0063954,0.033231,0.11963,0.1271,0.14009,0.03453
1480,-0.013866,-0.020362,0.025761,0.10014,0.10144,0.12645,0.024137
1481,0.0020496,-0.029132,0.0091954,0.082602,0.074806,0.11151,0.015692
1482,0.025436,-0.035303,-0.0080194,0.06896,0.065387,0.10079,0.011469
1483,0.051745,-0.041475,-0.020362,0.059216,0.094295,0.095269,0.009845
1484,0.072533,-0.04927,-0.025884,0.050446,0.1716,0.092346,0.009845
1485,0.084876,-0.04992,-0.026533,0.040702,0.28561,0.092346,0.011794
1486,0.09397,-0.035953,-0.023935,0.029983,0.41033,0.098193,0.017316
1487,0.10112,-0.0057458,-0.019063,0.01829,0.51622,0.11151,0.022837
1488,0.10371,0.03453,-0.012242,0.0078962,0.57793,0.12872,0.026735
1489,0.10079,0.07773,-0.0041217,0.0023744,0.58216,0.14172,0.029009
1490,0.091047,0.11378,0.0065969,0.0026992,0.52824,0.14399,0.033231
1491,0.073507,0.13717,0.017965,0.009845,0.42657,0.13879,0.037129
1492,0.049147,0.14659,0.028034,0.023487,0.28528,0.13392,0.039727
1493,0.025436,0.14334,0.03583,0.042326,0.1219,0.1297,0.039402
1494,0.009845,0.131,0.041351,0.057917,-0.052843,0.1232,0.036154
1495,-0.0015233,0.11151,0.0433,0.066686,-0.23668,0.11248,0.030633
1496,-0.013541,0.088448,0.040377,0.063438,-0.42475,0.099167,0.020239
1497,-0.025559,0.063763,0.032257,0.054993,-0.60047,0.081303,0.0078962
1498,-0.035628,0.042001,0.019914,0.045899,-0.73137,0.064413,0.00042559
1499,-0.038876,0.025111,0.0075714,0.039727,-0.78691,0.052395,0.0049729
1500,-0.035628,0.0091954,-0.0034721,0.037129,-0.74501,0.042326,0.021538
1501,-0.029457,-0.010618,-0.012242,0.034855,-0.61249,0.031282,0.040702
1502,-0.020037,-0.036278,-0.021012,0.027385,-0.44781,0.017316,0.053694
1503,-0.0076946,-0.061937,-0.03173,0.012119,-0.33607,-0.0054209,0.054668
1504,0.0033489,-0.079802,-0.042124,-0.0076946,-0.33185,-0.038551,0.041351
1505,0.0088706,-0.080776,-0.046671,-0.029782,-0.41988,-0.082076,0.015692
1506,0.0078962,-0.060313,-0.045047,-0.052193,-0.52869,-0.13015,-0.019063
1507,0.003024,-0.021337,-0.036927,-0.072656,-0.57156,-0.17594,-0.05739
1508,-0.0054209,0.026735,-0.027833,-0.086623,-0.51245,-0.212,-0.090521
1509,-0.016789,0.069934,-0.023285,-0.093119,-0.37538,-0.23474,-0.11293
1510,-0.03173,0.091696,-0.023935,-0.092794,-0.21362,-0.24058,-0.12138
1511,-0.045372,0.083576,-0.028482,-0.084674,-0.0837,-0.23279,-0.11813
1512,-0.059014,0.046873,-0.033679,-0.070707,-0.017764,-0.21785,-0.10903
1513,-0.068434,-0.0034721,-0.035303,-0.056416,-0.017764,-0.20063,-0.096692
1514,-0.068758,-0.052193,-0.031406,-0.04992,-0.06551,-0.17724,-0.0824
1515,-0.057065,-0.086948,-0.021661,-0.053492,-0.14281,-0.14379,-0.068434
1516,-0.033354,-0.10254,-0.011267,-0.059989,-0.24123,-0.10384,-0.053817
1517,0.0010752,-0.098641,-0.0054209,-0.062587,-0.36856,-0.063886,-0.038227
1518,0.037129,-0.080451,-0.0031473,-0.05739,-0.53486,-0.029132,-0.022311
1519,0.066686,-0.057065,-0.0018481,-0.053168,-0.71675,-0.0024977,-0.0067202
1520,0.080653,-0.039201,-0.0018481,-0.054142,-0.85674,0.013093,0.0085458
1521,0.076755,-0.028157,-0.0031473,-0.061288,-0.90254,0.016991,0.020564
1522,0.060515,-0.023935,-0.0050961,-0.072331,-0.83141,0.012443,0.024137
1523,0.042651,-0.024585,-0.008669,-0.085324,-0.66673,0.0075714,0.017316
1524,0.032582,-0.025559,-0.012242,-0.097991,-0.4556,0.0075714,0.003024
1525,0.032906,-0.02361,-0.01614,-0.10644,-0.24708,0.011794,-0.010943
1526,0.037454,-0.020362,-0.019063,-0.10741,-0.070382,0.016991,-0.019712
1527,0.040377,-0.017439,-0.022636,-0.10254,0.059216,0.021538,-0.019063
1528,0.038753,-0.01614,-0.027833,-0.093119,0.14334,0.021213,-0.011592
1529,0.030957,-0.020362,-0.029457,-0.080776,0.19011,0.013093,-0.0057458
1530,0.019264,-0.034978,-0.025884,-0.070058,0.21902,0.00010078,-0.0060706
1531,0.0088706,-0.059664,-0.021661,-0.066485,0.24533,-0.018413,-0.0089938
1532,0.0026992,-0.085324,-0.023935,-0.068434,0.27781,-0.038876,-0.012567
1533,0.0059473,-0.097666,-0.028482,-0.071682,0.31939,-0.056091,-0.016789
1534,0.011469,-0.090845,-0.027508,-0.070707,0.36291,-0.06681,-0.020687
1535,0.015042,-0.068109,-0.022961,-0.062912,0.39442,-0.069733,-0.026858
1536,0.013418,-0.038227,-0.01484,-0.048296,0.40481,-0.068434,-0.034004
1537,0.0078962,-0.0080194,-0.0015233,-0.030756,0.39344,-0.060313,-0.03238
1538,0.0023744,0.018615,0.014068,-0.012892,0.36194,-0.045047,-0.015815
1539,-0.0021729,0.041351,0.025436,0.0072465,0.31257,-0.023285,0.012443
1540,-0.0067202,0.056942,0.031282,0.029333,0.2515,-0.0028225,0.042975
1541,-0.016789,0.063113,0.031607,0.049147,0.18037,0.0069217,0.067986
1542,-0.030756,0.055643,0.026085,0.058891,0.097868,0.0039985,0.080003
1543,-0.04115,0.039727,0.015042,0.057592,-0.0063954,-0.013541,0.086175
1544,-0.039526,0.019914,0.0056225,0.047847,-0.14606,-0.044723,0.089098
1545,-0.029457,-0.0024977,0.0014,0.03453,-0.32211,-0.085324,0.092671
1546,-0.018413,-0.025884,-0.00087364,0.024461,-0.51764,-0.12495,0.095919
1547,-0.0093186,-0.045047,-0.0034721,0.023487,-0.69629,-0.15288,0.099167
1548,-0.0024977,-0.053492,-0.0054209,0.029009,-0.81874,-0.16295,0.10144
1549,0.0056225,-0.055441,-0.0047713,0.032906,-0.85154,-0.15191,0.10242
1550,0.014068,-0.056416,-0.0024977,0.029658,-0.78918,-0.12235,0.10274
1551,0.020239,-0.058365,-0.0021729,0.021213,-0.65146,-0.082725,0.10371
1552,0.015042,-0.065186,-0.0054209,0.014392,-0.47379,-0.041475,0.10339
1553,-0.007045,-0.078178,-0.010943,0.014392,-0.29385,-0.0047713,0.10177
1554,-0.040175,-0.094418,-0.016789,0.025436,-0.13632,0.024137,0.097218
1555,-0.066485,-0.10416,-0.026209,0.044599,-0.012567,0.048822,0.088773
1556,-0.075255,-0.10319,-0.037252,0.062789,0.075781,0.072858,0.082602
1557,-0.059664,-0.089871,-0.044073,0.06961,0.13684,0.097543,0.082927
1558,-0.029782,-0.065835,-0.043099,0.064413,0.18199,0.11671,0.091372
1559,-0.0024977,-0.033679,-0.03173,0.054344,0.22552,0.12093,0.10047
1560,0.0049729,0.0017248,-0.013866,0.045899,0.28138,0.11021,0.10306
1561,-0.012567,0.032906,0.0052977,0.040377,0.35219,0.091696,0.095919
1562,-0.04862,0.055318,0.020239,0.036154,0.43112,0.073182,0.080653
1563,-0.088247,0.066362,0.032906,0.034855,0.5055,0.059216,0.063438
1564,-0.11261,0.06961,0.045574,0.039727,0.56429,0.047847,0.053044
1565,-0.10968,0.072533,0.056617,0.050446,0.60164,0.038428,0.05207
1566,-0.0824,0.076755,0.065062,0.062464,0.61983,0.027709,0.057917
1567,-0.042774,0.082927,0.065062,0.071883,0.61821,0.015692,0.067011
1568,-0.0021729,0.086824,0.058566,0.073507,0.60262,0.008221,0.078055
1569,0.028034,0.084551,0.047847,0.067986,0.58313,0.0075714,0.08585
1570,0.041676,0.074806,0.03453,0.059216,0.56624,0.010819,0.084876
1571,0.042975,0.059865,0.020239,0.05142,0.54968,0.015042,0.073507
1572,0.040377,0.043625,0.0052977,0.042326,0.53636,0.022837,0.058241
1573,0.041351,0.031607,-0.0044465,0.03518,0.51752,0.03453,0.048172
1574,0.042326,0.024461,-0.010293,0.030633,0.46815,0.045249,0.047198
1575,0.039402,0.023812,-0.014191,0.030633,0.35414,0.049147,0.054668
1576,0.034855,0.024786,-0.012567,0.034855,0.15536,0.045249,0.067986
1577,0.031282,0.023487,-0.0060706,0.039727,-0.10936,0.036154,0.080653
1578,0.028034,0.018615,-0.0018481,0.041676,-0.38837,0.024786,0.086824
1579,0.021538,0.011469,-0.0028225,0.041027,-0.61314,0.014392,0.082602
1580,0.0095202,0.0065969,-0.011267,0.037129,-0.72714,0.01017,0.070584
1581,-0.0067202,0.0056225,-0.021337,0.031282,-0.70506,0.017965,0.054668
1582,-0.02361,0.0095202,-0.027508,0.026735,-0.56799,0.037129,0.042001
1583,-0.034004,0.01894,-0.029132,0.022837,-0.36498,0.06084,0.034206
1584,-0.039526,0.028684,-0.027833,0.022512,-0.15613,0.082602,0.028684
1585,-0.042774,0.035505,-0.027183,0.022512,0.012443,0.098842,0.022512
1586,-0.043748,0.038103,-0.023935,0.024137,0.12353,0.10891,0.014392
1587,-0.039201,0.041351,-0.016789,0.025761,0.17874,0.11118,0.0059473
1588,-0.027508,0.044924,-0.0047713,0.025111,0.19466,0.10891,-0.0018481
1589,-0.0093186,0.049147,0.0062721,0.024461,0.18524,0.10339,-0.0067202
1590,0.015367,0.049147,0.013418,0.023487,0.15601,0.098517,-0.0073698
1591,0.042651,0.050771,0.014068,0.021213,0.10989,0.091372,-0.0057458
1592,0.067986,0.054993,0.011144,0.01764,0.046223,0.080978,-0.0050961
1593,0.0852,0.062139,0.0088706,0.01829,-0.030431,0.066686,-0.011592
1594,0.091372,0.072208,0.010819,0.027385,-0.10968,0.051096,-0.028482
1595,0.086175,0.083576,0.016016,0.042326,-0.17854,0.036479,-0.050894
1596,0.07773,0.094945,0.024137,0.06019,-0.23376,0.025111,-0.070382
1597,0.075781,0.10112,0.033556,0.075456,-0.27728,0.021538,-0.080127
1598,0.0852,0.096569,0.042975,0.0852,-0.30067,0.021863,-0.076879
1599,0.10209,0.082602,0.047523,0.08585,-0.28476,0.023812,-0.06681
1600,0.11573,0.068635,0.044924,0.076431,-0.21817,0.022837,-0.056741
1601,0.11671,0.056617,0.036154,0.058891,-0.10546,0.01894,-0.050244
1602,0.10306,0.048497,0.021863,0.038103,0.032257,0.012768,-0.045047
1603,0.076431,0.042326,0.0091954,0.019264,0.17322,0.0088706,-0.043748
1604,0.039078,0.038103,0.0039985,0.0075714,0.29113,0.0052977,-0.044073
1605,-0.00022403,0.033881,0.0069217,0.00042559,0.36518,0.00010078,-0.045697
1606,-0.033354,0.026735,0.013093,-0.0083442,0.38272,-0.010943,-0.047321
1607,-0.050894,0.017965,0.016991,-0.020687,0.3392,-0.034329,-0.04992
1608,-0.047971,0.0095202,0.013743,-0.033354,0.23754,-0.068758,-0.053817
1609,-0.024585,0.0049729,0.0020496,-0.045047,0.091696,-0.10319,-0.058689
1610,0.0091954,0.0036737,-0.015165,-0.055116,-0.074605,-0.12755,-0.061937
1611,0.045574,0.0069217,-0.032055,-0.063561,-0.23116,-0.13957,-0.063886
1612,0.079029,0.012768,-0.043748,-0.069408,-0.35199,-0.14639,-0.061288
1613,0.10631,0.020564,-0.047646,-0.068434,-0.41955,-0.14834,-0.053817
1614,0.12807,0.027385,-0.044073,-0.061613,-0.43092,-0.14411,-0.046671
1615,0.14074,0.031932,-0.034654,-0.053168,-0.38869,-0.12852,-0.044723
1616,0.13879,0.035505,-0.021986,-0.043423,-0.29515,-0.10449,-0.046671
1617,0.11931,0.041027,-0.011267,-0.032705,-0.14639,-0.077203,-0.052843
1618,0.087474,0.047523,0.00010078,-0.023285,0.047847,-0.055116,-0.061613
1619,0.050121,0.053044,0.010819,-0.018413,0.26125,-0.043099,-0.071357
1620,0.019264,0.053044,0.020239,-0.017764,0.45613,-0.041799,-0.076554
1621,-0.00022403,0.048822,0.027709,-0.01549,0.59645,-0.046022,-0.076554
1622,-0.008669,0.038753,0.029658,-0.008669,0.65946,-0.054467,-0.075255
1623,-0.010618,0.020564,0.026735,0.0020496,0.64874,-0.059989,-0.072331
1624,-0.012567,-0.0034721,0.022188,0.009845,0.5841,-0.061613,-0.072981
1625,-0.020037,-0.027183,0.01894,0.013418,0.48796,-0.062262,-0.07493
1626,-0.036602,-0.044723,0.012768,0.015367,0.37103,-0.063561,-0.073631
1627,-0.05804,-0.054467,0.0020496,0.016016,0.24078,-0.066485,-0.070707
1628,-0.075579,-0.057065,-0.0073698,0.015042,0.11443,-0.071032,-0.064211
1629,-0.0824,-0.057715,-0.012242,0.014068,0.0052977,-0.076554,-0.057065
1630,-0.080451,-0.058365,-0.010618,0.014068,-0.081101,-0.0837,-0.050244
1631,-0.068434,-0.057715,-0.0076946,0.011794,-0.15223,-0.09182,-0.048945
1632,-0.050894,-0.056741,-0.0054209,0.0072465,-0.22434,-0.10026,-0.050244
1633,-0.034004,-0.057715,-0.0028225,0.00075039,-0.29937,-0.11033,-0.050244
1634,-0.022311,-0.059014,-0.0034721,-0.0057458,-0.3377,-0.12463,-0.046671
1635,-0.013216,-0.060313,-0.0063954,-0.0099683,-0.2958,-0.13534,-0.040175
1636,-0.0050961,-0.057065,-0.0099683,-0.0044465,-0.1636,-0.13404,-0.025884
1637,-0.00054884,-0.046671,-0.0096434,0.0075714,0.019264,-0.12008,-0.0060706
1638,0.0049729,-0.026533,-0.0034721,0.019589,0.19076,-0.099615,0.015692
1639,0.0091954,0.00075039,0.0062721,0.024786,0.30152,-0.078503,0.031282
1640,0.013743,0.033231,0.017316,0.028359,0.32718,-0.061937,0.038753
1641,0.016016,0.062464,0.025761,0.032257,0.27554,-0.051544,0.041351
1642,0.010819,0.080978,0.028684,0.030957,0.18459,-0.045372,0.046223
1643,-0.0047713,0.083576,0.023487,0.021213,0.095594,-0.038227,0.05142
1644,-0.028482,0.074806,0.010819,0.0046481,0.025436,-0.032705,0.055318
1645,-0.050894,0.058241,-0.0024977,-0.012242,-0.03303,-0.029782,0.054668
1646,-0.059989,0.036804,-0.010293,-0.023285,-0.11001,-0.027508,0.046548
1647,-0.051544,0.009845,-0.011267,-0.025884,-0.23928,-0.022961,0.03453
1648,-0.032705,-0.019712,-0.0096434,-0.022961,-0.42572,-0.013866,0.025761
1649,-0.015165,-0.049595,-0.0067202,-0.017114,-0.64464,0.0026992,0.029333
1650,-0.0073698,-0.07428,-0.0031473,-0.0073698,-0.84667,0.026735,0.042975
1651,-0.0096434,-0.090521,0.0020496,0.0056225,-0.98147,0.050446,0.058241
1652,-0.017114,-0.098965,0.008221,0.013093,-1.0052,0.059541,0.066686
1653,-0.020362,-0.10254,0.009845,0.0043233,-0.90156,0.044924,0.06084
1654,-0.017439,-0.10449,-0.00054884,-0.024585,-0.69141,0.012768,0.041027
1655,-0.012567,-0.10416,-0.020687,-0.064211,-0.4202,-0.02426,0.013093
1656,-0.008669,-0.097991,-0.039851,-0.10189,-0.13924,-0.052518,-0.014516
1657,-0.0083442,-0.080776,-0.052518,-0.12268,0.11118,-0.062587,-0.034329
1658,-0.010618,-0.053817,-0.054467,-0.123,0.31029,-0.053817,-0.043423
1659,-0.016464,-0.020037,-0.045372,-0.10124,0.45093,-0.038551,-0.038876
1660,-0.025559,0.013743,-0.029782,-0.062262,0.54383,-0.023935,-0.022636
1661,-0.034329,0.038428,-0.01484,-0.018088,0.59385,-0.012567,0.00042559
1662,-0.048296,0.05142,-0.0044465,0.018615,0.60879,-0.0034721,0.023162
1663,-0.066485,0.054019,0.0020496,0.039402,0.59515,0.0052977,0.041676
1664,-0.079152,0.053694,0.0078962,0.040702,0.55195,0.013418,0.051096
1665,-0.079477,0.050771,0.014068,0.030957,0.48244,0.024786,0.051745
1666,-0.065835,0.045574,0.021213,0.025111,0.38825,0.038428,0.04395
1667,-0.044398,0.037454,0.027385,0.029009,0.27261,0.054668,0.03518
1668,-0.024585,0.02706,0.03453,0.041351,0.14626,0.070584,0.030308
1669,-0.011592,0.016016,0.042001,0.06019,0.020564,0.090722,0.032582
1670,-0.0050961,0.0059473,0.047523,0.078704,-0.095068,0.11378,0.041676
1671,-0.0018481,-0.0031473,0.05142,0.088124,-0.19381,0.13425,0.05272
1672,-0.00054884,-0.010618,0.052395,0.084551,-0.27046,0.14594,0.061165
1673,0.00075039,-0.016464,0.050771,0.070909,-0.32666,0.14561,0.064737
1674,0.0026992,-0.023935,0.048497,0.055318,-0.37148,0.13197,0.062464
1675,0.0049729,-0.033354,0.043625,0.0433,-0.40818,0.11346,0.057917
1676,0.0026992,-0.045697,0.031932,0.037129,-0.42832,0.10144,0.053369
1677,-0.0047713,-0.058689,0.012119,0.033231,-0.42312,0.096569,0.050446
1678,-0.013216,-0.066485,-0.0096434,0.028684,-0.38869,0.092996,0.046548
1679,-0.022311,-0.064861,-0.024909,0.025111,-0.3351,0.087149,0.039727
1680,-0.028807,-0.057065,-0.029132,0.021538,-0.30067,0.078055,0.027709
1681,-0.039201,-0.044398,-0.025559,0.018615,-0.32503,0.066037,0.016016
1682,-0.055441,-0.03238,-0.01614,0.01764,-0.40396,0.053694,0.0036737
1683,-0.073955,-0.023285,-0.0034721,0.019914,-0.48516,0.040052,-0.0093186
1684,-0.087922,-0.015815,0.010495,0.021538,-0.49783,0.024461,-0.024909
1685,-0.09182,-0.013541,0.019914,0.017965,-0.39844,0.0072465,-0.043099
1686,-0.080776,-0.019388,0.016666,0.0059473,-0.20745,-0.0099683,-0.059664
1687,-0.046996,-0.038551,-0.0034721,-0.012567,0.0088706,-0.018088,-0.070707
1688,0.009845,-0.064211,-0.033354,-0.033354,0.17582,-0.015815,-0.073631
1689,0.081627,-0.077203,-0.061937,-0.04927,0.23883,-0.0021729,-0.065186
1690,0.14464,-0.062262,-0.078178,-0.057065,0.18654,0.014717,-0.043423
1691,0.17355,-0.022961,-0.0824,-0.057715,0.054668,0.028359,-0.017114
1692,0.15731,0.026735,-0.078827,-0.051868,-0.098965,0.032582,0.0039985
1693,0.11248,0.070584,-0.071357,-0.036927,-0.212,0.030633,0.018615
1694,0.062139,0.099492,-0.058689,-0.01484,-0.2539,0.022188,0.027385
1695,0.021863,0.11833,-0.038876,0.0075714,-0.23084,0.009845,0.033556
1696,-0.00087364,0.13425,-0.013541,0.025436,-0.16847,-0.0073698,0.032582
1697,-0.0024977,0.15406,0.015042,0.039727,-0.090845,-0.028807,0.021213
1698,0.012443,0.17907,0.039402,0.047847,-0.013216,-0.051868,0.0017248
1699,0.032906,0.20051,0.055318,0.050446,0.058241,-0.070058,-0.020687
1700,0.050121,0.20798,0.059541,0.047847,0.12255,-0.081101,-0.039851
1701,0.060515,0.19369,0.051745,0.039402,0.17192,-0.089871,-0.051544
1702,0.067336,0.15991,0.033231,0.024137,0.19888,-0.10286,-0.057715
1703,0.070584,0.11248,0.0043233,0.0052977,0.2057,-0.12268,-0.059339
1704,0.067986,0.059541,-0.028482,-0.011592,0.2057,-0.14476,-0.059014
1705,0.054019,0.009845,-0.050894,-0.020687,0.2109,-0.1623,-0.053817
1706,0.026735,-0.029782,-0.056416,-0.016789,0.22422,-0.1727,-0.04115
1707,-0.0073698,-0.050569,-0.045047,0.0020496,0.23234,-0.17237,-0.018088
1708,-0.038551,-0.048296,-0.027183,0.028034,0.22065,-0.16555,0.0072465
1709,-0.060963,-0.030106,-0.010293,0.049472,0.18719,-0.15581,0.029009
1710,-0.082076,-0.0076946,0.0020496,0.055643,0.14367,-0.14216,0.039402
1711,-0.11066,0.0085458,0.0062721,0.051096,0.10469,-0.12203,0.037129
1712,-0.15191,0.016016,0.00010078,0.044599,0.088448,-0.089546,0.028034
1713,-0.19641,0.017316,-0.008669,0.042326,0.095919,-0.044073,0.020239
1714,-0.22921,0.013093,-0.012242,0.045574,0.12093,0.0078962,0.01894
1715,-0.23246,0.0052977,-0.0050961,0.053694,0.15211,0.057917,0.023162
1716,-0.20323,-0.0054209,0.0078962,0.063763,0.1781,0.10242,0.032257
1717,-0.15321,-0.015815,0.020239,0.071234,0.19109,0.13749,0.041351
1718,-0.087597,-0.022636,0.027385,0.075131,0.18849,0.15763,0.047523
1719,-0.0083442,-0.017439,0.029009,0.073182,0.16608,0.1638,0.049472
1720,0.076106,0.0059473,0.024786,0.064413,0.12093,0.15958,0.05272
1721,0.15666,0.041676,0.021538,0.050771,0.050446,0.14756,0.060515
1722,0.23234,0.080653,0.020564,0.034206,-0.051544,0.1258,0.070909
1723,0.29925,0.11151,0.022512,0.019589,-0.19576,0.096569,0.07708
1724,0.35317,0.12905,0.026735,0.011144,-0.36628,0.066686,0.073182
1725,0.37883,0.131,0.029333,0.0072465,-0.52057,0.042651,0.059865
