,channel_1,channel_2,channel_3,channel_4,channel_5,channel_6,channel_7
0,-0.013216,-0.035953,0.60652,0.013418,-0.12495,0.10826,0.013743
1,-0.019063,-0.035953,0.55585,0.013418,-0.059664,0.12775,0.019589
2,-0.022636,-0.031406,0.44119,0.010819,-0.0011985,0.14074,0.022837
3,-0.023935,-0.02361,0.30607,0.0033489,0.036804,0.14399,0.023162
4,-0.02426,-0.014516,0.18784,-0.0054209,0.05142,0.14172,0.022188
5,-0.022311,-0.0050961,0.10664,-0.010618,0.048497,0.13912,0.020888
6,-0.018413,0.0046481,0.063438,-0.0047713,0.036154,0.13717,0.021538
7,-0.010943,0.012119,0.049147,0.010819,0.021538,0.13327,0.026085
8,-0.0028225,0.01764,0.050771,0.026735,0.010819,0.12515,0.036154
9,0.0026992,0.023162,0.06019,0.03583,0.011144,0.11248,0.049472
10,0.0043233,0.029333,0.054993,0.037129,0.025111,0.099492,0.057917
11,0.00042559,0.036479,-0.0024977,0.030633,0.045574,0.088124,0.059216
12,-0.0067202,0.041676,-0.13729,0.024786,0.060515,0.07773,0.055318
13,-0.012242,0.040052,-0.32048,0.017965,0.057592,0.067986,0.050446
14,-0.013541,0.031607,-0.46665,0.011794,0.035505,0.058891,0.048172
15,-0.0099683,0.020564,-0.49231,0.0036737,-0.0024977,0.05272,0.050121
16,-0.0054209,0.011794,-0.37992,-0.0018481,-0.044398,0.042651,0.058241
17,-0.0011985,0.008221,-0.18601,-0.0037969,-0.076554,0.029983,0.070259
18,0.0049729,0.013743,0.0065969,0.003024,-0.09117,0.020564,0.0852
19,0.01017,0.023812,0.13522,0.016016,-0.090845,0.016341,0.095919
20,0.011144,0.032257,0.18459,0.029658,-0.080451,0.012119,0.099167
21,0.0085458,0.035505,0.18167,0.041676,-0.06616,0.0020496,0.094945
22,0.0036737,0.034855,0.16056,0.05207,-0.052843,-0.015165,0.083251
23,0.00010078,0.033556,0.13912,0.061165,-0.04115,-0.034654,0.067986
24,-0.0024977,0.034855,0.11995,0.065062,-0.028807,-0.047971,0.051096
25,-0.0034721,0.040702,0.10047,0.066362,-0.0096434,-0.048296,0.037778
26,-0.0018481,0.051745,0.082927,0.067011,0.012119,-0.039526,0.030957
27,0.0052977,0.062464,0.077405,0.065712,0.028684,-0.028807,0.02706
28,0.015692,0.067661,0.091047,0.056942,0.035505,-0.021986,0.024137
29,0.02706,0.064088,0.11541,0.041351,0.023487,-0.022311,0.023812
30,0.032582,0.054344,0.13847,0.021863,-0.0057458,-0.031081,0.025761
31,0.031932,0.046223,0.15179,0.0036737,-0.046996,-0.042124,0.026085
32,0.027385,0.044924,0.15016,-0.011267,-0.092145,-0.053168,0.024461
33,0.020888,0.05142,0.1349,-0.024909,-0.1334,-0.06551,0.022188
34,0.016016,0.059216,0.11346,-0.035303,-0.16328,-0.079477,0.021538
35,0.014717,0.064413,0.091372,-0.038227,-0.18082,-0.091495,0.020564
36,0.014717,0.064413,0.075456,-0.03238,-0.18699,-0.093119,0.020239
37,0.014392,0.059865,0.063438,-0.016464,-0.17952,-0.082725,0.018615
38,0.014717,0.052395,0.050771,0.00075039,-0.16165,-0.067134,0.012443
39,0.014717,0.0433,0.030308,0.011469,-0.14314,-0.051868,0.00042559
40,0.014392,0.031607,0.0033489,0.014392,-0.12885,-0.045372,-0.012892
41,0.017316,0.01829,-0.027833,0.0078962,-0.11715,-0.047646,-0.020037
42,0.01894,0.0049729,-0.059664,-0.0011985,-0.10611,-0.053817,-0.022961
43,0.012768,-0.0073698,-0.087272,-0.0080194,-0.086948,-0.054142,-0.02426
44,0.0023744,-0.01484,-0.10351,-0.012242,-0.058689,-0.04992,-0.023285
45,-0.0054209,-0.01614,-0.10481,-0.012242,-0.024585,-0.044723,-0.018413
46,-0.0067202,-0.010943,-0.096367,-0.0099683,0.0085458,-0.043748,-0.012242
47,-0.0034721,-0.0054209,-0.087597,-0.0044465,0.038753,-0.050569,-0.011592
48,-0.00054884,-0.00022403,-0.084999,0.0014,0.069934,-0.062262,-0.01549
49,0.00010078,0.0023744,-0.085648,0.008221,0.10339,-0.072331,-0.023935
50,-0.00054884,0.0036737,-0.086298,0.016016,0.13717,-0.075904,-0.032705
51,-0.0018481,0.0052977,-0.088247,0.024786,0.16185,-0.073955,-0.037252
52,-0.0037969,0.0062721,-0.089221,0.033231,0.16738,-0.070382,-0.034004
53,-0.0047713,0.0059473,-0.090196,0.037129,0.15373,-0.068434,-0.025234
54,-0.0041217,0.0026992,-0.090521,0.033556,0.12418,-0.067784,-0.015165
55,-0.0011985,-0.00022403,-0.092469,0.025436,0.081303,-0.06681,-0.0050961
56,0.0046481,-0.0015233,-0.094743,0.019264,0.02706,-0.064861,0.0020496
57,0.0095202,-0.00022403,-0.095717,0.017316,-0.036602,-0.060638,0.0033489
58,0.013418,0.0010752,-0.096367,0.019264,-0.11488,-0.057715,-0.00022403
59,0.016341,-0.0021729,-0.09182,0.025111,-0.21037,-0.055441,-0.0047713
60,0.01829,-0.011267,-0.080776,0.029983,-0.31496,-0.054792,-0.007045
61,0.017965,-0.018738,-0.067459,0.032906,-0.40688,-0.054467,-0.0041217
62,0.011469,-0.023935,-0.059664,0.03583,-0.46535,-0.049595,0.0023744
63,0.0026992,-0.020037,-0.060313,0.038103,-0.48386,-0.043099,0.0069217
64,-0.0015233,-0.010943,-0.061613,0.041676,-0.47379,-0.039526,0.0088706
65,0.0020496,0.00042559,-0.037902,0.042975,-0.44813,-0.039526,0.010819
66,0.012443,0.011144,0.024461,0.038428,-0.41176,-0.040175,0.016016
67,0.025436,0.023162,0.11606,0.033231,-0.36661,-0.0405,0.023812
68,0.036479,0.033231,0.20765,0.029009,-0.31464,-0.036602,0.031282
69,0.045574,0.039078,0.26839,0.026735,-0.24935,-0.029132,0.03518
70,0.05207,0.041027,0.28658,0.025111,-0.17107,-0.015815,0.036804
71,0.05142,0.042326,0.26449,0.023812,-0.096367,0.0014,0.037454
72,0.043625,0.04395,0.21415,0.023162,-0.054142,0.016666,0.033881
73,0.032906,0.042975,0.14789,0.016666,-0.050894,0.024786,0.02706
74,0.022512,0.037129,0.074482,0.0049729,-0.050244,0.024137,0.015367
75,0.013093,0.028359,0.0039985,-0.010618,0.0033489,0.01764,-0.0015233
76,0.0052977,0.017316,-0.055766,-0.030106,0.14789,0.0085458,-0.020037
77,-0.0044465,0.0049729,-0.093119,-0.052518,0.36681,-0.0028225,-0.040825
78,-0.018413,-0.0080194,-0.090521,-0.073631,0.59612,-0.01614,-0.057715
79,-0.036278,-0.028157,-0.049595,-0.095717,0.76827,-0.033354,-0.072331
80,-0.050244,-0.060638,-0.036927,-0.12138,0.84947,-0.051544,-0.082725
81,-0.05804,-0.10384,-0.1334,-0.15029,0.8459,-0.067134,-0.087597
82,-0.064211,-0.14574,-0.34614,-0.17724,0.77737,-0.073631,-0.091495
83,-0.069408,-0.17465,-0.60339,-0.19771,0.66661,-0.072331,-0.096042
84,-0.069733,-0.18147,-0.80217,-0.19966,0.53149,-0.06616,-0.097017
85,-0.062587,-0.16523,-0.87883,-0.17497,0.39182,-0.060638,-0.087922
86,-0.04927,-0.13015,-0.82264,-0.13015,0.26449,-0.059664,-0.074605
87,-0.034654,-0.086948,-0.67355,-0.076229,0.16608,-0.064211,-0.062912
88,-0.018738,-0.046347,-0.49068,-0.026858,0.10112,-0.071032,-0.052193
89,0.00075039,-0.01549,-0.32113,0.010495,0.065387,-0.076554,-0.041475
90,0.020564,0.0056225,-0.19121,0.033881,0.046223,-0.07493,-0.029457
91,0.034855,0.016666,-0.10579,0.045574,0.038103,-0.06681,-0.019712
92,0.039078,0.017965,-0.051868,0.046873,0.029333,-0.058365,-0.012892
93,0.03518,0.016991,-0.016464,0.040702,0.0065969,-0.052843,-0.0073698
94,0.027709,0.014392,0.0075714,0.026735,-0.051219,-0.055766,-0.0031473
95,0.015692,0.011144,0.02641,0.0091954,-0.16003,-0.075904,-0.0031473
96,0.0033489,0.0091954,0.045899,-0.0073698,-0.31236,-0.11261,-0.0060706
97,-0.0067202,0.0052977,0.067661,-0.019063,-0.47152,-0.15288,-0.0089938
98,-0.010293,0.0020496,0.0865,-0.02361,-0.58293,-0.18244,-0.0099683
99,-0.0050961,0.0033489,0.096244,-0.023935,-0.61184,-0.19024,-0.010293
100,0.003024,0.010819,0.0865,-0.025234,-0.55532,-0.17724,-0.011592
101,0.0088706,0.020888,0.058891,-0.027833,-0.44229,-0.14801,-0.014191
102,0.0052977,0.031282,0.031607,-0.029132,-0.31431,-0.11001,-0.017114
103,-0.0063954,0.036154,0.02706,-0.030431,-0.21102,-0.070707,-0.021012
104,-0.020362,0.03583,0.055318,-0.032055,-0.161,-0.037902,-0.020362
105,-0.025234,0.030633,0.11118,-0.034004,-0.17367,-0.012242,-0.015815
106,-0.018413,0.023487,0.1768,-0.033679,-0.24058,0.0072465,-0.012567
107,-0.0037969,0.024137,0.22714,-0.028157,-0.3429,0.022837,-0.010293
108,0.008221,0.029333,0.2476,-0.017764,-0.45593,0.036804,-0.0076946
109,0.01017,0.034206,0.23429,-0.0037969,-0.56019,0.05272,-0.0024977
110,0.0017248,0.033881,0.19888,0.012443,-0.63262,0.072533,0.0056225
111,-0.010618,0.024461,0.15731,0.025111,-0.66251,0.092996,0.009845
112,-0.019712,0.012119,0.12905,0.033231,-0.64009,0.10599,0.010819
113,-0.02361,0.0020496,0.13002,0.039402,-0.56734,0.10664,0.012119
114,-0.020037,0.0010752,0.15958,0.046873,-0.45528,0.098193,0.014392
115,-0.0093186,0.0095202,0.2096,0.055643,-0.32795,0.088124,0.017965
116,0.0049729,0.02641,0.26872,0.063763,-0.2029,0.081627,0.02641
117,0.016991,0.0433,0.32263,0.070584,-0.0837,0.080978,0.038753
118,0.029333,0.056292,0.36713,0.075781,0.03453,0.084226,0.054993
119,0.040702,0.063763,0.40546,0.080003,0.16348,0.093645,0.073182
120,0.05142,0.067661,0.43957,0.081303,0.30282,0.10404,0.088124
121,0.056292,0.066686,0.46815,0.078704,0.44184,0.11346,0.097218
122,0.05272,0.059541,0.47887,0.073832,0.55844,0.11898,0.098842
123,0.040702,0.045574,0.41683,0.063763,0.63445,0.11638,0.093321
124,0.023812,0.028034,0.21707,0.048497,0.65914,0.10631,0.080978
125,0.011144,0.010819,-0.10449,0.030308,0.63672,0.092021,0.065062
126,0.0039985,-0.0037969,-0.44391,0.012768,0.58735,0.071558,0.049796
127,0.0017248,-0.014191,-0.66348,-0.0011985,0.53408,0.049472,0.040377
128,0.0036737,-0.022636,-0.68784,-0.0080194,0.49251,0.033556,0.036804
129,0.008221,-0.029782,-0.52804,-0.0057458,0.4688,0.030308,0.036479
130,0.011469,-0.033679,-0.27436,0.0020496,0.45678,0.038753,0.037778
131,0.014068,-0.03303,-0.034654,0.0095202,0.44996,0.054668,0.041027
132,0.01764,-0.027833,0.12125,0.011794,0.44671,0.075456,0.043625
133,0.020888,-0.021012,0.17939,0.011144,0.45093,0.099817,0.049472
134,0.024137,-0.01549,0.17192,0.011794,0.4714,0.12483,0.053694
135,0.030308,-0.013866,0.13977,0.015367,0.50745,0.14659,0.055318
136,0.036479,-0.01484,0.10956,0.020564,0.55227,0.16153,0.054344
137,0.037454,-0.01484,0.095594,0.026085,0.588,0.16348,0.050771
138,0.030957,-0.012242,0.096893,0.029983,0.59482,0.15438,0.042326
139,0.01894,-0.0050961,0.11054,0.034855,0.56754,0.13912,0.029333
140,0.0056225,0.0062721,0.1284,0.042975,0.50745,0.12223,0.013093
141,-0.0018481,0.01829,0.13879,0.05207,0.42268,0.10501,-0.0028225
142,-0.0034721,0.025761,0.1362,0.054668,0.32458,0.090072,-0.013541
143,-0.0018481,0.030308,0.12418,0.05142,0.22649,0.078704,-0.020687
144,-0.0024977,0.032906,0.10826,0.045249,0.13847,0.067661,-0.026209
145,-0.0057458,0.037454,0.094295,0.036804,0.062789,0.054668,-0.027508
146,-0.013216,0.042975,0.082277,0.028684,-0.0096434,0.036804,-0.022961
147,-0.023285,0.043625,0.075781,0.024786,-0.089221,0.017316,-0.014516
148,-0.034978,0.038103,0.071883,0.025111,-0.17692,-0.00087364,-0.0076946
149,-0.046671,0.028359,0.06961,0.026735,-0.27144,-0.016789,-0.0021729
150,-0.051544,0.019264,0.067986,0.027709,-0.37635,-0.029132,0.0026992
151,-0.047971,0.016341,0.065062,0.029658,-0.48841,-0.038876,0.0072465
152,-0.040825,0.016341,0.058241,0.031932,-0.59884,-0.051868,0.0052977
153,-0.035303,0.017316,0.048497,0.034855,-0.69856,-0.072656,-0.0024977
154,-0.03173,0.01764,0.039078,0.036154,-0.77781,-0.09929,-0.010293
155,-0.026858,0.01894,0.033556,0.037129,-0.82199,-0.12527,-0.012567
156,-0.022961,0.01894,0.032257,0.033231,-0.81744,-0.14671,-0.007045
157,-0.022311,0.017965,0.034855,0.023812,-0.7593,-0.16198,0.0023744
158,-0.028157,0.01764,0.031932,0.012768,-0.66056,-0.1714,0.009845
159,-0.036278,0.019589,0.021538,0.0049729,-0.54005,-0.17367,0.0072465
160,-0.039526,0.022512,0.0069217,0.0026992,-0.4176,-0.1688,-0.0080194
161,-0.036602,0.027385,-0.0093186,0.0026992,-0.30977,-0.15483,-0.027183
162,-0.029132,0.028684,-0.022961,0.0043233,-0.22142,-0.13762,-0.040175
163,-0.022311,0.025761,-0.034004,0.0075714,-0.15581,-0.1243,-0.045697
164,-0.021337,0.020888,-0.038876,0.013418,-0.10481,-0.11423,-0.044398
165,-0.023935,0.01764,-0.033354,0.024137,-0.068109,-0.10254,-0.038876
166,-0.026209,0.014392,-0.021661,0.036804,-0.045372,-0.085324,-0.029457
167,-0.026533,0.0085458,-0.011917,0.046223,-0.038876,-0.06681,-0.016789
168,-0.025234,-0.00054884,-0.0099683,0.050121,-0.050569,-0.050569,-0.0037969
169,-0.025884,-0.0096434,-0.016789,0.051096,-0.084024,-0.034004,0.0059473
170,-0.022961,-0.01614,-0.037577,0.051745,-0.13859,-0.015165,0.012768
171,-0.010618,-0.022311,-0.069408,0.046548,-0.21102,0.0062721,0.014392
172,0.0088706,-0.029457,-0.10481,0.029658,-0.30067,0.025436,0.011794
173,0.028359,-0.035628,-0.1321,0.0075714,-0.40039,0.037778,0.0036737
174,0.0433,-0.038227,-0.14606,-0.012567,-0.49133,0.038428,-0.0067202
175,0.05207,-0.038551,-0.14671,-0.02361,-0.55694,0.02706,-0.011267
176,0.052395,-0.036278,-0.13957,-0.030431,-0.5904,0.008221,-0.0093186
177,0.047523,-0.03173,-0.1282,-0.033354,-0.58163,-0.01484,-0.0018481
178,0.04395,-0.025559,-0.11683,-0.032055,-0.5092,-0.037577,0.0075714
179,0.045899,-0.017439,-0.10514,-0.024585,-0.35232,-0.058365,0.016341
180,0.050446,-0.007045,-0.09117,-0.013541,-0.11326,-0.072006,0.020888
181,0.050121,0.0039985,-0.073631,-0.0015233,0.17355,-0.075255,0.022188
182,0.045249,0.013093,-0.055766,0.0091954,0.45905,-0.070707,0.021863
183,0.037129,0.01894,-0.04115,0.016666,0.68804,-0.05739,0.020239
184,0.028359,0.024786,-0.03173,0.01894,0.81699,-0.037902,0.015042
185,0.021213,0.032906,-0.030431,0.015042,0.83616,-0.015165,0.008221
186,0.016991,0.043625,-0.040175,0.0095202,0.76535,0.0065969,0.0036737
187,0.016666,0.058241,-0.054467,0.0065969,0.64549,0.023487,0.0033489
188,0.021538,0.074806,-0.061937,0.0075714,0.5159,0.032906,0.0072465
189,0.029658,0.089423,-0.060313,0.0088706,0.40546,0.03518,0.014392
190,0.03583,0.099167,-0.045697,0.0085458,0.32848,0.032257,0.022188
191,0.037454,0.10371,-0.0073698,0.0069217,0.28853,0.028034,0.02641
192,0.034206,0.10112,0.061489,0.0065969,0.27976,0.026735,0.020239
193,0.028684,0.09462,0.14984,0.0052977,0.28626,0.027385,0.0085458
194,0.026085,0.08585,0.23818,0.0026992,0.2973,0.025436,-0.0028225
195,0.025761,0.073507,0.31451,0.00042559,0.30639,0.022837,-0.0089938
196,0.022512,0.049796,0.3785,0.00075039,0.31386,0.021213,-0.011592
197,0.01764,0.014068,0.43437,-0.0018481,0.32036,0.021213,-0.010943
198,0.010495,-0.032705,0.48244,-0.010618,0.32036,0.023162,-0.010618
199,0.0046481,-0.077528,0.5094,-0.019712,0.3025,0.022837,-0.013216
200,0.0010752,-0.10903,0.48991,-0.021661,0.23721,0.015692,-0.021012
201,-0.0057458,-0.12105,0.40416,-0.016789,0.087474,0.00010078,-0.030106
202,-0.01549,-0.11618,0.2593,-0.0099683,-0.15581,-0.024909,-0.036927
203,-0.025884,-0.10156,0.08585,-0.0050961,-0.44521,-0.058365,-0.042449
204,-0.033679,-0.0824,-0.07428,-0.0073698,-0.69596,-0.093769,-0.043423
205,-0.036927,-0.063561,-0.19219,-0.01484,-0.83693,-0.1217,-0.0405
206,-0.034329,-0.04927,-0.25812,-0.019712,-0.83595,-0.13502,-0.031081
207,-0.026209,-0.037902,-0.26916,-0.017114,-0.71383,-0.13015,-0.018738
208,-0.016789,-0.027508,-0.23831,-0.0083442,-0.52836,-0.10936,-0.0083442
209,-0.0083442,-0.017764,-0.18699,0.0026992,-0.33835,-0.081426,-0.00022403
210,-0.0031473,-0.007045,-0.13697,0.015042,-0.18699,-0.058365,0.0075714
211,-0.00054884,0.0046481,-0.10286,0.028034,-0.089871,-0.043099,0.013418
212,0.0010752,0.016991,-0.088896,0.042651,-0.037902,-0.033679,0.018615
213,0.0026992,0.024786,-0.089546,0.054019,-0.010293,-0.028157,0.018615
214,0.00075039,0.020888,-0.095068,0.06019,0.009845,-0.024585,0.014392
215,-0.0024977,0.0059473,-0.098965,0.057592,0.024461,-0.021337,0.0078962
216,-0.0044465,-0.01484,-0.10091,0.049796,0.022512,-0.01549,0.0026992
217,-0.007045,-0.030106,-0.10351,0.043625,-0.0067202,-0.0054209,0.00042559
218,-0.0093186,-0.03303,-0.10968,0.042651,-0.054142,0.013743,0.0017248
219,-0.0099683,-0.02426,-0.11813,0.044599,-0.10091,0.037778,0.0049729
220,-0.0076946,-0.010943,-0.12592,0.042975,-0.13437,0.059541,0.0062721
221,-0.0057458,-0.00087364,-0.12982,0.033231,-0.15776,0.071558,0.0039985
222,-0.0089938,0.0010752,-0.13242,0.016991,-0.17627,0.073182,-0.00087364
223,-0.015165,-0.0047713,-0.14411,-0.0028225,-0.18147,0.066362,-0.0063954
224,-0.02361,-0.012567,-0.17302,-0.021661,-0.16653,0.057917,-0.012567
225,-0.03173,-0.019063,-0.22012,-0.036927,-0.13404,0.049147,-0.019712
226,-0.044723,-0.02361,-0.27241,-0.048945,-0.089871,0.040377,-0.02361
227,-0.060638,-0.023285,-0.30814,-0.061613,-0.041799,0.029658,-0.020687
228,-0.071682,-0.020037,-0.31659,-0.072006,0.0023744,0.019264,-0.014516
229,-0.072006,-0.018413,-0.30035,-0.077528,0.037778,0.0088706,-0.0076946
230,-0.058689,-0.020362,-0.26851,-0.075904,0.067986,0.00010078,-0.0015233
231,-0.035953,-0.02361,-0.23181,-0.068758,0.099492,-0.0050961,0.0056225
232,-0.013541,-0.024585,-0.19836,-0.055116,0.13425,-0.0028225,0.0088706
233,-0.00022403,-0.020687,-0.17627,-0.042449,0.17712,0.0043233,0.0056225
234,0.003024,-0.012892,-0.1675,-0.029782,0.23071,0.014717,-0.0047713
235,0.0014,0.0026992,-0.16782,-0.017439,0.2908,0.021213,-0.016789
236,0.0020496,0.025761,-0.17075,-0.0024977,0.35187,0.018615,-0.026533
237,0.0065969,0.054668,-0.17627,0.013093,0.40903,0.0065969,-0.029782
238,0.013418,0.081952,-0.18504,0.02706,0.46198,-0.010943,-0.026209
239,0.017965,0.10371,-0.19413,0.034855,0.49836,-0.026858,-0.019063
240,0.016991,0.11963,-0.20355,0.035505,0.49933,-0.034978,-0.01484
241,0.012119,0.1297,-0.21265,0.033231,0.45288,-0.035953,-0.014191
242,0.0069217,0.1336,-0.22109,0.029658,0.36064,-0.036278,-0.013216
243,0.0049729,0.13295,-0.23181,0.025436,0.23786,-0.038227,-0.0093186
244,0.0065969,0.12905,-0.24448,0.01829,0.10859,-0.0405,-0.0034721
245,0.013093,0.12223,-0.25682,0.010495,0.00075039,-0.040175,0.0017248
246,0.023162,0.11183,-0.25552,0.0036737,-0.071357,-0.035628,0.0072465
247,0.032257,0.096893,-0.19511,0.00042559,-0.10481,-0.028807,0.012119
248,0.036804,0.076431,-0.037577,0.0017248,-0.10709,-0.020362,0.016341
249,0.037129,0.050121,0.19791,0.0026992,-0.087597,-0.011592,0.019914
250,0.033231,0.01894,0.44606,0.0017248,-0.057065,-0.0044465,0.017965
251,0.02706,-0.01549,0.6403,0.00010078,-0.028482,0.00075039,0.015367
252,0.018615,-0.052193,0.73222,0.0033489,-0.01484,0.0043233,0.016016
253,0.011469,-0.093119,0.71208,0.0091954,-0.022311,0.012443,0.021213
254,0.0026992,-0.13892,0.60392,0.016016,-0.048945,0.02706,0.026085
255,-0.0076946,-0.19316,0.45191,0.021213,-0.096692,0.044275,0.028359
256,-0.019388,-0.25812,0.30477,0.025111,-0.16458,0.059541,0.026085
257,-0.027508,-0.31724,0.20181,0.029333,-0.24091,0.067986,0.021863
258,-0.03303,-0.34939,0.16835,0.037778,-0.29905,0.061814,0.014068
259,-0.036927,-0.3416,0.20148,0.048172,-0.31886,0.042651,0.0039985
260,-0.036927,-0.29385,0.26709,0.054668,-0.29125,0.023162,-0.0096434
261,-0.03173,-0.21914,0.32491,0.054993,-0.22109,0.014068,-0.021986
262,-0.023285,-0.13469,0.34375,0.051096,-0.1204,0.017965,-0.032055
263,-0.014516,-0.05739,0.31581,0.041676,-0.0076946,0.028034,-0.033354
264,-0.0054209,0.0039985,0.23916,0.029009,0.10144,0.03583,-0.027833
265,0.0014,0.049796,0.11801,0.018615,0.19304,0.037778,-0.021337
266,0.0056225,0.07773,-0.035303,0.014068,0.25995,0.036804,-0.016464
267,0.0085458,0.092346,-0.19186,0.011144,0.29438,0.031932,-0.010618
268,0.0091954,0.097868,-0.30944,0.0043233,0.28821,0.02706,-0.00022403
269,0.0091954,0.10144,-0.36206,-0.0057458,0.22129,0.023812,0.012119
270,0.0072465,0.10436,-0.34517,-0.012567,0.067661,0.020888,0.021213
271,0.0039985,0.10436,-0.27696,-0.011917,-0.1675,0.014392,0.023812
272,0.0023744,0.10209,-0.18666,-0.0063954,-0.43319,0.0075714,0.01829
273,0.003024,0.096244,-0.10189,-0.00087364,-0.6729,-0.0024977,0.0065969
274,0.003024,0.091047,-0.041799,0.0049729,-0.83595,-0.01484,-0.0073698
275,0.0049729,0.0865,-0.0076946,0.011144,-0.88727,-0.023935,-0.019063
276,0.011144,0.082927,0.0052977,0.019589,-0.82166,-0.024585,-0.021012
277,0.018615,0.080978,0.0010752,0.029658,-0.66381,-0.016464,-0.013866
278,0.024786,0.081627,-0.014191,0.038428,-0.45755,0.0017248,-0.0041217
279,0.02706,0.084226,-0.030106,0.04395,-0.25195,0.024461,0.0046481
280,0.02706,0.089748,-0.036602,0.048172,-0.093444,0.041351,0.0069217
281,0.028684,0.093321,-0.028157,0.048497,-0.01549,0.039078,0.0046481
282,0.030957,0.096893,-0.0067202,0.044275,-0.03173,0.011794,0.0026992
283,0.030957,0.10371,0.021538,0.033556,-0.12722,-0.032705,0.0059473
284,0.025111,0.11216,0.048172,0.016341,-0.26462,-0.086623,0.01829
285,0.016666,0.1232,0.066686,-0.00054884,-0.39681,-0.13697,0.03453
286,0.012119,0.13262,0.079679,-0.010943,-0.47477,-0.17659,0.047198
287,0.014717,0.13717,0.09397,-0.014191,-0.4621,-0.2029,0.052395
288,0.028034,0.13555,0.11606,-0.010618,-0.3429,-0.21655,0.050121
289,0.049472,0.1323,0.15016,-0.0018481,-0.12333,-0.21395,0.0433
290,0.075131,0.12937,0.18362,0.0091954,0.16445,-0.19121,0.037454
291,0.098517,0.12807,0.18427,0.019264,0.45905,-0.15418,0.036154
292,0.11378,0.1245,0.12158,0.020239,0.69097,-0.10968,0.042326
293,0.11411,0.11411,0.012768,0.012443,0.81342,-0.070707,0.054344
294,0.10339,0.092346,-0.078178,0.0010752,0.82089,-0.043748,0.067336
295,0.088124,0.059216,-0.10676,-0.0076946,0.74359,-0.030431,0.072858
296,0.071558,0.019264,-0.081101,-0.014516,0.6273,-0.023285,0.067661
297,0.053369,-0.020362,-0.037902,-0.022311,0.50745,-0.018088,0.057267
298,0.03583,-0.050894,-0.0089938,-0.028807,0.40514,-0.014516,0.047847
299,0.022512,-0.065835,-0.018738,-0.030431,0.32913,-0.007045,0.045899
300,0.013093,-0.068434,-0.075579,-0.028157,0.28073,0.0062721,0.050121
301,0.0046481,-0.063886,-0.16847,-0.024909,0.25475,0.027709,0.059865
302,-0.0024977,-0.057065,-0.27079,-0.02426,0.24338,0.050446,0.070259
303,-0.010943,-0.050569,-0.35621,-0.023285,0.23526,0.06831,0.074806
304,-0.021012,-0.046671,-0.40688,-0.020037,0.21967,0.074157,0.071558
305,-0.034004,-0.045047,-0.41403,-0.015815,0.19076,0.070909,0.062464
306,-0.046996,-0.04115,-0.38122,-0.014516,0.15309,0.060515,0.053369
307,-0.054467,-0.036602,-0.32276,-0.017114,0.11541,0.045574,0.042975
308,-0.054467,-0.028482,-0.25325,-0.021661,0.079029,0.033556,0.030308
309,-0.046347,-0.018738,-0.18634,-0.023285,0.0433,0.029333,0.011469
310,-0.035628,-0.0083442,-0.12852,-0.018088,0.0091954,0.033231,-0.010293
311,-0.026209,0.0026992,-0.079477,-0.0089938,-0.024585,0.041351,-0.027833
312,-0.02426,0.0091954,-0.033354,0.00010078,-0.052518,0.046223,-0.034004
313,-0.029132,0.012443,0.010495,0.0046481,-0.066485,0.044924,-0.028482
314,-0.036278,0.015042,0.057917,0.0049729,-0.056416,0.038428,-0.020362
315,-0.036602,0.01894,0.11638,0.0033489,-0.020037,0.033556,-0.01484
316,-0.029782,0.024461,0.18979,0.0033489,0.037778,0.035505,-0.016464
317,-0.021661,0.029009,0.27521,0.0036737,0.10436,0.044275,-0.023285
318,-0.01614,0.033881,0.35382,0.0036737,0.16705,0.057917,-0.029782
319,-0.018738,0.037778,0.40416,0.0026992,0.21415,0.072208,-0.033354
320,-0.029782,0.042651,0.4152,0.0023744,0.24013,0.080978,-0.034329
321,-0.041475,0.05207,0.39052,0.0043233,0.2489,0.083901,-0.03238
322,-0.048945,0.071558,0.34959,0.0059473,0.24825,0.08585,-0.031081
323,-0.055116,0.10469,0.30932,0.0069217,0.24338,0.091047,-0.03238
324,-0.05739,0.14399,0.27749,0.0095202,0.24436,0.10209,-0.036278
325,-0.052193,0.17485,0.25378,0.011794,0.25345,0.11054,-0.041799
326,-0.040175,0.18784,0.23201,0.013743,0.25995,0.10859,-0.046996
327,-0.02361,0.1781,0.20148,0.015042,0.25475,0.09397,-0.050244
328,-0.0093186,0.14984,0.15926,0.015042,0.24143,0.067336,-0.053492
329,-0.0028225,0.10794,0.10859,0.012443,0.22844,0.033881,-0.055116
330,-0.0073698,0.061814,0.053694,0.0046481,0.22162,0.0026992,-0.051544
331,-0.019063,0.019264,-0.0018481,-0.0015233,0.21805,-0.021661,-0.044398
332,-0.031406,-0.0099683,-0.051868,-0.0031473,0.20538,-0.040175,-0.039201
333,-0.0405,-0.028157,-0.092794,0.00010078,0.17972,-0.053817,-0.040825
334,-0.041799,-0.038227,-0.12235,0.0046481,0.13944,-0.064861,-0.046347
335,-0.036602,-0.045697,-0.14152,0.010819,0.085525,-0.070707,-0.050569
336,-0.027508,-0.050244,-0.15321,0.020564,0.022837,-0.073306,-0.048296
337,-0.018088,-0.052518,-0.15938,0.03453,-0.043099,-0.072331,-0.040825
338,-0.010943,-0.048296,-0.16133,0.046223,-0.11066,-0.068109,-0.028157
339,-0.0054209,-0.040175,-0.16133,0.053694,-0.17172,-0.057065,-0.01614
340,0.0017248,-0.030431,-0.16133,0.055318,-0.22142,-0.040825,-0.0037969
341,0.0085458,-0.02361,-0.15581,0.05142,-0.2591,-0.024585,0.0052977
342,0.016341,-0.019063,-0.14249,0.04395,-0.28476,-0.014516,0.0091954
343,0.021863,-0.01484,-0.12625,0.03453,-0.30294,-0.008669,0.0078962
344,0.025111,-0.010293,-0.11131,0.024137,-0.31366,-0.0063954,0.0023744
345,0.029333,-0.0034721,-0.094093,0.01829,-0.31496,-0.0024977,-0.0034721
346,0.035505,-0.0031473,-0.060313,0.021213,-0.30587,0.003024,-0.0037969
347,0.038428,-0.013866,0.0069217,0.03583,-0.28735,0.0085458,0.0039985
348,0.034206,-0.030756,0.11703,0.054993,-0.25812,0.011144,0.01829
349,0.024461,-0.047971,0.25572,0.066362,-0.21979,0.010819,0.038428
350,0.016341,-0.059339,0.38305,0.067336,-0.17789,0.011794,0.058891
351,0.011794,-0.062587,0.45938,0.056617,-0.13567,0.0095202,0.071883
352,0.0085458,-0.059664,0.4597,0.041027,-0.10059,0.00075039,0.073832
353,0.0052977,-0.054467,0.38987,0.028034,-0.082725,-0.013866,0.066686
354,0.0017248,-0.050244,0.27554,0.019914,-0.085648,-0.028807,0.056942
355,-0.0015233,-0.048296,0.15016,0.015042,-0.11228,-0.038876,0.046223
356,-0.00087364,-0.049595,0.045249,0.010819,-0.16003,-0.045372,0.032906
357,0.0039985,-0.050894,-0.025884,0.0085458,-0.21947,-0.052193,0.022512
358,0.012119,-0.050894,-0.065835,0.0072465,-0.27988,-0.060638,0.017965
359,0.021213,-0.049595,-0.084999,0.0065969,-0.33575,-0.069408,0.020239
360,0.030308,-0.048296,-0.090845,0.012119,-0.38317,-0.071682,0.026085
361,0.036804,-0.047646,-0.090196,0.021863,-0.41728,-0.06616,0.032906
362,0.036154,-0.050569,-0.088572,0.031607,-0.43189,-0.057715,0.038753
363,0.029009,-0.052843,-0.086623,0.038428,-0.4254,-0.051544,0.044924
364,0.025111,-0.052193,-0.086298,0.039727,-0.40136,-0.04862,0.053044
365,0.029983,-0.04927,-0.089221,0.03453,-0.36466,-0.047971,0.058566
366,0.042326,-0.044073,-0.095068,0.028034,-0.31659,-0.052193,0.057592
367,0.054668,-0.039851,-0.10189,0.022188,-0.25422,-0.062262,0.049472
368,0.065387,-0.037577,-0.10676,0.01764,-0.16685,-0.070058,0.040052
369,0.068635,-0.036927,-0.10968,0.011469,-0.051868,-0.071032,0.035505
370,0.066037,-0.037577,-0.10806,0.0046481,0.078055,-0.062912,0.037454
371,0.061165,-0.039526,-0.10546,-0.0028225,0.20051,-0.046022,0.042326
372,0.055318,-0.042124,-0.10221,-0.008669,0.29438,-0.025559,0.044275
373,0.045899,-0.043099,-0.098316,-0.0093186,0.34505,-0.007045,0.036804
374,0.036804,-0.04115,-0.093444,-0.0034721,0.35479,0.0052977,0.021863
375,0.026085,-0.036602,-0.086623,0.0052977,0.33725,0.013093,0.0052977
376,0.013418,-0.033679,-0.079152,0.013418,0.3025,0.017316,-0.010618
377,-0.0018481,-0.033354,-0.074605,0.016341,0.2541,0.017965,-0.02426
378,-0.017439,-0.034654,-0.07493,0.011469,0.18297,0.013743,-0.030106
379,-0.029782,-0.033354,-0.080776,0.0017248,0.082277,0.009845,-0.03173
380,-0.037577,-0.028807,-0.087272,-0.0063954,-0.051219,0.0075714,-0.03173
381,-0.037902,-0.025884,-0.089871,-0.011267,-0.212,0.0043233,-0.034329
382,-0.031081,-0.026533,-0.086623,-0.01549,-0.38057,0.0010752,-0.036602
383,-0.022311,-0.031081,-0.074605,-0.02361,-0.53551,0.00010078,-0.032705
384,-0.013216,-0.035953,-0.05739,-0.035303,-0.66088,0.0052977,-0.025234
385,-0.0037969,-0.04115,-0.042124,-0.04927,-0.74436,0.014068,-0.020037
386,0.0056225,-0.045697,-0.034329,-0.060963,-0.77034,0.022512,-0.021012
387,0.011794,-0.04992,-0.035953,-0.06681,-0.73072,0.024137,-0.029132
388,0.0078962,-0.052518,-0.042124,-0.062262,-0.62158,0.014392,-0.042774
389,-0.0073698,-0.054792,-0.045372,-0.051868,-0.44131,0.00010078,-0.055766
390,-0.027183,-0.055441,-0.044073,-0.038876,-0.20193,-0.01614,-0.062262
391,-0.041475,-0.052518,-0.038876,-0.027183,0.059541,-0.029132,-0.064211
392,-0.046996,-0.045372,-0.03238,-0.017439,0.2934,-0.037577,-0.061613
393,-0.042449,-0.037577,-0.029457,-0.011267,0.44281,-0.042449,-0.055766
394,-0.030431,-0.028807,-0.030431,-0.010293,0.47919,-0.045697,-0.04927
395,-0.020037,-0.020037,-0.03238,-0.011592,0.41456,-0.046996,-0.043423
396,-0.01484,-0.014516,-0.029457,-0.011267,0.29145,-0.046671,-0.035303
397,-0.01549,-0.010293,-0.021012,-0.0073698,0.15828,-0.046022,-0.028157
398,-0.018413,-0.0076946,-0.012242,-0.00054884,0.05142,-0.042124,-0.02426
399,-0.015815,-0.0047713,-0.0083442,0.0069217,-0.01549,-0.033679,-0.02361
400,-0.0089938,-0.0021729,-0.012242,0.012768,-0.042124,-0.022636,-0.028482
401,-0.0063954,-0.00022403,-0.021012,0.016016,-0.037577,-0.012242,-0.040825
402,-0.013866,0.003024,-0.033679,0.013418,-0.015815,-0.0060706,-0.05804
403,-0.028482,0.0065969,-0.043099,0.003024,0.0078962,-0.007045,-0.071682
404,-0.04115,0.0091954,-0.048296,-0.0089938,0.030308,-0.011917,-0.077203
405,-0.046347,0.008221,-0.047971,-0.018738,0.055968,-0.018088,-0.070382
406,-0.045372,0.0075714,-0.043099,-0.021661,0.086175,-0.021986,-0.055766
407,-0.038551,0.0075714,-0.035628,-0.017764,0.11866,-0.02361,-0.038227
408,-0.029782,0.0069217,-0.025884,-0.0050961,0.15016,-0.02361,-0.022636
409,-0.02426,0.011144,-0.013216,0.01017,0.17874,-0.021337,-0.011917
410,-0.021986,0.019264,0.0020496,0.022512,0.20051,-0.016789,-0.0050961
411,-0.019063,0.031932,0.017965,0.030308,0.21317,-0.011592,-0.00087364
412,-0.015165,0.046223,0.030633,0.039402,0.21512,-0.0057458,-0.00022403
413,-0.011917,0.055968,0.037129,0.050771,0.20246,-0.0021729,-0.0060706
414,-0.010943,0.061814,0.041027,0.062464,0.17485,-0.0028225,-0.013216
415,-0.013866,0.063438,0.044599,0.069934,0.14367,-0.010293,-0.016464
416,-0.018413,0.061165,0.045899,0.071883,0.1206,-0.02426,-0.011267
417,-0.023285,0.056617,0.045249,0.065712,0.11508,-0.039526,0.003024
418,-0.027508,0.048822,0.040702,0.05272,0.12678,-0.048296,0.020564
419,-0.028807,0.039078,0.029333,0.032906,0.14204,-0.047971,0.03583
420,-0.021661,0.032906,0.013743,0.013418,0.15146,-0.0405,0.044275
421,-0.010618,0.031607,-0.00054884,0.00010078,0.15276,-0.027508,0.045574
422,-0.0041217,0.034206,-0.0096434,-0.0076946,0.14561,-0.012567,0.042326
423,-0.0034721,0.036479,-0.014191,-0.012242,0.12418,-0.0024977,0.03583
424,-0.0073698,0.034206,-0.024909,-0.015815,0.088124,-0.0028225,0.031282
425,-0.011592,0.027385,-0.042774,-0.019063,0.040702,-0.013541,0.032906
426,-0.011917,0.016991,-0.061937,-0.019063,-0.01549,-0.028807,0.036154
427,-0.0096434,0.008221,-0.070707,-0.013866,-0.072981,-0.042774,0.03518
428,-0.007045,0.0049729,-0.068758,-0.0021729,-0.123,-0.053168,0.025436
429,-0.0076946,0.0056225,-0.058365,0.009845,-0.16133,-0.05739,0.012119
430,-0.011917,0.01017,-0.045697,0.021538,-0.18471,-0.054792,0.0017248
431,-0.013541,0.015692,-0.033354,0.029983,-0.18926,-0.045697,-0.0028225
432,-0.0076946,0.024461,-0.021012,0.039402,-0.1714,-0.029782,0.0020496
433,0.0010752,0.033556,-0.0063954,0.047198,-0.13729,-0.010943,0.016341
434,0.0069217,0.040052,0.0095202,0.047847,-0.096692,0.0091954,0.03453
435,0.012443,0.0433,0.025436,0.044275,-0.051868,0.026735,0.048497
436,0.020239,0.04395,0.036804,0.037129,-0.0060706,0.040052,0.054668
437,0.031932,0.042651,0.033231,0.031282,0.041351,0.048172,0.051096
438,0.042651,0.040702,0.012443,0.026735,0.085525,0.051096,0.047198
439,0.048172,0.038753,-0.011592,0.022837,0.12548,0.049796,0.046223
440,0.045574,0.039078,-0.022311,0.019264,0.1638,0.041676,0.050121
441,0.038103,0.042651,-0.0093186,0.012119,0.20246,0.024461,0.056942
442,0.031282,0.050771,0.026085,0.0033489,0.24468,0.0010752,0.065387
443,0.031282,0.061489,0.072858,-0.0041217,0.29827,-0.022311,0.071234
444,0.036154,0.070584,0.12028,-0.0034721,0.35609,-0.036927,0.073182
445,0.042001,0.072533,0.15406,0.0023744,0.39474,-0.039851,0.071558
446,0.042001,0.065712,0.16835,0.011144,0.39344,-0.034329,0.068635
447,0.036154,0.054344,0.16121,0.019589,0.33823,-0.022961,0.066037
448,0.02706,0.041351,0.13652,0.024786,0.23331,-0.010943,0.065712
449,0.020239,0.029658,0.10404,0.025111,0.10144,0.003024,0.06831
450,0.016666,0.020564,0.074482,0.020564,-0.031406,0.015692,0.073182
451,0.018615,0.015692,0.052395,0.013743,-0.14184,0.026085,0.078704
452,0.024461,0.01894,0.036154,0.0039985,-0.21557,0.033556,0.080003
453,0.032257,0.028359,0.021538,-0.0037969,-0.25065,0.037778,0.076106
454,0.042326,0.038103,0.011144,-0.0037969,-0.25357,0.038753,0.069934
455,0.05142,0.046223,0.0065969,0.0033489,-0.24091,0.032582,0.061814
456,0.054993,0.054344,0.0085458,0.0095202,-0.23051,0.020564,0.05142
457,0.05272,0.061489,0.010819,0.0088706,-0.23474,0.014392,0.038753
458,0.045899,0.067011,0.011144,0.0023744,-0.2474,0.01894,0.025761
459,0.033556,0.069934,0.0062721,-0.0044465,-0.24415,0.033556,0.013743
460,0.016016,0.06831,-0.0015233,-0.0031473,-0.20323,0.053044,0.0036737
461,-0.00022403,0.064088,-0.0044465,0.0075714,-0.12755,0.073507,-0.0089938
462,-0.0093186,0.058241,0.0085458,0.022837,-0.038551,0.092671,-0.021012
463,-0.0076946,0.05142,0.053369,0.037778,0.032257,0.11118,-0.030431
464,0.0014,0.047523,0.13587,0.044924,0.064088,0.12775,-0.03303
465,0.012119,0.047198,0.24988,0.042651,0.051745,0.13782,-0.029132
466,0.020888,0.048822,0.37558,0.03453,0.008221,0.13814,-0.021986
467,0.027709,0.050121,0.49088,0.027709,-0.043423,0.1232,-0.011917
468,0.028684,0.049472,0.57891,0.024786,-0.084349,0.095594,-0.0047713
469,0.019914,0.049796,0.6273,0.022837,-0.11715,0.058891,-0.0041217
470,0.0036737,0.049147,0.62763,0.01764,-0.16035,0.016341,-0.014516
471,-0.015165,0.047523,0.57469,0.0078962,-0.23344,-0.034654,-0.031406
472,-0.030106,0.041676,0.43664,-0.0057458,-0.33543,-0.086298,-0.044723
473,-0.034654,0.03453,0.15633,-0.020687,-0.44716,-0.12917,-0.046347
474,-0.030431,0.025761,-0.26689,-0.031081,-0.53388,-0.15678,-0.0405
475,-0.020687,0.016341,-0.72877,-0.038551,-0.57091,-0.17172,-0.030756
476,-0.0083442,0.0043233,-1.088,-0.042124,-0.55077,-0.17822,-0.019712
477,0.0023744,-0.0060706,-1.2407,-0.038876,-0.4962,-0.18342,-0.012242
478,0.0043233,-0.01484,-1.1919,-0.03238,-0.44164,-0.19056,-0.013541
479,-0.0024977,-0.020687,-1.0458,-0.030431,-0.40981,-0.20096,-0.023935
480,-0.014191,-0.024909,-0.90806,-0.034004,-0.4137,-0.20713,-0.037252
481,-0.025559,-0.025234,-0.81322,-0.038551,-0.43806,-0.20355,-0.046022
482,-0.033354,-0.021986,-0.72649,-0.036927,-0.45463,-0.18796,-0.04927
483,-0.035628,-0.01614,-0.59754,-0.023935,-0.44034,-0.1623,-0.045372
484,-0.034004,-0.0083442,-0.41338,-0.0050961,-0.39292,-0.12852,-0.037577
485,-0.032055,0.00075039,-0.22012,0.015692,-0.31594,-0.094093,-0.031081
486,-0.030106,0.0095202,-0.084674,0.030633,-0.22012,-0.062912,-0.029782
487,-0.03303,0.011794,-0.026209,0.032582,-0.11715,-0.042124,-0.033354
488,-0.037577,0.008221,0.016666,0.024137,-0.01549,-0.033354,-0.037252
489,-0.043748,0.0010752,0.11866,0.011794,0.082277,-0.031081,-0.037577
490,-0.04862,-0.0063954,0.28983,0.0026992,0.17712,-0.023935,-0.033679
491,-0.046671,-0.012567,0.49641,-0.00087364,0.26384,-0.0063954,-0.027183
492,-0.037902,-0.018088,0.68382,0.00010078,0.33628,0.012768,-0.02426
493,-0.022961,-0.018413,0.81342,0.0017248,0.39214,0.029009,-0.024585
494,-0.0050961,-0.0089938,0.86766,0.0039985,0.43209,0.042975,-0.025884
495,0.008221,0.009845,0.84687,0.0052977,0.45321,0.059541,-0.02426
496,0.013743,0.030308,0.7595,0.0065969,0.46263,0.080978,-0.020037
497,0.010819,0.044924,0.62308,0.0062721,0.4649,0.10209,-0.013866
498,0.0039985,0.049147,0.45873,0.0033489,0.46782,0.11866,-0.007045
499,-0.0037969,0.044924,0.29503,-0.0024977,0.47692,0.13132,-0.0037969
500,-0.0044465,0.034855,0.15633,-0.0083442,0.48959,0.13522,-0.0050961
501,0.00010078,0.021863,0.06019,-0.0089938,0.49348,0.1271,-0.0093186
502,0.0052977,0.011144,0.0023744,-0.0063954,0.47854,0.11021,-0.013866
503,0.0095202,0.003024,-0.027508,-0.0037969,0.44476,0.090397,-0.013541
504,0.0085458,-0.0044465,-0.043748,-0.0080194,0.40384,0.073832,-0.0057458
505,0.0033489,-0.01484,-0.053492,-0.01549,0.36518,0.067661,0.0069217
506,-0.0063954,-0.028157,-0.058365,-0.018088,0.33725,0.068635,0.018615
507,-0.016464,-0.043099,-0.060963,-0.013866,0.32231,0.074806,0.02641
508,-0.018088,-0.054467,-0.060638,-0.0060706,0.32198,0.083251,0.030957
509,-0.0089938,-0.058689,-0.059339,0.00010078,0.334,0.090072,0.036479
510,0.0056225,-0.05739,-0.058365,0.0036737,0.35057,0.091696,0.0433
511,0.01829,-0.050569,-0.059989,0.0026992,0.35999,0.088773,0.050121
512,0.027709,-0.04115,-0.062587,0.00042559,0.35317,0.084226,0.053369
513,0.03518,-0.028482,-0.065835,0.0010752,0.33011,0.082277,0.055968
514,0.042326,-0.017114,-0.069083,0.0078962,0.29665,0.0852,0.059541
515,0.048497,-0.0057458,-0.068434,0.022837,0.2567,0.092021,0.067011
516,0.049147,0.0043233,-0.068109,0.037129,0.2109,0.10014,0.080003
517,0.0433,0.011469,-0.069083,0.045249,0.15568,0.10501,0.092346
518,0.032582,0.012768,-0.074605,0.046223,0.090072,0.10339,0.098517
519,0.026735,0.012768,-0.080776,0.041351,0.022188,0.096244,0.097543
520,0.031932,0.010819,-0.086298,0.037454,-0.034978,0.083576,0.090722
521,0.045899,0.0078962,-0.089546,0.039402,-0.072981,0.072533,0.078704
522,0.056292,-0.00022403,-0.089221,0.044924,-0.086298,0.057592,0.062464
523,0.057267,-0.011917,-0.08305,0.048822,-0.073306,0.041351,0.045574
524,0.048172,-0.024909,-0.073631,0.045249,-0.029782,0.024461,0.03453
525,0.03453,-0.036278,-0.064861,0.036154,0.03518,0.0069217,0.029009
526,0.020239,-0.042774,-0.058365,0.028684,0.088773,-0.014191,0.026085
527,0.0075714,-0.042124,-0.051544,0.027709,0.078055,-0.039526,0.024137
528,-0.0011985,-0.035953,-0.033679,0.036154,-0.021012,-0.070058,0.022837
529,-0.008669,-0.02426,-0.0015233,0.050771,-0.17172,-0.10156,0.019264
530,-0.011267,-0.010293,0.028359,0.064413,-0.30457,-0.12885,0.017316
531,-0.008669,0.0043233,0.033556,0.071558,-0.36173,-0.14834,0.017965
532,-0.0034721,0.016991,0.0046481,0.06896,-0.32308,-0.15678,0.020564
533,0.00042559,0.029983,-0.053492,0.057267,-0.21947,-0.15126,0.020239
534,0.00075039,0.040052,-0.12365,0.046223,-0.10319,-0.1321,0.015692
535,-0.00054884,0.048497,-0.18179,0.042001,-0.018738,-0.10611,0.0091954
536,0.003024,0.05272,-0.21265,0.04395,0.014068,-0.080776,0.0033489
537,0.008221,0.05142,-0.2107,0.046548,0.0065969,-0.061613,-0.0031473
538,0.011794,0.047523,-0.18471,0.045249,-0.017439,-0.055116,-0.0089938
539,0.014392,0.042975,-0.13794,0.038753,-0.038876,-0.060313,-0.017439
540,0.016016,0.037129,-0.072331,0.029983,-0.047971,-0.071032,-0.028807
541,0.01894,0.027385,0.0046481,0.025111,-0.045372,-0.081101,-0.044073
542,0.022512,0.011794,0.092346,0.025111,-0.042124,-0.081751,-0.057065
543,0.021538,-0.013541,0.19596,0.02641,-0.051868,-0.072331,-0.067134
544,0.016991,-0.053817,0.31127,0.024786,-0.085324,-0.058689,-0.071032
545,0.011469,-0.10481,0.42982,0.017965,-0.13729,-0.044723,-0.069083
546,0.0059473,-0.15223,0.53116,0.01017,-0.18959,-0.034329,-0.060638
547,0.0033489,-0.18309,0.58703,0.0052977,-0.22597,-0.025884,-0.046347
548,0.0078962,-0.18926,0.57176,0.0056225,-0.23896,-0.020362,-0.030106
549,0.016991,-0.1727,0.48114,0.0078962,-0.23409,-0.020362,-0.020037
550,0.024786,-0.14087,0.34082,0.008221,-0.22434,-0.024909,-0.017114
551,0.02641,-0.10741,0.19401,0.0059473,-0.22109,-0.032055,-0.018413
552,0.023162,-0.076879,0.081952,0.0020496,-0.23344,-0.039201,-0.021337
553,0.015367,-0.053817,0.022512,-0.0018481,-0.26364,-0.047321,-0.024585
554,0.0033489,-0.038876,0.00010078,-0.0076946,-0.31301,-0.053168,-0.029132
555,-0.0076946,-0.03303,-0.031081,-0.014516,-0.377,-0.058689,-0.032705
556,-0.013541,-0.03173,-0.12138,-0.017439,-0.44391,-0.061937,-0.038551
557,-0.012567,-0.030106,-0.27891,-0.01484,-0.49393,-0.063561,-0.044398
558,-0.0031473,-0.026209,-0.4556,-0.010293,-0.51829,-0.064861,-0.04862
559,0.0039985,-0.020362,-0.57643,-0.0093186,-0.51569,-0.068109,-0.051219
560,0.0059473,-0.012567,-0.5943,-0.011917,-0.48321,-0.071032,-0.054467
561,0.0017248,-0.0028225,-0.51342,-0.018088,-0.40883,-0.076554,-0.059989
562,-0.0041217,0.0078962,-0.37473,-0.029457,-0.27111,-0.085324,-0.06551
563,-0.010943,0.018615,-0.23603,-0.046022,-0.068434,-0.096042,-0.06616
564,-0.015815,0.026085,-0.14054,-0.062262,0.1703,-0.10286,-0.060313
565,-0.020037,0.030957,-0.10221,-0.070707,0.38922,-0.095393,-0.050894
566,-0.022636,0.03583,-0.10936,-0.070058,0.53214,-0.072006,-0.039851
567,-0.020687,0.042326,-0.13567,-0.064861,0.57176,-0.036278,-0.029132
568,-0.01549,0.048172,-0.15418,-0.055766,0.51557,0.003024,-0.021661
569,-0.0067202,0.05207,-0.14639,-0.042774,0.40189,0.039727,-0.018413
570,-0.00054884,0.055643,-0.10806,-0.026533,0.28008,0.067661,-0.017114
571,0.0052977,0.06019,-0.044073,-0.0083442,0.19044,0.082602,-0.013216
572,0.013418,0.064413,0.029009,0.009845,0.15731,0.088124,-0.0067202
573,0.020888,0.069285,0.10436,0.02706,0.17517,0.090397,-0.0015233
574,0.021538,0.073832,0.18589,0.037454,0.22227,0.092346,0.0017248
575,0.013093,0.073507,0.28073,0.039727,0.26774,0.094945,0.0046481
576,0.0017248,0.06961,0.36551,0.03518,0.29113,0.095269,0.0069217
577,-0.0089938,0.063113,0.39409,0.024137,0.28756,0.088773,0.0059473
578,-0.017114,0.058566,0.34017,0.01017,0.26579,0.070909,-0.00054884
579,-0.025559,0.057592,0.21935,-0.0057458,0.2463,0.04395,-0.012892
580,-0.035628,0.064088,0.067661,-0.019063,0.24371,0.013743,-0.022636
581,-0.043099,0.076431,-0.075904,-0.027183,0.25507,-0.013866,-0.022311
582,-0.044073,0.087799,-0.18666,-0.028157,0.26547,-0.030106,-0.013541
583,-0.038227,0.095269,-0.24773,-0.029457,0.2593,-0.031081,-0.007045
584,-0.031081,0.097543,-0.26624,-0.030431,0.23039,-0.020037,-0.0063954
585,-0.024909,0.096569,-0.25877,-0.031406,0.18459,-0.0063954,-0.0063954
586,-0.021986,0.092021,-0.24578,-0.030431,0.13457,0.0065969,-0.0018481
587,-0.022636,0.083901,-0.23896,-0.02426,0.09462,0.021538,0.008221
588,-0.027508,0.070259,-0.23441,-0.012892,0.073182,0.039727,0.019914
589,-0.036278,0.049796,-0.22661,-0.00087364,0.063438,0.062464,0.02706
590,-0.040825,0.024786,-0.21687,0.0059473,0.048497,0.088448,0.025436
591,-0.040825,-0.0044465,-0.20323,0.0020496,0.016991,0.11378,0.01829
592,-0.038876,-0.040175,-0.18114,-0.0083442,-0.038551,0.13392,0.0095202
593,-0.036602,-0.0837,-0.15451,-0.019388,-0.12138,0.14302,-0.00054884
594,-0.034654,-0.1308,-0.12657,-0.026858,-0.23084,0.14237,-0.0099683
595,-0.03238,-0.18504,-0.10676,-0.034004,-0.35719,0.1349,-0.016464
596,-0.029457,-0.24805,-0.097666,-0.042124,-0.48938,0.12288,-0.01484
597,-0.021661,-0.31074,-0.088572,-0.047971,-0.60014,0.10469,-0.0073698
598,-0.01549,-0.35556,-0.068109,-0.046996,-0.66575,0.079354,0.0026992
599,-0.011917,-0.36628,-0.03238,-0.038551,-0.66381,0.042651,0.0085458
600,-0.0099683,-0.33283,0.012119,-0.025559,-0.57059,-0.0024977,0.009845
601,-0.0089938,-0.26137,0.056617,-0.014516,-0.3718,-0.04992,0.008221
602,-0.008669,-0.17107,0.092671,-0.0089938,-0.084024,-0.092794,0.0049729
603,-0.0080194,-0.081101,0.11443,-0.0050961,0.23818,-0.12463,0.0033489
604,-0.0096434,-0.0047713,0.1232,0.00075039,0.51654,-0.14022,0.0062721
605,-0.012242,0.049796,0.12353,0.010495,0.68804,-0.13762,0.013418
606,-0.013541,0.082277,0.12125,0.022837,0.72312,-0.12138,0.022188
607,-0.0089938,0.095594,0.11573,0.034855,0.6338,-0.10189,0.030633
608,-0.0021729,0.096893,0.10761,0.044924,0.45743,-0.081101,0.037778
609,0.0033489,0.094295,0.097543,0.05142,0.22779,-0.056741,0.044924
610,0.0062721,0.092346,0.090397,0.053044,-0.036927,-0.035628,0.050121
611,0.0017248,0.089748,0.084226,0.045899,-0.31074,-0.021661,0.050446
612,-0.0083442,0.089748,0.073832,0.031932,-0.57351,-0.017114,0.045574
613,-0.021337,0.089098,0.057917,0.014717,-0.79633,-0.020687,0.038753
614,-0.036278,0.087474,0.040702,-0.0024977,-0.93015,-0.030756,0.030308
615,-0.049595,0.083901,0.024786,-0.015165,-0.94509,-0.045372,0.018615
616,-0.059664,0.079029,0.0065969,-0.021337,-0.84537,-0.058689,0.009845
617,-0.06616,0.070584,-0.017114,-0.018413,-0.67095,-0.06551,0.0075714
618,-0.062912,0.059865,-0.047646,-0.0080194,-0.46892,-0.064536,0.013418
619,-0.050894,0.048172,-0.076229,0.0052977,-0.28118,-0.055116,0.024461
620,-0.034004,0.039078,-0.093444,0.015367,-0.14087,-0.0405,0.038753
621,-0.019712,0.038103,-0.097341,0.020564,-0.059664,-0.024909,0.054019
622,-0.011917,0.047198,-0.093769,0.022837,-0.026858,-0.010293,0.067986
623,-0.0028225,0.061814,-0.088896,0.028684,-0.021012,0.0036737,0.077405
624,0.009845,0.079029,-0.083375,0.041676,-0.023935,0.015042,0.080003
625,0.026085,0.095594,-0.072331,0.059865,-0.022961,0.021213,0.077405
626,0.045574,0.10989,-0.050244,0.076431,-0.007045,0.021863,0.074806
627,0.067336,0.12223,-0.023285,0.087799,0.03453,0.021538,0.075456
628,0.08585,0.13197,0.0069217,0.094945,0.10014,0.022188,0.07773
629,0.095269,0.14334,0.039727,0.095594,0.17874,0.022837,0.076755
630,0.092996,0.15568,0.076755,0.090072,0.25183,0.017316,0.068635
631,0.082927,0.16608,0.1206,0.07773,0.30834,0.0026992,0.057267
632,0.070259,0.17192,0.17192,0.061489,0.34147,-0.020687,0.049147
633,0.060515,0.17257,0.22129,0.046223,0.35187,-0.044723,0.042975
634,0.055643,0.16933,0.26027,0.036479,0.33855,-0.065835,0.038428
635,0.056292,0.1638,0.28041,0.030308,0.30607,-0.081101,0.036479
636,0.056292,0.15503,0.28528,0.027709,0.25832,-0.088247,0.039078
637,0.058891,0.14756,0.27619,0.027385,0.19921,-0.089221,0.044599
638,0.061165,0.14496,0.26417,0.026735,0.1219,-0.088247,0.047198
639,0.063113,0.14659,0.27067,0.02706,0.012443,-0.090845,0.042975
640,0.064413,0.14464,0.31711,0.029983,-0.15711,-0.10124,0.031932
641,0.056942,0.13684,0.40611,0.036479,-0.40104,-0.1217,0.016666
642,0.042001,0.12125,0.5107,0.040702,-0.68622,-0.14704,0.0023744
643,0.024786,0.099817,0.58898,0.038428,-0.93989,-0.16945,-0.0044465
644,0.0091954,0.075456,0.60619,0.031932,-1.09,-0.17919,-0.00054884
645,-0.0018481,0.054993,0.55162,0.025761,-1.099,-0.17627,0.0091954
646,-0.0063954,0.041027,0.43729,0.026085,-0.97724,-0.15938,0.016016
647,-0.0031473,0.030633,0.29308,0.031607,-0.76969,-0.13047,0.015367
648,0.0059473,0.022512,0.15438,0.037129,-0.53875,-0.095393,0.009845
649,0.022837,0.014392,0.045249,0.041351,-0.33445,-0.055766,0.0072465
650,0.042651,0.0078962,-0.023285,0.044924,-0.18569,-0.016464,0.012768
651,0.055643,0.0023744,-0.058365,0.0433,-0.093444,0.016991,0.023162
652,0.058891,0.00075039,-0.072656,0.036804,-0.050894,0.036804,0.031607
653,0.05142,0.0014,-0.077203,0.024461,-0.044723,0.042651,0.030633
654,0.040377,0.0023744,-0.080776,0.009845,-0.062262,0.038103,0.022837
655,0.032906,0.00042559,-0.086298,-0.0018481,-0.087597,0.028684,0.011144
656,0.030957,-0.0076946,-0.096367,-0.010943,-0.10416,0.019589,-0.0047713
657,0.031282,-0.020362,-0.10903,-0.018088,-0.096692,0.016666,-0.023285
658,0.027385,-0.03238,-0.123,-0.023285,-0.063561,0.021213,-0.039851
659,0.018615,-0.036927,-0.13242,-0.022311,-0.010618,0.030957,-0.04927
660,0.0088706,-0.032055,-0.13664,-0.013216,0.048172,0.037778,-0.04862
661,0.00075039,-0.022961,-0.13372,-0.00054884,0.10177,0.041351,-0.039201
662,-0.0057458,-0.01484,-0.12527,0.011144,0.14334,0.045574,-0.029132
663,-0.011917,-0.012242,-0.11553,0.017316,0.17062,0.054019,-0.026858
664,-0.01549,-0.012567,-0.10514,0.016016,0.18751,0.061814,-0.032705
665,-0.014516,-0.012242,-0.096367,0.011794,0.19921,0.067011,-0.042774
666,-0.010293,-0.0089938,-0.090845,0.0088706,0.2057,0.067661,-0.051544
667,-0.0060706,-0.0044465,-0.096692,0.011144,0.21512,0.063438,-0.055116
668,-0.0044465,-0.0050961,-0.10968,0.012768,0.23136,0.057267,-0.056741
669,-0.0073698,-0.012242,-0.12203,0.013418,0.25735,0.050121,-0.056416
670,-0.014191,-0.023285,-0.13372,0.013743,0.28593,0.037129,-0.053168
671,-0.021012,-0.03238,-0.14152,0.012768,0.31062,0.018615,-0.049595
672,-0.02426,-0.039851,-0.14119,0.009845,0.32751,-0.00022403,-0.046022
673,-0.022636,-0.047646,-0.1282,0.0026992,0.33563,-0.01549,-0.040825
674,-0.019388,-0.056741,-0.10026,-0.0073698,0.34082,-0.027833,-0.035953
675,-0.012892,-0.06551,-0.069083,-0.020037,0.34927,-0.037252,-0.034004
676,-0.0018481,-0.072331,-0.063886,-0.03173,0.36096,-0.045372,-0.033354
677,0.0085458,-0.074605,-0.10838,-0.037902,0.36453,-0.046996,-0.03303
678,0.011469,-0.07493,-0.20615,-0.037252,0.35382,-0.04115,-0.030756
679,0.0078962,-0.075579,-0.32795,-0.033354,0.33433,-0.030431,-0.025559
680,0.0010752,-0.079152,-0.42702,-0.028807,0.31127,-0.019388,-0.021986
681,-0.0031473,-0.085973,-0.46827,-0.021986,0.28918,-0.008669,-0.019388
682,-0.0060706,-0.097341,-0.44261,-0.012892,0.27489,0.0014,-0.016789
683,-0.0099683,-0.10903,-0.37148,-0.0054209,0.27229,0.012443,-0.013866
684,-0.012892,-0.11586,-0.28768,-0.00022403,0.27846,0.022837,-0.011917
685,-0.008669,-0.11391,-0.21395,-0.00054884,0.28885,0.031607,-0.010943
686,0.0020496,-0.10319,-0.1623,-0.0073698,0.29438,0.038428,-0.0099683
687,0.015692,-0.086298,-0.13372,-0.01549,0.2921,0.04395,-0.0060706
688,0.026085,-0.067459,-0.12592,-0.016789,0.28236,0.046548,-0.00054884
689,0.029333,-0.049595,-0.12755,-0.011267,0.26742,0.043625,0.0036737
690,0.028034,-0.036278,-0.1334,-0.00054884,0.25183,0.036154,0.0043233
691,0.021863,-0.027183,-0.14054,0.0091954,0.23396,0.029009,0.0026992
692,0.0095202,-0.021337,-0.14866,0.015692,0.2096,0.02641,0.0014
693,-0.0063954,-0.021337,-0.15711,0.023812,0.17842,0.026735,0.0033489
694,-0.021337,-0.025234,-0.1662,0.032906,0.14334,0.028684,0.0075714
695,-0.035628,-0.031406,-0.17627,0.04395,0.11118,0.031932,0.012443
696,-0.04927,-0.037902,-0.18634,0.051096,0.0852,0.034855,0.014068
697,-0.059339,-0.041799,-0.19381,0.054344,0.066037,0.037129,0.010819
698,-0.063886,-0.040825,-0.19933,0.050446,0.049147,0.038103,-0.00087364
699,-0.062912,-0.035628,-0.2016,0.040702,0.03453,0.034855,-0.014516
700,-0.055766,-0.029782,-0.2081,0.029983,0.031932,0.025436,-0.020687
701,-0.043099,-0.029132,-0.22142,0.022188,0.056942,0.010819,-0.018413
702,-0.031081,-0.030106,-0.23668,0.016991,0.12515,-0.0028225,-0.012242
703,-0.026209,-0.031406,-0.22661,0.012768,0.23266,-0.0057458,-0.0057458
704,-0.030106,-0.034329,-0.14152,0.0059473,0.34959,0.00010078,-0.0011985
705,-0.035953,-0.039851,0.041027,-0.0024977,0.43989,0.0085458,-0.00087364
706,-0.039851,-0.048296,0.28073,-0.0093186,0.47984,0.016341,-0.0018481
707,-0.039201,-0.055116,0.50972,-0.013866,0.46652,0.020888,-0.0041217
708,-0.035303,-0.056741,0.67213,-0.01549,0.41131,0.023812,-0.0060706
709,-0.028157,-0.053168,0.73514,-0.015165,0.33563,0.027709,-0.0060706
710,-0.019063,-0.047646,0.70006,-0.012892,0.25995,0.027709,-0.0050961
711,-0.0089938,-0.043423,0.5932,-0.011267,0.19726,0.018615,-0.0083442
712,-0.0041217,-0.042774,0.45353,-0.014516,0.15114,0.0069217,-0.012892
713,-0.0057458,-0.042774,0.31776,-0.019388,0.12223,-0.0024977,-0.01614
714,-0.0096434,-0.038551,0.21025,-0.020037,0.10339,-0.0028225,-0.013866
715,-0.0089938,-0.029132,0.13425,-0.015165,0.082927,0.0049729,-0.0089938
716,-0.0018481,-0.018088,0.084876,-0.0063954,0.056617,0.013093,-0.0034721
717,0.0059473,-0.0089938,0.05272,0.0010752,0.020239,0.015042,0.0046481
718,0.011144,-0.0054209,0.028684,0.0072465,-0.02426,0.0069217,0.013418
719,0.010495,-0.0050961,0.0095202,0.012768,-0.079152,-0.0083442,0.018615
720,0.0059473,-0.0054209,-0.0037969,0.01829,-0.14606,-0.027508,0.016991
721,0.003024,-0.0034721,-0.010943,0.024461,-0.22077,-0.047646,0.012768
722,0.0014,0.00010078,-0.0080194,0.030957,-0.29158,-0.064211,0.0095202
723,-0.0015233,0.0056225,0.0010752,0.033556,-0.34484,-0.069408,0.012119
724,-0.0063954,0.0088706,0.011144,0.031282,-0.37635,-0.060638,0.016666
725,-0.013866,0.0095202,0.01764,0.026085,-0.38707,-0.043748,0.023812
726,-0.019712,0.0095202,0.021213,0.022512,-0.3796,-0.026858,0.032906
727,-0.021986,0.009845,0.016666,0.020564,-0.35914,-0.013216,0.040702
728,-0.017114,0.011144,0.0049729,0.021213,-0.33185,-0.0015233,0.044599
729,-0.0031473,0.015692,-0.0080194,0.02641,-0.30002,0.013418,0.050121
730,0.016991,0.022188,-0.017114,0.033881,-0.26689,0.033231,0.057267
731,0.034206,0.029009,-0.026209,0.042001,-0.23019,0.054993,0.062789
732,0.044924,0.036804,-0.039201,0.051096,-0.18666,0.071883,0.062139
733,0.049796,0.043625,-0.051544,0.057917,-0.13599,0.083251,0.051745
734,0.048497,0.050446,-0.059014,0.061489,-0.078827,0.0865,0.038428
735,0.041351,0.054993,-0.055116,0.06084,-0.025559,0.083576,0.02641
736,0.030633,0.056617,-0.041799,0.056617,0.009845,0.07773,0.01829
737,0.01764,0.056292,-0.026209,0.044924,0.020564,0.071558,0.013418
738,0.0072465,0.055643,-0.018088,0.026735,0.0065969,0.062464,0.0085458
739,-0.00087364,0.055968,-0.02361,0.0043233,-0.019388,0.05207,0.0023744
740,-0.0060706,0.054668,-0.034978,-0.019063,-0.053817,0.042326,-0.0067202
741,-0.0096434,0.051745,-0.045372,-0.042449,-0.091495,0.032582,-0.018088
742,-0.01614,0.045899,-0.056416,-0.063886,-0.1217,0.019589,-0.029782
743,-0.024909,0.038753,-0.069408,-0.077528,-0.12982,0.0036737,-0.038227
744,-0.03238,0.030957,-0.081426,-0.081426,-0.11131,-0.013866,-0.042774
745,-0.038227,0.021863,-0.09182,-0.074605,-0.072981,-0.030106,-0.045697
746,-0.039526,0.015042,-0.097991,-0.060638,-0.042449,-0.042124,-0.045047
747,-0.039851,0.013093,-0.098316,-0.045047,-0.047321,-0.044723,-0.037902
748,-0.038551,0.014717,-0.093444,-0.031406,-0.097991,-0.039526,-0.023935
749,-0.036927,0.015692,-0.084674,-0.017764,-0.18212,-0.030756,-0.0050961
750,-0.034329,0.014392,-0.072656,-0.00054884,-0.27144,-0.024585,0.017316
751,-0.027833,0.012443,-0.059014,0.016991,-0.34484,-0.027508,0.037129
752,-0.020362,0.009845,-0.041799,0.034206,-0.38902,-0.041799,0.055318
753,-0.014516,0.008221,-0.02361,0.047523,-0.40071,-0.063561,0.06961
754,-0.0060706,0.0091954,-0.008669,0.05207,-0.38804,-0.088247,0.078704
755,0.0033489,0.014068,0.0043233,0.049796,-0.36303,-0.11228,0.082277
756,0.011794,0.022188,0.012768,0.046548,-0.33088,-0.1308,0.081627
757,0.012768,0.028684,0.016016,0.047198,-0.29677,-0.14152,0.078379
758,0.0059473,0.033556,0.0088706,0.046548,-0.26787,-0.14444,0.070909
759,-0.0044465,0.036154,0.00042559,0.040702,-0.24968,-0.13924,0.061814
760,-0.011917,0.03453,0.017316,0.028034,-0.24058,-0.1269,0.051096
761,-0.013866,0.029983,0.083576,0.0069217,-0.23474,-0.10774,0.045574
762,-0.010618,0.025111,0.19726,-0.019063,-0.21785,-0.083375,0.044275
763,-0.0024977,0.02641,0.33108,-0.036927,-0.17919,-0.059664,0.043625
764,0.0085458,0.037778,0.44054,-0.036278,-0.11586,-0.04115,0.041676
765,0.017965,0.056617,0.48374,-0.015165,-0.034654,-0.027833,0.038103
766,0.021863,0.072533,0.44249,0.013418,0.055643,-0.014516,0.036154
767,0.022188,0.081303,0.32881,0.033556,0.14464,0.0017248,0.035505
768,0.022512,0.081627,0.17225,0.03583,0.23071,0.022188,0.033881
769,0.023487,0.076106,0.0072465,0.024137,0.31841,0.043625,0.028684
770,0.02706,0.065712,-0.14249,0.0056225,0.41001,0.062139,0.01764
771,0.024137,0.054993,-0.26202,-0.012567,0.50485,0.076431,0.0036737
772,0.0095202,0.045249,-0.34322,-0.024585,0.5867,0.086175,-0.008669
773,-0.012242,0.037454,-0.37798,-0.03303,0.63932,0.092671,-0.017114
774,-0.034654,0.032257,-0.36628,-0.046347,0.65621,0.097218,-0.022636
775,-0.052193,0.025761,-0.33185,-0.06681,0.64484,0.10242,-0.030756
776,-0.061613,0.011794,-0.30489,-0.093119,0.60944,0.10664,-0.042774
777,-0.062912,-0.012567,-0.28411,-0.1243,0.55455,0.11021,-0.053817
778,-0.062587,-0.046347,-0.2539,-0.15256,0.48147,0.11216,-0.058689
779,-0.059664,-0.077203,-0.20583,-0.16588,0.38987,0.11346,-0.055116
780,-0.054142,-0.092145,-0.13892,-0.15451,0.28853,0.11606,-0.049595
781,-0.043423,-0.084999,-0.061613,-0.11521,0.18654,0.11313,-0.042124
782,-0.027508,-0.061613,0.0085458,-0.060963,0.09462,0.10112,-0.032055
783,-0.0067202,-0.028157,0.058891,-0.0063954,0.017965,0.081627,-0.018413
784,0.017316,0.0033489,0.093321,0.038103,-0.053492,0.053369,-0.0063954
785,0.038753,0.029333,0.12223,0.066686,-0.14509,0.019589,-0.0021729
786,0.05207,0.046548,0.15211,0.080978,-0.27956,-0.013541,-0.0060706
787,0.056292,0.056292,0.17582,0.087799,-0.4569,-0.044723,-0.013541
788,0.053044,0.06084,0.18557,0.089748,-0.64139,-0.071357,-0.020037
789,0.046548,0.061489,0.1742,0.0852,-0.79048,-0.088572,-0.021661
790,0.04395,0.057267,0.14464,0.073182,-0.87331,-0.097017,-0.019388
791,0.048172,0.054019,0.11021,0.057592,-0.8785,-0.096367,-0.011267
792,0.057592,0.051745,0.087149,0.044275,-0.82459,-0.089221,0.00042559
793,0.065712,0.046548,0.091696,0.037778,-0.7606,-0.081426,0.0095202
794,0.06961,0.039727,0.12548,0.033231,-0.74598,-0.077853,0.010495
795,0.069285,0.029333,0.18524,0.028034,-0.8038,-0.086298,0.0014
796,0.062464,0.018615,0.26352,0.016991,-0.89962,-0.11066,-0.013216
797,0.048497,0.0069217,0.34959,0.00010078,-0.96263,-0.15126,-0.030756
798,0.030957,-0.00087364,0.41033,-0.017114,-0.92235,-0.20063,-0.04862
799,0.010495,-0.0076946,0.37168,-0.028807,-0.73949,-0.24708,-0.062587
800,-0.0057458,-0.014191,0.16998,-0.033679,-0.43806,-0.27306,-0.068434
801,-0.016464,-0.024909,-0.16847,-0.034004,-0.088896,-0.27371,-0.06681
802,-0.024909,-0.041475,-0.52251,-0.032705,0.21577,-0.24968,-0.059664
803,-0.03238,-0.057065,-0.74793,-0.031081,0.41228,-0.20908,-0.050244
804,-0.034978,-0.064211,-0.7645,-0.024585,0.48147,-0.161,-0.045047
805,-0.034654,-0.051868,-0.59202,-0.015165,0.45191,-0.11261,-0.043423
806,-0.032055,-0.015815,-0.32471,-0.0073698,0.36778,-0.071682,-0.04115
807,-0.02426,0.039727,-0.072331,-0.00022403,0.27489,-0.045047,-0.034654
808,-0.012892,0.098842,0.096244,0.0085458,0.20116,-0.033354,-0.023285
809,-0.00022403,0.14367,0.16738,0.022837,0.15763,-0.034004,-0.008669
810,0.013743,0.16283,0.16478,0.037129,0.14399,-0.036927,0.0036737
811,0.029009,0.15796,0.12418,0.048497,0.14821,-0.033679,0.0069217
812,0.041027,0.13555,0.080978,0.055643,0.15698,-0.025559,0.0017248
813,0.046223,0.10534,0.053369,0.059541,0.15893,-0.012242,-0.0060706
814,0.046873,0.076106,0.044275,0.061165,0.14399,0.0023744,-0.01549
815,0.045249,0.053694,0.046548,0.062464,0.095919,0.013418,-0.02361
816,0.039078,0.037778,0.051096,0.06084,-0.0034721,0.019589,-0.023935
817,0.029658,0.025436,0.054668,0.053044,-0.14899,0.026085,-0.020362
818,0.022188,0.010819,0.055318,0.04395,-0.30132,0.03453,-0.021012
819,0.018615,-0.0028225,0.052395,0.037454,-0.41013,0.042975,-0.030756
820,0.020239,-0.013866,0.046548,0.032257,-0.44066,0.050121,-0.046022
821,0.025111,-0.020362,0.042326,0.029009,-0.38837,0.056617,-0.056416
822,0.029333,-0.021986,0.0433,0.025436,-0.27534,0.065712,-0.055116
823,0.031607,-0.021012,0.051745,0.021538,-0.13827,0.079679,-0.046996
824,0.032582,-0.019063,0.061165,0.016341,-0.011917,0.097218,-0.036927
825,0.030308,-0.017114,0.063438,0.014068,0.0865,0.11573,-0.023935
826,0.02641,-0.016789,0.054993,0.016341,0.15211,0.13165,-0.010293
827,0.024137,-0.018088,0.036479,0.027709,0.19271,0.14496,-0.0031473
828,0.022837,-0.022311,0.013093,0.041351,0.2174,0.15536,-0.0031473
829,0.024461,-0.030106,-0.0063954,0.05272,0.23429,0.15893,-0.0063954
830,0.029333,-0.038876,-0.015165,0.055318,0.24501,0.15276,-0.0076946
831,0.033231,-0.045697,-0.011917,0.050121,0.24663,0.13879,-0.0067202
832,0.03453,-0.04992,0.0017248,0.043625,0.24273,0.12093,-0.0067202
833,0.028684,-0.04862,0.018615,0.042975,0.23818,0.10274,-0.0093186
834,0.01894,-0.043099,0.031607,0.047523,0.23591,0.083901,-0.010943
835,0.0091954,-0.036927,0.037129,0.054019,0.23396,0.067011,-0.0093186
836,0.003024,-0.030106,0.034855,0.054993,0.22941,0.051745,-0.0057458
837,-0.0018481,-0.02426,0.029983,0.05142,0.22292,0.038753,0.00075039
838,-0.0044465,-0.021986,0.025761,0.046873,0.21058,0.02706,0.0069217
839,-0.0096434,-0.02426,0.019589,0.044924,0.19206,0.01764,0.011469
840,-0.018088,-0.029782,0.014068,0.04395,0.1716,0.012768,0.015367
841,-0.028157,-0.039201,0.012443,0.044275,0.15861,0.010819,0.015042
842,-0.035953,-0.046996,0.013093,0.042001,0.15406,0.01017,0.011469
843,-0.039851,-0.050244,0.011794,0.036154,0.15016,0.0085458,0.0072465
844,-0.039526,-0.04927,0.008221,0.029333,0.14074,0.0020496,0.0046481
845,-0.03173,-0.044073,0.0056225,0.022188,0.12483,-0.0089938,0.0046481
846,-0.018738,-0.038876,0.0072465,0.016991,0.10177,-0.021661,0.012443
847,-0.0083442,-0.035953,0.0091954,0.014068,0.075456,-0.036278,0.025111
848,-0.0041217,-0.036927,0.010495,0.012768,0.054019,-0.04927,0.039402
849,-0.00087364,-0.040825,0.0085458,0.009845,0.042975,-0.05739,0.051096
850,0.0095202,-0.043099,0.0046481,0.0052977,0.043625,-0.057715,0.058241
851,0.025436,-0.040825,0.0056225,0.0026992,0.054019,-0.050244,0.063438
852,0.040702,-0.033354,0.015692,0.0020496,0.072208,-0.038227,0.06896
853,0.054019,-0.021986,0.032582,0.0046481,0.10144,-0.026209,0.074806
854,0.065712,-0.0099683,0.048822,0.009845,0.13522,-0.01549,0.080328
855,0.071234,-0.00087364,0.056617,0.013093,0.1638,-0.0044465,0.083901
856,0.065062,0.0020496,0.053369,0.014717,0.18329,0.0091954,0.084551
857,0.044599,-0.00087364,0.041027,0.015042,0.19109,0.021213,0.080653
858,0.017965,-0.0047713,0.02641,0.014068,0.18784,0.030308,0.075131
859,-0.0037969,-0.0044465,0.015692,0.015367,0.17322,0.033231,0.072858
860,-0.016464,0.00042559,0.011794,0.020888,0.14919,0.031282,0.076431
861,-0.01614,0.0049729,0.013093,0.026085,0.12028,0.026085,0.083901
862,-0.0096434,0.008221,0.019589,0.025111,0.092021,0.022188,0.093321
863,-0.0044465,0.010819,0.030308,0.01829,0.06896,0.01764,0.099492
864,-0.0041217,0.012443,0.044275,0.0062721,0.05272,0.009845,0.098517
865,-0.0083442,0.012768,0.064737,-0.0073698,0.044599,0.0014,0.088448
866,-0.011592,0.013418,0.092346,-0.019063,0.049147,-0.0063954,0.076755
867,-0.012242,0.015692,0.12678,-0.02426,0.061814,-0.011267,0.068635
868,-0.012892,0.01764,0.15406,-0.022636,0.071558,-0.012892,0.064413
869,-0.016464,0.01764,0.14724,-0.018738,0.070584,-0.011917,0.063113
870,-0.022311,0.014068,0.06961,-0.016464,0.057592,-0.0099683,0.063113
871,-0.025234,0.009845,-0.082725,-0.015165,0.030957,-0.0073698,0.063763
872,-0.023285,0.0026992,-0.26462,-0.016464,-0.0024977,-0.0076946,0.062464
873,-0.017764,-0.0041217,-0.39779,-0.021337,-0.026533,-0.014516,0.055643
874,-0.011592,-0.0067202,-0.4241,-0.025234,-0.028482,-0.024909,0.042975
875,-0.0050961,-0.0028225,-0.32925,-0.022961,-0.0063954,-0.034978,0.025761
876,-0.00054884,0.0052977,-0.161,-0.010293,0.028034,-0.040175,0.009845
877,0.0036737,0.014717,0.00075039,0.0088706,0.061489,-0.036927,0.0020496
878,0.0078962,0.021863,0.088773,0.029333,0.078704,-0.028482,0.0023744
879,0.011794,0.024137,0.070584,0.041027,0.078379,-0.022636,0.0078962
880,0.012119,0.024786,-0.034978,0.038103,0.069285,-0.021337,0.016666
881,0.010819,0.023812,-0.17822,0.020239,0.055643,-0.023935,0.023487
882,0.010495,0.020564,-0.30587,-0.0021729,0.039402,-0.027833,0.022188
883,0.010495,0.01829,-0.38545,-0.022961,0.022188,-0.034004,0.012119
884,0.0095202,0.019914,-0.40818,-0.037902,0.0039985,-0.040175,-0.0047713
885,0.0043233,0.025111,-0.38155,-0.045047,-0.01614,-0.046022,-0.021661
886,-0.0028225,0.033556,-0.32178,-0.044398,-0.034654,-0.054142,-0.033679
887,-0.011592,0.043625,-0.2474,-0.036278,-0.048296,-0.064861,-0.039526
888,-0.019063,0.05272,-0.174,-0.025559,-0.05804,-0.07428,-0.039201
889,-0.025559,0.058891,-0.10579,-0.018413,-0.065186,-0.076879,-0.035628
890,-0.028482,0.063438,-0.037902,-0.019063,-0.071032,-0.073306,-0.031081
891,-0.027183,0.066362,0.026085,-0.02426,-0.078503,-0.068109,-0.028807
892,-0.025234,0.064088,0.095594,-0.027833,-0.088896,-0.064536,-0.024585
893,-0.023935,0.053694,0.18394,-0.032055,-0.097017,-0.061937,-0.016464
894,-0.026533,0.029983,0.2947,-0.038227,-0.09929,-0.062262,-0.0073698
895,-0.03173,-0.0083442,0.41943,-0.043423,-0.096042,-0.065186,-0.0047713
896,-0.037252,-0.052518,0.53766,-0.043748,-0.090196,-0.071357,-0.010293
897,-0.0405,-0.088896,0.61821,-0.034004,-0.078178,-0.073955,-0.022636
898,-0.04115,-0.10806,0.63185,-0.01549,-0.057065,-0.067134,-0.038876
899,-0.038227,-0.10903,0.55942,0.0052977,-0.027508,-0.055766,-0.052843
900,-0.035628,-0.093119,0.41098,0.01764,0.0026992,-0.044723,-0.062587
901,-0.034329,-0.066485,0.22682,0.01764,0.028684,-0.034978,-0.064211
902,-0.032705,-0.037902,0.054344,0.010819,0.05142,-0.026858,-0.060638
903,-0.028807,-0.012567,-0.070707,0.0072465,0.069285,-0.021661,-0.053492
904,-0.023285,0.0059473,-0.13534,0.008221,0.082277,-0.019388,-0.043099
905,-0.016464,0.020888,-0.14866,0.013093,0.088124,-0.019063,-0.028807
906,-0.0089938,0.032906,-0.1308,0.016341,0.081303,-0.020687,-0.014191
907,-0.0015233,0.042651,-0.10384,0.014068,0.060515,-0.022636,-0.008669
908,0.003024,0.047523,-0.082076,0.0062721,0.029333,-0.027508,-0.014191
909,-0.00087364,0.047847,-0.068109,-0.0024977,-0.0050961,-0.033354,-0.024585
910,-0.0096434,0.044599,-0.060963,-0.0093186,-0.039526,-0.037902,-0.035953
911,-0.020037,0.037778,-0.052518,-0.011267,-0.072331,-0.040175,-0.046022
912,-0.024909,0.031932,-0.04115,-0.011592,-0.09994,-0.037902,-0.052193
913,-0.022311,0.026735,-0.027508,-0.010293,-0.12138,-0.03238,-0.050244
914,-0.015165,0.023487,-0.01549,-0.0067202,-0.13599,-0.022961,-0.040825
915,-0.0093186,0.026085,-0.0060706,0.00042559,-0.14022,-0.012242,-0.030106
916,-0.0089938,0.033231,-0.0041217,0.012443,-0.1269,-0.0024977,-0.02426
917,-0.012567,0.036479,-0.014191,0.026735,-0.099615,0.0056225,-0.021337
918,-0.01549,0.033881,-0.039526,0.038103,-0.06681,0.015367,-0.017439
919,-0.01484,0.029658,-0.076229,0.042651,-0.035303,0.025436,-0.010293
920,-0.0089938,0.02641,-0.11293,0.039402,-0.0057458,0.033231,-0.0037969
921,-0.0028225,0.021538,-0.14346,0.030308,0.025761,0.03583,-0.00022403
922,0.00075039,0.013743,-0.17107,0.019589,0.058566,0.032257,0.00075039
923,0.0069217,0.0039985,-0.20875,0.010495,0.096244,0.023162,-0.0028225
924,0.014068,-0.0057458,-0.26169,0.0023744,0.15179,0.013418,-0.0060706
925,0.01829,-0.010943,-0.32471,-0.0028225,0.23234,0.0072465,-0.0050961
926,0.01764,-0.0093186,-0.38447,-0.0054209,0.33238,0.0075714,0.00075039
927,0.016016,0.00075039,-0.43904,-0.0034721,0.4308,0.013418,0.009845
928,0.020239,0.020239,-0.49068,0.0017248,0.49901,0.020564,0.020888
929,0.028359,0.047847,-0.53713,0.0095202,0.51395,0.026735,0.028684
930,0.037129,0.081303,-0.57059,0.013743,0.4636,0.029333,0.028359
931,0.043625,0.11508,-0.57773,0.011144,0.35479,0.025111,0.018615
932,0.049147,0.14334,-0.55467,0.0043233,0.19563,0.010495,0.0039985
933,0.05207,0.16218,-0.49815,0.00010078,-0.0034721,-0.013216,-0.0089938
934,0.053044,0.1729,-0.40786,0.0033489,-0.22856,-0.039201,-0.012242
935,0.054019,0.17225,-0.28248,0.013418,-0.45333,-0.061613,-0.0067202
936,0.056617,0.15991,-0.094418,0.023487,-0.64724,-0.073306,0.0056225
937,0.061165,0.14204,0.19856,0.028684,-0.79405,-0.071682,0.01829
938,0.061489,0.1206,0.57891,0.029333,-0.89085,-0.059014,0.027709
939,0.052395,0.10177,0.95828,0.028359,-0.94087,-0.041799,0.032257
940,0.037129,0.084876,1.2418,0.028034,-0.95743,-0.028807,0.032906
941,0.021863,0.070909,1.3675,0.026735,-0.95451,-0.021012,0.032582
942,0.01017,0.059216,1.3256,0.023812,-0.94152,-0.01614,0.033556
943,0.0052977,0.047523,1.1519,0.020564,-0.91521,-0.012892,0.034855
944,0.0091954,0.034206,0.90794,0.023162,-0.86356,-0.011917,0.032257
945,0.015692,0.013093,0.65621,0.032906,-0.77359,-0.007045,0.025111
946,0.019264,-0.019063,0.44021,0.042651,-0.63945,0.0023744,0.020564
947,0.016341,-0.069083,0.27749,0.0433,-0.47542,0.015042,0.019589
948,0.0069217,-0.13794,0.1625,0.033881,-0.30294,0.024461,0.01764
949,-0.0073698,-0.21395,0.087799,0.019589,-0.13924,0.026735,0.014717
950,-0.022636,-0.27501,0.040702,0.0049729,0.0072465,0.019589,0.0091954
951,-0.034978,-0.30229,0.011144,-0.0089938,0.12937,0.0088706,0.0039985
952,-0.042449,-0.28605,-0.011917,-0.02426,0.23071,0.0017248,0.00010078
953,-0.045697,-0.23636,-0.040825,-0.039201,0.334,0.0020496,-0.0024977
954,-0.046996,-0.17205,-0.076879,-0.052843,0.46425,0.011794,-0.0057458
955,-0.04927,-0.11196,-0.11326,-0.065186,0.62243,0.031282,-0.0096434
956,-0.054467,-0.06616,-0.14639,-0.073631,0.78451,0.054344,-0.0099683
957,-0.060638,-0.037252,-0.17237,-0.068434,0.91411,0.072533,-0.0073698
958,-0.065186,-0.020687,-0.18829,-0.049595,0.97647,0.083901,-0.0047713
959,-0.06551,-0.010293,-0.19673,-0.022636,0.95568,0.091047,-0.0041217
960,-0.062262,-0.0024977,-0.19641,0.0052977,0.84363,0.092346,-0.0067202
961,-0.054142,0.0043233,-0.18699,0.025761,0.64582,0.085525,-0.0099683
962,-0.042449,0.008221,-0.17335,0.035505,0.38695,0.070909,-0.012892
963,-0.027508,0.011794,-0.1649,0.036479,0.11443,0.049796,-0.016789
964,-0.012892,0.016016,-0.16685,0.036804,-0.11618,0.029658,-0.020037
965,0.0020496,0.021538,-0.1753,0.038753,-0.27534,0.01894,-0.019063
966,0.015042,0.027709,-0.18796,0.044275,-0.36433,0.019589,-0.0093186
967,0.024461,0.033881,-0.19836,0.055318,-0.40623,0.020564,0.0069217
968,0.029983,0.038428,-0.19868,0.070909,-0.41955,0.011469,0.025761
969,0.030308,0.039727,-0.18569,0.086824,-0.41143,-0.0093186,0.042651
970,0.029009,0.041027,-0.16458,0.10047,-0.37668,-0.030106,0.055643
971,0.028359,0.0433,-0.14379,0.10631,-0.31983,-0.044723,0.06019
972,0.030957,0.049472,-0.12852,0.10242,-0.25357,-0.057715,0.059865
973,0.033881,0.056942,-0.12073,0.089748,-0.18439,-0.076879,0.056942
974,0.033231,0.061489,-0.11683,0.07708,-0.10806,-0.10611,0.053369
975,0.027709,0.062139,-0.11618,0.069285,-0.017439,-0.14119,0.047198
976,0.020239,0.06019,-0.11878,0.063763,0.095919,-0.17237,0.039402
977,0.011469,0.055643,-0.12073,0.058891,0.22065,-0.19024,0.030308
978,0.0017248,0.048822,-0.11975,0.049472,0.32036,-0.18731,0.022512
979,-0.008669,0.0433,-0.11618,0.03453,0.34829,-0.1662,0.015692
980,-0.020687,0.038753,-0.11228,0.017965,0.28268,-0.13892,0.0052977
981,-0.032055,0.036154,-0.11228,0.0014,0.14269,-0.11358,-0.0083442
982,-0.040175,0.033231,-0.11293,-0.017114,-0.021661,-0.090845,-0.021337
983,-0.042124,0.028684,-0.11488,-0.036927,-0.15711,-0.06681,-0.030106
984,-0.038227,0.024137,-0.11748,-0.055116,-0.22532,-0.034004,-0.030431
985,-0.030756,0.019589,-0.11845,-0.067784,-0.21655,0.0052977,-0.024909
986,-0.02361,0.016016,-0.11813,-0.070058,-0.15093,0.047523,-0.019388
987,-0.017439,0.013743,-0.11293,-0.061613,-0.064536,0.086824,-0.021012
988,-0.016789,0.012768,-0.10676,-0.047646,0.0062721,0.11671,-0.030106
989,-0.019388,0.010819,-0.10286,-0.034329,0.042326,0.1362,-0.045372
990,-0.020687,0.0078962,-0.10286,-0.025884,0.051096,0.14496,-0.060313
991,-0.024585,0.003024,-0.10644,-0.023285,0.057592,0.14367,-0.072656
992,-0.03303,-0.0054209,-0.10741,-0.025234,0.082602,0.1362,-0.080451
993,-0.045697,-0.016789,-0.09994,-0.030756,0.1284,0.13002,-0.083375
994,-0.056416,-0.030106,-0.0837,-0.042124,0.17387,0.1258,-0.0824
995,-0.061613,-0.040825,-0.065186,-0.055441,0.18849,0.12093,-0.077528
996,-0.062262,-0.044723,-0.051219,-0.06681,0.14756,0.11216,-0.071682
997,-0.059014,-0.039851,-0.043423,-0.070382,0.054993,0.097543,-0.060963
998,-0.050894,-0.028482,-0.039526,-0.063886,-0.056416,0.079029,-0.049595
999,-0.038551,-0.01614,-0.033679,-0.051219,-0.14931,0.058241,-0.038876
1000,-0.023935,-0.008669,-0.025559,-0.037252,-0.19446,0.03583,-0.030431
1001,-0.010943,-0.0060706,-0.015815,-0.027833,-0.18699,0.012768,-0.024909
1002,0.0010752,-0.0089938,-0.0063954,-0.024909,-0.13859,-0.0096434,-0.022311
1003,0.010819,-0.012567,0.0026992,-0.030106,-0.068758,-0.028157,-0.020037
1004,0.01764,-0.013541,0.010495,-0.034329,-0.00087364,-0.036602,-0.014191
1005,0.020888,-0.0089938,0.013418,-0.030106,0.047523,-0.036927,-0.0031473
1006,0.023812,0.00042559,0.012443,-0.01484,0.075131,-0.030431,0.010495
1007,0.025111,0.009845,0.010495,0.01017,0.092021,-0.022311,0.025111
1008,0.02641,0.014717,0.012443,0.03583,0.10404,-0.011917,0.038428
1009,0.033556,0.015042,0.019914,0.06084,0.11541,0.0036737,0.050446
1010,0.042651,0.013418,0.032257,0.082602,0.1219,0.023812,0.06084
1011,0.050446,0.012443,0.044599,0.099817,0.11736,0.042975,0.069934
1012,0.061165,0.01017,0.051096,0.11086,0.097218,0.056617,0.078055
1013,0.071883,0.0085458,0.050446,0.11541,0.064737,0.061814,0.084876
1014,0.080328,0.0091954,0.044275,0.11508,0.028684,0.058566,0.0865
1015,0.088448,0.013743,0.039727,0.10534,-0.0031473,0.052395,0.081627
1016,0.091696,0.019264,0.0433,0.090072,-0.024909,0.049796,0.072533
1017,0.090072,0.022512,0.054019,0.075781,-0.034654,0.05207,0.059541
1018,0.080978,0.024461,0.065387,0.069934,-0.035303,0.054993,0.047523
1019,0.06961,0.024137,0.070909,0.071883,-0.029782,0.053369,0.038428
1020,0.057917,0.020239,0.069934,0.074157,-0.02361,0.044275,0.036804
1021,0.045574,0.017316,0.067986,0.071558,-0.019712,0.029333,0.040377
1022,0.034206,0.016016,0.067011,0.063763,-0.021337,0.010819,0.044599
1023,0.022188,0.01829,0.063763,0.053044,-0.026533,-0.0034721,0.045249
1024,0.0095202,0.021863,0.055318,0.04395,-0.032055,-0.012892,0.042975
1025,0.0017248,0.029009,0.042651,0.040052,-0.035628,-0.021661,0.039402
1026,-0.00054884,0.038428,0.028359,0.040377,-0.035628,-0.035628,0.037778
1027,0.0020496,0.048172,0.015042,0.040377,-0.036602,-0.053817,0.040377
1028,0.0065969,0.056292,0.0017248,0.037778,-0.031081,-0.071682,0.045899
1029,0.014068,0.059865,-0.008669,0.03453,-0.015165,-0.082725,0.049472
1030,0.022837,0.057267,-0.015165,0.03518,0.0091954,-0.080451,0.049796
1031,0.033231,0.05207,-0.011592,0.039402,0.032582,-0.066485,0.048822
1032,0.041027,0.050446,0.0036737,0.044924,0.048497,-0.051544,0.048822
1033,0.044924,0.053369,0.029983,0.044924,0.054019,-0.042124,0.051096
1034,0.047198,0.057267,0.064413,0.040052,0.051096,-0.0405,0.053369
1035,0.048822,0.058566,0.10371,0.029983,0.042326,-0.044723,0.055318
1036,0.048497,0.053694,0.14984,0.017316,0.029333,-0.050244,0.054344
1037,0.044599,0.042326,0.2174,0.0072465,0.018615,-0.055116,0.048822
1038,0.037778,0.021863,0.30704,0.0026992,0.014068,-0.059014,0.039727
1039,0.029009,-0.0080194,0.37948,0.00042559,0.01829,-0.060963,0.028684
1040,0.01764,-0.044723,0.3785,-0.0050961,0.029658,-0.060313,0.020239
1041,0.0017248,-0.081101,0.29405,-0.012892,0.045574,-0.056741,0.012443
1042,-0.019063,-0.10806,0.15179,-0.021661,0.064413,-0.055116,0.00010078
1043,-0.038227,-0.11878,-0.0024977,-0.03173,0.08585,-0.056416,-0.016789
1044,-0.04927,-0.11326,-0.13015,-0.039201,0.10436,-0.056091,-0.034004
1045,-0.050569,-0.095393,-0.20745,-0.040825,0.11606,-0.051544,-0.04927
1046,-0.046671,-0.072656,-0.23246,-0.034654,0.12093,-0.045372,-0.060313
1047,-0.040175,-0.050244,-0.21655,-0.021986,0.12125,-0.042449,-0.06551
1048,-0.027508,-0.032055,-0.17042,-0.0054209,0.12093,-0.046347,-0.06616
1049,-0.013216,-0.020362,-0.10384,0.009845,0.12028,-0.054467,-0.062587
1050,-0.0034721,-0.012242,-0.023935,0.01894,0.11476,-0.063237,-0.056416
1051,-0.00054884,-0.0050961,0.054668,0.022837,0.10144,-0.068434,-0.049595
1052,-0.0028225,0.0036737,0.11606,0.024137,0.076755,-0.070707,-0.044398
1053,-0.0076946,0.013418,0.14496,0.024137,0.043625,-0.068434,-0.0405
1054,-0.013541,0.022512,0.13587,0.01764,0.0056225,-0.060963,-0.034004
1055,-0.017114,0.027385,0.095919,0.0043233,-0.027508,-0.049595,-0.026209
1056,-0.018413,0.026735,0.042001,-0.012242,-0.052518,-0.038551,-0.021012
1057,-0.019388,0.024461,-0.0047713,-0.022961,-0.070707,-0.030106,-0.018413
1058,-0.019712,0.024137,-0.03303,-0.025559,-0.094093,-0.02426,-0.01614
1059,-0.018413,0.022837,-0.043423,-0.021012,-0.13469,-0.018738,-0.013216
1060,-0.013541,0.020564,-0.044723,-0.013866,-0.20648,-0.008669,-0.011917
1061,-0.0073698,0.015042,-0.045047,-0.0054209,-0.31918,0.0056225,-0.011592
1062,-0.0031473,0.0088706,-0.045372,0.0062721,-0.47379,0.019914,-0.011267
1063,-0.00087364,0.0017248,-0.046347,0.01829,-0.65763,0.030633,-0.010618
1064,0.0014,-0.0037969,-0.04927,0.022837,-0.83823,0.033231,-0.0083442
1065,0.0056225,-0.0073698,-0.054142,0.016341,-0.96815,0.028034,-0.0080194
1066,0.0069217,-0.0080194,-0.059339,0.0065969,-1.013,0.016666,-0.0089938
1067,0.0033489,-0.0099683,-0.064211,0.00075039,-0.95548,0.0052977,-0.012567
1068,-0.0057458,-0.012242,-0.068758,0.0014,-0.7973,-0.0037969,-0.015815
1069,-0.017114,-0.015815,-0.068434,0.0075714,-0.54915,-0.0073698,-0.015165
1070,-0.022961,-0.019388,-0.063237,0.016991,-0.23733,-0.00087364,-0.013216
1071,-0.020687,-0.022636,-0.053817,0.021538,0.087799,0.012443,-0.011917
1072,-0.012242,-0.025559,-0.046996,0.015692,0.35706,0.023162,-0.014191
1073,-0.0031473,-0.030431,-0.044398,-0.007045,0.51654,0.023487,-0.018088
1074,0.0039985,-0.036278,-0.038876,-0.040825,0.54968,0.011469,-0.021986
1075,0.0062721,-0.035303,-0.018088,-0.072656,0.48309,-0.0073698,-0.025559
1076,0.0039985,-0.026533,0.020239,-0.087272,0.36778,-0.02361,-0.027183
1077,-0.00087364,-0.0096434,0.070584,-0.080776,0.25605,-0.030756,-0.026533
1078,-0.0063954,0.010819,0.12093,-0.058689,0.18329,-0.026533,-0.024909
1079,-0.011592,0.026735,0.16673,-0.03303,0.15861,-0.01549,-0.022961
1080,-0.017439,0.032906,0.207,-0.017114,0.17517,-0.0044465,-0.02361
1081,-0.025559,0.028684,0.23818,-0.013866,0.21025,0.0020496,-0.025884
1082,-0.037252,0.01764,0.25605,-0.019388,0.24338,0.0014,-0.028157
1083,-0.048296,0.0049729,0.25475,-0.030756,0.26384,-0.0050961,-0.028157
1084,-0.055441,-0.0041217,0.24208,-0.043748,0.26709,-0.011917,-0.025234
1085,-0.061288,-0.0047713,0.22747,-0.052518,0.26352,-0.014191,-0.021012
1086,-0.063237,0.0023744,0.21902,-0.055766,0.26742,-0.014191,-0.015165
1087,-0.058365,0.013093,0.2161,-0.054792,0.28885,-0.01614,-0.011267
1088,-0.04862,0.024461,0.21447,-0.052193,0.32913,-0.019712,-0.014516
1089,-0.039201,0.03583,0.19369,-0.04927,0.37688,-0.023935,-0.022636
1090,-0.033679,0.048172,0.13035,-0.044723,0.41358,-0.032705,-0.025559
1091,-0.030756,0.058891,0.016341,-0.038551,0.41878,-0.048296,-0.018738
1092,-0.026533,0.066686,-0.12203,-0.033354,0.38142,-0.06551,-0.0057458
1093,-0.016789,0.070259,-0.23961,-0.028807,0.30282,-0.076879,0.0072465
1094,-0.0024977,0.070584,-0.30262,-0.02361,0.20116,-0.081101,0.016666
1095,0.010495,0.067661,-0.30359,-0.018738,0.10014,-0.075904,0.022837
1096,0.016341,0.062789,-0.26072,-0.015815,0.019914,-0.063561,0.024461
1097,0.017316,0.056942,-0.2029,-0.01549,-0.026533,-0.04927,0.026735
1098,0.015692,0.050446,-0.15061,-0.01549,-0.034004,-0.039526,0.031282
1099,0.016666,0.041676,-0.10709,-0.013216,-0.0073698,-0.035303,0.03583
1100,0.019264,0.032257,-0.068434,-0.0089938,0.039727,-0.033354,0.037454
1101,0.020888,0.024137,-0.031081,-0.0054209,0.09462,-0.028807,0.033231
1102,0.01894,0.019264,0.0049729,0.00010078,0.14626,-0.018738,0.02641
1103,0.01764,0.016666,0.042975,0.0078962,0.18881,-0.0041217,0.020239
1104,0.021863,0.014717,0.088773,0.014717,0.22487,0.013743,0.017965
1105,0.032582,0.0095202,0.14042,0.017965,0.25215,0.028684,0.018615
1106,0.047523,0.003024,0.19758,0.022512,0.26612,0.038103,0.022837
1107,0.059865,-0.0018481,0.25702,0.032582,0.26579,0.047198,0.028359
1108,0.063438,-0.0037969,0.30769,0.045249,0.26157,0.057592,0.033881
1109,0.059216,-0.0024977,0.31776,0.054344,0.26969,0.072208,0.038753
1110,0.050771,-0.0018481,0.21902,0.054993,0.29373,0.090722,0.04395
1111,0.044275,-0.0037969,-0.028482,0.044599,0.32491,0.10761,0.050121
1112,0.040702,-0.014191,-0.36758,0.029658,0.3457,0.11573,0.053369
1113,0.041027,-0.029132,-0.6703,0.016666,0.34115,0.11086,0.049796
1114,0.044275,-0.042449,-0.81711,0.0088706,0.30542,0.093645,0.039727
1115,0.045899,-0.047646,-0.76385,0.0065969,0.23624,0.070909,0.02706
1116,0.042975,-0.043099,-0.56052,0.011144,0.13912,0.046873,0.016666
1117,0.03583,-0.032055,-0.30717,0.019589,0.021213,0.024461,0.011794
1118,0.025761,-0.018413,-0.095717,0.027709,-0.13015,0.0017248,0.014717
1119,0.016341,-0.007045,0.022837,0.032582,-0.34257,-0.02426,0.021863
1120,0.011469,-0.0011985,0.05207,0.036804,-0.60664,-0.060313,0.030308
1121,0.010495,-0.00087364,0.023812,0.04395,-0.86616,-0.10806,0.033881
1122,0.01017,-0.0015233,-0.022961,0.047847,-1.0539,-0.16133,0.031607
1123,0.0046481,-0.0044465,-0.059339,0.045574,-1.138,-0.21232,0.022512
1124,-0.0031473,-0.0096434,-0.073631,0.036479,-1.1367,-0.25422,0.01017
1125,-0.0083442,-0.01614,-0.054467,0.02706,-1.0906,-0.28053,-0.00054884
1126,-0.0067202,-0.019388,0.0056225,0.019914,-1.0305,-0.28638,-0.0067202
1127,0.00010078,-0.018738,0.10339,0.01894,-0.96783,-0.27469,-0.0047713
1128,0.008221,-0.014191,0.21415,0.020888,-0.90124,-0.24903,0.0039985
1129,0.019264,-0.0057458,0.31322,0.024786,-0.81874,-0.21395,0.015042
1130,0.029983,0.0056225,0.3798,0.033556,-0.71577,-0.17432,0.024461
1131,0.037129,0.01829,0.40221,0.045899,-0.59332,-0.13632,0.029009
1132,0.037778,0.026735,0.37915,0.055643,-0.4595,-0.10319,0.029983
1133,0.031932,0.026085,0.31809,0.059541,-0.32308,-0.074605,0.030308
1134,0.02706,0.01894,0.22682,0.058241,-0.19219,-0.044723,0.030633
1135,0.025761,0.012768,0.12028,0.061814,-0.078178,-0.014191,0.029658
1136,0.030308,0.0091954,0.0091954,0.070909,0.0078962,0.01829,0.026735
1137,0.040052,0.0075714,-0.096042,0.078379,0.058891,0.047523,0.023162
1138,0.053044,0.0075714,-0.18764,0.076431,0.071234,0.071558,0.020564
1139,0.058566,0.0078962,-0.25585,0.063113,0.057917,0.088448,0.019264
1140,0.047847,0.0062721,-0.30165,0.041027,0.039727,0.10242,0.019264
1141,0.023812,0.00042559,-0.35459,0.012443,0.032906,0.1206,0.016341
1142,-0.0054209,-0.0099683,-0.43904,-0.017114,0.032906,0.14496,0.0088706
1143,-0.030106,-0.025559,-0.52674,-0.043423,0.024137,0.17062,-0.0031473
1144,-0.041799,-0.038876,-0.55012,-0.06551,-0.0096434,0.19011,-0.015165
1145,-0.040825,-0.0405,-0.45983,-0.0824,-0.077203,0.19628,-0.02361
1146,-0.029782,-0.028157,-0.26072,-0.088896,-0.15841,0.18751,-0.025884
1147,-0.011592,-0.0047713,-0.0096434,-0.084349,-0.21849,0.16835,-0.021012
1148,0.0059473,0.018615,0.20538,-0.068758,-0.23214,0.13944,-0.013541
1149,0.016991,0.034855,0.30055,-0.045372,-0.19901,0.10729,-0.0054209
1150,0.020888,0.039078,0.23396,-0.021661,-0.13437,0.074806,-0.00087364
1151,0.016991,0.033556,0.043625,-0.0060706,-0.037252,0.044599,-0.0018481
1152,0.0088706,0.026735,-0.17205,-0.0011985,0.093645,0.01829,-0.0073698
1153,-0.00022403,0.019914,-0.31334,-0.0015233,0.26417,-0.0067202,-0.013541
1154,-0.008669,0.013093,-0.3286,0.0043233,0.47302,-0.025234,-0.01614
1155,-0.015165,0.0088706,-0.23149,0.016341,0.70169,-0.032055,-0.015165
1156,-0.021012,0.0056225,-0.079152,0.031607,0.91443,-0.023285,-0.015815
1157,-0.026858,0.0062721,0.066362,0.044599,1.07,-0.00087364,-0.020037
1158,-0.035628,0.0095202,0.16413,0.053694,1.1347,0.029333,-0.026533
1159,-0.047321,0.014392,0.20798,0.058241,1.098,0.061814,-0.029457
1160,-0.059989,0.021863,0.21382,0.057917,0.9703,0.087149,-0.029132
1161,-0.072656,0.028684,0.20083,0.05207,0.77574,0.098842,-0.027183
1162,-0.082076,0.033881,0.18492,0.040052,0.53831,0.099492,-0.028807
1163,-0.087272,0.034855,0.17322,0.023487,0.28853,0.095269,-0.030756
1164,-0.088247,0.030633,0.16185,0.0049729,0.074806,0.093321,-0.029782
1165,-0.084674,0.021538,0.14789,-0.014516,-0.062587,0.10144,-0.026858
1166,-0.076229,0.011144,0.13002,-0.029132,-0.11358,0.1219,-0.026858
1167,-0.063237,0.0017248,0.11054,-0.038227,-0.093119,0.14334,-0.033354
1168,-0.051219,-0.0041217,0.090722,-0.040175,-0.032705,0.15276,-0.043423
1169,-0.043748,-0.008669,0.073507,-0.037577,0.039402,0.14334,-0.053168
1170,-0.039851,-0.010943,0.057917,-0.035628,0.10436,0.1232,-0.05739
1171,-0.035953,-0.014191,0.045574,-0.03303,0.15016,0.10306,-0.05739
1172,-0.029457,-0.016464,0.037454,-0.027508,0.17062,0.089098,-0.053817
1173,-0.016464,-0.016789,0.036479,-0.019388,0.16673,0.078055,-0.044723
1174,-0.0018481,-0.013866,0.040377,-0.0096434,0.14367,0.065712,-0.033679
1175,0.011144,-0.0063954,0.045899,0.00010078,0.10436,0.053044,-0.026858
1176,0.018615,0.0033489,0.05142,0.0088706,0.050446,0.041027,-0.025559
1177,0.021213,0.01017,0.057267,0.013743,-0.011917,0.027709,-0.026209
1178,0.01829,0.012119,0.062789,0.017965,-0.076879,0.01017,-0.022311
1179,0.008221,0.011794,0.064088,0.025436,-0.1334,-0.0093186,-0.013866
1180,-0.0054209,0.012768,0.059865,0.03453,-0.17237,-0.029132,-0.0021729
1181,-0.01614,0.016341,0.054019,0.042651,-0.18829,-0.046022,0.01017
1182,-0.018088,0.021538,0.050771,0.048822,-0.18536,-0.057065,0.025111
1183,-0.01484,0.02641,0.05272,0.053044,-0.17042,-0.065835,0.040052
1184,-0.014516,0.030308,0.053694,0.054019,-0.15126,-0.075255,0.051745
1185,-0.017439,0.032906,0.055318,0.055643,-0.13372,-0.085324,0.053694
1186,-0.020362,0.031282,0.055318,0.061165,-0.12105,-0.093444,0.048497
1187,-0.021012,0.024786,0.047523,0.068635,-0.11293,-0.097666,0.040052
1188,-0.022961,0.01764,0.028684,0.074482,-0.10384,-0.097991,0.036154
1189,-0.021986,0.013418,0.0010752,0.075456,-0.093119,-0.092469,0.039078
1190,-0.013541,0.012443,-0.029132,0.073507,-0.079152,-0.08305,0.049796
1191,-0.00022403,0.014392,-0.059014,0.067661,-0.062587,-0.072981,0.06019
1192,0.013418,0.015367,-0.086948,0.058891,-0.045697,-0.063886,0.067336
1193,0.024137,0.016666,-0.11196,0.05272,-0.034329,-0.056416,0.068635
1194,0.029009,0.017965,-0.1308,0.051745,-0.027833,-0.047321,0.065387
1195,0.033881,0.019264,-0.14736,0.058241,-0.021012,-0.035953,0.058566
1196,0.041351,0.019914,-0.16295,0.064413,-0.0096434,-0.022636,0.048172
1197,0.049796,0.021213,-0.17659,0.06831,0.0026992,-0.010293,0.039078
1198,0.05207,0.025761,-0.18861,0.065062,0.013093,0.0039985,0.035505
1199,0.044275,0.033556,-0.20323,0.055968,0.019264,0.020239,0.03583
1200,0.032257,0.041676,-0.21395,0.045574,0.021863,0.038428,0.037454
1201,0.020888,0.044599,-0.18439,0.033231,0.016016,0.053369,0.037778
1202,0.017965,0.041351,-0.06681,0.019264,0.0017248,0.058241,0.03518
1203,0.025436,0.033556,0.14172,0.008221,-0.022311,0.049796,0.032582
1204,0.039727,0.026085,0.38402,0.0020496,-0.047971,0.02706,0.032906
1205,0.054668,0.021213,0.59093,-0.0021729,-0.068758,-0.00022403,0.03453
1206,0.066686,0.01829,0.70883,-0.0044465,-0.075579,-0.023935,0.036154
1207,0.071883,0.016666,0.71922,-0.0024977,-0.064861,-0.038227,0.036479
1208,0.074482,0.016341,0.64062,0.0039985,-0.043423,-0.039851,0.033881
1209,0.077405,0.019589,0.50713,0.016341,-0.023285,-0.032705,0.031932
1210,0.083901,0.028034,0.35901,0.031282,-0.0089938,-0.023935,0.032582
1211,0.091372,0.037454,0.22584,0.045574,-0.00054884,-0.01614,0.039078
1212,0.09462,0.045899,0.12288,0.055318,0.003024,-0.0063954,0.044924
1213,0.094945,0.051745,0.05142,0.056617,0.0052977,0.0033489,0.045899
1214,0.090722,0.050771,0.0026992,0.049472,0.0078962,0.0072465,0.0433
1215,0.082277,0.042975,-0.029132,0.036154,0.0095202,0.0039985,0.042975
1216,0.073182,0.030308,-0.052518,0.019589,0.013418,-0.0024977,0.046548
1217,0.065062,0.01894,-0.070707,0.0020496,0.020888,-0.010293,0.048497
1218,0.056617,0.013093,-0.0837,-0.016464,0.030308,-0.020687,0.044599
1219,0.047847,0.012443,-0.094093,-0.03303,0.036154,-0.033679,0.034855
1220,0.038753,0.015367,-0.10384,-0.042124,0.031932,-0.044398,0.024137
1221,0.028034,0.01764,-0.11228,-0.045047,0.016016,-0.049595,0.017316
1222,0.020564,0.01829,-0.1178,-0.041799,-0.0054209,-0.051219,0.015042
1223,0.019914,0.01764,-0.12008,-0.031406,-0.020037,-0.052518,0.014392
1224,0.024461,0.012768,-0.11488,-0.01549,-0.020037,-0.055441,0.014717
1225,0.025436,0.0069217,-0.10514,0.0020496,-0.010293,-0.060313,0.015367
1226,0.01894,0.0020496,-0.097017,0.016341,0.0075714,-0.06551,0.014392
1227,0.0052977,-0.0021729,-0.093444,0.024786,0.028684,-0.069733,0.011144
1228,-0.011267,-0.0054209,-0.093769,0.027709,0.043625,-0.073306,0.0062721
1229,-0.029782,-0.011592,-0.10026,0.023487,0.043625,-0.076879,-0.0011985
1230,-0.042124,-0.017114,-0.10936,0.013418,0.020564,-0.080127,-0.011267
1231,-0.046996,-0.021661,-0.12008,0.0036737,-0.035303,-0.0824,-0.027183
1232,-0.04927,-0.021012,-0.13047,-0.0050961,-0.11813,-0.084349,-0.043748
1233,-0.04927,-0.016464,-0.13827,-0.011592,-0.20778,-0.086298,-0.057715
1234,-0.048296,-0.013216,-0.14314,-0.017114,-0.28216,-0.088572,-0.06616
1235,-0.042774,-0.01549,-0.14476,-0.019712,-0.33185,-0.087922,-0.06681
1236,-0.034978,-0.020362,-0.14281,-0.021661,-0.35394,-0.084349,-0.061613
1237,-0.027183,-0.025234,-0.13697,-0.024585,-0.35069,-0.080451,-0.052843
1238,-0.021986,-0.026858,-0.1295,-0.029782,-0.3286,-0.075904,-0.046347
1239,-0.019388,-0.024909,-0.12885,-0.034654,-0.2945,-0.064861,-0.045697
1240,-0.018413,-0.020037,-0.13372,-0.037577,-0.25162,-0.047971,-0.047321
1241,-0.019388,-0.017764,-0.14346,-0.037252,-0.20031,-0.032055,-0.04862
1242,-0.021986,-0.018738,-0.15158,-0.035953,-0.14931,-0.023935,-0.046022
1243,-0.024909,-0.022961,-0.15418,-0.034978,-0.11358,-0.022961,-0.039851
1244,-0.023285,-0.027508,-0.14866,-0.034004,-0.098965,-0.025884,-0.032705
1245,-0.01614,-0.028807,-0.13632,-0.028807,-0.10449,-0.029782,-0.028157
1246,-0.0057458,-0.026533,-0.12365,-0.019063,-0.12105,-0.030106,-0.027833
1247,0.0039985,-0.02426,-0.11521,-0.010618,-0.14249,-0.026858,-0.030756
1248,0.0065969,-0.02361,-0.10903,-0.0080194,-0.16425,-0.021661,-0.030431
1249,-0.0021729,-0.023935,-0.10059,-0.010293,-0.18666,-0.017764,-0.027183
1250,-0.020687,-0.02426,-0.087922,-0.015165,-0.21135,-0.012892,-0.021337
1251,-0.044398,-0.02361,-0.075255,-0.02426,-0.24448,-0.0076946,-0.018088
1252,-0.063237,-0.022636,-0.069083,-0.034329,-0.28735,-0.0037969,-0.018088
1253,-0.072006,-0.021337,-0.070382,-0.037577,-0.33153,-0.0047713,-0.020362
1254,-0.066485,-0.020037,-0.071682,-0.034004,-0.36758,-0.010618,-0.021012
1255,-0.04862,-0.019388,-0.067459,-0.028482,-0.38545,-0.023285,-0.020037
1256,-0.027183,-0.018413,-0.054142,-0.021337,-0.38447,-0.040825,-0.018738
1257,-0.013866,-0.018738,-0.037252,-0.010943,-0.36563,-0.063886,-0.014191
1258,-0.0057458,-0.021337,-0.027508,0.0017248,-0.32925,-0.090196,-0.0076946
1259,-0.0044465,-0.024909,-0.032705,0.010819,-0.26462,-0.11651,-0.0031473
1260,-0.0083442,-0.028807,-0.052193,0.016991,-0.15646,-0.13729,-0.0044465
1261,-0.013216,-0.028482,-0.078503,0.024137,-0.0021729,-0.14704,-0.0093186
1262,-0.016464,-0.024585,-0.10026,0.03518,0.18524,-0.14639,-0.014516
1263,-0.017764,-0.013541,-0.11326,0.048172,0.36421,-0.13859,-0.017764
1264,-0.014516,0.0033489,-0.11456,0.056617,0.48049,-0.12885,-0.01549
1265,-0.0063954,0.023162,-0.10416,0.055968,0.50323,-0.12073,-0.0093186
1266,0.0026992,0.045899,-0.088247,0.048822,0.43404,-0.11261,-0.0031473
1267,0.013743,0.067336,-0.078178,0.039727,0.30574,-0.10254,0.00010078
1268,0.020239,0.084876,-0.086948,0.035505,0.16673,-0.092794,0.0023744
1269,0.019914,0.093645,-0.11586,0.036154,0.058241,-0.080127,0.0088706
1270,0.013743,0.093645,-0.16165,0.038103,0.00010078,-0.061937,0.019589
1271,0.0052977,0.087149,-0.21037,0.033556,-0.015815,-0.039526,0.033881
1272,-0.0041217,0.080653,-0.24188,0.020564,-0.011267,-0.012567,0.045249
1273,-0.013866,0.076755,-0.23993,0.003024,0.00042559,0.015367,0.048497
1274,-0.018088,0.07708,-0.20096,-0.014191,0.019589,0.040377,0.0433
1275,-0.019712,0.079354,-0.12852,-0.025884,0.053694,0.059216,0.031607
1276,-0.025559,0.083576,-0.03238,-0.03173,0.10242,0.070909,0.018615
1277,-0.036927,0.085525,0.073507,-0.030106,0.15698,0.075781,0.0062721
1278,-0.047646,0.084226,0.17355,-0.028157,0.21025,0.076106,-0.0024977
1279,-0.055766,0.07773,0.26255,-0.026533,0.26125,0.072858,-0.0073698
1280,-0.059339,0.059865,0.34667,-0.029782,0.30769,0.067986,-0.0099683
1281,-0.061613,0.024786,0.43762,-0.035953,0.34505,0.066686,-0.010943
1282,-0.064211,-0.023285,0.54318,-0.04115,0.36324,0.072208,-0.011267
1283,-0.067784,-0.069408,0.65686,-0.044398,0.35609,0.083901,-0.010618
1284,-0.070058,-0.092145,0.75171,-0.041475,0.32751,0.10014,-0.011917
1285,-0.069408,-0.081101,0.78971,-0.031406,0.2921,0.11736,-0.016789
1286,-0.063886,-0.041475,0.76502,-0.016789,0.27261,0.12872,-0.022311
1287,-0.056741,0.0075714,0.7241,-0.0031473,0.28073,0.1297,-0.02426
1288,-0.051868,0.04395,0.70916,-0.00054884,0.31484,0.12158,-0.02361
1289,-0.048296,0.051745,0.72442,-0.011592,0.36811,0.11054,-0.022311
1290,-0.043748,0.032582,0.72864,-0.027508,0.43209,0.10306,-0.015815
1291,-0.039851,-0.00087364,0.68155,-0.040175,0.49576,0.10209,-0.0041217
1292,-0.039201,-0.03173,0.55942,-0.046022,0.54805,0.10566,0.0095202
1293,-0.043423,-0.051219,0.35739,-0.043748,0.58378,0.10989,0.01764
1294,-0.048945,-0.056091,0.085525,-0.032055,0.59385,0.11151,0.015367
1295,-0.050569,-0.052193,-0.21492,-0.013541,0.56397,0.10956,0.0062721
1296,-0.043099,-0.048945,-0.48256,0.0056225,0.48861,0.10144,-0.0047713
1297,-0.025234,-0.053492,-0.65569,0.019264,0.36648,0.087799,-0.010943
1298,-0.0034721,-0.06681,-0.70603,0.022512,0.2044,0.066037,-0.010618
1299,0.016991,-0.085973,-0.65016,0.016016,0.018615,0.038753,-0.0076946
1300,0.029983,-0.10871,-0.53226,0.0036737,-0.1649,0.013743,-0.0063954
1301,0.033556,-0.13502,-0.40396,-0.007045,-0.31918,-0.0031473,-0.0047713
1302,0.02641,-0.1688,-0.30489,-0.0096434,-0.42377,-0.0099683,-0.0024977
1303,0.014068,-0.21752,-0.25292,0.00042559,-0.466,-0.0047713,0.00075039
1304,0.0017248,-0.28086,-0.23928,0.017965,-0.45333,0.009845,0.0036737
1305,-0.0028225,-0.34257,-0.23993,0.039078,-0.40266,0.026085,0.01017
1306,0.0033489,-0.37895,-0.23311,0.054019,-0.32893,0.036804,0.019264
1307,0.023812,-0.37408,-0.21135,0.056942,-0.24123,0.038103,0.029333
1308,0.05142,-0.32503,-0.17952,0.051096,-0.15126,0.025111,0.041676
1309,0.075131,-0.24221,-0.14801,0.038428,-0.069733,-0.0015233,0.056292
1310,0.089098,-0.15061,-0.12592,0.023487,-0.016789,-0.035628,0.066686
1311,0.091696,-0.064861,-0.12073,0.009845,-0.019388,-0.070058,0.065062
1312,0.087474,0.011144,-0.12917,0.0056225,-0.094418,-0.10416,0.055318
1313,0.080003,0.080653,-0.14216,0.0085458,-0.22629,-0.13599,0.042975
1314,0.073832,0.14496,-0.15191,0.014068,-0.37115,-0.16165,0.033556
1315,0.073507,0.19986,-0.15288,0.020239,-0.48061,-0.17075,0.029333
1316,0.077405,0.23786,-0.14314,0.027385,-0.51959,-0.16003,0.030957
1317,0.082927,0.25443,-0.11813,0.03583,-0.48484,-0.13242,0.03583
1318,0.0852,0.24825,-0.079477,0.042326,-0.39064,-0.097017,0.038428
1319,0.080003,0.22487,-0.037902,0.047198,-0.26592,-0.061288,0.034855
1320,0.070259,0.18881,-0.0096434,0.047847,-0.13697,-0.026533,0.027709
1321,0.058891,0.14886,-0.0015233,0.040702,-0.028482,0.0043233,0.021538
1322,0.050771,0.10989,-0.014516,0.029658,0.050121,0.03453,0.01764
1323,0.044599,0.079679,-0.042449,0.019589,0.10112,0.061165,0.014068
1324,0.036804,0.06084,-0.072006,0.014717,0.13197,0.081952,0.009845
1325,0.02706,0.054019,-0.089546,0.013093,0.14886,0.094945,0.0065969
1326,0.019589,0.054993,-0.090845,0.011144,0.15471,0.095919,0.0056225
1327,0.017965,0.058241,-0.082076,0.0088706,0.14399,0.088773,0.0036737
1328,0.021538,0.06084,-0.067459,0.0046481,0.10371,0.075131,-0.0011985
1329,0.027385,0.060515,-0.04927,-0.0015233,0.03583,0.063763,-0.0089938
1330,0.030957,0.058566,-0.034654,-0.0063954,-0.045047,0.057592,-0.017764
1331,0.030957,0.054668,-0.025884,-0.0067202,-0.123,0.054993,-0.023935
1332,0.023487,0.05207,-0.024585,-0.0024977,-0.18471,0.050121,-0.026858
1333,0.013093,0.050446,-0.028807,0.0010752,-0.23149,0.042651,-0.024909
1334,0.0046481,0.049796,-0.035303,0.00010078,-0.26429,0.035505,-0.021986
1335,0.0043233,0.05142,-0.04115,-0.0015233,-0.27956,0.02641,-0.023935
1336,0.009845,0.054344,-0.046022,-0.0041217,-0.27209,0.012768,-0.032055
1337,0.015692,0.057267,-0.046347,-0.0050961,-0.24091,-0.0057458,-0.040825
1338,0.016341,0.062464,-0.038227,-0.0057458,-0.18959,-0.025234,-0.045697
1339,0.015367,0.068635,-0.026533,-0.0011985,-0.1282,-0.0405,-0.047646
1340,0.014068,0.074806,-0.0096434,0.009845,-0.068758,-0.045697,-0.046996
1341,0.014392,0.080328,0.015042,0.023162,-0.02361,-0.039526,-0.044398
1342,0.016666,0.0865,0.041676,0.03518,0.0026992,-0.02361,-0.036602
1343,0.021213,0.090722,0.066037,0.042326,0.014068,-0.0050961,-0.024585
1344,0.027709,0.090397,0.082277,0.042651,0.016666,0.0085458,-0.0080194
1345,0.033881,0.086824,0.086824,0.038428,0.016991,0.014717,0.0091954
1346,0.033556,0.081303,0.079029,0.03583,0.018615,0.013093,0.023487
1347,0.029009,0.075781,0.065387,0.03518,0.017316,0.0072465,0.032582
1348,0.023812,0.06896,0.05142,0.035505,0.0091954,0.00042559,0.031932
1349,0.016991,0.059541,0.04395,0.037778,-0.0031473,-0.0024977,0.01764
1350,0.0069217,0.047847,0.042326,0.041676,-0.013216,0.00075039,-0.0057458
1351,-0.0057458,0.036154,0.045899,0.043625,-0.01549,0.011469,-0.027833
1352,-0.017764,0.028034,0.054668,0.044275,-0.010943,0.023487,-0.040175
1353,-0.020037,0.023487,0.062139,0.041027,0.0020496,0.032582,-0.039201
1354,-0.014191,0.021538,0.065062,0.035505,0.022512,0.03453,-0.028807
1355,-0.0041217,0.018615,0.064413,0.033556,0.048172,0.03453,-0.01614
1356,0.0046481,0.015692,0.063763,0.03453,0.06831,0.035505,-0.0050961
1357,0.0095202,0.014068,0.064413,0.036154,0.077405,0.039078,0.0039985
1358,0.0091954,0.013418,0.065387,0.034855,0.075456,0.04395,0.012443
1359,0.0046481,0.016016,0.065062,0.02706,0.06896,0.048172,0.01894
1360,-0.0011985,0.025111,0.063438,0.015367,0.065712,0.048822,0.019589
1361,-0.0060706,0.036154,0.062139,0.0036737,0.069285,0.042001,0.01764
1362,-0.0099683,0.042651,0.062789,-0.0021729,0.076755,0.030633,0.018615
1363,-0.013866,0.039402,0.064737,0.00042559,0.083901,0.014068,0.021863
1364,-0.015815,0.030633,0.064413,0.0095202,0.088448,-0.0031473,0.026735
1365,-0.013541,0.020239,0.057917,0.019264,0.087474,-0.02361,0.033231
1366,-0.0076946,0.011144,0.045899,0.028034,0.082927,-0.046347,0.037778
1367,-0.0015233,0.0078962,0.03453,0.031932,0.073832,-0.065835,0.040702
1368,0.0059473,0.009845,0.026085,0.030957,0.060515,-0.081751,0.043625
1369,0.0095202,0.013418,0.022512,0.024786,0.041351,-0.089871,0.046223
1370,0.009845,0.016341,0.019589,0.020239,0.013093,-0.086948,0.047847
1371,0.0062721,0.016666,0.018615,0.022188,-0.021337,-0.075904,0.043625
1372,-0.00054884,0.013743,0.020564,0.029009,-0.052843,-0.065186,0.03583
1373,-0.010618,0.0075714,0.025436,0.034206,-0.074605,-0.059664,0.029333
1374,-0.019712,0.00075039,0.03453,0.03518,-0.084024,-0.060313,0.02641
1375,-0.023935,-0.0037969,0.042651,0.032582,-0.079152,-0.065186,0.024786
1376,-0.026533,-0.0083442,0.045574,0.029983,-0.063561,-0.070058,0.021213
1377,-0.025559,-0.011267,0.044599,0.031282,-0.043423,-0.070382,0.013743
1378,-0.022961,-0.011592,0.042001,0.036804,-0.023285,-0.062262,0.0020496
1379,-0.020687,-0.0096434,0.039727,0.0433,-0.007045,-0.044398,-0.0067202
1380,-0.021012,-0.007045,0.032257,0.044275,0.00075039,-0.022636,-0.0050961
1381,-0.021012,-0.0076946,0.01764,0.03583,0.00042559,-0.0083442,0.0023744
1382,-0.021661,-0.010943,0.00075039,0.016341,-0.0057458,-0.0076946,0.010819
1383,-0.024585,-0.012567,-0.01549,-0.008669,-0.012242,-0.017439,0.016016
1384,-0.030106,-0.013866,-0.031406,-0.030106,-0.0031473,-0.027833,0.012119
1385,-0.037902,-0.01549,-0.045697,-0.044073,0.033231,-0.034329,0.0010752
1386,-0.043748,-0.020037,-0.05804,-0.050894,0.091372,-0.040175,-0.0076946
1387,-0.050569,-0.026533,-0.067134,-0.051868,0.14789,-0.047971,-0.011592
1388,-0.057715,-0.03238,-0.076554,-0.047971,0.17647,-0.055116,-0.011917
1389,-0.060638,-0.039851,-0.088572,-0.039526,0.16283,-0.060963,-0.0093186
1390,-0.060963,-0.047971,-0.099615,-0.028807,0.10891,-0.066485,-0.0028225
1391,-0.05739,-0.055441,-0.10481,-0.018413,0.029983,-0.070707,0.0052977
1392,-0.048945,-0.060313,-0.10156,-0.0073698,-0.055116,-0.071032,0.011469
1393,-0.040175,-0.060963,-0.089546,0.0033489,-0.13047,-0.069733,0.014717
1394,-0.035303,-0.057715,-0.067784,0.014392,-0.18991,-0.064211,0.014717
1395,-0.035628,-0.052193,-0.039201,0.028034,-0.23116,-0.059664,0.010819
1396,-0.036602,-0.045047,-0.019063,0.03583,-0.25098,-0.055441,0.0052977
1397,-0.035953,-0.038551,-0.01549,0.030633,-0.25,-0.054142,-0.0024977
1398,-0.034004,-0.034978,-0.020037,0.012443,-0.22954,-0.057065,-0.013541
1399,-0.026858,-0.036602,-0.012892,-0.0099683,-0.19381,-0.059989,-0.022636
1400,-0.01484,-0.039851,0.01764,-0.028157,-0.14704,-0.057065,-0.025559
1401,-0.0060706,-0.039526,0.06831,-0.036927,-0.09117,-0.04992,-0.02361
1402,-0.0034721,-0.035953,0.12678,-0.035303,-0.036278,-0.040825,-0.016464
1403,-0.0067202,-0.029782,0.18329,-0.030106,0.0085458,-0.032705,-0.007045
1404,-0.010293,-0.025234,0.22552,-0.027508,0.036804,-0.023285,-0.00054884
1405,-0.012242,-0.021337,0.24988,-0.027508,0.051096,-0.012892,-0.00054884
1406,-0.0089938,-0.017114,0.2489,-0.024909,0.060515,-0.0037969,-0.0037969
1407,0.00010078,-0.008669,0.22682,-0.018088,0.070584,0.0017248,-0.0054209
1408,0.010819,0.0046481,0.19271,-0.0083442,0.079029,0.0085458,0.00042559
1409,0.023162,0.020564,0.15958,0.0023744,0.080978,0.020888,0.014717
1410,0.03453,0.038428,0.14042,0.014068,0.079354,0.038428,0.035505
1411,0.046223,0.058241,0.13977,0.024786,0.078704,0.055643,0.055643
1412,0.057267,0.074482,0.15081,0.034206,0.082602,0.069934,0.069285
1413,0.065712,0.083251,0.15309,0.038428,0.090397,0.079029,0.070584
1414,0.06961,0.083251,0.1258,0.039402,0.096893,0.083251,0.058891
1415,0.069285,0.078704,0.065387,0.038428,0.098193,0.081627,0.040702
1416,0.067011,0.070909,-0.019063,0.03583,0.087799,0.072858,0.019264
1417,0.065062,0.059541,-0.11066,0.031282,0.069934,0.059865,0.00010078
1418,0.057592,0.044599,-0.19316,0.023162,0.048822,0.046548,-0.011267
1419,0.044599,0.026085,-0.25357,0.011469,0.029009,0.033231,-0.010943
1420,0.027385,0.011794,-0.28963,-0.0018481,0.01764,0.017965,-0.0018481
1421,0.011469,0.0039985,-0.30554,-0.0093186,0.015367,0.0049729,0.0085458
1422,-0.00087364,0.0043233,-0.30652,-0.0083442,0.028684,0.0010752,0.01829
1423,-0.008669,0.0095202,-0.29872,0.0039985,0.053044,0.0062721,0.025111
1424,-0.0099683,0.014717,-0.28963,0.020239,0.07773,0.01894,0.029658
1425,0.0014,0.018615,-0.2867,0.033556,0.087474,0.032906,0.029658
1426,0.021538,0.023162,-0.28118,0.039078,0.070259,0.042651,0.028034
1427,0.040377,0.024786,-0.22791,0.038103,0.020564,0.048497,0.024461
1428,0.047847,0.024137,-0.083375,0.030308,-0.049595,0.054019,0.01894
1429,0.042975,0.016991,0.13587,0.01829,-0.12203,0.055968,0.012768
1430,0.032257,-0.00022403,0.36941,0.0049729,-0.17367,0.047523,0.0078962
1431,0.01894,-0.025234,0.55357,-0.0060706,-0.18764,0.027385,0.0043233
1432,0.011144,-0.050894,0.64647,-0.012242,-0.161,0.0036737,0.0056225
1433,0.01017,-0.071682,0.63737,-0.012892,-0.10546,-0.013541,0.0091954
1434,0.011469,-0.082076,0.54643,-0.013866,-0.044073,-0.017439,0.010495
1435,0.012119,-0.077203,0.40903,-0.01549,0.0017248,-0.0093186,0.0075714
1436,0.012443,-0.061288,0.26417,-0.01484,0.024786,0.0026992,-0.00087364
1437,0.014717,-0.040825,0.14009,-0.012892,0.026735,0.012443,-0.013866
1438,0.018615,-0.021337,0.05207,-0.01484,0.0088706,0.016666,-0.024909
1439,0.019589,-0.007045,-0.00022403,-0.021012,-0.03173,0.012768,-0.029132
1440,0.012119,-0.0028225,-0.025234,-0.029132,-0.099615,0.0023744,-0.028807
1441,-0.0018481,-0.0080194,-0.033679,-0.034004,-0.19998,-0.0099683,-0.024585
1442,-0.018738,-0.019712,-0.035303,-0.035953,-0.32536,-0.018088,-0.020037
1443,-0.035628,-0.03303,-0.032055,-0.036602,-0.4569,-0.017764,-0.018738
1444,-0.04862,-0.044073,-0.024909,-0.034654,-0.56214,-0.0093186,-0.023285
1445,-0.056091,-0.052518,-0.013866,-0.029132,-0.61021,0.003024,-0.028807
1446,-0.055441,-0.054467,0.00042559,-0.020687,-0.5852,0.019264,-0.029782
1447,-0.052518,-0.050244,0.017965,-0.011267,-0.48906,0.037778,-0.025234
1448,-0.048296,-0.04115,0.035505,-0.0034721,-0.34939,0.055643,-0.018413
1449,-0.044723,-0.031081,0.051096,0.0043233,-0.20096,0.064737,-0.013216
1450,-0.040175,-0.021337,0.062789,0.0095202,-0.070382,0.064088,-0.010618
1451,-0.035303,-0.012242,0.054344,0.0075714,0.02706,0.050121,-0.011267
1452,-0.03173,-0.0044465,-0.0083442,-0.00054884,0.092996,0.027709,-0.010618
1453,-0.027183,0.0020496,-0.15061,-0.010618,0.13457,0.0059473,-0.007045
1454,-0.02361,0.0033489,-0.34614,-0.01614,0.15114,-0.0089938,-0.0018481
1455,-0.020687,0.00010078,-0.52511,-0.01484,0.14334,-0.020687,0.003024
1456,-0.016789,-0.0047713,-0.61703,-0.007045,0.12158,-0.033679,0.0056225
1457,-0.011267,-0.010618,-0.5956,0.0065969,0.090397,-0.046022,0.0036737
1458,-0.0057458,-0.015815,-0.48061,0.023487,0.062139,-0.055766,-0.0054209
1459,-0.0018481,-0.017439,-0.32731,0.035505,0.040702,-0.059339,-0.018088
1460,-0.0028225,-0.012242,-0.19056,0.041676,0.025436,-0.059664,-0.028482
1461,-0.0073698,-0.0031473,-0.09929,0.043625,0.0069217,-0.059339,-0.030756
1462,-0.013866,0.0069217,-0.064536,0.044924,-0.022961,-0.062587,-0.022311
1463,-0.017439,0.012119,-0.072981,0.039402,-0.060963,-0.067784,-0.010618
1464,-0.013866,0.011469,-0.10384,0.026735,-0.10026,-0.071682,-0.0047713
1465,-0.0083442,0.0056225,-0.13404,0.009845,-0.13502,-0.071357,-0.007045
1466,-0.0028225,0.00010078,-0.14671,-0.0044465,-0.15386,-0.06616,-0.012892
1467,0.0023744,-0.0028225,-0.13859,-0.011917,-0.14476,-0.057715,-0.012892
1468,0.0091954,-0.00087364,-0.11553,-0.0089938,-0.10156,-0.055116,-0.0050961
1469,0.01764,0.0049729,-0.08305,0.00010078,-0.022636,-0.058689,0.0075714
1470,0.024461,0.0088706,-0.053168,0.0075714,0.088773,-0.064861,0.01894
1471,0.02641,0.0078962,-0.03303,0.010819,0.22194,-0.069733,0.023812
1472,0.023162,0.00075039,-0.020362,0.015692,0.35966,-0.070382,0.020564
1473,0.020888,-0.0060706,-0.010943,0.025111,0.47822,-0.06551,0.010819
1474,0.022512,-0.0089938,-0.0021729,0.036154,0.55325,-0.054792,-0.0018481
1475,0.030308,-0.0067202,0.0023744,0.04395,0.57728,-0.039851,-0.013216
1476,0.038103,-0.00022403,-0.00022403,0.045249,0.55844,-0.022311,-0.01614
1477,0.041351,0.0075714,-0.0063954,0.037778,0.52044,-0.00087364,-0.011267
1478,0.036804,0.011469,-0.0054209,0.024137,0.48601,0.01894,-0.0031473
1479,0.026735,0.013743,0.0049729,0.01017,0.461,0.035505,0.0056225
1480,0.015692,0.012119,0.020239,-0.00054884,0.43502,0.045899,0.0088706
1481,0.0033489,0.0075714,0.036154,-0.0063954,0.39637,0.051096,0.0039985
1482,-0.008669,0.0010752,0.047523,-0.010293,0.33725,0.05207,-0.0044465
1483,-0.017764,-0.0054209,0.056292,-0.012242,0.26222,0.047523,-0.014516
1484,-0.02426,-0.0080194,0.06896,-0.013541,0.17907,0.038103,-0.025884
1485,-0.027508,-0.0028225,0.086824,-0.018088,0.10209,0.026735,-0.03303
1486,-0.022961,0.0078962,0.10534,-0.026209,0.042001,0.013743,-0.033354
1487,-0.01549,0.021213,0.12158,-0.033354,0.00042559,-0.0031473,-0.028482
1488,-0.010293,0.032906,0.13002,-0.035953,-0.017439,-0.022311,-0.021337
1489,-0.0076946,0.040052,0.1219,-0.034654,-0.00054884,-0.037577,-0.013216
1490,-0.0083442,0.044275,0.077405,-0.030106,0.058241,-0.04992,-0.0060706
1491,-0.010618,0.045249,-0.012242,-0.02361,0.15114,-0.055766,-0.0034721
1492,-0.011592,0.046223,-0.13307,-0.014516,0.25215,-0.054467,-0.0037969
1493,-0.012242,0.046223,-0.24156,-0.0034721,0.31906,-0.047971,-0.0018481
1494,-0.011592,0.0433,-0.29937,0.0059473,0.31711,-0.037577,0.0046481
1495,-0.010293,0.039727,-0.2919,0.0088706,0.24436,-0.026209,0.014392
1496,-0.0076946,0.033556,-0.23246,0.0085458,0.13522,-0.018088,0.018615
1497,-0.0024977,0.025761,-0.14639,0.010495,0.03583,-0.014191,0.018615
1498,0.0095202,0.01829,-0.063237,0.014392,-0.013541,-0.014191,0.013743
1499,0.024786,0.015367,-0.0011985,0.022188,0.0052977,-0.017764,0.0095202
1500,0.039078,0.016991,0.037454,0.034206,0.085525,-0.021337,0.0091954
1501,0.050446,0.024137,0.056942,0.044275,0.20051,-0.020037,0.013418
1502,0.056292,0.034206,0.066037,0.050446,0.31386,-0.012242,0.019589
1503,0.060515,0.046873,0.06896,0.055318,0.38792,-0.0015233,0.024137
1504,0.062789,0.06019,0.071234,0.059541,0.39831,0.0088706,0.025436
1505,0.065712,0.06961,0.077405,0.062789,0.34277,0.016991,0.025111
1506,0.064413,0.076755,0.086175,0.063763,0.23526,0.025111,0.02641
1507,0.056942,0.079679,0.095919,0.059541,0.098842,0.029658,0.028034
1508,0.049147,0.078379,0.10339,0.053369,-0.050244,0.025111,0.029658
1509,0.042001,0.074806,0.10274,0.046223,-0.21265,0.011144,0.029009
1510,0.038428,0.067986,0.09462,0.036804,-0.39097,-0.016464,0.025111
1511,0.038428,0.06019,0.080328,0.025436,-0.58163,-0.05804,0.016016
1512,0.03583,0.053694,0.066037,0.014392,-0.75897,-0.10286,0.0062721
1513,0.028034,0.053044,0.054019,0.0095202,-0.88922,-0.13729,0.00075039
1514,0.015367,0.059216,0.041676,0.011794,-0.94087,-0.15158,0.0017248
1515,0.0039985,0.06896,0.029009,0.017316,-0.90968,-0.14054,-0.00054884
1516,-0.0024977,0.073832,0.016016,0.024786,-0.81289,-0.11261,-0.010618
1517,-0.0018481,0.070584,0.0059473,0.033881,-0.6807,-0.079802,-0.024909
1518,0.0026992,0.062789,0.0085458,0.041676,-0.5407,-0.051219,-0.036927
1519,0.0046481,0.054668,0.025436,0.045574,-0.40688,-0.03173,-0.044723
1520,-0.00022403,0.049472,0.053044,0.045249,-0.2893,-0.019712,-0.048945
1521,-0.0093186,0.048172,0.091372,0.038753,-0.18894,-0.0076946,-0.046022
1522,-0.019388,0.049796,0.14009,0.031282,-0.10351,0.0036737,-0.036602
1523,-0.029132,0.05207,0.20538,0.023162,-0.024585,0.016991,-0.02426
1524,-0.036278,0.049796,0.29048,0.010495,0.054019,0.028684,-0.013866
1525,-0.039201,0.037454,0.3746,-0.0099683,0.11606,0.031932,-0.011592
1526,-0.044073,0.013093,0.40741,-0.03173,0.12385,0.021213,-0.016789
1527,-0.052518,-0.019712,0.35804,-0.047971,0.058241,-0.0031473,-0.027183
1528,-0.061288,-0.051219,0.23429,-0.056741,-0.064861,-0.032055,-0.039851
1529,-0.06616,-0.073631,0.079029,-0.059664,-0.19608,-0.052518,-0.050569
1530,-0.064536,-0.083375,-0.064536,-0.057715,-0.2867,-0.055766,-0.059014
1531,-0.056091,-0.082076,-0.16815,-0.050894,-0.30977,-0.042449,-0.062912
1532,-0.043423,-0.073631,-0.22012,-0.038551,-0.27014,-0.017764,-0.062262
1533,-0.032705,-0.060313,-0.22726,-0.022636,-0.20031,0.0095202,-0.05804
1534,-0.028482,-0.046347,-0.20193,-0.0060706,-0.13729,0.035505,-0.054142
1535,-0.029457,-0.033354,-0.15938,0.0085458,-0.10286,0.054019,-0.046022
1536,-0.030431,-0.02361,-0.11618,0.017965,-0.096692,0.066362,-0.03173
1537,-0.026858,-0.014516,-0.0824,0.023812,-0.10968,0.073832,-0.012892
1538,-0.016789,-0.007045,-0.063886,0.028684,-0.12885,0.079354,0.0088706
1539,-0.0063954,-0.0021729,-0.052843,0.032257,-0.13957,0.082927,0.02641
1540,0.00075039,-0.0018481,-0.043423,0.035505,-0.13892,0.082277,0.037129
1541,0.0036737,-0.0034721,-0.035303,0.038428,-0.1308,0.078379,0.043625
1542,0.0046481,-0.0060706,-0.029132,0.039402,-0.12463,0.074482,0.049147
1543,0.0052977,-0.007045,-0.026533,0.036804,-0.12105,0.067986,0.054019
1544,0.008221,-0.0083442,-0.029132,0.031932,-0.11391,0.056292,0.059541
1545,0.016666,-0.0067202,-0.036278,0.027385,-0.10351,0.040702,0.065712
1546,0.029009,-0.0044465,-0.043748,0.023487,-0.091495,0.024461,0.074482
1547,0.041676,-0.0024977,-0.040175,0.021538,-0.079477,0.013093,0.0865
1548,0.050771,-0.00087364,-0.0063954,0.021538,-0.068109,0.0069217,0.10144
1549,0.054668,0.0020496,0.070584,0.025436,-0.056091,-0.00022403,0.11346
1550,0.054019,0.0065969,0.18102,0.034206,-0.04115,-0.0093186,0.12028
1551,0.053369,0.015042,0.29762,0.045249,-0.020362,-0.021986,0.12125
1552,0.054019,0.025761,0.39377,0.054668,-0.0021729,-0.036278,0.11346
1553,0.054993,0.036479,0.44346,0.056292,0.0046481,-0.051868,0.10014
1554,0.058241,0.044599,0.43567,0.047523,-0.00087364,-0.066485,0.08585
1555,0.06019,0.052395,0.37883,0.029658,-0.014191,-0.079802,0.074482
1556,0.06019,0.057592,0.28528,0.0095202,-0.029457,-0.088247,0.066362
1557,0.060515,0.058566,0.16933,-0.0054209,-0.036602,-0.092145,0.06019
1558,0.057917,0.055643,0.048497,-0.011917,-0.030106,-0.090845,0.057267
1559,0.055318,0.048172,-0.06616,-0.011592,-0.013541,-0.086623,0.057917
1560,0.055643,0.040052,-0.16847,-0.0063954,0.008221,-0.075904,0.060515
1561,0.057592,0.032582,-0.25098,-0.00087364,0.029658,-0.056416,0.064413
1562,0.055643,0.026735,-0.31139,0.0039985,0.049472,-0.03173,0.06831
1563,0.047847,0.018615,-0.36888,0.0043233,0.065712,-0.0041217,0.067986
1564,0.039727,0.0062721,-0.45755,-0.0031473,0.081627,0.021213,0.062139
1565,0.034206,-0.011267,-0.57156,-0.016464,0.10209,0.042001,0.055318
1566,0.030957,-0.026209,-0.65374,-0.03303,0.1323,0.060515,0.050446
1567,0.026735,-0.034654,-0.64464,-0.044073,0.16705,0.079029,0.049147
1568,0.023162,-0.034654,-0.52057,-0.045372,0.19661,0.095919,0.049147
1569,0.01829,-0.025884,-0.32178,-0.036278,0.21188,0.11151,0.046873
1570,0.013743,-0.012567,-0.12235,-0.020037,0.21837,0.1219,0.039078
1571,0.0075714,-0.0015233,0.01017,-0.0044465,0.22389,0.12483,0.028359
1572,-0.0015233,0.0033489,0.047523,0.0056225,0.23169,0.11898,0.017316
1573,-0.0083442,0.0017248,0.0039985,0.0085458,0.24273,0.10339,0.0078962
1574,-0.0099683,-0.0054209,-0.075904,0.0078962,0.25507,0.0852,0.00075039
1575,-0.0060706,-0.013866,-0.14964,0.0085458,0.26579,0.065062,-0.007045
1576,-0.0021729,-0.022636,-0.19381,0.011794,0.27879,0.04395,-0.017114
1577,-0.0028225,-0.028807,-0.20583,0.016991,0.29438,0.024786,-0.025234
1578,-0.0076946,-0.030756,-0.19446,0.021538,0.30802,0.0088706,-0.026209
1579,-0.01614,-0.028482,-0.1675,0.022837,0.31451,-0.0018481,-0.021661
1580,-0.02426,-0.023285,-0.13372,0.021213,0.31386,-0.0093186,-0.01614
1581,-0.029782,-0.016464,-0.096692,0.01894,0.30867,-0.016789,-0.015165
1582,-0.033354,-0.013866,-0.057065,0.016016,0.30055,-0.022961,-0.015815
1583,-0.036278,-0.01549,-0.020037,0.010495,0.29275,-0.02426,-0.018088
1584,-0.038551,-0.019712,0.01829,0.0020496,0.28918,-0.021986,-0.021986
1585,-0.043423,-0.02426,0.060515,-0.0057458,0.28626,-0.016789,-0.025234
1586,-0.047971,-0.024909,0.11378,-0.0096434,0.27749,-0.013216,-0.02361
1587,-0.048296,-0.020687,0.17615,-0.0076946,0.25248,-0.013866,-0.020037
1588,-0.044723,-0.012892,0.24955,0.0010752,0.19531,-0.019063,-0.014516
1589,-0.042449,-0.0021729,0.34505,0.013093,0.098193,-0.029782,-0.011917
1590,-0.046996,0.0085458,0.47659,0.024461,-0.018413,-0.046996,-0.014516
1591,-0.057715,0.019264,0.63932,0.032582,-0.123,-0.069408,-0.022961
1592,-0.070058,0.029658,0.8027,0.040377,-0.19154,-0.094418,-0.034329
1593,-0.077853,0.038428,0.91931,0.046548,-0.2081,-0.11618,-0.040175
1594,-0.075904,0.041676,0.94951,0.053044,-0.17237,-0.13145,-0.039526
1595,-0.065186,0.039727,0.88228,0.054019,-0.097341,-0.13599,-0.034004
1596,-0.04992,0.036154,0.73514,0.047847,-0.011917,-0.12852,-0.025234
1597,-0.034004,0.031607,0.54383,0.039402,0.05142,-0.11066,-0.014516
1598,-0.021012,0.024137,0.34862,0.032582,0.067661,-0.083375,-0.0037969
1599,-0.0083442,0.014717,0.18199,0.026735,0.030308,-0.052843,0.0049729
1600,0.0039985,0.0056225,0.061814,0.01829,-0.043423,-0.021012,0.0085458
1601,0.0091954,0.00075039,-0.01549,0.0062721,-0.12982,0.0056225,0.0049729
1602,0.0078962,-0.0011985,-0.062587,-0.0099683,-0.21102,0.021538,-0.0047713
1603,-0.0024977,0.0014,-0.093119,-0.028807,-0.28735,0.030308,-0.012892
1604,-0.017114,0.0020496,-0.11943,-0.046347,-0.36791,0.033231,-0.013216
1605,-0.028157,-0.0011985,-0.14152,-0.059664,-0.46015,0.029983,-0.0099683
1606,-0.030431,-0.0063954,-0.15321,-0.065835,-0.56052,0.023162,-0.0063954
1607,-0.029457,-0.0096434,-0.15223,-0.062912,-0.65049,0.016666,-0.0076946
1608,-0.029132,-0.007045,-0.14184,-0.051544,-0.69726,0.012119,-0.01484
1609,-0.026209,-0.00022403,-0.13047,-0.03173,-0.67647,0.010495,-0.025234
1610,-0.023285,0.0091954,-0.11943,-0.0047713,-0.58423,0.0088706,-0.036602
1611,-0.022311,0.017316,-0.11066,0.01894,-0.43644,0.0026992,-0.044073
1612,-0.025234,0.020564,-0.10514,0.034206,-0.2591,-0.0076946,-0.046996
1613,-0.029132,0.016991,-0.10189,0.038103,-0.086623,-0.018088,-0.047971
1614,-0.028157,0.0075714,-0.10221,0.034206,0.048172,-0.028157,-0.048296
1615,-0.02426,-0.0028225,-0.11098,0.029658,0.1362,-0.04115,-0.048296
1616,-0.021986,-0.008669,-0.1217,0.023487,0.19271,-0.056416,-0.04862
1617,-0.026533,-0.011267,-0.13015,0.013093,0.23169,-0.070707,-0.050894
1618,-0.037252,-0.013866,-0.13729,0.00010078,0.25865,-0.083375,-0.057065
1619,-0.04862,-0.019712,-0.14509,-0.011267,0.27684,-0.096692,-0.06551
1620,-0.059664,-0.024909,-0.15191,-0.019712,0.28268,-0.10903,-0.07428
1621,-0.067459,-0.028157,-0.15646,-0.023935,0.26807,-0.11586,-0.082076
1622,-0.068434,-0.027508,-0.16003,-0.02361,0.23266,-0.11163,-0.084999
1623,-0.062912,-0.02426,-0.1662,-0.017439,0.18199,-0.096042,-0.080776
1624,-0.051219,-0.020362,-0.17757,-0.0076946,0.13262,-0.075904,-0.072656
1625,-0.039526,-0.016789,-0.19186,0.003024,0.099817,-0.059664,-0.064861
1626,-0.028807,-0.01484,-0.2068,0.012443,0.087799,-0.052193,-0.059339
1627,-0.018088,-0.0099683,-0.22856,0.021213,0.092346,-0.046022,-0.052843
1628,-0.0067202,-0.0024977,-0.25812,0.031282,0.11021,-0.035303,-0.044723
1629,0.0020496,0.0072465,-0.29093,0.042001,0.13522,-0.016464,-0.035628
1630,0.0062721,0.016666,-0.32146,0.048822,0.15796,0.0059473,-0.025234
1631,0.0056225,0.020239,-0.3416,0.049147,0.16705,0.022837,-0.014516
1632,0.0010752,0.01829,-0.34809,0.040377,0.15796,0.027385,-0.0034721
1633,0.00010078,0.013093,-0.34484,0.025111,0.13847,0.017316,0.0043233
1634,0.0049729,0.0056225,-0.33543,0.0065969,0.11671,-0.00022403,0.0088706
1635,0.013093,-0.00054884,-0.32925,-0.0073698,0.098193,-0.020037,0.01017
1636,0.023162,-0.0054209,-0.32795,-0.011917,0.081303,-0.034978,0.011794
1637,0.033881,-0.0099683,-0.31009,-0.010618,0.063113,-0.038227,0.012768
1638,0.043625,-0.013541,-0.22207,-0.0076946,0.042651,-0.029782,0.01764
1639,0.049796,-0.013866,-0.041799,-0.007045,0.02641,-0.012892,0.02706
1640,0.050771,-0.013216,0.19044,-0.008669,0.01829,0.0075714,0.036479
1641,0.046223,-0.018088,0.40579,-0.010618,0.023812,0.028684,0.042651
1642,0.033556,-0.027833,0.54675,-0.011917,0.048172,0.048172,0.042001
1643,0.01764,-0.039851,0.59093,-0.011592,0.090397,0.063438,0.033231
1644,0.0039985,-0.048945,0.54968,-0.010943,0.14139,0.074482,0.022512
1645,-0.0037969,-0.051219,0.45321,-0.010943,0.19141,0.082602,0.017316
1646,-0.0041217,-0.048945,0.3327,-0.012242,0.23526,0.088124,0.023487
1647,0.0017248,-0.043748,0.21155,-0.011592,0.26677,0.089423,0.039727
1648,0.012768,-0.034978,0.10566,-0.0083442,0.27911,0.081627,0.061165
1649,0.026735,-0.025234,0.022512,-0.0011985,0.26872,0.063438,0.080978
1650,0.041027,-0.016464,-0.031406,0.009845,0.24208,0.041676,0.090397
1651,0.056292,-0.0076946,-0.053168,0.023812,0.21252,0.022837,0.0865
1652,0.070909,-0.0031473,-0.047321,0.033881,0.18816,0.0088706,0.074482
1653,0.078704,-0.0031473,-0.025559,0.039078,0.17257,-0.0054209,0.062789
1654,0.076755,-0.0057458,-0.0018481,0.042326,0.16835,-0.015815,0.056942
1655,0.067336,-0.0073698,0.019589,0.042326,0.1664,-0.020362,0.055318
1656,0.053694,-0.0050961,0.040052,0.040702,0.15731,-0.020037,0.053044
1657,0.044599,0.00042559,0.063763,0.044275,0.131,-0.017764,0.048172
1658,0.04395,0.0091954,0.093645,0.048822,0.086175,-0.011592,0.041676
1659,0.045899,0.022188,0.12743,0.05207,0.020888,-0.00022403,0.035505
1660,0.049147,0.041027,0.15373,0.047847,-0.068758,0.012768,0.030633
1661,0.052395,0.064088,0.15341,0.03583,-0.18147,0.019589,0.029983
1662,0.055643,0.086175,0.08585,0.023162,-0.30977,0.014392,0.033231
1663,0.06019,0.10209,-0.10741,0.012119,-0.45073,0.00010078,0.037129
1664,0.063113,0.10599,-0.42507,0.0046481,-0.61281,-0.019712,0.033881
1665,0.06084,0.099492,-0.76969,-0.0018481,-0.79568,-0.045372,0.020564
1666,0.05272,0.087799,-1.0075,-0.0080194,-0.97887,-0.076554,0.0017248
1667,0.038103,0.078379,-1.0432,-0.013216,-1.1185,-0.10741,-0.017439
1668,0.021213,0.070584,-0.86584,-0.020037,-1.1712,-0.13145,-0.033354
1669,0.0043233,0.061814,-0.54655,-0.027833,-1.1107,-0.14379,-0.043423
1670,-0.010618,0.05272,-0.19836,-0.035953,-0.93469,-0.14216,-0.044723
1671,-0.022961,0.042975,0.0852,-0.042774,-0.6716,-0.12625,-0.038551
1672,-0.031081,0.026735,0.27067,-0.046996,-0.35881,-0.098641,-0.030756
1673,-0.039526,-0.0063954,0.37265,-0.04927,-0.040175,-0.067459,-0.024909
1674,-0.048296,-0.053817,0.42625,-0.045697,0.23591,-0.039526,-0.020687
1675,-0.051544,-0.10351,0.46458,-0.036278,0.4204,-0.018738,-0.017764
1676,-0.04927,-0.13404,0.48731,-0.021986,0.49316,-0.0047713,-0.01484
1677,-0.039201,-0.13762,0.47205,-0.0047713,0.46652,0.0056225,-0.011917
1678,-0.022311,-0.11975,0.39734,0.014717,0.37623,0.015042,-0.0050961
1679,-0.00054884,-0.092794,0.26839,0.032906,0.25832,0.029333,0.0056225
1680,0.016991,-0.064536,0.11248,0.044599,0.13684,0.049147,0.013418
1681,0.029983,-0.039201,-0.035303,0.048822,0.028034,0.065062,0.016016
1682,0.036804,-0.018088,-0.14509,0.046873,-0.064861,0.070259,0.014392
1683,0.039727,-0.0050961,-0.2016,0.039727,-0.13827,0.067986,0.011794
1684,0.037129,-0.0011985,-0.20908,0.032906,-0.18926,0.066037,0.012119
1685,0.033881,-0.0018481,-0.17919,0.028684,-0.21947,0.066037,0.014068
1686,0.030308,0.00010078,-0.12463,0.027385,-0.24643,0.067661,0.018615
1687,0.02706,0.0095202,-0.056416,0.028684,-0.28638,0.067336,0.023487
1688,0.025111,0.02706,0.010495,0.032906,-0.33737,0.064413,0.027385
1689,0.027385,0.05272,0.061489,0.035505,-0.38739,0.057592,0.030633
1690,0.033231,0.076755,0.094295,0.03518,-0.4124,0.046873,0.033556
1691,0.039727,0.088773,0.11248,0.030308,-0.39649,0.035505,0.034855
1692,0.042001,0.089098,0.12872,0.024137,-0.3442,0.026735,0.030957
1693,0.040377,0.081952,0.15114,0.020888,-0.26527,0.019589,0.016991
1694,0.032906,0.072858,0.17939,0.021863,-0.15808,0.012119,-0.00087364
1695,0.023812,0.066686,0.20505,0.025761,-0.017114,-0.0011985,-0.015165
1696,0.016341,0.064413,0.21935,0.029333,0.15049,-0.017439,-0.021661
1697,0.0085458,0.063763,0.22129,0.03453,0.31289,-0.029782,-0.019388
1698,-0.00022403,0.062789,0.21155,0.041676,0.42268,-0.035953,-0.008669
1699,-0.010618,0.063763,0.19239,0.048172,0.45126,-0.037577,0.0046481
1700,-0.01614,0.065387,0.16868,0.053044,0.40676,-0.033354,0.014392
1701,-0.013541,0.068635,0.13847,0.055643,0.33238,-0.023935,0.020564
1702,-0.0060706,0.070584,0.084551,0.055318,0.28463,-0.010943,0.023487
1703,0.00042559,0.069285,-0.013866,0.05207,0.3038,0.0062721,0.027385
1704,0.0046481,0.062139,-0.15386,0.048822,0.38727,0.026085,0.030633
1705,0.0036737,0.051096,-0.30229,0.045249,0.49836,0.041027,0.032257
1706,-0.0018481,0.046548,-0.4137,0.038428,0.59028,0.041351,0.031932
1707,-0.011592,0.053044,-0.46178,0.029009,0.62698,0.029658,0.029333
1708,-0.018738,0.069934,-0.45073,0.01764,0.58865,0.0088706,0.024461
1709,-0.021337,0.090722,-0.41273,0.0062721,0.48082,-0.01484,0.01764
1710,-0.021337,0.10956,-0.37278,-0.0028225,0.33628,-0.036278,0.013418
1711,-0.020687,0.12288,-0.34062,-0.0080194,0.18979,-0.054142,0.009845
1712,-0.022311,0.12775,-0.31301,-0.010943,0.066037,-0.063886,0.0078962
1713,-0.029132,0.12678,-0.28216,-0.010293,-0.017114,-0.061613,0.0052977
1714,-0.039851,0.11963,-0.24643,-0.0096434,-0.057065,-0.047646,0.00042559
1715,-0.04862,0.10826,-0.20583,-0.010943,-0.063237,-0.027183,-0.0044465
1716,-0.051544,0.097218,-0.1623,-0.017114,-0.044723,-0.0067202,-0.0060706
1717,-0.046671,0.090397,-0.11163,-0.025559,-0.0083442,0.015042,-0.0044465
1718,-0.036927,0.083901,-0.046996,-0.032055,0.036804,0.036154,-0.0041217
1719,-0.025234,0.069285,0.029658,-0.036278,0.076755,0.054019,-0.010293
