,channel_1,channel_2,channel_3,channel_4,channel_5,channel_6,channel_7
0,0.021538,0.040377,0.067986,0.066686,-0.021012,0.012443,-0.018738
1,0.011469,0.036479,0.032582,0.059216,-0.086948,0.0017248,-0.032055
2,0.0046481,0.034206,0.008221,0.053694,-0.15223,-0.0093186,-0.041799
3,0.008221,0.036479,-0.0011985,0.053694,-0.21362,-0.023935,-0.046347
4,0.018615,0.042326,-0.00022403,0.059865,-0.26754,-0.044398,-0.047646
5,0.029983,0.054019,0.0017248,0.068635,-0.31691,-0.065835,-0.042124
6,0.036479,0.06896,-0.0031473,0.077405,-0.36238,-0.084349,-0.030756
7,0.040702,0.080978,-0.021012,0.081627,-0.40493,-0.096367,-0.015165
8,0.048172,0.0865,-0.047971,0.079029,-0.44748,-0.10449,0.003024
9,0.058241,0.08585,-0.076229,0.072858,-0.49198,-0.11358,0.020239
10,0.066037,0.081627,-0.097341,0.062464,-0.53713,-0.12333,0.030957
11,0.068635,0.081303,-0.10514,0.053044,-0.57124,-0.12852,0.028359
12,0.066362,0.090722,-0.095393,0.047847,-0.5839,-0.12625,0.015692
13,0.062464,0.11021,-0.068434,0.046223,-0.57156,-0.11975,-0.0024977
14,0.060515,0.13327,-0.023935,0.044924,-0.53421,-0.11261,-0.019712
15,0.061165,0.15633,0.033881,0.041676,-0.48484,-0.10903,-0.034004
16,0.060515,0.17322,0.11443,0.03518,-0.42929,-0.10806,-0.041799
17,0.054668,0.17615,0.22844,0.028684,-0.36173,-0.10741,-0.042449
18,0.048172,0.15893,0.35576,0.023487,-0.26039,-0.10449,-0.039201
19,0.041351,0.12418,0.44736,0.020239,-0.11196,-0.094418,-0.034329
20,0.032257,0.079354,0.45743,0.01829,0.075456,-0.077203,-0.027833
21,0.021863,0.033231,0.37363,0.018615,0.26417,-0.054142,-0.018088
22,0.012768,-0.0050961,0.21415,0.023487,0.40514,-0.023285,-0.0037969
23,0.0069217,-0.033354,0.01764,0.028034,0.46685,0.012443,0.01017
24,0.0059473,-0.056416,-0.1701,0.028034,0.44216,0.05272,0.023162
25,0.0056225,-0.078178,-0.31464,0.026085,0.35284,0.090722,0.033556
26,0.0059473,-0.10026,-0.39746,0.020888,0.23591,0.12028,0.039078
27,0.0065969,-0.12398,-0.41858,0.011144,0.1258,0.13165,0.038428
28,0.0075714,-0.15613,-0.39876,-0.0031473,0.052395,0.12255,0.033231
29,0.0062721,-0.2029,-0.35979,-0.018738,0.02641,0.09397,0.032582
30,0.0014,-0.27079,-0.31529,-0.031081,0.045574,0.048822,0.041676
31,-0.0047713,-0.34647,-0.26722,-0.036278,0.10371,-0.0024977,0.056942
32,-0.0076946,-0.40623,-0.20778,-0.031406,0.19336,-0.049595,0.070909
33,-0.0089938,-0.42735,-0.13112,-0.019388,0.29827,-0.086623,0.079354
34,-0.010618,-0.39681,-0.042449,-0.0067202,0.38857,-0.11001,0.076106
35,-0.011267,-0.32471,0.049472,0.0036737,0.42852,-0.12235,0.062139
36,-0.011592,-0.22954,0.14042,0.011469,0.39961,-0.12365,0.04395
37,-0.012892,-0.1308,0.22779,0.017965,0.30347,-0.11651,0.031282
38,-0.015815,-0.046022,0.30607,0.024461,0.15666,-0.10286,0.029983
39,-0.018413,0.017965,0.36551,0.031932,-0.0073698,-0.084349,0.039727
40,-0.018413,0.063113,0.40091,0.038103,-0.14574,-0.057065,0.055968
41,-0.016464,0.090722,0.4165,0.041027,-0.22759,-0.025559,0.073182
42,-0.0099683,0.10761,0.4178,0.041676,-0.25292,0.0052977,0.081627
43,-0.00022403,0.11768,0.40838,0.042001,-0.24383,0.029983,0.080978
44,0.011144,0.1258,0.39702,0.042975,-0.22142,0.045574,0.073832
45,0.022512,0.13327,0.38565,0.045574,-0.20063,0.05272,0.065062
46,0.030633,0.13944,0.37265,0.051096,-0.17367,0.05142,0.059865
47,0.031607,0.14204,0.35771,0.058241,-0.123,0.048822,0.057267
48,0.02641,0.14139,0.33887,0.066686,-0.040825,0.045249,0.053369
49,0.016666,0.13749,0.31386,0.076106,0.069934,0.041027,0.049147
50,0.0046481,0.131,0.27944,0.081627,0.19563,0.031932,0.041676
51,-0.0044465,0.1245,0.22812,0.079029,0.31711,0.020564,0.030308
52,-0.012242,0.11606,0.14561,0.065387,0.41001,0.0078962,0.015042
53,-0.020037,0.10436,0.030633,0.042326,0.44444,-0.0083442,-0.0015233
54,-0.027833,0.089423,-0.095717,0.013418,0.40806,-0.026533,-0.019712
55,-0.034978,0.073182,-0.19836,-0.01549,0.31419,-0.046347,-0.032055
56,-0.040175,0.061165,-0.25682,-0.035628,0.18102,-0.064536,-0.035303
57,-0.04115,0.055318,-0.26527,-0.043423,0.031932,-0.084024,-0.033354
58,-0.039526,0.050771,-0.23311,-0.045697,-0.11066,-0.10611,-0.029782
59,-0.037252,0.044275,-0.17465,-0.050244,-0.23993,-0.12885,-0.025234
60,-0.039851,0.034855,-0.10611,-0.059014,-0.36401,-0.14866,-0.021337
61,-0.045697,0.024461,-0.042449,-0.070058,-0.49068,-0.16165,-0.016789
62,-0.048296,0.017316,0.0078962,-0.079152,-0.61281,-0.15938,-0.011267
63,-0.046671,0.015367,0.042975,-0.081426,-0.71902,-0.13989,-0.0050961
64,-0.040825,0.018615,0.063763,-0.075255,-0.79503,-0.10644,-0.0011985
65,-0.036927,0.026735,0.078379,-0.060638,-0.84765,-0.06681,0.00010078
66,-0.035628,0.035505,0.092671,-0.044073,-0.8915,-0.028157,-0.00022403
67,-0.036278,0.042975,0.11054,-0.030106,-0.93047,0.0049729,-0.0031473
68,-0.036602,0.046223,0.12288,-0.021337,-0.94152,0.030308,-0.008669
69,-0.034004,0.046548,0.11281,-0.01614,-0.8902,0.047847,-0.012567
70,-0.028807,0.04395,0.043625,-0.011592,-0.76709,0.056292,-0.010293
71,-0.025234,0.036804,-0.095393,-0.0067202,-0.5904,0.057917,-0.0018481
72,-0.021661,0.029009,-0.26624,-0.0021729,-0.40136,0.056942,0.01017
73,-0.014191,0.019589,-0.40266,-0.00087364,-0.23896,0.057917,0.016991
74,-0.0024977,0.013418,-0.45008,0.0010752,-0.1178,0.062464,0.012443
75,0.0065969,0.008221,-0.39519,0.0075714,-0.029457,0.066037,0.00075039
76,0.0095202,0.0049729,-0.26916,0.022837,0.036479,0.067661,-0.011592
77,0.009845,0.0062721,-0.12463,0.039727,0.099492,0.064737,-0.018088
78,0.011794,0.011144,-0.0047713,0.053369,0.17095,0.052395,-0.01549
79,0.014717,0.01894,0.064737,0.059541,0.25605,0.033231,-0.0083442
80,0.019589,0.027709,0.092346,0.066037,0.34764,0.01017,0.00075039
81,0.022512,0.034206,0.10436,0.074482,0.4152,-0.011917,0.0078962
82,0.019589,0.037778,0.1232,0.086824,0.41001,-0.031406,0.0088706
83,0.013093,0.038428,0.15114,0.098193,0.30704,-0.052193,0.003024
84,0.0049729,0.03453,0.18816,0.096893,0.13587,-0.077203,-0.0076946
85,0.00042559,0.027385,0.22649,0.078055,-0.032055,-0.10676,-0.016789
86,0.00075039,0.018615,0.2567,0.049147,-0.12852,-0.13632,-0.019063
87,0.0062721,0.014392,0.27229,0.023162,-0.12203,-0.15451,-0.013866
88,0.011794,0.016341,0.26774,0.0039985,-0.024585,-0.15418,-0.0060706
89,0.013743,0.025111,0.24111,-0.0047713,0.11736,-0.13307,0.0010752
90,0.0078962,0.036479,0.19466,-0.0057458,0.25735,-0.098641,0.0085458
91,-0.0073698,0.04395,0.12678,-0.0024977,0.36746,-0.063886,0.01894
92,-0.027833,0.045574,0.048497,0.0023744,0.43567,-0.037577,0.030633
93,-0.043748,0.039402,-0.0099683,0.0069217,0.46458,-0.020037,0.040702
94,-0.051544,0.02706,-0.029132,0.0091954,0.46782,-0.0089938,0.044599
95,-0.050569,0.011469,-0.02426,0.009845,0.45548,-0.0018481,0.044599
96,-0.042449,-0.0050961,-0.0405,0.012443,0.43372,0.0023744,0.042001
97,-0.03173,-0.023285,-0.10286,0.014717,0.40871,-0.00054884,0.040052
98,-0.025234,-0.0405,-0.18439,0.015367,0.38695,-0.0057458,0.039727
99,-0.024909,-0.050894,-0.22077,0.014068,0.36908,-0.0076946,0.041027
100,-0.025884,-0.053492,-0.16555,0.011794,0.35382,-0.0037969,0.041676
101,-0.022961,-0.051868,-0.027508,0.008221,0.3379,0.0056225,0.042001
102,-0.013866,-0.04992,0.14464,0.0033489,0.31679,0.01829,0.041676
103,0.00010078,-0.041799,0.29892,-0.0041217,0.28366,0.032906,0.041351
104,0.013743,-0.021012,0.40741,-0.013216,0.23851,0.042975,0.0433
105,0.022188,0.01017,0.44444,-0.019063,0.18297,0.047198,0.04395
106,0.020564,0.036154,0.3353,-0.020687,0.12125,0.044599,0.039402
107,0.011794,0.041351,-0.0076946,-0.021012,0.049147,0.038753,0.033556
108,0.0033489,0.024137,-0.53908,-0.026533,-0.047971,0.036154,0.029009
109,-0.00054884,-0.0099683,-1.0718,-0.03238,-0.17659,0.036804,0.028359
110,0.0010752,-0.050244,-1.4066,-0.037577,-0.31756,0.037454,0.033231
111,0.0078962,-0.085324,-1.4388,-0.035303,-0.43904,0.037454,0.043625
112,0.013418,-0.10579,-1.1871,-0.025884,-0.51927,0.035505,0.05207
113,0.013093,-0.10611,-0.77002,-0.013866,-0.55077,0.030957,0.054344
114,0.0036737,-0.088572,-0.32958,-0.00054884,-0.54428,0.025761,0.047523
115,-0.011267,-0.059989,0.024137,0.012119,-0.51667,0.023487,0.032906
116,-0.027508,-0.030756,0.23981,0.024461,-0.47379,0.023812,0.014068
117,-0.039526,-0.008669,0.32361,0.033881,-0.4176,0.022188,-0.0054209
118,-0.039851,0.0069217,0.32328,0.042326,-0.34744,0.01764,-0.021337
119,-0.029782,0.01894,0.28853,0.047847,-0.26137,0.0095202,-0.028807
120,-0.013541,0.028359,0.25248,0.051096,-0.16425,0.0023744,-0.025884
121,0.0065969,0.03518,0.22649,0.050771,-0.064536,0.00042559,-0.015815
122,0.022837,0.038753,0.20733,0.047523,0.024461,0.0065969,-0.00054884
123,0.032582,0.041027,0.19304,0.041351,0.099817,0.017316,0.013743
124,0.039727,0.039078,0.18199,0.03583,0.16608,0.025761,0.026085
125,0.045249,0.033881,0.17127,0.030633,0.23169,0.029658,0.031932
126,0.045249,0.028034,0.15893,0.024137,0.30055,0.028034,0.029333
127,0.036479,0.023162,0.14821,0.01764,0.36746,0.023162,0.019264
128,0.023812,0.01764,0.14042,0.013418,0.4204,0.012768,0.0065969
129,0.015692,0.0091954,0.13555,0.0078962,0.45678,0.0036737,-0.0083442
130,0.012443,-0.0021729,0.12807,-0.00054884,0.48244,-0.0015233,-0.020037
131,0.013418,-0.015815,0.11378,-0.010618,0.50875,0.0023744,-0.027508
132,0.015042,-0.027508,0.089098,-0.020037,0.54318,0.015692,-0.033354
133,0.01829,-0.037577,0.063763,-0.024585,0.58053,0.037129,-0.036602
134,0.022837,-0.044723,0.047198,-0.025234,0.60944,0.06084,-0.038551
135,0.024786,-0.051219,0.037778,-0.021012,0.62146,0.081303,-0.038551
136,0.019589,-0.059014,0.033231,-0.01614,0.60717,0.095594,-0.035303
137,0.012119,-0.067459,0.033231,-0.010293,0.56429,0.10014,-0.030756
138,0.0065969,-0.073631,0.037454,-0.0028225,0.49836,0.095269,-0.026533
139,0.0033489,-0.075255,0.0433,0.003024,0.41585,0.081952,-0.027833
140,0.003024,-0.075255,0.045249,0.003024,0.32263,0.063113,-0.030756
141,0.0069217,-0.07428,0.038428,-0.0011985,0.22487,0.042651,-0.03238
142,0.016341,-0.071357,0.025111,-0.0096434,0.12678,0.026735,-0.029132
143,0.02641,-0.068109,0.0085458,-0.020362,0.03518,0.012119,-0.024909
144,0.032582,-0.06616,-0.0073698,-0.03238,-0.041475,-0.0034721,-0.021012
145,0.03518,-0.071032,-0.020687,-0.04115,-0.10156,-0.022636,-0.01614
146,0.034855,-0.079802,-0.03238,-0.047321,-0.14476,-0.042774,-0.0096434
147,0.031282,-0.084349,-0.040175,-0.047646,-0.17172,-0.059339,-0.0037969
148,0.027385,-0.074605,-0.037252,-0.041475,-0.18309,-0.068758,-0.00022403
149,0.023812,-0.04115,-0.012242,-0.025884,-0.18504,-0.071032,-0.0018481
150,0.021538,0.013093,0.039078,-0.0073698,-0.18407,-0.072981,-0.0080194
151,0.01829,0.078379,0.11054,0.011469,-0.18829,-0.082725,-0.016464
152,0.013418,0.13717,0.18524,0.024786,-0.20485,-0.099615,-0.02361
153,0.0085458,0.1742,0.23883,0.030957,-0.24188,-0.11975,-0.028157
154,0.0062721,0.17777,0.2515,0.029658,-0.30717,-0.14346,-0.026209
155,0.0085458,0.15179,0.2187,0.021538,-0.39129,-0.16393,-0.021337
156,0.012443,0.10664,0.15309,0.0085458,-0.47087,-0.17367,-0.021012
157,0.014392,0.056617,0.070259,-0.0028225,-0.52349,-0.16815,-0.024585
158,0.016016,0.014068,-0.0067202,-0.0080194,-0.53323,-0.14541,-0.028482
159,0.016341,-0.015165,-0.042774,-0.0083442,-0.49523,-0.11033,-0.03173
160,0.013743,-0.034654,-0.0096434,-0.0044465,-0.41988,-0.068758,-0.033354
161,0.0069217,-0.046996,0.098842,-0.00087364,-0.33543,-0.029457,-0.032055
162,-0.0037969,-0.054142,0.24176,0.0033489,-0.26559,0.0023744,-0.032055
163,-0.010943,-0.056091,0.36226,0.0075714,-0.23571,0.02706,-0.034978
164,-0.010618,-0.051868,0.41488,0.0085458,-0.25715,0.045899,-0.037902
165,-0.0011985,-0.044723,0.37948,0.0026992,-0.30717,0.06019,-0.037902
166,0.013743,-0.035953,0.27164,-0.0047713,-0.34744,0.065387,-0.036278
167,0.025111,-0.029782,0.12905,-0.0099683,-0.35134,0.061814,-0.032705
168,0.028684,-0.025884,-0.0080194,-0.0099683,-0.31334,0.054993,-0.030756
169,0.022837,-0.023285,-0.11033,-0.0076946,-0.25195,0.053044,-0.026533
170,0.014717,-0.020687,-0.17172,-0.0063954,-0.19803,0.056942,-0.021337
171,0.0072465,-0.017439,-0.19868,-0.0037969,-0.16847,0.064737,-0.01614
172,0.0036737,-0.010293,-0.20713,0.0052977,-0.16133,0.070259,-0.011267
173,0.0039985,-0.0011985,-0.20485,0.017316,-0.16035,0.065062,-0.0057458
174,0.01017,0.0085458,-0.19121,0.024137,-0.14834,0.047523,0.0023744
175,0.014068,0.017316,-0.14964,0.02706,-0.11715,0.017316,0.0062721
176,0.015367,0.019589,-0.059989,0.027709,-0.072006,-0.018738,0.0039985
177,0.015042,0.014392,0.082602,0.031932,-0.016464,-0.058365,0.00010078
178,0.015692,0.0049729,0.25183,0.036479,0.061814,-0.093119,-0.0011985
179,0.016341,-0.0047713,0.3876,0.037129,0.16998,-0.11001,0.0026992
180,0.021538,-0.01484,0.43145,0.032582,0.29275,-0.10546,0.0095202
181,0.032582,-0.023935,0.36616,0.025111,0.39734,-0.084674,0.015042
182,0.0433,-0.030756,0.21805,0.021213,0.44996,-0.057065,0.020239
183,0.049472,-0.034329,0.040052,0.022512,0.43274,-0.026209,0.022837
184,0.046548,-0.03303,-0.11748,0.027709,0.35576,0.0056225,0.027709
185,0.036479,-0.025234,-0.22207,0.033556,0.24695,0.033556,0.036804
186,0.022188,-0.01484,-0.26527,0.039402,0.13912,0.054019,0.047847
187,0.011794,-0.0024977,-0.26039,0.044924,0.060515,0.070584,0.055643
188,0.0078962,0.011469,-0.23051,0.048822,0.020888,0.085525,0.062139
189,0.010495,0.024137,-0.20193,0.049796,0.014717,0.098842,0.063113
190,0.015042,0.033231,-0.18699,0.044275,0.030308,0.11118,0.056292
191,0.019589,0.036804,-0.18017,0.032582,0.05142,0.11736,0.045574
192,0.022188,0.036804,-0.1662,0.016341,0.066037,0.11703,0.033231
193,0.019264,0.032906,-0.13372,-0.0031473,0.069285,0.11054,0.025761
194,0.008221,0.027709,-0.07493,-0.026533,0.064088,0.099817,0.021538
195,-0.0073698,0.023162,-0.0021729,-0.051544,0.066362,0.085525,0.023162
196,-0.024909,0.024137,0.063113,-0.071682,0.080653,0.070259,0.028034
197,-0.040175,0.031282,0.10274,-0.079477,0.098193,0.056942,0.035505
198,-0.046671,0.040702,0.11476,-0.072006,0.10371,0.041351,0.038753
199,-0.044073,0.050446,0.10631,-0.053168,0.092021,0.022512,0.03453
200,-0.039201,0.058241,0.088448,-0.031406,0.062139,-0.0011985,0.021213
201,-0.038876,0.066362,0.06961,-0.012567,0.020888,-0.030106,0.0017248
202,-0.044073,0.075131,0.047198,-0.00022403,-0.018413,-0.056741,-0.014516
203,-0.050244,0.083901,0.011794,0.008221,-0.045047,-0.076554,-0.021337
204,-0.055441,0.089748,-0.044398,0.012768,-0.051868,-0.089871,-0.017439
205,-0.059664,0.088773,-0.12138,0.014392,-0.040825,-0.097017,-0.007045
206,-0.062262,0.083576,-0.2055,0.014068,-0.011592,-0.098641,0.0049729
207,-0.062262,0.075131,-0.27891,0.013093,0.035505,-0.096692,0.013743
208,-0.059014,0.066362,-0.32373,0.0091954,0.088448,-0.094093,0.01764
209,-0.052518,0.056617,-0.3351,0.0033489,0.13425,-0.089546,0.015042
210,-0.046022,0.049472,-0.31626,-0.00054884,0.16315,-0.078503,0.011144
211,-0.042124,0.042001,-0.28248,0.00010078,0.17127,-0.059989,0.011144
212,-0.037902,0.034855,-0.25033,0.0059473,0.15926,-0.037902,0.020888
213,-0.03173,0.029658,-0.22532,0.014068,0.12872,-0.020362,0.036804
214,-0.023935,0.02706,-0.21135,0.020564,0.087149,-0.014516,0.049147
215,-0.01614,0.032257,-0.20843,0.02706,0.046548,-0.020687,0.05272
216,-0.012892,0.038428,-0.21557,0.03453,0.012768,-0.031406,0.044599
217,-0.012892,0.044599,-0.22467,0.038753,-0.007045,-0.042774,0.028034
218,-0.012892,0.048497,-0.23019,0.036804,-0.0099683,-0.048296,0.011794
219,-0.013541,0.049147,-0.22434,0.031607,0.0052977,-0.04862,0.0010752
220,-0.011592,0.045574,-0.20485,0.028359,0.034206,-0.047971,-0.0028225
221,-0.012567,0.041027,-0.16815,0.030633,0.062464,-0.048945,-0.0028225
222,-0.014191,0.036804,-0.11586,0.038753,0.081303,-0.048945,-0.0024977
223,-0.01484,0.031282,-0.055441,0.048172,0.084551,-0.044723,-0.0011985
224,-0.014516,0.026085,0.014717,0.050771,0.066362,-0.038551,-0.00022403
225,-0.011592,0.01764,0.11183,0.044275,0.025436,-0.031081,-0.00022403
226,-0.0080194,0.0043233,0.23526,0.034855,-0.035303,-0.024585,-0.00054884
227,-0.0034721,-0.017764,0.34927,0.030308,-0.11098,-0.020037,-0.0031473
228,-0.00087364,-0.046996,0.40903,0.032582,-0.19933,-0.018413,-0.007045
229,0.00010078,-0.075904,0.39702,0.039727,-0.2997,-0.018738,-0.0076946
230,0.00075039,-0.093119,0.32004,0.047523,-0.41078,-0.017439,-0.0037969
231,0.0043233,-0.095068,0.20343,0.049472,-0.52446,-0.010618,0.0046481
232,0.010819,-0.080127,0.076755,0.045899,-0.61736,-0.0037969,0.015692
233,0.01894,-0.056416,-0.027508,0.038103,-0.6742,-0.0024977,0.022837
234,0.029658,-0.028807,-0.094093,0.029009,-0.69044,-0.0050961,0.024137
235,0.042001,-0.0011985,-0.13632,0.020239,-0.6677,-0.015165,0.01764
236,0.05207,0.023162,-0.18212,0.012119,-0.61314,-0.023935,0.0046481
237,0.059216,0.036479,-0.24935,0.0065969,-0.5407,-0.021986,-0.010943
238,0.058891,0.039078,-0.32471,0.0020496,-0.4608,-0.0083442,-0.021986
239,0.050771,0.037129,-0.3757,-0.0024977,-0.37505,0.0069217,-0.027183
240,0.035505,0.037129,-0.37343,-0.0093186,-0.27761,0.014392,-0.024909
241,0.020564,0.044275,-0.31464,-0.013866,-0.16133,0.015367,-0.017439
242,0.013418,0.054993,-0.20193,-0.012567,-0.025884,0.021213,-0.0083442
243,0.014392,0.066037,-0.042124,-0.0028225,0.11476,0.038103,-0.0031473
244,0.016341,0.071883,0.14984,0.013418,0.23656,0.062139,0.00010078
245,0.015692,0.06831,0.34245,0.027709,0.30639,0.084226,-0.00022403
246,0.010819,0.057267,0.50518,0.032582,0.29665,0.097868,-0.0044465
247,0.0017248,0.042651,0.62276,0.028684,0.2109,0.099167,-0.013866
248,-0.008669,0.033556,0.68674,0.019589,0.080003,0.091372,-0.021986
249,-0.013866,0.033231,0.68415,0.008221,-0.04862,0.079354,-0.023935
250,-0.0093186,0.039727,0.57306,0.0014,-0.14314,0.065712,-0.017114
251,0.00010078,0.046548,0.30997,0.0017248,-0.18439,0.048497,-0.0063954
252,0.011144,0.050121,-0.078827,0.012443,-0.16133,0.028034,0.0036737
253,0.017965,0.046223,-0.49003,0.029983,-0.069083,0.0043233,0.0095202
254,0.020888,0.039078,-0.79828,0.05142,0.082927,-0.024585,0.011469
255,0.017316,0.035505,-0.93112,0.067986,0.26709,-0.050244,0.008221
256,0.009845,0.03453,-0.89669,0.072533,0.42495,-0.06551,-0.0015233
257,0.00010078,0.034855,-0.80022,0.063438,0.46782,-0.065835,-0.01614
258,-0.010293,0.031932,-0.76125,0.042651,0.33595,-0.059339,-0.03238
259,-0.019712,0.029009,-0.80802,0.017316,0.054019,-0.055116,-0.043748
260,-0.024909,0.029658,-0.86616,-0.008669,-0.2854,-0.060638,-0.047646
261,-0.025884,0.033556,-0.84018,-0.030431,-0.55142,-0.07428,-0.041799
262,-0.021986,0.037454,-0.68524,-0.043423,-0.64074,-0.089871,-0.031081
263,-0.013866,0.038103,-0.4176,-0.044073,-0.52804,-0.09929,-0.020362
264,-0.0089938,0.029658,-0.071682,-0.036278,-0.25227,-0.10124,-0.015165
265,-0.010293,0.0052977,0.30704,-0.022311,0.10826,-0.093444,-0.019063
266,-0.017114,-0.034329,0.66011,-0.0089938,0.46425,-0.077203,-0.029782
267,-0.028157,-0.078178,0.9297,-0.00054884,0.73027,-0.054467,-0.04115
268,-0.035953,-0.11001,1.0687,0.0049729,0.85012,-0.026533,-0.047646
269,-0.037252,-0.12365,1.0535,0.0078962,0.82219,-0.00054884,-0.046347
270,-0.03173,-0.1178,0.89819,0.0039985,0.68869,0.021213,-0.038876
271,-0.024909,-0.10124,0.65719,-0.0050961,0.51622,0.035505,-0.030756
272,-0.019063,-0.081426,0.39831,-0.018088,0.36843,0.044924,-0.025234
273,-0.01614,-0.065835,0.18492,-0.034004,0.28691,0.044924,-0.022636
274,-0.01549,-0.054467,0.059216,-0.052193,0.28788,0.031932,-0.019063
275,-0.019388,-0.043099,0.026735,-0.068109,0.36486,0.009845,-0.011917
276,-0.025234,-0.029132,0.058566,-0.07428,0.49868,-0.017114,-0.0011985
277,-0.029132,-0.01549,0.11118,-0.06681,0.65166,-0.043748,0.010819
278,-0.025234,-0.0057458,0.15276,-0.052518,0.77542,-0.064211,0.023162
279,-0.011917,-0.00054884,0.17355,-0.036927,0.82089,-0.075579,0.032257
280,0.0059473,0.0039985,0.18232,-0.024909,0.77217,-0.080127,0.039078
281,0.020888,0.01017,0.18362,-0.013216,0.64127,-0.077203,0.042651
282,0.027709,0.016341,0.17647,0.00075039,0.45678,-0.06551,0.044599
283,0.026735,0.020564,0.16413,0.01764,0.2567,-0.045047,0.045249
284,0.026735,0.02706,0.15309,0.038103,0.074157,-0.018413,0.048822
285,0.033231,0.042001,0.14302,0.058891,-0.071682,0.0078962,0.054993
286,0.046223,0.067336,0.1245,0.076431,-0.17984,0.029009,0.059865
287,0.062789,0.098193,0.092671,0.085525,-0.25585,0.043625,0.064413
288,0.07708,0.12807,0.052395,0.0865,-0.31171,0.048822,0.06831
289,0.0865,0.15146,0.011469,0.081303,-0.36173,0.04395,0.071234
290,0.089748,0.1651,-0.02426,0.070584,-0.415,0.03518,0.073832
291,0.087149,0.1703,-0.051544,0.056617,-0.47022,0.028359,0.072533
292,0.079029,0.1716,-0.073955,0.048172,-0.51764,0.031282,0.069934
293,0.068635,0.17192,-0.093119,0.05207,-0.54947,0.049796,0.06831
294,0.057267,0.17192,-0.10741,0.065062,-0.56247,0.073832,0.067986
295,0.048172,0.16835,-0.11878,0.079029,-0.55305,0.094295,0.063763
296,0.040377,0.15666,-0.12722,0.084551,-0.51342,0.10209,0.05272
297,0.032582,0.13555,-0.13015,0.079679,-0.44424,0.096893,0.036804
298,0.022837,0.10371,-0.12625,0.065387,-0.35232,0.082927,0.023162
299,0.013743,0.065062,-0.11001,0.044275,-0.25227,0.063113,0.013743
300,0.0026992,0.021863,-0.079152,0.022512,-0.16133,0.039402,0.0088706
301,-0.0083442,-0.026858,-0.036927,0.0026992,-0.10481,0.013093,0.0069217
302,-0.016464,-0.081751,0.0020496,-0.013866,-0.10903,-0.01484,0.0062721
303,-0.023285,-0.14801,0.02641,-0.022961,-0.18439,-0.038551,0.0052977
304,-0.029132,-0.22597,0.039402,-0.023935,-0.32568,-0.056416,0.0010752
305,-0.036602,-0.30554,0.078704,-0.021012,-0.49263,-0.070707,-0.0060706
306,-0.039851,-0.36336,0.20083,-0.019388,-0.61573,-0.079152,-0.01614
307,-0.037902,-0.38025,0.40773,-0.023935,-0.64074,-0.078503,-0.025884
308,-0.03303,-0.35134,0.62471,-0.030756,-0.55759,-0.06681,-0.03173
309,-0.026533,-0.2906,0.7595,-0.037902,-0.39714,-0.04927,-0.031406
310,-0.022636,-0.21785,0.75171,-0.045372,-0.21557,-0.034329,-0.028807
311,-0.026533,-0.14899,0.61204,-0.054467,-0.072656,-0.03238,-0.032055
312,-0.038227,-0.095068,0.40286,-0.06616,-0.014516,-0.045047,-0.041799
313,-0.051868,-0.059664,0.19953,-0.075579,-0.047321,-0.072006,-0.053492
314,-0.059664,-0.037577,0.05142,-0.079802,-0.12755,-0.10254,-0.060313
315,-0.059014,-0.022311,-0.03303,-0.075579,-0.19121,-0.12755,-0.061288
316,-0.053817,-0.0063954,-0.073306,-0.063237,-0.19511,-0.13664,-0.057065
317,-0.048945,0.016991,-0.088572,-0.047321,-0.13015,-0.1256,-0.050894
318,-0.042774,0.0433,-0.089221,-0.035303,-0.0089938,-0.097017,-0.045372
319,-0.034329,0.06896,-0.079477,-0.027833,0.14399,-0.058689,-0.039851
320,-0.022311,0.0852,-0.062262,-0.020362,0.29795,-0.019063,-0.034978
321,-0.012567,0.087474,-0.047971,-0.011917,0.4243,0.013418,-0.034329
322,-0.0093186,0.079029,-0.046347,-0.0018481,0.5055,0.033881,-0.037252
323,-0.01484,0.066362,-0.057715,0.0056225,0.54578,0.046223,-0.039526
324,-0.025884,0.054344,-0.080451,0.011144,0.56072,0.057917,-0.040175
325,-0.042124,0.046873,-0.10968,0.015367,0.55942,0.070909,-0.04115
326,-0.055116,0.04395,-0.13859,0.017965,0.54838,0.0865,-0.043099
327,-0.055441,0.04395,-0.16003,0.01829,0.52889,0.10144,-0.039851
328,-0.040825,0.045899,-0.1714,0.019264,0.48699,0.11118,-0.028482
329,-0.018738,0.047523,-0.17432,0.023487,0.39604,0.11021,-0.010618
330,0.00075039,0.046548,-0.1701,0.032906,0.22714,0.096244,0.010819
331,0.016991,0.045899,-0.16263,0.044275,-0.038876,0.071234,0.029658
332,0.029658,0.046548,-0.15516,0.055318,-0.37603,0.039402,0.043625
333,0.039402,0.049147,-0.14184,0.066037,-0.71837,0.0075714,0.056292
334,0.041027,0.05272,-0.11651,0.073507,-0.99024,-0.018413,0.062139
335,0.031932,0.054344,-0.073631,0.081952,-1.1361,-0.03303,0.061165
336,0.01829,0.055318,-0.0089938,0.091696,-1.1429,-0.036927,0.06019
337,0.0095202,0.055318,0.06961,0.098842,-1.0354,-0.034654,0.06019
338,0.0075714,0.053694,0.14691,0.099817,-0.85739,-0.029782,0.061489
339,0.0095202,0.05142,0.20538,0.091047,-0.64821,-0.026858,0.061814
340,0.013093,0.048497,0.23526,0.069285,-0.42605,-0.025559,0.059216
341,0.016341,0.044599,0.23104,0.033881,-0.19283,-0.028807,0.051096
342,0.01764,0.040702,0.19563,-0.0067202,0.042001,-0.042449,0.03453
343,0.016341,0.037778,0.13879,-0.04115,0.25183,-0.062912,0.016341
344,0.012119,0.033881,0.070909,-0.067134,0.40156,-0.084349,0.0010752
345,0.0017248,0.029009,-0.0041217,-0.081426,0.47075,-0.10319,-0.0096434
346,-0.014191,0.022512,-0.0837,-0.084349,0.46685,-0.10968,-0.012567
347,-0.024585,0.014717,-0.16523,-0.078827,0.42268,-0.10286,-0.0099683
348,-0.021986,0.0049729,-0.24156,-0.067784,0.36941,-0.081426,-0.0034721
349,-0.0096434,-0.0031473,-0.30944,-0.054467,0.33303,-0.049595,0.0075714
350,0.0033489,-0.013866,-0.37603,-0.044073,0.31906,-0.010293,0.020239
351,0.013093,-0.026858,-0.466,-0.038551,0.32783,0.029333,0.033881
352,0.020239,-0.038551,-0.58065,-0.036927,0.35349,0.060515,0.045574
353,0.023812,-0.045047,-0.6651,-0.03238,0.38825,0.07708,0.056942
354,0.02706,-0.04115,-0.64107,-0.020362,0.42885,0.078704,0.065387
355,0.034855,-0.024585,-0.46892,0.00042559,0.46815,0.071234,0.066362
356,0.048497,0.0014,-0.18114,0.023487,0.49901,0.059216,0.058891
357,0.063438,0.031282,0.14042,0.043625,0.51492,0.053694,0.046873
358,0.074806,0.058241,0.40838,0.062789,0.5068,0.059865,0.037778
359,0.080653,0.080328,0.57728,0.080978,0.46912,0.074157,0.037129
360,0.081303,0.09397,0.64647,0.099492,0.39637,0.0865,0.041351
361,0.076106,0.10144,0.64777,0.10761,0.29048,0.091047,0.04395
362,0.064088,0.10209,0.62048,0.10371,0.16445,0.091047,0.040702
363,0.042001,0.094945,0.59125,0.087799,0.048497,0.094945,0.033231
364,0.015692,0.080653,0.5461,0.06831,-0.030106,0.10566,0.026085
365,-0.007045,0.066686,0.40449,0.048497,-0.056091,0.11768,0.019264
366,-0.019712,0.050446,0.016016,0.033881,-0.03238,0.12418,0.014392
367,-0.020362,0.030957,-0.6677,0.024786,0.014717,0.1219,0.011469
368,-0.011592,0.0095202,-1.4771,0.019264,0.047847,0.11411,0.0088706
369,0.0014,-0.012892,-2.1427,0.013093,0.041676,0.10729,0.0033489
370,0.011794,-0.029132,-2.4548,0.0020496,-0.0060706,0.10436,-0.0044465
371,0.016016,-0.033679,-2.3479,-0.0093186,-0.081101,0.10209,-0.0089938
372,0.016341,-0.025884,-1.9062,-0.021661,-0.15776,0.096569,-0.0073698
373,0.013743,-0.011267,-1.2868,-0.032705,-0.21297,0.083576,-0.0041217
374,0.01017,0.0020496,-0.63945,-0.039526,-0.23344,0.06019,-0.0073698
375,0.0043233,0.0091954,-0.072656,-0.042124,-0.22694,0.025436,-0.015165
376,-0.0054209,0.0075714,0.35512,-0.041799,-0.21622,-0.020037,-0.023285
377,-0.01484,0.0023744,0.62536,-0.037252,-0.22272,-0.071357,-0.026858
378,-0.019712,-0.0024977,0.75268,-0.029782,-0.24545,-0.11975,-0.024585
379,-0.018413,-0.0044465,0.76632,-0.019712,-0.26819,-0.16068,-0.022636
380,-0.012242,-0.0041217,0.70298,-0.0096434,-0.26787,-0.19283,-0.021986
381,-0.0057458,-0.0037969,0.60197,0.00042559,-0.22726,-0.22012,-0.026209
382,0.00010078,-0.0024977,0.49836,0.0095202,-0.14606,-0.24643,-0.03173
383,0.0036737,-0.0057458,0.41163,0.014392,-0.046022,-0.27274,-0.035628
384,0.0052977,-0.013216,0.35122,0.013093,0.040052,-0.2958,-0.039851
385,0.0059473,-0.020037,0.31679,0.01017,0.089748,-0.30652,-0.046996
386,0.010819,-0.025234,0.2973,0.0095202,0.092996,-0.29482,-0.054142
387,0.019264,-0.028807,0.28268,0.011469,0.056292,-0.25942,-0.061613
388,0.028684,-0.034004,0.26677,0.012443,-0.0060706,-0.20583,-0.062912
389,0.039727,-0.038227,0.24566,0.0065969,-0.070058,-0.14736,-0.052518
390,0.049472,-0.042449,0.2187,-0.0076946,-0.11878,-0.095068,-0.033354
391,0.056617,-0.042124,0.19466,-0.020362,-0.14119,-0.054142,-0.011592
392,0.058891,-0.043099,0.17874,-0.020362,-0.13957,-0.02426,0.0072465
393,0.057917,-0.048296,0.17257,-0.0063954,-0.12268,-0.0041217,0.018615
394,0.054344,-0.058365,0.17387,0.015367,-0.097666,0.0062721,0.020888
395,0.05142,-0.072006,0.17777,0.038103,-0.070382,0.010819,0.016341
396,0.05142,-0.08305,0.18199,0.050771,-0.042124,0.013743,0.010495
397,0.054668,-0.087272,0.18524,0.05272,-0.01484,0.018615,0.012768
398,0.058891,-0.085324,0.19174,0.050446,0.0069217,0.02641,0.022512
399,0.058891,-0.076879,0.19791,0.051096,0.019914,0.03518,0.033556
400,0.056617,-0.068434,0.20083,0.057592,0.028359,0.042001,0.037778
401,0.054668,-0.063561,0.19596,0.066686,0.039078,0.048822,0.032582
402,0.053369,-0.063886,0.18914,0.071558,0.053369,0.06084,0.021863
403,0.050121,-0.070058,0.18492,0.067986,0.06961,0.076106,0.013418
404,0.045249,-0.076879,0.18524,0.054019,0.089098,0.088773,0.011469
405,0.041351,-0.072006,0.18784,0.034855,0.10989,0.092996,0.013743
406,0.037129,-0.040175,0.19791,0.015042,0.12255,0.090722,0.015042
407,0.031932,0.020239,0.21837,0.0017248,0.11866,0.081627,0.011469
408,0.025111,0.091047,0.2476,-0.0024977,0.099817,0.070259,0.0075714
409,0.020239,0.14756,0.27976,0.0014,0.081627,0.057917,0.0026992
410,0.021538,0.17582,0.30347,0.0088706,0.078055,0.047847,-0.00054884
411,0.026085,0.1703,0.30932,0.018615,0.08585,0.039078,-0.0028225
412,0.029333,0.14139,0.29275,0.02706,0.094295,0.031607,-0.0037969
413,0.023487,0.098842,0.2541,0.029658,0.097543,0.024786,-0.0080194
414,0.008221,0.055318,0.20343,0.028034,0.10047,0.01894,-0.013541
415,-0.012242,0.021538,0.15406,0.023812,0.10794,0.013743,-0.018738
416,-0.030106,-0.0034721,0.11703,0.015692,0.1232,0.0091954,-0.021986
417,-0.041475,-0.021012,0.094295,0.0046481,0.14432,0.0078962,-0.020687
418,-0.046996,-0.032055,0.083251,-0.0073698,0.16608,0.010495,-0.012567
419,-0.04862,-0.037252,0.074157,-0.01614,0.18622,0.016341,-0.0028225
420,-0.04992,-0.038876,0.063438,-0.021986,0.19141,0.023487,0.0075714
421,-0.051219,-0.036278,0.053044,-0.02361,0.15666,0.029658,0.017965
422,-0.049595,-0.03238,0.041676,-0.020362,0.068635,0.030633,0.026085
423,-0.045047,-0.027508,0.028684,-0.012242,-0.056091,0.022188,0.027709
424,-0.041799,-0.020362,0.016666,-0.0034721,-0.19543,0.0036737,0.024786
425,-0.045372,-0.012892,0.0043233,0.0020496,-0.31204,-0.017439,0.018615
426,-0.056741,-0.0073698,-0.0031473,0.0023744,-0.3731,-0.034978,0.011794
427,-0.068434,-0.0073698,-0.0037969,0.00042559,-0.37278,-0.046022,0.009845
428,-0.075255,-0.011592,0.00042559,-0.00054884,-0.32763,-0.047971,0.015692
429,-0.075255,-0.017114,0.0072465,-0.0021729,-0.26657,-0.045047,0.02641
430,-0.071357,-0.018738,0.015367,-0.0057458,-0.2146,-0.04115,0.036154
431,-0.064861,-0.014516,0.027385,-0.010293,-0.17757,-0.031406,0.038428
432,-0.056741,-0.007045,0.039727,-0.010943,-0.15223,-0.01484,0.032906
433,-0.047971,0.00075039,0.050771,-0.0067202,-0.13307,0.0056225,0.024461
434,-0.041799,0.0065969,0.054344,-0.00087364,-0.11943,0.023812,0.018615
435,-0.039851,0.0088706,0.047523,0.0039985,-0.11066,0.032906,0.012119
436,-0.0405,0.0065969,0.032906,0.0056225,-0.10481,0.030308,0.0049729
437,-0.039851,0.00010078,0.015367,0.0023744,-0.092469,0.020888,-0.00022403
438,-0.038876,-0.0067202,-0.0057458,-0.0037969,-0.056416,0.0072465,0.0023744
439,-0.036602,-0.0083442,-0.046347,-0.012242,0.013093,-0.0063954,0.0095202
440,-0.035953,-0.0093186,-0.12463,-0.022636,0.10501,-0.01549,0.014392
441,-0.039201,-0.011267,-0.23344,-0.033679,0.19791,-0.022636,0.012443
442,-0.045047,-0.015165,-0.34095,-0.039851,0.27261,-0.02426,0.0020496
443,-0.053492,-0.021012,-0.41176,-0.037577,0.32166,-0.017764,-0.010293
444,-0.063237,-0.024585,-0.42377,-0.025559,0.3353,-0.0047713,-0.019388
445,-0.071032,-0.024585,-0.3796,-0.0093186,0.31192,0.0095202,-0.025559
446,-0.070707,-0.017114,-0.30067,0.0069217,0.25313,0.023487,-0.024585
447,-0.063237,-0.0044465,-0.21525,0.019589,0.16153,0.039727,-0.01614
448,-0.050894,0.0069217,-0.14249,0.02641,0.049147,0.057267,-0.0021729
449,-0.040175,0.009845,-0.095717,0.028684,-0.060963,0.075131,0.011469
450,-0.03238,0.0069217,-0.081751,0.029983,-0.14411,0.090722,0.020239
451,-0.028807,0.0039985,-0.092469,0.030633,-0.17692,0.098842,0.020564
452,-0.027833,0.0072465,-0.11423,0.02706,-0.14509,0.098517,0.013743
453,-0.025234,0.019264,-0.13015,0.01894,-0.038876,0.089748,-0.0011985
454,-0.019388,0.039078,-0.12657,0.011469,0.12905,0.071558,-0.016789
455,-0.011267,0.062139,-0.09994,0.0069217,0.31386,0.045249,-0.028157
456,-0.0063954,0.084551,-0.060313,0.0020496,0.44671,0.016666,-0.029782
457,-0.010943,0.098517,-0.024909,-0.0037969,0.44996,-0.0076946,-0.025884
458,-0.022636,0.098517,-0.0047713,-0.0099683,0.28756,-0.026533,-0.022311
459,-0.035628,0.082927,-0.0024977,-0.012892,-0.0076946,-0.038876,-0.021337
460,-0.043099,0.058891,-0.013216,-0.013216,-0.34939,-0.047321,-0.019388
461,-0.04115,0.032582,-0.024585,-0.0096434,-0.6388,-0.047646,-0.01614
462,-0.030431,0.0085458,-0.0096434,-0.0044465,-0.81159,-0.043423,-0.013866
463,-0.016464,-0.010293,0.058566,0.0043233,-0.86064,-0.039526,-0.013866
464,-0.0031473,-0.026858,0.16315,0.013093,-0.81906,-0.039201,-0.016789
465,0.01017,-0.045372,0.25085,0.017316,-0.73299,-0.041799,-0.018738
466,0.020239,-0.064536,0.27359,0.014392,-0.64042,-0.044073,-0.017114
467,0.029658,-0.078503,0.22129,0.0078962,-0.55792,-0.046671,-0.01549
468,0.03518,-0.084024,0.10339,0.0010752,-0.48549,-0.047646,-0.013541
469,0.03518,-0.079802,-0.044398,-0.0044465,-0.4215,-0.046671,-0.013216
470,0.027385,-0.067134,-0.17205,-0.011267,-0.36238,-0.043423,-0.013216
471,0.012768,-0.04992,-0.23961,-0.021012,-0.30912,-0.039851,-0.015815
472,-0.0034721,-0.030431,-0.23701,-0.034329,-0.26949,-0.041799,-0.018413
473,-0.013541,-0.010618,-0.17724,-0.04992,-0.24903,-0.050244,-0.021337
474,-0.012567,0.01017,-0.088572,-0.061288,-0.23961,-0.065835,-0.021986
475,-0.0073698,0.029009,-0.0015233,-0.063561,-0.22694,-0.082725,-0.021337
476,-0.0031473,0.043625,0.061489,-0.054792,-0.19706,-0.095393,-0.020362
477,0.00075039,0.054993,0.094945,-0.038876,-0.14671,-0.09994,-0.019388
478,0.0052977,0.064737,0.10696,-0.020362,-0.074605,-0.097341,-0.019388
479,0.011469,0.071883,0.11054,-0.0037969,0.015042,-0.095068,-0.02426
480,0.020888,0.075131,0.11443,0.0091954,0.11086,-0.089871,-0.031081
481,0.034206,0.076755,0.11703,0.01894,0.20798,-0.0824,-0.038227
482,0.046873,0.078055,0.10696,0.028359,0.30185,-0.07493,-0.041799
483,0.051745,0.080978,0.07773,0.036479,0.3824,-0.067784,-0.039851
484,0.049472,0.081303,0.027709,0.0433,0.44379,-0.05739,-0.030106
485,0.042975,0.080653,-0.033354,0.043625,0.48699,-0.046671,-0.010943
486,0.037454,0.079029,-0.088896,0.038428,0.51882,-0.036602,0.0078962
487,0.03583,0.075456,-0.12852,0.03453,0.54091,-0.026533,0.021538
488,0.040377,0.065062,-0.14541,0.036154,0.5526,-0.01549,0.025111
489,0.044275,0.05272,-0.14639,0.041027,0.55162,-0.0054209,0.023162
490,0.046223,0.039727,-0.14281,0.044275,0.53831,0.0020496,0.019589
491,0.043625,0.029983,-0.15029,0.039727,0.51654,0.0056225,0.015367
492,0.039078,0.024137,-0.17919,0.029983,0.49153,0.0072465,0.01017
493,0.032582,0.020564,-0.22434,0.01829,0.47399,0.0091954,0.0026992
494,0.02641,0.017965,-0.27274,0.0072465,0.4636,0.011469,-0.0057458
495,0.022837,0.016341,-0.30554,-0.0047713,0.4571,0.013418,-0.010943
496,0.019914,0.014392,-0.30912,-0.014516,0.44346,0.010495,-0.012567
497,0.016666,0.011469,-0.28443,-0.021661,0.41131,-0.00087364,-0.013216
498,0.015367,0.0069217,-0.24545,-0.028157,0.35836,-0.01484,-0.013216
499,0.013743,0.0036737,-0.20745,-0.033679,0.28983,-0.028807,-0.01614
500,0.012443,0.0036737,-0.18439,-0.035953,0.21967,-0.039201,-0.020687
501,0.012443,0.0085458,-0.18049,-0.032055,0.15926,-0.043423,-0.02426
502,0.013743,0.017965,-0.19089,-0.021986,0.1219,-0.039526,-0.025884
503,0.017316,0.030308,-0.2094,-0.0096434,0.11021,-0.030431,-0.025884
504,0.023162,0.039727,-0.22272,0.0014,0.11443,-0.020362,-0.024585
505,0.032906,0.045574,-0.20615,0.0062721,0.11736,-0.01484,-0.020687
506,0.044599,0.045899,-0.12463,0.0046481,0.10274,-0.012892,-0.010293
507,0.056292,0.042326,0.032257,0.0010752,0.063763,-0.011592,0.01017
508,0.065712,0.036479,0.23266,-0.0011985,0.0065969,-0.0073698,0.03453
509,0.06961,0.029658,0.41358,0.00042559,-0.05804,0.0023744,0.056617
510,0.06896,0.024137,0.51849,0.0052977,-0.12008,0.015692,0.071234
511,0.068635,0.020239,0.51362,0.014392,-0.17919,0.030633,0.076431
512,0.06961,0.01894,0.37103,0.024461,-0.23831,0.041351,0.074482
513,0.069934,0.019264,0.098193,0.032257,-0.30262,0.046873,0.070909
514,0.06831,0.015367,-0.20323,0.035505,-0.3718,0.048822,0.067986
515,0.065062,0.0075714,-0.38837,0.03453,-0.44489,0.049472,0.064737
516,0.062464,-0.0031473,-0.37018,0.03518,-0.51439,0.051745,0.059541
517,0.054993,-0.014516,-0.15386,0.042326,-0.56701,0.050121,0.052395
518,0.042326,-0.026533,0.17127,0.05142,-0.59235,0.041351,0.045574
519,0.023812,-0.036927,0.47529,0.057592,-0.57643,0.022512,0.039078
520,0.0046481,-0.042449,0.66238,0.057917,-0.50627,-0.0044465,0.036804
521,-0.014516,-0.043099,0.69974,0.051745,-0.3822,-0.034004,0.038753
522,-0.030106,-0.039851,0.61204,0.041027,-0.21785,-0.062912,0.040052
523,-0.038876,-0.031406,0.45451,0.032257,-0.04115,-0.080127,0.038103
524,-0.038227,-0.020037,0.28203,0.028359,0.10956,-0.077853,0.033231
525,-0.028157,-0.008669,0.13652,0.029658,0.19953,-0.053492,0.031282
526,-0.016789,0.0014,0.036479,0.033231,0.22129,-0.014516,0.030633
527,-0.0096434,0.0065969,-0.015165,0.03583,0.18946,0.022188,0.029009
528,-0.011267,0.0072465,-0.03173,0.040702,0.13457,0.049147,0.025111
529,-0.020687,0.0059473,-0.028482,0.045899,0.081303,0.067011,0.023162
530,-0.03303,0.0056225,-0.018088,0.048822,0.038103,0.078379,0.025761
531,-0.044073,0.0085458,-0.011917,0.049796,0.0017248,0.084551,0.029333
532,-0.051544,0.013418,-0.015165,0.047523,-0.028807,0.085525,0.02706
533,-0.053492,0.016991,-0.025234,0.045574,-0.050894,0.082277,0.019914
534,-0.04992,0.016991,-0.038551,0.045249,-0.062262,0.074482,0.012119
535,-0.048296,0.014392,-0.04992,0.048497,-0.065835,0.066362,0.0072465
536,-0.049595,0.011794,-0.05804,0.056617,-0.068109,0.059216,0.0046481
537,-0.04862,0.01017,-0.062262,0.064737,-0.075255,0.050446,0.0049729
538,-0.038551,0.0069217,-0.061937,0.06831,-0.084999,0.042651,0.0072465
539,-0.022636,0.003024,-0.054142,0.06896,-0.09117,0.041027,0.011144
540,-0.0073698,-0.0028225,-0.039851,0.070259,-0.089221,0.042001,0.019264
541,0.0033489,-0.0080194,-0.024585,0.073182,-0.078178,0.041676,0.029333
542,0.012119,-0.010618,-0.012242,0.074482,-0.053817,0.039078,0.038103
543,0.016341,-0.014516,-0.0083442,0.071558,-0.020037,0.028359,0.041676
544,0.017316,-0.022311,-0.010943,0.066686,0.01829,0.0095202,0.0433
545,0.015367,-0.034978,-0.019388,0.06084,0.057917,-0.012892,0.038753
546,0.013418,-0.046347,-0.027508,0.053694,0.089748,-0.034329,0.031607
547,0.013743,-0.051868,-0.030756,0.048172,0.10047,-0.057715,0.02641
548,0.013093,-0.047646,-0.024909,0.043625,0.075456,-0.081426,0.023162
549,0.011144,-0.033354,-0.016464,0.037778,0.0072465,-0.10676,0.016341
550,0.0065969,-0.014191,-0.011917,0.025111,-0.09929,-0.13177,0.0072465
551,0.00010078,0.0026992,-0.018088,0.011469,-0.22272,-0.15483,0.00075039
552,-0.0015233,0.012768,-0.03303,0.00042559,-0.3286,-0.16782,-0.0044465
553,0.0023744,0.014717,-0.054467,-0.0063954,-0.37862,-0.1688,-0.010943
554,0.011469,0.012768,-0.077528,-0.010293,-0.36109,-0.15841,-0.017764
555,0.021863,0.009845,-0.10091,-0.014191,-0.29093,-0.13469,-0.024909
556,0.029983,0.010819,-0.11845,-0.017764,-0.19706,-0.10351,-0.028157
557,0.031607,0.016016,-0.12495,-0.020037,-0.10806,-0.071357,-0.025559
558,0.025436,0.023487,-0.1191,-0.022636,-0.049595,-0.048296,-0.01614
559,0.015367,0.027709,-0.10579,-0.022636,-0.040825,-0.043423,-0.0063954
560,0.0069217,0.02706,-0.093119,-0.024909,-0.089546,-0.055116,-0.00054884
561,0.0033489,0.022188,-0.089871,-0.033679,-0.20258,-0.074605,-0.00087364
562,0.0033489,0.017965,-0.10579,-0.045372,-0.36076,-0.088896,-0.0083442
563,0.0065969,0.016991,-0.14346,-0.054142,-0.51082,-0.092145,-0.019063
564,0.014392,0.020564,-0.19348,-0.057065,-0.60047,-0.082076,-0.025559
565,0.022512,0.028034,-0.2487,-0.054467,-0.59982,-0.063886,-0.020687
566,0.027385,0.038103,-0.29742,-0.047971,-0.51439,-0.040175,-0.0089938
567,0.027385,0.049472,-0.31366,-0.038227,-0.37862,-0.016464,0.0036737
568,0.025111,0.063438,-0.27014,-0.024585,-0.23441,0.0056225,0.015367
569,0.020564,0.079679,-0.1636,-0.0041217,-0.10351,0.024461,0.023812
570,0.016666,0.10144,-0.018088,0.018615,0.0023744,0.039727,0.02706
571,0.011794,0.12905,0.14074,0.039078,0.078379,0.050121,0.02641
572,0.0059473,0.15503,0.28301,0.05272,0.12418,0.055968,0.024786
573,-0.00022403,0.17452,0.39117,0.057592,0.15179,0.061165,0.023812
574,-0.0083442,0.18004,0.48439,0.05272,0.17517,0.066362,0.023487
575,-0.019712,0.16185,0.60327,0.039078,0.20376,0.074806,0.023812
576,-0.034329,0.11671,0.75463,0.023812,0.23786,0.084876,0.020888
577,-0.046996,0.056617,0.89917,0.01017,0.26644,0.091047,0.015692
578,-0.051544,-0.0011985,0.9742,0.0036737,0.27684,0.091696,0.011144
579,-0.04862,-0.04115,0.92743,0.0039985,0.26417,0.084876,0.012119
580,-0.0405,-0.05804,0.74813,0.0059473,0.24013,0.076106,0.015042
581,-0.030106,-0.056091,0.47107,0.0020496,0.21512,0.065062,0.015367
582,-0.020037,-0.050244,0.13132,-0.0060706,0.19044,0.047847,0.01017
583,-0.01484,-0.055116,-0.27046,-0.019388,0.14691,0.022188,0.0020496
584,-0.011592,-0.077853,-0.7083,-0.038876,0.058241,-0.010293,-0.0096434
585,-0.0093186,-0.11488,-1.1016,-0.060313,-0.06551,-0.043099,-0.02361
586,-0.0057458,-0.16003,-1.3472,-0.07428,-0.1753,-0.064861,-0.034978
587,-0.0021729,-0.20875,-1.3712,-0.075579,-0.21362,-0.064211,-0.038876
588,-0.0021729,-0.26494,-1.1806,-0.063886,-0.15808,-0.036927,-0.035303
589,-0.0054209,-0.32568,-0.85642,-0.0405,-0.024585,0.011469,-0.028157
590,-0.0073698,-0.37278,-0.51342,-0.012892,0.13587,0.067011,-0.021012
591,-0.0060706,-0.38999,-0.25195,0.012119,0.27229,0.11411,-0.017439
592,0.003024,-0.36823,-0.11521,0.029009,0.35187,0.13555,-0.018088
593,0.015042,-0.30814,-0.086623,0.038753,0.3759,0.13132,-0.023285
594,0.025111,-0.22564,-0.12073,0.041676,0.36356,0.10696,-0.026533
595,0.028684,-0.13859,-0.16458,0.040052,0.34375,0.073832,-0.026209
596,0.027385,-0.061288,-0.17952,0.037778,0.33043,0.0433,-0.019388
597,0.021538,-0.0011985,-0.14476,0.039078,0.32621,0.022188,-0.010943
598,0.011794,0.036804,-0.067784,0.046873,0.32491,0.0069217,-0.0024977
599,-0.0021729,0.054668,0.023162,0.059541,0.32198,-0.0073698,0.003024
600,-0.017114,0.061814,0.10079,0.066037,0.32069,-0.02361,0.003024
601,-0.028807,0.062789,0.15211,0.059541,0.33011,-0.036927,-0.0031473
602,-0.034978,0.065387,0.18069,0.040702,0.35674,-0.045372,-0.012242
603,-0.033679,0.070909,0.2044,0.01764,0.39669,-0.048296,-0.018738
604,-0.026858,0.080003,0.23981,-0.0015233,0.43372,-0.050894,-0.021337
605,-0.015165,0.092021,0.29438,-0.011267,0.461,-0.058365,-0.020687
606,-0.0057458,0.10534,0.36064,-0.01614,0.47497,-0.070058,-0.020687
607,-0.0041217,0.11931,0.42008,-0.022636,0.45808,-0.0824,-0.020687
608,-0.0096434,0.13295,0.45581,-0.034978,0.3837,-0.087597,-0.021012
609,-0.018088,0.14367,0.45775,-0.050894,0.24306,-0.079477,-0.020037
610,-0.026533,0.14984,0.42885,-0.062912,0.058566,-0.059014,-0.018088
611,-0.029457,0.15406,0.37915,-0.06551,-0.14022,-0.030431,-0.014516
612,-0.024909,0.15763,0.32069,-0.059989,-0.31139,-0.0011985,-0.0080194
613,-0.012892,0.16153,0.26547,-0.047321,-0.42735,0.02641,-0.00054884
614,0.00075039,0.16478,0.22454,-0.032055,-0.49361,0.045899,0.0072465
615,0.012443,0.16413,0.19986,-0.015165,-0.52251,0.058891,0.013743
616,0.018615,0.16185,0.18622,0.003024,-0.51764,0.067336,0.01829
617,0.016666,0.15471,0.16835,0.019589,-0.47867,0.073832,0.022837
618,0.01017,0.14432,0.13977,0.02641,-0.39941,0.074482,0.027385
619,0.0046481,0.13262,0.10534,0.022837,-0.29028,0.065712,0.029983
620,0.0046481,0.12158,0.073832,0.0085458,-0.17205,0.05207,0.028034
621,0.0085458,0.10794,0.049796,-0.013541,-0.061937,0.03518,0.01894
622,0.011794,0.093645,0.030633,-0.036278,0.037129,0.015367,0.0065969
623,0.010819,0.078704,0.010819,-0.05804,0.12872,-0.0047713,-0.0034721
624,0.00010078,0.064413,-0.0076946,-0.076554,0.21025,-0.01484,-0.010293
625,-0.019063,0.051745,-0.024909,-0.085973,0.26774,-0.014516,-0.014191
626,-0.037252,0.042001,-0.039201,-0.082725,0.28496,-0.010293,-0.016789
627,-0.048296,0.03583,-0.04927,-0.070707,0.2489,-0.013866,-0.019712
628,-0.052518,0.032257,-0.055766,-0.054792,0.16315,-0.029782,-0.021012
629,-0.052193,0.029009,-0.056091,-0.04115,0.049796,-0.048296,-0.021661
630,-0.047321,0.027709,-0.054467,-0.030431,-0.056416,-0.052193,-0.023285
631,-0.035628,0.032582,-0.057065,-0.016464,-0.1243,-0.034654,-0.022636
632,-0.021012,0.039727,-0.06681,0.0023744,-0.13307,-0.0018481,-0.013866
633,-0.0096434,0.044599,-0.081751,0.022837,-0.09117,0.03453,0.003024
634,-0.0047713,0.042975,-0.098316,0.038428,-0.024585,0.064737,0.022188
635,-0.0041217,0.036479,-0.11261,0.040052,0.036154,0.082602,0.038428
636,-0.0060706,0.028034,-0.12138,0.028359,0.074157,0.088448,0.047847
637,-0.0073698,0.019589,-0.12333,0.0069217,0.0852,0.087799,0.048172
638,-0.008669,0.012119,-0.11683,-0.01549,0.075456,0.087474,0.038103
639,-0.011917,0.0056225,-0.10091,-0.027183,0.050446,0.092021,0.023162
640,-0.013216,0.0036737,-0.0824,-0.024585,0.015367,0.10014,0.0091954
641,-0.010618,0.0036737,-0.072006,-0.011267,-0.025234,0.10859,0.0014
642,-0.0041217,0.0023744,-0.083375,0.0065969,-0.070058,0.11541,-0.00054884
643,0.0056225,-0.0024977,-0.12268,0.023162,-0.11098,0.11443,0.0010752
644,0.016991,-0.0076946,-0.17205,0.033556,-0.13729,0.099492,0.0059473
645,0.031932,-0.008669,-0.20128,0.03583,-0.14249,0.069285,0.0085458
646,0.046223,-0.0041217,-0.17952,0.033231,-0.11683,0.033556,0.0069217
647,0.054019,0.0020496,-0.086623,0.030633,-0.052193,-0.0034721,0.0033489
648,0.051745,0.0039985,0.081303,0.030957,0.044924,-0.037902,-0.0063954
649,0.042975,-0.0028225,0.3012,0.03518,0.15633,-0.067459,-0.021661
650,0.030957,-0.013216,0.51752,0.040702,0.25995,-0.094093,-0.037252
651,0.01764,-0.019712,0.66498,0.046873,0.33498,-0.11813,-0.051219
652,0.0046481,-0.023285,0.70104,0.051096,0.37753,-0.13892,-0.060313
653,-0.0044465,-0.024585,0.62048,0.057267,0.38825,-0.15061,-0.068434
654,-0.012567,-0.024909,0.45191,0.067011,0.36259,-0.15191,-0.073306
655,-0.01614,-0.025884,0.23916,0.076431,0.28301,-0.14444,-0.072656
656,-0.013541,-0.028807,0.033556,0.081303,0.14756,-0.13567,-0.063886
657,-0.0073698,-0.035953,-0.13502,0.075456,-0.020037,-0.1334,-0.048945
658,-0.0018481,-0.046996,-0.28281,0.063438,-0.18471,-0.13924,-0.03303
659,0.0020496,-0.060638,-0.44164,0.050121,-0.31074,-0.14801,-0.022311
660,0.0010752,-0.072006,-0.60079,0.044924,-0.38447,-0.15353,-0.015815
661,-0.0024977,-0.075255,-0.70343,0.049796,-0.41793,-0.15126,-0.010618
662,-0.0011985,-0.067134,-0.70051,0.06019,-0.42767,-0.14119,-0.0028225
663,0.0075714,-0.046996,-0.58325,0.067661,-0.42897,-0.12592,0.008221
664,0.01764,-0.024909,-0.39162,0.073832,-0.42345,-0.10871,0.01894
665,0.020564,-0.0063954,-0.19381,0.077405,-0.40818,-0.094418,0.027385
666,0.012443,0.0065969,-0.044723,0.079679,-0.37538,-0.084024,0.032906
667,0.0026992,0.014717,0.029333,0.078704,-0.31594,-0.075255,0.034206
668,-0.0021729,0.020239,0.037778,0.077405,-0.22207,-0.062912,0.03518
669,-0.0031473,0.024786,0.0078962,0.075456,-0.09929,-0.047321,0.039078
670,-0.0015233,0.027709,-0.035953,0.071234,0.032906,-0.027833,0.044275
671,0.0017248,0.028684,-0.070707,0.063438,0.15861,-0.0015233,0.048497
672,0.0043233,0.028684,-0.084349,0.054019,0.25962,0.029333,0.046548
673,0.0088706,0.027385,-0.073631,0.045249,0.32166,0.056617,0.042326
674,0.012443,0.024137,-0.040825,0.036804,0.34115,0.073832,0.042001
675,0.018615,0.018615,0.010495,0.026735,0.33173,0.076106,0.046873
676,0.022188,0.009845,0.071234,0.014717,0.31127,0.066686,0.053369
677,0.022512,0.0023744,0.14334,0.0033489,0.296,0.053369,0.059541
678,0.021863,-0.0063954,0.23981,-0.0041217,0.29048,0.042975,0.062139
679,0.021863,-0.022636,0.34992,-0.0054209,0.28756,0.039078,0.061489
680,0.019914,-0.045047,0.43339,-0.0057458,0.27359,0.047523,0.061814
681,0.012768,-0.067784,0.45158,-0.007045,0.23916,0.061814,0.063763
682,0.011144,-0.085648,0.39799,-0.010943,0.17615,0.074806,0.065387
683,0.01829,-0.092469,0.28528,-0.013866,0.078704,0.079354,0.063438
684,0.032906,-0.087922,0.14042,-0.013541,-0.049595,0.073182,0.057267
685,0.050446,-0.073306,-0.00054884,-0.0060706,-0.18731,0.057592,0.051745
686,0.06831,-0.055766,-0.10676,0.0075714,-0.30619,0.031932,0.048497
687,0.083251,-0.037902,-0.16393,0.022512,-0.38707,-0.00087364,0.0433
688,0.092996,-0.019712,-0.17335,0.033556,-0.42182,-0.034329,0.033556
689,0.093645,-0.0047713,-0.15418,0.038103,-0.41695,-0.071682,0.020888
690,0.08585,0.0046481,-0.12268,0.034206,-0.40623,-0.11618,0.010819
691,0.069934,0.0059473,-0.093769,0.021538,-0.43059,-0.16523,0.0046481
692,0.05207,0.0023744,-0.075255,0.0049729,-0.50433,-0.20648,0.00075039
693,0.036804,-0.0034721,-0.06681,-0.0089938,-0.61508,-0.22889,-0.0031473
694,0.026735,-0.0083442,-0.062262,-0.01549,-0.73104,-0.22564,-0.0044465
695,0.022837,-0.011267,-0.059664,-0.013216,-0.81159,-0.20063,-0.0011985
696,0.024786,-0.012242,-0.060963,-0.007045,-0.82783,-0.16295,0.0062721
697,0.030308,-0.011917,-0.062262,-0.0037969,-0.76742,-0.12073,0.014068
698,0.035505,-0.010943,-0.059989,-0.0034721,-0.63392,-0.086298,0.019914
699,0.036804,-0.012567,-0.038227,-0.0060706,-0.43482,-0.064861,0.024786
700,0.032906,-0.016464,0.025436,-0.0093186,-0.18342,-0.053168,0.025761
701,0.02706,-0.019388,0.13814,-0.010293,0.087474,-0.046022,0.026735
702,0.022837,-0.019712,0.28723,-0.011592,0.33368,-0.036927,0.025436
703,0.021213,-0.01614,0.43957,-0.013216,0.51037,-0.021337,0.020888
704,0.022188,-0.012892,0.56332,-0.017439,0.5958,0.00075039,0.011469
705,0.022188,-0.010943,0.63997,-0.018413,0.59612,0.025436,0.0017248
706,0.018615,-0.011917,0.67408,-0.016789,0.54026,0.049472,-0.0044465
707,0.0095202,-0.013866,0.6783,-0.014191,0.46198,0.070584,-0.0047713
708,-0.0037969,-0.013216,0.67115,-0.011267,0.3837,0.089098,0.00010078
709,-0.015165,-0.0018481,0.66628,-0.0093186,0.31354,0.10144,0.0072465
710,-0.021012,0.02641,0.6705,-0.0034721,0.23883,0.10664,0.013418
711,-0.020687,0.070584,0.66303,0.0052977,0.14204,0.10664,0.016666
712,-0.016464,0.11671,0.57339,0.012768,0.025111,0.10664,0.017316
713,-0.0099683,0.14724,0.26352,0.011144,-0.088572,0.10599,0.012119
714,-0.0047713,0.14789,-0.35426,0.00042559,-0.1727,0.10534,0.00042559
715,-0.0018481,0.12158,-1.1617,-0.020687,-0.21817,0.10177,-0.013541
716,-0.0011985,0.081303,-1.9046,-0.046671,-0.23279,0.089098,-0.024909
717,-0.00087364,0.038753,-2.3457,-0.066485,-0.22954,0.06961,-0.029132
718,0.003024,0.0036737,-2.3746,-0.07428,-0.21882,0.047523,-0.025234
719,0.0069217,-0.020037,-2.0342,-0.072331,-0.20615,0.025761,-0.018413
720,0.0091954,-0.032705,-1.4771,-0.064536,-0.18926,0.0095202,-0.0096434
721,0.0088706,-0.036602,-0.88305,-0.055116,-0.16133,-0.0011985,0.0014
722,0.0026992,-0.034978,-0.39519,-0.046347,-0.12365,-0.0080194,0.009845
723,-0.0060706,-0.029132,-0.078827,-0.041475,-0.086623,-0.011917,0.017316
724,-0.012242,-0.02426,0.073832,-0.037252,-0.057065,-0.0099683,0.01829
725,-0.012242,-0.020037,0.11736,-0.034978,-0.037252,-0.0024977,0.010495
726,-0.010293,-0.016789,0.11151,-0.03173,-0.032055,0.010819,-0.0054209
727,-0.008669,-0.017439,0.098517,-0.031081,-0.041475,0.021863,-0.021986
728,-0.0080194,-0.022311,0.098842,-0.034004,-0.061613,0.024786,-0.035628
729,-0.011592,-0.030431,0.11573,-0.043423,-0.087272,0.018615,-0.044723
730,-0.021012,-0.041799,0.13944,-0.055116,-0.11878,0.0039985,-0.050244
731,-0.035303,-0.052843,0.1664,-0.062262,-0.15386,-0.010943,-0.050894
732,-0.045372,-0.060313,0.19109,-0.061288,-0.18407,-0.02426,-0.045697
733,-0.050569,-0.061613,0.21058,-0.051868,-0.19901,-0.035628,-0.035628
734,-0.055116,-0.055766,0.22162,-0.039851,-0.19186,-0.042449,-0.02426
735,-0.059339,-0.044073,0.22779,-0.028157,-0.15905,-0.042124,-0.016789
736,-0.059989,-0.026533,0.23396,-0.021012,-0.098316,-0.037902,-0.014191
737,-0.058689,-0.010293,0.24403,-0.015165,-0.022961,-0.033679,-0.015815
738,-0.055116,-0.00087364,0.2515,-0.011592,0.053044,-0.027508,-0.017764
739,-0.050569,-0.0018481,0.24793,-0.0067202,0.11671,-0.019063,-0.017764
740,-0.044073,-0.0067202,0.23689,-0.0018481,0.16023,-0.011267,-0.015815
741,-0.036927,-0.0093186,0.22682,0.0010752,0.18394,-0.0080194,-0.01549
742,-0.031081,-0.0067202,0.2174,0.0049729,0.18914,-0.0093186,-0.017114
743,-0.028807,-0.0018481,0.20603,0.0069217,0.1781,-0.012242,-0.018088
744,-0.028482,0.00010078,0.18362,0.0062721,0.15309,-0.017764,-0.01484
745,-0.024909,-0.0031473,0.14919,0.0023744,0.11054,-0.027833,-0.0067202
746,-0.021661,-0.011592,0.11118,-0.00087364,0.054993,-0.040825,0.0020496
747,-0.019063,-0.016789,0.083576,0.0020496,0.003024,-0.053168,0.0065969
748,-0.020037,-0.015165,0.070259,0.012119,-0.030431,-0.062587,0.0046481
749,-0.02361,-0.0076946,0.070259,0.030633,-0.038551,-0.06681,-0.0011985
750,-0.026858,0.0020496,0.076431,0.054668,-0.030756,-0.062912,-0.0041217
751,-0.027833,0.011794,0.08585,0.078055,-0.017764,-0.051868,-0.0031473
752,-0.028482,0.021538,0.097218,0.09462,-0.011267,-0.039201,-0.0018481
753,-0.03238,0.028359,0.10794,0.10014,-0.0076946,-0.028807,-0.0028225
754,-0.038551,0.031282,0.11183,0.098193,-0.0037969,-0.018413,-0.0034721
755,-0.046022,0.030308,0.10631,0.093645,0.0062721,-0.0093186,-0.0047713
756,-0.051868,0.030957,0.10144,0.088124,0.027385,-0.00022403,-0.0034721
757,-0.054792,0.03518,0.10599,0.080003,0.054019,0.0078962,-0.00087364
758,-0.054142,0.041351,0.12125,0.068635,0.078704,0.0085458,-0.0011985
759,-0.046022,0.045249,0.13684,0.055318,0.092346,0.0069217,-0.0024977
760,-0.033679,0.045899,0.14269,0.047523,0.10144,0.0065969,-0.0021729
761,-0.019712,0.046873,0.12937,0.045899,0.11541,0.013093,0.0039985
762,-0.008669,0.050771,0.099817,0.05142,0.14139,0.026085,0.014717
763,-0.0050961,0.058241,0.061165,0.064413,0.18134,0.039402,0.024461
764,-0.0018481,0.067011,0.023812,0.080328,0.23364,0.047523,0.030308
765,0.00010078,0.075781,-0.0041217,0.092671,0.29145,0.049796,0.029658
766,0.00010078,0.080328,-0.019063,0.098517,0.35024,0.051745,0.030633
767,-0.0024977,0.078379,-0.0015233,0.095594,0.40481,0.056292,0.031607
768,-0.0044465,0.078055,0.087149,0.084876,0.44476,0.06019,0.035505
769,0.00042559,0.088448,0.24955,0.070909,0.46782,0.058241,0.038428
770,0.014717,0.11378,0.44379,0.062139,0.47335,0.049796,0.041351
771,0.032257,0.14302,0.62341,0.060515,0.46295,0.036479,0.046548
772,0.042651,0.15536,0.73871,0.055968,0.41943,0.020239,0.047847
773,0.041351,0.13912,0.76437,0.042651,0.32198,0.0059473,0.042001
774,0.028684,0.092996,0.70233,0.020888,0.17874,-0.011592,0.028684
775,0.01017,0.030308,0.57469,-0.0018481,0.022188,-0.034654,0.009845
776,-0.0073698,-0.026533,0.41845,-0.021012,-0.10091,-0.060313,-0.007045
777,-0.018738,-0.056741,0.27684,-0.034329,-0.14964,-0.078827,-0.020687
778,-0.024909,-0.058689,0.17842,-0.040175,-0.11131,-0.0824,-0.028157
779,-0.026533,-0.039201,0.13132,-0.034654,-0.0093186,-0.072006,-0.026209
780,-0.028807,-0.010943,0.1245,-0.025234,0.10371,-0.052843,-0.018738
781,-0.033354,0.016341,0.13392,-0.014516,0.17907,-0.030106,-0.010293
782,-0.037902,0.036479,0.13457,-0.0034721,0.19239,-0.010618,-0.0037969
783,-0.037902,0.042651,0.11086,0.0056225,0.14561,0.0065969,-0.0021729
784,-0.032705,0.037129,0.069934,0.0085458,0.059865,0.016666,-0.0063954
785,-0.019712,0.026085,0.025436,0.0052977,-0.035303,0.01894,-0.013216
786,-0.0050961,0.014392,-0.011917,0.0010752,-0.11813,0.017316,-0.018413
787,0.0049729,0.0062721,-0.042449,0.0014,-0.17237,0.016666,-0.021661
788,0.012768,0.0059473,-0.075255,0.009845,-0.19381,0.021213,-0.024585
789,0.016991,0.013743,-0.11293,0.025436,-0.19283,0.030308,-0.027183
790,0.020888,0.024137,-0.14931,0.041676,-0.18244,0.040702,-0.027183
791,0.02706,0.031282,-0.17692,0.05207,-0.1701,0.047523,-0.025559
792,0.033881,0.033231,-0.19673,0.053694,-0.15905,0.051096,-0.021661
793,0.037129,0.031607,-0.20648,0.048172,-0.15061,0.051745,-0.016464
794,0.035505,0.029333,-0.20713,0.037778,-0.14931,0.049472,-0.011917
795,0.027709,0.024137,-0.19901,0.024137,-0.15093,0.044924,-0.008669
796,0.016016,0.013093,-0.19186,0.009845,-0.14736,0.040377,-0.0076946
797,0.0046481,-0.0011985,-0.18861,-0.0057458,-0.13015,0.03453,-0.0089938
798,-0.0028225,-0.01484,-0.18861,-0.018413,-0.093444,0.025111,-0.010618
799,-0.0044465,-0.022961,-0.19381,-0.023285,-0.03238,0.012443,-0.013216
800,0.00010078,-0.025234,-0.24123,-0.022961,0.047198,0.00010078,-0.017764
801,0.0046481,-0.022636,-0.37408,-0.026533,0.12872,-0.0018481,-0.021986
802,0.003024,-0.017439,-0.57416,-0.038551,0.18946,0.008221,-0.024585
803,-0.0083442,-0.011592,-0.75605,-0.057715,0.2122,0.027709,-0.02426
804,-0.020687,-0.0054209,-0.80705,-0.076879,0.17712,0.042326,-0.022961
805,-0.026533,-0.0057458,-0.65569,-0.092469,0.055643,0.040702,-0.023285
806,-0.022636,-0.011917,-0.32081,-0.098641,-0.17172,0.013093,-0.026858
807,-0.012242,-0.021986,0.089423,-0.095068,-0.47087,-0.036278,-0.030431
808,0.0033489,-0.033354,0.41456,-0.08305,-0.75995,-0.094418,-0.029457
809,0.022512,-0.043099,0.52369,-0.06616,-0.94476,-0.14379,-0.024585
810,0.041676,-0.049595,0.385,-0.04992,-0.96847,-0.16847,-0.019063
811,0.058241,-0.052193,0.088773,-0.036278,-0.83108,-0.16458,-0.015165
812,0.065712,-0.052193,-0.22142,-0.025884,-0.58845,-0.13697,-0.010943
813,0.065387,-0.050569,-0.42572,-0.01484,-0.32958,-0.097991,-0.0057458
814,0.062789,-0.044723,-0.48094,0.00075039,-0.13599,-0.059014,0.00010078
815,0.062464,-0.036927,-0.41695,0.016341,-0.043748,-0.02426,0.0062721
816,0.066362,-0.031081,-0.30035,0.029333,-0.035303,0.0033489,0.013418
817,0.072208,-0.028482,-0.18894,0.03583,-0.067784,0.019914,0.024137
818,0.075456,-0.025234,-0.11748,0.038428,-0.098316,0.022837,0.036479
819,0.068635,-0.019388,-0.088572,0.040052,-0.093119,0.014392,0.041027
820,0.051745,-0.011917,-0.088247,0.044924,-0.028157,-0.0067202,0.032582
821,0.032906,-0.0073698,-0.10059,0.053694,0.10566,-0.041799,0.011469
822,0.015042,-0.007045,-0.11456,0.059541,0.30185,-0.081426,-0.010943
823,0.0023744,-0.011592,-0.11975,0.054668,0.52889,-0.11845,-0.02361
824,-0.0028225,-0.018413,-0.11293,0.038753,0.73449,-0.14639,-0.025559
825,-0.0015233,-0.024909,-0.097666,0.01829,0.86409,-0.15905,-0.019712
826,0.0026992,-0.030756,-0.081101,0.0017248,0.8813,-0.15678,-0.0096434
827,0.0075714,-0.035303,-0.070058,-0.008669,0.77769,-0.14736,0.003024
828,0.012443,-0.037902,-0.062912,-0.0099683,0.57988,-0.13794,0.018615
829,0.016016,-0.035303,-0.054792,-0.0050961,0.33563,-0.13534,0.035505
830,0.016991,-0.026533,-0.043099,0.0023744,0.097868,-0.13697,0.050121
831,0.01829,-0.014191,-0.023935,0.0072465,-0.097017,-0.13534,0.058891
832,0.021213,-0.00054884,-0.0011985,0.010819,-0.2461,-0.12333,0.062464
833,0.025436,0.012119,0.021538,0.013743,-0.36466,-0.098641,0.064413
834,0.028684,0.021538,0.042326,0.016016,-0.46697,-0.067134,0.06961
835,0.029333,0.02641,0.049796,0.020564,-0.54817,-0.036927,0.074482
836,0.02641,0.02641,0.031607,0.027709,-0.59657,-0.013866,0.069934
837,0.021213,0.020239,-0.01614,0.032582,-0.60372,0.0023744,0.057917
838,0.01764,0.012443,-0.077203,0.037454,-0.57286,0.011794,0.046548
839,0.017316,0.0078962,-0.12787,0.041676,-0.51537,0.023487,0.038428
840,0.020239,0.0072465,-0.15126,0.045249,-0.43514,0.042975,0.037129
841,0.022188,0.0059473,-0.14379,0.047523,-0.32925,0.075456,0.042651
842,0.020564,0.0043233,-0.11748,0.047847,-0.19771,0.12028,0.05142
843,0.016666,0.0039985,-0.088896,0.042326,-0.045697,0.17712,0.06084
844,0.013418,0.0043233,-0.068109,0.032906,0.10566,0.24468,0.066686
845,0.012768,0.0065969,-0.054792,0.023812,0.23916,0.30802,0.071883
846,0.012119,0.0065969,-0.044723,0.020564,0.3392,0.35382,0.073507
847,0.0075714,0.0049729,-0.033354,0.021213,0.40708,0.3772,0.065062
848,0.00042559,0.00042559,-0.019712,0.022837,0.45126,0.37753,0.046548
849,-0.0093186,-0.0021729,-0.007045,0.022188,0.47497,0.35739,0.025436
850,-0.020687,-0.0057458,-0.00054884,0.016341,0.47464,0.32166,0.0062721
851,-0.029782,-0.0050961,-0.00022403,0.008221,0.44963,0.28171,-0.0083442
852,-0.037252,-0.00054884,0.00010078,0.0039985,0.40676,0.2476,-0.01484
853,-0.0405,0.0072465,0.0020496,0.0056225,0.35187,0.22519,-0.012892
854,-0.038227,0.017965,0.0078962,0.0095202,0.29697,0.21252,-0.0067202
855,-0.035953,0.028359,0.016991,0.012443,0.24533,0.20538,-0.00087364
856,-0.034004,0.03518,0.031282,0.014068,0.18622,0.20018,0.0033489
857,-0.028157,0.039402,0.043625,0.014392,0.11508,0.18849,0.010819
858,-0.01614,0.042326,0.053369,0.013743,0.035505,0.16835,0.020239
859,0.00010078,0.04395,0.058566,0.011144,-0.036602,0.13814,0.029658
860,0.015692,0.043625,0.054993,0.0059473,-0.069083,0.096893,0.031607
861,0.026735,0.040377,0.049147,-0.00054884,-0.02426,0.050771,0.025436
862,0.029658,0.033556,0.0433,0.00075039,0.10729,0.0046481,0.016666
863,0.027709,0.024786,0.040702,0.009845,0.29178,-0.039851,0.0065969
864,0.023487,0.015042,0.040052,0.019589,0.46555,-0.079802,-0.0037969
865,0.022512,0.0075714,0.0433,0.023162,0.56494,-0.11521,-0.013866
866,0.02706,0.0043233,0.051745,0.01829,0.55227,-0.14509,-0.019712
867,0.034206,0.008221,0.067011,0.008221,0.4204,-0.16977,-0.020037
868,0.040702,0.01764,0.081627,0.00075039,0.19239,-0.19056,-0.019388
869,0.044275,0.027385,0.090722,-0.00087364,-0.091495,-0.21557,-0.02361
870,0.0433,0.036154,0.093321,0.0023744,-0.3809,-0.24415,-0.033679
871,0.039078,0.037454,0.091372,0.0059473,-0.61281,-0.26981,-0.045697
872,0.033231,0.033231,0.084226,0.0065969,-0.73559,-0.28248,-0.054792
873,0.025761,0.024786,0.069934,0.00010078,-0.71837,-0.27761,-0.059339
874,0.017316,0.015367,0.053369,-0.01614,-0.58098,-0.26169,-0.057065
875,0.0091954,0.0062721,0.041351,-0.038876,-0.3848,-0.23733,-0.050569
876,0.0043233,0.00075039,0.039402,-0.062587,-0.20713,-0.2068,-0.046347
877,0.003024,0.00010078,0.045574,-0.079802,-0.097666,-0.17627,-0.048945
878,0.0036737,0.0056225,0.05142,-0.085648,-0.071357,-0.15288,-0.05739
879,0.0062721,0.015042,0.048172,-0.079477,-0.10221,-0.13697,-0.064861
880,0.0078962,0.020888,0.040377,-0.06616,-0.14964,-0.12722,-0.067459
881,0.008221,0.021863,0.041676,-0.050894,-0.16945,-0.11683,-0.059664
882,0.008221,0.018615,0.064737,-0.037252,-0.13047,-0.10286,-0.039526
883,0.01017,0.01894,0.10534,-0.026858,-0.028157,-0.086298,-0.016789
884,0.014717,0.022837,0.14724,-0.020362,0.099492,-0.068758,0.0010752
885,0.019914,0.033881,0.1729,-0.01549,0.2044,-0.04992,0.01017
886,0.021538,0.051745,0.16121,-0.0083442,0.2554,-0.036278,0.010819
887,0.020888,0.070259,0.10144,0.0017248,0.24988,-0.034004,0.0043233
888,0.016991,0.080978,0.00075039,0.011469,0.20213,-0.041475,-0.0080194
889,0.012768,0.080328,-0.1243,0.016666,0.1336,-0.056091,-0.022961
890,0.010495,0.067986,-0.24675,0.016016,0.063438,-0.069408,-0.034004
891,0.009845,0.049796,-0.3312,0.014392,0.0049729,-0.07428,-0.03303
892,0.011794,0.031932,-0.3429,0.016341,-0.041475,-0.06616,-0.023935
893,0.012119,0.014068,-0.25682,0.021538,-0.076554,-0.04927,-0.008669
894,0.0039985,-0.0044465,-0.060313,0.026085,-0.10059,-0.029457,0.0069217
895,-0.012242,-0.033354,0.21188,0.023812,-0.11943,-0.012242,0.016341
896,-0.032705,-0.079802,0.45775,0.011469,-0.14411,-0.0050961,0.016666
897,-0.050894,-0.13372,0.58378,-0.0099683,-0.18471,-0.0083442,0.011794
898,-0.061288,-0.17627,0.57566,-0.032055,-0.24773,-0.018413,0.0062721
899,-0.059664,-0.18601,0.48406,-0.051219,-0.32601,-0.024585,0.0059473
900,-0.048296,-0.1597,0.37785,-0.063237,-0.39746,-0.019712,0.011144
901,-0.032705,-0.10384,0.30055,-0.059339,-0.43969,-0.0054209,0.015692
902,-0.017439,-0.032055,0.26482,-0.041799,-0.44456,0.012768,0.01829
903,-0.0018481,0.041676,0.25897,-0.018738,-0.4163,0.029983,0.01894
904,0.013743,0.10826,0.26384,0.0049729,-0.37083,0.041676,0.01894
905,0.023487,0.16283,0.2606,0.025436,-0.32178,0.049796,0.018615
906,0.024137,0.20148,0.23851,0.04395,-0.27339,0.054344,0.016341
907,0.020239,0.22519,0.20278,0.054993,-0.22109,0.058566,0.011469
908,0.01764,0.23883,0.16478,0.060515,-0.1649,0.062789,0.0078962
909,0.016991,0.24436,0.13652,0.060515,-0.10806,0.066037,0.0072465
910,0.020564,0.23981,0.12807,0.054993,-0.054792,0.06961,0.012768
911,0.029658,0.22422,0.1336,0.046548,-0.0083442,0.06896,0.02641
912,0.039727,0.19921,0.14756,0.038103,0.028684,0.063113,0.04395
913,0.044599,0.16478,0.18264,0.035505,0.050771,0.054993,0.060515
914,0.039402,0.12093,0.24728,0.044599,0.056617,0.052395,0.073832
915,0.029658,0.066362,0.31581,0.061814,0.054019,0.060515,0.080328
916,0.01894,0.0059473,0.34472,0.081627,0.054993,0.076431,0.081627
917,0.011469,-0.057715,0.3051,0.095919,0.064737,0.091372,0.079029
918,0.0039985,-0.1191,0.19661,0.10079,0.080978,0.097543,0.076431
919,-0.0047713,-0.18017,0.040377,0.096569,0.094945,0.10112,0.074806
920,-0.017114,-0.24578,-0.13177,0.0852,0.10956,0.10404,0.075456
921,-0.032705,-0.31756,-0.28313,0.072533,0.1323,0.10891,0.078055
922,-0.046347,-0.38447,-0.3822,0.062464,0.16348,0.11248,0.082277
923,-0.057065,-0.4267,-0.41663,0.054668,0.19726,0.11281,0.083901
924,-0.063237,-0.42475,-0.39681,0.046548,0.22682,0.10664,0.080003
925,-0.065186,-0.37603,-0.34452,0.038428,0.2515,0.092346,0.073507
926,-0.061613,-0.2945,-0.28638,0.029658,0.28528,0.06961,0.066037
927,-0.055766,-0.20128,-0.24091,0.022512,0.33465,0.042001,0.056292
928,-0.051219,-0.11878,-0.21817,0.016991,0.39312,0.014392,0.041351
929,-0.047646,-0.055441,-0.21167,0.014068,0.4204,-0.0083442,0.025761
930,-0.041799,-0.01484,-0.20713,0.011794,0.3405,-0.025559,0.012443
931,-0.034329,0.0069217,-0.19576,0.008221,0.10989,-0.041799,0.00042559
932,-0.026858,0.01764,-0.18277,0.0075714,-0.23798,-0.062912,-0.011917
933,-0.022636,0.025436,-0.16945,0.01017,-0.59007,-0.088572,-0.020362
934,-0.022311,0.033881,-0.16035,0.014717,-0.8064,-0.11683,-0.022636
935,-0.023935,0.045574,-0.15711,0.017965,-0.80282,-0.13697,-0.019388
936,-0.023935,0.057267,-0.15873,0.021538,-0.59884,-0.14411,-0.015165
937,-0.021012,0.067011,-0.15873,0.026085,-0.288,-0.13534,-0.014191
938,-0.018738,0.070259,-0.15288,0.029658,0.014068,-0.11553,-0.019388
939,-0.019712,0.067986,-0.14249,0.033556,0.22487,-0.090845,-0.026533
940,-0.019712,0.063763,-0.13047,0.036804,0.31581,-0.070707,-0.03173
941,-0.018738,0.062789,-0.11683,0.036154,0.30282,-0.060638,-0.033679
942,-0.011592,0.067661,-0.10449,0.030308,0.22292,-0.064211,-0.034978
943,0.0017248,0.073507,-0.094743,0.018615,0.10924,-0.073955,-0.034654
944,0.01894,0.076755,-0.088572,0.0039985,-0.008669,-0.080776,-0.033354
945,0.033881,0.074482,-0.081426,-0.0080194,-0.11845,-0.082076,-0.028482
946,0.038103,0.06831,-0.075255,-0.01549,-0.21362,-0.079152,-0.021337
947,0.032582,0.058891,-0.074605,-0.01614,-0.28735,-0.076879,-0.013866
948,0.020888,0.049796,-0.080127,-0.0093186,-0.3351,-0.079802,-0.0076946
949,0.0095202,0.044599,-0.086623,0.00075039,-0.35686,-0.084999,-0.0044465
950,0.0010752,0.045249,-0.085324,0.0088706,-0.35524,-0.090521,-0.0044465
951,-0.0034721,0.05272,-0.077853,0.016991,-0.3312,-0.095068,-0.0028225
952,-0.0041217,0.063763,-0.068758,0.026085,-0.28216,-0.095717,-0.00054884
953,-0.00087364,0.072858,-0.060963,0.035505,-0.20745,-0.089871,0.00010078
954,0.0069217,0.076755,-0.055116,0.04395,-0.10806,-0.080776,-0.0021729
955,0.015042,0.075456,-0.051219,0.048497,0.016341,-0.072656,-0.0067202
956,0.022837,0.071234,-0.04927,0.048172,0.1651,-0.068434,-0.012892
957,0.02641,0.067011,-0.045697,0.044275,0.33335,-0.067134,-0.016464
958,0.026735,0.066037,-0.041475,0.042326,0.50323,-0.062912,-0.01549
959,0.027385,0.067661,-0.038551,0.045249,0.65264,-0.052518,-0.008669
960,0.030308,0.069934,-0.030431,0.053369,0.76307,-0.037902,0.0033489
961,0.030308,0.074806,-0.0015233,0.06084,0.81829,-0.021661,0.012768
962,0.028684,0.081952,0.054344,0.061814,0.79653,-0.0037969,0.015367
963,0.026085,0.087149,0.12385,0.057267,0.67603,0.019589,0.0078962
964,0.023162,0.088773,0.18784,0.046548,0.45548,0.045899,-0.0044465
965,0.018615,0.083576,0.23039,0.030308,0.16121,0.066362,-0.015815
966,0.015692,0.073182,0.24436,0.011469,-0.16847,0.069285,-0.020687
967,0.013093,0.06019,0.22779,-0.010293,-0.46795,0.055968,-0.022311
968,0.01017,0.046548,0.18784,-0.032055,-0.67972,0.03518,-0.026209
969,0.008221,0.033556,0.13749,-0.048296,-0.78333,0.014392,-0.035303
970,0.0078962,0.02641,0.084551,-0.054467,-0.79893,-0.0021729,-0.043423
971,0.0065969,0.027709,0.028359,-0.051868,-0.76287,-0.01484,-0.046347
972,0.0036737,0.033556,-0.040175,-0.045047,-0.70895,-0.023935,-0.044073
973,-0.00022403,0.038428,-0.12138,-0.038551,-0.62775,-0.024909,-0.037902
974,-0.00054884,0.037454,-0.21135,-0.035953,-0.48159,-0.016789,-0.029457
975,0.0017248,0.02706,-0.32081,-0.044723,-0.24643,-0.0015233,-0.024909
976,0.0026992,0.0049729,-0.47249,-0.06551,0.055968,0.015042,-0.025884
977,-0.0034721,-0.021012,-0.65926,-0.087272,0.36746,0.02641,-0.028807
978,-0.016789,-0.039526,-0.82556,-0.098641,0.62308,0.033881,-0.025884
979,-0.030431,-0.042774,-0.90027,-0.098641,0.77119,0.041027,-0.020362
980,-0.039201,-0.032055,-0.84083,-0.092145,0.7988,0.045249,-0.014516
981,-0.042774,-0.01484,-0.66575,-0.085324,0.73384,0.041676,-0.012242
982,-0.045697,0.0056225,-0.44164,-0.0824,0.62243,0.028359,-0.013866
983,-0.045372,0.024786,-0.24156,-0.082725,0.5068,0.0095202,-0.021012
984,-0.040825,0.038428,-0.10481,-0.0837,0.41001,-0.0073698,-0.027508
985,-0.033679,0.04395,-0.012242,-0.085973,0.34537,-0.013541,-0.031406
986,-0.027833,0.043625,0.09397,-0.0837,0.32588,-0.0063954,-0.030431
987,-0.026858,0.042651,0.24436,-0.075579,0.35576,0.011469,-0.022636
988,-0.030106,0.037778,0.42268,-0.061613,0.42203,0.031932,-0.0099683
989,-0.032055,0.025111,0.5919,-0.047646,0.49218,0.048172,0.0056225
990,-0.026533,0.0078962,0.71013,-0.036602,0.53246,0.05207,0.021538
991,-0.013866,-0.010293,0.75171,-0.027183,0.52142,0.047847,0.03583
992,-0.00087364,-0.025234,0.715,-0.017114,0.44509,0.042326,0.045574
993,0.01017,-0.033679,0.61918,-0.0099683,0.2999,0.036804,0.055318
994,0.014392,-0.041475,0.49608,-0.0044465,0.10859,0.034855,0.062789
995,0.0088706,-0.04862,0.37558,-0.00054884,-0.082076,0.032582,0.065062
996,0.00075039,-0.051868,0.27879,0.008221,-0.22499,0.029983,0.060515
997,-0.0018481,-0.046022,0.21155,0.017965,-0.2945,0.025436,0.053044
998,0.0052977,-0.024909,0.17225,0.024137,-0.29612,0.019589,0.045249
999,0.015042,0.011469,0.15016,0.023812,-0.2578,0.01894,0.038103
1000,0.020564,0.056617,0.13944,0.022188,-0.20843,0.021538,0.031607
1001,0.016016,0.098842,0.13262,0.025436,-0.16653,0.029009,0.024137
1002,0.0033489,0.1271,0.12905,0.033556,-0.1321,0.039727,0.018615
1003,-0.0076946,0.13555,0.12775,0.044275,-0.097991,0.052395,0.018615
1004,-0.013541,0.12255,0.12125,0.055968,-0.061288,0.06019,0.024137
1005,-0.013541,0.095594,0.10826,0.065062,-0.029457,0.059216,0.030633
1006,-0.013541,0.063763,0.087149,0.067661,-0.01549,0.053694,0.031932
1007,-0.01484,0.031607,0.061489,0.061489,-0.027508,0.042326,0.023162
1008,-0.018413,0.0059473,0.031282,0.045574,-0.062912,0.027385,0.0078962
1009,-0.023935,-0.011917,0.0023744,0.02641,-0.10709,0.0085458,-0.007045
1010,-0.026533,-0.025884,-0.026209,0.011469,-0.14509,-0.014516,-0.015165
1011,-0.026858,-0.039851,-0.059014,0.0069217,-0.16718,-0.037902,-0.018088
1012,-0.023935,-0.050894,-0.092145,0.010495,-0.17237,-0.059664,-0.017439
1013,-0.022311,-0.059989,-0.11943,0.01894,-0.16393,-0.075904,-0.017114
1014,-0.025559,-0.066485,-0.13892,0.029009,-0.14834,-0.084024,-0.020362
1015,-0.033679,-0.071357,-0.14964,0.038103,-0.13177,-0.082725,-0.029457
1016,-0.04115,-0.075255,-0.15451,0.045249,-0.1217,-0.074605,-0.0405
1017,-0.042774,-0.075255,-0.15743,0.049147,-0.1243,-0.06616,-0.050894
1018,-0.037902,-0.072006,-0.15808,0.05142,-0.13404,-0.058365,-0.055116
1019,-0.028807,-0.06616,-0.15483,0.054344,-0.14801,-0.047971,-0.052518
1020,-0.020037,-0.058365,-0.14509,0.054668,-0.15743,-0.034654,-0.045047
1021,-0.016789,-0.049595,-0.1243,0.050446,-0.16198,-0.021012,-0.035628
1022,-0.022961,-0.040825,-0.089871,0.040702,-0.16035,-0.015815,-0.025234
1023,-0.037577,-0.034004,-0.045047,0.029333,-0.15093,-0.020037,-0.019063
1024,-0.055766,-0.03303,0.011144,0.01894,-0.13047,-0.029782,-0.020037
1025,-0.071032,-0.039526,0.079029,0.010495,-0.10774,-0.039851,-0.025884
1026,-0.078503,-0.050244,0.14984,0.003024,-0.095393,-0.044398,-0.034004
1027,-0.075904,-0.059339,0.21155,-0.0031473,-0.098316,-0.043423,-0.04115
1028,-0.06616,-0.061613,0.25215,-0.0037969,-0.11261,-0.0405,-0.043423
1029,-0.055441,-0.054142,0.26709,0.003024,-0.1269,-0.03303,-0.035303
1030,-0.044723,-0.035953,0.2606,0.016991,-0.13307,-0.020362,-0.018738
1031,-0.03238,-0.010943,0.23916,0.034855,-0.12625,-0.0031473,0.003024
1032,-0.010293,0.012768,0.21252,0.049472,-0.10968,0.014068,0.02641
1033,0.019589,0.028034,0.18232,0.060515,-0.081426,0.029983,0.044275
1034,0.048822,0.032582,0.13522,0.070259,-0.049595,0.044924,0.054993
1035,0.065387,0.029333,0.062464,0.078055,-0.025234,0.058566,0.058566
1036,0.066686,0.022188,-0.023935,0.081303,-0.0099683,0.074482,0.056942
1037,0.056292,0.017316,-0.098641,0.080328,-0.0054209,0.092996,0.05142
1038,0.044599,0.01894,-0.14509,0.07773,-0.0044465,0.11248,0.045249
1039,0.039727,0.02706,-0.1597,0.07773,-0.011917,0.12255,0.040052
1040,0.044924,0.034855,-0.14671,0.078055,-0.03238,0.12093,0.03518
1041,0.053044,0.036479,-0.11748,0.076431,-0.061613,0.10794,0.029983
1042,0.060515,0.031932,-0.084999,0.06896,-0.089871,0.091372,0.021863
1043,0.064737,0.024461,-0.059989,0.056292,-0.11261,0.073832,0.013093
1044,0.063763,0.016666,-0.045047,0.038753,-0.11845,0.057592,0.0033489
1045,0.055318,0.0069217,-0.040825,0.022837,-0.10579,0.042651,-0.0047713
1046,0.04395,-0.0018481,-0.042124,0.011144,-0.078827,0.023487,-0.0080194
1047,0.033231,-0.010943,-0.044723,0.0039985,-0.043423,-0.0037969,-0.0063954
1048,0.024137,-0.017764,-0.045697,0.0010752,0.0023744,-0.041799,-0.0011985
1049,0.019264,-0.018413,-0.046347,-0.0015233,0.06831,-0.088896,0.0010752
1050,0.01894,-0.014191,-0.049595,-0.0015233,0.15731,-0.13599,-0.0028225
1051,0.023812,-0.0054209,-0.059014,-0.0015233,0.26514,-0.17432,-0.0093186
1052,0.033556,0.003024,-0.072981,0.00010078,0.37071,-0.19673,-0.010618
1053,0.046223,0.01017,-0.086623,0.00075039,0.43859,-0.20193,-0.0076946
1054,0.057267,0.014717,-0.097017,-0.00087364,0.43534,-0.19543,-0.0047713
1055,0.063438,0.016016,-0.098965,-0.0054209,0.34017,-0.18991,-0.0028225
1056,0.064737,0.016016,-0.090845,-0.010943,0.13782,-0.19901,-0.0024977
1057,0.062464,0.013093,-0.072331,-0.013216,-0.15126,-0.22402,-0.0037969
1058,0.055643,0.0056225,-0.046671,-0.011267,-0.44846,-0.2539,-0.0060706
1059,0.042651,-0.007045,-0.015165,-0.008669,-0.65731,-0.27501,-0.0096434
1060,0.028684,-0.022311,0.022837,-0.0063954,-0.71415,-0.27176,-0.015165
1061,0.015367,-0.034329,0.071558,-0.0057458,-0.61606,-0.24253,-0.021986
1062,0.0059473,-0.039526,0.13425,-0.007045,-0.41988,-0.19478,-0.022636
1063,-0.0031473,-0.030756,0.2122,-0.0093186,-0.21622,-0.14379,-0.020362
1064,-0.011267,-0.011917,0.2973,-0.012242,-0.070707,-0.10319,-0.020362
1065,-0.017439,0.0095202,0.37071,-0.018413,-0.0093186,-0.078178,-0.026209
1066,-0.017439,0.024461,0.37493,-0.027183,-0.017439,-0.063561,-0.034654
1067,-0.0093186,0.028034,0.24988,-0.040825,-0.067459,-0.051868,-0.042124
1068,0.0010752,0.019914,0.0085458,-0.061937,-0.13145,-0.037577,-0.043748
1069,0.0072465,0.0026992,-0.2552,-0.0837,-0.18471,-0.018088,-0.039201
1070,0.0059473,-0.019712,-0.42605,-0.09994,-0.20843,0.0017248,-0.030106
1071,0.0020496,-0.038551,-0.43806,-0.10319,-0.19478,0.024137,-0.017439
1072,-0.00087364,-0.048945,-0.30879,-0.095068,-0.15029,0.048172,-0.0037969
1073,0.003024,-0.045697,-0.11196,-0.077853,-0.087272,0.072858,0.0091954
1074,0.011469,-0.033679,0.071558,-0.055766,-0.025559,0.098517,0.021213
1075,0.022188,-0.017764,0.19076,-0.034978,0.022837,0.12028,0.030957
1076,0.029009,-0.0044465,0.23006,-0.020362,0.051745,0.131,0.038753
1077,0.032582,0.0023744,0.18914,-0.014191,0.059865,0.13262,0.042975
1078,0.032582,0.0010752,0.073182,-0.01549,0.053369,0.12905,0.044275
1079,0.031282,-0.0057458,-0.094418,-0.022961,0.042326,0.12645,0.043625
1080,0.028359,-0.010618,-0.26397,-0.030756,0.030633,0.1284,0.042651
1081,0.024786,-0.011592,-0.37668,-0.034978,0.017965,0.13555,0.038428
1082,0.020239,-0.0080194,-0.40234,-0.033679,0.0046481,0.14821,0.032906
1083,0.019914,-0.0031473,-0.34907,-0.024909,-0.0037969,0.16315,0.030957
1084,0.02641,0.0010752,-0.25292,-0.013541,0.0014,0.17874,0.032582
1085,0.033881,0.0078962,-0.15841,-0.0041217,0.01829,0.18979,0.03453
1086,0.039078,0.015692,-0.09117,0.0017248,0.044275,0.19661,0.03453
1087,0.038103,0.022837,-0.042774,0.0043233,0.074806,0.19563,0.035505
1088,0.030957,0.025761,0.012443,0.0033489,0.10599,0.18362,0.037129
1089,0.020564,0.026085,0.094295,-0.0037969,0.13425,0.16283,0.034855
1090,0.012443,0.025111,0.20278,-0.0096434,0.15503,0.13652,0.031607
1091,0.0052977,0.024137,0.32328,-0.0089938,0.16868,0.10891,0.029658
1092,0.00075039,0.021538,0.43145,-0.0024977,0.17745,0.085525,0.030633
1093,0.00075039,0.016666,0.50713,0.0033489,0.18134,0.067661,0.030957
1094,0.0056225,0.01017,0.53863,0.0046481,0.18232,0.054993,0.033556
1095,0.014392,0.0036737,0.52174,0.0033489,0.17939,0.048172,0.037778
1096,0.023162,-0.0037969,0.47075,0.0014,0.17615,0.044924,0.040702
1097,0.029983,-0.012567,0.40968,0.0036737,0.17387,0.042326,0.039727
1098,0.032906,-0.017439,0.35609,0.013743,0.17095,0.036804,0.034855
1099,0.033231,-0.018088,0.296,0.031282,0.16608,0.02641,0.029009
1100,0.034206,-0.017114,0.14984,0.048172,0.15666,0.010495,0.024137
1101,0.033231,-0.017439,-0.19933,0.060515,0.13587,-0.0083442,0.019589
1102,0.027385,-0.021337,-0.73461,0.068635,0.10339,-0.026209,0.013418
1103,0.012443,-0.022961,-1.2754,0.074157,0.066037,-0.042449,0.0065969
1104,-0.0089938,-0.017439,-1.6148,0.078379,0.031932,-0.055116,0.0023744
1105,-0.031081,-0.0037969,-1.6428,0.080003,0.0020496,-0.061937,0.0020496
1106,-0.050894,0.011794,-1.3826,0.081952,-0.034978,-0.06616,0.0069217
1107,-0.065186,0.025436,-0.96165,0.085525,-0.10156,-0.070058,0.014717
1108,-0.072331,0.029333,-0.53031,0.088773,-0.2107,-0.07493,0.020888
1109,-0.072656,0.024137,-0.20875,0.090072,-0.34452,-0.082076,0.022188
1110,-0.067459,0.015042,-0.043748,0.090397,-0.45593,-0.086948,0.016991
1111,-0.054467,0.0075714,-0.012567,0.0865,-0.49783,-0.084674,0.014717
1112,-0.039201,0.0095202,-0.050244,0.081303,-0.44586,-0.073631,0.015692
1113,-0.025559,0.01829,-0.095393,0.073182,-0.31399,-0.061937,0.01829
1114,-0.017764,0.033231,-0.11261,0.067986,-0.14769,-0.055116,0.019914
1115,-0.014191,0.048172,-0.090196,0.067011,0.0056225,-0.058689,0.021538
1116,-0.0076946,0.059216,-0.034004,0.070584,0.11216,-0.069408,0.022512
1117,0.0017248,0.064413,0.032257,0.070584,0.15536,-0.0824,0.022837
1118,0.012443,0.067011,0.093321,0.063113,0.14432,-0.090521,0.021538
1119,0.020564,0.067986,0.16348,0.047847,0.096569,-0.089221,0.021863
1120,0.020564,0.064413,0.27456,0.028034,0.024786,-0.079802,0.022837
1121,0.013093,0.053044,0.42462,0.011144,-0.059989,-0.064211,0.022188
1122,0.003024,0.03518,0.56592,0.0010752,-0.14671,-0.046022,0.01764
1123,-0.00054884,0.01829,0.64387,-0.0031473,-0.22012,-0.028157,0.014717
1124,0.0069217,0.0091954,0.64322,-0.0044465,-0.26527,-0.012567,0.016016
1125,0.021863,0.0069217,0.5906,-0.0037969,-0.25747,-0.0031473,0.016991
1126,0.037454,0.0036737,0.53408,-0.0054209,-0.17205,-0.0031473,0.014717
1127,0.046873,-0.0028225,0.51135,-0.011592,-0.0050961,-0.0093186,0.0059473
1128,0.044599,-0.01549,0.52337,-0.020362,0.2109,-0.020037,-0.0057458
1129,0.036804,-0.030431,0.54383,-0.024909,0.41163,-0.029782,-0.017439
1130,0.029983,-0.0405,0.53798,-0.020362,0.53506,-0.034004,-0.025559
1131,0.027385,-0.038227,0.48601,-0.0083442,0.54285,-0.030756,-0.026533
1132,0.033881,-0.022961,0.39572,0.0052977,0.43404,-0.021337,-0.021337
1133,0.044599,0.003024,0.28885,0.014068,0.24273,-0.0073698,-0.014191
1134,0.054344,0.028359,0.18622,0.016341,0.024137,0.0072465,-0.0054209
1135,0.057917,0.046223,0.10599,0.013093,-0.16555,0.022512,0.0039985
1136,0.053044,0.054344,0.054019,0.0069217,-0.28573,0.038753,0.013093
1137,0.041676,0.054019,0.02641,-0.00087364,-0.33283,0.054344,0.01894
1138,0.029658,0.049147,0.015692,-0.0063954,-0.31821,0.065062,0.016666
1139,0.022188,0.0433,0.017965,-0.0089938,-0.26267,0.064088,0.012768
1140,0.021538,0.041351,0.024137,-0.010293,-0.17854,0.051745,0.013093
1141,0.024461,0.043625,0.029009,-0.0093186,-0.077853,0.03453,0.018615
1142,0.023487,0.047523,0.02706,-0.0076946,0.021863,0.022188,0.025761
1143,0.015367,0.044924,0.016991,-0.0099683,0.094945,0.016666,0.034206
1144,0.0023744,0.034206,-0.00054884,-0.018088,0.13652,0.017316,0.042975
1145,-0.007045,0.01894,-0.02361,-0.027833,0.16153,0.022837,0.051096
1146,-0.011917,0.0043233,-0.046347,-0.035628,0.17712,0.031282,0.053369
1147,-0.013541,-0.0037969,-0.064536,-0.038227,0.19693,0.041027,0.048497
1148,-0.013866,-0.0054209,-0.075255,-0.03303,0.23656,0.048822,0.03518
1149,-0.016464,-0.0015233,-0.075904,-0.023935,0.29308,0.051745,0.016341
1150,-0.021012,0.0059473,-0.06681,-0.015165,0.34375,0.045574,-0.0015233
1151,-0.02426,0.015367,-0.053492,-0.010618,0.36324,0.032257,-0.011592
1152,-0.02426,0.024137,-0.047971,-0.0099683,0.3392,0.01829,-0.015815
1153,-0.020362,0.028359,-0.04927,-0.0099683,0.27651,0.0095202,-0.017439
1154,-0.01614,0.025436,-0.057065,-0.010943,0.19044,0.0056225,-0.021337
1155,-0.013866,0.01829,-0.071357,-0.010943,0.10566,0.0072465,-0.030106
1156,-0.012892,0.012443,-0.084674,-0.0093186,0.039727,0.016666,-0.039201
1157,-0.0067202,0.0091954,-0.094093,-0.008669,-0.0041217,0.030308,-0.040825
1158,0.0059473,0.011144,-0.096692,-0.0093186,-0.027183,0.044924,-0.035628
1159,0.01829,0.017316,-0.093444,-0.012567,-0.034654,0.057917,-0.027183
1160,0.02641,0.026735,-0.084349,-0.013216,-0.032055,0.067661,-0.022636
1161,0.029333,0.037778,-0.073306,-0.0083442,-0.021986,0.075456,-0.021012
1162,0.029983,0.049472,-0.059339,0.0023744,0.0033489,0.080328,-0.019712
1163,0.031607,0.06019,-0.044723,0.014717,0.0433,0.078379,-0.019712
1164,0.034206,0.064737,-0.031406,0.022837,0.088448,0.064413,-0.021337
1165,0.033881,0.06084,-0.023935,0.019264,0.12548,0.038428,-0.02361
1166,0.027385,0.049796,-0.021337,0.0010752,0.15503,0.0039985,-0.028157
1167,0.013093,0.037129,-0.021337,-0.026858,0.18589,-0.030756,-0.032705
1168,-0.0037969,0.023162,-0.026533,-0.056416,0.22747,-0.060638,-0.036927
1169,-0.021661,0.0088706,-0.035628,-0.077853,0.27749,-0.080127,-0.038551
1170,-0.035953,-0.0031473,-0.045372,-0.0837,0.32946,-0.093119,-0.039851
1171,-0.043423,-0.0093186,-0.033354,-0.07428,0.35901,-0.099615,-0.037577
1172,-0.042124,-0.007045,0.023487,-0.053168,0.33725,-0.10481,-0.033679
1173,-0.03238,0.0049729,0.12775,-0.025884,0.25345,-0.11131,-0.03303
1174,-0.023935,0.019914,0.25507,-0.00054884,0.12937,-0.11521,-0.035628
1175,-0.020687,0.031932,0.36941,0.01894,-0.0034721,-0.11163,-0.041799
1176,-0.02426,0.037778,0.44281,0.033881,-0.11098,-0.097017,-0.047321
1177,-0.029132,0.038103,0.45808,0.042975,-0.17984,-0.070058,-0.04992
1178,-0.030106,0.03453,0.41131,0.045574,-0.21395,-0.032705,-0.048296
1179,-0.02426,0.02706,0.31809,0.045574,-0.21914,0.0072465,-0.043748
1180,-0.013541,0.017316,0.19953,0.04395,-0.2055,0.038753,-0.036278
1181,0.00010078,0.011469,0.071558,0.044275,-0.19056,0.054344,-0.025884
1182,0.009845,0.010495,-0.058365,0.045899,-0.19186,0.053694,-0.015815
1183,0.009845,0.011469,-0.18666,0.044599,-0.21785,0.040052,-0.0060706
1184,0.00042559,0.011469,-0.30522,0.039078,-0.26397,0.021213,-0.0011985
1185,-0.012567,0.0095202,-0.40688,0.026735,-0.31334,0.0049729,-0.0034721
1186,-0.021661,0.0036737,-0.51959,0.0069217,-0.35134,-0.0034721,-0.011917
1187,-0.025559,-0.0067202,-0.68817,-0.020037,-0.3744,-0.0067202,-0.02361
1188,-0.021661,-0.021012,-0.89962,-0.048945,-0.37992,-0.0076946,-0.034329
1189,-0.012567,-0.032055,-1.0718,-0.071682,-0.37278,-0.0096434,-0.037577
1190,-0.0057458,-0.034978,-1.1117,-0.079802,-0.35914,-0.015165,-0.035303
1191,-0.0037969,-0.025234,-0.98472,-0.068758,-0.34549,-0.022636,-0.029782
1192,-0.0067202,-0.00054884,-0.73656,-0.04115,-0.3325,-0.030431,-0.021661
1193,-0.011592,0.036479,-0.46145,-0.0076946,-0.31269,-0.035303,-0.013866
1194,-0.018088,0.080003,-0.24188,0.022837,-0.28313,-0.039526,-0.0067202
1195,-0.021337,0.11995,-0.10091,0.046548,-0.24513,-0.046022,0.0010752
1196,-0.020362,0.14886,0.013418,0.063113,-0.20388,-0.054142,0.010495
1197,-0.016789,0.16543,0.16185,0.072208,-0.16328,-0.059989,0.018615
1198,-0.011592,0.17192,0.35024,0.078704,-0.13112,-0.061288,0.023812
1199,-0.0047713,0.16835,0.54805,0.0852,-0.11098,-0.057715,0.026085
1200,0.0033489,0.15861,0.71013,0.091696,-0.10351,-0.050894,0.027385
1201,0.009845,0.13977,0.79198,0.09462,-0.10871,-0.042449,0.031607
1202,0.012119,0.11281,0.77931,0.093645,-0.12625,-0.03173,0.037129
1203,0.013743,0.083251,0.68447,0.088448,-0.161,-0.019388,0.041676
1204,0.013093,0.057592,0.53766,0.079029,-0.22077,-0.011917,0.047847
1205,0.0062721,0.035505,0.37655,0.067011,-0.30392,-0.013541,0.056617
1206,-0.0057458,0.014068,0.23689,0.054668,-0.3861,-0.023935,0.064737
1207,-0.017764,-0.010943,0.13295,0.045899,-0.44196,-0.035953,0.068635
1208,-0.025559,-0.0405,0.063438,0.044275,-0.44976,-0.040825,0.067661
1209,-0.027508,-0.078178,0.015042,0.047523,-0.40363,-0.037577,0.061814
1210,-0.027833,-0.1282,-0.024585,0.051096,-0.31821,-0.030431,0.055318
1211,-0.027183,-0.19738,-0.062262,0.048497,-0.21622,-0.023285,0.048822
1212,-0.031406,-0.27988,-0.093769,0.039402,-0.11943,-0.019712,0.041351
1213,-0.038551,-0.35654,-0.10936,0.024786,-0.037902,-0.025884,0.034206
1214,-0.042774,-0.40234,-0.10189,0.0088706,0.024137,-0.04115,0.025761
1215,-0.042124,-0.40201,-0.075904,-0.0034721,0.070909,-0.060963,0.016666
1216,-0.0405,-0.35654,-0.044723,-0.0093186,0.10794,-0.075579,0.011469
1217,-0.043748,-0.27988,-0.020687,-0.0057458,0.14367,-0.078503,0.013743
1218,-0.045047,-0.19381,-0.0050961,0.0033489,0.18329,-0.066485,0.020564
1219,-0.039851,-0.11651,-0.00022403,0.011794,0.22877,-0.043099,0.026735
1220,-0.026533,-0.056741,-0.0047713,0.015042,0.28008,-0.014191,0.029983
1221,-0.0089938,-0.017439,-0.020362,0.016016,0.33335,0.013418,0.029333
1222,0.0052977,0.0043233,-0.041799,0.016666,0.38142,0.034206,0.025436
1223,0.010495,0.012443,-0.056416,0.01829,0.41878,0.044599,0.019914
1224,0.0043233,0.012768,-0.059014,0.021863,0.44379,0.045899,0.010495
1225,-0.0093186,0.013093,-0.051868,0.023162,0.45775,0.039727,0.00042559
1226,-0.025559,0.016991,-0.043099,0.021213,0.46133,0.029658,-0.0057458
1227,-0.036927,0.025436,-0.036927,0.017965,0.45483,0.014717,-0.0054209
1228,-0.034004,0.033556,-0.035303,0.016666,0.43567,-0.0041217,-0.0028225
1229,-0.022961,0.041351,-0.034978,0.020888,0.39961,-0.026209,0.00075039
1230,-0.011592,0.046223,-0.03173,0.027385,0.347,-0.047321,0.0046481
1231,-0.0047713,0.046223,-0.028157,0.033556,0.28756,-0.065186,0.0088706
1232,-0.0037969,0.042651,-0.027508,0.03583,0.23948,-0.075579,0.015042
1233,-0.0047713,0.039078,-0.029782,0.034855,0.22194,-0.079477,0.022837
1234,0.00042559,0.036479,-0.032705,0.032257,0.23883,-0.080127,0.031607
1235,0.012119,0.032906,-0.034654,0.028359,0.27554,-0.078178,0.038428
1236,0.025761,0.026085,-0.043423,0.026085,0.31029,-0.072331,0.040052
1237,0.038753,0.01894,-0.067459,0.021863,0.32134,-0.066485,0.03453
1238,0.049472,0.011144,-0.10579,0.0095202,0.28593,-0.068109,0.021863
1239,0.053694,0.0020496,-0.15353,-0.011592,0.19044,-0.083375,0.0065969
1240,0.05272,-0.0063954,-0.19901,-0.033679,0.03453,-0.11358,-0.0037969
1241,0.042001,-0.010943,-0.23214,-0.047646,-0.15353,-0.15061,-0.0096434
1242,0.024137,-0.014516,-0.24643,-0.049595,-0.32698,-0.18731,-0.014516
1243,0.0088706,-0.01549,-0.24448,-0.046671,-0.43871,-0.21427,-0.019712
1244,0.0026992,-0.011917,-0.23376,-0.044073,-0.46827,-0.22272,-0.021661
1245,0.0033489,-0.0041217,-0.22272,-0.042774,-0.41988,-0.21167,-0.017439
1246,0.0088706,0.0069217,-0.21817,-0.037252,-0.32178,-0.18179,-0.0089938
1247,0.019264,0.021538,-0.22109,-0.026209,-0.2068,-0.13632,0.00042559
1248,0.030633,0.03583,-0.22954,-0.0096434,-0.10351,-0.084024,0.0059473
1249,0.034855,0.051096,-0.23246,0.008221,-0.018738,-0.036602,0.009845
1250,0.030308,0.063438,-0.21395,0.022512,0.058566,0.0010752,0.01017
1251,0.021213,0.075781,-0.16035,0.030957,0.13782,0.02706,0.0026992
1252,0.01017,0.08585,-0.075579,0.032582,0.2122,0.040377,-0.011267
1253,0.0049729,0.092996,0.028359,0.028034,0.27326,0.045899,-0.023935
1254,0.0062721,0.097543,0.13717,0.018615,0.31516,0.051096,-0.028482
1255,0.010819,0.098517,0.23656,0.009845,0.3366,0.056942,-0.024585
1256,0.016016,0.097868,0.32296,0.0033489,0.3366,0.057267,-0.019712
1257,0.020564,0.092996,0.4282,-0.0015233,0.31386,0.050446,-0.019063
1258,0.022188,0.075131,0.5893,-0.0034721,0.26677,0.041676,-0.020362
1259,0.01764,0.041027,0.80692,-0.0063954,0.19011,0.03518,-0.019712
1260,0.0088706,-0.0028225,1.0307,-0.011267,0.082277,0.029983,-0.016464
1261,0.0036737,-0.039526,1.1801,-0.014516,-0.055766,0.023487,-0.011267
1262,0.0026992,-0.05804,1.1814,-0.010943,-0.21882,0.015367,-0.0060706
1263,0.0062721,-0.056741,0.99629,-0.0031473,-0.39941,0.0088706,-0.0057458
1264,0.0072465,-0.043748,0.65296,0.0078962,-0.5826,0.0062721,-0.010293
1265,0.0072465,-0.030106,0.24176,0.01829,-0.74631,0.0059473,-0.016464
1266,0.0062721,-0.016789,-0.12365,0.024786,-0.86843,0.0043233,-0.019063
1267,0.0046481,-0.0076946,-0.36173,0.02706,-0.93177,-0.0018481,-0.018088
1268,0.003024,-0.0031473,-0.4543,0.023812,-0.93307,-0.0099683,-0.017764
1269,0.0033489,-0.0011985,-0.43547,0.014392,-0.88013,-0.019712,-0.015815
1270,0.0020496,-0.00087364,-0.36076,-0.00054884,-0.78691,-0.032055,-0.015165
1271,0.0014,-0.0015233,-0.27761,-0.019063,-0.64627,-0.045372,-0.020362
1272,0.0020496,-0.0015233,-0.2159,-0.04115,-0.43969,-0.052843,-0.029457
1273,0.0043233,0.0020496,-0.18504,-0.064211,-0.17172,-0.053492,-0.038551
1274,0.0059473,0.0088706,-0.18147,-0.080776,0.11703,-0.044073,-0.046671
1275,0.0039985,0.015042,-0.18926,-0.086298,0.36941,-0.022961,-0.050894
1276,0.00042559,0.022512,-0.19251,-0.081751,0.54285,0.0085458,-0.044073
1277,-0.0047713,0.029658,-0.18309,-0.072331,0.61951,0.048172,-0.027508
1278,-0.011592,0.033881,-0.16425,-0.05804,0.62146,0.091372,-0.0093186
1279,-0.017764,0.035505,-0.14314,-0.041799,0.59125,0.13067,0.0062721
1280,-0.020362,0.03518,-0.1243,-0.025884,0.56494,0.15731,0.016016
1281,-0.018738,0.032257,-0.10903,-0.01614,0.54903,0.1651,0.022837
1282,-0.013541,0.029009,-0.098316,-0.013216,0.5159,0.15309,0.027385
1283,-0.0073698,0.026085,-0.093769,-0.013866,0.42917,0.12872,0.029333
1284,-0.0047713,0.023162,-0.095068,-0.017114,0.28918,0.099167,0.029658
1285,-0.0063954,0.020888,-0.097017,-0.020037,0.14886,0.074806,0.029009
1286,-0.0057458,0.016991,-0.09994,-0.020362,0.062139,0.063438,0.028684
1287,-0.00054884,0.013418,-0.10319,-0.020037,0.045574,0.06961,0.028034
1288,0.0056225,0.012443,-0.10579,-0.015815,0.075781,0.092996,0.023812
1289,0.0088706,0.012119,-0.10838,-0.0044465,0.11086,0.12353,0.015042
1290,0.0091954,0.013418,-0.11066,0.0088706,0.11411,0.15179,0.0043233
1291,0.0072465,0.016341,-0.11228,0.016341,0.067661,0.16933,-0.0054209
1292,0.003024,0.019589,-0.11261,0.014068,-0.019063,0.17225,-0.013541
1293,0.0014,0.020564,-0.11196,0.0062721,-0.12073,0.16445,-0.019388
1294,0.0043233,0.021863,-0.10903,0.0014,-0.20193,0.15471,-0.021012
1295,0.008221,0.025761,-0.10384,0.0056225,-0.24156,0.14529,-0.014191
1296,0.011144,0.031932,-0.095393,0.019914,-0.23571,0.1336,-0.0024977
1297,0.010495,0.037454,-0.080776,0.037778,-0.20193,0.11866,0.0088706
1298,0.008221,0.040052,-0.062912,0.053369,-0.16685,0.10014,0.017965
1299,0.0046481,0.040052,-0.044073,0.06084,-0.15386,0.080653,0.022188
1300,0.0026992,0.038753,-0.031406,0.059216,-0.16912,0.060515,0.025761
1301,0.0065969,0.034855,-0.026209,0.055643,-0.2042,0.041351,0.029333
1302,0.012443,0.030957,-0.02426,0.050446,-0.2448,0.026735,0.034206
1303,0.015042,0.028359,-0.019063,0.0433,-0.27761,0.016016,0.040377
1304,0.009845,0.027709,-0.011592,0.033881,-0.29385,0.0085458,0.047847
1305,-0.0028225,0.02706,-0.0067202,0.029983,-0.28476,0.0026992,0.05207
1306,-0.01484,0.023812,-0.0063954,0.032582,-0.24545,-0.0041217,0.05272
1307,-0.017439,0.019589,-0.0083442,0.039402,-0.17594,-0.010943,0.05207
1308,-0.0073698,0.015692,-0.011267,0.046548,-0.088572,-0.017764,0.051745
1309,0.011794,0.014068,-0.015165,0.05142,-0.0080194,-0.018738,0.053369
1310,0.030633,0.01829,-0.017764,0.051096,0.045249,-0.010293,0.053044
1311,0.042975,0.027709,-0.016789,0.049796,0.067986,0.0023744,0.049147
1312,0.050446,0.039727,-0.011592,0.049796,0.070584,0.013093,0.045574
1313,0.052395,0.05142,-0.0073698,0.053044,0.069934,0.017316,0.044275
1314,0.044924,0.055643,-0.0041217,0.057917,0.079354,0.01894,0.045574
1315,0.034855,0.052395,-0.0015233,0.066362,0.10242,0.018615,0.047198
1316,0.028034,0.045249,0.0033489,0.072858,0.13425,0.012443,0.047198
1317,0.025436,0.038753,0.008221,0.072858,0.1677,-0.00087364,0.042975
1318,0.02641,0.034855,0.011144,0.063438,0.19401,-0.01549,0.034855
1319,0.025761,0.030633,0.012768,0.047198,0.207,-0.025559,0.024461
1320,0.020239,0.024786,0.013418,0.028034,0.2122,-0.029457,0.015042
1321,0.0091954,0.016341,0.0095202,0.011469,0.21285,-0.031081,0.01017
1322,-0.0076946,0.0039985,-0.00054884,-0.0028225,0.21025,-0.031081,0.012768
1323,-0.027183,-0.0076946,-0.0096434,-0.01484,0.20538,-0.030431,0.020888
1324,-0.042449,-0.012567,-0.012242,-0.019063,0.19336,-0.028807,0.034855
1325,-0.045697,-0.0089938,-0.0050961,-0.012892,0.16738,-0.029132,0.047847
1326,-0.036278,0.0017248,0.0085458,-0.0018481,0.1232,-0.03303,0.053044
1327,-0.021661,0.012443,0.023162,0.0085458,0.059216,-0.04115,0.050771
1328,-0.008669,0.018615,0.036479,0.015042,-0.014516,-0.055766,0.046873
1329,-0.0011985,0.019914,0.050446,0.020888,-0.086298,-0.075904,0.044599
1330,0.0017248,0.019589,0.061165,0.027709,-0.14411,-0.094743,0.046223
1331,0.0023744,0.021863,0.067336,0.029658,-0.17854,-0.11033,0.05272
1332,0.0036737,0.025111,0.065387,0.028684,-0.19056,-0.123,0.060515
1333,0.0052977,0.027709,0.056617,0.025761,-0.17627,-0.13145,0.065712
1334,0.010819,0.027709,0.044924,0.026735,-0.13307,-0.14087,0.067986
1335,0.01894,0.025761,0.037454,0.033881,-0.060313,-0.14931,0.067011
1336,0.025111,0.022837,0.035505,0.044924,0.028684,-0.15223,0.063438
1337,0.02641,0.019589,0.041027,0.05207,0.11898,-0.14541,0.057917
1338,0.025761,0.015692,0.047847,0.054668,0.19921,-0.1334,0.051745
1339,0.028684,0.0085458,0.050771,0.05142,0.26709,-0.12203,0.042001
1340,0.031932,0.0023744,0.0433,0.044924,0.31679,-0.11326,0.031607
1341,0.032906,-0.0015233,0.026735,0.041676,0.32978,-0.10676,0.019589
1342,0.029333,-0.0041217,0.0017248,0.044275,0.29243,-0.098316,0.0046481
1343,0.021863,-0.0093186,-0.026533,0.049472,0.21935,-0.086623,-0.014516
1344,0.014068,-0.016464,-0.054792,0.056292,0.14626,-0.066485,-0.032705
1345,0.0091954,-0.027508,-0.078178,0.058241,0.10924,-0.034978,-0.043423
1346,0.0078962,-0.042449,-0.098641,0.052395,0.14107,0.010819,-0.045047
1347,0.010495,-0.059014,-0.11553,0.039727,0.23429,0.065387,-0.044398
1348,0.015367,-0.072006,-0.1295,0.021863,0.33011,0.11801,-0.047321
1349,0.016341,-0.081751,-0.13924,0.0014,0.35609,0.15763,-0.055441
1350,0.011144,-0.087597,-0.14444,-0.019063,0.26482,0.18362,-0.065835
1351,0.0014,-0.088572,-0.14249,-0.043423,0.062789,0.19921,-0.076554
1352,-0.010293,-0.085648,-0.1308,-0.069733,-0.18569,0.20278,-0.086298
1353,-0.021012,-0.078827,-0.11066,-0.098316,-0.39681,0.19693,-0.097666
1354,-0.028807,-0.068758,-0.081426,-0.12235,-0.51537,0.18589,-0.10968
1355,-0.031406,-0.056741,-0.047646,-0.13599,-0.53063,0.17387,-0.11943
1356,-0.03238,-0.046347,-0.0093186,-0.13762,-0.45885,0.15991,-0.123
1357,-0.034004,-0.042449,0.041027,-0.12657,-0.33478,0.14821,-0.12073
1358,-0.039851,-0.04862,0.10501,-0.10838,-0.20096,0.14009,-0.11391
1359,-0.04992,-0.059339,0.1716,-0.087922,-0.10319,0.1297,-0.10254
1360,-0.063561,-0.064861,0.22389,-0.070382,-0.075255,0.10956,-0.089221
1361,-0.07428,-0.058689,0.26157,-0.055766,-0.13015,0.074806,-0.077853
1362,-0.078503,-0.039851,0.30055,-0.04115,-0.26007,0.029009,-0.071682
1363,-0.075255,-0.01614,0.34927,-0.030431,-0.43774,-0.018738,-0.072331
1364,-0.06551,0.0056225,0.40676,-0.020037,-0.61703,-0.061288,-0.075579
1365,-0.04862,0.022837,0.46555,-0.0073698,-0.74793,-0.092794,-0.077528
1366,-0.029457,0.036154,0.51492,0.013418,-0.79373,-0.10644,-0.073631
1367,-0.011592,0.045899,0.54383,0.042001,-0.75345,-0.10189,-0.064536
1368,0.0020496,0.055318,0.53538,0.072208,-0.66251,-0.084674,-0.04862
1369,0.0091954,0.063763,0.47919,0.092671,-0.56961,-0.061613,-0.026533
1370,0.0052977,0.070259,0.38467,0.10047,-0.51245,-0.041475,-0.0057458
1371,-0.0021729,0.076106,0.26417,0.098842,-0.50887,-0.029457,0.0085458
1372,-0.008669,0.07708,0.13555,0.091047,-0.55759,-0.026209,0.013743
1373,-0.011917,0.070259,0.021213,0.081952,-0.63977,-0.026533,0.012119
1374,-0.011592,0.054344,-0.061937,0.071883,-0.73039,-0.027183,0.009845
1375,-0.0047713,0.029658,-0.11391,0.058241,-0.80055,-0.026209,0.0095202
1376,0.0056225,-0.00087364,-0.1623,0.041027,-0.82036,-0.028482,0.016341
1377,0.015692,-0.034978,-0.25162,0.01829,-0.75475,-0.036927,0.029658
1378,0.018615,-0.064861,-0.38804,-0.0034721,-0.58033,-0.052843,0.041676
1379,0.016991,-0.077203,-0.52219,-0.014191,-0.31431,-0.073306,0.047523
1380,0.015042,-0.059014,-0.59007,-0.0099683,-0.0060706,-0.095393,0.045574
1381,0.019589,-0.0083442,-0.57091,0.0043233,0.28853,-0.11878,0.037778
1382,0.032906,0.062464,-0.50887,0.016341,0.52596,-0.14411,0.025111
1383,0.049147,0.12937,-0.46827,0.019589,0.69292,-0.17075,0.013743
1384,0.057267,0.17225,-0.46762,0.015692,0.79198,-0.19576,0.0072465
1385,0.051096,0.18264,-0.48126,0.0095202,0.82154,-0.21362,0.0036737
1386,0.034206,0.1638,-0.46665,0.0026992,0.78516,-0.22402,-0.0021729
1387,0.016016,0.1271,-0.40136,-0.0067202,0.71338,-0.23051,-0.0099683
1388,0.0056225,0.087149,-0.28995,-0.01549,0.65881,-0.23181,-0.01484
1389,0.0062721,0.055968,-0.1597,-0.025234,0.66628,-0.22954,-0.01549
1390,0.013093,0.032906,-0.034978,-0.038551,0.73741,-0.22564,-0.013216
1391,0.022837,0.01764,0.080003,-0.055441,0.83356,-0.22369,-0.0096434
1392,0.032582,0.0033489,0.19888,-0.071682,0.90469,-0.22369,-0.007045
1393,0.036154,-0.017764,0.31451,-0.0837,0.92483,-0.22499,-0.0073698
1394,0.028359,-0.046347,0.38857,-0.090521,0.90177,-0.22077,-0.0099683
1395,0.0095202,-0.077528,0.39084,-0.093769,0.85369,-0.20615,-0.01549
1396,-0.012242,-0.10449,0.32101,-0.094093,0.79166,-0.18536,-0.019388
1397,-0.029782,-0.12105,0.21025,-0.088572,0.72442,-0.16523,-0.020037
1398,-0.039851,-0.1243,0.099492,-0.072331,0.65849,-0.14184,-0.015815
1399,-0.046347,-0.11651,0.015692,-0.045372,0.60067,-0.11618,-0.0073698
1400,-0.048296,-0.10026,-0.034004,-0.010943,0.55585,-0.090845,0.0033489
1401,-0.044398,-0.082076,-0.056091,0.021213,0.5146,-0.061937,0.013418
1402,-0.035303,-0.063237,-0.065186,0.042975,0.45353,-0.030431,0.024137
1403,-0.031081,-0.043748,-0.075904,0.050771,0.34862,-0.0057458,0.03453
1404,-0.034004,-0.02361,-0.092469,0.046548,0.19369,0.0072465,0.038428
1405,-0.038876,-0.0054209,-0.11293,0.034855,0.0088706,0.01017,0.036479
1406,-0.038227,0.0065969,-0.1308,0.021213,-0.1727,0.009845,0.033556
1407,-0.028482,0.011794,-0.13924,0.0049729,-0.31724,0.016016,0.030308
1408,-0.008669,0.0095202,-0.14087,-0.010618,-0.41143,0.033231,0.029658
1409,0.016991,0.0043233,-0.14119,-0.02426,-0.46372,0.057592,0.032582
1410,0.039727,-0.00087364,-0.13632,-0.034978,-0.49296,0.081627,0.03453
1411,0.05142,-0.0044465,-0.11001,-0.042774,-0.51439,0.094945,0.030633
1412,0.052395,-0.0063954,-0.045047,-0.045372,-0.53161,0.097543,0.018615
1413,0.041676,-0.012242,0.056292,-0.041475,-0.53453,0.09397,0.0043233
1414,0.023487,-0.022636,0.1651,-0.031406,-0.5066,0.08585,-0.0060706
1415,0.0036737,-0.03173,0.2463,-0.017439,-0.43904,0.076431,-0.010618
1416,-0.013541,-0.034004,0.27326,0.00042559,-0.33965,0.066037,-0.0044465
1417,-0.026858,-0.030106,0.24143,0.01894,-0.22304,0.059216,0.0062721
1418,-0.032055,-0.019388,0.16933,0.03453,-0.09994,0.060515,0.01829
1419,-0.027833,-0.0076946,0.083901,0.045249,0.019264,0.064088,0.030957
1420,-0.016464,0.003024,0.013418,0.047847,0.131,0.064088,0.041351
1421,-0.00054884,0.011144,-0.021012,0.046223,0.21967,0.054344,0.047847
1422,0.016016,0.016341,-0.019712,0.046873,0.23331,0.032257,0.049147
1423,0.030957,0.01829,0.0023744,0.052395,0.11021,-0.0011985,0.046873
1424,0.036804,0.021213,0.032906,0.06019,-0.15841,-0.036927,0.043625
1425,0.034206,0.029658,0.068635,0.069285,-0.49296,-0.06681,0.038428
1426,0.025436,0.045899,0.10891,0.072858,-0.7632,-0.084024,0.029983
1427,0.014068,0.065387,0.14854,0.06896,-0.85901,-0.082725,0.01764
1428,0.0023744,0.082277,0.18492,0.058566,-0.75118,-0.067784,0.0095202
1429,-0.0057458,0.091372,0.21382,0.047523,-0.5053,-0.045047,0.010819
1430,-0.0073698,0.091696,0.22877,0.040377,-0.22856,-0.01549,0.017316
1431,0.00075039,0.083251,0.22487,0.043625,-0.0093186,0.017965,0.024786
1432,0.014717,0.069934,0.20051,0.055318,0.11443,0.054344,0.034206
1433,0.031932,0.055968,0.16121,0.071558,0.15471,0.089098,0.041027
1434,0.043625,0.0433,0.11281,0.082927,0.14561,0.12288,0.045574
1435,0.049147,0.030633,0.062789,0.085525,0.11476,0.15471,0.048497
1436,0.049147,0.01894,0.019589,0.081952,0.080328,0.18167,0.05142
1437,0.047523,0.012443,-0.015165,0.073832,0.049472,0.20278,0.05142
1438,0.048497,0.0091954,-0.043099,0.063763,0.029009,0.2174,0.045574
1439,0.048822,0.010495,-0.062262,0.052395,0.028359,0.22649,0.037778
1440,0.050446,0.012119,-0.069408,0.040702,0.053044,0.22812,0.026085
1441,0.050121,0.013743,-0.063561,0.030308,0.10079,0.22097,0.011469
1442,0.048822,0.011144,-0.04862,0.020564,0.16575,0.207,-0.0044465
1443,0.044599,0.0043233,-0.038227,0.013093,0.23559,0.18784,-0.019388
1444,0.039727,-0.0034721,-0.036927,0.010495,0.2973,0.16673,-0.029457
1445,0.032582,-0.0080194,-0.046022,0.0088706,0.3431,0.14464,-0.034978
1446,0.026085,-0.0063954,-0.060313,0.0069217,0.36681,0.1271,-0.032055
1447,0.020239,0.00010078,-0.071032,0.0059473,0.36551,0.11248,-0.02426
1448,0.014717,0.0095202,-0.076229,0.0059473,0.33725,0.10177,-0.013866
1449,0.0065969,0.019264,-0.076229,0.0088706,0.28106,0.091696,-0.0024977
1450,-0.0047713,0.027385,-0.073955,0.015692,0.20181,0.082602,0.0075714
1451,-0.01484,0.033881,-0.072981,0.028034,0.11638,0.06961,0.016991
1452,-0.019063,0.037454,-0.076879,0.041027,0.044599,0.049472,0.025436
1453,-0.01614,0.038753,-0.088896,0.052395,-0.0047713,0.022512,0.033556
1454,-0.010618,0.041027,-0.11033,0.054993,-0.038227,-0.0028225,0.039402
1455,-0.0073698,0.04395,-0.13729,0.050121,-0.062262,-0.021012,0.042651
1456,-0.0060706,0.046223,-0.16718,0.040702,-0.078827,-0.028807,0.043625
1457,-0.0057458,0.046548,-0.19901,0.029009,-0.094743,-0.029457,0.042651
1458,-0.0024977,0.046548,-0.23376,0.016341,-0.11715,-0.030106,0.040702
1459,0.0017248,0.046548,-0.27209,0.0056225,-0.15353,-0.040175,0.036154
1460,0.0062721,0.045574,-0.31042,-0.00022403,-0.20355,-0.059989,0.029983
1461,0.009845,0.044924,-0.34614,0.00010078,-0.25845,-0.086298,0.02641
1462,0.014717,0.043625,-0.3757,0.0049729,-0.30327,-0.10838,0.028034
1463,0.020239,0.040702,-0.39941,0.011794,-0.32958,-0.1178,0.029658
1464,0.029658,0.03583,-0.40688,0.01764,-0.3351,-0.10936,0.02641
1465,0.039727,0.026735,-0.35167,0.019264,-0.32536,-0.090196,0.021863
1466,0.042651,0.013418,-0.2016,0.014068,-0.29677,-0.071032,0.023812
1467,0.036154,-0.0018481,0.022512,0.0033489,-0.24805,-0.059664,0.029983
1468,0.026085,-0.013541,0.26319,-0.0089938,-0.18244,-0.058689,0.036154
1469,0.021538,-0.02361,0.46198,-0.01614,-0.10741,-0.062587,0.042001
1470,0.02706,-0.03238,0.58021,-0.015165,-0.034004,-0.065835,0.042651
1471,0.038103,-0.038227,0.60132,-0.0073698,0.023812,-0.062262,0.038753
1472,0.044599,-0.038876,0.53668,0.0072465,0.054668,-0.048945,0.029333
1473,0.038103,-0.034654,0.4165,0.023487,0.06084,-0.033354,0.020888
1474,0.024786,-0.026209,0.27879,0.036804,0.050446,-0.020037,0.017965
1475,0.011794,-0.015815,0.16218,0.044599,0.040377,-0.012567,0.020888
1476,0.0039985,-0.0063954,0.11054,0.046873,0.041676,-0.010618,0.024786
1477,0.0010752,0.0014,0.15666,0.044275,0.054344,-0.0080194,0.029009
1478,0.0049729,0.0085458,0.2986,0.038103,0.075456,-0.0018481,0.030633
1479,0.014068,0.015042,0.48536,0.036804,0.09462,0.0065969,0.027709
1480,0.024137,0.017316,0.62828,0.037129,0.10469,0.015042,0.01764
1481,0.029333,0.01764,0.64289,0.036804,0.10209,0.022837,0.01017
1482,0.028034,0.016341,0.49868,0.029333,0.090397,0.029009,0.0056225
1483,0.019589,0.012768,0.24013,0.014717,0.074157,0.028684,0.0023744
1484,0.008221,0.0075714,-0.035953,-0.0024977,0.057267,0.023812,-0.0021729
1485,-0.0041217,0.0033489,-0.23701,-0.018413,0.038103,0.016991,-0.0080194
1486,-0.01484,0.0014,-0.32536,-0.028157,0.014068,0.012443,-0.01549
1487,-0.022311,0.00075039,-0.31789,-0.033679,-0.014516,0.015042,-0.022311
1488,-0.027833,0.0010752,-0.25325,-0.033679,-0.04992,0.025761,-0.027833
1489,-0.03303,0.0039985,-0.16945,-0.029132,-0.089221,0.039402,-0.031406
1490,-0.038227,0.0088706,-0.087922,-0.021337,-0.12852,0.050121,-0.035953
1491,-0.038876,0.014068,-0.015815,-0.010618,-0.16458,0.054668,-0.039526
1492,-0.032705,0.01894,0.046873,0.00042559,-0.20096,0.050771,-0.0405
1493,-0.023935,0.022837,0.095919,0.0091954,-0.23831,0.040702,-0.038876
1494,-0.017764,0.024137,0.11086,0.013093,-0.26332,0.031282,-0.032705
1495,-0.01549,0.020564,0.038428,0.013743,-0.26137,0.021538,-0.026858
1496,-0.01614,0.012119,-0.14444,0.012443,-0.23149,0.010495,-0.024909
1497,-0.01549,0.0014,-0.38512,0.0085458,-0.18147,-0.0054209,-0.026533
1498,-0.012567,-0.0063954,-0.58098,0.0026992,-0.1243,-0.025234,-0.03303
1499,-0.0096434,-0.0076946,-0.64594,-0.0011985,-0.079152,-0.04862,-0.039201
1500,-0.0093186,-0.0067202,-0.56247,0.003024,-0.072656,-0.072331,-0.043423
1501,-0.01614,-0.0044465,-0.38772,0.011469,-0.11326,-0.09182,-0.040175
1502,-0.030431,0.0017248,-0.20388,0.016666,-0.18179,-0.10481,-0.030756
1503,-0.046347,0.016016,-0.073631,0.014717,-0.25,-0.11488,-0.019712
1504,-0.059664,0.040052,-0.017764,0.0069217,-0.27339,-0.1243,-0.01484
1505,-0.069733,0.07773,-0.018738,-0.0050961,-0.2133,-0.13372,-0.016464
1506,-0.072656,0.12385,-0.042774,-0.020362,-0.070707,-0.13892,-0.023935
1507,-0.069408,0.169,-0.059014,-0.028482,0.11768,-0.14087,-0.031406
1508,-0.061288,0.20181,-0.048296,-0.026209,0.30087,-0.13892,-0.037577
1509,-0.052518,0.21025,-0.012242,-0.017114,0.44379,-0.13242,-0.042774
1510,-0.046671,0.19466,0.030633,-0.008669,0.52856,-0.11813,-0.045372
1511,-0.041799,0.16056,0.057592,0.00042559,0.55909,-0.095068,-0.041475
1512,-0.035953,0.1206,0.067661,0.012443,0.5539,-0.068758,-0.030756
1513,-0.028807,0.083251,0.0852,0.026085,0.52726,-0.040175,-0.01614
1514,-0.017764,0.054993,0.1297,0.039402,0.47562,-0.013541,0.00010078
1515,-0.0041217,0.032582,0.20668,0.049147,0.38565,0.010495,0.013093
1516,0.0078962,0.011469,0.31874,0.053694,0.23429,0.032257,0.01894
1517,0.012768,-0.0096434,0.45516,0.054668,0.012443,0.05207,0.016991
1518,0.0059473,-0.036602,0.59158,0.053694,-0.25585,0.072533,0.010819
1519,-0.0083442,-0.07493,0.69421,0.048497,-0.51342,0.092021,0.0056225
1520,-0.022961,-0.13047,0.73027,0.037454,-0.69564,0.10761,0.0052977
1521,-0.03303,-0.20453,0.68057,0.021538,-0.77132,0.11443,0.0056225
1522,-0.037902,-0.2919,0.55325,0.0072465,-0.74923,0.10891,0.008221
1523,-0.039201,-0.36758,0.37785,-0.0041217,-0.67095,0.09462,0.013418
1524,-0.038227,-0.40428,0.19758,-0.011592,-0.57189,0.076431,0.019264
1525,-0.035628,-0.3861,0.053369,-0.016789,-0.45268,0.06019,0.023812
1526,-0.03238,-0.31983,-0.025234,-0.022636,-0.29515,0.045574,0.024461
1527,-0.032705,-0.22791,-0.067134,-0.029132,-0.092794,0.031932,0.01829
1528,-0.034978,-0.13469,-0.18601,-0.037902,0.13977,0.022512,0.0059473
1529,-0.038876,-0.061613,-0.53486,-0.052843,0.36226,0.017965,-0.011592
1530,-0.042449,-0.019388,-1.1673,-0.076879,0.52889,0.015692,-0.029132
1531,-0.047321,-0.0031473,-1.9215,-0.10806,0.61334,0.015042,-0.0405
1532,-0.04862,-0.0021729,-2.5142,-0.13924,0.60619,0.013093,-0.042449
1533,-0.043748,-0.0073698,-2.7042,-0.15841,0.49511,0.0039985,-0.040825
1534,-0.031081,-0.019388,-2.3879,-0.161,0.26417,-0.019712,-0.037577
1535,-0.01614,-0.040175,-1.6408,-0.14899,-0.070058,-0.059989,-0.034004
1536,-0.0054209,-0.068434,-0.67745,-0.12657,-0.43579,-0.10579,-0.028157
1537,-0.0050961,-0.093119,0.23689,-0.10026,-0.72487,-0.13924,-0.021986
1538,-0.0089938,-0.10026,0.87058,-0.07493,-0.85284,-0.15223,-0.021012
1539,-0.0076946,-0.084024,1.1489,-0.053817,-0.78691,-0.13924,-0.026858
1540,0.00010078,-0.04927,1.1165,-0.035953,-0.56994,-0.10806,-0.034329
1541,0.011469,-0.012242,0.8878,-0.021986,-0.29417,-0.068434,-0.039851
1542,0.022512,0.020239,0.59807,-0.013216,-0.053492,-0.033679,-0.040825
1543,0.032906,0.042651,0.35447,-0.0083442,0.097218,-0.012892,-0.038551
1544,0.039402,0.053369,0.20343,-0.0067202,0.14399,-0.0099683,-0.035303
1545,0.0433,0.054344,0.14529,-0.0073698,0.11411,-0.021012,-0.034004
1546,0.046548,0.050121,0.14854,-0.0096434,0.055968,-0.034978,-0.034654
1547,0.048497,0.041351,0.1755,-0.013541,0.015042,-0.042124,-0.036602
1548,0.047847,0.032582,0.19791,-0.015165,0.019589,-0.039851,-0.038876
1549,0.045899,0.027385,0.20505,-0.010293,0.076431,-0.030756,-0.039851
1550,0.040052,0.027709,0.19986,0.0017248,0.17095,-0.021337,-0.039526
1551,0.03583,0.034855,0.18979,0.019589,0.27846,-0.014191,-0.035953
1552,0.037454,0.046873,0.18297,0.040052,0.37623,-0.008669,-0.029782
1553,0.041351,0.058891,0.18362,0.05272,0.45516,-0.0054209,-0.021661
1554,0.039727,0.067011,0.18784,0.048172,0.52466,-0.0044465,-0.012242
1555,0.032582,0.068635,0.18979,0.026735,0.59482,-0.0093186,-0.0073698
1556,0.019914,0.064737,0.17907,-0.0015233,0.65978,-0.023935,-0.0073698
1557,0.0065969,0.058566,0.15861,-0.025884,0.69421,-0.045372,-0.010293
1558,-0.0047713,0.054344,0.13912,-0.039201,0.67083,-0.068109,-0.013541
1559,-0.013866,0.053694,0.1297,-0.04115,0.57533,-0.087597,-0.012567
1560,-0.021012,0.055318,0.13262,-0.03303,0.40871,-0.09994,-0.0093186
1561,-0.019063,0.056942,0.14496,-0.021012,0.18751,-0.10384,-0.0057458
1562,-0.013541,0.058891,0.15958,-0.0080194,-0.047321,-0.10384,-0.0041217
1563,-0.008669,0.061165,0.1703,0.0026992,-0.23019,-0.10579,-0.00087364
1564,-0.0057458,0.062789,0.17485,0.013743,-0.2932,-0.11196,0.0065969
1565,-0.0024977,0.062789,0.17452,0.024786,-0.21005,-0.12008,0.015692
1566,0.0023744,0.061489,0.17452,0.034206,-0.015815,-0.1217,0.021213
1567,0.008221,0.058566,0.17582,0.041027,0.21317,-0.11033,0.020564
1568,0.015367,0.054668,0.17842,0.045249,0.40124,-0.085648,0.01764
1569,0.024786,0.054993,0.18004,0.051745,0.5003,-0.053168,0.01894
1570,0.03518,0.058891,0.17842,0.058566,0.49803,-0.021012,0.02641
1571,0.040702,0.063113,0.17452,0.062789,0.41618,0.0049729,0.038753
1572,0.040377,0.066362,0.16543,0.067661,0.29795,0.020239,0.05142
1573,0.040702,0.06831,0.15373,0.073507,0.18329,0.021538,0.061814
1574,0.045899,0.066037,0.14074,0.080328,0.091696,0.009845,0.067661
1575,0.05207,0.059541,0.12775,0.086824,0.023487,-0.0089938,0.067986
1576,0.056617,0.05272,0.11541,0.087474,-0.030106,-0.029782,0.063763
1577,0.059216,0.045899,0.10534,0.080003,-0.085324,-0.045047,0.059216
1578,0.055318,0.039078,0.098193,0.068635,-0.14899,-0.04992,0.060515
1579,0.047523,0.032906,0.091696,0.061489,-0.21882,-0.041799,0.06961
1580,0.037454,0.027709,0.082602,0.061165,-0.28216,-0.025559,0.082602
1581,0.027385,0.024461,0.066362,0.067986,-0.32601,-0.0034721,0.091696
1582,0.018615,0.023812,0.047847,0.078055,-0.34127,0.019589,0.09462
1583,0.014392,0.026085,0.032582,0.087799,-0.32438,0.041676,0.088773
1584,0.0095202,0.02641,0.023812,0.091047,-0.28021,0.06019,0.081303
1585,0.0036737,0.024786,0.017316,0.083901,-0.2146,0.076431,0.073832
1586,-0.0015233,0.023487,0.011794,0.071558,-0.13502,0.092021,0.067336
1587,-0.0015233,0.024137,0.010495,0.060515,-0.053168,0.10599,0.062464
1588,0.0020496,0.030633,0.016666,0.056617,0.016991,0.11411,0.059541
1589,0.0065969,0.038753,0.026735,0.06019,0.067011,0.11443,0.055318
1590,0.014068,0.043625,0.033231,0.065387,0.095269,0.10956,0.049796
1591,0.025436,0.045574,0.030308,0.070259,0.10436,0.10339,0.044924
1592,0.033556,0.041351,0.021863,0.073507,0.097218,0.097218,0.039727
1593,0.03453,0.032906,0.013093,0.073182,0.072533,0.092671,0.034855
1594,0.029983,0.023487,0.0062721,0.06896,0.036804,0.091372,0.033556
1595,0.023487,0.019589,0.0010752,0.062789,-0.00087364,0.091047,0.034855
1596,0.021863,0.020888,-0.0047713,0.055318,-0.035303,0.091372,0.037778
1597,0.027385,0.025111,-0.013541,0.047523,-0.067459,0.090722,0.042326
1598,0.03583,0.026735,-0.020362,0.042001,-0.097017,0.089423,0.041351
1599,0.038428,0.023162,-0.024585,0.037778,-0.12592,0.089098,0.032906
1600,0.031932,0.016666,-0.027508,0.031932,-0.15256,0.089748,0.01764
1601,0.01894,0.010819,-0.028482,0.025436,-0.17757,0.089098,0.0046481
1602,0.0043233,0.0088706,-0.027183,0.020564,-0.2029,0.083901,-0.0011985
1603,-0.0037969,0.0085458,-0.025559,0.016991,-0.22889,0.074806,0.00042559
1604,-0.0063954,0.008221,-0.026209,0.014068,-0.25098,0.063763,0.0033489
1605,-0.0054209,0.0065969,-0.028482,0.013743,-0.26234,0.054019,0.0036737
1606,-0.0028225,0.0052977,-0.034654,0.015367,-0.26039,0.048822,0.0010752
1607,-0.0050961,0.0052977,-0.040175,0.015367,-0.25033,0.045574,-0.0021729
1608,-0.014191,0.003024,-0.045372,0.014392,-0.23831,0.04395,-0.0037969
1609,-0.025884,-0.0015233,-0.052518,0.013418,-0.23571,0.04395,-0.0028225
1610,-0.034004,-0.008669,-0.064861,0.014068,-0.25195,0.046223,-0.0063954
1611,-0.035303,-0.017764,-0.084349,0.017316,-0.28963,0.050446,-0.012892
1612,-0.03303,-0.027833,-0.10644,0.022512,-0.34322,0.05272,-0.017764
1613,-0.030106,-0.035303,-0.13112,0.023162,-0.39649,0.048822,-0.019063
1614,-0.024909,-0.038551,-0.15516,0.015042,-0.43644,0.03453,-0.016464
1615,-0.021012,-0.035628,-0.17659,0.00010078,-0.45301,0.012768,-0.012567
1616,-0.019712,-0.03173,-0.18991,-0.013216,-0.43806,-0.007045,-0.011267
1617,-0.020362,-0.027833,-0.19413,-0.021986,-0.3848,-0.020037,-0.008669
1618,-0.019388,-0.024585,-0.18699,-0.024585,-0.28995,-0.029457,-0.0047713
1619,-0.018088,-0.02361,-0.16815,-0.021986,-0.15873,-0.041475,0.0010752
1620,-0.020687,-0.022961,-0.13989,-0.020362,-0.0015233,-0.059014,0.0075714
1621,-0.026858,-0.021661,-0.11423,-0.025234,0.14886,-0.076879,0.010819
1622,-0.032705,-0.020687,-0.096692,-0.036278,0.25085,-0.089221,0.011144
1623,-0.037577,-0.018413,-0.079802,-0.049595,0.28268,-0.093769,0.0052977
1624,-0.042774,-0.017764,-0.047321,-0.061288,0.24663,-0.097666,-0.0037969
1625,-0.046022,-0.019388,0.0065969,-0.069408,0.16608,-0.10286,-0.017114
1626,-0.04862,-0.019388,0.073507,-0.076554,0.074806,-0.10936,-0.029457
1627,-0.04862,-0.016789,0.12418,-0.085973,0.0095202,-0.11553,-0.037252
1628,-0.043099,-0.0073698,0.12613,-0.092145,-0.007045,-0.12235,-0.041799
1629,-0.03303,0.0046481,0.062464,-0.090521,0.027385,-0.12885,-0.046996
1630,-0.023285,0.01894,-0.037252,-0.078178,0.092671,-0.1334,-0.049595
1631,-0.01614,0.032582,-0.093769,-0.057065,0.15438,-0.13437,-0.046347
1632,-0.012567,0.042651,-0.03303,-0.029782,0.19434,-0.13307,-0.037577
1633,-0.011917,0.040052,0.15179,0.0010752,0.2057,-0.12787,-0.025884
1634,-0.014191,0.019914,0.37883,0.027709,0.19791,-0.11845,-0.018088
1635,-0.018413,-0.0099683,0.5448,0.042001,0.18459,-0.10189,-0.016464
1636,-0.022311,-0.034329,0.58281,0.04395,0.1781,-0.075579,-0.017114
1637,-0.024585,-0.040175,0.48471,0.039402,0.18492,-0.038551,-0.017764
1638,-0.020687,-0.026858,0.2908,0.032582,0.20505,0.0046481,-0.01614
1639,-0.010293,-0.0018481,0.066037,0.02706,0.23136,0.049147,-0.011917
1640,0.0033489,0.024786,-0.12982,0.024137,0.24858,0.089748,-0.0080194
1641,0.015692,0.0433,-0.25812,0.023812,0.24793,0.11931,-0.0054209
1642,0.021863,0.049796,-0.30879,0.020564,0.22941,0.1323,-0.0028225
1643,0.022512,0.047198,-0.29547,0.010819,0.20246,0.12872,0.0014
1644,0.01829,0.038753,-0.24903,-0.0011985,0.18329,0.11541,0.0072465
1645,0.010819,0.02706,-0.20193,-0.014516,0.18394,0.097543,0.011144
1646,0.003024,0.017316,-0.17497,-0.026858,0.21058,0.081303,0.013418
1647,0.0014,0.013093,-0.16977,-0.034978,0.2528,0.071558,0.011144
1648,0.0046481,0.011469,-0.17627,-0.039851,0.29243,0.06896,-0.00054884
1649,0.0095202,0.0095202,-0.18407,-0.043423,0.31062,0.06961,-0.01484
1650,0.014068,0.0059473,-0.18666,-0.042774,0.29892,0.070584,-0.022961
1651,0.021213,-0.0031473,-0.18634,-0.038876,0.25378,0.069934,-0.020037
1652,0.031932,-0.015165,-0.18634,-0.037577,0.18524,0.063113,-0.0099683
1653,0.047198,-0.026858,-0.18991,-0.039201,0.10794,0.047847,0.0014
1654,0.063763,-0.035303,-0.19803,-0.042774,0.031607,0.023812,0.008221
1655,0.074806,-0.039201,-0.20648,-0.04115,-0.038876,-0.0028225,0.011144
1656,0.072533,-0.037902,-0.21362,-0.03173,-0.10026,-0.025234,0.015367
1657,0.055318,-0.035628,-0.2146,-0.016789,-0.15516,-0.046347,0.021213
1658,0.033881,-0.031081,-0.20583,0.00010078,-0.2029,-0.060638,0.028359
1659,0.019914,-0.026858,-0.18796,0.015692,-0.24156,-0.067784,0.032257
1660,0.019264,-0.023285,-0.15418,0.030633,-0.27209,-0.070382,0.030633
1661,0.027385,-0.019063,-0.10221,0.044599,-0.30067,-0.069408,0.026735
1662,0.037778,-0.01484,-0.04115,0.059541,-0.32958,-0.069408,0.024137
1663,0.045899,-0.0083442,0.01017,0.06961,-0.35426,-0.071032,0.019589
1664,0.048822,0.00010078,0.036154,0.072208,-0.36726,-0.069408,0.014717
1665,0.046548,0.0059473,0.042326,0.067661,-0.37083,-0.068109,0.011794
1666,0.0433,0.0085458,0.065387,0.057592,-0.37083,-0.072331,0.011469
1667,0.040377,0.0091954,0.13814,0.041676,-0.3731,-0.084999,0.014392
1668,0.034206,0.0065969,0.27619,0.028359,-0.3796,-0.10416,0.016016
1669,0.024137,0.0017248,0.46652,0.021863,-0.38512,-0.12722,0.014392
1670,0.012119,-0.0024977,0.66433,0.021213,-0.38804,-0.14541,0.011469
1671,0.00042559,-0.0063954,0.81017,0.024137,-0.3822,-0.15256,0.011144
1672,-0.0057458,-0.008669,0.86344,0.027709,-0.35686,-0.14509,0.013418
1673,-0.0024977,-0.010618,0.81569,0.031607,-0.30327,-0.12398,0.01829
1674,0.0078962,-0.014191,0.68122,0.034855,-0.21882,-0.097017,0.021863
1675,0.014717,-0.020037,0.49348,0.039402,-0.11586,-0.069408,0.019589
1676,0.013418,-0.025234,0.28463,0.045899,-0.0089938,-0.046996,0.014392
1677,0.0010752,-0.027508,0.074806,0.052395,0.088448,-0.029782,0.0075714
1678,-0.015815,-0.027833,-0.13697,0.053044,0.15991,-0.01484,-0.0015233
1679,-0.028157,-0.03173,-0.35816,0.04395,0.19888,-0.0034721,-0.0067202
1680,-0.034004,-0.043748,-0.60144,0.023487,0.20928,-0.0034721,-0.0080194
1681,-0.037252,-0.063237,-0.86096,-0.0011985,0.20863,-0.015165,-0.0096434
1682,-0.042774,-0.084674,-1.0935,-0.022636,0.20863,-0.03173,-0.01549
1683,-0.047971,-0.098316,-1.2338,-0.034004,0.21317,-0.043099,-0.021986
1684,-0.050244,-0.097666,-1.2312,-0.036602,0.22649,-0.043748,-0.027508
1685,-0.049595,-0.079802,-1.0818,-0.032705,0.2515,-0.031081,-0.03173
1686,-0.047971,-0.050569,-0.84083,-0.02426,0.28106,-0.0089938,-0.033354
1687,-0.04115,-0.016789,-0.58553,-0.0093186,0.3025,0.014068,-0.028807
1688,-0.030756,0.014392,-0.3744,0.0065969,0.30639,0.03583,-0.01614
1689,-0.021661,0.041351,-0.2094,0.015692,0.28983,0.054668,0.00075039
1690,-0.016464,0.067986,-0.037577,0.014068,0.2541,0.067986,0.015367
1691,-0.010618,0.096569,0.16835,0.0065969,0.207,0.073507,0.022837
1692,-0.0034721,0.1258,0.38987,-0.00087364,0.14886,0.069934,0.023162
1693,0.0026992,0.14724,0.58183,-0.0041217,0.075781,0.062464,0.023487
1694,0.0052977,0.15211,0.70656,-0.0073698,-0.018413,0.054993,0.022837
1695,0.0049729,0.13977,0.74521,-0.011592,-0.13275,0.049147,0.01894
1696,0.0059473,0.11768,0.70916,-0.017764,-0.25422,0.043625,0.011794
1697,0.0062721,0.090397,0.62633,-0.020687,-0.35621,0.036804,0.0046481
1698,0.0049729,0.066362,0.52629,-0.016464,-0.41176,0.029333,-0.00022403
1699,0.0036737,0.050771,0.42755,-0.00022403,-0.40363,0.02641,-0.0015233
1700,0.0069217,0.045574,0.3366,0.023487,-0.32958,0.029009,0.0014
1701,0.01017,0.048497,0.25735,0.048172,-0.2107,0.03583,0.0049729
1702,0.011469,0.053369,0.19693,0.067661,-0.080451,0.042326,0.0039985
1703,0.013093,0.054668,0.15471,0.080978,0.021538,0.042651,-0.0028225
1704,0.013418,0.051096,0.12483,0.083251,0.065062,0.036154,-0.007045
1705,0.009845,0.043625,0.097218,0.075781,0.040702,0.027385,-0.0021729
1706,0.0059473,0.03583,0.073507,0.062139,-0.027508,0.021538,0.012119
1707,0.0059473,0.02706,0.052395,0.048822,-0.10124,0.022837,0.028034
1708,0.01017,0.022512,0.034855,0.038753,-0.15353,0.027709,0.040377
1709,0.019589,0.023487,0.020888,0.030957,-0.17237,0.029333,0.046548
1710,0.029658,0.026735,0.010495,0.021863,-0.161,0.026085,0.046548
1711,0.035505,0.028684,0.0033489,0.016016,-0.12105,0.016341,0.041027
1712,0.035505,0.031282,-0.0021729,0.01764,-0.052843,0.0056225,0.034206
1713,0.034206,0.03518,-0.010618,0.026085,0.039727,-0.0024977,0.026735
1714,0.031282,0.038753,-0.025559,0.037129,0.14659,-0.007045,0.022188
1715,0.026735,0.039078,-0.044073,0.045899,0.25183,-0.010293,0.024461
1716,0.020888,0.038428,-0.05804,0.047523,0.3431,-0.018738,0.034206
1717,0.01764,0.034206,-0.06551,0.039402,0.40968,-0.034978,0.045574
1718,0.013743,0.03453,-0.075904,0.023812,0.43307,-0.053492,0.05142
1719,0.0052977,0.035505,-0.10319,0.0059473,0.39637,-0.073631,0.051096
1720,-0.0073698,0.033556,-0.14574,-0.0080194,0.3051,-0.095717,0.044924
1721,-0.017439,0.024461,-0.18991,-0.01549,0.17972,-0.1191,0.037454
1722,-0.018088,0.011794,-0.21882,-0.016464,0.044599,-0.14152,0.027709
1723,-0.010943,0.00010078,-0.22402,-0.014191,-0.06616,-0.15581,0.019589
1724,0.00010078,-0.008669,-0.20485,-0.010943,-0.12982,-0.15776,0.013743
1725,0.0062721,-0.011267,-0.17042,-0.011267,-0.15581,-0.14899,0.0069217
1726,0.0052977,-0.0080194,-0.13242,-0.013216,-0.18049,-0.13307,0.00042559
1727,-0.0028225,0.0014,-0.10254,-0.015165,-0.23831,-0.11651,-0.010618
1728,-0.01484,0.010495,-0.0824,-0.014191,-0.34549,-0.096692,-0.022636
1729,-0.02426,0.013093,-0.071357,-0.0099683,-0.48484,-0.076554,-0.032705
1730,-0.027508,0.0069217,-0.065835,-0.0018481,-0.61346,-0.05804,-0.039201
1731,-0.02426,-0.0083442,-0.063237,0.0072465,-0.68979,-0.038876,-0.046022
1732,-0.017439,-0.025884,-0.063237,0.011144,-0.68329,-0.016789,-0.052843
