,channel_1,channel_2,channel_3,channel_4,channel_5,channel_6,channel_7
0,0.012768,0.036804,-0.24123,0.035505,-0.33218,-0.0050961,0.087474
1,0.0075714,0.046873,-0.23084,0.030308,-0.43482,0.0020496,0.096569
2,-0.0015233,0.050771,-0.21232,0.022512,-0.5511,0.009845,0.095919
3,-0.0073698,0.050121,-0.19381,0.015042,-0.65439,0.016016,0.090397
4,-0.0050961,0.047523,-0.17854,0.011794,-0.7096,0.019264,0.0852
5,0.0026992,0.046548,-0.17107,0.010819,-0.69239,0.017965,0.082927
6,0.014068,0.048172,-0.16912,0.009845,-0.61249,0.011469,0.080978
7,0.024786,0.050446,-0.16588,0.0085458,-0.5118,0.0026992,0.080003
8,0.033556,0.051745,-0.15158,0.0085458,-0.43579,-0.0060706,0.081303
9,0.035505,0.050771,-0.12008,0.012119,-0.38155,-0.01484,0.081952
10,0.031607,0.049147,-0.073955,0.022837,-0.30522,-0.020687,0.079354
11,0.023487,0.050771,-0.032705,0.037454,-0.14281,-0.021012,0.069934
12,0.016341,0.056942,-0.022961,0.051745,0.14399,-0.012567,0.055968
13,0.010495,0.065387,-0.056091,0.059216,0.52272,0.0043233,0.046548
14,0.0072465,0.072858,-0.12398,0.058566,0.90079,0.028359,0.042651
15,0.0046481,0.074806,-0.20388,0.05272,1.1775,0.054668,0.041676
16,0.0023744,0.070909,-0.27501,0.0433,1.2974,0.074157,0.037778
17,0.0023744,0.064737,-0.31951,0.032906,1.2561,0.080653,0.030633
18,0.0091954,0.059541,-0.32406,0.01829,1.096,0.070584,0.021538
19,0.01894,0.056292,-0.29288,-0.0034721,0.87871,0.04395,0.01017
20,0.025436,0.053369,-0.23733,-0.030106,0.64549,0.0049729,-0.0021729
21,0.027385,0.047198,-0.16653,-0.055441,0.40384,-0.038876,-0.014191
22,0.025111,0.036804,-0.09117,-0.070058,0.13749,-0.0837,-0.021986
23,0.018615,0.024461,-0.0089938,-0.07428,-0.15905,-0.12787,-0.027183
24,0.0078962,0.0052977,0.092671,-0.073306,-0.45463,-0.16815,-0.028482
25,-0.010293,-0.027833,0.2161,-0.07428,-0.69271,-0.20128,-0.026858
26,-0.030106,-0.073955,0.33628,-0.077203,-0.81029,-0.22694,-0.026209
27,-0.043099,-0.12203,0.41488,-0.083375,-0.78236,-0.24058,-0.027183
28,-0.044073,-0.15776,0.42138,-0.088896,-0.6388,-0.23993,-0.036278
29,-0.036927,-0.16912,0.3457,-0.093444,-0.44813,-0.22694,-0.047646
30,-0.028807,-0.15353,0.20473,-0.096692,-0.28183,-0.20258,-0.059664
31,-0.025559,-0.11228,0.036804,-0.098316,-0.18309,-0.1753,-0.067459
32,-0.024585,-0.055116,-0.11261,-0.095393,-0.15288,-0.14964,-0.071682
33,-0.022961,0.0059473,-0.20875,-0.087597,-0.15776,-0.12592,-0.071357
34,-0.016464,0.057917,-0.24156,-0.077203,-0.1675,-0.10286,-0.069408
35,-0.0044465,0.090722,-0.22467,-0.06616,-0.1714,-0.078503,-0.068758
36,0.0059473,0.10177,-0.18179,-0.05739,-0.17172,-0.051219,-0.072006
37,0.009845,0.095594,-0.13502,-0.050244,-0.17854,-0.027508,-0.079152
38,0.0059473,0.07773,-0.098316,-0.040825,-0.20031,-0.011592,-0.085324
39,-0.0024977,0.057267,-0.076879,-0.029132,-0.23571,-0.0011985,-0.086623
40,-0.0083442,0.039402,-0.067784,-0.016789,-0.28118,0.0088706,-0.079152
41,-0.0076946,0.030308,-0.064211,-0.0037969,-0.32795,0.021538,-0.066485
42,-0.0047713,0.031282,-0.057065,0.009845,-0.36628,0.037778,-0.054467
43,-0.0031473,0.036479,-0.046022,0.020564,-0.38577,0.055318,-0.046671
44,-0.0024977,0.040377,-0.04115,0.030957,-0.37862,0.072533,-0.044723
45,0.00010078,0.038103,-0.051219,0.040052,-0.34127,0.088124,-0.044073
46,0.0036737,0.030957,-0.077853,0.047198,-0.27371,0.096244,-0.042774
47,0.0010752,0.025111,-0.11196,0.048172,-0.16847,0.093321,-0.038876
48,-0.0076946,0.019264,-0.14022,0.045574,-0.017439,0.076431,-0.032055
49,-0.016789,0.013418,-0.15256,0.042651,0.17777,0.050771,-0.024909
50,-0.021661,0.0023744,-0.14509,0.042001,0.39019,0.028034,-0.019388
51,-0.023935,-0.0099683,-0.11845,0.04395,0.57761,0.015367,-0.017114
52,-0.022961,-0.020362,-0.076879,0.046548,0.69454,0.016016,-0.01484
53,-0.021661,-0.025884,-0.028482,0.051096,0.71273,0.025761,-0.012242
54,-0.022311,-0.029132,0.022188,0.056617,0.63835,0.037454,-0.0060706
55,-0.023285,-0.028807,0.080003,0.061165,0.50745,0.045574,0.00010078
56,-0.024909,-0.024909,0.14691,0.062789,0.36583,0.05207,0.0046481
57,-0.02361,-0.017439,0.22,0.064737,0.25345,0.055643,0.0078962
58,-0.017439,-0.0063954,0.2921,0.070259,0.18492,0.058566,0.0088706
59,-0.008669,0.0091954,0.3405,0.078055,0.15114,0.061814,0.0085458
60,-0.0028225,0.02641,0.30087,0.081303,0.13749,0.066686,0.0085458
61,-0.0011985,0.036154,0.13002,0.075781,0.131,0.06961,0.0075714
62,0.00010078,0.030957,-0.11943,0.063113,0.1206,0.06961,0.0052977
63,-0.00087364,0.0088706,-0.31626,0.051096,0.10729,0.067661,0.0065969
64,-0.0050961,-0.023935,-0.33997,0.044275,0.095919,0.066362,0.011794
65,-0.013541,-0.054142,-0.16653,0.043625,0.093321,0.065062,0.017316
66,-0.021012,-0.070058,0.11995,0.045249,0.099492,0.06084,0.014717
67,-0.017764,-0.068758,0.38857,0.04395,0.10891,0.053369,0.0062721
68,-0.0047713,-0.054792,0.53831,0.039727,0.10761,0.045574,-0.0037969
69,0.012443,-0.038227,0.54091,0.034206,0.087474,0.044275,-0.0096434
70,0.028359,-0.026858,0.42982,0.032906,0.057267,0.051745,-0.010618
71,0.03583,-0.021337,0.27034,0.038753,0.029333,0.062464,-0.0057458
72,0.036154,-0.017764,0.12645,0.050121,0.016991,0.067011,0.0056225
73,0.031607,-0.0099683,0.036154,0.059216,0.029658,0.064737,0.025111
74,0.028359,0.0039985,0.0033489,0.062139,0.072858,0.058891,0.05207
75,0.030308,0.019264,0.0059473,0.06084,0.13749,0.053694,0.077405
76,0.036804,0.031282,0.01894,0.057267,0.20765,0.048172,0.095269
77,0.04395,0.039402,0.029983,0.053694,0.27229,0.046223,0.10274
78,0.049472,0.043625,0.034206,0.053369,0.32134,0.048497,0.10047
79,0.052395,0.045249,0.03518,0.055318,0.34764,0.053044,0.091696
80,0.054344,0.047198,0.032906,0.057267,0.34115,0.056292,0.084551
81,0.054019,0.05142,0.027709,0.058566,0.28626,0.054019,0.081627
82,0.050446,0.053694,0.01894,0.057917,0.18232,0.049472,0.079679
83,0.042975,0.050121,0.0088706,0.051096,0.049472,0.044599,0.073507
84,0.032906,0.041027,-0.00054884,0.039402,-0.095717,0.045249,0.067011
85,0.021538,0.032257,-0.0089938,0.028359,-0.23019,0.049472,0.061814
86,0.01017,0.030308,-0.014191,0.021863,-0.32276,0.054668,0.057592
87,0.00075039,0.033231,-0.012892,0.01829,-0.35654,0.056617,0.054019
88,-0.0018481,0.036154,-0.0028225,0.016341,-0.339,0.057917,0.054019
89,0.0010752,0.036479,0.018615,0.013743,-0.29353,0.062464,0.053044
90,0.0026992,0.033556,0.044599,0.0091954,-0.24513,0.067011,0.048172
91,-0.0031473,0.025761,0.067661,0.0056225,-0.21037,0.066037,0.041027
92,-0.017764,0.015042,0.076431,0.0033489,-0.19316,0.055643,0.031932
93,-0.037252,0.0056225,0.068635,-0.0015233,-0.18861,0.038428,0.024461
94,-0.048945,-0.0015233,0.046873,-0.0096434,-0.18731,0.01894,0.020564
95,-0.046347,-0.007045,0.021863,-0.020687,-0.18082,-0.00054884,0.01894
96,-0.034329,-0.012567,0.0036737,-0.029782,-0.16523,-0.01614,0.016666
97,-0.020037,-0.017439,-0.0050961,-0.035953,-0.13892,-0.028157,0.015367
98,-0.011917,-0.021012,-0.0096434,-0.038551,-0.10091,-0.035628,0.014717
99,-0.015815,-0.022311,-0.017114,-0.035628,-0.058689,-0.037252,0.0095202
100,-0.026858,-0.017439,-0.030756,-0.029132,-0.031406,-0.036278,-0.0015233
101,-0.035953,-0.008669,-0.048945,-0.019388,-0.030756,-0.038227,-0.01614
102,-0.04115,-0.00054884,-0.06616,-0.011592,-0.04862,-0.046347,-0.031081
103,-0.047646,0.0023744,-0.078178,-0.008669,-0.068758,-0.063561,-0.044723
104,-0.059014,0.00042559,-0.080127,-0.011917,-0.076229,-0.0824,-0.059014
105,-0.07493,-0.0050961,-0.075579,-0.017764,-0.071682,-0.097991,-0.069733
106,-0.087597,-0.010293,-0.068434,-0.021337,-0.064211,-0.11261,-0.078827
107,-0.094093,-0.013216,-0.059014,-0.021661,-0.060313,-0.1256,-0.085973
108,-0.091495,-0.010943,-0.047321,-0.017764,-0.058689,-0.13664,-0.087597
109,-0.077853,-0.0057458,-0.034329,-0.014516,-0.054792,-0.14704,-0.079152
110,-0.058689,-0.0011985,-0.025559,-0.011917,-0.050569,-0.15678,-0.06616
111,-0.039851,-0.00054884,-0.018088,-0.012567,-0.048945,-0.16295,-0.059014
112,-0.030431,-0.0028225,-0.010943,-0.01484,-0.04992,-0.16263,-0.063886
113,-0.029457,-0.0047713,-0.0034721,-0.019388,-0.056416,-0.15548,-0.074605
114,-0.035303,-0.00054884,0.0052977,-0.02426,-0.067459,-0.13794,-0.079802
115,-0.039526,0.0091954,0.012443,-0.027183,-0.076554,-0.11131,-0.073306
116,-0.037577,0.019589,0.01894,-0.023285,-0.082076,-0.080127,-0.054792
117,-0.025884,0.026735,0.026735,-0.0089938,-0.080451,-0.050569,-0.035628
118,-0.0054209,0.028359,0.033556,0.010819,-0.076229,-0.027183,-0.021337
119,0.019914,0.025111,0.033881,0.030308,-0.074605,-0.012242,-0.012892
120,0.045574,0.016666,0.025111,0.042651,-0.075255,-0.0028225,-0.008669
121,0.069934,0.009845,0.011794,0.047847,-0.084674,0.0043233,-0.0050961
122,0.0852,0.0065969,-0.0018481,0.048822,-0.10384,0.0078962,-0.0021729
123,0.092671,0.0069217,-0.015165,0.047847,-0.1256,0.0085458,-0.00054884
124,0.094945,0.0085458,-0.024585,0.046873,-0.13859,0.009845,-0.00054884
125,0.097543,0.012119,-0.029782,0.048172,-0.13404,0.023162,-0.0018481
126,0.099167,0.016666,-0.028157,0.054019,-0.10449,0.055968,-0.00087364
127,0.10079,0.020888,-0.021012,0.060515,-0.04927,0.10274,0.0056225
128,0.096893,0.023162,-0.011917,0.061489,0.021863,0.14984,0.014717
129,0.083901,0.021863,0.0043233,0.05272,0.092346,0.18069,0.024137
130,0.062139,0.016991,0.048822,0.039078,0.14496,0.18687,0.031607
131,0.033556,0.008221,0.13684,0.024786,0.16998,0.16933,0.03518
132,0.0091954,0.0026992,0.26417,0.009845,0.16835,0.13197,0.032582
133,-0.0063954,0.0033489,0.41261,-0.0057458,0.14334,0.082277,0.025436
134,-0.0093186,0.0091954,0.55325,-0.019388,0.099492,0.026085,0.017316
135,-0.0044465,0.015367,0.65589,-0.026209,0.050771,-0.026533,0.014392
136,0.00075039,0.020239,0.70818,-0.025234,0.01829,-0.064536,0.016666
137,0.0052977,0.023812,0.71565,-0.020687,0.023812,-0.081101,0.024786
138,0.011144,0.021538,0.69292,-0.019063,0.075781,-0.081101,0.031932
139,0.018615,0.013418,0.65751,-0.021337,0.15633,-0.073955,0.03518
140,0.024461,0.0033489,0.62795,-0.024585,0.23331,-0.067134,0.033231
141,0.026085,-0.0034721,0.60392,-0.024909,0.27814,-0.06681,0.026735
142,0.021538,-0.0024977,0.55357,-0.022636,0.27586,-0.070707,0.017316
143,0.011144,0.00042559,0.37655,-0.021986,0.23364,-0.077853,0.0059473
144,-0.0024977,-0.0041217,-0.071357,-0.034654,0.16998,-0.090845,-0.0057458
145,-0.015815,-0.018738,-0.80217,-0.064536,0.10794,-0.11228,-0.013216
146,-0.026209,-0.036927,-1.6187,-0.10059,0.065712,-0.14119,-0.011917
147,-0.027833,-0.055766,-2.2567,-0.1269,0.055968,-0.17172,-0.00087364
148,-0.017764,-0.067134,-2.5198,-0.13567,0.081303,-0.18991,0.012768
149,-0.00022403,-0.069083,-2.3645,-0.12657,0.13067,-0.18309,0.023812
150,0.017316,-0.059989,-1.8916,-0.10124,0.18199,-0.15386,0.029009
151,0.02706,-0.042449,-1.278,-0.065186,0.2187,-0.11651,0.029983
152,0.026085,-0.021661,-0.69791,-0.025559,0.23461,-0.0837,0.029333
153,0.01894,-0.0047713,-0.26429,0.0088706,0.23461,-0.059664,0.029333
154,0.012768,0.0059473,-0.0076946,0.032257,0.22812,-0.04115,0.033231
155,0.012443,0.011469,0.10404,0.042001,0.22389,-0.026858,0.036804
156,0.012119,0.013093,0.13327,0.039727,0.22259,-0.014516,0.03453
157,0.010495,0.012443,0.13392,0.030957,0.2122,-0.00087364,0.02641
158,0.0088706,0.011144,0.13749,0.019914,0.1638,0.016341,0.012768
159,0.010819,0.0091954,0.15341,0.0095202,0.05207,0.033556,0.00075039
160,0.014717,0.0091954,0.17939,0.0023744,-0.123,0.047523,-0.0054209
161,0.015692,0.011794,0.20473,0.0014,-0.31399,0.057267,-0.0050961
162,0.010495,0.013093,0.21837,0.0049729,-0.46178,0.063763,0.00010078
163,0.00010078,0.015692,0.2174,0.015367,-0.53356,0.068635,0.0088706
164,-0.013541,0.01894,0.20018,0.030308,-0.53908,0.071883,0.019264
165,-0.022961,0.024137,0.17582,0.047523,-0.50238,0.076106,0.029333
166,-0.02361,0.029658,0.14529,0.063438,-0.44229,0.082277,0.03518
167,-0.01614,0.033881,0.10956,0.074482,-0.37473,0.090072,0.036479
168,-0.0047713,0.034855,0.068635,0.078704,-0.31204,0.095919,0.033231
169,0.0059473,0.031607,0.032906,0.074157,-0.26299,0.098842,0.025436
170,0.011794,0.024786,0.0078962,0.058241,-0.23798,0.10079,0.011469
171,0.010495,0.014392,0.00075039,0.035505,-0.23993,0.10274,-0.0024977
172,0.0023744,0.0014,0.0039985,0.013093,-0.26657,0.10209,-0.012242
173,-0.0093186,-0.0089938,0.0043233,-0.0050961,-0.30814,0.09462,-0.019063
174,-0.021337,-0.013541,-0.0018481,-0.021012,-0.34355,0.07708,-0.022311
175,-0.029132,-0.0089938,0.011469,-0.029457,-0.33607,0.05272,-0.020687
176,-0.033354,-0.00087364,0.096893,-0.030106,-0.2565,0.02706,-0.017439
177,-0.034004,0.0085458,0.27781,-0.02426,-0.10254,0.0046481,-0.012892
178,-0.028157,0.015042,0.5159,-0.015165,0.092346,-0.0073698,-0.0073698
179,-0.020687,0.016341,0.75333,-0.0050961,0.27391,-0.008669,0.00010078
180,-0.015165,0.014392,0.92808,0.003024,0.39247,0.00010078,0.0072465
181,-0.018413,0.0095202,0.9794,0.008221,0.423,0.012443,0.015042
182,-0.029132,0.0020496,0.87448,0.01017,0.37363,0.022188,0.022837
183,-0.040175,-0.0089938,0.63997,0.009845,0.27489,0.029333,0.029658
184,-0.045372,-0.019063,0.36291,0.011794,0.15796,0.033881,0.034206
185,-0.044073,-0.021337,0.15406,0.018615,0.048822,0.03583,0.037454
186,-0.038227,-0.01484,0.094945,0.031932,-0.038227,0.03583,0.038428
187,-0.033354,-0.0037969,0.19986,0.05272,-0.097666,0.03518,0.038103
188,-0.031081,0.0036737,0.39637,0.071883,-0.13047,0.036479,0.040377
189,-0.032055,0.003024,0.56884,0.080328,-0.13762,0.040702,0.0433
190,-0.03173,-0.0060706,0.62763,0.07773,-0.11845,0.045574,0.044275
191,-0.028482,-0.022311,0.54448,0.070259,-0.071032,0.047198,0.041027
192,-0.025884,-0.04115,0.34602,0.059865,-0.0024977,0.040702,0.036804
193,-0.026858,-0.058365,0.091372,0.048497,0.069934,0.029333,0.031282
194,-0.030106,-0.072331,-0.15321,0.037454,0.13197,0.014068,0.025436
195,-0.033679,-0.080127,-0.33932,0.022837,0.17192,-0.008669,0.018615
196,-0.036927,-0.081426,-0.44878,0.0065969,0.17387,-0.042774,0.010495
197,-0.036602,-0.078503,-0.48679,-0.0073698,0.11963,-0.084349,0.0017248
198,-0.030431,-0.072331,-0.46925,-0.018088,0.0023744,-0.12463,-0.0034721
199,-0.019388,-0.067134,-0.41793,-0.026858,-0.15873,-0.15288,-0.0050961
200,-0.0067202,-0.058689,-0.36011,-0.030431,-0.31983,-0.16328,-0.0021729
201,0.0059473,-0.045047,-0.31042,-0.026858,-0.43936,-0.15386,0.0049729
202,0.013093,-0.025234,-0.26819,-0.016464,-0.49426,-0.12755,0.011144
203,0.014717,-0.0018481,-0.22304,-0.0011985,-0.48906,-0.092794,0.012768
204,0.013093,0.020888,-0.16588,0.013743,-0.44326,-0.057715,0.009845
205,0.008221,0.038428,-0.086298,0.020564,-0.37862,-0.028482,0.0023744
206,-0.00022403,0.049147,0.020239,0.013418,-0.31236,-0.0093186,-0.0054209
207,-0.010943,0.054668,0.14919,-0.0063954,-0.2487,-0.0057458,-0.013866
208,-0.021012,0.054668,0.28106,-0.034978,-0.18796,-0.020687,-0.022636
209,-0.026533,0.054993,0.38792,-0.063237,-0.1191,-0.04927,-0.027833
210,-0.026533,0.062139,0.45061,-0.081426,-0.026858,-0.081101,-0.027508
211,-0.019063,0.076106,0.46717,-0.084024,0.096569,-0.10709,-0.023935
212,-0.0089938,0.09397,0.44898,-0.071357,0.24436,-0.1178,-0.018738
213,-0.0031473,0.11021,0.41845,-0.04927,0.39279,-0.11293,-0.013216
214,0.00010078,0.1206,0.385,-0.027508,0.50875,-0.097666,-0.0093186
215,0.0010752,0.12548,0.34017,-0.014516,0.55422,-0.081751,-0.0063954
216,0.0010752,0.12353,0.26677,-0.013866,0.49218,-0.07428,-0.0015233
217,0.0017248,0.11736,0.15796,-0.021661,0.30315,-0.075904,0.0056225
218,0.00010078,0.10989,0.02641,-0.030106,0.016341,-0.085324,0.012443
219,-0.0021729,0.10534,-0.094093,-0.029782,-0.28443,-0.098316,0.01829
220,-0.0041217,0.10209,-0.17367,-0.01549,-0.50725,-0.11001,0.023487
221,0.00010078,0.097543,-0.2016,0.0078962,-0.59754,-0.11391,0.029009
222,0.013743,0.090072,-0.19316,0.03518,-0.55987,-0.10644,0.033881
223,0.034206,0.080003,-0.17075,0.061489,-0.43384,-0.090196,0.040702
224,0.054993,0.067986,-0.15126,0.081952,-0.26754,-0.070058,0.046223
225,0.067986,0.054019,-0.14119,0.095269,-0.093119,-0.049595,0.047847
226,0.071558,0.039078,-0.13989,0.10144,0.078055,-0.030431,0.047847
227,0.06896,0.024461,-0.14541,0.10014,0.24046,-0.0083442,0.045574
228,0.065062,0.01017,-0.15711,0.089423,0.38597,0.015692,0.041676
229,0.063763,0.00042559,-0.1714,0.074482,0.5081,0.038753,0.033231
230,0.063438,-0.0047713,-0.18049,0.061489,0.60132,0.059865,0.019589
231,0.064088,-0.0060706,-0.17984,0.053369,0.66823,0.075781,0.0033489
232,0.06084,-0.0060706,-0.1701,0.049796,0.715,0.087474,-0.012567
233,0.053369,-0.0060706,-0.15613,0.047523,0.75138,0.096244,-0.024909
234,0.044275,-0.0076946,-0.14281,0.042651,0.78126,0.099167,-0.03303
235,0.03583,-0.011917,-0.13372,0.03518,0.80075,0.095919,-0.033679
236,0.027385,-0.017764,-0.12625,0.025111,0.80855,0.09397,-0.026209
237,0.016016,-0.022636,-0.11975,0.016341,0.79393,0.098517,-0.019712
238,0.0026992,-0.023935,-0.11651,0.012443,0.72897,0.10729,-0.020037
239,-0.0089938,-0.024585,-0.12203,0.0085458,0.60327,0.10794,-0.031406
240,-0.017114,-0.023285,-0.13469,0.00010078,0.43307,0.097868,-0.045372
241,-0.020037,-0.023935,-0.14964,-0.010943,0.23883,0.078055,-0.054792
242,-0.018088,-0.027508,-0.16003,-0.019712,0.048172,0.054344,-0.059339
243,-0.013216,-0.03238,-0.16295,-0.019063,-0.10903,0.031282,-0.056416
244,-0.008669,-0.036602,-0.1623,-0.0073698,-0.22044,0.015367,-0.046022
245,-0.0044465,-0.038876,-0.16295,0.008221,-0.2919,0.0095202,-0.030431
246,-0.00087364,-0.037252,-0.1688,0.020888,-0.33185,0.0091954,-0.019063
247,0.0023744,-0.032705,-0.18439,0.027709,-0.34517,0.008221,-0.017114
248,0.0072465,-0.028157,-0.21427,0.028359,-0.33445,0.0049729,-0.021661
249,0.010819,-0.022311,-0.2565,0.022512,-0.29677,-0.0018481,-0.028157
250,0.0095202,-0.010293,-0.29612,0.010495,-0.22759,-0.0099683,-0.035303
251,0.0046481,0.0095202,-0.31756,-0.0018481,-0.13599,-0.017439,-0.041475
252,0.0020496,0.039078,-0.31171,-0.0096434,-0.052843,-0.021986,-0.044073
253,0.0056225,0.072533,-0.27826,-0.010618,-0.010618,-0.022311,-0.043423
254,0.013093,0.10339,-0.23116,-0.0034721,-0.022311,-0.019063,-0.040175
255,0.018615,0.1219,-0.18244,0.009845,-0.078178,-0.013541,-0.034654
256,0.01829,0.12645,-0.14087,0.024461,-0.14834,-0.008669,-0.030106
257,0.012119,0.11898,-0.10644,0.035505,-0.19933,-0.0047713,-0.025884
258,0.0046481,0.10209,-0.078503,0.044275,-0.21557,-0.0018481,-0.020362
259,-0.0011985,0.080653,-0.057715,0.048822,-0.20225,0.0026992,-0.011917
260,0.00010078,0.059865,-0.042774,0.049472,-0.17432,0.0078962,-0.0037969
261,0.0091954,0.044599,-0.032055,0.046873,-0.14769,0.013418,0.0059473
262,0.022837,0.03518,-0.021986,0.046223,-0.1282,0.019589,0.015367
263,0.030957,0.02641,-0.0047713,0.050121,-0.11391,0.027385,0.025761
264,0.024461,0.013743,0.023487,0.057267,-0.10091,0.035505,0.03453
265,0.0059473,-0.0080194,0.059216,0.063763,-0.092145,0.041676,0.037454
266,-0.01484,-0.038551,0.092346,0.065062,-0.090521,0.042326,0.032257
267,-0.029457,-0.077853,0.10989,0.057267,-0.095393,0.039402,0.020564
268,-0.035628,-0.13242,0.097543,0.041676,-0.09994,0.032906,0.0085458
269,-0.034329,-0.20518,0.054668,0.025111,-0.097666,0.022837,0.0017248
270,-0.027833,-0.2893,-0.0024977,0.012768,-0.088247,0.010495,0.0010752
271,-0.021986,-0.36498,-0.046022,0.0062721,-0.075904,-0.00022403,0.0033489
272,-0.020037,-0.41013,-0.058689,0.0062721,-0.072006,-0.0067202,0.0069217
273,-0.016464,-0.40753,-0.039526,0.01017,-0.080451,-0.014191,0.010495
274,-0.0096434,-0.35719,-0.0031473,0.014068,-0.096692,-0.024909,0.0095202
275,-0.00054884,-0.27209,0.024786,0.016016,-0.11586,-0.033679,0.0052977
276,0.0085458,-0.17432,0.027385,0.016666,-0.13664,-0.0405,0.0010752
277,0.013743,-0.086298,0.0059473,0.015367,-0.16165,-0.044723,-0.00054884
278,0.012119,-0.019388,-0.025234,0.015692,-0.19219,-0.04927,0.0010752
279,0.0069217,0.024137,-0.060313,0.01894,-0.23116,-0.060963,0.0065969
280,0.0059473,0.049147,-0.092469,0.02641,-0.27988,-0.081751,0.015692
281,0.011144,0.062139,-0.1191,0.037778,-0.3416,-0.10189,0.024137
282,0.022512,0.071234,-0.13534,0.051096,-0.41013,-0.10968,0.024461
283,0.033556,0.079029,-0.14022,0.057917,-0.46827,-0.10416,0.016341
284,0.040052,0.089748,-0.13794,0.055643,-0.49036,-0.09117,0.0043233
285,0.040052,0.10177,-0.13372,0.04395,-0.46372,-0.077203,-0.010618
286,0.031607,0.11086,-0.13145,0.023487,-0.39844,-0.068109,-0.02426
287,0.019589,0.11378,-0.13664,-0.0034721,-0.32048,-0.06681,-0.03238
288,0.0056225,0.10956,-0.14801,-0.027183,-0.25227,-0.070058,-0.028807
289,-0.008669,0.10209,-0.1623,-0.042124,-0.19998,-0.071357,-0.017439
290,-0.021012,0.094945,-0.17335,-0.046996,-0.15646,-0.067459,-0.0073698
291,-0.028807,0.088773,-0.16393,-0.041475,-0.11131,-0.05804,-0.0057458
292,-0.030431,0.081952,-0.11261,-0.030106,-0.057065,-0.046671,-0.010618
293,-0.028157,0.075131,-0.0044465,-0.01484,0.0046481,-0.038227,-0.01549
294,-0.020362,0.065712,0.16153,-0.00054884,0.074482,-0.031081,-0.01614
295,-0.011592,0.054019,0.35934,0.011144,0.14269,-0.020687,-0.0089938
296,-0.0047713,0.044275,0.55585,0.01894,0.20505,-0.0021729,-0.0015233
297,-0.0050961,0.039078,0.74294,0.025761,0.25507,0.022837,0.003024
298,-0.01484,0.038428,0.9245,0.033231,0.28756,0.050121,0.0039985
299,-0.029457,0.040702,1.0879,0.037778,0.30867,0.072208,0.0023744
300,-0.044073,0.047198,1.1876,0.032906,0.32848,0.086175,-0.00087364
301,-0.055766,0.054668,1.1343,0.012443,0.35414,0.089748,-0.007045
302,-0.061937,0.061165,0.85662,-0.021337,0.37493,0.080978,-0.01549
303,-0.05804,0.061489,0.39864,-0.059014,0.37038,0.06084,-0.025234
304,-0.047646,0.054019,-0.09117,-0.089221,0.32231,0.029983,-0.032055
305,-0.036927,0.0433,-0.43969,-0.10514,0.22454,-0.007045,-0.031081
306,-0.027508,0.03518,-0.555,-0.10546,0.091696,-0.037902,-0.02426
307,-0.020037,0.037454,-0.45788,-0.093119,-0.044723,-0.054142,-0.013216
308,-0.010293,0.047847,-0.24156,-0.076554,-0.15353,-0.054467,-0.0018481
309,0.0026992,0.064413,-0.020687,-0.064536,-0.20908,-0.044073,0.0059473
310,0.01894,0.082927,0.12483,-0.055766,-0.2081,-0.024585,0.011469
311,0.03583,0.096244,0.17192,-0.047971,-0.1662,0.00042559,0.016016
312,0.048172,0.10306,0.14237,-0.04115,-0.10124,0.025436,0.020239
313,0.051096,0.10177,0.074157,-0.040825,-0.034004,0.048822,0.023487
314,0.044275,0.096244,-0.00022403,-0.045697,0.019264,0.066686,0.025436
315,0.031282,0.090722,-0.062912,-0.051219,0.053044,0.076755,0.022512
316,0.01829,0.087799,-0.10968,-0.052193,0.072208,0.079029,0.01829
317,0.0072465,0.0852,-0.13957,-0.045697,0.083576,0.072858,0.015367
318,0.00010078,0.080978,-0.16133,-0.035953,0.091047,0.062139,0.015367
319,0.00010078,0.072533,-0.17887,-0.028482,0.087149,0.057592,0.017316
320,0.0088706,0.060515,-0.19186,-0.024585,0.058566,0.061489,0.020239
321,0.020888,0.044275,-0.19673,-0.024585,-0.0024977,0.06831,0.026735
322,0.028034,0.02641,-0.19056,-0.022961,-0.0837,0.071883,0.03453
323,0.029983,0.0095202,-0.17465,-0.022636,-0.16133,0.06831,0.040377
324,0.026735,-0.0044465,-0.15451,-0.020037,-0.21167,0.057917,0.038428
325,0.019914,-0.014191,-0.13664,-0.017764,-0.22661,0.036804,0.029983
326,0.015692,-0.019712,-0.12625,-0.016464,-0.21135,0.0078962,0.01764
327,0.011144,-0.021661,-0.11878,-0.017114,-0.18017,-0.022961,0.0072465
328,0.0069217,-0.021337,-0.11001,-0.018088,-0.13859,-0.050894,0.0026992
329,0.0046481,-0.019712,-0.097991,-0.017114,-0.092794,-0.073955,0.0023744
330,0.0075714,-0.018088,-0.086623,-0.014516,-0.045372,-0.09182,0.0075714
331,0.015042,-0.018738,-0.081101,-0.011267,0.0033489,-0.10319,0.015367
332,0.025761,-0.019712,-0.080451,-0.0057458,0.054993,-0.10514,0.022837
333,0.034206,-0.020687,-0.081101,0.003024,0.11054,-0.093119,0.031607
334,0.038753,-0.020037,-0.076879,0.015367,0.17127,-0.06551,0.040702
335,0.039078,-0.013866,-0.059664,0.028359,0.23234,-0.030106,0.047523
336,0.039402,0.0033489,-0.029782,0.039078,0.28658,0.0036737,0.051096
337,0.037454,0.03453,0.0065969,0.046548,0.32556,0.028684,0.048822
338,0.033881,0.076106,0.040052,0.049472,0.347,0.04395,0.045899
339,0.032257,0.11866,0.067986,0.053044,0.35122,0.049796,0.042975
340,0.031282,0.14756,0.090072,0.060515,0.33887,0.047198,0.040377
341,0.030957,0.15666,0.10501,0.072208,0.30867,0.036804,0.037129
342,0.028684,0.14594,0.10826,0.0852,0.26222,0.019589,0.033231
343,0.025111,0.11606,0.097868,0.095919,0.20311,-0.0021729,0.030633
344,0.017316,0.075131,0.077405,0.099817,0.13944,-0.027183,0.030957
345,0.0043233,0.036154,0.050121,0.09397,0.07773,-0.047971,0.031282
346,-0.0099683,0.0075714,0.013743,0.080653,0.018615,-0.057715,0.032582
347,-0.021012,-0.008669,-0.034004,0.06961,-0.035953,-0.059989,0.032257
348,-0.023935,-0.013866,-0.087597,0.063438,-0.092469,-0.059339,0.030633
349,-0.019712,-0.011267,-0.14411,0.059541,-0.16035,-0.061288,0.028359
350,-0.013866,-0.0050961,-0.19868,0.054993,-0.24545,-0.063561,0.029009
351,-0.011267,0.00042559,-0.24091,0.051745,-0.35654,-0.066485,0.029983
352,-0.011592,0.0033489,-0.25617,0.049796,-0.48938,-0.069408,0.030308
353,-0.01614,0.0043233,-0.24383,0.048497,-0.61638,-0.069083,0.028034
354,-0.019712,0.0062721,-0.20453,0.047523,-0.69921,-0.063237,0.022837
355,-0.017439,0.011469,-0.14541,0.045249,-0.70636,-0.053817,0.015692
356,-0.01549,0.012443,-0.076554,0.0433,-0.6284,-0.045372,0.0072465
357,-0.01614,0.0039985,-0.0076946,0.040702,-0.48906,-0.039851,-0.0031473
358,-0.019063,-0.014191,0.067011,0.034206,-0.32958,-0.038227,-0.011267
359,-0.02426,-0.04115,0.17355,0.025436,-0.18829,-0.039201,-0.013866
360,-0.03303,-0.075579,0.31776,0.016016,-0.080776,-0.038876,-0.013541
361,-0.039851,-0.11293,0.48341,0.010819,-0.0057458,-0.035628,-0.0089938
362,-0.040175,-0.14444,0.63737,0.013418,0.046873,-0.027508,-0.00087364
363,-0.030431,-0.1636,0.72767,0.019264,0.089098,-0.011267,0.008221
364,-0.013866,-0.16263,0.71403,0.024786,0.12288,0.010495,0.014068
365,0.0062721,-0.14314,0.58865,0.02641,0.15146,0.037454,0.015042
366,0.02641,-0.11423,0.38532,0.024461,0.1755,0.065062,0.016016
367,0.045249,-0.086623,0.16153,0.024137,0.19531,0.090072,0.013743
368,0.059541,-0.063886,-0.027508,0.025761,0.21317,0.10859,0.010495
369,0.065062,-0.04927,-0.15191,0.027385,0.23689,0.11768,0.0049729
370,0.059541,-0.042774,-0.21037,0.025761,0.26384,0.11476,0.0010752
371,0.046223,-0.042124,-0.22337,0.020239,0.29762,0.10404,0.0069217
372,0.029333,-0.042774,-0.21817,0.013418,0.33855,0.094295,0.022188
373,0.015692,-0.040825,-0.21655,0.0078962,0.38078,0.086824,0.037129
374,0.0095202,-0.03238,-0.22629,0.0056225,0.41553,0.082602,0.041351
375,0.0046481,-0.019712,-0.25098,0.0072465,0.43437,0.078379,0.033231
376,-0.0037969,-0.0057458,-0.288,0.0078962,0.43372,0.074482,0.019914
377,-0.016789,0.0069217,-0.32893,0.0062721,0.41715,0.067011,0.0095202
378,-0.030431,0.015692,-0.36758,-0.00087364,0.39052,0.05207,0.0078962
379,-0.04115,0.020564,-0.39876,-0.012242,0.35122,0.029658,0.014068
380,-0.047971,0.020239,-0.4176,-0.025884,0.29925,0.0056225,0.021863
381,-0.050569,0.01764,-0.41793,-0.03303,0.23461,-0.01614,0.025111
382,-0.051544,0.010495,-0.37115,-0.034978,0.15828,-0.034978,0.021538
383,-0.050244,0.00010078,-0.23409,-0.036927,0.071883,-0.050244,0.011794
384,-0.04862,-0.0093186,0.0091954,-0.039851,-0.024909,-0.060638,-0.0031473
385,-0.048296,-0.016464,0.31744,-0.036927,-0.13437,-0.067784,-0.017114
386,-0.050569,-0.027183,0.63997,-0.027508,-0.24903,-0.072981,-0.026533
387,-0.056091,-0.044398,0.90729,-0.015165,-0.35361,-0.078178,-0.025884
388,-0.06681,-0.070382,1.0297,-0.0076946,-0.43547,-0.085324,-0.017439
389,-0.078827,-0.095717,0.95114,-0.0083442,-0.4988,-0.099615,-0.0093186
390,-0.084674,-0.11456,0.69162,-0.01484,-0.56734,-0.12105,-0.0063954
391,-0.078178,-0.1204,0.33855,-0.02361,-0.65763,-0.14801,-0.011592
392,-0.060313,-0.11131,0.0036737,-0.029782,-0.74176,-0.17887,-0.021986
393,-0.038876,-0.090845,-0.23506,-0.028807,-0.75215,-0.20908,-0.031081
394,-0.024585,-0.065835,-0.34809,-0.017764,-0.6375,-0.23149,-0.034654
395,-0.017764,-0.041475,-0.35167,0.0014,-0.39909,-0.23636,-0.035953
396,-0.018088,-0.022961,-0.28378,0.021863,-0.097341,-0.22077,-0.036927
397,-0.021986,-0.01549,-0.19056,0.036804,0.17517,-0.19024,-0.038551
398,-0.026858,-0.01549,-0.10709,0.040377,0.34277,-0.15451,-0.04115
399,-0.028807,-0.018413,-0.046671,0.032906,0.38305,-0.12333,-0.041799
400,-0.02426,-0.018413,-0.013216,0.020564,0.32946,-0.10319,-0.039851
401,-0.015165,-0.011592,0.0014,0.009845,0.23559,-0.096692,-0.036927
402,-0.0034721,-0.0015233,-0.0047713,0.0043233,0.14302,-0.098316,-0.03303
403,0.009845,0.0078962,-0.052843,-0.00022403,0.06896,-0.097341,-0.028157
404,0.027385,0.012768,-0.16815,-0.0050961,0.021213,-0.086298,-0.020362
405,0.044599,0.013743,-0.33315,-0.008669,-0.0015233,-0.067784,-0.0096434
406,0.056292,0.011794,-0.48971,-0.011592,-0.0037969,-0.046022,0.00042559
407,0.06084,0.011794,-0.57611,-0.012892,0.008221,-0.028157,0.0072465
408,0.062789,0.016341,-0.55954,-0.0093186,0.029009,-0.019388,0.0088706
409,0.061814,0.022837,-0.45203,0.00042559,0.054019,-0.018738,0.008221
410,0.053044,0.029983,-0.30132,0.012119,0.079354,-0.018413,0.008221
411,0.042975,0.037129,-0.1636,0.01894,0.099817,-0.013216,0.010495
412,0.03583,0.044599,-0.07428,0.016016,0.11313,-0.0037969,0.015367
413,0.036479,0.050771,-0.039526,0.0062721,0.1219,0.0078962,0.020239
414,0.039727,0.055318,-0.040825,-0.0060706,0.1297,0.023812,0.021863
415,0.041027,0.059216,-0.056091,-0.01614,0.14107,0.047523,0.023162
416,0.042651,0.065062,-0.067784,-0.019712,0.15049,0.07773,0.025761
417,0.047523,0.070259,-0.067459,-0.013216,0.15309,0.11118,0.026085
418,0.055968,0.071234,-0.059339,0.0014,0.14561,0.13912,0.021863
419,0.063113,0.064088,-0.049595,0.014392,0.12158,0.15763,0.016991
420,0.062139,0.050771,-0.041799,0.020239,0.084226,0.16023,0.0095202
421,0.05207,0.03583,-0.036278,0.014068,0.045574,0.14724,0.00010078
422,0.037129,0.025111,-0.034978,-0.0050961,0.012119,0.12678,-0.0089938
423,0.023487,0.023812,-0.034004,-0.026858,-0.015815,0.10924,-0.017764
424,0.015367,0.033556,-0.027183,-0.04115,-0.040825,0.099817,-0.020687
425,0.016666,0.048172,-0.013541,-0.041799,-0.062262,0.10144,-0.018088
426,0.024786,0.062464,0.0059473,-0.028807,-0.075255,0.11021,-0.011267
427,0.031932,0.071234,0.024461,-0.0096434,-0.078503,0.12028,-0.0031473
428,0.034206,0.06961,0.037129,0.009845,-0.072331,0.12937,0.0026992
429,0.033231,0.059216,0.042975,0.028359,-0.056416,0.13522,0.0059473
430,0.028684,0.045899,0.042975,0.040702,-0.028807,0.13457,0.0036737
431,0.01894,0.03583,0.036804,0.047523,0.016666,0.1284,-0.0044465
432,0.0065969,0.030308,0.025436,0.047198,0.082602,0.11638,-0.014191
433,-0.0076946,0.024786,0.012768,0.044275,0.16315,0.099817,-0.022961
434,-0.018088,0.016991,0.0043233,0.042975,0.25215,0.081627,-0.027833
435,-0.019712,0.0088706,0.0072465,0.045574,0.34375,0.064737,-0.022311
436,-0.015165,0.0072465,0.019914,0.05142,0.43372,0.048497,-0.008669
437,-0.0073698,0.014392,0.036804,0.055643,0.5107,0.031932,0.0049729
438,0.003024,0.026735,0.048822,0.059216,0.54545,0.014717,0.013418
439,0.017316,0.036479,0.050446,0.061489,0.51557,0.0020496,0.017316
440,0.032906,0.042975,0.042651,0.06019,0.42268,-0.00087364,0.016666
441,0.04395,0.046873,0.031607,0.054993,0.27879,0.0072465,0.012119
442,0.046548,0.047523,0.019914,0.045899,0.11476,0.016016,0.0017248
443,0.041027,0.042001,0.009845,0.033556,-0.022636,0.022188,-0.0099683
444,0.030957,0.031932,-0.00054884,0.020888,-0.10644,0.023162,-0.019712
445,0.015367,0.020888,-0.012567,0.011144,-0.14574,0.022837,-0.028482
446,-0.00054884,0.013743,-0.025559,0.0091954,-0.1636,0.019589,-0.037252
447,-0.011592,0.0095202,-0.034978,0.014392,-0.19056,0.01764,-0.044398
448,-0.014516,0.0065969,-0.039526,0.021863,-0.26169,0.022188,-0.049595
449,-0.012567,0.0052977,-0.035303,0.024137,-0.39129,0.03453,-0.050244
450,-0.0063954,0.0017248,-0.022636,0.019914,-0.56766,0.049472,-0.048296
451,-0.0011985,-0.0037969,-0.0018481,0.014717,-0.75573,0.063438,-0.043099
452,0.00042559,-0.0093186,0.021213,0.014392,-0.91521,0.073182,-0.035628
453,-0.0021729,-0.010293,0.046873,0.019589,-1.0123,0.075781,-0.025234
454,-0.0073698,-0.0063954,0.070909,0.02706,-1.0338,0.067986,-0.018413
455,-0.010293,0.0017248,0.091047,0.029333,-0.99154,0.050446,-0.019388
456,-0.0096434,0.010819,0.11021,0.021213,-0.90449,0.029333,-0.029132
457,-0.012242,0.016341,0.14399,0.0075714,-0.77944,0.0091954,-0.044073
458,-0.022311,0.020888,0.22259,-0.008669,-0.60404,-0.010618,-0.054792
459,-0.032705,0.027385,0.35706,-0.025234,-0.36953,-0.031406,-0.05739
460,-0.039201,0.032906,0.53311,-0.042124,-0.097991,-0.052843,-0.04927
461,-0.038876,0.039078,0.71305,-0.054792,0.16705,-0.069408,-0.036927
462,-0.033679,0.045574,0.85694,-0.057715,0.3876,-0.081101,-0.026858
463,-0.027183,0.057592,0.94237,-0.047646,0.54773,-0.094093,-0.023285
464,-0.021661,0.072208,0.96803,-0.030431,0.65004,-0.11228,-0.022961
465,-0.021012,0.0852,0.95406,-0.010943,0.69064,-0.13567,-0.021986
466,-0.02426,0.093321,0.92483,0.0095202,0.66628,-0.16198,-0.017114
467,-0.028482,0.098193,0.8956,0.027385,0.59125,-0.18764,-0.0089938
468,-0.030431,0.099817,0.86994,0.040377,0.49446,-0.20453,-0.0034721
469,-0.029457,0.096893,0.83128,0.04395,0.41066,-0.2068,0.00010078
470,-0.025234,0.090397,0.73611,0.037454,0.36194,-0.19381,0.0020496
471,-0.021337,0.07708,0.48861,0.019914,0.34505,-0.16912,0.0056225
472,-0.018738,0.055968,-0.037577,-0.0050961,0.34342,-0.14087,0.014392
473,-0.017439,0.027709,-0.83336,-0.032705,0.3353,-0.1178,0.030308
474,-0.017114,-0.0028225,-1.6915,-0.057715,0.30574,-0.10286,0.045249
475,-0.020362,-0.028807,-2.3457,-0.07493,0.24955,-0.093769,0.055968
476,-0.025884,-0.04927,-2.6091,-0.078178,0.16478,-0.090845,0.058891
477,-0.033354,-0.061288,-2.4522,-0.070707,0.067011,-0.092794,0.055318
478,-0.039201,-0.065835,-1.9838,-0.056416,-0.02361,-0.096692,0.048172
479,-0.037252,-0.064536,-1.3849,-0.038876,-0.085973,-0.094418,0.04395
480,-0.029457,-0.055766,-0.82556,-0.022311,-0.11261,-0.0824,0.045574
481,-0.013866,-0.040825,-0.41013,-0.011267,-0.10091,-0.059989,0.051745
482,0.0020496,-0.025884,-0.16328,-0.0060706,-0.06616,-0.031081,0.054019
483,0.012768,-0.01614,-0.050244,-0.0089938,-0.029782,-0.00022403,0.050446
484,0.013743,-0.012242,-0.014516,-0.013216,-0.0080194,0.029333,0.042001
485,0.0056225,-0.008669,0.00010078,-0.01484,0.00010078,0.053369,0.036804
486,-0.0093186,-0.0054209,0.02641,-0.011267,0.0088706,0.069285,0.037129
487,-0.025234,-0.0021729,0.072208,-0.0054209,0.029333,0.078055,0.040052
488,-0.034329,-0.0015233,0.14009,-0.0018481,0.065387,0.081303,0.042326
489,-0.033679,-0.0034721,0.22617,-0.0047713,0.10924,0.078379,0.03518
490,-0.024585,-0.0060706,0.31744,-0.010943,0.15049,0.065712,0.022512
491,-0.013866,-0.0067202,0.39539,-0.015815,0.17582,0.045249,0.0072465
492,-0.0076946,-0.0057458,0.44606,-0.015815,0.1768,0.021213,-0.0015233
493,-0.0037969,-0.007045,0.46815,-0.010293,0.15114,0.0043233,0.00042559
494,-0.0031473,-0.0073698,0.4662,0.00010078,0.10566,-0.0041217,0.013093
495,-0.0034721,-0.0037969,0.44671,0.013093,0.051745,-0.0037969,0.030633
496,-0.0028225,0.0036737,0.4152,0.026085,-0.011917,0.0033489,0.044924
497,0.0014,0.010495,0.38078,0.03453,-0.10156,0.015367,0.051096
498,0.0091954,0.014392,0.35187,0.033556,-0.23733,0.025436,0.05207
499,0.020564,0.016341,0.33563,0.023812,-0.41533,0.025111,0.050771
500,0.034206,0.017965,0.32816,0.0078962,-0.60437,0.014068,0.048497
501,0.045574,0.020239,0.32198,-0.0057458,-0.75832,-0.0044465,0.051745
502,0.047847,0.021863,0.30997,-0.0099683,-0.83563,-0.02361,0.056942
503,0.040377,0.019264,0.28593,-0.00087364,-0.81484,-0.039851,0.063438
504,0.027385,0.012443,0.25702,0.018615,-0.69921,-0.050894,0.065387
505,0.018615,0.0036737,0.23429,0.045249,-0.50433,-0.055116,0.06019
506,0.021863,-0.0050961,0.21967,0.072858,-0.25975,-0.050244,0.047198
507,0.03518,-0.013216,0.20603,0.092021,-0.013541,-0.037902,0.032906
508,0.047198,-0.018088,0.18232,0.096244,0.18622,-0.020687,0.021538
509,0.048172,-0.019388,0.14302,0.092346,0.30737,0.00042559,0.013093
510,0.039727,-0.013866,0.098517,0.088773,0.34147,0.023162,0.0095202
511,0.029658,-0.0047713,0.055968,0.087799,0.30737,0.04395,0.0095202
512,0.020564,0.0052977,0.023487,0.082277,0.24241,0.056617,0.011144
513,0.013743,0.0091954,0.0062721,0.072858,0.17485,0.058891,0.012119
514,0.0062721,0.0033489,0.00042559,0.061814,0.12223,0.055643,0.014392
515,-0.0041217,-0.0054209,0.0049729,0.052395,0.087474,0.052395,0.016666
516,-0.012892,-0.011917,0.014717,0.045574,0.071234,0.053694,0.019914
517,-0.013541,-0.010943,0.026735,0.040052,0.067661,0.057592,0.025761
518,-0.0028225,-0.0083442,0.051096,0.032257,0.055968,0.061814,0.03453
519,0.016016,-0.0099683,0.11086,0.020564,0.019914,0.064737,0.039078
520,0.032257,-0.018088,0.21935,0.012119,-0.038227,0.063113,0.03583
521,0.042651,-0.032055,0.35447,0.0088706,-0.094743,0.054993,0.023812
522,0.046873,-0.047646,0.47367,0.0078962,-0.12268,0.044275,0.0095202
523,0.041351,-0.060963,0.53441,0.0036737,-0.099615,0.03453,-0.0044465
524,0.027709,-0.06681,0.5146,-0.0089938,-0.024585,0.030633,-0.012567
525,0.014717,-0.062587,0.42397,-0.028157,0.081303,0.033881,-0.012892
526,0.0078962,-0.048945,0.2908,-0.048296,0.17907,0.038103,-0.0067202
527,0.0062721,-0.034654,0.14464,-0.059664,0.23201,0.033231,0.003024
528,0.0046481,-0.02426,0.0017248,-0.057065,0.21123,0.012443,0.0095202
529,0.00042559,-0.018738,-0.12463,-0.043099,0.10079,-0.024909,0.0085458
530,-0.0037969,-0.016464,-0.22044,-0.026533,-0.090845,-0.071682,-0.0015233
531,-0.0099683,-0.01614,-0.27858,-0.013866,-0.32698,-0.11618,-0.023285
532,-0.015815,-0.01614,-0.29742,-0.0050961,-0.55597,-0.14736,-0.046347
533,-0.023285,-0.01614,-0.28703,0.0020496,-0.72714,-0.16035,-0.061613
534,-0.032055,-0.014516,-0.26267,0.012768,-0.81257,-0.15451,-0.069083
535,-0.039201,-0.012242,-0.23961,0.022188,-0.80899,-0.13112,-0.071357
536,-0.042449,-0.0089938,-0.22174,0.025436,-0.73429,-0.10026,-0.072006
537,-0.036278,-0.0067202,-0.20972,0.022512,-0.61281,-0.075579,-0.072331
538,-0.025234,-0.0076946,-0.20193,0.012119,-0.4647,-0.06551,-0.072006
539,-0.01549,-0.012567,-0.19901,-0.0050961,-0.31042,-0.070058,-0.070382
540,-0.010293,-0.020362,-0.19933,-0.02426,-0.17237,-0.079152,-0.070058
541,-0.0076946,-0.025559,-0.20193,-0.037902,-0.062262,-0.080776,-0.070058
542,-0.0050961,-0.02426,-0.20778,-0.040825,0.01894,-0.073306,-0.067784
543,-0.0011985,-0.018413,-0.2159,-0.034654,0.077405,-0.059014,-0.060963
544,0.0039985,-0.010618,-0.22304,-0.024909,0.12125,-0.044398,-0.04862
545,0.0085458,-0.0011985,-0.22207,-0.01484,0.15049,-0.031406,-0.033679
546,0.014392,0.0072465,-0.21102,-0.0054209,0.16185,-0.021661,-0.019063
547,0.020888,0.010819,-0.19446,0.00010078,0.15244,-0.01549,-0.0076946
548,0.025436,0.01017,-0.17984,0.0036737,0.1362,-0.013866,0.00010078
549,0.027385,0.0059473,-0.16718,0.0065969,0.13522,-0.019063,0.0039985
550,0.024461,0.0020496,-0.15288,0.0075714,0.17582,-0.028157,0.0023744
551,0.019914,0.0033489,-0.13827,0.0078962,0.26872,-0.036927,-0.0054209
552,0.015042,0.012443,-0.12138,0.011144,0.39669,-0.045047,-0.015815
553,0.01017,0.029983,-0.10514,0.016991,0.51297,-0.053492,-0.02426
554,0.0043233,0.056617,-0.090521,0.021538,0.57014,-0.062912,-0.028482
555,-0.0041217,0.088773,-0.080776,0.022512,0.55,-0.069733,-0.029457
556,-0.011917,0.12028,-0.07493,0.024137,0.4688,-0.068758,-0.024585
557,-0.019388,0.14237,-0.066485,0.029333,0.35317,-0.060963,-0.01484
558,-0.02426,0.15731,-0.056416,0.037129,0.23559,-0.050894,-0.0057458
559,-0.029132,0.169,-0.041799,0.047198,0.13587,-0.040825,0.0026992
560,-0.035953,0.18199,-0.021661,0.06084,0.065712,-0.028807,0.012443
561,-0.037902,0.19596,0.016341,0.074482,0.024461,-0.01484,0.021538
562,-0.031081,0.20473,0.074157,0.08585,0.0046481,0.00042559,0.027385
563,-0.012892,0.20278,0.13652,0.095594,-0.0067202,0.014068,0.033231
564,0.0085458,0.18784,0.17615,0.10371,-0.017114,0.029333,0.038428
565,0.022512,0.15958,0.17777,0.10534,-0.024909,0.044599,0.045249
566,0.024137,0.12093,0.13847,0.095919,-0.026209,0.061489,0.05142
567,0.023812,0.076431,0.073182,0.078055,-0.023935,0.076755,0.054019
568,0.028034,0.030633,0.0017248,0.054344,-0.019712,0.090722,0.05272
569,0.035505,-0.014516,-0.055766,0.030633,-0.013216,0.10436,0.050771
570,0.039402,-0.064861,-0.090845,0.011794,-0.00087364,0.11378,0.050121
571,0.040052,-0.12852,-0.10481,0.0023744,0.015042,0.11671,0.048822
572,0.037129,-0.21265,-0.10546,0.0010752,0.037454,0.11508,0.04395
573,0.031282,-0.30424,-0.090521,0.0036737,0.075131,0.11313,0.034855
574,0.020564,-0.37668,-0.053492,0.0049729,0.13132,0.11801,0.02641
575,0.008221,-0.40428,0.008221,0.00010078,0.19791,0.13002,0.023162
576,-0.0063954,-0.38025,0.086824,-0.0076946,0.26255,0.14659,0.02641
577,-0.018413,-0.31594,0.16445,-0.016464,0.30347,0.16413,0.032906
578,-0.027183,-0.23409,0.23429,-0.02361,0.30412,0.1781,0.037778
579,-0.030106,-0.15288,0.28821,-0.031081,0.26807,0.18557,0.038103
580,-0.027183,-0.083375,0.29925,-0.039526,0.21188,0.18459,0.032906
581,-0.021012,-0.03238,0.20376,-0.046671,0.15828,0.1742,0.027385
582,-0.016464,-0.0021729,-0.028482,-0.050569,0.11898,0.15601,0.02641
583,-0.013541,0.010495,-0.33672,-0.054792,0.095594,0.13392,0.026735
584,-0.0093186,0.012768,-0.60144,-0.055441,0.084876,0.11086,0.029983
585,-0.0063954,0.013093,-0.71642,-0.049595,0.083576,0.089098,0.036479
586,-0.0021729,0.015042,-0.65601,-0.036602,0.092671,0.070584,0.0433
587,0.0017248,0.019589,-0.47574,-0.018413,0.11183,0.055968,0.047523
588,0.008221,0.028034,-0.26722,-0.00054884,0.13425,0.044924,0.048172
589,0.014717,0.038428,-0.10936,0.013093,0.15796,0.038103,0.042001
590,0.01764,0.052395,-0.038227,0.022837,0.17777,0.033231,0.030308
591,0.016991,0.06831,-0.042449,0.029333,0.18297,0.026085,0.016991
592,0.013093,0.082927,-0.085973,0.03518,0.15471,0.015042,0.0088706
593,0.0059473,0.093645,-0.13697,0.041351,0.071234,-0.00022403,0.010495
594,-0.0015233,0.098193,-0.17335,0.050121,-0.059014,-0.01614,0.022837
595,-0.0041217,0.096244,-0.19316,0.057267,-0.20031,-0.029132,0.038753
596,0.00010078,0.090072,-0.19966,0.057267,-0.32243,-0.028482,0.051745
597,0.0095202,0.087474,-0.18342,0.053369,-0.40266,-0.012892,0.060515
598,0.019264,0.089098,-0.10481,0.047198,-0.42865,0.014392,0.063438
599,0.029009,0.093645,0.056617,0.042651,-0.40591,0.04395,0.056942
600,0.037778,0.098193,0.25637,0.040052,-0.35037,0.06961,0.041676
601,0.04395,0.10047,0.41975,0.035505,-0.28151,0.0852,0.024786
602,0.041351,0.098193,0.48959,0.027385,-0.21492,0.087799,0.013743
603,0.028684,0.089423,0.45905,0.01829,-0.16718,0.080328,0.0072465
604,0.010495,0.076106,0.36551,0.0075714,-0.15126,0.06896,0.00042559
605,-0.0047713,0.064413,0.2606,-0.0044465,-0.17465,0.055643,-0.012242
606,-0.011592,0.06019,0.18134,-0.013541,-0.22337,0.041351,-0.029457
607,-0.0089938,0.062789,0.14594,-0.020037,-0.26527,0.021538,-0.04992
608,-0.0024977,0.067661,0.15081,-0.022311,-0.26851,-0.0050961,-0.069733
609,0.00075039,0.067011,0.19304,-0.023935,-0.21167,-0.040175,-0.08305
610,-0.0011985,0.058566,0.27326,-0.031406,-0.079477,-0.080776,-0.084999
611,-0.007045,0.039727,0.36713,-0.045047,0.11931,-0.12105,-0.080451
612,-0.017114,0.0091954,0.42235,-0.060638,0.34797,-0.15646,-0.073306
613,-0.027183,-0.025234,0.40384,-0.074605,0.55682,-0.18536,-0.066485
614,-0.035303,-0.056416,0.31257,-0.08305,0.69454,-0.2068,-0.062587
615,-0.038227,-0.073955,0.1729,-0.086948,0.72475,-0.22499,-0.065186
616,-0.036602,-0.073955,0.022837,-0.081426,0.64679,-0.24286,-0.068434
617,-0.031406,-0.060313,-0.10806,-0.069408,0.49641,-0.2591,-0.064536
618,-0.025884,-0.043423,-0.2016,-0.050894,0.32751,-0.26916,-0.053492
619,-0.019388,-0.02426,-0.25455,-0.030431,0.18459,-0.27046,-0.038551
620,-0.012242,-0.0076946,-0.26916,-0.0067202,0.09462,-0.25845,-0.022311
621,-0.00054884,0.0078962,-0.25422,0.014717,0.058241,-0.23311,-0.0054209
622,0.013418,0.020239,-0.22304,0.033881,0.063438,-0.19608,0.012443
623,0.02641,0.027385,-0.19121,0.049147,0.087149,-0.15256,0.026085
624,0.033556,0.028359,-0.16458,0.055643,0.10534,-0.11358,0.028359
625,0.035505,0.023812,-0.15126,0.055643,0.10534,-0.087922,0.020564
626,0.031932,0.016016,-0.15158,0.049796,0.089423,-0.076229,0.0085458
627,0.02641,0.013093,-0.15873,0.040377,0.056942,-0.076229,-0.0015233
628,0.019914,0.016666,-0.16003,0.027709,0.01829,-0.080127,-0.0041217
629,0.013743,0.025111,-0.15061,0.018615,-0.018738,-0.081426,-0.00022403
630,0.0085458,0.031282,-0.13502,0.013418,-0.053492,-0.080451,0.003024
631,0.00075039,0.032906,-0.12008,0.012443,-0.088572,-0.081751,0.003024
632,-0.0093186,0.030308,-0.10871,0.011469,-0.12852,-0.089871,0.0017248
633,-0.017439,0.025111,-0.09929,0.0091954,-0.18504,-0.10254,0.00042559
634,-0.020037,0.021213,-0.088572,0.0062721,-0.26332,-0.11163,-0.00087364
635,-0.019063,0.019589,-0.072331,0.0033489,-0.35491,-0.11326,-0.0041217
636,-0.012567,0.01764,-0.056741,0.0043233,-0.43774,-0.10319,-0.0089938
637,-0.0031473,0.015367,-0.048296,0.010819,-0.48873,-0.082725,-0.012892
638,0.0065969,0.012768,-0.052843,0.022512,-0.49945,-0.05804,-0.012242
639,0.016666,0.011469,-0.069408,0.033881,-0.47802,-0.033354,-0.0037969
640,0.02706,0.014392,-0.084674,0.040052,-0.43969,-0.013541,0.0091954
641,0.03453,0.019589,-0.061937,0.039727,-0.39876,0.00042559,0.021538
642,0.035505,0.02641,0.038428,0.03453,-0.35914,0.011144,0.031607
643,0.031282,0.028359,0.22162,0.026735,-0.32146,0.016991,0.036804
644,0.023812,0.026735,0.43957,0.019914,-0.28346,0.016341,0.041351
645,0.016016,0.020888,0.61626,0.016666,-0.25098,0.011469,0.046548
646,0.0072465,0.011469,0.69227,0.01894,-0.22564,0.0046481,0.05207
647,-0.0021729,0.0026992,0.64809,0.024137,-0.2055,-0.00087364,0.052395
648,-0.010293,-0.0034721,0.5094,0.027385,-0.18634,-0.0015233,0.045574
649,-0.015815,-0.0050961,0.32653,0.02641,-0.16523,0.0026992,0.034206
650,-0.019063,-0.0037969,0.14984,0.02641,-0.15158,0.008221,0.023162
651,-0.019063,-0.0021729,0.01829,0.028684,-0.15743,0.014392,0.01764
652,-0.016789,-0.0028225,-0.05739,0.031282,-0.18894,0.019914,0.013418
653,-0.012892,-0.0073698,-0.083375,0.030308,-0.23831,0.023812,0.008221
654,-0.007045,-0.014191,-0.079802,0.02706,-0.2919,0.023162,0.0026992
655,-0.00087364,-0.022636,-0.059989,0.026085,-0.3351,0.017965,0.0014
656,0.0017248,-0.030431,-0.043748,0.030308,-0.36076,0.0065969,0.0043233
657,0.0023744,-0.037252,-0.039526,0.034855,-0.36563,-0.0060706,0.011469
658,0.0069217,-0.040175,-0.046671,0.033231,-0.35134,-0.013866,0.020888
659,0.014717,-0.036278,-0.056416,0.02641,-0.32178,-0.014516,0.029333
660,0.023487,-0.026858,-0.05804,0.021863,-0.27956,-0.0047713,0.030957
661,0.030633,-0.017439,-0.045372,0.025111,-0.21947,0.012119,0.025436
662,0.03453,-0.010293,-0.018738,0.03583,-0.13502,0.029333,0.018615
663,0.035505,-0.0050961,0.016341,0.048822,-0.027508,0.039078,0.015692
664,0.030957,-0.0057458,0.05272,0.058566,0.0865,0.041351,0.015042
665,0.019914,-0.010618,0.084551,0.063113,0.18589,0.044275,0.013418
666,0.0039985,-0.013541,0.10826,0.059216,0.25767,0.050446,0.011469
667,-0.0083442,-0.0034721,0.12353,0.047523,0.30542,0.057917,0.0078962
668,-0.012892,0.024137,0.1323,0.030957,0.3379,0.064088,0.0023744
669,-0.01549,0.064088,0.13392,0.015692,0.36778,0.069934,-0.0031473
670,-0.020037,0.10534,0.11443,0.0056225,0.40319,0.079354,-0.0057458
671,-0.022961,0.13457,0.043625,-0.0041217,0.43729,0.092021,-0.0050961
672,-0.021337,0.14139,-0.095393,-0.012892,0.45938,0.10501,-0.0018481
673,-0.017114,0.1271,-0.27274,-0.020362,0.4623,0.11768,0.0039985
674,-0.011917,0.098193,-0.4215,-0.025559,0.44834,0.12905,0.013743
675,-0.013541,0.06084,-0.48614,-0.024909,0.42527,0.13847,0.022837
676,-0.023935,0.024786,-0.45138,-0.025884,0.40838,0.14951,0.022837
677,-0.036927,-0.0041217,-0.34257,-0.026533,0.40189,0.15893,0.013093
678,-0.043748,-0.021337,-0.20875,-0.027508,0.40221,0.16575,-0.00087364
679,-0.038227,-0.031081,-0.096042,-0.028807,0.39896,0.16965,-0.013216
680,-0.019388,-0.03303,-0.03173,-0.03173,0.39279,0.16673,-0.020362
681,0.0043233,-0.03303,-0.013541,-0.034004,0.38175,0.15244,-0.02426
682,0.024461,-0.034329,-0.02426,-0.033679,0.34635,0.12807,-0.022311
683,0.035505,-0.037902,-0.043423,-0.035628,0.25215,0.093645,-0.021661
684,0.038753,-0.0405,-0.057715,-0.043423,0.076755,0.050446,-0.026858
685,0.034855,-0.042774,-0.061613,-0.053492,-0.15223,0.0023744,-0.032055
686,0.020564,-0.044398,-0.057065,-0.055766,-0.36758,-0.039201,-0.039201
687,0.0026992,-0.044398,-0.048296,-0.046996,-0.50368,-0.067134,-0.048296
688,-0.0099683,-0.0405,-0.037902,-0.03173,-0.53128,-0.079477,-0.059014
689,-0.013866,-0.033354,-0.029132,-0.01614,-0.45983,-0.081101,-0.068434
690,-0.010943,-0.026533,-0.02426,-0.0054209,-0.32503,-0.07493,-0.073306
691,-0.0076946,-0.019388,-0.025884,0.00010078,-0.17465,-0.063886,-0.070058
692,-0.0054209,-0.011592,-0.036602,0.0072465,-0.045697,-0.052518,-0.060638
693,-0.0057458,-0.0041217,-0.060638,0.012768,0.047198,-0.043423,-0.04992
694,-0.0050961,0.0052977,-0.098641,0.015042,0.10144,-0.038876,-0.040175
695,-0.0044465,0.015367,-0.14541,0.015042,0.12418,-0.04115,-0.033354
696,-0.0057458,0.024137,-0.19316,0.012768,0.12093,-0.047321,-0.028157
697,-0.0063954,0.030957,-0.22856,0.011794,0.10242,-0.059339,-0.023285
698,0.0026992,0.036804,-0.24123,0.013093,0.079354,-0.073306,-0.019388
699,0.01764,0.042326,-0.22889,0.014717,0.064088,-0.082725,-0.01549
700,0.032906,0.045574,-0.19771,0.019264,0.06084,-0.080776,-0.0096434
701,0.043625,0.044599,-0.14964,0.021863,0.064088,-0.068109,-0.0044465
702,0.050121,0.037778,-0.084999,0.01894,0.059216,-0.053817,-0.0028225
703,0.050446,0.028359,-0.0089938,0.014068,0.035505,-0.044723,-0.0028225
704,0.046873,0.017316,0.074157,0.0069217,-0.0073698,-0.041799,-0.0050961
705,0.041351,0.0033489,0.1755,0.00042559,-0.063886,-0.042774,-0.0067202
706,0.037129,-0.019388,0.31257,-0.0037969,-0.12495,-0.047321,-0.008669
707,0.031282,-0.053817,0.48147,-0.0047713,-0.18894,-0.053168,-0.011267
708,0.025761,-0.091495,0.65524,-0.0050961,-0.26104,-0.059014,-0.013866
709,0.023162,-0.11943,0.78646,-0.0083442,-0.34809,-0.064211,-0.015815
710,0.022188,-0.13145,0.82316,-0.017764,-0.43514,-0.069408,-0.01484
711,0.019589,-0.12722,0.73936,-0.031081,-0.48906,-0.07493,-0.011267
712,0.012768,-0.10903,0.55357,-0.043423,-0.47542,-0.078827,-0.0096434
713,0.00010078,-0.086298,0.32004,-0.051219,-0.38674,-0.077203,-0.0096434
714,-0.012242,-0.063561,0.10306,-0.054142,-0.24708,-0.070058,-0.012242
715,-0.019388,-0.042774,-0.04927,-0.052518,-0.091495,-0.059664,-0.014516
716,-0.021986,-0.027508,-0.12203,-0.047971,0.055318,-0.047646,-0.013216
717,-0.021012,-0.017114,-0.12787,-0.044723,0.18362,-0.036278,-0.008669
718,-0.021337,-0.011592,-0.09994,-0.040825,0.29503,-0.02361,-0.0041217
719,-0.019712,-0.0096434,-0.067459,-0.036278,0.39409,-0.0080194,-0.0031473
720,-0.019388,-0.0060706,-0.04992,-0.029782,0.48374,0.010495,-0.0044465
721,-0.021661,-0.0028225,-0.047971,-0.022636,0.55747,0.026735,-0.008669
722,-0.031406,0.0010752,-0.056091,-0.016789,0.5997,0.040377,-0.01614
723,-0.047321,0.0072465,-0.067459,-0.010943,0.60197,0.048172,-0.023285
724,-0.065835,0.016991,-0.077853,-0.0041217,0.56754,0.048172,-0.026533
725,-0.080776,0.029983,-0.086623,0.00042559,0.5042,0.041676,-0.022961
726,-0.087922,0.042651,-0.093444,-0.00054884,0.42138,0.033881,-0.0099683
727,-0.086298,0.051096,-0.097017,-0.0073698,0.32523,0.025111,0.0059473
728,-0.075579,0.054344,-0.097341,-0.011917,0.21123,0.015042,0.018615
729,-0.059339,0.053694,-0.094093,-0.0063954,0.073832,-0.00054884,0.02641
730,-0.039526,0.05142,-0.090845,0.011144,-0.081426,-0.020687,0.030633
731,-0.020362,0.047847,-0.093769,0.03453,-0.24513,-0.039851,0.035505
732,-0.0050961,0.04395,-0.10741,0.055968,-0.41435,-0.05739,0.042001
733,0.0049729,0.039078,-0.12982,0.067986,-0.593,-0.077203,0.049147
734,0.012119,0.034206,-0.15548,0.064413,-0.77521,-0.10611,0.051096
735,0.01829,0.028034,-0.1753,0.049472,-0.94217,-0.13664,0.045574
736,0.021863,0.020564,-0.18634,0.029983,-1.0614,-0.16165,0.036804
737,0.021538,0.013418,-0.18959,0.016341,-1.1033,-0.17497,0.029333
738,0.019264,0.01017,-0.18829,0.014717,-1.0545,-0.17432,0.024786
739,0.021213,0.011144,-0.18439,0.024137,-0.92852,-0.1623,0.02706
740,0.029658,0.015367,-0.18049,0.038753,-0.7541,-0.14087,0.034206
741,0.040052,0.020239,-0.17659,0.052395,-0.56149,-0.11391,0.042326
742,0.044924,0.024461,-0.17822,0.061489,-0.36953,-0.088247,0.045899
743,0.042651,0.02706,-0.19056,0.064088,-0.19901,-0.071032,0.045899
744,0.034206,0.028359,-0.21297,0.06084,-0.067784,-0.067134,0.0433
745,0.024461,0.029009,-0.23506,0.051745,0.024137,-0.071032,0.041351
746,0.015042,0.02641,-0.24026,0.037454,0.092671,-0.07428,0.040052
747,0.003024,0.021538,-0.22272,0.020888,0.16413,-0.068434,0.040052
748,-0.010618,0.01829,-0.18601,0.0075714,0.25475,-0.050244,0.0433
749,-0.021012,0.018615,-0.13924,0.00010078,0.36129,-0.020037,0.048822
750,-0.028157,0.022837,-0.084349,0.003024,0.45386,0.013743,0.053044
751,-0.030756,0.028034,-0.020687,0.016991,0.50388,0.043625,0.057267
752,-0.031081,0.032257,0.047198,0.03583,0.50713,0.064737,0.055968
753,-0.035628,0.03453,0.11151,0.053369,0.46815,0.076431,0.050121
754,-0.044398,0.035505,0.1677,0.066686,0.39604,0.080003,0.042651
755,-0.052518,0.037778,0.2044,0.074157,0.30672,0.080978,0.037454
756,-0.053168,0.0433,0.21058,0.073182,0.21805,0.084551,0.03518
757,-0.044723,0.054019,0.19531,0.065712,0.14626,0.094945,0.036154
758,-0.029132,0.065387,0.19304,0.055968,0.095594,0.11021,0.042326
759,-0.012567,0.072858,0.24176,0.045574,0.061489,0.1258,0.050771
760,-0.0034721,0.073832,0.35479,0.034206,0.035505,0.14172,0.05207
761,-0.0024977,0.06961,0.50518,0.025436,0.0095202,0.15438,0.042326
762,-0.007045,0.066362,0.63802,0.019589,-0.020362,0.15341,0.025436
763,-0.013866,0.068635,0.70428,0.016341,-0.053492,0.13749,0.010819
764,-0.018413,0.074482,0.6848,0.017316,-0.082076,0.10859,0.0043233
765,-0.019063,0.085525,0.59255,0.021213,-0.10026,0.074482,0.01017
766,-0.011917,0.097218,0.46165,0.02706,-0.11196,0.041027,0.020888
767,-0.00022403,0.10306,0.33238,0.033881,-0.123,0.01017,0.029658
768,0.011794,0.10144,0.22909,0.042001,-0.12527,-0.010618,0.029983
769,0.023162,0.094295,0.15503,0.053369,-0.10514,-0.018738,0.024786
770,0.033556,0.082602,0.10047,0.066362,-0.050894,-0.016789,0.01764
771,0.040702,0.069934,0.051096,0.073507,0.042326,-0.0093186,0.011469
772,0.044275,0.057917,0.0033489,0.073507,0.15698,0.0017248,0.0078962
773,0.050446,0.046873,-0.034329,0.067661,0.26677,0.01829,0.010495
774,0.057917,0.03518,-0.050894,0.058891,0.35154,0.037778,0.015692
775,0.062464,0.024786,-0.039851,0.049796,0.40351,0.054993,0.018615
776,0.058891,0.017965,-0.008669,0.042975,0.42495,0.067986,0.016341
777,0.048822,0.015367,0.027709,0.036479,0.4256,0.074482,0.011469
778,0.038428,0.015692,0.053369,0.028359,0.4152,0.078055,0.0052977
779,0.030308,0.014392,0.059216,0.014392,0.40091,0.080328,0.0010752
780,0.025436,0.0069217,0.033556,-0.0021729,0.38272,0.075781,-0.00054884
781,0.023162,-0.0031473,-0.038551,-0.014191,0.36324,0.063438,-0.00087364
782,0.019914,-0.013216,-0.15905,-0.020687,0.34115,0.046223,-0.0031473
783,0.016016,-0.02361,-0.30652,-0.021337,0.30867,0.031932,-0.0047713
784,0.014392,-0.029782,-0.43449,-0.019388,0.2606,0.02706,-0.0034721
785,0.015367,-0.031081,-0.50303,-0.01549,0.18881,0.033881,0.0014
786,0.016666,-0.028157,-0.5001,-0.008669,0.097868,0.048172,0.0046481
787,0.017316,-0.023935,-0.44196,0.00042559,-0.0034721,0.057592,0.0036737
788,0.016666,-0.018738,-0.36401,0.013743,-0.096692,0.058241,-0.00087364
789,0.019589,-0.012892,-0.30359,0.02641,-0.1662,0.050771,-0.0089938
790,0.025111,-0.007045,-0.28378,0.033231,-0.2042,0.036804,-0.019388
791,0.028359,-0.0044465,-0.29905,0.029009,-0.20713,0.019264,-0.028157
792,0.020564,-0.0063954,-0.32828,0.017316,-0.17984,-0.0054209,-0.032705
793,0.0046481,-0.0089938,-0.34972,0.0052977,-0.12722,-0.034978,-0.032705
794,-0.010293,-0.011917,-0.34907,-0.0028225,-0.062912,-0.067134,-0.030106
795,-0.016789,-0.017439,-0.3286,-0.0060706,0.0052977,-0.096367,-0.026533
796,-0.012892,-0.023285,-0.301,-0.0024977,0.076431,-0.11683,-0.023935
797,-0.00054884,-0.024909,-0.28021,0.0049729,0.14594,-0.12398,-0.020687
798,0.012119,-0.018088,-0.27826,0.016341,0.2083,-0.1191,-0.013866
799,0.01829,-0.0096434,-0.2932,0.02641,0.25215,-0.10449,-0.0041217
800,0.020888,-0.0054209,-0.31236,0.03453,0.25605,-0.085324,0.0062721
801,0.017316,-0.0024977,-0.32438,0.037129,0.20668,-0.066485,0.014717
802,0.011469,-0.0011985,-0.32666,0.034855,0.11963,-0.053817,0.022188
803,0.0072465,0.0014,-0.32178,0.027709,0.019914,-0.051544,0.029009
804,0.009845,0.0023744,-0.31854,0.019914,-0.069408,-0.054467,0.03583
805,0.017965,-0.00054884,-0.31496,0.013418,-0.13112,-0.055766,0.039727
806,0.029658,-0.0060706,-0.29645,0.0072465,-0.16068,-0.050244,0.041027
807,0.037778,-0.011917,-0.21914,-0.0015233,-0.16815,-0.036278,0.038428
808,0.033556,-0.01549,-0.055116,-0.016789,-0.17302,-0.016464,0.032257
809,0.016666,-0.021986,0.16933,-0.037902,-0.20096,0.0059473,0.020888
810,-0.0031473,-0.035628,0.39279,-0.062587,-0.26494,0.026085,0.008221
811,-0.016789,-0.052193,0.55909,-0.0837,-0.36011,0.034206,-0.0031473
812,-0.021012,-0.064861,0.63413,-0.094093,-0.4647,0.024461,-0.013866
813,-0.021012,-0.070382,0.62146,-0.094418,-0.55662,0.0010752,-0.021986
814,-0.021661,-0.071357,0.5435,-0.088572,-0.61833,-0.025884,-0.02426
815,-0.019712,-0.068109,0.42885,-0.079802,-0.64302,-0.04862,-0.022311
816,-0.0063954,-0.063237,0.30964,-0.068434,-0.63782,-0.062587,-0.021337
817,0.020564,-0.055116,0.20538,-0.052518,-0.60631,-0.068434,-0.019712
818,0.051096,-0.045372,0.12515,-0.033679,-0.55175,-0.067134,-0.015165
819,0.06961,-0.036927,0.070259,-0.012892,-0.47867,-0.061288,-0.0080194
820,0.06961,-0.030106,0.037454,0.009845,-0.38934,-0.054142,-0.00022403
821,0.054344,-0.024909,0.020564,0.028684,-0.27631,-0.041475,0.0056225
822,0.034206,-0.020037,0.012443,0.039402,-0.12268,-0.019388,0.0095202
823,0.020564,-0.017439,0.0069217,0.044924,0.08585,0.0095202,0.013093
824,0.014717,-0.015815,0.0020496,0.045249,0.32783,0.04395,0.01764
825,0.013418,-0.016464,-0.0031473,0.041676,0.5552,0.081303,0.02641
826,0.013743,-0.015815,0.0014,0.034855,0.71825,0.11768,0.039078
827,0.015367,-0.012567,0.036479,0.028684,0.78938,0.14626,0.050771
828,0.014392,-0.0057458,0.11476,0.023487,0.77412,0.16153,0.056942
829,0.011469,0.0026992,0.23136,0.016341,0.69649,0.16023,0.058241
830,0.0046481,0.015367,0.36551,0.009845,0.588,0.14399,0.053369
831,-0.0031473,0.027385,0.48764,0.0056225,0.47789,0.11963,0.0433
832,-0.010943,0.030633,0.57566,0.0023744,0.38435,0.095594,0.031282
833,-0.015815,0.022837,0.62438,-0.0021729,0.30639,0.079354,0.019589
834,-0.014516,0.008221,0.64614,-0.0080194,0.23396,0.072208,0.010495
835,-0.0093186,-0.0054209,0.65686,-0.018088,0.15146,0.06961,0.0069217
836,-0.0054209,-0.011592,0.66628,-0.030756,0.05142,0.06084,0.01017
837,-0.0050961,-0.0096434,0.68804,-0.044723,-0.068109,0.041676,0.014068
838,-0.010618,-0.0037969,0.73741,-0.055116,-0.19966,0.011144,0.014068
839,-0.019388,-0.0047713,0.78484,-0.056741,-0.32925,-0.023285,0.010819
840,-0.030106,-0.020687,0.7137,-0.048945,-0.44034,-0.059014,0.0046481
841,-0.037902,-0.047646,0.33952,-0.040175,-0.51602,-0.090196,-0.0034721
842,-0.036278,-0.077853,-0.39649,-0.039851,-0.53128,-0.11293,-0.013866
843,-0.027508,-0.099615,-1.3008,-0.050244,-0.46307,-0.1269,-0.026209
844,-0.016464,-0.10774,-2.0764,-0.067134,-0.30424,-0.13534,-0.039851
845,-0.0093186,-0.09994,-2.4869,-0.082076,-0.075904,-0.14639,-0.051868
846,-0.0034721,-0.081101,-2.445,-0.089871,0.16868,-0.16295,-0.057065
847,0.0017248,-0.055766,-2.0277,-0.084674,0.36713,-0.17919,-0.054792
848,0.0065969,-0.028807,-1.4154,-0.062587,0.47562,-0.18407,-0.04992
849,0.012443,-0.0041217,-0.7947,-0.027833,0.48731,-0.16945,-0.047971
850,0.017965,0.019264,-0.2997,0.0091954,0.42527,-0.13664,-0.049595
851,0.020239,0.038753,0.024461,0.038753,0.33205,-0.097991,-0.056091
852,0.019589,0.053369,0.20798,0.051096,0.24955,-0.063237,-0.061937
853,0.015692,0.060515,0.30964,0.048822,0.19563,-0.036602,-0.063886
854,0.012119,0.061489,0.3785,0.038753,0.1716,-0.021986,-0.062262
855,0.013093,0.059216,0.43567,0.027709,0.16608,-0.019712,-0.060313
856,0.018615,0.056617,0.4636,0.023162,0.1625,-0.022636,-0.059664
857,0.021863,0.05272,0.39279,0.027385,0.14529,-0.023285,-0.059989
858,0.019264,0.044599,0.18362,0.03453,0.10989,-0.019063,-0.061288
859,0.011144,0.03583,-0.10546,0.038103,0.057917,-0.011592,-0.060638
860,-0.00054884,0.024786,-0.35134,0.03453,-0.0073698,-0.0054209,-0.055441
861,-0.016464,0.012443,-0.44651,0.027709,-0.080127,-0.0024977,-0.042774
862,-0.03173,0.0026992,-0.36173,0.021538,-0.15288,-0.0063954,-0.027833
863,-0.041799,0.0023744,-0.15581,0.019589,-0.21882,-0.019388,-0.014516
864,-0.042449,0.0049729,0.075131,0.021213,-0.27858,-0.036602,-0.0044465
865,-0.038227,0.0078962,0.25183,0.02706,-0.32958,-0.050244,-0.00054884
866,-0.03173,0.0085458,0.33887,0.038103,-0.3744,-0.053168,-0.0028225
867,-0.026858,0.011794,0.34732,0.053369,-0.41533,-0.0405,-0.008669
868,-0.019063,0.020564,0.31354,0.068635,-0.44813,-0.018088,-0.012567
869,-0.0083442,0.031607,0.27196,0.080003,-0.47087,0.0043233,-0.0096434
870,0.0033489,0.042651,0.24728,0.082602,-0.48549,0.019914,-0.00022403
871,0.011144,0.047523,0.24176,0.074157,-0.49458,0.024137,0.0085458
872,0.0088706,0.045574,0.24663,0.058566,-0.4975,0.014392,0.012443
873,-0.00087364,0.039727,0.25443,0.041351,-0.48679,-0.0034721,0.010819
874,-0.011592,0.032906,0.26222,0.027709,-0.46243,-0.021661,0.0065969
875,-0.020037,0.029009,0.26872,0.01894,-0.42475,-0.034654,0.0014
876,-0.026209,0.029658,0.27586,0.014068,-0.36985,-0.037577,-0.0054209
877,-0.028157,0.030633,0.28366,0.011469,-0.29807,-0.028482,-0.011267
878,-0.025234,0.028359,0.29048,0.0078962,-0.21655,-0.012242,-0.011592
879,-0.017764,0.023162,0.29405,0.0039985,-0.13502,0.0043233,-0.00054884
880,-0.0057458,0.020239,0.29308,0.00042559,-0.062912,0.014392,0.01829
881,0.0088706,0.021213,0.28593,-0.0015233,-0.0080194,0.018615,0.03583
882,0.025111,0.02706,0.27164,-0.0021729,0.021863,0.01764,0.045899
883,0.037129,0.032582,0.25443,0.0014,0.030957,0.0095202,0.050771
884,0.040377,0.03518,0.23656,0.0072465,0.022188,-0.00087364,0.051745
885,0.037129,0.034206,0.21675,0.010495,0.00075039,-0.0073698,0.050446
886,0.02706,0.033231,0.19596,0.010819,-0.027183,-0.010293,0.047523
887,0.014717,0.033881,0.17355,0.010819,-0.051219,-0.012242,0.041351
888,0.0043233,0.034855,0.15633,0.013093,-0.069408,-0.014191,0.032582
889,0.00042559,0.036154,0.14172,0.017316,-0.088247,-0.010618,0.025761
890,-0.00022403,0.037454,0.13197,0.021538,-0.11066,-0.00087364,0.021213
891,0.0026992,0.040052,0.12255,0.025111,-0.1308,0.011144,0.017965
892,0.0075714,0.0433,0.11216,0.029333,-0.13794,0.019914,0.016991
893,0.0091954,0.044924,0.10144,0.033881,-0.12235,0.023162,0.016341
894,0.0072465,0.042975,0.089423,0.037778,-0.0824,0.026085,0.01764
895,0.0020496,0.037129,0.075131,0.041351,-0.029782,0.032257,0.022188
896,-0.0041217,0.031932,0.062789,0.042651,0.019914,0.041027,0.028684
897,-0.0063954,0.026735,0.054993,0.038753,0.05272,0.045249,0.03583
898,-0.0044465,0.021213,0.053369,0.029658,0.066037,0.041676,0.039078
899,-0.0011985,0.016666,0.053694,0.022837,0.067336,0.030957,0.036154
900,0.003024,0.012768,0.053369,0.024786,0.064737,0.020239,0.032582
901,0.0059473,0.009845,0.049147,0.033556,0.068635,0.013418,0.030633
902,0.0062721,0.0075714,0.041351,0.043625,0.083576,0.016341,0.029983
903,0.0059473,0.0091954,0.030633,0.050771,0.10859,0.02641,0.030308
904,0.0078962,0.015042,0.019264,0.050771,0.12807,0.037778,0.031932
905,0.015042,0.020888,0.01017,0.045574,0.13522,0.047198,0.03453
906,0.025111,0.024461,0.0062721,0.038103,0.13035,0.054344,0.036154
907,0.032906,0.024461,0.0095202,0.028034,0.12678,0.063438,0.033231
908,0.032582,0.022512,0.017316,0.014392,0.13944,0.076106,0.028034
909,0.028034,0.01829,0.022512,0.00075039,0.1781,0.088124,0.020239
910,0.023162,0.014068,0.019589,-0.0060706,0.23916,0.094945,0.012768
911,0.01764,0.009845,0.011469,-0.0089938,0.30899,0.095269,0.0033489
912,0.0085458,0.0056225,0.0036737,-0.015165,0.37493,0.089423,-0.0096434
913,-0.0060706,-0.00087364,0.00010078,-0.024909,0.42235,0.076106,-0.025234
914,-0.02426,-0.0093186,-0.00054884,-0.034978,0.43729,0.058891,-0.040175
915,-0.043099,-0.018738,-0.00054884,-0.039851,0.4165,0.041351,-0.053492
916,-0.057715,-0.026533,-0.0044465,-0.035953,0.37395,0.028034,-0.062262
917,-0.064536,-0.031081,-0.012242,-0.026858,0.32816,0.021213,-0.06551
918,-0.063886,-0.030756,-0.018738,-0.017764,0.29535,0.022188,-0.064211
919,-0.059339,-0.027183,-0.020687,-0.012567,0.27424,0.025761,-0.061288
920,-0.055116,-0.021337,-0.014191,-0.014191,0.25345,0.024786,-0.059339
921,-0.046347,-0.012892,-0.0018481,-0.019712,0.22682,0.016341,-0.058365
922,-0.034329,-0.0054209,0.012119,-0.024909,0.20051,-0.00022403,-0.058365
923,-0.023935,-0.00022403,0.025111,-0.027508,0.17485,-0.01549,-0.060963
924,-0.016464,0.003024,0.037454,-0.02361,0.14496,-0.024909,-0.069083
925,-0.014191,0.0049729,0.050121,-0.018088,0.099492,-0.028482,-0.082076
926,-0.014191,0.0039985,0.061489,-0.013866,0.026085,-0.034654,-0.09182
927,-0.016789,0.00075039,0.071883,-0.015165,-0.090521,-0.04927,-0.090845
928,-0.018413,-0.0018481,0.079029,-0.018738,-0.2461,-0.071357,-0.080127
929,-0.018088,-0.0034721,0.067661,-0.022311,-0.4267,-0.099615,-0.062912
930,-0.014191,-0.0067202,0.00075039,-0.026858,-0.61184,-0.13242,-0.045697
931,-0.0076946,-0.012892,-0.14704,-0.030431,-0.77521,-0.16588,-0.03173
932,-0.00054884,-0.018738,-0.35004,-0.033354,-0.89377,-0.19673,-0.021661
933,0.0065969,-0.021337,-0.53713,-0.028482,-0.97042,-0.21947,-0.013866
934,0.014392,-0.017764,-0.63165,-0.017439,-1.0331,-0.23279,-0.0063954
935,0.01829,-0.0096434,-0.60339,-0.0034721,-1.0874,-0.23928,0.0033489
936,0.016991,-0.00087364,-0.47867,0.0078962,-1.1091,-0.24091,0.013418
937,0.010495,0.0085458,-0.31236,0.009845,-1.0682,-0.23149,0.01829
938,0.00010078,0.023487,-0.16425,0.008221,-0.95126,-0.20745,0.019589
939,-0.010618,0.043625,-0.066485,0.010495,-0.76839,-0.1662,0.018615
940,-0.017764,0.065062,-0.020037,0.021863,-0.5446,-0.10936,0.017316
941,-0.020687,0.083576,-0.010618,0.035505,-0.31009,-0.047321,0.01829
942,-0.019388,0.097543,-0.022311,0.04395,-0.0824,0.0062721,0.019264
943,-0.017114,0.10761,-0.040825,0.040702,0.13165,0.042651,0.017316
944,-0.019388,0.11443,-0.052518,0.029658,0.32718,0.06084,0.011144
945,-0.023935,0.11703,-0.050244,0.014392,0.49771,0.062789,0.0026992
946,-0.023935,0.11703,-0.033679,0.0023744,0.64322,0.059865,-0.0047713
947,-0.014191,0.11638,0.0023744,-0.0024977,0.77412,0.057917,-0.0034721
948,0.0052977,0.11995,0.055968,0.0065969,0.89657,0.064737,0.0052977
949,0.024786,0.12807,0.11508,0.023162,1.0047,0.083576,0.020888
950,0.038103,0.13327,0.16185,0.040377,1.0846,0.11378,0.039078
951,0.042651,0.12483,0.17939,0.050771,1.1223,0.14464,0.053694
952,0.041027,0.098842,0.1638,0.050446,1.0941,0.16445,0.061165
953,0.034206,0.054993,0.11671,0.037454,0.99564,0.1638,0.058891
954,0.021538,-0.0057458,0.050771,0.016666,0.84233,0.14204,0.048822
955,0.0065969,-0.078503,-0.023935,-0.0063954,0.64679,0.10761,0.038753
956,-0.0054209,-0.15938,-0.097341,-0.022961,0.43534,0.073182,0.03453
957,-0.0096434,-0.24545,-0.15938,-0.029132,0.24728,0.047847,0.038103
958,-0.0080194,-0.33088,-0.19673,-0.022961,0.098517,0.032906,0.046223
959,-0.0060706,-0.39292,-0.19998,-0.0093186,-0.013866,0.026735,0.057592
960,-0.0063954,-0.41273,-0.1714,0.0033489,-0.11586,0.026085,0.071883
961,-0.0093186,-0.3835,-0.123,0.011794,-0.23409,0.026735,0.086175
962,-0.012567,-0.31529,-0.071032,0.015042,-0.36953,0.029333,0.099167
963,-0.011267,-0.22824,-0.03173,0.014717,-0.49523,0.029658,0.10826
964,-0.0083442,-0.14314,-0.012242,0.013743,-0.57741,0.026735,0.10989
965,-0.0054209,-0.07493,-0.015165,0.012119,-0.60112,0.020239,0.10177
966,-0.0018481,-0.027508,-0.03238,0.0069217,-0.56831,0.0085458,0.088773
967,0.00075039,0.0010752,-0.054792,-0.00087364,-0.48971,-0.0050961,0.076106
968,0.00075039,0.01894,-0.070382,-0.0073698,-0.3822,-0.017764,0.065712
969,0.0014,0.029983,-0.072981,-0.0099683,-0.26722,-0.029457,0.057917
970,0.0020496,0.036154,-0.061288,-0.010618,-0.16165,-0.044073,0.052395
971,0.00075039,0.041676,-0.038227,-0.012892,-0.063886,-0.062262,0.049796
972,-0.0057458,0.051745,-0.014191,-0.017114,0.032257,-0.084674,0.045899
973,-0.011592,0.061489,0.0056225,-0.018738,0.12807,-0.10741,0.040702
974,-0.013866,0.067336,0.022188,-0.01549,0.22487,-0.12787,0.034206
975,-0.0093186,0.067986,0.034855,-0.0057458,0.32198,-0.14379,0.029333
976,-0.00087364,0.06896,0.047523,0.010495,0.40903,-0.15223,0.024137
977,0.008221,0.072533,0.062789,0.032582,0.47172,-0.14964,0.017965
978,0.016016,0.080003,0.080328,0.054344,0.50225,-0.13697,0.011469
979,0.018615,0.087149,0.096244,0.067986,0.50258,-0.1178,0.0072465
980,0.014392,0.093645,0.10371,0.071883,0.48374,-0.094743,0.0095202
981,0.0088706,0.094295,0.099167,0.06961,0.45451,-0.06681,0.019264
982,0.0085458,0.090397,0.082602,0.064088,0.42105,-0.035303,0.033881
983,0.013418,0.083901,0.059541,0.056292,0.38597,-0.0024977,0.046873
984,0.019264,0.075456,0.03453,0.049472,0.34635,0.027385,0.054344
985,0.025761,0.066037,-0.0011985,0.043625,0.30315,0.047523,0.056617
986,0.029658,0.058241,-0.063886,0.037778,0.25605,0.056617,0.054344
987,0.029333,0.053044,-0.15646,0.031932,0.20863,0.057267,0.052395
988,0.024137,0.052395,-0.25325,0.028359,0.16445,0.051096,0.049147
989,0.015042,0.057592,-0.32276,0.029658,0.12353,0.039078,0.042001
990,0.010495,0.062789,-0.34517,0.03583,0.083576,0.028034,0.031282
991,0.014717,0.061489,-0.31886,0.044924,0.048172,0.021538,0.019914
992,0.021538,0.051745,-0.2578,0.054668,0.019589,0.024461,0.010495
993,0.027709,0.036154,-0.18407,0.06019,-0.0034721,0.035505,0.0046481
994,0.028684,0.021213,-0.11943,0.056292,-0.025234,0.048172,0.0036737
995,0.022837,0.014392,-0.07493,0.042326,-0.04992,0.06019,0.0056225
996,0.012768,0.01894,-0.044398,0.021538,-0.079477,0.070259,0.0078962
997,0.0062721,0.03453,-0.011267,0.003024,-0.11391,0.078055,0.0052977
998,0.0056225,0.052395,0.049472,-0.0067202,-0.15353,0.084226,-0.0024977
999,0.010819,0.061814,0.16088,-0.0093186,-0.20063,0.080978,-0.01614
1000,0.022512,0.059541,0.31289,-0.0067202,-0.25162,0.067986,-0.030431
1001,0.03583,0.047847,0.46068,0.00010078,-0.28768,0.049472,-0.04115
1002,0.045574,0.033881,0.55487,0.0065969,-0.29353,0.034206,-0.044073
1003,0.045249,0.024461,0.56299,0.012443,-0.25877,0.029333,-0.042124
1004,0.036154,0.022188,0.48699,0.012768,-0.18764,0.033231,-0.038876
1005,0.026085,0.021538,0.35576,0.0056225,-0.09994,0.047523,-0.039526
1006,0.022837,0.022188,0.2109,-0.0073698,-0.025884,0.067336,-0.045372
1007,0.028034,0.01894,0.090722,-0.016464,0.023162,0.086824,-0.051219
1008,0.034206,0.0091954,0.016991,-0.017439,0.050446,0.099817,-0.054792
1009,0.033231,-0.0028225,-0.0047713,-0.011267,0.061814,0.10306,-0.055766
1010,0.020888,-0.01549,0.014392,-0.0011985,0.055643,0.095594,-0.05804
1011,0.0026992,-0.028157,0.053044,0.0085458,0.032906,0.07708,-0.062262
1012,-0.0093186,-0.035628,0.086175,0.010495,-0.0021729,0.049472,-0.070707
1013,-0.011917,-0.035303,0.09462,0.0010752,-0.040175,0.016016,-0.07493
1014,-0.0050961,-0.026533,0.07708,-0.014191,-0.072656,-0.021337,-0.072331
1015,0.0062721,-0.014191,0.042001,-0.02361,-0.092794,-0.054142,-0.064861
1016,0.015367,-0.0057458,-0.00054884,-0.026533,-0.10124,-0.076229,-0.052843
1017,0.020239,-0.0021729,-0.044073,-0.023285,-0.098641,-0.086298,-0.04115
1018,0.022837,-0.0015233,-0.080776,-0.018088,-0.096367,-0.087272,-0.033354
1019,0.023812,-0.0057458,-0.10936,-0.012892,-0.10481,-0.0837,-0.029132
1020,0.023162,-0.008669,-0.1269,-0.0080194,-0.1256,-0.074605,-0.027833
1021,0.020888,-0.011267,-0.13859,-0.0034721,-0.15873,-0.060313,-0.024585
1022,0.016991,-0.015165,-0.14671,0.0052977,-0.20518,-0.044073,-0.020362
1023,0.0095202,-0.015815,-0.15126,0.017965,-0.26072,-0.031081,-0.01549
1024,0.0010752,-0.007045,-0.15223,0.029009,-0.32211,-0.028157,-0.010618
1025,-0.0044465,0.016666,-0.14866,0.03453,-0.38512,-0.037252,-0.0060706
1026,-0.0073698,0.053694,-0.14216,0.037454,-0.44424,-0.048945,-0.0011985
1027,-0.0073698,0.096244,-0.13924,0.03583,-0.48516,-0.056741,0.0052977
1028,-0.0021729,0.13262,-0.15158,0.03518,-0.4988,-0.054792,0.011144
1029,0.0085458,0.15536,-0.17627,0.038103,-0.48224,-0.047646,0.012768
1030,0.020888,0.15503,-0.20972,0.038753,-0.44261,-0.040175,0.011469
1031,0.030957,0.13392,-0.2474,0.03453,-0.38577,-0.039851,0.012443
1032,0.033556,0.095919,-0.28898,0.024137,-0.30977,-0.050244,0.013743
1033,0.026085,0.055643,-0.32471,0.010495,-0.20648,-0.064861,0.015042
1034,0.013743,0.020888,-0.34225,-0.0024977,-0.077853,-0.076879,0.015042
1035,-0.00054884,-0.0060706,-0.32406,-0.011917,0.050771,-0.083375,0.016341
1036,-0.011917,-0.027183,-0.24643,-0.015815,0.14821,-0.084024,0.015367
1037,-0.022311,-0.040175,-0.11228,-0.016464,0.18719,-0.077203,0.012768
1038,-0.026533,-0.043748,0.037454,-0.016789,0.16023,-0.064211,0.0078962
1039,-0.022961,-0.038876,0.14107,-0.016464,0.081303,-0.045697,0.0039985
1040,-0.0099683,-0.031406,0.1651,-0.016464,-0.018088,-0.025884,0.0010752
1041,0.0059473,-0.023935,0.14237,-0.020037,-0.10449,-0.012242,-0.00087364
1042,0.016016,-0.021986,0.12385,-0.028157,-0.16035,-0.0089938,-0.0028225
1043,0.01894,-0.02426,0.13879,-0.039201,-0.17952,-0.014191,-0.0037969
1044,0.019264,-0.027183,0.18979,-0.04862,-0.1662,-0.022311,-0.00087364
1045,0.023812,-0.027833,0.25118,-0.050244,-0.13047,-0.028807,0.0052977
1046,0.029983,-0.02426,0.28918,-0.043748,-0.085648,-0.030431,0.013093
1047,0.031282,-0.018088,0.28691,-0.031406,-0.051868,-0.027833,0.019914
1048,0.026735,-0.014516,0.24208,-0.016464,-0.043423,-0.02426,0.019264
1049,0.018615,-0.017439,0.18394,-0.0047713,-0.06681,-0.021337,0.011469
1050,0.0072465,-0.030756,0.16348,0.0023744,-0.12138,-0.016789,0.0026992
1051,-0.0073698,-0.059339,0.22389,0.00075039,-0.19771,-0.011592,-0.0018481
1052,-0.023285,-0.10156,0.37103,-0.0060706,-0.27891,-0.007045,0.0010752
1053,-0.035303,-0.14444,0.56234,-0.01484,-0.34777,-0.0011985,0.0078962
1054,-0.039201,-0.17042,0.72832,-0.019388,-0.38999,0.0062721,0.01764
1055,-0.032705,-0.16977,0.79913,-0.013541,-0.39876,0.013418,0.024461
1056,-0.022636,-0.14444,0.74781,0.0026992,-0.36498,0.020239,0.026735
1057,-0.01614,-0.10286,0.60359,0.022837,-0.27534,0.023812,0.023162
1058,-0.01484,-0.057065,0.42982,0.036804,-0.12235,0.01894,0.011794
1059,-0.017439,-0.01614,0.28496,0.042975,0.087799,0.0075714,0.00075039
1060,-0.023935,0.016991,0.19044,0.045249,0.31939,-0.0044465,-0.0057458
1061,-0.032055,0.042001,0.13295,0.048497,0.52012,-0.013541,-0.0099683
1062,-0.037577,0.062464,0.080978,0.050771,0.64127,-0.015815,-0.0096434
1063,-0.038551,0.080003,0.01829,0.050446,0.66043,-0.010618,-0.0034721
1064,-0.034329,0.095594,-0.055441,0.046548,0.58995,-0.0044465,0.0052977
1065,-0.02361,0.10696,-0.1243,0.039402,0.47075,-0.0060706,0.01764
1066,-0.0076946,0.11476,-0.17497,0.034206,0.334,-0.018413,0.02706
1067,0.0049729,0.11703,-0.20323,0.031607,0.18719,-0.040175,0.030633
1068,0.0075714,0.11281,-0.212,0.028034,0.020888,-0.070707,0.024461
1069,0.00075039,0.098517,-0.20518,0.021863,-0.17367,-0.10903,0.012443
1070,-0.014191,0.074157,-0.18374,0.012768,-0.37473,-0.15093,-0.0021729
1071,-0.032705,0.044275,-0.13794,0.0036737,-0.53973,-0.18829,-0.017114
1072,-0.051219,0.011144,-0.065186,-0.0041217,-0.61833,-0.21395,-0.03238
1073,-0.065835,-0.021661,0.011469,-0.010618,-0.57936,-0.22174,-0.044723
1074,-0.068109,-0.055116,0.045899,-0.016789,-0.4267,-0.21135,-0.052843
1075,-0.060963,-0.087597,0.012443,-0.023285,-0.20063,-0.18407,-0.054142
1076,-0.050894,-0.11196,-0.085324,-0.025234,0.034206,-0.14541,-0.051544
1077,-0.039851,-0.12365,-0.21525,-0.022636,0.21837,-0.10124,-0.047321
1078,-0.034329,-0.12105,-0.339,-0.016789,0.32036,-0.061288,-0.040175
1079,-0.034978,-0.10579,-0.42929,-0.0083442,0.34245,-0.030431,-0.028157
1080,-0.036927,-0.081751,-0.47802,0.0036737,0.30672,-0.015165,-0.013216
1081,-0.037577,-0.056091,-0.48808,0.014068,0.25605,-0.011267,-0.0024977
1082,-0.037252,-0.038551,-0.46827,0.020888,0.22227,-0.010293,0.003024
1083,-0.036278,-0.029132,-0.42735,0.024786,0.22194,-0.008669,0.0046481
1084,-0.03303,-0.024585,-0.37603,0.026735,0.2463,-0.0044465,0.003024
1085,-0.02426,-0.020362,-0.32795,0.025436,0.27002,0.0014,0.00010078
1086,-0.01484,-0.013541,-0.29417,0.021213,0.27229,0.0069217,-0.0037969
1087,-0.0089938,-0.0054209,-0.27436,0.016341,0.24598,0.0085458,-0.0063954
1088,-0.0083442,0.0046481,-0.26332,0.013743,0.19888,0.0078962,-0.010943
1089,-0.0073698,0.014068,-0.2513,0.011144,0.14561,0.0078962,-0.01549
1090,-0.0037969,0.019264,-0.23441,0.0088706,0.10177,0.013418,-0.018088
1091,0.0039985,0.022188,-0.21395,0.011794,0.067336,0.02641,-0.019388
1092,0.010819,0.024786,-0.19186,0.021538,0.027385,0.044599,-0.018738
1093,0.014392,0.028684,-0.17107,0.03583,-0.03303,0.063438,-0.018413
1094,0.014717,0.03583,-0.15483,0.046548,-0.11618,0.080003,-0.018088
1095,0.01764,0.044924,-0.14574,0.049147,-0.20615,0.095269,-0.017764
1096,0.026085,0.053369,-0.13762,0.046548,-0.28995,0.10469,-0.01484
1097,0.037129,0.056617,-0.12625,0.041676,-0.36173,0.10761,-0.0083442
1098,0.048822,0.055643,-0.11196,0.033231,-0.4163,0.10209,-0.0024977
1099,0.058566,0.054019,-0.094743,0.022512,-0.44131,0.092996,0.0017248
1100,0.064737,0.053369,-0.076879,0.013418,-0.4254,0.083576,0.0072465
1101,0.067661,0.05142,-0.054467,0.01017,-0.37375,0.07773,0.014392
1102,0.067986,0.047523,-0.029782,0.015692,-0.29417,0.080978,0.021863
1103,0.065712,0.043625,-0.007045,0.024786,-0.20128,0.099492,0.029333
1104,0.061489,0.042975,0.010819,0.033881,-0.10741,0.1271,0.038428
1105,0.062139,0.048497,0.026085,0.041676,-0.024909,0.14821,0.046548
1106,0.064088,0.057917,0.040377,0.047198,0.03453,0.15081,0.047847
1107,0.060515,0.064413,0.05272,0.053044,0.06961,0.13522,0.038103
1108,0.049147,0.063763,0.062464,0.053044,0.08585,0.10761,0.023162
1109,0.035505,0.054668,0.06896,0.044599,0.090072,0.075456,0.010495
1110,0.021538,0.040052,0.070259,0.028034,0.092996,0.044924,0.0026992
1111,0.01017,0.026735,0.063113,0.0065969,0.10339,0.021213,0.00042559
1112,0.0056225,0.020888,0.046548,-0.016464,0.11995,0.0046481,0.0026992
1113,0.0059473,0.023162,0.027709,-0.034004,0.13587,-0.0044465,0.0069217
1114,0.0072465,0.02706,0.012443,-0.042449,0.14107,-0.0034721,0.0078962
1115,0.0014,0.027385,0.0039985,-0.042124,0.1336,0.0014,0.0039985
1116,-0.008669,0.023487,0.00042559,-0.035628,0.11898,0.003024,-0.0024977
1117,-0.019388,0.016991,-0.0024977,-0.024585,0.11151,0.00042559,-0.0073698
1118,-0.027833,0.0075714,-0.01614,-0.018088,0.1284,-0.0089938,-0.0089938
1119,-0.031081,-0.0047713,-0.047646,-0.015815,0.17745,-0.022311,-0.0067202
1120,-0.031081,-0.01484,-0.086623,-0.013866,0.25118,-0.029782,-0.0021729
1121,-0.03303,-0.021986,-0.11488,-0.011267,0.32491,-0.030756,0.0023744
1122,-0.039851,-0.024585,-0.11943,-0.010618,0.37785,-0.029132,0.0056225
1123,-0.047971,-0.021986,-0.098641,-0.01484,0.39961,-0.03238,0.0065969
1124,-0.050894,-0.017114,-0.062912,-0.022636,0.39117,-0.04115,0.0049729
1125,-0.04992,-0.011592,-0.025559,-0.033679,0.36259,-0.054467,0.0033489
1126,-0.046671,-0.0050961,0.003024,-0.044073,0.32913,-0.062912,0.003024
1127,-0.040175,0.00075039,0.021213,-0.050894,0.30607,-0.059339,0.0052977
1128,-0.030756,0.0039985,0.036154,-0.046347,0.29697,-0.042774,0.0088706
1129,-0.019712,0.0049729,0.05207,-0.033679,0.29633,-0.016789,0.012443
1130,-0.013541,0.0062721,0.072208,-0.016464,0.29827,0.010495,0.013743
1131,-0.013216,0.008221,0.094295,-0.00054884,0.2973,0.033556,0.013418
1132,-0.017114,0.013418,0.11443,0.015367,0.27911,0.048172,0.012119
1133,-0.023285,0.019589,0.12807,0.028684,0.23948,0.053694,0.013743
1134,-0.028157,0.025111,0.1349,0.036804,0.17647,0.05142,0.01764
1135,-0.028157,0.029333,0.13555,0.040052,0.098842,0.041027,0.020239
1136,-0.024909,0.030308,0.13522,0.040702,0.021213,0.028034,0.024786
1137,-0.019388,0.027385,0.13425,0.038103,-0.045047,0.019264,0.033556
1138,-0.010618,0.022512,0.13555,0.032257,-0.086298,0.01829,0.046223
1139,-0.0037969,0.017316,0.13847,0.023487,-0.088896,0.024137,0.057267
1140,-0.00087364,0.013418,0.14269,0.014068,-0.063886,0.03453,0.061814
1141,-0.0015233,0.012119,0.14464,0.0075714,-0.031406,0.042651,0.056292
1142,-0.0015233,0.013418,0.13977,0.0026992,-0.018413,0.044275,0.0433
1143,-0.0015233,0.015367,0.1284,-0.00087364,-0.029782,0.039402,0.02706
1144,0.00010078,0.01764,0.11476,-0.0044465,-0.042124,0.027709,0.017316
1145,0.0017248,0.019264,0.10339,-0.0076946,-0.019063,0.012119,0.015042
1146,0.0046481,0.019264,0.10144,-0.012567,0.058891,-0.0060706,0.014717
1147,0.0088706,0.019264,0.10599,-0.017764,0.18264,-0.020037,0.013418
1148,0.014068,0.019914,0.11801,-0.023285,0.32069,-0.029132,0.0062721
1149,0.015367,0.021538,0.13262,-0.028482,0.43794,-0.035628,-0.0031473
1150,0.012443,0.024137,0.14139,-0.033679,0.50095,-0.038551,-0.011592
1151,0.0069217,0.023162,0.13749,-0.03303,0.48147,-0.036602,-0.019388
1152,0.0020496,0.017965,0.11801,-0.023935,0.38532,-0.030106,-0.022636
1153,-0.0034721,0.01017,0.092671,-0.0093186,0.24078,-0.021986,-0.023285
1154,-0.010618,0.0039985,0.072858,0.003024,0.078055,-0.012892,-0.020362
1155,-0.01549,0.0010752,0.062464,0.010495,-0.064536,-0.0037969,-0.014516
1156,-0.017764,0.0023744,0.062464,0.016991,-0.1597,0.00075039,-0.0099683
1157,-0.018738,0.0036737,0.066362,0.025111,-0.20778,0.0020496,-0.007045
1158,-0.017764,0.0026992,0.067986,0.027385,-0.24286,0.00075039,-0.0031473
1159,-0.01614,0.0020496,0.067336,0.021213,-0.31886,-0.0031473,0.0017248
1160,-0.013866,0.0049729,0.067661,0.011794,-0.46502,-0.011917,0.0069217
1161,-0.011267,0.013093,0.072208,0.0085458,-0.65439,-0.026533,0.011794
1162,-0.0093186,0.022188,0.07773,0.014717,-0.82621,-0.044398,0.012443
1163,-0.0089938,0.028359,0.079679,0.026735,-0.92398,-0.060963,0.0075714
1164,-0.0089938,0.031282,0.07773,0.033881,-0.92528,-0.069733,0.0010752
1165,-0.0044465,0.029658,0.071234,0.03583,-0.83823,-0.070058,-0.0044465
1166,0.0043233,0.025436,0.064088,0.033556,-0.69953,-0.062912,-0.0050961
1167,0.013418,0.020239,0.055643,0.033556,-0.555,-0.048945,-0.0028225
1168,0.01829,0.016016,0.05207,0.035505,-0.43904,-0.035303,0.00075039
1169,0.020888,0.014068,0.050771,0.040702,-0.36011,-0.028482,0.0056225
1170,0.023162,0.013418,0.048172,0.047523,-0.30652,-0.030431,0.011144
1171,0.023162,0.009845,0.042651,0.05272,-0.25942,-0.031406,0.017965
1172,0.025761,0.0026992,0.037129,0.057917,-0.2016,-0.021337,0.028359
1173,0.028034,-0.0047713,0.034855,0.062789,-0.12365,-0.00087364,0.038428
1174,0.028359,-0.011267,0.033231,0.065387,-0.02361,0.023812,0.0433
1175,0.028359,-0.01484,0.031282,0.061489,0.089748,0.043625,0.037778
1176,0.026735,-0.01484,0.028034,0.047523,0.20181,0.049796,0.027385
1177,0.02706,-0.0093186,0.026735,0.026085,0.29697,0.041351,0.01764
1178,0.025761,-0.0028225,0.032906,0.0020496,0.36941,0.024137,0.011794
1179,0.024137,0.0033489,0.046873,-0.018413,0.40806,0.0020496,0.0088706
1180,0.020888,0.0072465,0.063113,-0.03303,0.40319,-0.021661,0.0075714
1181,0.016341,0.0078962,0.074157,-0.038227,0.35641,-0.042124,0.0085458
1182,0.010495,0.0065969,0.078379,-0.035303,0.28561,-0.057715,0.01017
1183,0.0065969,0.0014,0.073832,-0.027508,0.21252,-0.060963,0.011144
1184,0.0059473,-0.0054209,0.063763,-0.017439,0.15503,-0.052518,0.010495
1185,0.0065969,-0.012242,0.054344,-0.0057458,0.11963,-0.034654,0.010495
1186,0.0088706,-0.01614,0.050446,0.0069217,0.09397,-0.010293,0.014392
1187,0.015692,-0.015815,0.047523,0.018615,0.06084,0.016341,0.022188
1188,0.026085,-0.012567,0.047198,0.026735,0.013418,0.039727,0.029658
1189,0.035505,-0.0080194,0.046548,0.029009,-0.042449,0.054668,0.03583
1190,0.042975,-0.0041217,0.043625,0.025436,-0.094743,0.059541,0.037129
1191,0.050121,0.00010078,0.040052,0.015692,-0.13762,0.055968,0.031932
1192,0.053369,-0.00054884,0.042975,0.0017248,-0.16847,0.050121,0.024137
1193,0.050446,-0.0057458,0.058566,-0.01549,-0.18666,0.048172,0.01764
1194,0.042326,-0.012892,0.087799,-0.03173,-0.19413,0.054019,0.014717
1195,0.03453,-0.020687,0.12093,-0.042774,-0.19121,0.06896,0.016666
1196,0.029333,-0.027833,0.13814,-0.045697,-0.17822,0.092021,0.020888
1197,0.027709,-0.032705,0.11671,-0.042449,-0.16165,0.11866,0.023812
1198,0.02641,-0.034654,0.047198,-0.035628,-0.15126,0.14042,0.024137
1199,0.024137,-0.032705,-0.048945,-0.027183,-0.15451,0.15146,0.022188
1200,0.019589,-0.023285,-0.12885,-0.017439,-0.17432,0.14724,0.016016
1201,0.015367,-0.012242,-0.16393,-0.0089938,-0.20485,0.1284,0.0072465
1202,0.015042,-0.00022403,-0.174,-0.0063954,-0.23279,0.099492,-0.0037969
1203,0.019914,0.0059473,-0.2055,-0.011267,-0.25033,0.067336,-0.012242
1204,0.028684,0.0036737,-0.28768,-0.019063,-0.25292,0.029009,-0.016789
1205,0.036479,-0.008669,-0.39129,-0.026533,-0.23474,-0.012567,-0.017439
1206,0.039402,-0.023285,-0.4582,-0.027508,-0.19121,-0.050894,-0.017439
1207,0.03453,-0.035303,-0.44781,-0.017439,-0.12073,-0.084999,-0.019388
1208,0.025761,-0.040175,-0.36011,0.0020496,-0.026858,-0.11358,-0.025559
1209,0.016666,-0.037902,-0.23051,0.026085,0.079029,-0.13567,-0.03238
1210,0.011469,-0.028157,-0.10384,0.049796,0.17322,-0.14769,-0.034329
1211,0.01017,-0.010943,-0.015815,0.066037,0.23299,-0.14606,-0.029457
1212,0.015042,0.0091954,0.027709,0.076755,0.24371,-0.13729,-0.015165
1213,0.026735,0.026735,0.03583,0.081303,0.20928,-0.12463,0.0039985
1214,0.041676,0.037778,0.020888,0.083901,0.14561,-0.11423,0.021213
1215,0.054019,0.042975,-0.00022403,0.084226,0.070259,-0.10579,0.033556
1216,0.060515,0.0433,-0.015165,0.081303,-0.0028225,-0.10189,0.041027
1217,0.061814,0.041027,-0.017439,0.077405,-0.066485,-0.10124,0.046223
1218,0.062789,0.035505,0.00010078,0.074806,-0.11066,-0.098965,0.048822
1219,0.065712,0.029983,0.054668,0.077405,-0.11748,-0.096042,0.049147
1220,0.069934,0.025761,0.15373,0.082927,-0.074605,-0.090521,0.049796
1221,0.070584,0.024137,0.28821,0.087149,0.014392,-0.082725,0.050121
1222,0.064737,0.022837,0.43372,0.087149,0.11931,-0.071357,0.049796
1223,0.050446,0.021863,0.56494,0.080978,0.20603,-0.057715,0.044924
1224,0.034206,0.020239,0.66076,0.071558,0.25053,-0.044073,0.039402
1225,0.018615,0.019264,0.71143,0.056942,0.24208,-0.028482,0.033881
1226,0.0075714,0.01829,0.72052,0.042001,0.19628,-0.0083442,0.026735
1227,-0.0028225,0.016016,0.70201,0.029009,0.13912,0.015042,0.01764
1228,-0.0076946,0.013093,0.67148,0.024137,0.095269,0.034855,0.0085458
1229,-0.0076946,0.0088706,0.64614,0.024461,0.076431,0.046873,0.0065969
1230,-0.0047713,0.0072465,0.61951,0.028359,0.081627,0.050771,0.012443
1231,-0.0041217,0.0069217,0.54968,0.028684,0.097868,0.050771,0.019914
1232,-0.008669,0.0046481,0.32393,0.018615,0.11216,0.053369,0.024137
1233,-0.018088,-0.0034721,-0.19543,-0.0057458,0.11346,0.058566,0.024461
1234,-0.032055,-0.020037,-0.9662,-0.036927,0.094945,0.062789,0.020564
1235,-0.045697,-0.042774,-1.7643,-0.066485,0.056942,0.061814,0.011469
1236,-0.055766,-0.063561,-2.3301,-0.087922,0.011144,0.049796,-0.0015233
1237,-0.059664,-0.076879,-2.5045,-0.10156,-0.027183,0.023162,-0.016789
1238,-0.056741,-0.077853,-2.2859,-0.10709,-0.053817,-0.013216,-0.03238
1239,-0.052193,-0.06681,-1.8068,-0.10741,-0.073955,-0.052843,-0.046996
1240,-0.052193,-0.048296,-1.2488,-0.10319,-0.10319,-0.087922,-0.056091
1241,-0.05739,-0.025884,-0.76612,-0.095393,-0.15288,-0.11586,-0.059014
1242,-0.063237,-0.0063954,-0.43709,-0.077853,-0.2146,-0.13502,-0.05739
1243,-0.069083,0.0062721,-0.26137,-0.048945,-0.26169,-0.14411,-0.057065
1244,-0.073306,0.013093,-0.19121,-0.015165,-0.26754,-0.14346,-0.061288
1245,-0.072981,0.014068,-0.17757,0.012119,-0.22239,-0.13664,-0.067134
1246,-0.068758,0.0091954,-0.18277,0.029333,-0.14281,-0.12722,-0.07428
1247,-0.060963,0.0036737,-0.16815,0.038428,-0.055766,-0.11651,-0.08305
1248,-0.050569,-0.0011985,-0.08305,0.039402,0.016341,-0.099615,-0.093119
1249,-0.042124,-0.0015233,0.10924,0.033231,0.06019,-0.079152,-0.098316
1250,-0.035303,0.0023744,0.37883,0.021538,0.075781,-0.059989,-0.093769
1251,-0.030431,0.0065969,0.65946,0.009845,0.070909,-0.043423,-0.081751
1252,-0.025234,0.0069217,0.88488,0.0056225,0.057592,-0.03173,-0.069733
1253,-0.025234,0.0046481,1.0184,0.009845,0.039402,-0.025234,-0.061288
1254,-0.029782,0.00010078,1.0561,0.016991,0.017965,-0.022961,-0.062262
1255,-0.034978,-0.0041217,1.0213,0.020239,-0.0093186,-0.02361,-0.069083
1256,-0.04115,-0.0063954,0.94724,0.019914,-0.042774,-0.024909,-0.072006
1257,-0.046996,-0.0050961,0.86279,0.018615,-0.077853,-0.028482,-0.06551
1258,-0.052518,0.0014,0.78029,0.019914,-0.10286,-0.030431,-0.050244
1259,-0.056416,0.011794,0.66953,0.025111,-0.10156,-0.026209,-0.034004
1260,-0.053492,0.021863,0.47042,0.029983,-0.069733,-0.013866,-0.022311
1261,-0.045047,0.028034,0.17225,0.032257,-0.023285,0.0023744,-0.013866
1262,-0.033679,0.027385,-0.15256,0.032582,0.023162,0.015367,-0.0076946
1263,-0.028157,0.018615,-0.38285,0.03518,0.059216,0.019264,-0.0011985
1264,-0.033354,0.0072465,-0.44099,0.039078,0.082277,0.015042,0.010495
1265,-0.042124,-0.00087364,-0.33153,0.041027,0.097218,0.010495,0.023812
1266,-0.044398,-0.0054209,-0.13242,0.036804,0.11216,0.016016,0.032582
1267,-0.038227,-0.0080194,0.06084,0.028359,0.1258,0.034855,0.033881
1268,-0.029132,-0.0080194,0.18589,0.017965,0.13262,0.055318,0.029333
1269,-0.025884,-0.0024977,0.22812,0.010495,0.13425,0.062789,0.024461
1270,-0.02426,0.0069217,0.20765,0.0043233,0.13749,0.057917,0.022837
1271,-0.02426,0.014392,0.15568,-0.0031473,0.14789,0.04395,0.025436
1272,-0.021661,0.016991,0.10306,-0.015815,0.1664,0.030308,0.030308
1273,-0.016464,0.014068,0.068635,-0.032705,0.19141,0.021863,0.032582
1274,-0.0096434,0.0091954,0.06019,-0.046996,0.21805,0.021213,0.029658
1275,-0.0054209,0.0062721,0.080978,-0.053168,0.23981,0.025761,0.021538
1276,-0.0041217,0.0059473,0.12288,-0.048296,0.24436,0.036804,0.012443
1277,-0.0037969,0.0088706,0.16413,-0.037252,0.21155,0.048822,0.0020496
1278,-0.0024977,0.011469,0.17907,-0.028807,0.1284,0.056617,-0.007045
1279,0.0039985,0.012768,0.15893,-0.025884,-0.013216,0.057267,-0.014516
1280,0.013743,0.013093,0.10956,-0.027183,-0.20745,0.047523,-0.018738
1281,0.020239,0.016666,0.048172,-0.031081,-0.43482,0.028684,-0.018088
1282,0.018615,0.022837,-0.010293,-0.035628,-0.65601,0.0062721,-0.01549
1283,0.0095202,0.026735,-0.056091,-0.037577,-0.81841,-0.01484,-0.016464
1284,0.003024,0.029333,-0.087272,-0.035303,-0.87493,-0.027183,-0.019712
1285,0.0043233,0.029009,-0.11001,-0.030431,-0.80737,-0.021661,-0.026533
1286,0.012443,0.028359,-0.12625,-0.021661,-0.63782,-0.0044465,-0.03303
1287,0.023162,0.026085,-0.13729,-0.012892,-0.41176,0.014392,-0.031406
1288,0.029983,0.023162,-0.14054,-0.0015233,-0.17594,0.026085,-0.022636
1289,0.029333,0.023162,-0.13859,0.0095202,0.03518,0.028359,-0.010293
1290,0.024786,0.028359,-0.1321,0.012119,0.19661,0.024786,0.0020496
1291,0.024137,0.041676,-0.12463,0.0039985,0.3012,0.021213,0.010819
1292,0.027709,0.06831,-0.11423,-0.0067202,0.35674,0.018615,0.013418
1293,0.031607,0.10599,-0.10221,-0.014191,0.37103,0.019264,0.013743
1294,0.033881,0.14496,-0.086948,-0.012892,0.35382,0.020239,0.016341
1295,0.036154,0.1755,-0.053817,-0.0050961,0.32198,0.016341,0.023487
1296,0.039402,0.18946,0.019589,0.0043233,0.28853,0.0039985,0.032582
1297,0.042651,0.18557,0.14074,0.013743,0.25897,-0.011592,0.037778
1298,0.040702,0.1677,0.29145,0.025111,0.23169,-0.023285,0.039078
1299,0.031607,0.14367,0.43209,0.038753,0.2083,-0.028807,0.037129
1300,0.022188,0.1206,0.51817,0.049472,0.18719,-0.025234,0.038103
1301,0.020888,0.10339,0.52174,0.054993,0.16478,-0.016789,0.042975
1302,0.028359,0.092996,0.44411,0.054993,0.14139,-0.0080194,0.051096
1303,0.039078,0.084226,0.31516,0.052395,0.11638,0.0056225,0.055643
1304,0.044275,0.071883,0.17647,0.047847,0.090722,0.024786,0.053044
1305,0.039727,0.05142,0.062464,0.042001,0.05272,0.043625,0.05272
1306,0.028034,0.023162,-0.017114,0.033556,-0.017439,0.054344,0.061165
1307,0.016666,-0.012242,-0.069083,0.024786,-0.12982,0.061489,0.072533
1308,0.012768,-0.054142,-0.10319,0.016341,-0.27339,0.066037,0.077405
1309,0.017965,-0.10806,-0.12917,0.011144,-0.4163,0.067986,0.070584
1310,0.030308,-0.17822,-0.15321,0.010819,-0.51927,0.067011,0.053694
1311,0.039727,-0.26137,-0.1701,0.013743,-0.55792,0.063763,0.034855
1312,0.034855,-0.33932,-0.17042,0.017965,-0.53258,0.059216,0.021538
1313,0.015367,-0.38545,-0.14964,0.020239,-0.45918,0.054993,0.01829
1314,-0.0073698,-0.38155,-0.11651,0.021538,-0.35004,0.053044,0.025761
1315,-0.022961,-0.32795,-0.085648,0.025436,-0.20096,0.056292,0.040052
1316,-0.025884,-0.24123,-0.064861,0.03583,0.0020496,0.063438,0.055318
1317,-0.019388,-0.14541,-0.053168,0.047198,0.25735,0.070909,0.063113
1318,-0.0093186,-0.062262,-0.051219,0.058241,0.52629,0.076431,0.062464
1319,0.00075039,-0.0031473,-0.056741,0.063763,0.74423,0.080328,0.057917
1320,0.0075714,0.035505,-0.069733,0.06084,0.85564,0.081952,0.050121
1321,0.011469,0.061165,-0.088572,0.05272,0.82836,0.079029,0.038428
1322,0.016991,0.076431,-0.10774,0.041027,0.677,0.075781,0.025111
1323,0.023487,0.088124,-0.12105,0.031932,0.4623,0.071558,0.015367
1324,0.028684,0.09462,-0.12527,0.027709,0.24825,0.06084,0.011794
1325,0.029658,0.098193,-0.1204,0.027385,0.081627,0.040702,0.012119
1326,0.024786,0.097868,-0.11066,0.027385,-0.03303,0.014068,0.008221
1327,0.018615,0.096893,-0.10319,0.027385,-0.1191,-0.010618,0.00075039
1328,0.014392,0.095594,-0.098641,0.026735,-0.19576,-0.026858,-0.0067202
1329,0.0085458,0.093321,-0.092469,0.024786,-0.25617,-0.030756,-0.0076946
1330,0.0052977,0.089423,-0.084349,0.022188,-0.28638,-0.022311,-0.0028225
1331,0.0043233,0.084876,-0.073631,0.021863,-0.28086,-0.010618,0.0026992
1332,0.0065969,0.081303,-0.062587,0.022512,-0.24545,-0.00022403,0.0062721
1333,0.012443,0.078704,-0.054467,0.029009,-0.18926,0.0069217,0.0095202
1334,0.019589,0.074482,-0.053168,0.035505,-0.12495,0.014068,0.013418
1335,0.024786,0.065062,-0.062587,0.040702,-0.058689,0.020888,0.014068
1336,0.027709,0.054019,-0.084024,0.042326,-0.0047713,0.025436,0.012768
1337,0.029333,0.044275,-0.11261,0.039078,0.022837,0.021538,0.009845
1338,0.026085,0.03583,-0.14281,0.028684,0.014068,0.0062721,0.009845
1339,0.016341,0.030957,-0.1649,0.015367,-0.026533,-0.017764,0.014717
1340,0.0026992,0.030308,-0.17952,0.0014,-0.086298,-0.042449,0.021863
1341,-0.012242,0.033231,-0.19283,-0.0099683,-0.14671,-0.060638,0.024461
1342,-0.023935,0.033231,-0.20745,-0.018088,-0.18991,-0.070707,0.021863
1343,-0.03173,0.029333,-0.22239,-0.021661,-0.20323,-0.072656,0.015692
1344,-0.034978,0.025436,-0.23344,-0.021986,-0.18212,-0.070058,0.0088706
1345,-0.032055,0.023162,-0.23149,-0.022311,-0.12592,-0.067134,0.0010752
1346,-0.022311,0.023487,-0.21427,-0.024585,-0.027183,-0.067134,-0.0089938
1347,-0.010943,0.024786,-0.17594,-0.027183,0.11443,-0.068434,-0.021986
1348,-0.0037969,0.025436,-0.11456,-0.027833,0.27911,-0.067784,-0.037577
1349,-0.0028225,0.025111,-0.03238,-0.025234,0.43112,-0.066485,-0.050244
1350,-0.0047713,0.019589,0.073507,-0.020687,0.53343,-0.064536,-0.05804
1351,-0.0080194,0.011144,0.21512,-0.016464,0.56527,-0.05739,-0.059014
1352,-0.01484,-0.0018481,0.37233,-0.015815,0.53961,-0.045372,-0.053817
1353,-0.028807,-0.017114,0.49088,-0.019063,0.48439,-0.032055,-0.043099
1354,-0.043099,-0.03173,0.51914,-0.023285,0.4295,-0.019712,-0.031081
1355,-0.048945,-0.043099,0.45191,-0.025559,0.3889,-0.008669,-0.020362
1356,-0.045372,-0.046022,0.32328,-0.02361,0.36681,0.0014,-0.010618
1357,-0.034004,-0.039851,0.18264,-0.019388,0.35284,0.011794,-0.0011985
1358,-0.019063,-0.023935,0.070909,-0.012242,0.33823,0.025111,0.0039985
1359,-0.0073698,-0.00087364,0.010819,-0.0024977,0.31776,0.0433,0.0043233
1360,-0.0015233,0.02641,-0.0021729,0.011469,0.29308,0.063763,0.0026992
1361,0.0010752,0.053694,0.012443,0.024786,0.26807,0.080328,0.0046481
1362,0.0023744,0.077405,0.027709,0.033881,0.24338,0.090072,0.01017
1363,0.0059473,0.096244,0.031607,0.036479,0.21415,0.095919,0.01764
1364,0.011794,0.10761,0.019264,0.033231,0.17842,0.099492,0.025111
1365,0.016991,0.10599,-0.0050961,0.025761,0.13522,0.097868,0.030308
1366,0.019589,0.092021,-0.031081,0.01894,0.0865,0.092021,0.028359
1367,0.020888,0.069934,-0.051868,0.016341,0.037778,0.080653,0.01829
1368,0.023487,0.048497,-0.067459,0.01894,-0.0024977,0.061489,0.0049729
1369,0.02641,0.031607,-0.079477,0.023812,-0.034004,0.032582,-0.0024977
1370,0.031282,0.019914,-0.084349,0.032582,-0.05739,-0.00022403,0.0039985
1371,0.03583,0.014068,-0.080776,0.044275,-0.075579,-0.03303,0.017965
1372,0.038103,0.012768,-0.069733,0.055968,-0.095717,-0.061613,0.031282
1373,0.037454,0.015692,-0.057715,0.063438,-0.12722,-0.087597,0.038428
1374,0.033556,0.021538,-0.04862,0.066686,-0.16815,-0.11423,0.038103
1375,0.023812,0.02706,-0.047646,0.06084,-0.21979,-0.14087,0.033231
1376,0.012119,0.029658,-0.050244,0.051096,-0.27826,-0.16425,0.023812
1377,0.0020496,0.028359,-0.053492,0.041676,-0.33932,-0.18536,0.012443
1378,-0.0041217,0.024137,-0.051544,0.033231,-0.40039,-0.20323,0.0023744
1379,-0.0011985,0.016016,-0.047321,0.027385,-0.45723,-0.21849,-0.0011985
1380,0.0072465,0.008221,-0.041475,0.026085,-0.50725,-0.23149,0.0039985
1381,0.01894,0.0010752,-0.037902,0.026085,-0.54525,-0.23766,0.011144
1382,0.029983,0.00075039,-0.036927,0.029333,-0.56864,-0.23506,0.015367
1383,0.036804,0.0065969,-0.036927,0.03583,-0.57578,-0.22337,0.013743
1384,0.037454,0.015367,-0.037252,0.040702,-0.56312,-0.2029,0.010495
1385,0.032582,0.024786,-0.039201,0.036804,-0.52998,-0.1714,0.01017
1386,0.023812,0.031932,-0.043099,0.024137,-0.48386,-0.13307,0.016016
1387,0.014717,0.033231,-0.047646,0.0078962,-0.43384,-0.095717,0.024461
1388,0.0072465,0.028359,-0.050894,-0.0044465,-0.38934,-0.064536,0.029658
1389,0.0056225,0.01829,-0.052193,-0.012567,-0.36011,-0.042449,0.029333
1390,0.0075714,0.0059473,-0.051868,-0.018088,-0.34712,-0.026209,0.022837
1391,0.0085458,-0.0060706,-0.052518,-0.026209,-0.33413,-0.016464,0.015367
1392,0.0052977,-0.016464,-0.052843,-0.039851,-0.30587,-0.012567,0.0088706
1393,-0.0024977,-0.027183,-0.048945,-0.05804,-0.25845,-0.014191,0.0043233
1394,-0.010293,-0.038551,-0.039201,-0.075904,-0.19706,-0.01484,0.0014
1395,-0.010618,-0.04862,-0.023285,-0.088247,-0.13664,-0.0093186,-0.00022403
1396,-0.0031473,-0.054142,-0.0073698,-0.090521,-0.090521,0.0043233,-0.0015233
1397,0.0062721,-0.053492,0.0043233,-0.078827,-0.067134,0.020239,0.00010078
1398,0.012768,-0.048945,0.012768,-0.058365,-0.060638,0.028684,0.00010078
1399,0.014392,-0.042449,0.013093,-0.033679,-0.059014,0.028359,-0.00022403
1400,0.012443,-0.038227,0.0043233,-0.013541,-0.056416,0.01894,-0.0021729
1401,0.008221,-0.034978,-0.0028225,-0.0015233,-0.053492,0.011794,-0.007045
1402,0.003024,-0.032705,0.0046481,-0.00054884,-0.047646,0.0095202,-0.0099683
1403,0.0017248,-0.031406,0.031607,-0.007045,-0.034004,0.011469,-0.0093186
1404,0.0036737,-0.026858,0.072208,-0.010293,-0.0089938,0.015042,-0.0047713
1405,0.0072465,-0.020362,0.11054,-0.0031473,0.027385,0.015042,0.0026992
1406,0.010819,-0.01484,0.12872,0.012119,0.066686,0.010819,0.009845
1407,0.015042,-0.011917,0.12125,0.02641,0.10014,0.0072465,0.013418
1408,0.019264,-0.01614,0.093645,0.03583,0.1219,0.0052977,0.016016
1409,0.021538,-0.024585,0.058566,0.038428,0.12872,0.0072465,0.015692
1410,0.023812,-0.034654,0.022837,0.038753,0.12353,0.013743,0.013418
1411,0.024461,-0.044398,-0.013866,0.037778,0.10079,0.023812,0.010819
1412,0.021213,-0.051219,-0.051868,0.036479,0.061489,0.033231,0.008221
1413,0.013093,-0.053492,-0.085648,0.038428,0.01017,0.037129,0.0075714
1414,0.0036737,-0.052518,-0.11618,0.0433,-0.043423,0.029009,0.011144
1415,-0.0018481,-0.051868,-0.13892,0.047198,-0.093769,0.014717,0.015367
1416,-0.0047713,-0.052843,-0.14736,0.047847,-0.13534,0.00010078,0.016991
1417,-0.0063954,-0.053492,-0.13924,0.043625,-0.161,-0.0080194,0.014717
1418,-0.0083442,-0.053817,-0.11488,0.036804,-0.16718,-0.0083442,0.012119
1419,-0.011592,-0.054792,-0.077528,0.031607,-0.15516,-0.0057458,0.009845
1420,-0.012567,-0.053817,-0.033679,0.033231,-0.13047,0.00042559,0.01017
1421,-0.010618,-0.048945,0.0091954,0.039078,-0.098641,0.013093,0.016341
1422,-0.007045,-0.0405,0.048822,0.046548,-0.06681,0.028684,0.024786
1423,-0.007045,-0.030106,0.083901,0.050446,-0.039526,0.041351,0.031932
1424,-0.012242,-0.018088,0.11378,0.049472,-0.017114,0.047847,0.027385
1425,-0.021012,-0.0057458,0.14172,0.040377,0.0023744,0.050121,0.013418
1426,-0.030756,0.0033489,0.17842,0.024137,0.020239,0.051096,-0.0076946
1427,-0.037577,0.0091954,0.22649,0.0052977,0.039402,0.052395,-0.028157
1428,-0.042124,0.015692,0.26742,-0.013541,0.057917,0.053369,-0.039526
1429,-0.043099,0.024461,0.26742,-0.027833,0.073832,0.054993,-0.040825
1430,-0.042124,0.034855,0.20278,-0.036278,0.090722,0.059865,-0.036602
1431,-0.039851,0.044599,0.091696,-0.039201,0.10664,0.064413,-0.034004
1432,-0.038876,0.051096,-0.020687,-0.039526,0.12093,0.063113,-0.037252
1433,-0.037252,0.05272,-0.093119,-0.041799,0.12548,0.055643,-0.044398
1434,-0.034004,0.051096,-0.10968,-0.046022,0.11216,0.044599,-0.04992
1435,-0.029132,0.046548,-0.079152,-0.045047,0.081952,0.029333,-0.050244
1436,-0.024585,0.042651,-0.021337,-0.0405,0.048172,0.011794,-0.047321
1437,-0.020037,0.040702,0.033881,-0.032705,0.031282,-0.0093186,-0.045697
1438,-0.01484,0.039402,0.072208,-0.025559,0.049147,-0.031406,-0.046671
1439,-0.007045,0.033231,0.088124,-0.022636,0.099817,-0.050569,-0.04992
1440,-0.00022403,0.023162,0.089748,-0.022311,0.16738,-0.062912,-0.04992
1441,0.0059473,0.015042,0.087149,-0.020362,0.22519,-0.067784,-0.044723
1442,0.013418,0.016666,0.089423,-0.01549,0.22519,-0.071032,-0.035628
1443,0.023162,0.029333,0.10371,-0.0076946,0.1258,-0.081426,-0.026533
1444,0.031607,0.049796,0.13425,0.0010752,-0.071357,-0.10774,-0.021337
1445,0.034855,0.06831,0.17647,0.0069217,-0.31886,-0.14704,-0.023285
1446,0.029658,0.078704,0.21415,0.0059473,-0.5511,-0.18764,-0.028157
1447,0.016666,0.078704,0.22714,-0.0018481,-0.70895,-0.2172,-0.032055
1448,0.0014,0.066362,0.20505,-0.012567,-0.76515,-0.23149,-0.036278
1449,-0.011592,0.045249,0.15796,-0.02426,-0.72649,-0.22889,-0.040175
1450,-0.016789,0.022837,0.10274,-0.03303,-0.62873,-0.21297,-0.0405
1451,-0.010618,0.0056225,0.047198,-0.034978,-0.50562,-0.18504,-0.036602
1452,-0.00054884,-0.0054209,-0.0037969,-0.033679,-0.38804,-0.15126,-0.029457
1453,0.0043233,-0.0096434,-0.046022,-0.031081,-0.29158,-0.11878,-0.021337
1454,0.00075039,-0.011592,-0.084349,-0.022311,-0.20908,-0.088247,-0.014516
1455,-0.0073698,-0.015165,-0.12398,-0.0067202,-0.12235,-0.058365,-0.012567
1456,-0.015815,-0.022961,-0.16393,0.0085458,-0.016464,-0.025884,-0.016464
1457,-0.022961,-0.03238,-0.19771,0.016666,0.11248,0.009845,-0.023935
1458,-0.030431,-0.042774,-0.21655,0.018615,0.258,0.048172,-0.030431
1459,-0.036278,-0.050894,-0.21492,0.019914,0.40708,0.084876,-0.033354
1460,-0.036927,-0.057065,-0.19413,0.024786,0.54188,0.11118,-0.033679
1461,-0.030431,-0.056416,-0.16263,0.031607,0.64354,0.12353,-0.03173
1462,-0.021012,-0.04992,-0.13047,0.035505,0.70233,0.12158,-0.029132
1463,-0.014191,-0.038227,-0.10709,0.03518,0.7137,0.10924,-0.026858
1464,-0.013866,-0.022311,-0.096367,0.032257,0.68187,0.091696,-0.027833
1465,-0.014191,-0.0063954,-0.10449,0.029333,0.61626,0.074806,-0.028807
1466,-0.010293,0.0056225,-0.13502,0.025111,0.52856,0.066037,-0.026209
1467,-0.0018481,0.017316,-0.18731,0.022837,0.43242,0.065387,-0.020687
1468,0.0091954,0.029333,-0.24903,0.022188,0.33855,0.070909,-0.010943
1469,0.016991,0.042975,-0.30067,0.024461,0.26092,0.081303,0.0033489
1470,0.01764,0.056292,-0.32795,0.027709,0.2122,0.091047,0.019589
1471,0.013418,0.064737,-0.32568,0.02641,0.2057,0.096244,0.032906
1472,0.008221,0.062139,-0.29385,0.018615,0.24111,0.095594,0.039727
1473,0.0059473,0.05207,-0.23863,0.0085458,0.30542,0.084551,0.03453
1474,0.0043233,0.038428,-0.16685,0.00075039,0.37233,0.065062,0.020239
1475,0.0039985,0.029333,-0.089546,-0.0037969,0.41975,0.040377,0.0059473
1476,0.0062721,0.023487,-0.010943,-0.0031473,0.43177,0.013743,-0.0028225
1477,0.0069217,0.013418,0.0865,0.00010078,0.40351,-0.010293,-0.0060706
1478,0.0043233,-0.0099683,0.22162,0.0010752,0.33725,-0.03238,-0.0044465
1479,0.00010078,-0.047646,0.39149,-0.0037969,0.22324,-0.050569,0.0026992
1480,-0.0054209,-0.089546,0.56949,-0.0083442,0.053694,-0.062912,0.014392
1481,-0.0089938,-0.1217,0.70883,-0.0034721,-0.15418,-0.062912,0.026735
1482,-0.0067202,-0.13632,0.75463,0.011144,-0.36823,-0.054142,0.034855
1483,-0.00022403,-0.13015,0.67667,0.026735,-0.54135,-0.042449,0.036804
1484,0.008221,-0.10838,0.49576,0.037129,-0.63132,-0.03238,0.033881
1485,0.012443,-0.08305,0.26352,0.038428,-0.62515,-0.027833,0.028034
1486,0.010819,-0.059339,0.046223,0.033231,-0.5433,-0.028482,0.01764
1487,0.0036737,-0.040175,-0.10838,0.022512,-0.42897,-0.027183,0.0075714
1488,-0.0054209,-0.024909,-0.18569,0.010495,-0.32016,-0.018738,0.0033489
1489,-0.012567,-0.013541,-0.20193,0.0010752,-0.23214,-0.0034721,0.0062721
1490,-0.014191,-0.0041217,-0.18471,-0.0044465,-0.15646,0.012119,0.013418
1491,-0.011592,0.00010078,-0.15905,-0.0073698,-0.074605,0.024137,0.021538
1492,-0.0083442,-0.0018481,-0.13859,-0.0057458,0.027385,0.033231,0.029983
1493,-0.0089938,-0.0083442,-0.1256,-0.0018481,0.15049,0.041027,0.037454
1494,-0.012892,-0.015165,-0.1191,0.0014,0.27521,0.048172,0.043625
1495,-0.01549,-0.020037,-0.11618,0.0043233,0.37818,0.054019,0.044275
1496,-0.011267,-0.022311,-0.11131,0.010819,0.44086,0.058241,0.040052
1497,-0.0021729,-0.022311,-0.10189,0.021538,0.45808,0.063438,0.03453
1498,0.01017,-0.020037,-0.090521,0.034206,0.43404,0.072533,0.031607
1499,0.022837,-0.01549,-0.080776,0.04395,0.3824,0.082602,0.030633
1500,0.031282,-0.0080194,-0.07428,0.046223,0.31744,0.089098,0.030308
1501,0.032582,0.003024,-0.070058,0.041027,0.25443,0.090722,0.025111
1502,0.025436,0.015367,-0.067784,0.033231,0.19921,0.084876,0.016016
1503,0.016991,0.022837,-0.062912,0.02641,0.15373,0.073832,0.0059473
1504,0.014392,0.021863,-0.051868,0.021863,0.1206,0.058891,0.00010078
1505,0.020888,0.010495,-0.033679,0.019589,0.098517,0.044924,-0.0011985
1506,0.031282,-0.0067202,-0.010618,0.016016,0.089098,0.032257,-0.00022403
1507,0.039727,-0.023285,0.0095202,0.011144,0.0865,0.025111,0.00010078
1508,0.039078,-0.024909,0.018615,0.0052977,0.085525,0.021538,0.00042559
1509,0.030308,-0.0031473,0.011794,-0.0018481,0.080003,0.01764,-0.0011985
1510,0.017965,0.038753,-0.0044465,-0.0063954,0.071883,0.010819,-0.0037969
1511,0.011794,0.087474,-0.018738,-0.010293,0.066362,0.0010752,-0.0034721
1512,0.013418,0.12807,-0.020687,-0.011917,0.067986,-0.0063954,0.0026992
1513,0.01764,0.15049,-0.0037969,-0.0089938,0.072858,-0.0096434,0.013093
1514,0.019914,0.15536,0.026735,-0.0018481,0.070584,-0.0073698,0.020239
1515,0.021213,0.14496,0.053694,0.0072465,0.05207,-0.0067202,0.023162
1516,0.019589,0.12483,0.062789,0.014068,0.013418,-0.011267,0.025436
1517,0.01764,0.099492,0.050446,0.016991,-0.035303,-0.024585,0.028359
1518,0.012119,0.075781,0.025761,0.01894,-0.082076,-0.041475,0.030633
1519,0.0056225,0.057267,0.0023744,0.017965,-0.11488,-0.05804,0.030957
1520,0.0010752,0.046548,-0.0080194,0.013418,-0.12755,-0.067134,0.028684
1521,0.0017248,0.043625,-0.010293,0.0088706,-0.12333,-0.065835,0.028359
1522,0.0036737,0.045899,-0.031406,0.0069217,-0.11683,-0.059664,0.031932
1523,0.0056225,0.051745,-0.11423,0.0085458,-0.12333,-0.053168,0.039402
1524,0.0052977,0.055643,-0.27371,0.015367,-0.14346,-0.04992,0.046873
1525,0.0026992,0.05207,-0.47119,0.024786,-0.16945,-0.04992,0.047198
1526,-0.00022403,0.040702,-0.63717,0.033231,-0.19089,-0.04992,0.042651
1527,-0.0021729,0.029983,-0.7122,0.039727,-0.20518,-0.045697,0.037778
1528,-0.0034721,0.024137,-0.65698,0.046223,-0.21785,-0.038876,0.035505
1529,-0.007045,0.023812,-0.44878,0.056617,-0.23149,-0.035303,0.032257
1530,-0.010943,0.026735,-0.1217,0.066362,-0.24805,-0.039851,0.027709
1531,-0.011917,0.029333,0.23234,0.070259,-0.26851,-0.051219,0.019914
1532,-0.0076946,0.029009,0.52629,0.067661,-0.2919,-0.06551,0.012768
1533,-0.0021729,0.019914,0.70526,0.059865,-0.31626,-0.076554,0.009845
1534,0.00075039,0.0033489,0.753,0.048822,-0.33965,-0.087922,0.010819
1535,-0.0018481,-0.012242,0.69324,0.036154,-0.36173,-0.10189,0.015692
1536,-0.0054209,-0.021661,0.56981,0.02641,-0.37927,-0.11293,0.021213
1537,-0.0047713,-0.020687,0.44671,0.024137,-0.39064,-0.11618,0.025761
1538,-0.00087364,-0.010943,0.3798,0.030633,-0.39064,-0.10968,0.027709
1539,0.0033489,0.0039985,0.39084,0.040702,-0.37992,-0.096367,0.026085
1540,0.0075714,0.020564,0.46523,0.049796,-0.36303,-0.0837,0.025761
1541,0.015367,0.033231,0.56559,0.054668,-0.3416,-0.071682,0.030957
1542,0.022512,0.039078,0.65459,0.055318,-0.31496,-0.062587,0.037778
1543,0.026735,0.041351,0.70363,0.05207,-0.27956,-0.058689,0.039402
1544,0.027385,0.039727,0.70916,0.04395,-0.23766,-0.059014,0.035505
1545,0.028034,0.038428,0.68122,0.033231,-0.19348,-0.059664,0.029983
1546,0.030957,0.039078,0.6351,0.022512,-0.14671,-0.05739,0.028684
1547,0.036479,0.045249,0.59385,0.01764,-0.094418,-0.050894,0.033881
1548,0.042975,0.054993,0.56657,0.016991,-0.030756,-0.037577,0.041351
1549,0.050121,0.061814,0.53019,0.022837,0.041351,-0.018738,0.048172
1550,0.054993,0.062789,0.41066,0.030633,0.10664,0.0046481,0.054668
1551,0.054993,0.055318,0.067986,0.03518,0.15503,0.030633,0.061165
1552,0.046873,0.036154,-0.57448,0.027385,0.19044,0.056617,0.066037
1553,0.032257,0.0052977,-1.3839,0.0065969,0.2135,0.080653,0.067336
1554,0.01894,-0.027183,-2.1014,-0.028807,0.22617,0.099167,0.059865
1555,0.0088706,-0.050894,-2.4944,-0.070058,0.23494,0.10306,0.041027
1556,0.00075039,-0.061288,-2.4662,-0.10156,0.23916,0.092346,0.014392
1557,-0.0060706,-0.059339,-2.0767,-0.11066,0.23818,0.073507,-0.010293
1558,-0.010293,-0.048296,-1.4908,-0.09994,0.22812,0.05142,-0.027508
1559,-0.014516,-0.034004,-0.89279,-0.078827,0.20311,0.029658,-0.037902
1560,-0.017764,-0.022636,-0.41728,-0.057715,0.15731,0.010495,-0.044398
1561,-0.022311,-0.011917,-0.11878,-0.040825,0.098842,-0.0047713,-0.047646
1562,-0.027833,-0.0021729,0.020888,-0.03238,0.048497,-0.01484,-0.045697
1563,-0.03238,0.0036737,0.054993,-0.027508,0.018615,-0.018088,-0.04115
1564,-0.03303,0.0065969,0.040052,-0.018088,0.0065969,-0.0099683,-0.035953
1565,-0.026533,0.0085458,0.015692,-0.0063954,0.0043233,0.008221,-0.029782
1566,-0.016464,0.012443,0.0056225,0.0023744,0.0056225,0.028684,-0.022311
1567,-0.007045,0.016341,0.011144,0.0039985,0.0039985,0.0433,-0.014516
1568,-0.0028225,0.01829,0.028034,0.0017248,-0.0034721,0.047847,-0.0099683
1569,-0.0076946,0.019589,0.047523,-0.0024977,-0.018413,0.044599,-0.012242
1570,-0.021337,0.020888,0.062789,-0.0034721,-0.038227,0.038103,-0.021661
1571,-0.032705,0.021863,0.069285,-0.0015233,-0.056741,0.034206,-0.033354
1572,-0.030106,0.019264,0.067661,0.0049729,-0.067134,0.040377,-0.041475
1573,-0.015815,0.015692,0.059541,0.008221,-0.070382,0.062789,-0.039201
1574,0.0023744,0.010819,0.054993,0.0065969,-0.071357,0.093321,-0.029457
1575,0.013418,0.0088706,0.06019,0.00042559,-0.074605,0.12125,-0.018738
1576,0.013743,0.0095202,0.076431,-0.0080194,-0.0824,0.13717,-0.010943
1577,0.0052977,0.011469,0.095919,-0.012242,-0.086948,0.1336,-0.0093186
1578,-0.0076946,0.013743,0.1284,-0.010943,-0.087922,0.11216,-0.0096434
1579,-0.02361,0.016016,0.19888,-0.0047713,-0.084999,0.084551,-0.010293
1580,-0.040825,0.013418,0.32491,0.0023744,-0.078827,0.059541,-0.010293
1581,-0.059014,0.0065969,0.50355,0.0043233,-0.066485,0.042651,-0.013866
1582,-0.072006,-0.0034721,0.69714,0.0017248,-0.040175,0.034855,-0.022636
1583,-0.076554,-0.016464,0.84687,-0.007045,0.01764,0.028034,-0.036278
1584,-0.074605,-0.029132,0.90826,-0.016789,0.1284,0.016016,-0.050244
1585,-0.068758,-0.037902,0.86474,-0.025234,0.29697,-0.0060706,-0.061288
1586,-0.057715,-0.037577,0.73644,-0.031081,0.50323,-0.034654,-0.067459
1587,-0.046347,-0.030756,0.56299,-0.03303,0.69649,-0.061613,-0.064211
1588,-0.041475,-0.022961,0.3876,-0.030431,0.81115,-0.078178,-0.054467
1589,-0.04115,-0.019388,0.24013,-0.025234,0.80822,-0.08305,-0.039851
1590,-0.04115,-0.018738,0.1362,-0.018738,0.68544,-0.0824,-0.023285
1591,-0.038227,-0.019063,0.074482,-0.014516,0.47919,-0.082725,-0.0099683
1592,-0.032705,-0.017114,0.041351,-0.013866,0.23689,-0.087597,-0.007045
1593,-0.02361,-0.013541,0.019264,-0.015165,0.0023744,-0.09929,-0.013216
1594,-0.011917,-0.011592,0.00075039,-0.013866,-0.19478,-0.11845,-0.021661
1595,-0.0031473,-0.010293,-0.015165,-0.0073698,-0.34355,-0.13957,-0.026858
1596,-0.00087364,-0.0096434,-0.027833,0.00010078,-0.44294,-0.15386,-0.029132
1597,-0.0011985,-0.0099683,-0.039526,0.0062721,-0.49945,-0.15418,-0.029132
1598,-0.0011985,-0.0073698,-0.051219,0.010495,-0.52804,-0.14541,-0.025884
1599,0.00042559,0.00042559,-0.064211,0.01017,-0.53421,-0.12917,-0.021986
1600,0.0052977,0.012119,-0.078827,0.0056225,-0.52998,-0.11098,-0.016464
1601,0.009845,0.022837,-0.10091,0.00010078,-0.51634,-0.093119,-0.010293
1602,0.01017,0.031932,-0.12885,-0.00022403,-0.49003,-0.076229,-0.0060706
1603,0.01017,0.039402,-0.15353,0.008221,-0.45138,-0.059014,-0.0041217
1604,0.013418,0.049147,-0.15646,0.022188,-0.39746,-0.042124,0.00075039
1605,0.019264,0.059216,-0.10254,0.036479,-0.33088,-0.024909,0.01017
1606,0.020888,0.065712,0.038103,0.046223,-0.25065,-0.0093186,0.021863
1607,0.021863,0.066362,0.258,0.050771,-0.15093,0.0043233,0.032582
1608,0.021538,0.059216,0.5081,0.05207,-0.031081,0.015042,0.036804
1609,0.018615,0.049147,0.71175,0.047847,0.098842,0.024461,0.034206
1610,0.016341,0.040377,0.81602,0.039727,0.21188,0.032906,0.031282
1611,0.014068,0.031282,0.82251,0.028684,0.29048,0.044924,0.031607
1612,0.014717,0.017965,0.74553,0.01764,0.32978,0.062139,0.031932
1613,0.01764,-0.0024977,0.58053,0.0085458,0.34115,0.084551,0.031932
1614,0.021863,-0.025884,0.33498,0.00042559,0.33823,0.11118,0.03583
1615,0.025111,-0.047646,0.059216,-0.0063954,0.33043,0.13684,0.045574
1616,0.027709,-0.062262,-0.18244,-0.013866,0.30282,0.15503,0.057917
1617,0.034206,-0.067134,-0.34874,-0.017764,0.23266,0.15731,0.066362
1618,0.044599,-0.064211,-0.43287,-0.011267,0.10242,0.14724,0.070584
1619,0.052395,-0.056741,-0.44618,0.0056225,-0.10384,0.13165,0.069285
1620,0.054993,-0.046347,-0.41305,0.025111,-0.3705,0.11118,0.063763
1621,0.05142,-0.034978,-0.35914,0.039078,-0.64594,0.085525,0.056617
1622,0.046873,-0.023935,-0.30424,0.042651,-0.87266,0.054344,0.054019
1623,0.040052,-0.013216,-0.25617,0.037454,-1.0032,0.020888,0.056942
1624,0.033556,-0.0018481,-0.21395,0.029333,-1.0214,-0.007045,0.059865
1625,0.028034,0.01017,-0.17465,0.025111,-0.93729,-0.025559,0.058566
1626,0.025111,0.021213,-0.13729,0.027385,-0.78723,-0.035953,0.049796
1627,0.028359,0.033881,-0.10286,0.035505,-0.61216,-0.041799,0.036479
1628,0.041027,0.05272,-0.076879,0.050446,-0.44099,-0.047321,0.024137
1629,0.057267,0.079354,-0.059989,0.067661,-0.29645,-0.05739,0.019914
1630,0.06961,0.11183,-0.053817,0.080328,-0.20193,-0.077203,0.023812
1631,0.073832,0.14042,-0.057065,0.081952,-0.17724,-0.11261,0.028684
1632,0.066362,0.15861,-0.070707,0.073182,-0.22499,-0.16458,0.029333
1633,0.048497,0.16315,-0.093444,0.057592,-0.3286,-0.22629,0.022188
1634,0.027709,0.15373,-0.1217,0.038103,-0.43644,-0.28313,0.0091954
1635,0.0091954,0.13295,-0.14866,0.016991,-0.48191,-0.32113,-0.0067202
1636,-0.0011985,0.10339,-0.1701,-0.0044465,-0.42182,-0.3312,-0.021661
1637,-0.0050961,0.070259,-0.18309,-0.021012,-0.25877,-0.31626,-0.035953
1638,-0.0028225,0.039078,-0.18569,-0.033354,-0.034978,-0.28281,-0.047971
1639,0.0043233,0.014068,-0.17367,-0.039201,0.19823,-0.23603,-0.056416
1640,0.012768,-0.007045,-0.15061,-0.037577,0.40221,-0.18017,-0.060638
1641,0.016666,-0.027183,-0.11975,-0.031081,0.55974,-0.12008,-0.062587
1642,0.014392,-0.054142,-0.078503,-0.022961,0.66758,-0.061288,-0.063561
1643,0.0056225,-0.090196,-0.025234,-0.01549,0.73222,-0.0089938,-0.065186
1644,-0.0063954,-0.13794,0.034855,-0.011917,0.77054,0.033556,-0.064861
1645,-0.019063,-0.20128,0.076755,-0.011592,0.79815,0.065712,-0.06616
1646,-0.030756,-0.28248,0.035505,-0.012242,0.82219,0.085525,-0.071357
1647,-0.045047,-0.37115,-0.13469,-0.019063,0.84363,0.093321,-0.080776
1648,-0.061613,-0.44391,-0.38545,-0.035628,0.85499,0.090722,-0.090196
1649,-0.076879,-0.47347,-0.59625,-0.061288,0.84752,0.0852,-0.09182
1650,-0.083375,-0.44683,-0.65439,-0.084999,0.82186,0.081952,-0.086948
1651,-0.079477,-0.36985,-0.52869,-0.10091,0.78678,0.08585,-0.079802
1652,-0.068434,-0.26137,-0.27956,-0.10514,0.75041,0.094945,-0.073631
1653,-0.053492,-0.14314,-0.012892,-0.095068,0.71857,0.10469,-0.068434
1654,-0.037252,-0.040175,0.18069,-0.072331,0.6848,0.11151,-0.064211
1655,-0.02361,0.036154,0.26644,-0.043099,0.62308,0.11118,-0.055766
1656,-0.01549,0.0852,0.26417,-0.016464,0.51265,0.10274,-0.043748
1657,-0.012892,0.11508,0.22487,0.003024,0.36324,0.081952,-0.032055
1658,-0.014516,0.131,0.18719,0.016666,0.18914,0.050121,-0.026209
1659,-0.014191,0.13879,0.1625,0.025761,0.010819,0.014392,-0.029457
1660,-0.0073698,0.14237,0.14334,0.033231,-0.1321,-0.017439,-0.032705
1661,0.0023744,0.14464,0.11833,0.038103,-0.20908,-0.040175,-0.033679
1662,0.011469,0.14496,0.083251,0.040052,-0.22272,-0.053817,-0.029457
1663,0.01764,0.14334,0.0433,0.039078,-0.19186,-0.061613,-0.022311
1664,0.023487,0.13717,0.010495,0.040052,-0.14054,-0.068109,-0.015165
1665,0.025761,0.1258,-0.011267,0.048172,-0.087597,-0.075579,-0.011267
1666,0.021538,0.11086,-0.026533,0.057267,-0.043423,-0.080776,-0.0099683
1667,0.011469,0.095594,-0.044723,0.062139,-0.014516,-0.077528,-0.0076946
1668,0.0014,0.083576,-0.061937,0.054993,-0.0041217,-0.060963,-0.0060706
1669,-0.0031473,0.074482,-0.069408,0.037778,-0.010293,-0.037902,-0.0037969
1670,-0.0044465,0.066686,-0.055116,0.016341,-0.029457,-0.019388,0.0010752
1671,-0.0050961,0.060515,-0.019388,0.00042559,-0.050569,-0.010293,0.0091954
1672,-0.008669,0.058241,0.033881,-0.0057458,-0.069083,-0.0063954,0.021538
1673,-0.01614,0.061814,0.086175,-0.0018481,-0.084349,-0.00087364,0.034206
1674,-0.023935,0.065712,0.11411,0.0065969,-0.099615,0.009845,0.042326
1675,-0.028807,0.065387,0.10729,0.015042,-0.11715,0.022512,0.045574
1676,-0.031081,0.057917,0.072208,0.020888,-0.13567,0.029983,0.047198
1677,-0.030756,0.047198,0.02641,0.023487,-0.14964,0.034855,0.048497
1678,-0.028807,0.037778,-0.013541,0.026735,-0.15581,0.038753,0.051745
1679,-0.024585,0.033556,-0.040175,0.034855,-0.14931,0.041676,0.056942
1680,-0.021337,0.032257,-0.050569,0.046223,-0.1295,0.048497,0.059865
1681,-0.017439,0.031932,-0.047646,0.055968,-0.10351,0.051096,0.058891
1682,-0.011917,0.029983,-0.034654,0.058566,-0.079802,0.05207,0.058241
1683,-0.0047713,0.02706,-0.020037,0.05272,-0.063886,0.050446,0.061814
1684,0.0039985,0.025111,-0.008669,0.044275,-0.052843,0.047198,0.068635
1685,0.015692,0.028034,-0.0024977,0.042001,-0.043423,0.044275,0.076431
1686,0.026735,0.031282,0.0017248,0.05142,-0.037252,0.044275,0.078379
1687,0.036804,0.033231,0.0056225,0.06831,-0.0405,0.042326,0.075781
1688,0.041676,0.034855,0.011794,0.081303,-0.055116,0.037454,0.070909
1689,0.044924,0.038428,0.019264,0.083251,-0.071682,0.033231,0.068635
1690,0.049147,0.042001,0.023162,0.076106,-0.079477,0.031607,0.070584
1691,0.049472,0.045574,0.021538,0.067661,-0.076229,0.029333,0.071883
1692,0.043625,0.046223,0.012443,0.061814,-0.065186,0.024461,0.070584
1693,0.039402,0.045574,-0.0024977,0.054993,-0.051219,0.019589,0.067011
1694,0.0433,0.045899,-0.016789,0.046548,-0.04992,0.016991,0.064737
1695,0.053694,0.044275,-0.025884,0.039727,-0.072006,0.013743,0.064413
1696,0.064737,0.042326,-0.030756,0.034855,-0.12333,0.010819,0.063113
1697,0.072208,0.039727,-0.030756,0.030633,-0.19446,0.0085458,0.059541
1698,0.072208,0.038428,-0.026533,0.025111,-0.27046,0.0075714,0.054019
1699,0.064088,0.038103,-0.019712,0.019589,-0.33413,0.0043233,0.043625
1700,0.049796,0.039727,-0.011592,0.014068,-0.3783,-0.0018481,0.032582
1701,0.036479,0.040702,-0.0076946,0.0043233,-0.40461,-0.0073698,0.025436
1702,0.028034,0.040377,-0.0067202,-0.0083442,-0.41305,-0.011267,0.023812
1703,0.022188,0.040052,-0.012892,-0.020362,-0.40916,-0.0089938,0.028034
1704,0.016341,0.042975,-0.022961,-0.031406,-0.39681,-0.00054884,0.032906
1705,0.012768,0.046873,-0.028807,-0.038227,-0.37765,0.010495,0.032906
1706,0.012768,0.049147,-0.028157,-0.040175,-0.35069,0.021213,0.026735
1707,0.012119,0.045899,-0.023935,-0.035628,-0.31724,0.02706,0.015042
1708,0.008221,0.038753,-0.016464,-0.027508,-0.28118,0.023487,0.0062721
1709,-0.00022403,0.030957,-0.0054209,-0.016789,-0.24286,0.009845,0.0049729
1710,-0.0099683,0.026085,0.0049729,-0.0021729,-0.20388,-0.011592,0.0056225
1711,-0.019712,0.022512,0.011794,0.012443,-0.1636,-0.03238,0.00075039
1712,-0.027833,0.017316,0.016341,0.022188,-0.11878,-0.046022,-0.012567
1713,-0.034978,0.012119,0.021213,0.02706,-0.067459,-0.047646,-0.031406
1714,-0.039851,0.0075714,0.025111,0.028359,-0.010618,-0.043423,-0.045697
1715,-0.041799,0.0026992,0.025436,0.026735,0.048822,-0.036278,-0.048945
1716,-0.0405,-0.0024977,0.016016,0.022188,0.10339,-0.029132,-0.042124
1717,-0.037902,-0.010293,-0.0083442,0.013743,0.14789,-0.022961,-0.031081
1718,-0.034654,-0.020687,-0.047971,0.0039985,0.17712,-0.020362,-0.026209
1719,-0.032055,-0.030106,-0.095068,0.0026992,0.19369,-0.020687,-0.031406
1720,-0.030431,-0.035303,-0.13729,0.0088706,0.20376,-0.018738,-0.038876
1721,-0.026533,-0.03303,-0.1636,0.016666,0.2109,-0.012567,-0.041799
1722,-0.022961,-0.030106,-0.16847,0.025761,0.21317,-0.0099683,-0.035953
1723,-0.022636,-0.029132,-0.15581,0.032257,0.20116,-0.012242,-0.022961
1724,-0.024585,-0.03238,-0.13112,0.03453,0.17939,-0.013866,-0.0063954
1725,-0.029457,-0.038227,-0.098965,0.031932,0.16348,-0.012567,0.0085458
1726,-0.03173,-0.043099,-0.063237,0.026735,0.1638,-0.008669,0.020239
1727,-0.027833,-0.042124,-0.028807,0.022512,0.1638,-0.0067202,0.025761
