,channel_1,channel_2,channel_3,channel_4,channel_5,channel_6,channel_7
0,0.071883,0.064737,0.012768,0.045899,-0.22597,0.093645,0.11736
1,0.056292,-0.020362,0.0059473,0.048822,-0.24156,0.10761,0.10306
2,0.051745,-0.079802,0.0010752,0.041676,-0.22597,0.1232,0.10079
3,0.05142,-0.10514,-0.0041217,0.031607,-0.17724,0.1336,0.10729
4,0.054993,-0.092794,-0.0076946,0.025111,-0.10449,0.13035,0.11671
5,0.061489,-0.050244,-0.0080194,0.023162,-0.0083442,0.10989,0.12125
6,0.064737,0.0017248,-0.0060706,0.01894,0.11606,0.074482,0.11606
7,0.06019,0.038753,-0.0041217,0.013418,0.26449,0.02641,0.10371
8,0.054344,0.050121,-0.0054209,0.0052977,0.42008,-0.028157,0.09397
9,0.054993,0.041676,-0.0080194,-0.0054209,0.54708,-0.0824,0.091696
10,0.061489,0.029333,-0.0067202,-0.016789,0.5945,-0.12917,0.091372
11,0.067011,0.022512,0.00042559,-0.023935,0.52661,-0.1649,0.090722
12,0.063438,0.020564,0.010819,-0.021661,0.35447,-0.19024,0.084876
13,0.055643,0.020888,0.01764,-0.015165,0.1362,-0.20713,0.070909
14,0.044924,0.016016,0.015042,-0.012567,-0.050569,-0.21622,0.048822
15,0.034855,0.0049729,0.0056225,-0.014191,-0.14444,-0.2172,0.020888
16,0.026735,-0.0080194,-0.0050961,-0.020037,-0.12138,-0.2146,-0.012242
17,0.021863,-0.017764,-0.014191,-0.026533,-0.0073698,-0.21102,-0.046671
18,0.019914,-0.022311,-0.018088,-0.033354,0.13977,-0.21005,-0.077203
19,0.022188,-0.020037,-0.01484,-0.039201,0.258,-0.20875,-0.10156
20,0.030633,-0.01614,-0.0063954,-0.045047,0.30834,-0.20128,-0.1178
21,0.043625,-0.01614,0.00010078,-0.052518,0.28723,-0.18634,-0.12917
22,0.05142,-0.022961,0.0020496,-0.055766,0.2148,-0.1649,-0.13794
23,0.048172,-0.03173,0.00075039,-0.04927,0.11801,-0.14152,-0.14736
24,0.027709,-0.03303,-0.0037969,-0.040175,0.015367,-0.1204,-0.15808
25,-0.010618,-0.022636,-0.0076946,-0.033354,-0.086298,-0.10221,-0.16847
26,-0.051868,-0.0057458,-0.0093186,-0.029782,-0.19219,-0.085648,-0.16815
27,-0.08305,0.013418,-0.0099683,-0.023285,-0.30782,-0.070382,-0.15743
28,-0.095393,0.026735,-0.012242,-0.013866,-0.43319,-0.05739,-0.13892
29,-0.088896,0.03453,-0.015165,-0.0041217,-0.55467,-0.044723,-0.12105
30,-0.06616,0.032582,-0.019063,0.0039985,-0.65406,-0.031081,-0.10838
31,-0.036927,0.018615,-0.024585,0.0069217,-0.7161,-0.020037,-0.10254
32,-0.012242,-0.0031473,-0.03173,0.0033489,-0.73364,-0.012242,-0.10124
33,-0.0018481,-0.023285,-0.038876,-0.0031473,-0.70733,-0.0041217,-0.095068
34,-0.0034721,-0.033354,-0.041799,-0.0063954,-0.64302,0.009845,-0.080776
35,-0.010618,-0.03238,-0.042124,-0.0037969,-0.55402,0.029009,-0.058689
36,-0.01484,-0.02426,-0.036602,0.0056225,-0.45073,0.049147,-0.035303
37,-0.016789,-0.013866,-0.025559,0.01894,-0.34517,0.06896,-0.020362
38,-0.017764,-0.0044465,-0.01484,0.030957,-0.25,0.0852,-0.016789
39,-0.021337,-0.00022403,-0.0093186,0.033881,-0.17432,0.094945,-0.023285
40,-0.027508,-0.0015233,-0.0093186,0.028684,-0.11878,0.094295,-0.034004
41,-0.031406,-0.007045,-0.011592,0.017316,-0.068434,0.078379,-0.045372
42,-0.028807,-0.013216,-0.013866,0.0059473,-0.0015233,0.05207,-0.052843
43,-0.018088,-0.017114,-0.01484,-0.0037969,0.10599,0.018615,-0.054467
44,-0.0028225,-0.020687,-0.013541,-0.0067202,0.25053,-0.0089938,-0.047971
45,0.014717,-0.025559,-0.015165,-0.0063954,0.39442,-0.024585,-0.037902
46,0.030308,-0.030756,-0.023935,-0.0093186,0.49576,-0.027508,-0.031406
47,0.040702,-0.034329,-0.039201,-0.019712,0.53311,-0.017439,-0.028807
48,0.044924,-0.03303,-0.053492,-0.03303,0.50907,0.0026992,-0.027833
49,0.044599,-0.026533,-0.059989,-0.041475,0.44704,0.028034,-0.022311
50,0.037454,-0.017764,-0.056416,-0.037902,0.37136,0.057917,-0.0063954
51,0.025761,-0.0076946,-0.047646,-0.022961,0.30185,0.092671,0.01764
52,0.012768,0.00075039,-0.039526,-0.0044465,0.24273,0.12775,0.041351
53,0.0033489,0.0046481,-0.03238,0.010495,0.19921,0.15926,0.054668
54,0.00010078,0.0056225,-0.026858,0.01894,0.16348,0.17647,0.051096
55,0.0017248,0.0033489,-0.021986,0.016666,0.12548,0.17387,0.03453
56,0.0072465,0.0023744,-0.020362,0.0043233,0.079029,0.14724,0.014068
57,0.016666,0.0023744,-0.022311,-0.0076946,0.027385,0.10761,-0.00054884
58,0.024137,0.0072465,-0.023935,-0.01614,-0.027183,0.069285,-0.0080194
59,0.025761,0.015692,-0.022961,-0.021337,-0.095393,0.040702,-0.010293
60,0.024137,0.023812,-0.015165,-0.021337,-0.18861,0.024786,-0.011267
61,0.021213,0.029658,-0.0021729,-0.01484,-0.30424,0.016341,-0.015165
62,0.01764,0.031932,0.0091954,-0.007045,-0.41435,0.014068,-0.020362
63,0.011469,0.031932,0.015042,-0.00087364,-0.48711,0.019589,-0.025234
64,0.0049729,0.028359,0.011794,0.0020496,-0.50303,0.037129,-0.024585
65,0.00042559,0.023162,0.0036737,0.0036737,-0.45625,0.067661,-0.018088
66,-0.00054884,0.017965,-0.0018481,0.0088706,-0.35881,0.10891,-0.0093186
67,0.003024,0.013743,0.0017248,0.016666,-0.23311,0.14951,0.0010752
68,0.0088706,0.011144,0.011794,0.029983,-0.096692,0.17647,0.011794
69,0.011794,0.0095202,0.021213,0.040377,0.025111,0.18459,0.020239
70,0.010495,0.0078962,0.026735,0.040702,0.099492,0.1755,0.02706
71,0.0065969,0.0046481,0.029009,0.032257,0.098517,0.15763,0.029983
72,0.0036737,-0.00054884,0.027709,0.022512,0.019589,0.13425,0.027385
73,0.0033489,-0.0044465,0.023487,0.016016,-0.10968,0.10794,0.021538
74,0.0023744,-0.0037969,0.01894,0.015367,-0.25162,0.078704,0.018615
75,0.0010752,0.0033489,0.01894,0.014717,-0.37115,0.048497,0.024461
76,0.00010078,0.014068,0.024461,0.011794,-0.45138,0.018615,0.039402
77,0.0014,0.020888,0.032582,0.0078962,-0.49426,-0.007045,0.058566
78,0.003024,0.023812,0.041676,0.0075714,-0.51245,-0.029132,0.081627
79,0.0043233,0.023812,0.05142,0.013743,-0.51829,-0.04992,0.10404
80,0.0023744,0.024137,0.055318,0.023162,-0.51407,-0.072656,0.12223
81,0.0014,0.025111,0.050446,0.030308,-0.49068,-0.097341,0.1297
82,0.0020496,0.022188,0.037454,0.031282,-0.43806,-0.11845,0.12385
83,0.00075039,0.015367,0.020564,0.024137,-0.35524,-0.1321,0.10209
84,-0.0034721,0.0072465,0.0052977,0.012443,-0.25682,-0.13534,0.070909
85,-0.0089938,-0.0011985,-0.008669,0.0039985,-0.1636,-0.1321,0.039727
86,-0.013866,-0.007045,-0.021986,0.0010752,-0.092794,-0.1256,0.016341
87,-0.018088,-0.0083442,-0.030431,0.0049729,-0.047971,-0.12203,0.0056225
88,-0.020687,-0.0024977,-0.029132,0.013093,-0.021012,-0.12008,0.0065969
89,-0.018088,0.0091954,-0.01484,0.023162,-0.0018481,-0.11261,0.014068
90,-0.015165,0.024786,0.0069217,0.034206,0.013093,-0.09182,0.022837
91,-0.013216,0.038103,0.028034,0.044599,0.027709,-0.063886,0.027385
92,-0.014191,0.048497,0.044275,0.051096,0.039402,-0.040175,0.029658
93,-0.013866,0.054344,0.049796,0.054668,0.042326,-0.028157,0.030633
94,-0.0099683,0.058891,0.046223,0.058566,0.032582,-0.025234,0.028359
95,-0.0034721,0.058891,0.036154,0.064413,0.016991,-0.02426,0.019264
96,-0.0021729,0.052395,0.023487,0.067011,0.00010078,-0.024585,0.0049729
97,-0.0096434,0.038103,0.0072465,0.064088,-0.013541,-0.025234,-0.010293
98,-0.02426,0.013093,-0.011267,0.051096,-0.024909,-0.02361,-0.021012
99,-0.0405,-0.017439,-0.030106,0.03583,-0.025234,-0.020037,-0.017114
100,-0.048296,-0.039526,-0.040175,0.026735,-0.010943,-0.01549,0.00075039
101,-0.045047,-0.04115,-0.036278,0.028034,0.015042,-0.0096434,0.024461
102,-0.033354,-0.019712,-0.022961,0.036479,0.044924,-0.0031473,0.042326
103,-0.020362,0.012119,-0.0063954,0.047198,0.06896,0.0023744,0.045574
104,-0.0096434,0.040702,0.0049729,0.055968,0.086175,0.0046481,0.03518
105,-0.0018481,0.058241,0.011144,0.058891,0.099817,0.0036737,0.017965
106,0.0014,0.062139,0.011794,0.057267,0.11508,0.0072465,0.0059473
107,0.0010752,0.057267,0.009845,0.054993,0.13132,0.018615,0.0026992
108,-0.00087364,0.051745,0.0033489,0.054668,0.14659,0.030957,0.0046481
109,-0.0031473,0.050121,-0.0044465,0.054019,0.16153,0.037454,0.0072465
110,-0.0041217,0.050771,-0.0089938,0.052395,0.1768,0.035505,0.0046481
111,-0.0044465,0.055318,-0.0076946,0.050771,0.19336,0.027385,-0.00054884
112,-0.0063954,0.06084,-0.00087364,0.048822,0.20668,0.021863,-0.0024977
113,-0.0067202,0.061165,0.0088706,0.045574,0.21252,0.024461,0.0033489
114,-0.0060706,0.050121,0.01829,0.038103,0.21285,0.03583,0.015367
115,-0.0073698,0.02641,0.023162,0.029009,0.21188,0.048822,0.026735
116,-0.0080194,-0.0054209,0.023162,0.022837,0.21772,0.059541,0.029333
117,-0.0021729,-0.034004,0.017316,0.021538,0.23721,0.068635,0.02641
118,0.013743,-0.052518,0.0062721,0.023812,0.26839,0.079354,0.016341
119,0.03583,-0.060638,-0.0096434,0.024137,0.30542,0.089748,0.003024
120,0.058241,-0.062262,-0.02361,0.020564,0.3418,0.095269,-0.011267
121,0.074157,-0.061613,-0.032055,0.013743,0.37136,0.092996,-0.021337
122,0.076431,-0.063561,-0.036927,0.0033489,0.39149,0.080653,-0.028807
123,0.063438,-0.069083,-0.043099,-0.0080194,0.39539,0.055318,-0.037577
124,0.039727,-0.073306,-0.052843,-0.021986,0.38013,0.012119,-0.047321
125,0.011469,-0.072656,-0.064211,-0.035953,0.35252,-0.044398,-0.056091
126,-0.011267,-0.067134,-0.072006,-0.047321,0.32653,-0.10579,-0.063237
127,-0.026209,-0.053168,-0.070058,-0.057065,0.31257,-0.15548,-0.06616
128,-0.040825,-0.027183,-0.055116,-0.065186,0.31354,-0.17302,-0.062587
129,-0.064211,0.012768,-0.025559,-0.063886,0.32686,-0.15126,-0.046347
130,-0.092145,0.064413,0.011144,-0.044723,0.34862,-0.096692,-0.014191
131,-0.11651,0.11736,0.047523,-0.012242,0.36713,-0.031406,0.029333
132,-0.13242,0.15666,0.075456,0.025436,0.3733,0.023487,0.071234
133,-0.13275,0.17387,0.092021,0.056942,0.35966,0.053044,0.10047
134,-0.11586,0.17127,0.097218,0.076106,0.32361,0.057917,0.11151
135,-0.084349,0.15861,0.09397,0.081303,0.26774,0.045249,0.10404
136,-0.046671,0.14464,0.084226,0.074806,0.19661,0.025111,0.084226
137,-0.011917,0.13067,0.071234,0.059541,0.11508,0.0052977,0.059216
138,0.015692,0.11378,0.055968,0.039727,0.021213,-0.0096434,0.039078
139,0.032257,0.09462,0.039078,0.021863,-0.084024,-0.015815,0.02641
140,0.038753,0.073832,0.020239,0.0088706,-0.19738,-0.013541,0.020564
141,0.038428,0.053044,0.0062721,0.0046481,-0.31854,-0.0080194,0.023487
142,0.032906,0.03583,-0.0024977,0.0072465,-0.44748,-0.0096434,0.028359
143,0.021538,0.022837,-0.0063954,0.0075714,-0.57318,-0.021012,0.030308
144,0.0078962,0.0095202,-0.012892,0.0014,-0.67777,-0.039526,0.025111
145,-0.0044465,-0.0041217,-0.024585,-0.0083442,-0.73981,-0.054792,0.014068
146,-0.011917,-0.021337,-0.037902,-0.013541,-0.74078,-0.058365,0.0023744
147,-0.013866,-0.038227,-0.045697,-0.011592,-0.67647,-0.048945,-0.0044465
148,-0.011267,-0.048296,-0.043099,-0.0080194,-0.56214,-0.030106,-0.0028225
149,-0.0015233,-0.052843,-0.034329,-0.0031473,-0.42735,-0.011592,0.0049729
150,0.014068,-0.051544,-0.022636,-0.00087364,-0.30002,0.0010752,0.014717
151,0.030957,-0.047321,-0.01484,-0.00054884,-0.19251,0.0072465,0.026085
152,0.0433,-0.040825,-0.013866,0.0014,-0.11033,0.012768,0.039402
153,0.05207,-0.032705,-0.017439,0.0056225,-0.049595,0.019264,0.054344
154,0.057267,-0.021661,-0.020687,0.0095202,0.00010078,0.024137,0.071558
155,0.056292,-0.007045,-0.019063,0.0091954,0.052395,0.024137,0.082277
156,0.046873,0.0043233,-0.013541,0.0033489,0.11183,0.01894,0.082602
157,0.029333,0.0095202,-0.0047713,-0.0050961,0.17485,0.011469,0.073182
158,0.0095202,0.0065969,0.0056225,-0.008669,0.23429,0.0072465,0.06084
159,-0.00087364,-0.00054884,0.012119,-0.0083442,0.28366,0.0075714,0.050446
160,0.00010078,-0.0057458,0.010819,-0.0057458,0.31744,0.0095202,0.041027
161,0.011794,-0.0076946,0.0043233,-0.0047713,0.33823,0.011794,0.03453
162,0.025111,-0.010618,-0.0011985,-0.0083442,0.34277,0.013418,0.029658
163,0.031282,-0.013866,-0.0034721,-0.012892,0.32913,0.014717,0.026735
164,0.026085,-0.018413,-0.0018481,-0.014516,0.30282,0.012443,0.024137
165,0.014068,-0.025234,0.0017248,-0.013541,0.27424,0.003024,0.019589
166,-0.0011985,-0.030106,0.0059473,-0.011917,0.25507,-0.0093186,0.011794
167,-0.010618,-0.029782,0.011469,-0.013216,0.24988,-0.016789,0.0043233
168,-0.010293,-0.025234,0.017316,-0.013216,0.25378,-0.016789,-0.0011985
169,-0.0060706,-0.018413,0.025761,-0.011592,0.25572,-0.0083442,-0.0054209
170,-0.0050961,-0.010618,0.035505,-0.011592,0.24371,0.0033489,-0.011592
171,-0.011592,-0.0063954,0.040702,-0.018413,0.21415,0.012443,-0.026209
172,-0.027508,-0.011267,0.032582,-0.031081,0.16218,0.015042,-0.047971
173,-0.046022,-0.025884,0.012119,-0.045697,0.09462,0.010819,-0.071357
174,-0.05739,-0.044723,-0.013866,-0.056091,0.024786,-0.00022403,-0.087272
175,-0.057065,-0.059664,-0.036602,-0.058689,-0.034654,-0.015815,-0.092469
176,-0.043423,-0.065186,-0.046022,-0.053168,-0.078178,-0.027183,-0.087597
177,-0.021986,-0.065186,-0.039201,-0.040825,-0.10903,-0.027833,-0.077203
178,0.0020496,-0.059339,-0.024585,-0.025559,-0.14087,-0.020687,-0.06681
179,0.023487,-0.052193,-0.012242,-0.012892,-0.18049,-0.01549,-0.058689
180,0.040377,-0.042449,-0.0060706,-0.0073698,-0.22402,-0.018088,-0.054792
181,0.05142,-0.027183,-0.0054209,-0.0093186,-0.26624,-0.027508,-0.04992
182,0.057267,-0.010618,-0.0060706,-0.01484,-0.29547,-0.037902,-0.045047
183,0.056617,0.003024,-0.0034721,-0.017439,-0.301,-0.047646,-0.047646
184,0.047523,0.013743,0.003024,-0.014516,-0.28216,-0.055766,-0.059664
185,0.038103,0.021863,0.013743,-0.0073698,-0.23993,-0.05804,-0.076554
186,0.032257,0.02706,0.02706,0.00075039,-0.17172,-0.053168,-0.088896
187,0.029983,0.02641,0.036154,0.008221,-0.078827,-0.043423,-0.094418
188,0.028034,0.022188,0.03583,0.014068,0.021213,-0.039851,-0.092794
189,0.02641,0.019589,0.027385,0.016016,0.10534,-0.047646,-0.087272
190,0.028034,0.019914,0.012119,0.011469,0.15698,-0.063886,-0.081751
191,0.036479,0.019589,-0.0067202,0.0014,0.1651,-0.080127,-0.078827
192,0.055968,0.016666,-0.024585,-0.008669,0.131,-0.092469,-0.076879
193,0.082602,0.0085458,-0.03303,-0.017764,0.064088,-0.097991,-0.072656
194,0.10631,-0.0024977,-0.030106,-0.024909,-0.021986,-0.098316,-0.064211
195,0.11931,-0.012892,-0.020037,-0.029782,-0.11813,-0.091495,-0.051868
196,0.11995,-0.02361,-0.011917,-0.034978,-0.21849,-0.077203,-0.036278
197,0.11248,-0.032055,-0.010618,-0.041475,-0.31561,-0.059014,-0.016464
198,0.097868,-0.040175,-0.016789,-0.041799,-0.40201,-0.042449,0.0072465
199,0.075781,-0.047971,-0.025884,-0.033354,-0.46795,-0.032055,0.023812
200,0.048497,-0.056416,-0.035303,-0.023285,-0.5118,-0.032705,0.023812
201,0.01829,-0.063886,-0.043748,-0.013541,-0.53128,-0.042774,0.0069217
202,-0.017114,-0.067784,-0.04992,-0.0044465,-0.52511,-0.050894,-0.011592
203,-0.061288,-0.06681,-0.047971,0.0062721,-0.48646,-0.043423,-0.018738
204,-0.11033,-0.063886,-0.037252,0.019264,-0.41013,-0.018413,-0.0080194
205,-0.15418,-0.062262,-0.017439,0.032257,-0.30327,0.012443,0.016666
206,-0.17854,-0.06616,0.0043233,0.041027,-0.18796,0.028034,0.042326
207,-0.1753,-0.07428,0.01894,0.044275,-0.093119,0.013418,0.057267
208,-0.14476,-0.0837,0.025111,0.042651,-0.036927,-0.033354,0.053694
209,-0.097341,-0.088247,0.024461,0.034855,-0.0089938,-0.10124,0.030633
210,-0.047971,-0.082725,0.020239,0.022188,0.022837,-0.17497,-0.0031473
211,-0.0093186,-0.068109,0.015367,0.0046481,0.087149,-0.23279,-0.038551
212,0.014392,-0.046347,0.010495,-0.015165,0.18751,-0.26657,-0.064861
213,0.024786,-0.01614,0.0036737,-0.03173,0.296,-0.27339,-0.080451
214,0.026735,0.021213,-0.0028225,-0.04115,0.3746,-0.2591,-0.088896
215,0.024786,0.063113,-0.010943,-0.042449,0.39734,-0.23344,-0.09117
216,0.021213,0.10112,-0.011917,-0.030106,0.36259,-0.20388,-0.085648
217,0.012443,0.12872,-0.0060706,-0.0067202,0.28691,-0.17237,-0.075904
218,-0.0011985,0.14464,0.0023744,0.01894,0.19953,-0.14087,-0.065835
219,-0.018738,0.14464,0.011469,0.039402,0.131,-0.11001,-0.057715
220,-0.035953,0.12872,0.018615,0.053369,0.095269,-0.079802,-0.051219
221,-0.04927,0.098842,0.024137,0.056942,0.0865,-0.048296,-0.042124
222,-0.060638,0.062139,0.021863,0.049472,0.090397,-0.019712,-0.03303
223,-0.072656,0.028034,0.0078962,0.038428,0.096893,0.0052977,-0.025884
224,-0.081751,0.0033489,-0.011267,0.030957,0.098517,0.02641,-0.017114
225,-0.080776,-0.0063954,-0.026533,0.034855,0.097218,0.049472,-0.00022403
226,-0.063237,-0.0011985,-0.03173,0.048497,0.091047,0.073832,0.030633
227,-0.034329,0.015692,-0.02361,0.067336,0.079354,0.099492,0.068635
228,-0.0021729,0.036154,-0.0057458,0.082277,0.064088,0.12028,0.10534
229,0.023812,0.05142,0.010495,0.089098,0.048497,0.13132,0.12937
230,0.045574,0.054019,0.017316,0.086175,0.036479,0.12872,0.14074
231,0.064088,0.04395,0.013093,0.07708,0.031932,0.11573,0.14204
232,0.081303,0.029009,-0.0011985,0.067011,0.026085,0.098193,0.13879
233,0.093321,0.014717,-0.01614,0.056292,-0.00054884,0.074806,0.12905
234,0.095919,0.0049729,-0.028482,0.0433,-0.063237,0.04395,0.10859
235,0.086175,-0.0021729,-0.036278,0.028034,-0.15841,0.0088706,0.082277
236,0.067661,-0.0063954,-0.037577,0.012443,-0.26722,-0.023285,0.055318
237,0.050771,-0.0041217,-0.031406,0.0017248,-0.37375,-0.042124,0.036154
238,0.041027,0.0088706,-0.016789,-0.0024977,-0.47249,-0.043099,0.028034
239,0.036804,0.033881,0.0062721,-0.0011985,-0.55402,-0.028157,0.034855
240,0.032257,0.063438,0.032582,-0.0011985,-0.60761,0.00010078,0.048497
241,0.025111,0.08585,0.052395,-0.0037969,-0.61703,0.035505,0.059865
242,0.016666,0.093645,0.059541,-0.0057458,-0.57708,0.070909,0.064413
243,0.0078962,0.0865,0.061165,-0.0015233,-0.49913,0.10177,0.062139
244,-0.00054884,0.06896,0.057917,0.0085458,-0.40071,0.12645,0.053694
245,-0.011592,0.042975,0.044924,0.020564,-0.29742,0.14237,0.040052
246,-0.020687,0.012119,0.017316,0.027385,-0.19966,0.14496,0.026735
247,-0.026858,-0.016464,-0.017439,0.023487,-0.11488,0.13392,0.015367
248,-0.021012,-0.037577,-0.046022,0.011794,-0.045372,0.11541,0.0085458
249,0.0049729,-0.046996,-0.054792,-0.0021729,0.0088706,0.10079,0.008221
250,0.053369,-0.045047,-0.040825,-0.0096434,0.051745,0.10371,0.020564
251,0.10696,-0.03238,-0.011592,-0.0037969,0.082927,0.12353,0.048172
252,0.14659,-0.0067202,0.022512,0.014068,0.10242,0.15081,0.081303
253,0.15763,0.031607,0.051745,0.037454,0.11151,0.17257,0.10469
254,0.14464,0.074482,0.06961,0.06019,0.11443,0.17777,0.10956
255,0.11898,0.11281,0.06896,0.074157,0.11378,0.16283,0.094295
256,0.090072,0.1362,0.056292,0.075131,0.11118,0.13035,0.067986
257,0.066686,0.13847,0.040052,0.067011,0.10274,0.091047,0.042651
258,0.050446,0.1206,0.027709,0.054668,0.089748,0.057592,0.022512
259,0.040052,0.091047,0.016341,0.044275,0.07708,0.041676,0.010819
260,0.030633,0.056942,0.0072465,0.03583,0.073182,0.043625,0.0059473
261,0.019589,0.027709,0.00075039,0.02706,0.082927,0.056292,0.0036737
262,0.0072465,0.0043233,-0.0054209,0.01764,0.10274,0.06961,-0.0018481
263,-0.0057458,-0.0096434,-0.0093186,0.008221,0.12743,0.075456,-0.010618
264,-0.019388,-0.014191,-0.0083442,-0.0018481,0.14756,0.074482,-0.019063
265,-0.032055,-0.010943,-0.0031473,-0.0099683,0.16348,0.071883,-0.022636
266,-0.042124,-0.0021729,0.0039985,-0.017439,0.17712,0.074482,-0.016789
267,-0.046671,0.0065969,0.010819,-0.022961,0.19109,0.083901,-0.0096434
268,-0.046347,0.012119,0.015042,-0.02361,0.20408,0.10014,-0.0034721
269,-0.042124,0.013418,0.016016,-0.016789,0.2135,0.1245,-0.0054209
270,-0.037902,0.0088706,0.010495,-0.0044465,0.22129,0.15016,-0.015815
271,-0.036278,0.00075039,0.0020496,0.0056225,0.22682,0.17062,-0.029782
272,-0.037252,-0.012242,-0.0063954,0.0046481,0.23624,0.18394,-0.040825
273,-0.043748,-0.024585,-0.016464,-0.0041217,0.2567,0.18979,-0.047321
274,-0.052193,-0.034004,-0.022961,-0.01614,0.2921,0.19369,-0.048296
275,-0.057715,-0.039201,-0.021986,-0.024585,0.33498,0.19596,-0.046022
276,-0.056091,-0.042124,-0.013216,-0.022961,0.37753,0.19596,-0.043099
277,-0.050244,-0.042449,-0.0050961,-0.015165,0.40741,0.19141,-0.041799
278,-0.044398,-0.0405,-0.00087364,-0.0050961,0.40806,0.17907,-0.04115
279,-0.042449,-0.036927,0.00010078,0.00075039,0.37785,0.15601,-0.045372
280,-0.044073,-0.031406,-0.0034721,0.00010078,0.32198,0.12288,-0.050894
281,-0.046996,-0.026209,-0.008669,-0.0080194,0.25443,0.081952,-0.052518
282,-0.046347,-0.020687,-0.011592,-0.018738,0.18914,0.03583,-0.045372
283,-0.044398,-0.013866,-0.011917,-0.02426,0.13457,-0.0067202,-0.030106
284,-0.0405,-0.0060706,-0.010618,-0.022311,0.090072,-0.0405,-0.016789
285,-0.035303,0.0020496,-0.0093186,-0.012892,0.057267,-0.061937,-0.0099683
286,-0.026858,0.008221,-0.0083442,-0.0024977,0.033556,-0.076229,-0.0080194
287,-0.017764,0.011469,-0.0099683,0.0052977,0.008221,-0.084674,-0.0076946
288,-0.0096434,0.015692,-0.010618,0.0091954,-0.02361,-0.090196,-0.0037969
289,-0.0060706,0.020239,-0.0099683,0.011144,-0.052518,-0.093119,0.0020496
290,-0.0060706,0.02706,-0.007045,0.0088706,-0.074605,-0.09994,0.0046481
291,-0.007045,0.032906,-0.0047713,0.0078962,-0.086298,-0.11326,-0.0031473
292,-0.010293,0.035505,-0.0073698,0.0085458,-0.094093,-0.13275,-0.018413
293,-0.019712,0.033881,-0.014191,0.012443,-0.11748,-0.15321,-0.031081
294,-0.03238,0.030957,-0.024585,0.014068,-0.17205,-0.17302,-0.036927
295,-0.047321,0.02706,-0.03303,0.011469,-0.25227,-0.18829,-0.038551
296,-0.059339,0.01829,-0.040175,0.0072465,-0.33055,-0.20063,-0.040825
297,-0.064211,0.0049729,-0.042774,0.00075039,-0.37765,-0.20778,-0.040825
298,-0.063237,-0.0093186,-0.043748,-0.0063954,-0.37635,-0.21622,-0.034329
299,-0.056091,-0.018738,-0.042774,-0.0096434,-0.32016,-0.22597,-0.021337
300,-0.042449,-0.022636,-0.038227,-0.008669,-0.22142,-0.23961,-0.007045
301,-0.022636,-0.020687,-0.031081,-0.0060706,-0.10579,-0.25552,0.00075039
302,0.0020496,-0.012892,-0.022961,-0.00087364,0.0056225,-0.27079,-0.00087364
303,0.028034,0.00042559,-0.01484,0.0062721,0.096569,-0.28248,-0.012242
304,0.045249,0.015692,-0.0067202,0.015367,0.15049,-0.28898,-0.026533
305,0.040702,0.024461,0.00010078,0.022837,0.16283,-0.2906,-0.036602
306,0.016341,0.026735,0.00042559,0.023162,0.14496,-0.28898,-0.039201
307,-0.014516,0.020888,-0.0054209,0.014717,0.11508,-0.27956,-0.033679
308,-0.036602,0.0069217,-0.01549,0.0020496,0.089423,-0.26267,-0.022961
309,-0.042449,-0.014191,-0.029132,-0.013216,0.067011,-0.24026,-0.012892
310,-0.034654,-0.039851,-0.041799,-0.027508,0.037129,-0.21297,-0.0047713
311,-0.023935,-0.062587,-0.055116,-0.037252,-0.017114,-0.18699,0.003024
312,-0.012892,-0.075904,-0.062587,-0.038876,-0.096367,-0.16523,0.0072465
313,-0.0050961,-0.079802,-0.05804,-0.030756,-0.18601,-0.14964,0.0069217
314,-0.0024977,-0.076554,-0.042774,-0.013866,-0.26202,-0.13827,0.0017248
315,-0.0054209,-0.069408,-0.024909,0.0085458,-0.30522,-0.12787,-0.0083442
316,-0.013866,-0.061613,-0.01614,0.030633,-0.31106,-0.11715,-0.019063
317,-0.024585,-0.055116,-0.017439,0.047523,-0.288,-0.10903,-0.029782
318,-0.032705,-0.04927,-0.02426,0.059865,-0.25065,-0.10741,-0.039526
319,-0.035953,-0.044398,-0.030106,0.067986,-0.20908,-0.11098,-0.045047
320,-0.039201,-0.035953,-0.030756,0.069285,-0.17075,-0.11358,-0.0405
321,-0.042774,-0.025884,-0.022636,0.063763,-0.13957,-0.10579,-0.029782
322,-0.046996,-0.018738,-0.0099683,0.055968,-0.10936,-0.084349,-0.011592
323,-0.048945,-0.015815,0.0043233,0.050446,-0.078503,-0.04992,0.011794
324,-0.046347,-0.020362,0.01829,0.049796,-0.04927,-0.011592,0.036154
325,-0.037902,-0.027183,0.02706,0.05207,-0.029782,0.023487,0.058241
326,-0.02361,-0.031081,0.029333,0.050771,-0.025559,0.048172,0.071234
327,-0.0044465,-0.021337,0.029658,0.046223,-0.032055,0.058566,0.077405
328,0.016991,0.0052977,0.029009,0.044275,-0.038551,0.057592,0.079029
329,0.03518,0.041676,0.02706,0.046873,-0.034654,0.053369,0.078055
330,0.048497,0.073182,0.022837,0.048172,-0.019063,0.054019,0.072858
331,0.053044,0.08585,0.020564,0.044599,0.0017248,0.060515,0.066686
332,0.052395,0.080003,0.020888,0.036804,0.017965,0.074806,0.061814
333,0.050121,0.062139,0.02641,0.029009,0.028359,0.096893,0.064088
334,0.053369,0.041027,0.034855,0.022837,0.036154,0.12678,0.076431
335,0.056292,0.025111,0.043625,0.020239,0.046548,0.15861,0.095594
336,0.051745,0.016016,0.049796,0.021213,0.06019,0.18427,0.11508
337,0.039402,0.012119,0.05272,0.025111,0.072858,0.20116,0.1258
338,0.024786,0.008221,0.046873,0.027385,0.083251,0.20765,0.12743
339,0.01829,0.0033489,0.03453,0.024786,0.092021,0.20311,0.12255
340,0.028034,-0.0018481,0.020888,0.020564,0.095269,0.18816,0.11378
341,0.045899,-0.0015233,0.0095202,0.016016,0.083901,0.16543,0.10339
342,0.065712,0.0026992,-0.00054884,0.011794,0.056292,0.13652,0.090397
343,0.079029,0.0088706,-0.0089938,0.0069217,0.022512,0.10209,0.073182
344,0.083251,0.014392,-0.013216,0.0017248,-0.0011985,0.065712,0.05142
345,0.075456,0.018615,-0.011267,-0.0041217,-0.0031473,0.031282,0.033881
346,0.054344,0.024137,-0.0021729,-0.0093186,0.008221,0.0043233,0.024137
347,0.026735,0.027709,0.0091954,-0.01614,0.015367,-0.012242,0.022188
348,0.0033489,0.02641,0.014392,-0.023935,0.008221,-0.019063,0.024461
349,-0.0096434,0.019264,0.010495,-0.029132,-0.008669,-0.022961,0.022188
350,-0.012242,0.009845,0.00010078,-0.028807,-0.027833,-0.02361,0.013418
351,-0.010618,0.0049729,-0.0063954,-0.02426,-0.038551,-0.021661,0.0014
352,-0.0047713,0.0062721,-0.0096434,-0.020037,-0.036927,-0.018088,-0.0083442
353,0.0059473,0.013418,-0.010293,-0.020362,-0.02361,-0.011917,-0.015815
354,0.021213,0.020564,-0.0067202,-0.025559,-0.0050961,-0.0037969,-0.021337
355,0.039402,0.024786,-0.0024977,-0.03238,0.016016,0.0046481,-0.025884
356,0.053694,0.025111,-0.0021729,-0.033679,0.036479,0.008221,-0.03173
357,0.061814,0.017316,-0.0050961,-0.027508,0.05207,0.0072465,-0.037577
358,0.055968,0.0052977,-0.010293,-0.016789,0.061489,0.0033489,-0.038876
359,0.034855,-0.0099683,-0.018088,-0.0067202,0.067986,-0.0021729,-0.036602
360,-0.00022403,-0.019388,-0.028807,-0.0021729,0.073182,-0.010293,-0.034978
361,-0.035303,-0.023285,-0.038876,-0.007045,0.077405,-0.019388,-0.034329
362,-0.059989,-0.020362,-0.043099,-0.018738,0.085525,-0.028482,-0.034004
363,-0.06681,-0.011592,-0.040175,-0.03173,0.095269,-0.039201,-0.03303
364,-0.056741,-0.0037969,-0.034004,-0.040175,0.10274,-0.047646,-0.028807
365,-0.039201,-0.00022403,-0.030756,-0.039526,0.10339,-0.054792,-0.025559
366,-0.026533,0.0017248,-0.034004,-0.030106,0.092346,-0.066485,-0.025559
367,-0.02361,0.0036737,-0.04115,-0.018738,0.071558,-0.085324,-0.03238
368,-0.026858,0.0072465,-0.046022,-0.01484,0.046223,-0.10806,-0.044073
369,-0.030106,0.010495,-0.044073,-0.018738,0.021538,-0.12722,-0.054142
370,-0.025234,0.012443,-0.038876,-0.025234,0.003024,-0.13697,-0.055116
371,-0.011592,0.014717,-0.032705,-0.03173,-0.011267,-0.13664,-0.045372
372,0.0065969,0.01894,-0.024909,-0.033354,-0.027508,-0.1243,-0.027183
373,0.022188,0.022837,-0.017114,-0.025234,-0.055766,-0.10449,-0.0057458
374,0.032257,0.022188,-0.010943,-0.010293,-0.10449,-0.079152,0.010495
375,0.03583,0.015042,-0.0024977,0.0056225,-0.1688,-0.054792,0.019264
376,0.033556,0.0049729,0.0095202,0.013093,-0.23571,-0.037577,0.020564
377,0.028034,-0.00087364,0.022837,0.014717,-0.288,-0.031081,0.014717
378,0.019914,0.00010078,0.033231,0.014717,-0.31756,-0.031081,0.0043233
379,0.016016,0.0069217,0.036154,0.014392,-0.32211,-0.031081,-0.0067202
380,0.016991,0.01764,0.032582,0.012768,-0.30554,-0.024585,-0.016789
381,0.022188,0.027385,0.02706,0.011794,-0.27079,-0.0096434,-0.025234
382,0.028684,0.036154,0.025111,0.010495,-0.22369,0.0078962,-0.030106
383,0.030633,0.044924,0.028684,0.009845,-0.17497,0.022188,-0.027183
384,0.025111,0.057592,0.035505,0.0075714,-0.12885,0.031607,-0.019063
385,0.015042,0.071234,0.041676,0.003024,-0.085648,0.040377,-0.0073698
386,0.0078962,0.080978,0.044924,0.00042559,-0.038876,0.05272,0.0052977
387,0.0091954,0.083251,0.049147,0.0036737,0.013093,0.070584,0.016666
388,0.013418,0.076106,0.058891,0.014717,0.066037,0.089748,0.024786
389,0.0039985,0.059865,0.074806,0.030633,0.11963,0.10501,0.029009
390,-0.025234,0.034206,0.088124,0.045574,0.16965,0.10891,0.029983
391,-0.073955,-0.00022403,0.092346,0.05142,0.21058,0.098842,0.026735
392,-0.12885,-0.039526,0.08585,0.047523,0.22747,0.081627,0.01764
393,-0.17205,-0.080127,0.06961,0.036479,0.20993,0.062789,0.0056225
394,-0.19024,-0.11683,0.044275,0.025436,0.16056,0.046548,-0.0057458
395,-0.17724,-0.14639,0.011144,0.010495,0.093645,0.032906,-0.013216
396,-0.13924,-0.1662,-0.025559,-0.007045,0.025111,0.021213,-0.017764
397,-0.092145,-0.16912,-0.060313,-0.026533,-0.03238,0.015042,-0.021337
398,-0.040175,-0.14704,-0.087922,-0.045697,-0.071682,0.015367,-0.021986
399,0.016991,-0.097991,-0.10319,-0.061937,-0.097017,0.021863,-0.018413
400,0.072533,-0.034004,-0.10351,-0.070382,-0.11586,0.029333,-0.012892
401,0.11931,0.031932,-0.089871,-0.069733,-0.13307,0.035505,-0.0073698
402,0.15211,0.096244,-0.064211,-0.05804,-0.14574,0.038428,0.00010078
403,0.16868,0.15309,-0.028807,-0.039201,-0.14801,0.040377,0.0085458
404,0.16803,0.19499,0.008221,-0.019388,-0.13567,0.041676,0.020888
405,0.15373,0.21415,0.03583,-0.0050961,-0.10416,0.045899,0.034855
406,0.12937,0.2057,0.045574,0.003024,-0.054792,0.048822,0.04395
407,0.10112,0.17972,0.038103,0.009845,0.0023744,0.049796,0.041351
408,0.075456,0.14529,0.020888,0.017316,0.063763,0.054668,0.029009
409,0.049796,0.11411,0.0026992,0.026735,0.12743,0.062789,0.011469
410,0.023487,0.092346,-0.0073698,0.03583,0.17615,0.073182,-0.00087364
411,0.0010752,0.076431,-0.0047713,0.044275,0.19466,0.086824,-0.0041217
412,-0.012567,0.062464,0.0088706,0.05207,0.18297,0.10112,0.0020496
413,-0.021661,0.048822,0.022837,0.056942,0.15049,0.10794,0.008221
414,-0.03173,0.037454,0.030308,0.054019,0.11443,0.10112,0.0072465
415,-0.045047,0.029009,0.029658,0.038103,0.092346,0.076106,-0.0093186
416,-0.060313,0.020888,0.020888,0.014068,0.090072,0.038428,-0.034004
417,-0.070058,0.0065969,0.008221,-0.0093186,0.10631,-0.00054884,-0.05804
418,-0.072331,-0.019388,-0.0063954,-0.025234,0.13684,-0.034004,-0.070058
419,-0.06616,-0.054467,-0.021986,-0.033354,0.17582,-0.053168,-0.070058
420,-0.055116,-0.09182,-0.039851,-0.034329,0.22259,-0.050894,-0.060313
421,-0.041799,-0.11651,-0.061288,-0.031406,0.27326,-0.031081,-0.046022
422,-0.026533,-0.11586,-0.078503,-0.028807,0.32069,-0.007045,-0.03238
423,-0.0096434,-0.092794,-0.084024,-0.025559,0.35154,0.011469,-0.026858
424,0.0088706,-0.055766,-0.076879,-0.02361,0.35284,0.019914,-0.026209
425,0.026735,-0.012892,-0.057715,-0.022311,0.31906,0.021213,-0.025234
426,0.04395,0.028359,-0.03173,-0.016464,0.2554,0.021213,-0.022961
427,0.06084,0.059865,-0.0037969,-0.0054209,0.17225,0.023812,-0.019388
428,0.072858,0.078055,0.022837,0.0095202,0.081303,0.026085,-0.0083442
429,0.074157,0.080653,0.042975,0.024461,-0.011267,0.024137,0.0088706
430,0.058891,0.067986,0.054019,0.03583,-0.097017,0.017316,0.02641
431,0.033231,0.042651,0.056617,0.041351,-0.1662,0.0023744,0.038428
432,0.0020496,0.014392,0.056292,0.041027,-0.21005,-0.023285,0.045574
433,-0.02426,-0.0089938,0.053369,0.037129,-0.22597,-0.056091,0.047523
434,-0.040825,-0.021986,0.049147,0.033556,-0.21655,-0.098316,0.044599
435,-0.046996,-0.025884,0.042326,0.032257,-0.19283,-0.14931,0.039727
436,-0.045697,-0.024585,0.033231,0.032906,-0.15581,-0.2042,0.036804
437,-0.043099,-0.021986,0.020564,0.03583,-0.10319,-0.24935,0.032906
438,-0.043423,-0.019388,0.0065969,0.039402,-0.039851,-0.27988,0.028359
439,-0.046347,-0.019388,-0.0041217,0.042001,0.010819,-0.29353,0.021213
440,-0.050894,-0.019712,-0.0089938,0.042001,0.0039985,-0.2919,0.012443
441,-0.054467,-0.021986,-0.0054209,0.042651,-0.093769,-0.28118,0.00042559
442,-0.052518,-0.025559,0.0039985,0.047198,-0.26007,-0.26592,-0.014191
443,-0.044398,-0.033679,0.013418,0.059216,-0.43059,-0.2461,-0.02426
444,-0.03173,-0.044073,0.020239,0.070259,-0.5446,-0.21622,-0.02426
445,-0.018738,-0.053492,0.023812,0.07773,-0.57091,-0.1753,-0.01549
446,-0.0083442,-0.056091,0.024461,0.080003,-0.51017,-0.12625,-0.0034721
447,-0.0047713,-0.04927,0.023162,0.080978,-0.38772,-0.075255,0.0065969
448,-0.0067202,-0.031081,0.025436,0.081627,-0.24058,-0.025234,0.01764
449,-0.012892,-0.0037969,0.036154,0.080003,-0.10156,0.021538,0.028684
450,-0.028157,0.022837,0.05142,0.076106,0.0088706,0.065062,0.03583
451,-0.051219,0.035505,0.064737,0.06896,0.058241,0.097868,0.036479
452,-0.071357,0.023162,0.065062,0.058891,0.018615,0.11638,0.025761
453,-0.078503,-0.012892,0.046223,0.044275,-0.10968,0.11963,0.0026992
454,-0.067784,-0.063561,0.0062721,0.025436,-0.2906,0.11216,-0.022961
455,-0.04115,-0.11001,-0.043748,0.0072465,-0.46697,0.10177,-0.039851
456,-0.0031473,-0.13469,-0.086298,-0.0057458,-0.58293,0.096893,-0.04115
457,0.047523,-0.12592,-0.10286,-0.010943,-0.60631,0.096893,-0.026533
458,0.10599,-0.083375,-0.089871,-0.0083442,-0.54428,0.10274,-0.0018481
459,0.15926,-0.021986,-0.059989,0.0010752,-0.43059,0.10924,0.023812
460,0.19693,0.037454,-0.026858,0.013743,-0.30327,0.11118,0.044924
461,0.2083,0.080003,-0.0028225,0.024461,-0.18894,0.10144,0.05142
462,0.18784,0.095594,0.003024,0.025436,-0.097991,0.080328,0.040377
463,0.1349,0.084226,-0.0096434,0.014068,-0.036602,0.054668,0.016341
464,0.064413,0.056617,-0.029782,-0.0044465,-0.0057458,0.040052,-0.0080194
465,-0.0015233,0.029333,-0.045372,-0.018738,-0.0021729,0.043625,-0.01614
466,-0.046347,0.011794,-0.04862,-0.024585,-0.0093186,0.063763,-0.0060706
467,-0.065186,0.0033489,-0.038876,-0.022961,-0.0096434,0.090722,0.013418
468,-0.059664,-0.0067202,-0.019712,-0.019712,0.0069217,0.11768,0.032582
469,-0.0405,-0.020362,-0.00087364,-0.017114,0.046548,0.13555,0.045249
470,-0.015815,-0.030431,0.0091954,-0.020037,0.10859,0.14172,0.046873
471,0.0046481,-0.026209,0.0062721,-0.028157,0.18232,0.13035,0.037129
472,0.022837,-0.0050961,-0.0037969,-0.041799,0.24988,0.10859,0.020564
473,0.043625,0.026735,-0.0057458,-0.054792,0.29892,0.086175,0.0039985
474,0.064088,0.059541,0.0014,-0.059664,0.32783,0.075131,-0.0063954
475,0.081303,0.080328,0.014717,-0.052518,0.34375,0.081627,-0.0067202
476,0.092346,0.083901,0.023812,-0.036927,0.36324,0.10436,0.0014
477,0.094295,0.071234,0.021538,-0.021012,0.40026,0.1284,0.0091954
478,0.084876,0.048497,0.010819,-0.012567,0.45483,0.14367,0.013743
479,0.066362,0.023487,-0.00022403,-0.010943,0.5107,0.14464,0.015367
480,0.039402,0.0033489,-0.0073698,-0.0076946,0.54903,0.1349,0.016341
481,0.0069217,-0.0093186,-0.0096434,-0.00087364,0.5552,0.11898,0.017316
482,-0.029457,-0.010943,-0.0096434,0.0062721,0.53181,0.10079,0.016666
483,-0.064211,0.00075039,-0.0076946,0.011144,0.48666,0.082602,0.014717
484,-0.088896,0.019914,-0.0021729,0.011794,0.43209,0.066686,0.010495
485,-0.098316,0.037778,0.0072465,0.011469,0.37558,0.052395,0.0017248
486,-0.095068,0.0433,0.020564,0.016666,0.32393,0.040052,-0.0089938
487,-0.080776,0.033556,0.031932,0.029333,0.27944,0.028359,-0.018088
488,-0.057065,0.010495,0.035505,0.045249,0.24111,0.016016,-0.02426
489,-0.027508,-0.021661,0.026085,0.054344,0.19953,0.0033489,-0.025884
490,0.0056225,-0.04862,0.0072465,0.05142,0.15406,-0.011592,-0.028157
491,0.038103,-0.059989,-0.012567,0.040377,0.11346,-0.028482,-0.032055
492,0.063113,-0.050244,-0.023285,0.032582,0.087149,-0.044723,-0.034654
493,0.06961,-0.027183,-0.026533,0.032257,0.075456,-0.052193,-0.031406
494,0.058566,0.00042559,-0.027183,0.03583,0.06961,-0.046022,-0.021012
495,0.039402,0.021538,-0.026209,0.040052,0.058891,-0.028482,-0.0067202
496,0.01829,0.030957,-0.021661,0.040377,0.040052,-0.0047713,0.0062721
497,-0.0037969,0.031282,-0.017439,0.037129,0.011469,0.017316,0.01894
498,-0.026209,0.026085,-0.010618,0.029983,-0.029782,0.03453,0.028359
499,-0.04927,0.016991,-0.0041217,0.022837,-0.079802,0.044599,0.031932
500,-0.072006,0.0039985,-0.0018481,0.017965,-0.12885,0.051745,0.029333
501,-0.087922,-0.011917,-0.0044465,0.01894,-0.16653,0.057267,0.021863
502,-0.093769,-0.026858,-0.010293,0.025436,-0.18666,0.056617,0.008221
503,-0.085324,-0.035628,-0.01614,0.031607,-0.19348,0.045574,-0.0096434
504,-0.06616,-0.034654,-0.019388,0.036154,-0.19348,0.024786,-0.026858
505,-0.040825,-0.028157,-0.019388,0.035505,-0.18504,-0.0018481,-0.037902
506,-0.020037,-0.017439,-0.016789,0.030308,-0.16718,-0.027833,-0.042449
507,-0.008669,-0.0060706,-0.011592,0.019914,-0.14379,-0.054792,-0.034654
508,-0.0037969,0.003024,-0.0011985,0.0075714,-0.11358,-0.081101,-0.017439
509,-0.0028225,0.009845,0.010495,0.00010078,-0.081426,-0.10838,0.0033489
510,-0.0034721,0.013093,0.017316,0.0020496,-0.052518,-0.13404,0.019589
511,-0.0015233,0.013743,0.019264,0.010819,-0.030756,-0.15418,0.025436
512,0.0052977,0.013093,0.01829,0.014392,-0.018088,-0.16847,0.026735
513,0.014068,0.011144,0.013093,0.0075714,-0.0080194,-0.17822,0.024786
514,0.019589,0.0078962,0.0078962,-0.0015233,0.0039985,-0.18829,0.020239
515,0.019264,0.0059473,0.0059473,-0.0063954,0.01894,-0.19543,0.01017
516,0.013093,0.0095202,0.0065969,-0.0089938,0.037129,-0.20096,-0.0031473
517,0.0065969,0.016341,0.0088706,-0.010943,0.057267,-0.20518,-0.016464
518,0.0014,0.020564,0.012768,-0.013866,0.068635,-0.20875,-0.028482
519,-0.0031473,0.01829,0.013093,-0.015815,0.057917,-0.21232,-0.036278
520,-0.0096434,0.014392,0.0088706,-0.020362,0.016991,-0.21785,-0.038551
521,-0.017439,0.013743,0.0033489,-0.023935,-0.048296,-0.22597,-0.036278
522,-0.024585,0.015692,0.00042559,-0.024585,-0.12008,-0.23084,-0.03303
523,-0.028157,0.018615,-0.0031473,-0.020037,-0.18277,-0.23214,-0.032055
524,-0.025884,0.01764,-0.011917,-0.013216,-0.22564,-0.23181,-0.034329
525,-0.021661,0.013418,-0.022636,-0.007045,-0.24026,-0.22791,-0.037902
526,-0.015815,0.0069217,-0.032705,-0.0054209,-0.23409,-0.21849,-0.035953
527,-0.0083442,0.0010752,-0.043099,-0.0060706,-0.21947,-0.19901,-0.024585
528,0.0010752,-0.00054884,-0.050569,-0.0067202,-0.21037,-0.1701,-0.0057458
529,0.013093,0.0039985,-0.050244,-0.0031473,-0.212,-0.13567,0.015042
530,0.02641,0.0095202,-0.039201,0.0043233,-0.22434,-0.10124,0.03583
531,0.037778,0.013093,-0.023935,0.01829,-0.24123,-0.07428,0.050121
532,0.046223,0.015367,-0.0096434,0.033231,-0.25422,-0.061613,0.055968
533,0.05272,0.018615,0.0062721,0.044924,-0.26039,-0.063237,0.053369
534,0.051096,0.024461,0.021538,0.049796,-0.25617,-0.070382,0.044275
535,0.039727,0.032906,0.031607,0.049147,-0.23928,-0.072656,0.03518
536,0.019589,0.042001,0.03518,0.046223,-0.20972,-0.06616,0.027385
537,0.0010752,0.049472,0.030957,0.040377,-0.1662,-0.051219,0.020564
538,-0.007045,0.056617,0.020564,0.031932,-0.11196,-0.032705,0.019589
539,-0.0018481,0.064737,0.011144,0.022188,-0.052518,-0.012242,0.028684
540,0.010819,0.073182,0.0059473,0.014717,0.0069217,0.0043233,0.041351
541,0.023812,0.076106,0.0023744,0.0088706,0.056942,0.0072465,0.049147
542,0.033231,0.073182,-0.0018481,0.0033489,0.091372,-0.0050961,0.050446
543,0.034206,0.06831,-0.007045,-0.007045,0.11216,-0.031406,0.049147
544,0.026085,0.063763,-0.0093186,-0.020037,0.12645,-0.06616,0.046548
545,0.011794,0.056942,-0.0076946,-0.031081,0.13587,-0.098965,0.042001
546,0.0010752,0.045574,-0.0047713,-0.037902,0.14529,-0.11975,0.036804
547,-0.0044465,0.030957,-0.00087364,-0.04115,0.15666,-0.12463,0.029658
548,-0.0037969,0.014717,0.003024,-0.040825,0.17192,-0.12235,0.020888
549,0.0017248,0.00042559,0.0078962,-0.036927,0.19336,-0.1178,0.0072465
550,0.012768,-0.0083442,0.010495,-0.033354,0.21967,-0.11586,-0.0089938
551,0.025111,-0.012892,0.0078962,-0.029782,0.24208,-0.11293,-0.026533
552,0.038753,-0.015165,0.0010752,-0.026858,0.25085,-0.10319,-0.037902
553,0.053694,-0.01614,-0.0063954,-0.021337,0.24533,-0.084999,-0.04115
554,0.070909,-0.013866,-0.007045,-0.010943,0.22974,-0.060313,-0.032705
555,0.088448,-0.0096434,0.0023744,0.0026992,0.20993,-0.03173,-0.015815
556,0.10242,-0.0031473,0.017316,0.014392,0.18946,-0.00087364,0.0043233
557,0.11151,0.0039985,0.033231,0.022188,0.16673,0.030308,0.021863
558,0.11866,0.0078962,0.042651,0.022512,0.13749,0.059216,0.036479
559,0.12385,0.0049729,0.04395,0.017965,0.09462,0.083251,0.044599
560,0.12028,-0.0099683,0.037778,0.0091954,0.033231,0.099492,0.050446
561,0.10112,-0.034004,0.02641,-0.0018481,-0.043099,0.10599,0.051745
562,0.066037,-0.054142,0.012443,-0.013541,-0.12657,0.10014,0.047847
563,0.014392,-0.06681,-0.0011985,-0.025559,-0.22304,0.083901,0.03583
564,-0.04862,-0.071682,-0.013216,-0.036927,-0.34095,0.06084,0.016666
565,-0.11423,-0.068434,-0.021337,-0.046022,-0.48256,0.03518,-0.0044465
566,-0.1649,-0.062262,-0.026858,-0.051544,-0.62613,0.017316,-0.020687
567,-0.18374,-0.054142,-0.029132,-0.052843,-0.73331,0.019914,-0.021986
568,-0.1675,-0.045047,-0.025884,-0.047971,-0.77229,0.043625,-0.0057458
569,-0.123,-0.033354,-0.01484,-0.040175,-0.73429,0.074806,0.021538
570,-0.06551,-0.01484,-0.0018481,-0.03238,-0.63457,0.10112,0.047198
571,-0.0073698,0.011794,0.0059473,-0.021986,-0.49978,0.11638,0.056617
572,0.040702,0.040702,0.0075714,-0.0093186,-0.35979,0.12028,0.050121
573,0.069285,0.059865,0.0043233,0.0017248,-0.2448,0.11476,0.036154
574,0.075781,0.060515,-0.0024977,0.0065969,-0.16133,0.10404,0.022837
575,0.065387,0.046548,-0.010618,0.0052977,-0.10351,0.091372,0.017965
576,0.03518,0.019264,-0.017439,-0.00054884,-0.055766,0.079029,0.016666
577,-0.0089938,-0.017439,-0.022961,-0.0057458,-0.0063954,0.068635,0.013093
578,-0.059014,-0.055441,-0.027833,-0.0047713,0.047198,0.064088,0.0078962
579,-0.10091,-0.084674,-0.034329,0.0026992,0.10436,0.06831,0.0049729
580,-0.123,-0.098641,-0.036278,0.014068,0.16121,0.081627,0.0065969
581,-0.12365,-0.09929,-0.034004,0.024786,0.21642,0.097868,0.01017
582,-0.10709,-0.092145,-0.026209,0.029333,0.26287,0.10924,0.011469
583,-0.079802,-0.080127,-0.01549,0.029983,0.2947,0.11216,0.0062721
584,-0.049595,-0.06616,-0.0060706,0.029333,0.30315,0.10404,-0.0050961
585,-0.020687,-0.049595,-0.0047713,0.028359,0.28431,0.088124,-0.017114
586,0.0026992,-0.028807,-0.014516,0.024461,0.23591,0.06831,-0.025559
587,0.019589,-0.0050961,-0.030431,0.014068,0.16705,0.045574,-0.028157
588,0.028684,0.017316,-0.044073,-0.0015233,0.089423,0.022188,-0.028482
589,0.031607,0.032906,-0.046996,-0.01484,0.02641,0.00010078,-0.029457
590,0.02641,0.044599,-0.036927,-0.019388,-0.0044465,-0.011267,-0.031406
591,0.009845,0.054019,-0.014191,-0.012567,0.011469,-0.0063954,-0.030756
592,-0.017764,0.063763,0.01764,0.0056225,0.07773,0.01829,-0.024585
593,-0.051868,0.070584,0.050121,0.029009,0.17907,0.054344,-0.017114
594,-0.080776,0.073507,0.072858,0.049472,0.29535,0.090397,-0.013216
595,-0.09182,0.070909,0.081627,0.056292,0.40221,0.11313,-0.012892
596,-0.0824,0.06084,0.081952,0.050446,0.47984,0.12223,-0.01484
597,-0.057715,0.047198,0.073182,0.036479,0.50063,0.12093,-0.019063
598,-0.03238,0.029009,0.053369,0.021213,0.45516,0.11281,-0.028482
599,-0.014191,0.0043233,0.023487,0.0078962,0.34635,0.098842,-0.043748
600,-0.0096434,-0.025234,-0.010293,-0.0021729,0.19076,0.083251,-0.063561
601,-0.018413,-0.05804,-0.043099,-0.0076946,0.019264,0.071234,-0.081101
602,-0.034004,-0.085324,-0.065835,-0.0060706,-0.13632,0.067336,-0.092145
603,-0.053168,-0.096367,-0.071682,0.003024,-0.2565,0.075456,-0.090845
604,-0.072981,-0.084674,-0.060313,0.015367,-0.3325,0.092671,-0.081426
605,-0.089221,-0.053168,-0.037902,0.029983,-0.36141,0.10924,-0.067784
606,-0.098641,-0.014191,-0.012242,0.042001,-0.35264,0.11541,-0.050244
607,-0.09994,0.014392,0.0072465,0.045899,-0.31301,0.11183,-0.03303
608,-0.093119,0.022188,0.015367,0.039727,-0.24675,0.10047,-0.01614
609,-0.081101,0.010495,0.011469,0.029333,-0.15418,0.087474,0.00075039
610,-0.062587,-0.010943,0.00075039,0.021538,-0.027508,0.06896,0.013743
611,-0.038876,-0.026858,-0.010943,0.01829,0.14204,0.042651,0.018615
612,-0.010943,-0.026858,-0.021986,0.01829,0.34147,0.0036737,0.013093
613,0.015042,-0.0083442,-0.030756,0.01894,0.53408,-0.050894,-0.0028225
614,0.032257,0.024137,-0.030756,0.020239,0.66303,-0.11553,-0.02361
615,0.036804,0.063113,-0.019388,0.021213,0.67473,-0.17789,-0.034004
616,0.029983,0.10047,0.00010078,0.022512,0.5474,-0.22629,-0.023935
617,0.019914,0.12645,0.021863,0.024461,0.30802,-0.2552,0.0026992
618,0.015367,0.13684,0.039727,0.02641,0.026085,-0.26592,0.033556
619,0.020239,0.13197,0.050121,0.029009,-0.22402,-0.26429,0.055643
620,0.033556,0.11508,0.052395,0.029983,-0.40071,-0.26007,0.065387
621,0.047523,0.088773,0.047847,0.030633,-0.51927,-0.25617,0.062789
622,0.049796,0.061165,0.040052,0.031932,-0.61606,-0.25357,0.052395
623,0.034206,0.033881,0.032582,0.033881,-0.70376,-0.2474,0.040702
624,0.0026992,0.012119,0.026085,0.035505,-0.76222,-0.23246,0.029333
625,-0.032055,-0.0024977,0.01829,0.033881,-0.75832,-0.2081,0.019589
626,-0.058689,-0.012567,0.010495,0.029333,-0.6716,-0.17627,0.012119
627,-0.071682,-0.014191,0.0072465,0.028684,-0.50335,-0.13697,0.011794
628,-0.067784,-0.007045,0.012768,0.033556,-0.28605,-0.089871,0.01764
629,-0.046022,0.0049729,0.025111,0.036479,-0.069408,-0.034978,0.024137
630,-0.0096434,0.020239,0.036154,0.029983,0.097868,0.01764,0.026735
631,0.033231,0.033231,0.037454,0.013418,0.18199,0.055643,0.025761
632,0.075456,0.039078,0.024137,-0.007045,0.17972,0.074482,0.022512
633,0.11086,0.039402,0.00042559,-0.023285,0.11963,0.077405,0.01829
634,0.13522,0.035505,-0.025884,-0.030756,0.038103,0.074157,0.014717
635,0.15179,0.030957,-0.044723,-0.029132,-0.034329,0.071558,0.016666
636,0.16185,0.025111,-0.049595,-0.018088,-0.079152,0.07708,0.022188
637,0.16153,0.016666,-0.044073,-0.00022403,-0.089221,0.088448,0.024786
638,0.15081,0.0056225,-0.034329,0.016991,-0.066485,0.097868,0.021213
639,0.13132,-0.010618,-0.027183,0.023812,-0.020037,0.099167,0.011794
640,0.10534,-0.026533,-0.025234,0.020564,0.03518,0.091372,0.00042559
641,0.078055,-0.037252,-0.027833,0.011469,0.086824,0.079029,-0.0060706
642,0.057267,-0.041475,-0.031406,0.003024,0.1297,0.070909,-0.0041217
643,0.045899,-0.043099,-0.036602,-0.0041217,0.16608,0.069285,0.0059473
644,0.044924,-0.050569,-0.044073,-0.0054209,0.19856,0.077405,0.023162
645,0.044599,-0.065835,-0.054142,-0.0021729,0.23559,0.092021,0.045899
646,0.041351,-0.086623,-0.064861,0.0062721,0.28203,0.10859,0.070909
647,0.029009,-0.10286,-0.06681,0.01829,0.33368,0.12678,0.094295
648,0.011794,-0.10449,-0.053817,0.029983,0.37883,0.15016,0.11476
649,-0.0083442,-0.081751,-0.030431,0.043625,0.40903,0.17712,0.1271
650,-0.025234,-0.038227,-0.0060706,0.059216,0.41585,0.20278,0.12678
651,-0.029782,0.01017,0.015692,0.072533,0.39474,0.2161,0.11346
652,-0.020687,0.049147,0.030633,0.078704,0.34732,0.2096,0.090397
653,-0.00054884,0.06831,0.037129,0.074482,0.28918,0.17745,0.063763
654,0.024786,0.06961,0.037129,0.06084,0.23754,0.12807,0.03518
655,0.045899,0.065712,0.031282,0.041027,0.19434,0.073507,0.0091954
656,0.06019,0.06831,0.025436,0.021213,0.15861,0.031282,-0.014516
657,0.06896,0.079354,0.023162,0.0059473,0.11573,0.0052977,-0.028807
658,0.073182,0.088773,0.022837,-0.00054884,0.046873,-0.0028225,-0.032055
659,0.071883,0.086824,0.01894,-0.00087364,-0.054467,-0.0024977,-0.030431
660,0.064088,0.071883,0.012119,0.0043233,-0.16685,-0.0011985,-0.030106
661,0.053369,0.049472,0.0049729,0.013743,-0.2565,-0.0076946,-0.032705
662,0.049472,0.030308,0.0010752,0.024786,-0.29872,-0.020687,-0.034329
663,0.055318,0.020564,0.0017248,0.036154,-0.2919,-0.038876,-0.030756
664,0.06896,0.016341,0.0020496,0.0433,-0.24935,-0.059339,-0.021661
665,0.0865,0.011469,-0.0028225,0.047847,-0.18829,-0.079152,-0.011917
666,0.095594,0.0046481,-0.013216,0.048172,-0.12235,-0.093119,-0.0034721
667,0.091047,-0.0011985,-0.023935,0.046873,-0.068758,-0.097991,0.0020496
668,0.073507,-0.0021729,-0.027508,0.047198,-0.033679,-0.092145,0.0026992
669,0.050446,0.0020496,-0.019063,0.046223,-0.020687,-0.076554,0.0052977
670,0.029983,0.0072465,-0.0011985,0.042975,-0.035303,-0.057065,0.01017
671,0.010819,0.010819,0.014068,0.03583,-0.076879,-0.041475,0.016666
672,-0.0076946,0.01017,0.020564,0.026085,-0.123,-0.033354,0.020239
673,-0.026533,0.0078962,0.015692,0.021213,-0.14152,-0.035628,0.019264
674,-0.045697,0.0052977,0.00042559,0.023162,-0.11943,-0.045697,0.015367
675,-0.063561,0.0020496,-0.018413,0.02641,-0.070382,-0.060638,0.008221
676,-0.081751,-0.0011985,-0.032705,0.023812,-0.01484,-0.07428,-0.0037969
677,-0.094418,-0.0028225,-0.035303,0.012119,0.030308,-0.079802,-0.018413
678,-0.096042,-0.0060706,-0.029132,-0.00022403,0.057267,-0.073955,-0.029782
679,-0.086298,-0.0096434,-0.022311,-0.007045,0.064088,-0.061613,-0.037252
680,-0.073955,-0.012567,-0.021986,-0.0083442,0.055318,-0.042449,-0.042124
681,-0.065835,-0.01549,-0.031081,-0.012567,0.039402,-0.019388,-0.048296
682,-0.060963,-0.016789,-0.039851,-0.021012,0.027709,0.0062721,-0.051544
683,-0.057065,-0.015815,-0.044398,-0.033679,0.023162,0.028034,-0.04992
684,-0.053168,-0.0099683,-0.044398,-0.046022,0.019264,0.0433,-0.045047
685,-0.048945,0.0017248,-0.04115,-0.053492,0.0078962,0.05207,-0.040175
686,-0.04862,0.01894,-0.03238,-0.057065,-0.019712,0.056942,-0.036927
687,-0.047971,0.038753,-0.01484,-0.057715,-0.068434,0.056617,-0.035303
688,-0.047971,0.053694,0.0078962,-0.052518,-0.13015,0.05272,-0.033679
689,-0.043099,0.061489,0.023487,-0.043748,-0.17952,0.048497,-0.030756
690,-0.03303,0.06019,0.027709,-0.032705,-0.19543,0.044924,-0.026209
691,-0.02361,0.049147,0.023812,-0.020687,-0.17205,0.03518,-0.020687
692,-0.018088,0.029009,0.01894,-0.0099683,-0.1243,0.015042,-0.016789
693,-0.017114,0.0017248,0.015042,0.0023744,-0.071357,-0.0089938,-0.016464
694,-0.015815,-0.021986,0.012768,0.015692,-0.025559,-0.031406,-0.016789
695,-0.0093186,-0.034329,0.010495,0.025761,0.016991,-0.045047,-0.01549
696,0.0052977,-0.030106,0.0065969,0.030308,0.059865,-0.052193,-0.008669
697,0.021863,-0.012242,0.0033489,0.029009,0.10631,-0.055441,0.003024
698,0.038103,0.012768,0.0059473,0.024461,0.15211,-0.057065,0.016666
699,0.047523,0.035505,0.013743,0.019914,0.19206,-0.057715,0.025111
700,0.046873,0.049796,0.023812,0.016016,0.22032,-0.055441,0.024786
701,0.034206,0.05207,0.033881,0.014068,0.23006,-0.04927,0.014717
702,0.010495,0.045899,0.040052,0.011469,0.21058,-0.039201,-0.00087364
703,-0.01614,0.033231,0.036804,0.0039985,0.16315,-0.028157,-0.017439
704,-0.037252,0.015042,0.023487,-0.008669,0.10144,-0.021661,-0.033679
705,-0.046996,-0.0093186,0.0052977,-0.020037,0.045249,-0.021012,-0.045372
706,-0.042124,-0.035303,-0.013541,-0.027508,0.011794,-0.023285,-0.050244
707,-0.023935,-0.055766,-0.026533,-0.026533,0.0036737,-0.02426,-0.051544
708,-0.0018481,-0.061937,-0.029132,-0.021661,0.01017,-0.023935,-0.04992
709,0.016666,-0.052843,-0.024909,-0.01614,0.017316,-0.022961,-0.04927
710,0.023487,-0.029132,-0.018413,-0.015165,0.013418,-0.024585,-0.046347
711,0.01764,0.0020496,-0.010293,-0.019063,-0.0021729,-0.03173,-0.04115
712,0.0046481,0.034855,0.00042559,-0.02426,-0.02426,-0.042449,-0.029457
713,-0.0067202,0.061814,0.011144,-0.025559,-0.040825,-0.053817,-0.0096434
714,-0.010618,0.078379,0.020564,-0.021986,-0.047971,-0.062912,0.017965
715,-0.0083442,0.084876,0.026085,-0.017439,-0.048296,-0.066485,0.048822
716,-0.0028225,0.081952,0.029658,-0.014191,-0.046347,-0.064211,0.075131
717,0.0020496,0.069934,0.028684,-0.011917,-0.044073,-0.060963,0.086824
718,0.0052977,0.054344,0.025111,-0.0093186,-0.039526,-0.062262,0.082927
719,0.0052977,0.033556,0.023812,-0.0083442,-0.03303,-0.068109,0.066037
720,0.0010752,0.0056225,0.02706,-0.0093186,-0.023285,-0.073306,0.045899
721,-0.0089938,-0.02426,0.030308,-0.010293,-0.010618,-0.072331,0.027385
722,-0.02426,-0.047971,0.025111,-0.0089938,0.0062721,-0.060313,0.011794
723,-0.04115,-0.061288,0.013093,-0.0050961,0.023487,-0.039526,-0.0021729
724,-0.053817,-0.062912,0.00075039,0.0010752,0.033231,-0.021012,-0.015815
725,-0.059989,-0.05804,-0.0060706,0.0043233,0.029333,-0.012892,-0.026533
726,-0.059664,-0.04927,-0.0044465,0.0043233,0.023162,-0.013866,-0.034654
727,-0.05804,-0.04115,0.00075039,0.0046481,0.028684,-0.020037,-0.041799
728,-0.054467,-0.033679,0.0056225,0.0088706,0.057917,-0.025559,-0.046022
729,-0.048296,-0.025559,0.0069217,0.016666,0.11248,-0.026533,-0.042124
730,-0.038551,-0.014516,0.01017,0.023162,0.17615,-0.024909,-0.027183
731,-0.028807,0.00010078,0.016666,0.02641,0.22747,-0.020362,-0.0047713
732,-0.026533,0.015692,0.025436,0.029983,0.24663,-0.017764,0.018615
733,-0.030431,0.035505,0.032582,0.03583,0.22552,-0.019712,0.034206
734,-0.04115,0.054668,0.034855,0.042651,0.1716,-0.029457,0.03583
735,-0.055441,0.063763,0.027385,0.040702,0.097218,-0.045697,0.021213
736,-0.073306,0.054344,0.0091954,0.032906,0.0088706,-0.061288,-0.0024977
737,-0.079152,0.030957,-0.0096434,0.025111,-0.084024,-0.068109,-0.021986
738,-0.055116,0.0091954,-0.014516,0.021213,-0.17237,-0.060963,-0.022311
739,-0.00087364,0.00042559,-0.0024977,0.027709,-0.24643,-0.040825,-0.0015233
740,0.06961,0.01017,0.017965,0.037129,-0.30619,-0.013866,0.027709
741,0.13425,0.030957,0.032906,0.040702,-0.34907,0.0078962,0.048822
742,0.1781,0.049796,0.036804,0.034206,-0.3822,0.020888,0.052395
743,0.18979,0.055643,0.029983,0.019589,-0.40883,0.019264,0.042975
744,0.16835,0.049472,0.015367,0.0023744,-0.42637,0.0085458,0.028359
745,0.12158,0.03518,-0.0028225,-0.0099683,-0.42832,-0.0024977,0.016991
746,0.066362,0.01764,-0.01614,-0.014191,-0.41176,-0.0057458,0.013093
747,0.019264,0.0052977,-0.019063,-0.0057458,-0.3822,0.0020496,0.01829
748,-0.0096434,0.0023744,-0.011592,0.0085458,-0.34355,0.013743,0.032257
749,-0.019063,0.003024,0.00042559,0.022188,-0.29353,0.02641,0.052395
750,-0.014516,0.0010752,0.0085458,0.030633,-0.23311,0.032257,0.067011
751,-0.0067202,-0.0050961,0.0056225,0.031282,-0.16035,0.024786,0.071234
752,0.0020496,-0.014516,-0.010618,0.022188,-0.078827,0.0072465,0.067011
753,0.014392,-0.018738,-0.027508,0.0075714,0.00075039,-0.0089938,0.059865
754,0.025436,-0.015165,-0.030756,-0.0050961,0.061489,-0.013541,0.054668
755,0.029333,-0.0015233,-0.01614,-0.0076946,0.096893,-0.00087364,0.050771
756,0.024461,0.01894,0.012443,0.00010078,0.11476,0.022512,0.051096
757,0.0095202,0.037778,0.042651,0.016341,0.12937,0.047847,0.053044
758,-0.0083442,0.049147,0.063763,0.033556,0.14237,0.064088,0.051096
759,-0.021337,0.05207,0.070584,0.042326,0.15114,0.061814,0.042001
760,-0.026209,0.045899,0.062464,0.03583,0.15276,0.041676,0.023812
761,-0.022961,0.031607,0.046873,0.016016,0.14237,0.0075714,0.0014
762,-0.013216,0.0095202,0.029658,-0.010293,0.12125,-0.030431,-0.018413
763,-0.0024977,-0.019388,0.011469,-0.036278,0.088773,-0.063237,-0.03173
764,0.0065969,-0.048296,-0.0076946,-0.057065,0.044275,-0.086948,-0.039851
765,0.014717,-0.070058,-0.022636,-0.06681,-0.0050961,-0.10026,-0.044723
766,0.02641,-0.079152,-0.034978,-0.06551,-0.048945,-0.10319,-0.046022
767,0.041676,-0.070382,-0.039201,-0.054142,-0.084674,-0.10026,-0.039526
768,0.05272,-0.047321,-0.033679,-0.036927,-0.11943,-0.094093,-0.022636
769,0.047198,-0.018088,-0.020362,-0.016789,-0.16815,-0.09117,0.0033489
770,0.025761,0.0095202,-0.0067202,0.00010078,-0.22174,-0.092469,0.029333
771,-0.0041217,0.030633,0.0020496,0.008221,-0.25552,-0.098965,0.04395
772,-0.027833,0.0433,0.003024,0.0039985,-0.2526,-0.11261,0.041351
773,-0.036602,0.047847,-0.0044465,-0.010943,-0.21914,-0.13275,0.022188
774,-0.035953,0.045899,-0.017764,-0.026858,-0.17335,-0.15321,-0.0047713
775,-0.03303,0.037129,-0.035953,-0.038227,-0.1295,-0.16263,-0.028157
776,-0.029457,0.019589,-0.055441,-0.042124,-0.096042,-0.15223,-0.037252
777,-0.028482,-0.0018481,-0.069408,-0.038227,-0.07493,-0.1243,-0.025234
778,-0.034654,-0.018738,-0.071032,-0.029782,-0.06551,-0.086298,-0.0021729
779,-0.046671,-0.021986,-0.05804,-0.017764,-0.06616,-0.049595,0.01894
780,-0.059339,-0.0047713,-0.03303,-0.0041217,-0.075255,-0.020687,0.025436
781,-0.066485,0.031282,-0.0021729,0.0091954,-0.091495,-0.00087364,0.017965
782,-0.063561,0.076755,0.027709,0.021863,-0.11618,0.0069217,0.0062721
783,-0.051219,0.11183,0.050446,0.032257,-0.14899,0.0059473,-0.0028225
784,-0.034329,0.11931,0.06084,0.038103,-0.19024,0.0072465,-0.0044465
785,-0.019063,0.096244,0.057592,0.039078,-0.23474,0.019264,-0.0018481
786,-0.012567,0.051745,0.038753,0.036479,-0.26851,0.044275,0.00042559
787,-0.01614,0.0039985,0.010495,0.03518,-0.27306,0.073832,0.0014
788,-0.029132,-0.034654,-0.01484,0.035505,-0.24643,0.096569,0.0049729
789,-0.044398,-0.057715,-0.030106,0.034855,-0.19543,0.10696,0.012768
790,-0.054467,-0.065186,-0.035628,0.026735,-0.13112,0.10664,0.02706
791,-0.054792,-0.059664,-0.034978,0.012443,-0.053168,0.10177,0.047198
792,-0.042124,-0.048296,-0.034978,0.0010752,0.038753,0.10112,0.063763
793,-0.020362,-0.027508,-0.034004,-0.0050961,0.14107,0.11086,0.07773
794,0.0036737,-0.0015233,-0.028157,-0.0021729,0.24695,0.13392,0.091372
795,0.025436,0.021863,-0.01549,0.011794,0.34797,0.1677,0.10404
796,0.041676,0.037129,0.0036737,0.029333,0.43697,0.20083,0.11313
797,0.049472,0.0433,0.024461,0.043625,0.51135,0.22227,0.11476
798,0.049796,0.040702,0.040702,0.05142,0.57241,0.22844,0.10339
799,0.045899,0.033881,0.050446,0.054344,0.62211,0.22065,0.080003
800,0.040052,0.027385,0.050446,0.053369,0.65686,0.2044,0.050121
801,0.037129,0.021863,0.044924,0.05142,0.66855,0.18329,0.024786
802,0.036804,0.017965,0.033881,0.048497,0.65037,0.15861,0.01017
803,0.035505,0.011794,0.022512,0.041676,0.60099,0.1284,0.0039985
804,0.026735,0.0049729,0.013093,0.032257,0.52791,0.086824,-0.0018481
805,0.0085458,-0.0024977,0.0023744,0.022837,0.44151,0.035505,-0.01549
806,-0.012892,-0.0096434,-0.015815,0.011469,0.35382,-0.020037,-0.038551
807,-0.028807,-0.01614,-0.036278,-0.0024977,0.27424,-0.070058,-0.06681
808,-0.029132,-0.022961,-0.051868,-0.013866,0.207,-0.10124,-0.089546
809,-0.013216,-0.028807,-0.056091,-0.017114,0.15373,-0.11163,-0.098965
810,0.012119,-0.035303,-0.047321,-0.0099683,0.10956,-0.10676,-0.09182
811,0.039078,-0.044723,-0.032055,-0.0031473,0.06831,-0.092469,-0.075255
812,0.058241,-0.055441,-0.021661,0.00075039,0.023812,-0.07493,-0.062912
813,0.06896,-0.063561,-0.019712,0.0062721,-0.026858,-0.056741,-0.054142
814,0.078379,-0.063886,-0.021337,0.016991,-0.086948,-0.042449,-0.045372
815,0.089748,-0.055116,-0.021012,0.033556,-0.17952,-0.038227,-0.033354
816,0.095269,-0.041475,-0.014191,0.050771,-0.3325,-0.04862,-0.020037
817,0.087799,-0.029132,-0.0057458,0.06084,-0.53811,-0.072331,-0.011917
818,0.067986,-0.021661,-0.0028225,0.058566,-0.74955,-0.10416,-0.01549
819,0.044924,-0.020362,-0.0067202,0.04395,-0.90904,-0.13859,-0.03173
820,0.02641,-0.023935,-0.01484,0.022188,-0.97107,-0.1675,-0.055116
821,0.016666,-0.028807,-0.021986,0.0014,-0.92917,-0.18342,-0.075904
822,0.014392,-0.030431,-0.022961,-0.012892,-0.80997,-0.18374,-0.089221
823,0.017965,-0.030431,-0.018413,-0.017439,-0.65666,-0.16912,-0.094093
824,0.022837,-0.030756,-0.012892,-0.013866,-0.51277,-0.14249,-0.093119
825,0.023487,-0.034329,-0.013541,-0.0089938,-0.39779,-0.11521,-0.090196
826,0.016341,-0.0405,-0.023285,-0.0044465,-0.30424,-0.092794,-0.085648
827,0.0010752,-0.050244,-0.042124,0.0036737,-0.21395,-0.07428,-0.073631
828,-0.021012,-0.059989,-0.060963,0.017316,-0.10286,-0.053817,-0.04992
829,-0.046022,-0.060638,-0.071032,0.031607,0.045574,-0.030106,-0.020037
830,-0.067134,-0.045372,-0.067134,0.039402,0.22519,-0.0047713,0.010495
831,-0.07493,-0.012567,-0.04927,0.039078,0.40903,0.014392,0.032582
832,-0.066485,0.031282,-0.028482,0.033231,0.56299,0.023812,0.038753
833,-0.044723,0.071234,-0.012242,0.026085,0.65459,0.024786,0.030957
834,-0.021337,0.093645,-0.0063954,0.01764,0.66693,0.019914,0.016666
835,-0.0060706,0.0852,-0.012892,0.0075714,0.60262,0.014392,0.0020496
836,-0.0018481,0.047198,-0.02426,0.0017248,0.48731,0.013418,-0.0083442
837,-0.0063954,-0.0044465,-0.030431,0.0043233,0.35576,0.019914,-0.014191
838,-0.012892,-0.050569,-0.027183,0.014068,0.23201,0.032906,-0.014191
839,-0.020037,-0.07428,-0.017764,0.022837,0.12093,0.042326,-0.0054209
840,-0.030756,-0.080451,-0.010943,0.022512,0.015367,0.0433,0.010819
841,-0.040825,-0.075579,-0.012567,0.013093,-0.082076,0.042651,0.032582
842,-0.043748,-0.068434,-0.025884,-0.0018481,-0.1636,0.049472,0.055643
843,-0.03238,-0.060638,-0.044073,-0.016789,-0.21979,0.061489,0.074482
844,-0.0083442,-0.047971,-0.060313,-0.029132,-0.24675,0.06961,0.084551
845,0.020888,-0.025884,-0.070058,-0.035953,-0.23896,0.066362,0.078704
846,0.049147,0.0072465,-0.072006,-0.038227,-0.19381,0.053694,0.055968
847,0.063113,0.045574,-0.064536,-0.037902,-0.11715,0.034855,0.022837
848,0.050446,0.080653,-0.048945,-0.034329,-0.025884,0.01764,-0.0073698
849,0.0091954,0.10631,-0.023935,-0.022636,0.062464,0.010495,-0.021012
850,-0.046347,0.11573,0.0036737,-0.0037969,0.13002,0.013418,-0.01484
851,-0.094743,0.10664,0.030957,0.019264,0.16543,0.020564,0.0052977
852,-0.1178,0.084876,0.051096,0.039078,0.169,0.022837,0.024137
853,-0.11163,0.060515,0.063113,0.049472,0.14626,0.013418,0.034855
854,-0.084674,0.042326,0.066686,0.047847,0.10729,-0.0047713,0.033231
855,-0.049595,0.037129,0.065712,0.037778,0.064737,-0.026858,0.022837
856,-0.017114,0.038753,0.06084,0.024786,0.02706,-0.052518,0.011469
857,0.0052977,0.045574,0.05272,0.009845,0.00042559,-0.083375,0.0014
858,0.019264,0.051096,0.04395,-0.0044465,-0.016464,-0.12105,-0.0073698
859,0.029983,0.05207,0.038103,-0.010618,-0.025234,-0.15386,-0.019063
860,0.037454,0.045574,0.039078,-0.0076946,-0.025559,-0.17335,-0.034004
861,0.038103,0.03583,0.045249,-0.0015233,-0.01614,-0.17724,-0.046022
862,0.030957,0.026085,0.053044,0.0052977,0.0010752,-0.17042,-0.04992
863,0.01829,0.01894,0.057267,0.01017,0.02641,-0.15613,-0.047321
864,0.00075039,0.016666,0.053694,0.013093,0.056942,-0.13892,-0.046022
865,-0.023285,0.016991,0.042651,0.013093,0.084876,-0.12365,-0.052518
866,-0.053492,0.015367,0.031282,0.010819,0.099817,-0.10968,-0.064211
867,-0.085324,0.0085458,0.023812,0.0078962,0.10242,-0.095393,-0.073306
868,-0.11293,-0.0037969,0.022837,0.0059473,0.10144,-0.076554,-0.079802
869,-0.1256,-0.022636,0.022837,0.0069217,0.10631,-0.04862,-0.079152
870,-0.11423,-0.046022,0.017316,0.011144,0.11963,-0.010293,-0.071357
871,-0.077528,-0.072656,0.0039985,0.016341,0.14367,0.039078,-0.057715
872,-0.026858,-0.093119,-0.012892,0.019589,0.17192,0.096893,-0.0405
873,0.024461,-0.097991,-0.028157,0.01764,0.19596,0.15406,-0.027833
874,0.064088,-0.081101,-0.034004,0.011794,0.20473,0.19758,-0.017764
875,0.090722,-0.042774,-0.028157,0.008221,0.19499,0.22129,-0.0031473
876,0.10924,0.0046481,-0.015815,0.009845,0.17485,0.22941,0.016991
877,0.1232,0.042651,-0.0031473,0.014717,0.15503,0.22454,0.039402
878,0.1297,0.060515,0.0014,0.016991,0.14334,0.21382,0.056617
879,0.11703,0.05207,-0.0031473,0.012443,0.13879,0.20083,0.066037
880,0.081303,0.022512,-0.01484,0.0059473,0.13684,0.19044,0.065712
881,0.031932,-0.011592,-0.028807,0.0059473,0.13749,0.17972,0.057267
882,-0.010943,-0.034329,-0.037902,0.014717,0.13814,0.16575,0.046223
883,-0.034654,-0.039526,-0.038551,0.027709,0.13912,0.14984,0.040702
884,-0.033679,-0.032705,-0.031081,0.042651,0.14139,0.13165,0.044924
885,-0.013216,-0.024909,-0.022311,0.05142,0.14432,0.11508,0.057917
886,0.0088706,-0.022311,-0.012567,0.051745,0.14464,0.10079,0.070909
887,0.019914,-0.019388,-0.0041217,0.042651,0.13782,0.0865,0.073182
888,0.015042,-0.014191,0.0033489,0.029333,0.12645,0.072208,0.066037
889,-0.00022403,-0.0067202,0.0095202,0.016341,0.11443,0.059216,0.053694
890,-0.013866,0.0036737,0.016666,0.013418,0.10729,0.045899,0.040377
891,-0.016789,0.017965,0.028359,0.022837,0.10274,0.035505,0.033881
892,-0.0080194,0.03453,0.041027,0.042326,0.093321,0.024786,0.034855
893,0.01017,0.047847,0.047198,0.059216,0.067661,0.013093,0.039727
894,0.028684,0.054668,0.04395,0.064737,0.032257,-0.0021729,0.042651
895,0.04395,0.056617,0.032257,0.058891,-0.0099683,-0.022311,0.038753
896,0.053694,0.054668,0.017316,0.046873,-0.069083,-0.046671,0.027709
897,0.06084,0.052395,0.009845,0.036154,-0.1636,-0.072331,0.017316
898,0.06831,0.051745,0.016016,0.029658,-0.29872,-0.094093,0.013743
899,0.075131,0.048497,0.033231,0.028034,-0.46502,-0.10709,0.016341
900,0.078704,0.044599,0.054344,0.030308,-0.63197,-0.11033,0.020239
901,0.075781,0.040702,0.070259,0.031932,-0.76677,-0.10903,0.021538
902,0.070259,0.039727,0.07708,0.030633,-0.84602,-0.11163,0.019589
903,0.066686,0.039402,0.070584,0.025111,-0.86096,-0.11878,0.014392
904,0.063438,0.036479,0.053369,0.017965,-0.81289,-0.12625,0.0085458
905,0.06019,0.030957,0.033231,0.012443,-0.70376,-0.1295,0.0033489
906,0.059541,0.026085,0.018615,0.0059473,-0.5446,-0.1243,-0.0028225
907,0.058891,0.025111,0.012119,0.00042559,-0.36206,-0.11326,-0.007045
908,0.056942,0.028034,0.0065969,-0.0047713,-0.18894,-0.10254,-0.0067202
909,0.05142,0.031282,-0.0015233,-0.013216,-0.053492,-0.096692,0.0020496
910,0.044924,0.032582,-0.0093186,-0.022636,0.036804,-0.095717,0.015042
911,0.039727,0.029009,-0.013541,-0.029782,0.084551,-0.097991,0.027385
912,0.038103,0.023487,-0.017114,-0.033679,0.097868,-0.10059,0.030957
913,0.039402,0.015367,-0.021012,-0.029782,0.092021,-0.10189,0.026085
914,0.039078,0.0036737,-0.02361,-0.022636,0.07708,-0.099615,0.016016
915,0.035505,-0.0096434,-0.021337,-0.013866,0.057592,-0.09117,0.0065969
916,0.028359,-0.022636,-0.012892,-0.0060706,0.032257,-0.07493,0.00010078
917,0.019589,-0.029132,-0.00054884,-0.0031473,0.00075039,-0.052518,0.00010078
918,0.014392,-0.025234,0.0085458,-0.007045,-0.034329,-0.031406,0.0026992
919,0.011794,-0.013541,0.013093,-0.017764,-0.071032,-0.014516,0.0039985
920,0.0088706,-0.00022403,0.014068,-0.028157,-0.10676,-0.00022403,0.0014
921,0.0043233,0.009845,0.013093,-0.032055,-0.13534,0.015367,-0.0011985
922,0.0014,0.015692,0.010495,-0.029457,-0.15321,0.030957,-0.0021729
923,0.0014,0.019264,0.0052977,-0.024585,-0.15711,0.046223,-0.0011985
924,0.0017248,0.021538,0.00075039,-0.021012,-0.15061,0.058566,-0.00022403
925,0.00042559,0.023812,-0.0021729,-0.018088,-0.13599,0.066686,-0.00087364
926,-0.0057458,0.024461,-0.0063954,-0.011917,-0.1204,0.071883,-0.0015233
927,-0.01484,0.024786,-0.014516,-0.0044465,-0.10903,0.074157,0.0014
928,-0.021986,0.024461,-0.023935,0.003024,-0.10416,0.073182,0.0065969
929,-0.022636,0.020239,-0.030431,0.0059473,-0.10546,0.071234,0.013743
930,-0.014191,0.014392,-0.031081,0.0043233,-0.10903,0.069285,0.025111
931,0.0017248,0.01017,-0.025884,0.0036737,-0.11423,0.067661,0.037778
932,0.016341,0.0072465,-0.017439,0.0095202,-0.11975,0.063763,0.051096
933,0.022837,0.0052977,-0.011267,0.019264,-0.1178,0.06084,0.063763
934,0.016991,0.003024,-0.008669,0.02706,-0.095393,0.066686,0.074482
935,0.0023744,0.0014,-0.010293,0.029333,-0.04862,0.083251,0.080978
936,-0.014516,-0.0011985,-0.01614,0.024137,0.014068,0.10469,0.082277
937,-0.030106,-0.0015233,-0.021986,0.016991,0.08585,0.12158,0.082277
938,-0.042774,-0.0018481,-0.021986,0.014392,0.15471,0.12645,0.083251
939,-0.05804,-0.0060706,-0.014516,0.016016,0.21285,0.12288,0.084876
940,-0.074605,-0.014191,-0.0015233,0.019589,0.25865,0.11768,0.0865
941,-0.087272,-0.022636,0.0088706,0.015692,0.29697,0.11573,0.083576
942,-0.094093,-0.030106,0.0078962,0.003024,0.32913,0.11508,0.070909
943,-0.097341,-0.038227,-0.0083442,-0.018738,0.35349,0.10891,0.047523
944,-0.094093,-0.047971,-0.03238,-0.040825,0.36486,0.093645,0.020239
945,-0.079152,-0.061288,-0.04992,-0.053492,0.35576,0.072208,-0.0024977
946,-0.054142,-0.076879,-0.056416,-0.055116,0.33075,0.053369,-0.013866
947,-0.026533,-0.085648,-0.053168,-0.047971,0.30347,0.039078,-0.010943
948,-0.0083442,-0.079477,-0.045047,-0.040175,0.29697,0.029333,0.0039985
949,-0.0073698,-0.056741,-0.034978,-0.032705,0.31581,0.016991,0.016666
950,-0.018413,-0.018738,-0.026209,-0.024585,0.34342,-0.0041217,0.01894
951,-0.03303,0.021538,-0.021012,-0.017114,0.36518,-0.038227,0.008221
952,-0.043748,0.057267,-0.019388,-0.012567,0.3772,-0.080127,-0.011917
953,-0.04992,0.082277,-0.018413,-0.011917,0.38565,-0.12625,-0.035303
954,-0.053168,0.093321,-0.013541,-0.013866,0.39799,-0.16782,-0.056416
955,-0.054467,0.088448,-0.0037969,-0.016464,0.41683,-0.19381,-0.071357
956,-0.054467,0.069934,0.0039985,-0.020687,0.42982,-0.19771,-0.077853
957,-0.054467,0.042001,0.0069217,-0.025884,0.423,-0.18049,-0.080127
958,-0.055441,0.015367,0.0033489,-0.029132,0.38532,-0.15386,-0.081101
959,-0.055441,-0.0021729,-0.0011985,-0.027508,0.32101,-0.12722,-0.081101
960,-0.059014,-0.0067202,-0.0037969,-0.023285,0.24013,-0.10871,-0.079152
961,-0.06681,-0.0021729,-0.0034721,-0.016789,0.15016,-0.10254,-0.07428
962,-0.072006,0.0046481,-0.0024977,-0.0089938,0.049472,-0.10968,-0.069733
963,-0.069733,0.0091954,-0.0021729,-0.0057458,-0.073306,-0.13242,-0.069083
964,-0.060313,0.0091954,-0.0037969,-0.0096434,-0.23116,-0.16685,-0.075255
965,-0.050244,0.003024,-0.008669,-0.022311,-0.428,-0.20518,-0.084999
966,-0.046022,-0.008669,-0.016789,-0.038551,-0.63587,-0.23603,-0.093769
967,-0.045372,-0.021337,-0.029132,-0.049595,-0.81062,-0.2526,-0.097666
968,-0.046347,-0.028482,-0.044073,-0.052193,-0.91358,-0.24675,-0.096367
969,-0.048945,-0.025884,-0.053492,-0.042449,-0.93924,-0.21687,-0.084674
970,-0.044398,-0.012892,-0.052518,-0.02361,-0.91748,-0.1701,-0.061288
971,-0.025234,0.0075714,-0.039526,-0.00054884,-0.89247,-0.11683,-0.029132
972,0.0052977,0.036804,-0.019063,0.023162,-0.8876,-0.06681,0.0062721
973,0.036154,0.074157,0.0056225,0.044924,-0.88695,-0.032705,0.033881
974,0.054993,0.11541,0.029009,0.058241,-0.86389,-0.017439,0.044599
975,0.054668,0.14756,0.045574,0.058566,-0.80022,-0.020687,0.037778
976,0.040052,0.16023,0.053369,0.046873,-0.69336,-0.03173,0.023487
977,0.021538,0.15211,0.048822,0.031282,-0.55402,-0.040175,0.013743
978,0.014392,0.13002,0.034855,0.015042,-0.39292,-0.035628,0.013418
979,0.01764,0.10112,0.01894,0.0017248,-0.22661,-0.015815,0.021863
980,0.023487,0.070259,0.0091954,-0.0073698,-0.070382,0.010819,0.029009
981,0.019589,0.039078,0.0078962,-0.010943,0.054668,0.031932,0.028684
982,0.0069217,0.0069217,0.010819,-0.0093186,0.13847,0.039078,0.019264
983,-0.0041217,-0.021012,0.013093,-0.0021729,0.18102,0.033231,0.0033489
984,-0.0096434,-0.041475,0.010495,0.010495,0.19336,0.01829,-0.016789
985,-0.010943,-0.05804,0.0065969,0.025436,0.19174,-0.00054884,-0.038227
986,-0.0080194,-0.070058,0.0065969,0.037454,0.18849,-0.015165,-0.054142
987,0.0017248,-0.073955,0.0085458,0.043625,0.18654,-0.024909,-0.058689
988,0.012768,-0.070707,0.0088706,0.042326,0.18946,-0.027183,-0.05739
989,0.017965,-0.061288,0.0052977,0.03453,0.19888,-0.021337,-0.055441
990,0.014717,-0.047321,-0.0015233,0.024137,0.2096,-0.011917,-0.055441
991,0.0062721,-0.028157,-0.007045,0.012768,0.2135,-0.00054884,-0.054792
992,0.0033489,-0.0031473,-0.011917,0.0010752,0.20765,0.014068,-0.04992
993,0.012768,0.025436,-0.015165,-0.0057458,0.19141,0.029983,-0.043748
994,0.031282,0.050121,-0.021337,-0.0060706,0.16998,0.041351,-0.041799
995,0.048822,0.061165,-0.03173,-0.0037969,0.14951,0.042326,-0.04862
996,0.055643,0.054344,-0.0405,-0.0041217,0.1258,0.031282,-0.062912
997,0.044924,0.031282,-0.043423,-0.0050961,0.090072,0.013418,-0.077853
998,0.01829,0.0033489,-0.035628,0.0010752,0.044275,0.00042559,-0.087922
999,-0.017439,-0.015165,-0.01614,0.016016,0.0010752,0.0026992,-0.087597
1000,-0.056091,-0.017439,0.013743,0.039727,-0.023935,0.020564,-0.070707
1001,-0.087922,-0.0050961,0.04395,0.065387,-0.023935,0.048172,-0.038551
1002,-0.10319,0.013093,0.067986,0.083901,-0.0037969,0.075131,0.0017248
1003,-0.10026,0.029983,0.081952,0.090722,0.032582,0.095269,0.039078
1004,-0.084024,0.037454,0.083251,0.083901,0.07708,0.10566,0.066686
1005,-0.063237,0.031282,0.073832,0.066037,0.12125,0.10306,0.080328
1006,-0.042124,0.013093,0.055318,0.045249,0.15601,0.087474,0.07708
1007,-0.021337,-0.011267,0.028034,0.029009,0.18102,0.063113,0.063113
1008,0.0023744,-0.034329,-0.00022403,0.021213,0.20765,0.038428,0.044599
1009,0.029983,-0.044723,-0.021337,0.021538,0.24955,0.019914,0.028034
1010,0.055318,-0.036927,-0.027183,0.028684,0.31419,0.011144,0.01894
1011,0.071883,-0.012567,-0.018413,0.041351,0.39896,0.012443,0.016666
1012,0.079679,0.018615,-0.0018481,0.054019,0.49088,0.019914,0.017965
1013,0.080328,0.044275,0.014717,0.059216,0.57469,0.024461,0.015042
1014,0.076106,0.053694,0.020564,0.056292,0.64322,0.025436,0.0085458
1015,0.062789,0.042326,0.015367,0.049796,0.69421,0.025111,0.00042559
1016,0.0433,0.016991,0.0014,0.042001,0.7241,0.024461,-0.0057458
1017,0.024461,-0.0089938,-0.012242,0.03518,0.71728,0.020239,-0.0093186
1018,0.013743,-0.026858,-0.021012,0.030308,0.64322,0.0085458,-0.011592
1019,0.016666,-0.037902,-0.025884,0.023487,0.47789,-0.010618,-0.0099683
1020,0.028034,-0.04115,-0.028482,0.016991,0.23981,-0.035628,-0.0024977
1021,0.044599,-0.04115,-0.026533,0.009845,-0.017764,-0.057715,0.0075714
1022,0.054019,-0.037252,-0.017439,0.0036737,-0.22986,-0.068434,0.016991
1023,0.047198,-0.031081,-0.0024977,0.00010078,-0.34582,-0.06551,0.022512
1024,0.026735,-0.025559,0.015692,0.00042559,-0.35556,-0.049595,0.021863
1025,0.0036737,-0.024585,0.029658,0.0020496,-0.28443,-0.03173,0.016341
1026,-0.012242,-0.031081,0.033881,0.0043233,-0.17692,-0.020037,0.011794
1027,-0.019063,-0.040175,0.025761,0.0056225,-0.075904,-0.01549,0.0088706
1028,-0.01484,-0.053492,0.0046481,0.003024,-0.013541,-0.017764,0.0078962
1029,-0.00022403,-0.063237,-0.022311,-0.0041217,0.0017248,-0.023935,0.0069217
1030,0.022512,-0.061613,-0.043748,-0.014191,-0.019712,-0.027833,0.0026992
1031,0.044275,-0.0405,-0.047646,-0.019388,-0.059014,-0.025234,-0.0060706
1032,0.057592,-0.0044465,-0.032705,-0.013541,-0.098965,-0.014191,-0.01484
1033,0.058241,0.03453,-0.0076946,0.003024,-0.12852,0.0052977,-0.013866
1034,0.049472,0.063438,0.017316,0.023812,-0.13762,0.035505,0.0036737
1035,0.038103,0.074157,0.030633,0.042326,-0.1256,0.071883,0.032582
1036,0.032257,0.061814,0.030633,0.052395,-0.10579,0.098517,0.059216
1037,0.030957,0.03583,0.020888,0.050446,-0.088572,0.10761,0.06961
1038,0.032582,0.0065969,0.0052977,0.038428,-0.076229,0.099167,0.065062
1039,0.037778,-0.017114,-0.0076946,0.024461,-0.062912,0.082602,0.056292
1040,0.047523,-0.034329,-0.014191,0.016666,-0.04115,0.06831,0.051745
1041,0.057917,-0.045372,-0.013541,0.016016,-0.012892,0.059216,0.053369
1042,0.067986,-0.054467,-0.011917,0.017965,0.016016,0.052395,0.054344
1043,0.06896,-0.064211,-0.017764,0.012443,0.03453,0.045899,0.050771
1044,0.061814,-0.073631,-0.033679,0.00010078,0.03583,0.038428,0.042975
1045,0.056292,-0.081101,-0.056416,-0.01614,0.017965,0.030957,0.040702
1046,0.066686,-0.081751,-0.075579,-0.027833,-0.017439,0.026085,0.048497
1047,0.10242,-0.06616,-0.080451,-0.029782,-0.063561,0.025436,0.065387
1048,0.15114,-0.032055,-0.067459,-0.022636,-0.11488,0.028359,0.081303
1049,0.18979,0.014717,-0.042449,-0.008669,-0.1649,0.032906,0.088124
1050,0.20018,0.06019,-0.010618,0.01017,-0.20908,0.041351,0.084876
1051,0.17745,0.091047,0.021538,0.029009,-0.24643,0.047847,0.077405
1052,0.13035,0.10306,0.048822,0.044275,-0.27534,0.050121,0.06961
1053,0.070909,0.094945,0.065062,0.051096,-0.2867,0.048172,0.061489
1054,0.013418,0.074482,0.069285,0.048172,-0.26527,0.041351,0.053694
1055,-0.025884,0.051745,0.062789,0.039078,-0.19901,0.031282,0.047523
1056,-0.044073,0.037454,0.046873,0.027385,-0.082076,0.014392,0.042975
1057,-0.04927,0.032257,0.027709,0.014068,0.070259,-0.0089938,0.041676
1058,-0.04927,0.032906,0.012443,0.0010752,0.22747,-0.035303,0.045574
1059,-0.049595,0.039078,0.0026992,-0.0099683,0.35869,-0.056416,0.05207
1060,-0.04927,0.050446,-0.0047713,-0.016789,0.44054,-0.06616,0.056617
1061,-0.047321,0.064413,-0.013866,-0.018738,0.45938,-0.061613,0.057267
1062,-0.041799,0.07708,-0.024909,-0.017764,0.4165,-0.048945,0.057592
1063,-0.034978,0.08585,-0.035303,-0.016464,0.32198,-0.03303,0.062139
1064,-0.026858,0.088124,-0.042124,-0.01484,0.20051,-0.017439,0.067661
1065,-0.018413,0.082602,-0.043099,-0.013216,0.0865,-0.0076946,0.06896
1066,-0.013541,0.070584,-0.038227,-0.0083442,0.00010078,-0.0041217,0.063113
1067,-0.012567,0.055968,-0.026533,0.00075039,-0.053817,-0.0057458,0.050446
1068,-0.01549,0.037454,-0.012567,0.010819,-0.087597,-0.0083442,0.03518
1069,-0.021337,0.018615,0.00075039,0.021538,-0.11943,-0.013216,0.020239
1070,-0.028157,-0.0011985,0.012119,0.031607,-0.16393,-0.021012,0.0065969
1071,-0.038551,-0.020037,0.01764,0.041351,-0.22856,-0.030106,-0.0054209
1072,-0.047321,-0.035628,0.020239,0.050771,-0.31756,-0.0405,-0.013216
1073,-0.054467,-0.046022,0.023162,0.058566,-0.42312,-0.059339,-0.017114
1074,-0.056091,-0.046671,0.029009,0.061814,-0.53161,-0.090521,-0.022311
1075,-0.048945,-0.039201,0.033881,0.056617,-0.61898,-0.13112,-0.030431
1076,-0.028157,-0.028482,0.037454,0.041676,-0.66543,-0.17075,-0.035303
1077,-0.0018481,-0.017439,0.03518,0.022188,-0.65991,-0.20031,-0.037577
1078,0.022512,-0.0083442,0.029333,0.003024,-0.61184,-0.21655,-0.0405
1079,0.033881,-0.0060706,0.020888,-0.01484,-0.53486,-0.22304,-0.048296
1080,0.030957,-0.011267,0.012443,-0.030431,-0.44099,-0.22337,-0.059339
1081,0.016341,-0.021661,0.0065969,-0.039201,-0.33705,-0.22142,-0.067459
1082,-0.00087364,-0.031406,0.0036737,-0.037252,-0.22986,-0.2146,-0.069733
1083,-0.017439,-0.034978,0.0039985,-0.025884,-0.12722,-0.19933,-0.066485
1084,-0.026858,-0.029132,0.0039985,-0.0099683,-0.036278,-0.17757,-0.059664
1085,-0.028157,-0.016789,0.0020496,0.0033489,0.040377,-0.14931,-0.052518
1086,-0.023935,-0.0034721,-0.0024977,0.0078962,0.10112,-0.11651,-0.048945
1087,-0.019063,0.0065969,-0.007045,0.00010078,0.15114,-0.079152,-0.048296
1088,-0.01549,0.014068,-0.010618,-0.015815,0.20083,-0.039526,-0.050894
1089,-0.012892,0.01894,-0.01484,-0.029457,0.26027,0.0020496,-0.058689
1090,-0.0083442,0.016016,-0.017764,-0.034329,0.32816,0.044275,-0.064861
1091,-0.0021729,0.0072465,-0.017439,-0.029132,0.39182,0.088773,-0.065186
1092,-0.0024977,-0.0063954,-0.012242,-0.019712,0.43924,0.131,-0.059339
1093,-0.010293,-0.021986,-0.007045,-0.012892,0.46523,0.16933,-0.051219
1094,-0.022636,-0.037252,-0.0063954,-0.01484,0.47919,0.20181,-0.047646
1095,-0.032055,-0.04927,-0.011592,-0.024585,0.49771,0.22941,-0.049595
1096,-0.03173,-0.055766,-0.020037,-0.037902,0.53181,0.24825,-0.055116
1097,-0.028157,-0.054467,-0.03303,-0.04992,0.5867,0.25345,-0.061613
1098,-0.028482,-0.04992,-0.050244,-0.05804,0.65102,0.24208,-0.069408
1099,-0.03238,-0.042774,-0.063561,-0.063237,0.69454,0.21707,-0.076879
1100,-0.038876,-0.037252,-0.064536,-0.06681,0.68122,0.18362,-0.081751
1101,-0.046022,-0.036278,-0.056091,-0.065835,0.5932,0.14886,-0.079802
1102,-0.051219,-0.037902,-0.040175,-0.056091,0.44216,0.11443,-0.071357
1103,-0.052518,-0.040175,-0.022636,-0.0405,0.27002,0.083251,-0.057715
1104,-0.050894,-0.043748,-0.011592,-0.027183,0.12028,0.058891,-0.042449
1105,-0.04992,-0.045047,-0.010618,-0.021986,0.018615,0.0433,-0.027183
1106,-0.051219,-0.043748,-0.016464,-0.023935,-0.030106,0.036804,-0.014516
1107,-0.05804,-0.039851,-0.020687,-0.023935,-0.043099,0.033881,-0.0044465
1108,-0.071682,-0.033354,-0.019712,-0.01614,-0.04862,0.028684,0.0033489
1109,-0.087272,-0.026209,-0.010293,-0.0031473,-0.060638,0.014392,0.0078962
1110,-0.097991,-0.021012,0.0039985,0.0088706,-0.082076,-0.0080194,0.0069217
1111,-0.099615,-0.017439,0.01894,0.016666,-0.10903,-0.039526,0.0020496
1112,-0.090196,-0.012567,0.030633,0.019914,-0.14671,-0.071357,-0.0024977
1113,-0.07428,-0.0054209,0.03583,0.01764,-0.20323,-0.095068,-0.0015233
1114,-0.060313,0.0023744,0.03518,0.013093,-0.28183,-0.11001,0.0065969
1115,-0.054142,0.0069217,0.029658,0.01017,-0.37375,-0.11683,0.016016
1116,-0.056091,0.0072465,0.018615,0.0085458,-0.46307,-0.11975,0.022188
1117,-0.059014,0.0062721,0.0069217,0.0059473,-0.5459,-0.12365,0.02641
1118,-0.055441,0.010495,-0.0041217,0.0017248,-0.6336,-0.13534,0.029658
1119,-0.046347,0.020888,-0.0083442,-0.0015233,-0.72942,-0.15678,0.030957
1120,-0.038876,0.031282,-0.0076946,-0.0011985,-0.81549,-0.18147,0.028684
1121,-0.042774,0.036154,-0.0047713,0.00010078,-0.85284,-0.20128,0.019589
1122,-0.055441,0.030957,-0.0047713,0.0020496,-0.81776,-0.21265,0.0088706
1123,-0.070707,0.019914,-0.0080194,0.0033489,-0.7135,-0.20908,0.00075039
1124,-0.078178,0.012119,-0.011267,0.0065969,-0.56571,-0.19219,-0.0044465
1125,-0.07493,0.011794,-0.010943,0.011144,-0.41663,-0.16685,-0.0050961
1126,-0.059339,0.020888,-0.0076946,0.015692,-0.2984,-0.13404,-0.0018481
1127,-0.037902,0.032906,-0.0067202,0.01764,-0.22239,-0.097991,0.0026992
1128,-0.015815,0.04395,-0.0044465,0.015692,-0.18374,-0.064861,0.0069217
1129,0.0036737,0.050121,0.0017248,0.014068,-0.16425,-0.038876,0.0095202
1130,0.021863,0.054344,0.013418,0.013743,-0.14736,-0.021337,0.013093
1131,0.038103,0.054019,0.026735,0.016666,-0.12138,-0.010293,0.016991
1132,0.055318,0.05142,0.035505,0.02641,-0.088247,-0.0063954,0.023162
1133,0.073832,0.049472,0.041676,0.039727,-0.054142,-0.0089938,0.030633
1134,0.089423,0.048822,0.042326,0.054344,-0.024909,-0.011917,0.039078
1135,0.095594,0.049796,0.039727,0.066362,-0.0047713,-0.0083442,0.044599
1136,0.089098,0.045899,0.032582,0.071558,0.0069217,0.003024,0.045574
1137,0.067336,0.037129,0.024137,0.068635,0.013093,0.013743,0.038753
1138,0.031607,0.026735,0.015042,0.056617,0.010495,0.017965,0.027709
1139,-0.011592,0.019264,0.0078962,0.038103,0.0039985,0.016666,0.022837
1140,-0.050569,0.01764,0.00075039,0.017316,0.0052977,0.016341,0.029333
1141,-0.073631,0.021863,-0.0063954,0.0017248,0.018615,0.022188,0.044599
1142,-0.077203,0.028034,-0.012242,-0.0050961,0.040702,0.035505,0.059541
1143,-0.065186,0.031282,-0.01549,0.00042559,0.064413,0.054344,0.067336
1144,-0.043748,0.028684,-0.013541,0.015042,0.082602,0.078379,0.065062
1145,-0.018088,0.023812,-0.0047713,0.03453,0.092346,0.10339,0.054019
1146,0.0078962,0.02641,0.01017,0.054993,0.090397,0.12255,0.039727
1147,0.031282,0.039727,0.028034,0.073182,0.076431,0.13002,0.028359
1148,0.047198,0.061489,0.0433,0.084551,0.060515,0.12515,0.022188
1149,0.049796,0.081303,0.051745,0.084551,0.050771,0.11054,0.021213
1150,0.044275,0.087474,0.048172,0.075131,0.054344,0.088448,0.021213
1151,0.039402,0.071558,0.028684,0.057917,0.072533,0.063763,0.026085
1152,0.040702,0.036804,-0.00087364,0.036479,0.10014,0.042001,0.038103
1153,0.051096,-0.007045,-0.033354,0.015692,0.13165,0.028359,0.051096
1154,0.068635,-0.045372,-0.059339,0.0020496,0.15731,0.025436,0.054019
1155,0.087474,-0.068109,-0.070707,-0.00054884,0.17647,0.030633,0.045249
1156,0.10242,-0.062912,-0.066485,0.0056225,0.19174,0.039402,0.031607
1157,0.10599,-0.035628,-0.052193,0.016666,0.19726,0.049472,0.020888
1158,0.094295,0.0033489,-0.037252,0.026735,0.18946,0.057592,0.015692
1159,0.068635,0.036479,-0.02426,0.029658,0.17192,0.062789,0.015042
1160,0.039727,0.054344,-0.013541,0.028684,0.14399,0.063438,0.019264
1161,0.020239,0.055643,0.00075039,0.026085,0.10631,0.063113,0.023812
1162,0.017316,0.049147,0.01829,0.027385,0.062464,0.062139,0.030308
1163,0.028359,0.042651,0.03453,0.034206,0.023487,0.060515,0.039402
1164,0.046548,0.037778,0.047847,0.044275,-0.0067202,0.057917,0.051745
1165,0.059541,0.032257,0.056617,0.055318,-0.026209,0.060515,0.064413
1166,0.063113,0.023487,0.056292,0.059216,-0.036278,0.064413,0.07708
1167,0.062464,0.0095202,0.042326,0.05272,-0.041475,0.057917,0.086824
1168,0.064737,-0.0089938,0.01764,0.039078,-0.044398,0.028684,0.091372
1169,0.071558,-0.026858,-0.0089938,0.022837,-0.047971,-0.022636,0.091047
1170,0.082927,-0.035953,-0.030756,0.0088706,-0.054142,-0.084674,0.089423
1171,0.09462,-0.029457,-0.043748,0.0014,-0.069083,-0.13794,0.092671
1172,0.10306,-0.0047713,-0.043099,0.0020496,-0.094743,-0.1701,0.10014
1173,0.099167,0.033881,-0.030431,0.0078962,-0.1295,-0.17919,0.10436
1174,0.079029,0.074806,-0.012892,0.012443,-0.16003,-0.174,0.098842
1175,0.047523,0.11054,0.0056225,0.012768,-0.17237,-0.16588,0.080003
1176,0.014717,0.13425,0.023487,0.011144,-0.14964,-0.16003,0.05272
1177,-0.0080194,0.13847,0.038428,0.008221,-0.094743,-0.15808,0.024137
1178,-0.014516,0.12028,0.049472,0.0046481,-0.020687,-0.15548,0.003024
1179,-0.0063954,0.086175,0.054019,0.0010752,0.054019,-0.14866,-0.0089938
1180,0.010819,0.047847,0.048822,-0.00022403,0.11541,-0.13275,-0.012892
1181,0.029658,0.010819,0.03583,0.0020496,0.15926,-0.10838,-0.013216
1182,0.042651,-0.019712,0.019914,0.003024,0.19109,-0.080127,-0.01484
1183,0.046873,-0.0405,0.0065969,0.00075039,0.2109,-0.054142,-0.018088
1184,0.045249,-0.050894,-0.0015233,0.00042559,0.21317,-0.033679,-0.021337
1185,0.044924,-0.054792,-0.0067202,0.0039985,0.19758,-0.021661,-0.022636
1186,0.046873,-0.056741,-0.011917,0.011794,0.16998,-0.013866,-0.026533
1187,0.050771,-0.05739,-0.013541,0.01764,0.14561,-0.0067202,-0.035303
1188,0.053044,-0.055116,-0.011917,0.013743,0.13555,-0.00054884,-0.04927
1189,0.047523,-0.051868,-0.0083442,-0.00022403,0.14204,0.0072465,-0.062587
1190,0.03583,-0.04992,-0.0063954,-0.016789,0.16056,0.014068,-0.073631
1191,0.025111,-0.04862,-0.0080194,-0.030106,0.18362,0.01764,-0.081101
1192,0.020239,-0.043748,-0.010618,-0.034654,0.19921,0.020888,-0.079477
1193,0.024137,-0.034329,-0.008669,-0.028807,0.19823,0.01829,-0.071357
1194,0.029009,-0.018738,-0.0034721,-0.017439,0.18102,0.0078962,-0.061937
1195,0.029333,-0.0015233,0.0020496,-0.0063954,0.15568,-0.0067202,-0.058689
1196,0.01894,0.009845,0.0049729,-0.00022403,0.131,-0.020687,-0.06551
1197,0.00010078,0.011469,0.0033489,0.0026992,0.10696,-0.028482,-0.080451
1198,-0.021986,0.0046481,-0.0034721,0.0046481,0.083901,-0.029457,-0.10026
1199,-0.040825,-0.0060706,-0.016464,0.003024,0.061489,-0.023935,-0.11488
1200,-0.050894,-0.017114,-0.025884,0.00042559,0.044275,-0.013541,-0.1191
1201,-0.050894,-0.028157,-0.025559,-0.00087364,0.03453,-0.0031473,-0.11196
1202,-0.046022,-0.035628,-0.016789,0.0010752,0.024137,0.0039985,-0.094743
1203,-0.039851,-0.038227,-0.0031473,0.0039985,0.008221,0.0065969,-0.076554
1204,-0.033354,-0.036278,0.0062721,0.0078962,-0.012567,0.0075714,-0.062587
1205,-0.026209,-0.033354,0.0065969,0.01017,-0.030106,0.01017,-0.055766
1206,-0.019063,-0.030106,-0.0024977,0.0072465,-0.035953,0.015367,-0.055766
1207,-0.010943,-0.02361,-0.013866,0.0036737,-0.028807,0.024786,-0.060313
1208,-0.0015233,-0.01549,-0.021661,0.003024,-0.0096434,0.03518,-0.061937
1209,0.0062721,-0.008669,-0.022311,0.011794,0.012443,0.042975,-0.058365
1210,0.0095202,-0.0041217,-0.019063,0.024786,0.029658,0.049796,-0.048296
1211,0.0072465,-0.0018481,-0.014516,0.035505,0.031932,0.056292,-0.037577
1212,0.0017248,0.0017248,-0.0093186,0.039727,0.018615,0.059541,-0.031406
1213,-0.0054209,0.0020496,-0.0060706,0.035505,-0.0034721,0.060515,-0.031081
1214,-0.012242,-0.0028225,-0.0060706,0.023812,-0.020687,0.058891,-0.029132
1215,-0.017764,-0.0093186,-0.010618,0.0072465,-0.018413,0.055643,-0.021012
1216,-0.022961,-0.013541,-0.01549,-0.0057458,0.016016,0.050446,-0.0076946
1217,-0.034329,-0.012892,-0.01614,-0.0093186,0.086824,0.048497,0.0039985
1218,-0.051544,-0.008669,-0.011917,-0.0044465,0.17907,0.046873,0.012443
1219,-0.067134,-0.0050961,-0.0050961,0.0036737,0.26644,0.04395,0.014392
1220,-0.076879,-0.0028225,0.00075039,0.010819,0.32816,0.040702,0.014068
1221,-0.079802,-0.0011985,0.0056225,0.014392,0.35154,0.039078,0.013743
1222,-0.075255,-0.0021729,0.0072465,0.009845,0.33595,0.039078,0.016341
1223,-0.063886,-0.0054209,0.0072465,0.0017248,0.29275,0.038753,0.020239
1224,-0.048945,-0.007045,0.0033489,-0.0093186,0.24208,0.035505,0.020888
1225,-0.033679,-0.0080194,-0.0024977,-0.020362,0.20376,0.031607,0.013743
1226,-0.02361,-0.011592,-0.0083442,-0.031081,0.18264,0.02641,0.00042559
1227,-0.020037,-0.021337,-0.013866,-0.039851,0.1729,0.021538,-0.01549
1228,-0.021661,-0.032055,-0.018088,-0.040825,0.16088,0.023487,-0.027508
1229,-0.027833,-0.034004,-0.017114,-0.034329,0.1336,0.034855,-0.027508
1230,-0.037252,-0.024909,-0.013866,-0.023285,0.091372,0.054019,-0.015165
1231,-0.04927,-0.0093186,-0.0093186,-0.014191,0.04395,0.071883,0.0033489
1232,-0.061613,0.0062721,-0.0060706,-0.0093186,0.0039985,0.084876,0.024137
1233,-0.069083,0.014392,-0.007045,-0.007045,-0.027183,0.093321,0.040702
1234,-0.06616,0.017965,-0.011592,-0.0073698,-0.052843,0.10144,0.054019
1235,-0.050244,0.016666,-0.015165,-0.0093186,-0.078178,0.10826,0.062789
1236,-0.027183,0.017316,-0.013866,-0.0093186,-0.10221,0.10891,0.065712
1237,-0.0060706,0.020239,-0.0076946,-0.0067202,-0.1243,0.10047,0.059541
1238,0.0075714,0.025761,-0.00022403,-0.0011985,-0.14346,0.083576,0.046548
1239,0.013093,0.032582,0.0056225,-0.00054884,-0.161,0.060515,0.031282
1240,0.011144,0.037454,0.0069217,-0.008669,-0.17594,0.03583,0.014717
1241,0.0026992,0.035505,0.0036737,-0.024909,-0.19154,0.014068,-0.0015233
1242,-0.0060706,0.029658,-0.0024977,-0.039851,-0.20615,0.00042559,-0.014191
1243,-0.012242,0.022837,-0.012892,-0.046347,-0.21427,-0.0047713,-0.021012
1244,-0.012567,0.016666,-0.025234,-0.043423,-0.21427,-0.0028225,-0.019063
1245,-0.0060706,0.0088706,-0.03173,-0.03303,-0.2055,0.0036737,-0.0099683
1246,0.0023744,0.0026992,-0.027833,-0.019712,-0.19089,0.012443,0.0039985
1247,0.011794,0.0039985,-0.017114,-0.0044465,-0.17042,0.025436,0.018615
1248,0.01894,0.014392,-0.0028225,0.0088706,-0.14866,0.041676,0.029983
1249,0.024786,0.031932,0.011794,0.019589,-0.12625,0.054993,0.03518
1250,0.024461,0.051096,0.022512,0.028684,-0.10611,0.057917,0.036479
1251,0.020888,0.066362,0.028359,0.03518,-0.087922,0.05207,0.036804
1252,0.016666,0.072858,0.028359,0.039727,-0.075904,0.040377,0.036154
1253,0.013743,0.068635,0.025436,0.042001,-0.079802,0.028034,0.033556
1254,0.016016,0.054019,0.023812,0.042326,-0.10124,0.012119,0.028684
1255,0.022837,0.036479,0.023812,0.041027,-0.13632,-0.0076946,0.021538
1256,0.026085,0.022512,0.025111,0.040377,-0.17562,-0.027183,0.015042
1257,0.022837,0.014068,0.023487,0.041676,-0.2055,-0.045697,0.012443
1258,0.017316,0.010819,0.01829,0.041027,-0.22661,-0.062262,0.013093
1259,0.014392,0.0062721,0.0069217,0.036154,-0.24708,-0.080127,0.018615
1260,0.013093,-0.0063954,-0.008669,0.026735,-0.28053,-0.10319,0.026085
1261,0.011794,-0.024585,-0.021012,0.019264,-0.3351,-0.12885,0.033881
1262,0.0020496,-0.041799,-0.028157,0.016016,-0.40656,-0.15223,0.041676
1263,-0.01614,-0.050894,-0.028807,0.016341,-0.47704,-0.1714,0.049796
1264,-0.032055,-0.04862,-0.022311,0.015042,-0.52836,-0.18796,0.054344
1265,-0.035953,-0.037902,-0.011917,0.012119,-0.54298,-0.19738,0.057917
1266,-0.022961,-0.023935,-0.0044465,0.0069217,-0.51894,-0.19348,0.063763
1267,0.0020496,-0.0093186,-0.0041217,0.0014,-0.46243,-0.17822,0.070909
1268,0.026735,0.0010752,-0.01614,-0.0057458,-0.38674,-0.15743,0.078055
1269,0.039402,0.0088706,-0.034329,-0.014516,-0.30489,-0.1321,0.083576
1270,0.037778,0.017316,-0.048296,-0.021986,-0.22986,-0.10644,0.084226
1271,0.022837,0.031932,-0.047646,-0.024909,-0.16847,-0.079477,0.081952
1272,0.0049729,0.049147,-0.035953,-0.022961,-0.12625,-0.057715,0.078055
1273,-0.0050961,0.061814,-0.021012,-0.01614,-0.10124,-0.044073,0.072533
1274,-0.0067202,0.063438,-0.0080194,-0.007045,-0.09117,-0.038876,0.066037
1275,-0.0021729,0.055643,0.0010752,-0.00022403,-0.089546,-0.038551,0.056617
1276,0.0014,0.040702,0.0056225,-0.00022403,-0.089871,-0.038876,0.042001
1277,0.0023744,0.025111,0.0056225,-0.0021729,-0.088896,-0.034978,0.021213
1278,0.0023744,0.015042,0.0046481,-0.0018481,-0.084024,-0.022636,0.0010752
1279,0.0059473,0.011794,0.0043233,-0.00022403,-0.070707,0.00010078,-0.011592
1280,0.014068,0.015367,0.0020496,-0.00054884,-0.046347,0.025111,-0.017764
1281,0.024137,0.026085,-0.0018481,-0.0015233,-0.018088,0.042651,-0.020362
1282,0.034206,0.038103,-0.0041217,-0.0018481,0.0091954,0.050121,-0.023285
1283,0.046223,0.050771,-0.0015233,-0.00022403,0.035505,0.05142,-0.027183
1284,0.063438,0.061489,0.0046481,0.003024,0.067336,0.053694,-0.031081
1285,0.080328,0.069934,0.0091954,0.0095202,0.11118,0.060515,-0.033679
1286,0.092346,0.071883,0.013743,0.01764,0.17095,0.068635,-0.030431
1287,0.088448,0.069285,0.020564,0.025761,0.24241,0.074806,-0.018738
1288,0.062139,0.063113,0.031282,0.032582,0.31776,0.081627,0.0026992
1289,0.019589,0.058241,0.042001,0.039078,0.38305,0.089423,0.030308
1290,-0.022961,0.053369,0.049147,0.043625,0.4256,0.09462,0.050446
1291,-0.052843,0.0433,0.050446,0.0433,0.43924,0.088448,0.05272
1292,-0.068109,0.025111,0.041676,0.033881,0.42592,0.064413,0.03583
1293,-0.072656,0.0033489,0.021863,0.014392,0.39539,0.025111,0.0014
1294,-0.069408,-0.018738,-0.0024977,-0.012242,0.36259,-0.019388,-0.04115
1295,-0.053817,-0.03173,-0.022311,-0.037577,0.33725,-0.055766,-0.081751
1296,-0.025884,-0.030756,-0.030106,-0.055116,0.32328,-0.080451,-0.10903
1297,0.0049729,-0.018413,-0.027183,-0.059339,0.32101,-0.092469,-0.11748
1298,0.024786,-0.0044465,-0.020687,-0.050569,0.32751,-0.095393,-0.10709
1299,0.022512,0.0017248,-0.014516,-0.034329,0.3314,-0.090845,-0.090521
1300,0.0026992,-0.0050961,-0.0093186,-0.015165,0.30932,-0.083375,-0.076229
1301,-0.018738,-0.020687,-0.0024977,0.0043233,0.22812,-0.077203,-0.065835
1302,-0.030756,-0.032705,0.01017,0.021863,0.067986,-0.078827,-0.056416
1303,-0.024909,-0.037902,0.029983,0.03518,-0.16003,-0.084999,-0.04992
1304,-0.0054209,-0.036602,0.047847,0.043625,-0.40948,-0.093119,-0.045372
1305,0.022512,-0.033354,0.052395,0.046873,-0.62256,-0.092794,-0.040175
1306,0.051745,-0.031406,0.040702,0.048822,-0.74891,-0.078503,-0.029132
1307,0.076431,-0.028807,0.021213,0.051745,-0.76417,-0.048945,-0.0096434
1308,0.0865,-0.025559,-0.0011985,0.054019,-0.68167,-0.013216,0.0059473
1309,0.078704,-0.023935,-0.019712,0.05207,-0.53648,0.023162,0.008221
1310,0.05207,-0.023285,-0.027833,0.044924,-0.36726,0.054344,-0.0028225
1311,0.014068,-0.024585,-0.026858,0.03518,-0.2029,0.079029,-0.017439
1312,-0.028157,-0.02426,-0.025884,0.023162,-0.063237,0.10274,-0.024909
1313,-0.064536,-0.019388,-0.027508,0.0095202,0.040377,0.1258,-0.016464
1314,-0.086298,-0.010618,-0.032705,-0.0031473,0.10436,0.14237,0.0078962
1315,-0.093119,-0.0047713,-0.036278,-0.011592,0.13684,0.15114,0.040377
1316,-0.087922,-0.0028225,-0.036278,-0.012242,0.14561,0.14919,0.069285
1317,-0.076879,-0.0037969,-0.03238,-0.0050961,0.14237,0.13912,0.082927
1318,-0.067784,-0.0034721,-0.024585,0.0056225,0.13555,0.12385,0.079354
1319,-0.063561,-0.0028225,-0.01614,0.013093,0.13197,0.10989,0.062464
1320,-0.063237,-0.00054884,-0.007045,0.016016,0.1323,0.095269,0.040052
1321,-0.061937,0.0020496,0.008221,0.01764,0.13749,0.083901,0.019914
1322,-0.060313,-0.0011985,0.027709,0.021213,0.15179,0.078055,0.0091954
1323,-0.055441,-0.011267,0.044924,0.027709,0.18297,0.075781,0.0085458
1324,-0.044073,-0.026858,0.054344,0.036804,0.22779,0.072858,0.020564
1325,-0.026533,-0.041799,0.054344,0.044924,0.27846,0.071234,0.043625
1326,-0.0096434,-0.048945,0.049472,0.050771,0.32069,0.072858,0.067336
1327,-0.0011985,-0.044398,0.041676,0.057917,0.33725,0.075456,0.079679
1328,0.00075039,-0.034329,0.031282,0.065387,0.31614,0.076755,0.075456
1329,0.00010078,-0.019712,0.015042,0.06961,0.26547,0.068635,0.06019
1330,0.0043233,-0.0018481,-0.0028225,0.06961,0.20343,0.049147,0.04395
1331,0.019589,0.016666,-0.01549,0.06831,0.15211,0.019589,0.033881
1332,0.042326,0.03518,-0.016789,0.067011,0.11411,-0.017439,0.029333
1333,0.062139,0.05207,-0.0083442,0.066037,0.083576,-0.060638,0.023812
1334,0.068635,0.062464,0.0020496,0.064737,0.055318,-0.10384,0.016991
1335,0.059865,0.064088,0.011469,0.062139,0.022512,-0.14184,0.009845
1336,0.039078,0.055968,0.017316,0.055318,-0.018413,-0.17465,0.0036737
1337,0.019589,0.041351,0.01764,0.040052,-0.062912,-0.19868,-0.0060706
1338,0.010495,0.025436,0.013418,0.016991,-0.098965,-0.21362,-0.017439
1339,0.013093,0.013093,0.0059473,-0.0057458,-0.1204,-0.21817,-0.029782
1340,0.02641,0.0065969,-0.0050961,-0.021661,-0.12268,-0.21362,-0.042124
1341,0.042651,0.0033489,-0.017764,-0.029132,-0.10936,-0.2068,-0.054467
1342,0.050446,-0.00087364,-0.030106,-0.027833,-0.087272,-0.19966,-0.065835
1343,0.047847,-0.0050961,-0.038876,-0.020362,-0.060638,-0.19186,-0.072331
1344,0.043625,-0.0093186,-0.042124,-0.010293,-0.022961,-0.18179,-0.074605
1345,0.041027,-0.010943,-0.037902,-0.00054884,0.029009,-0.16945,-0.071682
1346,0.041351,-0.0093186,-0.029457,0.0095202,0.082927,-0.15483,-0.061613
1347,0.042651,-0.0050961,-0.018738,0.021538,0.11411,-0.14346,-0.043423
1348,0.031282,0.00010078,-0.0054209,0.034206,0.10761,-0.13112,-0.022311
1349,0.0052977,0.003024,0.01017,0.044924,0.064413,-0.11586,-0.0063954
1350,-0.029457,0.003024,0.018615,0.049147,0.0043233,-0.093769,-0.0015233
1351,-0.061288,0.0023744,0.015692,0.043625,-0.045047,-0.069408,-0.0076946
1352,-0.078178,0.0020496,0.0026992,0.031282,-0.060638,-0.046022,-0.017764
1353,-0.076229,0.0026992,-0.012892,0.011794,-0.038551,-0.027833,-0.021986
1354,-0.059989,0.0043233,-0.025234,-0.011592,0.014717,-0.017439,-0.018738
1355,-0.038227,0.0033489,-0.029457,-0.035303,0.074806,-0.013866,-0.011917
1356,-0.019712,-0.0060706,-0.026533,-0.055116,0.11054,-0.010618,-0.008669
1357,-0.011592,-0.018738,-0.019712,-0.065835,0.10339,-0.0050961,-0.008669
1358,-0.012567,-0.032055,-0.01484,-0.066485,0.050771,0.003024,-0.019063
1359,-0.01549,-0.041799,-0.012567,-0.059014,-0.03238,0.0085458,-0.037902
1360,-0.01549,-0.045697,-0.014516,-0.050894,-0.12398,0.0095202,-0.059339
1361,-0.0093186,-0.046671,-0.018413,-0.047321,-0.20843,0.0059473,-0.073306
1362,-0.0021729,-0.049595,-0.022961,-0.050569,-0.28053,0.0023744,-0.079152
1363,0.0017248,-0.052518,-0.026533,-0.057715,-0.33543,0.0046481,-0.077203
1364,-0.00087364,-0.054142,-0.030106,-0.063237,-0.35881,0.013093,-0.070382
1365,-0.013216,-0.050569,-0.03173,-0.063561,-0.34387,0.024461,-0.059014
1366,-0.031081,-0.042774,-0.030756,-0.056416,-0.2854,0.033556,-0.045047
1367,-0.048945,-0.031081,-0.022311,-0.040175,-0.18277,0.036804,-0.030756
1368,-0.059664,-0.017114,-0.0076946,-0.020362,-0.044073,0.032582,-0.019712
1369,-0.060638,-0.0028225,0.0062721,-0.0011985,0.10242,0.020888,-0.017114
1370,-0.054467,0.009845,0.014392,0.013418,0.22389,0.0010752,-0.022636
1371,-0.042449,0.01894,0.014717,0.020888,0.2895,-0.024909,-0.028157
1372,-0.020687,0.023487,0.011144,0.024786,0.27651,-0.051544,-0.026209
1373,0.0085458,0.025436,0.009845,0.029009,0.18784,-0.075255,-0.013541
1374,0.038753,0.029658,0.016666,0.033556,0.053369,-0.092794,0.0085458
1375,0.061814,0.039402,0.02706,0.039078,-0.082725,-0.096692,0.034855
1376,0.069934,0.050446,0.03518,0.041027,-0.17822,-0.081101,0.06019
1377,0.060515,0.058241,0.037129,0.038103,-0.20843,-0.044723,0.079679
1378,0.042001,0.059865,0.035505,0.030633,-0.17172,0.0046481,0.088124
1379,0.019914,0.056292,0.033231,0.019589,-0.092794,0.05207,0.084876
1380,0.0026992,0.05207,0.029658,0.012443,-0.0034721,0.087799,0.069285
1381,-0.0063954,0.052395,0.025761,0.013093,0.066686,0.11216,0.042651
1382,-0.0060706,0.055643,0.021213,0.020564,0.10924,0.1271,0.012443
1383,0.0017248,0.061489,0.014392,0.029658,0.1336,0.12937,-0.012242
1384,0.010819,0.066037,0.0052977,0.031282,0.15146,0.11898,-0.025234
1385,0.01829,0.06831,-0.0041217,0.020564,0.17355,0.10079,-0.026858
1386,0.024786,0.065062,-0.011592,0.0020496,0.19986,0.080653,-0.017114
1387,0.032906,0.054019,-0.017114,-0.015815,0.22519,0.062139,-0.0015233
1388,0.042326,0.039402,-0.018738,-0.02361,0.24143,0.049472,0.012768
1389,0.047847,0.024786,-0.017114,-0.020037,0.23916,0.046223,0.01894
1390,0.044275,0.012768,-0.014191,-0.013541,0.22227,0.05272,0.016016
1391,0.03453,0.0078962,-0.012242,-0.0063954,0.19791,0.063763,0.014068
1392,0.023162,0.011144,-0.010943,0.0023744,0.17972,0.080328,0.023487
1393,0.020888,0.020239,-0.0089938,0.012768,0.1742,0.10144,0.042651
1394,0.031607,0.031932,-0.0037969,0.023812,0.1781,0.12288,0.064088
1395,0.052395,0.042001,0.0075714,0.033556,0.17939,0.13912,0.077405
1396,0.073507,0.049147,0.020564,0.039078,0.16998,0.13912,0.078704
1397,0.087799,0.051745,0.025111,0.036154,0.15081,0.12385,0.070584
1398,0.093321,0.050121,0.021213,0.024786,0.1271,0.099167,0.054993
1399,0.089748,0.042001,0.011469,0.0049729,0.10209,0.070909,0.038103
1400,0.078704,0.031607,-0.00054884,-0.018088,0.076106,0.046873,0.022512
1401,0.063113,0.022512,-0.013216,-0.037902,0.051745,0.029009,0.010819
1402,0.045249,0.020564,-0.021986,-0.048296,0.032906,0.016016,0.0065969
1403,0.028034,0.024786,-0.025234,-0.046347,0.018615,0.0046481,0.012443
1404,0.012119,0.032257,-0.022311,-0.037252,0.012443,-0.012567,0.029009
1405,-0.0063954,0.039402,-0.015165,-0.025559,0.0078962,-0.039526,0.051745
1406,-0.028807,0.044599,-0.0096434,-0.017114,-0.0018481,-0.072331,0.073507
1407,-0.050244,0.04395,-0.0041217,-0.0076946,-0.022961,-0.098965,0.094295
1408,-0.06616,0.037129,0.0036737,0.0069217,-0.053168,-0.11066,0.11443
1409,-0.072006,0.019589,0.013743,0.02706,-0.086948,-0.10774,0.13067
1410,-0.067134,-0.010618,0.024786,0.048172,-0.1243,-0.094743,0.13587
1411,-0.052518,-0.04862,0.033231,0.060515,-0.16328,-0.077203,0.12905
1412,-0.029457,-0.080776,0.034855,0.061814,-0.20355,-0.063561,0.11118
1413,0.00010078,-0.092469,0.025761,0.055318,-0.24448,-0.054142,0.084226
1414,0.030633,-0.08305,0.01017,0.04395,-0.28086,-0.046671,0.052395
1415,0.054668,-0.060313,-0.013541,0.030308,-0.30489,-0.035303,0.017316
1416,0.066362,-0.037252,-0.036278,0.016341,-0.31529,-0.016464,-0.014516
1417,0.067011,-0.022961,-0.04862,0.0088706,-0.31399,0.0069217,-0.035953
1418,0.066362,-0.017114,-0.04927,0.010819,-0.30619,0.030308,-0.043423
1419,0.074482,-0.016464,-0.042449,0.018615,-0.29645,0.047523,-0.040175
1420,0.090722,-0.015815,-0.03238,0.02641,-0.28508,0.058566,-0.03303
1421,0.10534,-0.010943,-0.023285,0.030308,-0.27306,0.063763,-0.028482
1422,0.10696,0.0056225,-0.013866,0.027709,-0.25845,0.064737,-0.02426
1423,0.090722,0.036479,0.0020496,0.029009,-0.23668,0.064413,-0.019388
1424,0.059865,0.078055,0.023812,0.03518,-0.20063,0.064413,-0.014191
1425,0.024137,0.11573,0.044924,0.043625,-0.14866,0.070259,-0.0089938
1426,-0.0067202,0.13035,0.05272,0.047523,-0.078178,0.078704,-0.0063954
1427,-0.033679,0.11281,0.042326,0.043625,0.015692,0.085525,-0.007045
1428,-0.060638,0.067986,0.021213,0.033881,0.12548,0.088773,-0.0080194
1429,-0.087922,0.013418,0.00010078,0.021213,0.22974,0.086175,-0.0089938
1430,-0.11196,-0.027183,-0.012242,0.012443,0.30542,0.072858,-0.012242
1431,-0.1295,-0.039526,-0.012567,0.011144,0.33205,0.05272,-0.013216
1432,-0.13729,-0.018088,-0.0031473,0.016666,0.30672,0.030308,-0.0076946
1433,-0.1334,0.014392,0.0095202,0.020564,0.23981,0.0069217,0.0017248
1434,-0.11261,0.030957,0.011794,0.015367,0.14626,-0.016464,0.0069217
1435,-0.069408,0.015367,-0.0024977,0.0026992,0.044275,-0.035953,0.0010752
1436,-0.014191,-0.021337,-0.029132,-0.010943,-0.050244,-0.049595,-0.013866
1437,0.034855,-0.060963,-0.059339,-0.020687,-0.12657,-0.056416,-0.030106
1438,0.067011,-0.081101,-0.080127,-0.022636,-0.1727,-0.056416,-0.036278
1439,0.089098,-0.069083,-0.081751,-0.017764,-0.18439,-0.049595,-0.030106
1440,0.10664,-0.027508,-0.063561,-0.0076946,-0.15938,-0.038227,-0.01614
1441,0.1206,0.032582,-0.033354,0.0062721,-0.10059,-0.021661,0.0023744
1442,0.1232,0.094295,-0.00087364,0.021213,-0.03173,-0.0041217,0.024786
1443,0.10989,0.13977,0.023162,0.032906,0.010495,0.012119,0.046223
1444,0.083251,0.15958,0.033556,0.03518,-0.0011985,0.027709,0.059865
1445,0.048497,0.15016,0.028359,0.028359,-0.067784,0.0433,0.061814
1446,0.016666,0.11866,0.017316,0.016666,-0.16458,0.057592,0.054019
1447,-0.0044465,0.078055,0.010819,0.0059473,-0.25682,0.067661,0.042326
1448,-0.01484,0.041351,0.014392,0.00010078,-0.32601,0.072208,0.032257
1449,-0.021661,0.016666,0.022837,0.0026992,-0.36758,0.066686,0.024137
1450,-0.029132,0.00042559,0.028034,0.0095202,-0.38739,0.049796,0.015042
1451,-0.043748,-0.015815,0.022188,0.015692,-0.39681,0.01894,-0.00087364
1452,-0.062587,-0.040825,0.0049729,0.019589,-0.40526,-0.022636,-0.028482
1453,-0.076879,-0.070058,-0.015815,0.021213,-0.41565,-0.071032,-0.063886
1454,-0.080451,-0.095393,-0.028157,0.01764,-0.4215,-0.1178,-0.097991
1455,-0.073955,-0.10709,-0.026858,0.0069217,-0.4163,-0.15418,-0.123
1456,-0.061937,-0.10384,-0.017114,-0.0080194,-0.38934,-0.17887,-0.13242
1457,-0.051219,-0.09117,-0.0080194,-0.020037,-0.33185,-0.19186,-0.12885
1458,-0.044723,-0.077528,-0.0018481,-0.024909,-0.25195,-0.19381,-0.11553
1459,-0.039526,-0.062587,0.0023744,-0.02426,-0.17107,-0.18959,-0.095068
1460,-0.028157,-0.043423,0.0075714,-0.017114,-0.12268,-0.18699,-0.071357
1461,-0.007045,-0.019712,0.014392,-0.0057458,-0.14022,-0.19186,-0.046347
1462,0.015042,0.0046481,0.024461,0.0043233,-0.22889,-0.20843,-0.02361
1463,0.029658,0.022188,0.037454,0.0091954,-0.35069,-0.23214,-0.007045
1464,0.029658,0.028034,0.050771,0.012119,-0.45333,-0.2578,0.00075039
1465,0.017316,0.017965,0.059541,0.01894,-0.48906,-0.27599,0.00042559
1466,-0.0011985,-0.0044465,0.058566,0.027709,-0.43547,-0.27664,-0.0037969
1467,-0.021337,-0.03173,0.049796,0.031607,-0.30294,-0.25942,-0.010618
1468,-0.036927,-0.056416,0.036804,0.027385,-0.12398,-0.22954,-0.01549
1469,-0.047646,-0.071682,0.024786,0.017316,0.070259,-0.19089,-0.016789
1470,-0.049595,-0.077853,0.016016,0.0065969,0.25572,-0.14801,-0.019063
1471,-0.044073,-0.077528,0.011794,-0.00054884,0.41358,-0.10189,-0.020687
1472,-0.037902,-0.07493,0.010819,0.0014,0.52044,-0.05804,-0.020687
1473,-0.034329,-0.073306,0.013743,0.013418,0.55715,-0.021012,-0.021337
1474,-0.030756,-0.069408,0.013743,0.022512,0.52531,0.0059473,-0.022636
1475,-0.020687,-0.062262,0.0059473,0.024461,0.43762,0.027709,-0.019388
1476,-0.0083442,-0.051868,-0.010943,0.020239,0.32621,0.045249,-0.010943
1477,0.0059473,-0.035303,-0.029132,0.0095202,0.22844,0.061489,0.00042559
1478,0.018615,-0.011267,-0.039851,-0.0063954,0.1651,0.075781,0.011144
1479,0.024137,0.016991,-0.037577,-0.026533,0.13684,0.090722,0.016016
1480,0.015692,0.042651,-0.023935,-0.04862,0.13295,0.10177,0.012443
1481,-0.0037969,0.059541,-0.0060706,-0.068758,0.13717,0.10631,0.0023744
1482,-0.028157,0.062464,0.0069217,-0.084999,0.13132,0.10664,-0.010618
1483,-0.052518,0.052395,0.011144,-0.09182,0.10144,0.10306,-0.023285
1484,-0.070382,0.032582,0.0091954,-0.086948,0.054019,0.093645,-0.030756
1485,-0.07493,0.0078962,0.0075714,-0.072331,0.009845,0.082602,-0.030756
1486,-0.065186,-0.01484,0.0078962,-0.055116,-0.011917,0.076106,-0.02361
1487,-0.048296,-0.03238,0.008221,-0.033354,-0.0076946,0.076431,-0.016464
1488,-0.032705,-0.052193,0.0065969,-0.0093186,0.020239,0.07773,-0.0096434
1489,-0.019712,-0.077528,0.0023744,0.012119,0.064413,0.077405,-0.0024977
1490,-0.0015233,-0.10319,-0.0011985,0.026735,0.1206,0.070584,0.0023744
1491,0.022188,-0.12138,0.0010752,0.03518,0.18297,0.055643,-0.00054884
1492,0.046873,-0.12235,0.0017248,0.037454,0.2541,0.030957,-0.010293
1493,0.062789,-0.10351,-0.0037969,0.036479,0.33433,0.0017248,-0.019063
1494,0.062139,-0.069408,-0.017439,0.033231,0.41488,-0.022311,-0.022961
1495,0.040377,-0.029132,-0.033679,0.028684,0.47107,-0.033679,-0.013866
1496,0.010495,0.012443,-0.046022,0.024137,0.46685,-0.029132,0.012119
1497,-0.012567,0.050771,-0.045047,0.019589,0.38272,-0.01614,0.054668
1498,-0.020037,0.082927,-0.034329,0.016341,0.23429,-0.011267,0.10014
1499,-0.019712,0.10696,-0.018738,0.014392,0.071883,-0.019712,0.12937
1500,-0.028157,0.12515,-0.0057458,0.016341,-0.04992,-0.035628,0.13847
1501,-0.052518,0.13814,0.0069217,0.020888,-0.094093,-0.047321,0.13327
1502,-0.086298,0.14626,0.020888,0.022837,-0.053817,-0.046347,0.1258
1503,-0.11261,0.14561,0.029658,0.021863,0.045574,-0.029782,0.12158
1504,-0.11488,0.13327,0.029009,0.01829,0.16478,-0.0041217,0.11768
1505,-0.086623,0.10956,0.017316,0.010495,0.26872,0.01894,0.11638
1506,-0.035628,0.076755,-0.00087364,-0.0018481,0.3353,0.032906,0.11443
1507,0.025111,0.041027,-0.018738,-0.014191,0.36161,0.039078,0.10501
1508,0.084876,0.009845,-0.034654,-0.021986,0.35804,0.039402,0.088773
1509,0.1323,-0.012242,-0.04115,-0.021986,0.33887,0.038753,0.066362
1510,0.16185,-0.023935,-0.036927,-0.014191,0.31386,0.040377,0.049796
1511,0.1664,-0.029782,-0.028482,-0.0031473,0.28658,0.042651,0.039402
1512,0.14204,-0.034654,-0.021661,0.0039985,0.25215,0.046223,0.029658
1513,0.09397,-0.042774,-0.022311,0.0049729,0.20051,0.049147,0.017316
1514,0.03518,-0.052843,-0.026533,0.0020496,0.13002,0.05272,0.0052977
1515,-0.01549,-0.059339,-0.028482,0.00010078,0.045249,0.061165,0.0026992
1516,-0.045047,-0.056741,-0.025884,0.00075039,-0.037577,0.081303,0.017965
1517,-0.053168,-0.042774,-0.021012,0.0046481,-0.097666,0.11508,0.047523
1518,-0.04862,-0.022311,-0.016789,0.0088706,-0.12722,0.15373,0.081627
1519,-0.042449,-0.0015233,-0.012892,0.015042,-0.1269,0.18037,0.10826
1520,-0.041799,0.013743,-0.007045,0.018615,-0.11098,0.18264,0.11573
1521,-0.046022,0.023812,0.00075039,0.01894,-0.09182,0.16088,0.10079
1522,-0.051868,0.031282,0.0065969,0.018615,-0.073955,0.1245,0.067986
1523,-0.054467,0.036479,0.0085458,0.021538,-0.053817,0.083901,0.029333
1524,-0.052518,0.038428,0.0065969,0.028034,-0.022311,0.05272,-0.0047713
1525,-0.047971,0.036154,0.00075039,0.032257,0.022188,0.037129,-0.03238
1526,-0.038876,0.032582,-0.0047713,0.032257,0.069934,0.03583,-0.050894
1527,-0.02426,0.030633,-0.0089938,0.031282,0.11216,0.040702,-0.062912
1528,-0.0028225,0.031282,-0.010943,0.032257,0.14399,0.042001,-0.068758
1529,0.023162,0.032906,-0.0089938,0.031607,0.16185,0.033556,-0.071032
1530,0.047847,0.033881,-0.00022403,0.028684,0.16218,0.016666,-0.070382
1531,0.067661,0.03453,0.011144,0.024786,0.14691,-0.0063954,-0.071032
1532,0.082277,0.036804,0.019914,0.021213,0.12255,-0.030431,-0.078503
1533,0.088448,0.040052,0.01829,0.01764,0.09397,-0.055116,-0.092469
1534,0.083901,0.042326,0.0065969,0.014717,0.063763,-0.080776,-0.10903
1535,0.067336,0.042651,-0.0093186,0.011794,0.037454,-0.10416,-0.12398
1536,0.04395,0.042975,-0.020037,0.0091954,0.019264,-0.1204,-0.13047
1537,0.020564,0.043625,-0.022961,0.0075714,0.0085458,-0.1269,-0.1204
1538,0.0033489,0.044599,-0.016789,0.010819,-0.00022403,-0.12235,-0.10091
1539,-0.0044465,0.044599,-0.0080194,0.017965,-0.015815,-0.11196,-0.0824
1540,-0.0041217,0.042001,-0.0034721,0.029333,-0.047646,-0.098641,-0.067784
1541,-0.0028225,0.03518,-0.0073698,0.041027,-0.099615,-0.080776,-0.056091
1542,-0.0037969,0.028684,-0.016464,0.051745,-0.1714,-0.058689,-0.042774
1543,-0.0063954,0.023812,-0.025559,0.055643,-0.24545,-0.035628,-0.031081
1544,-0.0083442,0.021863,-0.027183,0.047198,-0.30035,-0.018088,-0.023285
1545,-0.0089938,0.01894,-0.022311,0.031282,-0.31821,-0.008669,-0.022311
1546,-0.0080194,0.016666,-0.01484,0.015042,-0.30327,-0.0028225,-0.026858
1547,-0.0076946,0.014068,-0.010293,0.0026992,-0.26104,-0.0028225,-0.037902
1548,-0.010618,0.011144,-0.010943,-0.0057458,-0.20096,-0.0076946,-0.050569
1549,-0.01484,0.0091954,-0.01549,-0.008669,-0.1282,-0.020687,-0.059664
1550,-0.019388,0.0052977,-0.02361,-0.011592,-0.048296,-0.036927,-0.060638
1551,-0.025884,-0.0034721,-0.032055,-0.016464,0.027385,-0.047321,-0.052843
1552,-0.035303,-0.014516,-0.036927,-0.02426,0.081303,-0.047971,-0.038876
1553,-0.04862,-0.028157,-0.036278,-0.03303,0.099167,-0.043423,-0.026533
1554,-0.062262,-0.043099,-0.029132,-0.038551,0.080003,-0.043423,-0.01549
1555,-0.071682,-0.056091,-0.017764,-0.038876,0.028034,-0.051219,-0.0050961
1556,-0.070058,-0.065186,-0.0050961,-0.033679,-0.04992,-0.065835,0.0020496
1557,-0.057715,-0.070058,0.0056225,-0.026209,-0.14087,-0.086298,0.0039985
1558,-0.039851,-0.075579,0.0085458,-0.021986,-0.23506,-0.10514,-0.0031473
1559,-0.02426,-0.081751,0.00010078,-0.020687,-0.33088,-0.11748,-0.018413
1560,-0.015815,-0.085324,-0.017764,-0.018738,-0.42929,-0.12625,-0.035953
1561,-0.0080194,-0.080127,-0.035628,-0.015165,-0.52219,-0.13437,-0.04992
1562,0.0062721,-0.061613,-0.046022,-0.010618,-0.59754,-0.13892,-0.055116
1563,0.024786,-0.036278,-0.048945,-0.0060706,-0.64009,-0.13469,-0.049595
1564,0.042975,-0.0067202,-0.045372,0.00010078,-0.6375,-0.11488,-0.031406
1565,0.053369,0.029009,-0.034978,0.0065969,-0.57708,-0.08305,-0.0076946
1566,0.060515,0.067661,-0.015815,0.013093,-0.4543,-0.046022,0.016016
1567,0.060515,0.10242,0.0072465,0.019914,-0.27501,-0.015815,0.033231
1568,0.06019,0.12613,0.024786,0.026085,-0.072331,-0.0034721,0.040702
1569,0.062139,0.13555,0.034206,0.028359,0.10371,-0.011592,0.040377
1570,0.070584,0.13392,0.040702,0.025111,0.21545,-0.030431,0.037454
1571,0.083251,0.12775,0.048822,0.016991,0.2502,-0.045697,0.040052
1572,0.090072,0.11866,0.055318,0.0085458,0.22,-0.046671,0.049472
1573,0.085525,0.10047,0.057267,0.0033489,0.15179,-0.031406,0.062464
1574,0.072858,0.074482,0.055968,0.0075714,0.072208,0.00075039,0.073832
1575,0.058241,0.046548,0.053369,0.018615,0.0026992,0.046548,0.080653
1576,0.051745,0.021538,0.053044,0.034855,-0.047646,0.091696,0.080328
1577,0.053369,0.003024,0.05272,0.050446,-0.074605,0.12255,0.078055
1578,0.057592,-0.0096434,0.046873,0.057267,-0.079802,0.13262,0.076755
1579,0.058566,-0.014191,0.03518,0.051745,-0.06616,0.12385,0.07708
1580,0.05272,-0.012567,0.026085,0.038428,-0.041475,0.10664,0.070584
1581,0.040377,-0.0080194,0.023162,0.022837,-0.01484,0.090722,0.056292
1582,0.023162,-0.0050961,0.027709,0.010495,0.003024,0.07708,0.035505
1583,0.0046481,-0.0050961,0.036154,0.0069217,0.011469,0.058566,0.013743
1584,-0.010943,-0.0054209,0.046223,0.012768,0.016666,0.032906,-0.0047713
1585,-0.018413,-0.0028225,0.049147,0.021863,0.016016,0.0017248,-0.013216
1586,-0.019712,0.0033489,0.044924,0.031282,0.013093,-0.03173,-0.01549
1587,-0.019388,0.01017,0.036479,0.037129,0.01017,-0.068109,-0.015815
1588,-0.019063,0.015367,0.029658,0.035505,0.0095202,-0.10579,-0.016464
1589,-0.018738,0.010495,0.024786,0.024137,0.0088706,-0.14346,-0.018413
1590,-0.019063,-0.0083442,0.019264,0.0062721,0.0056225,-0.17562,-0.017764
1591,-0.013866,-0.040825,0.0069217,-0.0089938,0.0017248,-0.19478,-0.0096434
1592,-0.00087364,-0.077203,-0.014516,-0.012892,0.0043233,-0.19576,0.0072465
1593,0.020564,-0.10189,-0.037252,-0.0034721,0.014068,-0.18082,0.027385
1594,0.047847,-0.10449,-0.047321,0.016991,0.029009,-0.15711,0.045899
1595,0.074806,-0.087597,-0.039851,0.036479,0.0433,-0.1321,0.056292
1596,0.095594,-0.060313,-0.022311,0.046548,0.050771,-0.11131,0.055318
1597,0.10242,-0.028807,-0.0067202,0.043625,0.047523,-0.094093,0.045249
1598,0.095269,-0.00022403,0.0023744,0.032906,0.037129,-0.076229,0.033881
1599,0.07708,0.025111,0.008221,0.023162,0.024137,-0.05739,0.025111
1600,0.049472,0.050121,0.012119,0.020888,0.011469,-0.039201,0.018615
1601,0.016016,0.073507,0.016341,0.023812,-0.0028225,-0.020687,0.013743
1602,-0.01549,0.086175,0.017316,0.027709,-0.024909,-0.0021729,0.009845
1603,-0.038551,0.084226,0.010819,0.027709,-0.056091,0.017965,0.0072465
1604,-0.052518,0.067986,-0.0028225,0.025111,-0.090845,0.039402,0.0046481
1605,-0.056741,0.041676,-0.021012,0.017965,-0.123,0.061814,0.0072465
1606,-0.054467,0.011794,-0.036927,0.0088706,-0.14736,0.0865,0.014717
1607,-0.04992,-0.015165,-0.044723,0.0036737,-0.16035,0.11476,0.026085
1608,-0.042124,-0.03238,-0.045372,0.0088706,-0.15938,0.13912,0.037129
1609,-0.031081,-0.037577,-0.037902,0.019589,-0.14281,0.15568,0.045574
1610,-0.015165,-0.032055,-0.024585,0.033231,-0.11293,0.16315,0.050771
1611,0.0017248,-0.021337,-0.0096434,0.04395,-0.073631,0.16153,0.054019
1612,0.012443,-0.012242,0.003024,0.045249,-0.030431,0.15114,0.050121
1613,0.010495,-0.010618,0.014392,0.038428,0.013093,0.13717,0.039078
1614,-0.007045,-0.011592,0.023812,0.030308,0.054344,0.12223,0.02641
1615,-0.030756,-0.010618,0.032257,0.025761,0.087474,0.10664,0.01894
1616,-0.052193,-0.0063954,0.038428,0.024137,0.10859,0.092346,0.01764
1617,-0.06681,-0.0021729,0.042001,0.024461,0.11736,0.080328,0.01829
1618,-0.069733,-0.0011985,0.039402,0.021863,0.11476,0.067336,0.017965
1619,-0.062262,-0.0024977,0.02641,0.014392,0.10306,0.05142,0.015042
1620,-0.041799,-0.0031473,0.0039985,0.0085458,0.081952,0.033881,0.008221
1621,-0.01549,-0.00087364,-0.018413,0.0072465,0.054993,0.01764,-0.0037969
1622,0.0052977,0.0072465,-0.032705,0.011144,0.022188,0.0039985,-0.017764
1623,0.012768,0.015692,-0.036278,0.019264,-0.01484,-0.0096434,-0.027833
1624,0.0065969,0.021863,-0.034329,0.02641,-0.053817,-0.02426,-0.032055
1625,-0.010618,0.024137,-0.026858,0.027709,-0.095717,-0.039851,-0.025559
1626,-0.029782,0.020888,-0.016789,0.021863,-0.14541,-0.056091,-0.0067202
1627,-0.043423,0.014717,-0.0063954,0.012768,-0.21557,-0.074605,0.01829
1628,-0.046996,0.0091954,-0.00022403,0.0017248,-0.30424,-0.092145,0.038753
1629,-0.038227,0.012768,-0.0018481,-0.008669,-0.39064,-0.10968,0.044275
1630,-0.018738,0.023487,-0.011267,-0.016789,-0.45236,-0.1256,0.032257
1631,0.0046481,0.036804,-0.02361,-0.020362,-0.46925,-0.13599,0.008221
1632,0.025436,0.044275,-0.030431,-0.017764,-0.43449,-0.13469,-0.017764
1633,0.037778,0.0433,-0.027183,-0.011592,-0.35296,-0.11683,-0.035303
1634,0.036804,0.03583,-0.018088,-0.0083442,-0.2448,-0.085648,-0.041475
1635,0.024461,0.025111,-0.0096434,-0.0073698,-0.13015,-0.04992,-0.040825
1636,0.0078962,0.016016,-0.0060706,-0.0063954,-0.018738,-0.019712,-0.038876
1637,-0.00054884,0.0095202,-0.011592,-0.0050961,0.093645,0.0017248,-0.034978
1638,0.0052977,0.0078962,-0.023285,-0.0067202,0.20668,0.016016,-0.025884
1639,0.019914,0.0091954,-0.035303,-0.017439,0.31289,0.024461,-0.014516
1640,0.034206,0.0091954,-0.044073,-0.033354,0.39799,0.031282,-0.0083442
1641,0.036804,0.0049729,-0.046996,-0.049595,0.44834,0.036479,-0.0080194
1642,0.027709,-0.00054884,-0.041475,-0.063886,0.4649,0.044924,-0.0089938
1643,0.0075714,-0.0076946,-0.028157,-0.072981,0.45386,0.056617,-0.0099683
1644,-0.019063,-0.013866,-0.011592,-0.071032,0.42397,0.067011,-0.0096434
1645,-0.045372,-0.017114,0.0052977,-0.06551,0.38013,0.072858,-0.0067202
1646,-0.064211,-0.018088,0.015692,-0.058365,0.33303,0.074806,0.0010752
1647,-0.069408,-0.016789,0.01829,-0.047646,0.29275,0.076431,0.010495
1648,-0.061288,-0.01614,0.014068,-0.032705,0.25995,0.078055,0.016341
1649,-0.048296,-0.020037,0.0072465,-0.017439,0.23786,0.077405,0.015042
1650,-0.037577,-0.027183,0.0020496,-0.0076946,0.22227,0.072533,0.0078962
1651,-0.032705,-0.034004,0.0039985,-0.0018481,0.20116,0.064088,-0.0024977
1652,-0.03303,-0.039201,0.0085458,0.0026992,0.16185,0.054993,-0.010293
1653,-0.037902,-0.039851,0.011794,0.0052977,0.10274,0.041351,-0.012242
1654,-0.043099,-0.036927,0.014068,0.01017,0.034855,0.020564,-0.0089938
1655,-0.044398,-0.034654,0.014392,0.014392,-0.034654,-0.0067202,-0.0037969
1656,-0.039851,-0.036278,0.013418,0.016991,-0.11196,-0.036278,0.00042559
1657,-0.028807,-0.043423,0.013743,0.020239,-0.21135,-0.069408,0.003024
1658,-0.016789,-0.052518,0.013743,0.022837,-0.34192,-0.10806,0.0046481
1659,-0.0096434,-0.059664,0.013418,0.023162,-0.49166,-0.14736,0.0026992
1660,-0.010943,-0.061937,0.011144,0.019264,-0.62548,-0.17887,-0.0047713
1661,-0.018738,-0.059664,0.0091954,0.010819,-0.71058,-0.19868,-0.021986
1662,-0.023935,-0.052518,0.008221,-0.00022403,-0.73169,-0.20388,-0.046671
1663,-0.016789,-0.038227,0.0078962,-0.0073698,-0.69629,-0.19024,-0.06616
1664,0.012768,-0.012567,0.0085458,-0.0089938,-0.61541,-0.15776,-0.064861
1665,0.055318,0.026735,0.0095202,-0.0028225,-0.51212,-0.10741,-0.039526
1666,0.094295,0.070909,0.009845,0.008221,-0.40883,-0.047971,0.0036737
1667,0.11216,0.10664,0.0091954,0.019589,-0.32146,0.003024,0.048172
1668,0.10956,0.11995,0.008221,0.027385,-0.25715,0.039078,0.078379
1669,0.096569,0.10761,0.0075714,0.033881,-0.21427,0.056292,0.090397
1670,0.080978,0.077405,0.01017,0.041027,-0.17952,0.057917,0.083251
1671,0.070584,0.043625,0.01764,0.049796,-0.13827,0.050446,0.063113
1672,0.067011,0.023487,0.030957,0.057267,-0.081751,0.038428,0.033556
1673,0.071883,0.022837,0.044275,0.059216,0.00075039,0.023487,-0.00054884
1674,0.081303,0.041027,0.053044,0.054668,0.11476,0.011144,-0.030106
1675,0.089098,0.06961,0.053369,0.044275,0.258,0.0049729,-0.047971
1676,0.092671,0.096569,0.046873,0.028684,0.40871,0.0059473,-0.048296
1677,0.093321,0.10859,0.031282,0.0085458,0.53019,0.014392,-0.037902
1678,0.0865,0.095594,0.0056225,-0.012242,0.59385,0.030308,-0.024585
1679,0.066037,0.062789,-0.02426,-0.034004,0.60197,0.05207,-0.012567
1680,0.030308,0.01829,-0.053492,-0.052193,0.57793,0.074157,0.00075039
1681,-0.014516,-0.024909,-0.070707,-0.059339,0.54968,0.095919,0.016666
1682,-0.056741,-0.056741,-0.068109,-0.053168,0.53961,0.11963,0.033556
1683,-0.084024,-0.075579,-0.048296,-0.040175,0.55585,0.14561,0.046548
1684,-0.092794,-0.080776,-0.023935,-0.03173,0.58735,0.16445,0.047847
1685,-0.089221,-0.071682,-0.0067202,-0.033679,0.61594,0.16575,0.033231
1686,-0.076229,-0.04927,-0.00054884,-0.042449,0.62698,0.14854,0.011794
1687,-0.059339,-0.018738,0.0010752,-0.047321,0.61853,0.11703,-0.0060706
1688,-0.04862,0.009845,0.0026992,-0.042774,0.5958,0.079029,-0.010943
1689,-0.04927,0.030957,0.0072465,-0.033354,0.56169,0.041027,-0.0054209
1690,-0.059989,0.041351,0.015692,-0.025884,0.50907,0.009845,0.0072465
1691,-0.076229,0.039078,0.023812,-0.028482,0.42332,-0.010943,0.01829
1692,-0.092145,0.024461,0.021538,-0.0405,0.30607,-0.020362,0.019264
1693,-0.10449,0.00042559,0.003024,-0.055441,0.17907,-0.021337,0.0078962
1694,-0.11098,-0.027508,-0.025884,-0.066485,0.064737,-0.020037,-0.0073698
1695,-0.11293,-0.052518,-0.053168,-0.072656,-0.02426,-0.02426,-0.02426
1696,-0.11098,-0.067134,-0.064861,-0.072656,-0.086948,-0.036927,-0.040175
1697,-0.10644,-0.06616,-0.056091,-0.060313,-0.12105,-0.055441,-0.051544
1698,-0.097666,-0.04927,-0.034004,-0.035628,-0.12365,-0.069733,-0.053168
1699,-0.0837,-0.025234,-0.007045,-0.0054209,-0.10124,-0.072006,-0.042449
1700,-0.064536,-0.0044465,0.014717,0.020888,-0.064536,-0.062587,-0.026858
1701,-0.042124,0.0078962,0.028034,0.03583,-0.026858,-0.04927,-0.010293
1702,-0.018413,0.008221,0.030633,0.043625,0.0043233,-0.038551,-0.00054884
1703,0.0036737,0.0026992,0.020564,0.051745,0.025436,-0.033354,-0.00022403
1704,0.016991,-0.0028225,0.0026992,0.06019,0.033231,-0.029782,-0.0083442
1705,0.01894,-0.0047713,-0.013216,0.066362,0.026085,-0.022961,-0.018738
1706,0.015692,-0.0037969,-0.018088,0.070259,0.013743,-0.010293,-0.02361
1707,0.0088706,0.00075039,-0.0073698,0.074806,0.008221,0.0069217,-0.022961
1708,-0.0034721,0.0091954,0.015692,0.084226,0.01017,0.024786,-0.019063
1709,-0.021337,0.021538,0.037454,0.097868,0.015692,0.038428,-0.014191
1710,-0.043423,0.037778,0.051745,0.11118,0.023162,0.044924,-0.0083442
