-0.063662     0.14616    0.074791    0.040589   -0.072542    0.045193    0.055717
-0.073528     0.12478    0.080382    -0.01795   -0.099509      0.0692    0.071502
-0.060373      0.1113    0.090905   -0.054125    -0.13733    0.087617     0.09255
-0.02946     0.10505     0.10143   -0.071884    -0.16989    0.097483     0.11458
0.0080309     0.10176     0.10801   -0.079448    -0.16989    0.097154     0.13103
0.059334    0.097154     0.10702   -0.081421    -0.11464    0.088932     0.13267
0.13596    0.098141    0.097812   -0.080763  0.00079584    0.076435     0.11623
0.23857    0.099456    0.088603   -0.080106     0.15602    0.064596    0.088275
0.35301    0.096825    0.090248   -0.070568     0.30993    0.057032    0.061307
0.45726    0.092221     0.11195   -0.048205     0.42109    0.053415    0.042233
0.52271    0.087288     0.15076   -0.020581     0.46549    0.053743    0.026447
0.52238    0.081368     0.19088  -0.0024928     0.44049     0.05473    0.010333
0.45562    0.073804      0.2162   0.0014536     0.36617    0.053086   -0.004466
0.35564    0.062623     0.22443   0.0021113     0.26685    0.050126   -0.007097
0.25961    0.048153      0.2264    0.012635     0.16753    0.048153   0.0050711
0.18759    0.027434     0.22903    0.032038    0.080711    0.047166    0.022501
0.14024   0.0014536     0.23002    0.052099     0.01987    0.045193    0.037629
0.11162   -0.026829     0.22673    0.068871  -0.0028217    0.039931    0.046837
0.091892   -0.052481     0.21588    0.082684     0.02875    0.032038    0.053743
0.067227   -0.073199     0.19746    0.097812     0.13234    0.027105    0.058348
0.035327   -0.083394     0.16556      0.1205      0.3119    0.029078    0.059005
0.0011247   -0.082408     0.12905     0.15207     0.55987    0.034998    0.057032
-0.030118   -0.077146    0.093865     0.18891     0.85651    0.048153    0.055717
-0.059387   -0.073857    0.062294     0.21785      1.1568    0.066898     0.05473
-0.088656   -0.071884    0.027763     0.23166      1.3801    0.086959    0.054072
-0.1176   -0.064649  -0.0061104      0.2287      1.4508     0.10143    0.056374
-0.13799    -0.04689   -0.031104     0.21785      1.3485     0.10636    0.056374
-0.15048   -0.022883   -0.036366     0.21061       1.113    0.099785    0.053086
-0.15805   0.0077021   -0.014332     0.21324     0.82132    0.087946    0.055388
-0.16166    0.038287    0.044864     0.22344     0.54211    0.083013    0.066569
-0.15706    0.063281     0.13728     0.23626     0.31552    0.087946    0.081039
-0.14193    0.083342     0.23166     0.24679     0.15142    0.095839     0.09551
-0.12056    0.097483     0.29119     0.24876     0.04026    0.095839     0.10603
-0.096878    0.098798      0.3027     0.23331   -0.036366    0.087288     0.10801
-0.079448    0.077751     0.27376     0.20404    -0.10214    0.074791    0.096167
-0.074844    0.035327     0.20765     0.16128    -0.17548    0.065254    0.074133
-0.08471   -0.016634    0.082355     0.11031    -0.25506    0.058348     0.05473
-0.10609   -0.063004    -0.12089    0.061636    -0.33662    0.052428    0.049468
-0.13601   -0.095233    -0.36754    0.019541    -0.42213    0.048482    0.047824
-0.1689    -0.10937    -0.57176   -0.016963    -0.50467     0.04322    0.041575
-0.19981   -0.096549    -0.65266   -0.048534     -0.5711    0.033683    0.028421
-0.21922    -0.02354    -0.58229   -0.082408    -0.59511    0.020199   0.0070443
-0.22086     0.15865    -0.39582    -0.12154    -0.55927   0.0093464   -0.020909
-0.20968     0.46549    -0.16561    -0.16298    -0.46817 -0.00019077    -0.04985
-0.19225     0.85059    0.034669    -0.19817     -0.3557   -0.007097   -0.069253
-0.17219      1.2357     0.15898    -0.22481    -0.26197   -0.007097   -0.073528
-0.14752       1.555     0.19187    -0.24059    -0.21264   0.0014536    -0.06728
-0.12187      1.7665     0.15701    -0.24355    -0.21593    0.015595   -0.052481
-0.098522      1.8425    0.088932      -0.235     -0.2521    0.031052   -0.041957
-0.077146      1.7662    0.014608    -0.21856    -0.29157    0.042233   -0.039326
-0.055112      1.5435   -0.059387    -0.20179    -0.30965     0.04618   -0.042944
-0.028473      1.1998    -0.13963    -0.18732    -0.30078    0.045522   -0.042615
0.0057288     0.74667    -0.22546    -0.17613    -0.26953    0.046837   -0.033735
0.049139     0.18726    -0.30867    -0.15903    -0.23106    0.053743   -0.012359
0.092879    -0.45304    -0.37872    -0.12483    -0.20639    0.060979    0.019541
0.1159     -1.1266    -0.42246   -0.080763    -0.21132    0.062294    0.055388
0.096825     -1.7744    -0.42575   -0.038011    -0.24783    0.052428    0.081697
0.035985     -2.3493    -0.37346  -0.0084125    -0.30406    0.036314    0.090577
-0.042944      -2.814    -0.26197   0.0073732    -0.36458    0.024803    0.084657
-0.11332     -3.1264   -0.093589    0.020199    -0.41522    0.023817    0.068214
-0.16101     -3.2175     0.14879    0.042233    -0.44581    0.032038    0.049468
-0.18436     -3.0146     0.49278    0.082026    -0.45863    0.046837    0.040918
-0.17975     -2.4956     0.92491     0.13399    -0.46126    0.060979    0.050126
-0.14127     -1.7238      1.3449     0.18628    -0.45732      0.0692    0.068543
-0.061689    -0.83453      1.6162     0.22804     -0.4435    0.071502    0.087946
0.058019   0.0057288      1.6451     0.24778    -0.41555      0.0692     0.10044
0.20568     0.64866      1.4324     0.24383    -0.37313     0.06361     0.10505
0.35762      1.0242      1.0768     0.22673    -0.31229    0.057361      0.1057
0.47996      1.1525     0.71312     0.21259    -0.22579    0.055388     0.10834
0.55099      1.0897     0.44838     0.20963    -0.11332    0.059005     0.11623
0.56316     0.91077      0.3175     0.20996   0.0067154    0.066898     0.12248
0.53027     0.68254     0.28559     0.20173     0.10735    0.075449     0.12215
0.47469     0.45463     0.26915     0.17444     0.17181    0.077093      0.1136
0.41846     0.23725     0.19154      0.1353     0.19746    0.067227     0.10176
0.37044   0.0050711    0.030065    0.093208     0.18266    0.047166    0.089919
0.32539    -0.27447    -0.17909    0.050455     0.13629    0.021514    0.069858
0.2708    -0.59544    -0.36984   0.0067154    0.075778   -0.004466    0.037958
0.20173    -0.91082    -0.48955    -0.03538     0.02579   -0.022554   0.0011247
0.12642     -1.1466    -0.52835   -0.077475   0.0090175   -0.030118    -0.03538
0.055388     -1.2403    -0.51026    -0.11661    0.027763   -0.028473   -0.055112
-0.0024928       -1.17    -0.47047    -0.14884    0.065912   -0.022225   -0.052152
-0.039326    -0.95621     -0.4343    -0.17383     0.10242   -0.018278    -0.03242
-0.048534    -0.65135    -0.41259    -0.18863     0.12609   -0.017621  -0.0054526
-0.037682    -0.31952    -0.40503    -0.18041     0.13267   -0.013345    0.018884
-0.020581    -0.01203    -0.40832    -0.14095     0.12807  -0.0018351    0.036642
-0.014332     0.22903    -0.41752   -0.072213     0.11985    0.010004    0.050784
-0.033078      0.3757    -0.42311    0.014937      0.1136    0.017568     0.05769
-0.083394     0.43983    -0.42015     0.10077     0.11162    0.021514    0.055717
-0.15344     0.46779    -0.40864     0.16753     0.11985    0.024474     0.04618
-0.2156     0.52139    -0.38957       0.207     0.14287    0.027763     0.02875
-0.24191     0.63452    -0.36096     0.21719     0.18792     0.03434   0.0096753
-0.22251     0.80027     -0.3113      0.2014     0.26159    0.041904  -0.0028217
-0.16232     0.99069    -0.23928     0.17444     0.35992    0.045193   -0.007097
-0.073199      1.1785    -0.14423     0.14648      0.4645    0.047495   -0.004466
0.029078      1.3498   -0.031433     0.12445        0.55    0.047824   0.0034268
0.12577      1.4948    0.086301      0.1113     0.60197    0.049797    0.013622
0.20371      1.5974     0.18726     0.10011     0.61775    0.056374    0.024803
0.25698      1.6343     0.25534    0.083013     0.59539    0.065912    0.033354
0.28428      1.5741     0.28033    0.057361     0.52896    0.073476    0.037629
0.28231      1.3926     0.26093    0.027105     0.42043    0.081368    0.036314
0.25139      1.1002     0.21127  -0.0031506     0.28823    0.095839      0.0373
0.19318      0.7322     0.14385   -0.031104     0.16852     0.11689    0.042562
0.11721     0.32703    0.065912   -0.064978    0.096167     0.13695     0.04618
0.036642   -0.093918   -0.013017    -0.10181     0.08367     0.15043    0.045193
-0.03538    -0.51553   -0.088985    -0.13568     0.11787      0.1524    0.033683
-0.097536    -0.90392     -0.1643    -0.16331     0.16753     0.14155    0.018884
-0.15673     -1.1861    -0.24651    -0.17646     0.20075     0.12511   0.0067154
-0.21626     -1.2851    -0.33399    -0.16824     0.19022     0.11327   0.0014536
-0.27184      -1.171    -0.39911     -0.1268     0.13925      0.1113   0.0077021
-0.31919    -0.88123    -0.41423   -0.046561    0.072489     0.11853     0.02283
-0.35175    -0.50434    -0.37378    0.064267    0.021186     0.12675    0.039931
-0.35866    -0.14226    -0.28565     0.19253  -0.0038083     0.13333     0.05473
-0.33333     0.13432    -0.15575     0.32045   -0.014332     0.13695    0.067227
-0.27775     0.30467  -0.0018351     0.42635   -0.030775     0.13037    0.079724
-0.20014     0.39281     0.14254     0.48259   -0.055112     0.11393    0.087288
-0.11266     0.42931     0.24547     0.47371   -0.072213    0.091234     0.08663
-0.010057     0.44378     0.28855     0.40662   -0.066293     0.07216    0.083013
0.12248     0.45365     0.27902     0.30204   -0.034064     0.06624    0.082026
0.28592     0.47009     0.24679     0.19022    0.011977     0.07216     0.08367
0.46647     0.49147     0.21851    0.099127    0.056374    0.085972    0.087288
0.63288     0.50725     0.20634    0.036314    0.087617    0.097812    0.097812
0.75555     0.50955     0.20272  -0.0051238    0.099127    0.099785     0.11261
0.81178     0.49443     0.20009   -0.031433    0.087617    0.086959     0.12774
0.78975     0.46121     0.19088   -0.048863    0.055059    0.064925     0.13497
0.69207     0.41813     0.17148   -0.062347   0.0096753     0.04026     0.13004
0.54606     0.37176     0.14616   -0.074844   -0.030118    0.015924     0.11524
0.38491     0.32276     0.11458   -0.084052   -0.044259  -0.0061104    0.095181
0.24186     0.27869    0.067885   -0.092274   -0.024198   -0.024856    0.071831
0.1353     0.25008 -0.00051963   -0.095891    0.044206   -0.034722    0.054401
0.070516     0.24449   -0.087669   -0.085039     0.18957   -0.031104    0.041575
0.044535     0.26126    -0.18041   -0.051165     0.43687  -0.0087413    0.029078
0.049468     0.29382    -0.26296   0.0073732     0.76607    0.029736    0.019541
0.06624      0.3198     -0.3238    0.074791       1.094    0.068214     0.01691
0.076435     0.31651    -0.35734     0.12609      1.3041    0.096496     0.02283
0.071173        0.28    -0.36162     0.14681      1.3215     0.10505    0.029407
0.058676     0.23067    -0.33465     0.13695      1.1351    0.093865    0.037958
0.060321     0.19516    -0.28236     0.10274     0.80257    0.069529    0.050126
0.089261     0.18562    -0.20803    0.062294     0.42306     0.04322     0.06624
0.14484     0.19976    -0.11398    0.031709    0.093208    0.023488    0.087288
0.21324     0.22212  -0.0018351    0.012306     -0.1393    0.013293     0.10636
0.26521     0.23824     0.13563   0.0024402    -0.27348    0.010662     0.11557
0.28033     0.24383     0.31256   0.0096753    -0.33103    0.012306     0.11689
0.25567     0.24449     0.53257    0.044535    -0.33958    0.015595     0.11162
0.20371     0.24416     0.75555     0.10735     -0.3307     0.01691    0.099127
0.14385     0.24021     0.91505     0.18759    -0.32577    0.012306    0.081039
0.085644     0.22508     0.97128     0.26849      -0.333  0.00079584    0.062623
0.034669     0.19417      0.9384     0.33723    -0.34649   -0.013674    0.051113
-0.010715      0.1501     0.86177     0.40464     -0.3603   -0.028473    0.050126
-0.054783     0.10274     0.78482     0.47272    -0.37082   -0.039326    0.056046
-0.095891    0.064267     0.72792     0.52435    -0.37905    -0.04689    0.063281
-0.13437    0.039273     0.67826      0.5408    -0.38529   -0.050507    0.067885
-0.17054    0.026447     0.61084     0.51613    -0.39713   -0.055769    0.064267
-0.20047    0.015595     0.51153     0.45529    -0.42114   -0.062018    0.049468
-0.22546  -0.0024928     0.38162     0.37307    -0.45501   -0.065964    0.032367
-0.24224   -0.026171     0.23988     0.29217    -0.48395   -0.064649    0.024803
-0.24553   -0.046232     0.11393     0.23265    -0.49645     -0.0584    0.030065
-0.2373   -0.059387    0.026447     0.20436    -0.48823   -0.047877    0.045193
-0.22875   -0.073528   -0.020581     0.20108    -0.46784   -0.033735    0.063281
-0.22185   -0.092603   -0.042286     0.21127    -0.44548   -0.019923    0.076435
-0.21691    -0.11957   -0.054125     0.22739    -0.42476  -0.0084125    0.081368
-0.21132    -0.15246   -0.068266     0.24514    -0.40272   0.0017824    0.082026
-0.20475    -0.17844     -0.0903     0.25205    -0.37806    0.015266    0.082684
-0.19916     -0.1906    -0.11497     0.23824    -0.34879    0.031709    0.080711
-0.19554    -0.17811    -0.13207     0.20272      -0.309    0.047166    0.079395
-0.19291      -0.137    -0.13536     0.15668    -0.26592    0.057032    0.081368
-0.19093   -0.071226    -0.11891     0.11097    -0.21823    0.059334    0.087288
-0.1814   0.0086887   -0.086354    0.070516    -0.15969    0.059663    0.093536
-0.15673    0.083999   -0.048205    0.036314   -0.068266    0.067556    0.099127
-0.12549     0.14517   -0.013345   0.0080309     0.11162    0.083999    0.098798
-0.09622     0.18792   0.0070443   -0.012359     0.44345     0.10538     0.08663
-0.076159     0.21949    0.011977   -0.015648     0.92919     0.12346    0.065912
-0.06136      0.2481   0.0030979   0.0011247      1.4652     0.13596    0.049139
-0.050507     0.28296   -0.015319    0.033354      1.8915     0.14714    0.041904
-0.046561     0.32966   -0.039655    0.065583      2.0871     0.15405    0.044864
-0.051494      0.3836    -0.06728    0.085972      2.0279     0.15438    0.052757
-0.063991     0.43326   -0.092931    0.090905       1.777      0.1432    0.056046
-0.080763     0.46384    -0.11266    0.082355      1.4245     0.12577    0.054072
-0.098522     0.47436     -0.1268    0.061965      1.0269     0.10899     0.04618
-0.11727     0.45957    -0.13503    0.032038     0.59605    0.098798    0.034998
-0.1347     0.40991    -0.14423  -0.0061104     0.13662    0.093536    0.020857
-0.1495     0.31454    -0.15706   -0.047548    -0.31689    0.093536   0.0077021
-0.15805     0.16819    -0.16923   -0.084052    -0.69114     0.10176   0.0034268
-0.15739   -0.026171    -0.17285     -0.1074    -0.91642     0.10965   0.0080309
-0.14588    -0.25408    -0.16791    -0.11201    -0.96772     0.11294    0.018226
-0.12516    -0.49514    -0.15673    -0.10444    -0.87761     0.10932    0.028421
-0.09918    -0.73718    -0.14456    -0.10017    -0.71186    0.098469    0.039273
-0.071226    -0.97824     -0.1495    -0.10905    -0.54216    0.079395    0.055717
-0.042944     -1.2104    -0.18008    -0.13371     -0.4195     0.05473    0.073476
-0.011701     -1.4097    -0.22514    -0.16495    -0.35964    0.027434    0.083013
0.027105     -1.5304    -0.26624    -0.19817    -0.34451      0.0054    0.076764
0.0692     -1.5314    -0.28894    -0.22678    -0.34879  -0.0064392    0.054401
0.10965     -1.3956    -0.29716    -0.24618    -0.35241   -0.010386    0.024803
0.14977     -1.1361    -0.29058    -0.25638    -0.34978   -0.011372   0.0024402
0.18858    -0.77467     -0.2623     -0.2646    -0.33991   -0.011372   -0.010057
0.22475    -0.35307    -0.19751    -0.27151     -0.3261    -0.01203  -0.0093991
0.25205     0.07216   -0.082408    -0.27184    -0.31196  -0.0041372   0.0017824
0.26915     0.45036    0.073147    -0.26361    -0.29847    0.014608    0.019541
0.27737     0.75028     0.22936     -0.2498    -0.28663    0.036971    0.040589
0.28264     0.96701     0.33361     -0.2327    -0.27841     0.05473    0.056046
0.28823      1.1101     0.34578    -0.21461    -0.26986    0.064596    0.055059
0.2948      1.1847     0.25633    -0.19718    -0.26131     0.06624     0.04322
0.30039      1.2015    0.097812    -0.17778    -0.25769    0.069529    0.033683
0.2948       1.166   -0.074186    -0.15607    -0.25934    0.076764    0.035327
0.2754      1.0686    -0.19916     -0.1324    -0.25934    0.080382    0.048482
0.24547     0.89071    -0.23698    -0.11562    -0.25243    0.081039    0.065583
0.20864     0.63058    -0.18797    -0.11793    -0.23665    0.077751    0.078409
0.16786     0.31026   -0.083723    -0.14325    -0.22283    0.072489    0.088603
0.12807   -0.026171    0.039273    -0.18699    -0.21428    0.065254     0.09551
0.093208    -0.33531     0.14912    -0.24191    -0.21198     0.06065    0.093536
0.062623    -0.58821     0.23232    -0.29453    -0.21593    0.061636    0.077422
0.038616    -0.78849     0.29086     -0.3261    -0.22119    0.063281    0.052099
0.032367    -0.96443     0.33295    -0.32084    -0.22546    0.059334    0.027763
0.052428      -1.118     0.36551    -0.27611    -0.23171    0.047495    0.017568
0.090577       -1.19     0.38426    -0.20771    -0.24257    0.035985    0.020199
0.13432      -1.091     0.37801    -0.13371    -0.26427    0.035985    0.026447
0.17246    -0.76514     0.34348   -0.069582    -0.29025    0.048153    0.026447
0.20173     -0.2498     0.29776   -0.027487    -0.29814    0.067556    0.018555
0.21916     0.33098     0.26652  0.00079584    -0.26098     0.08367    0.013293
0.22739     0.83349     0.25797    0.029407    -0.16068     0.09255     0.01132
0.23594      1.1696     0.24909    0.067885  -0.0038083    0.097812    0.014937
0.24284      1.3281     0.21193     0.11886       0.182     0.10636    0.028421
0.23528      1.3498     0.14155     0.17542     0.35663     0.11919    0.043549
0.20568      1.2538    0.054401     0.22673     0.47732     0.13497    0.049468
0.15076      1.0246   -0.028473     0.26455       0.526     0.14813    0.042562
0.079724     0.64702   -0.087669     0.28592     0.50462     0.15602    0.030723
0.0080309     0.12905     -0.1199     0.29382     0.43424     0.15799    0.024803
-0.045574    -0.48494    -0.12352     0.29151     0.34545     0.14977    0.029407
-0.072213     -1.1239     -0.1005     0.28559     0.26718      0.1284     0.04026
-0.07287     -1.7179   -0.068266     0.27935     0.22245     0.10209     0.04618
-0.055112     -2.2039   -0.052481     0.26915     0.21719    0.079724    0.039602
-0.023211     -2.5315   -0.075173     0.25665     0.24317    0.065583    0.025132
0.0077021     -2.6624    -0.13338     0.23988     0.28165    0.059663    0.015595
0.023817     -2.5765    -0.20277     0.21883     0.31092    0.059334    0.010333
0.020199     -2.2727    -0.25737     0.18957     0.31421    0.057361    0.010004
0.0067154      -1.779    -0.29288     0.15142     0.28954     0.04881    0.013951
0.0044134      -1.166    -0.32018     0.10603      0.2412    0.036314    0.013622
0.031381    -0.54414    -0.34451    0.060979      0.1843    0.029078   0.0073732
0.087288   -0.019923    -0.35109    0.039931     0.12774     0.02579  -0.0018351
0.15734     0.33525    -0.31426    0.068543    0.076764    0.023159  -0.0077547
0.22212     0.51416    -0.22251     0.15701    0.040589    0.018884  -0.0061104
0.26488     0.55724   -0.076817      0.2902    0.029078    0.010333      0.0054
0.28362     0.52731    0.097812     0.43161    0.049468  -0.0011774    0.021186
0.28461     0.47042     0.26159     0.54211    0.095181  -0.0097279    0.041247
0.26849     0.40925     0.37702     0.59933     0.15142  -0.0064392    0.066898
0.22673     0.35433     0.42405     0.60295     0.20568   0.0093464    0.090248
0.15043     0.31782     0.41451     0.56382     0.25205    0.025132      0.1057
0.043549     0.31519     0.37472     0.49541     0.28954    0.031052     0.10669
-0.073857     0.35466     0.33624     0.40826     0.31815    0.024145    0.089919
-0.18238     0.42536     0.32736     0.31289     0.33427    0.011977    0.061307
-0.26986      0.5135     0.35762     0.21883     0.33197   0.0021113    0.026776
-0.33399     0.59539     0.41155     0.13596     0.30894   0.0034268  -0.0015062
-0.37937     0.65261     0.45957    0.072489     0.26553    0.014937   -0.013674
-0.40174     0.67169     0.47732    0.027763       0.207    0.031381  -0.0097279
-0.39023     0.65557     0.45332  -0.0054526      0.1376    0.047824   0.0011247
-0.333     0.62268     0.39445   -0.031762    0.062623    0.064596    0.015266
-0.22744      0.5898     0.31782   -0.050836   -0.018278    0.079395    0.035327
-0.083065     0.56513     0.25731   -0.061031    -0.10641     0.09255     0.06065
0.081368     0.55625     0.24021   -0.066951    -0.19192     0.10209    0.090248
0.23857      0.5727     0.26389   -0.063004    -0.26624     0.10603     0.11623
0.36222     0.62564     0.29086   -0.040641    -0.32544      0.1034     0.13432
0.43885     0.72134     0.28494   -0.007097    -0.36721    0.098798     0.14517
0.46483     0.85815     0.23265     0.02283    -0.39154    0.096167     0.15109
0.45266      1.0223     0.14912    0.029407     -0.3968    0.092879     0.15438
0.41912      1.1985    0.056046   0.0096753    -0.38497    0.089919     0.14977
0.38426      1.3593   -0.030447   -0.027816    -0.34945    0.084328     0.13464
0.35926      1.4741   -0.099509   -0.068595    -0.29486    0.074462     0.11557
0.33887      1.5165    -0.14423    -0.10247    -0.23599    0.063938    0.096496
0.31289      1.4672    -0.16495    -0.12845    -0.19389    0.061307    0.084328
0.27277      1.3278    -0.16561     -0.1495    -0.18699    0.065254    0.076764
0.21883      1.1206     -0.1518    -0.16989    -0.21428    0.068871    0.070845
0.15898     0.88216    -0.14062    -0.18962     -0.2498    0.070516    0.062952
0.10702     0.64834    -0.15279    -0.20146    -0.26065    0.063938    0.058348
0.079724     0.44575    -0.19422    -0.19685    -0.22349    0.045851    0.050455
0.086959     0.29053     -0.2521    -0.18074      -0.137    0.022172    0.033683
0.12675     0.17904      -0.309    -0.16594   -0.018278   0.0001381   0.0067154
0.18134     0.10011    -0.34945    -0.15936     0.11261    -0.01795   -0.022225
0.22739    0.049468    -0.34978    -0.15969     0.23988   -0.033078   -0.039326
0.24909    0.025461     -0.2919    -0.16265     0.35696   -0.049521    -0.04097
0.23725    0.029736    -0.18337    -0.16397     0.45924   -0.061689   -0.033406
0.19516     0.05473   -0.049192    -0.16101      0.5329   -0.064978   -0.018607
0.13432    0.088603    0.081697    -0.15246     0.57303   -0.056427  0.00046697
0.073147     0.12248     0.18332    -0.13667     0.57927   -0.038997    0.018226
0.018555     0.15438     0.24087    -0.11661     0.55823   -0.020909    0.026776
-0.02946     0.18463     0.26027   -0.099838     0.52074   -0.011372    0.024145
-0.067937     0.22048     0.25534   -0.087341     0.47996   -0.013017    0.017897
-0.093589     0.26652     0.24975   -0.071555     0.44773   -0.020581    0.016581
-0.10378     0.32736     0.25731   -0.043601     0.43523   -0.027487    0.019541
-0.0903     0.39511     0.27441   0.0021113     0.44477   -0.034064    0.023817
-0.057414     0.45003     0.29513    0.057361      0.4645   -0.040313    0.025461
-0.019923     0.47436     0.31026     0.10965     0.48094   -0.039655    0.024803
0.01132     0.46121     0.31388     0.15043     0.48423   -0.033406    0.023159
0.033354     0.41484     0.30138      0.1843     0.47075   -0.028802    0.017897
0.038616     0.34742     0.27277     0.22081     0.44641   -0.029789    0.010004
0.024474     0.26751     0.23363     0.26356     0.41648   -0.031762   0.0024402
-0.0051238     0.18759     0.19088     0.30697     0.38426   -0.027816  0.00046697
-0.038339     0.11524     0.15273     0.33788     0.34874   -0.016634   0.0096753
-0.065307    0.061307     0.12609     0.34249     0.31552   0.0001381    0.026776
-0.083394    0.023488     0.11064     0.32374     0.29283     0.01691    0.042562
-0.092931  -0.0084125    0.098141     0.28987     0.28527    0.029407    0.054072
-0.098851    -0.04097    0.091563     0.26225     0.28954    0.037629    0.062623
-0.10773   -0.062676    0.094852     0.25271     0.29678    0.042562    0.067227
-0.12089   -0.056756     0.10702     0.25369     0.30007    0.044206     0.06624
-0.1393   -0.028144     0.12544     0.25435     0.29382    0.045522    0.058676
-0.16528    0.013951     0.13991     0.24514      0.2731    0.048153    0.046837
-0.19652    0.062623     0.14287     0.22475      0.2389    0.056046     0.04026
-0.22875     0.11064     0.13399      0.1922      0.1968    0.072818    0.041904
-0.25473     0.14714      0.1182     0.15438     0.14846    0.090248    0.047495
-0.26493     0.16194     0.10143     0.12083    0.083342     0.10044    0.053415
-0.25276     0.14188    0.088932    0.094852   -0.018278    0.097812    0.056703
-0.2281    0.085644    0.081697     0.07512    -0.16035    0.085315     0.06065
-0.19652   0.0044134    0.080382    0.067556     -0.3307    0.070187    0.063281
-0.16002   -0.081421    0.084328     0.07512    -0.50237    0.058348    0.065583
-0.11727    -0.15969     0.09551    0.088603    -0.64378    0.053086    0.065912
-0.062018    -0.23303     0.11393    0.097154    -0.72205    0.058676    0.063938
0.0073732    -0.31459      0.1376     0.09551    -0.71482    0.066569    0.063281
0.089919    -0.42081     0.15405    0.082026    -0.61419    0.070516    0.067227
0.17444    -0.56453     0.15339    0.054401    -0.44449    0.066898    0.082355
0.23659    -0.74804     0.12807    0.013293    -0.24322     0.06065    0.098469
0.25534    -0.95128    0.080053   -0.029789   -0.045903     0.05473     0.10735
0.22212     -1.1305    0.013293   -0.060045     0.12182    0.054072     0.10406
0.14517     -1.2308   -0.056427   -0.067937     0.25698    0.062952    0.087946
0.052428     -1.2045    -0.10346   -0.054454     0.36913     0.07808    0.062294
-0.025842     -1.0443    -0.11694   -0.022883     0.46943     0.09551    0.030394
-0.073528    -0.78322    -0.11628    0.016581     0.55625     0.11261 -0.00019077
-0.091287    -0.48099     -0.1268    0.050455     0.61578     0.12774   -0.018278
-0.086683    -0.20409    -0.16101    0.066569     0.62071     0.13497   -0.025514
-0.069253  -0.0024928    -0.20869    0.054401     0.56086     0.12577   -0.027158
-0.044917      0.1113    -0.24388    0.020528     0.45003     0.10538    -0.02354
-0.016963     0.15767    -0.25309    -0.01203     0.32703    0.079724   -0.013345
0.010662     0.17806    -0.24355   -0.027158     0.23232    0.059992  -0.0034794
0.032696     0.20272    -0.24322   -0.015976     0.18957    0.047495   0.0037556
0.04881     0.25008    -0.28631      0.0054      0.1968    0.039602   0.0090175
0.059334     0.32473    -0.38233    0.018226     0.23594    0.029078    0.016253
0.069529     0.42207    -0.51487    0.020528     0.28724    0.018555    0.027434
0.086301     0.54145    -0.65069     0.01987     0.33591    0.013293    0.039931
0.10242     0.68155    -0.74475    0.026119     0.37932    0.014608    0.045851
0.10209     0.82625    -0.75955    0.044864     0.41879    0.020528    0.043877
0.079724     0.93313    -0.68292    0.071502     0.43194    0.027105    0.038287
0.04322     0.96767     -0.5346     0.09255     0.37768    0.031709    0.032696
0.0047422     0.93544    -0.35011     0.10866     0.22936    0.034669    0.035327
-0.028144     0.85914    -0.14917     0.13563  -0.0077547    0.037629    0.050126
-0.052481     0.75818    0.079724     0.18957    -0.28959    0.042233    0.073476
-0.073528     0.64636      0.3494     0.26882     -0.5619    0.049139    0.098469
-0.09918     0.51449     0.64636     0.35729     -0.7727    0.057032      0.1136
-0.1393     0.31125     0.92426     0.43424    -0.90195    0.069858     0.11886
-0.19126   -0.011701      1.1268     0.48292    -0.96542    0.085972     0.11754
-0.24125    -0.44811        1.21     0.49541     -1.0003     0.10011     0.11393
-0.27249     -0.9345      1.1696     0.47108     -1.0397     0.10702     0.10965
-0.28203     -1.3923      1.0295     0.41747     -1.0973     0.10866     0.10439
-0.27907     -1.7682     0.83809     0.34709     -1.1637     0.10242    0.096167
-0.27447     -2.0559     0.64702     0.27408     -1.2098    0.087946    0.083999
-0.2646     -2.2625     0.48719     0.20798     -1.2022    0.072818    0.067556
-0.23928     -2.3713     0.36485     0.15339     -1.1285    0.065912    0.049797
-0.18271     -2.3473     0.26619      0.1205    -0.98844    0.064925    0.036971
-0.089972     -2.1628     0.17575     0.10899    -0.79243    0.067227    0.036314
0.030394     -1.8274    0.076106     0.11261    -0.56518    0.070845    0.042233
0.15471     -1.3929   -0.062676     0.12675    -0.33103    0.077751    0.047824
0.26093     -0.9345    -0.27973     0.14944    -0.09918    0.084657    0.053743
0.33558    -0.52572    -0.56814     0.18299     0.12511    0.090905    0.061307
0.37834    -0.20836    -0.85952      0.2162     0.34019    0.099456      0.0692
0.40432     0.01987     -1.0552     0.23594      0.5408     0.11393    0.079066
0.42569     0.19088     -1.0858     0.23298     0.71871     0.12642    0.093536
0.44608     0.33953    -0.94568     0.21324     0.85881     0.12905     0.10702
0.45825     0.48259    -0.68555     0.18496      0.9384     0.11721     0.11195
0.45628     0.61709    -0.39615     0.14681      0.9407    0.093865     0.10209
0.43885     0.72661    -0.15081    0.097812     0.86473    0.068214    0.082026
0.40662     0.79961    0.010991    0.034011     0.72069    0.046508    0.058676
0.36025     0.84631     0.09255   -0.044588     0.53027    0.029078    0.035985
0.30368     0.87723     0.12083     -0.1324     0.32637     0.01691    0.014608
0.23791     0.90025     0.12609    -0.21593     0.15175   0.0086887  -0.0034794
0.16786     0.91472     0.13136    -0.28006    0.035985   0.0050711  -0.0097279
0.10143     0.89236     0.14287     -0.3159   -0.015319   0.0070443   -0.010715
0.049468     0.80159     0.14418    -0.32084   -0.017292     0.01132  -0.0047949
0.026119       0.624     0.12379     -0.2988  0.00079584    0.013622   0.0083598
0.032696     0.35992    0.084328    -0.25737    0.013951    0.010991    0.027105
0.053086    0.021186    0.034998    -0.20672   0.0040845   0.0083598    0.047166
0.067885    -0.36129  -0.0067681    -0.16594   -0.023211   0.0093464    0.062294
0.069529    -0.73587   -0.028144    -0.14719   -0.056427   0.0080309     0.07512
0.059992     -1.0391     -0.0265     -0.1541    -0.08175    0.002769    0.084986
0.047495     -1.2081  -0.0074258    -0.17877   -0.087669  -0.0038083    0.087946
0.038287     -1.2065    0.017897    -0.20409   -0.063662  -0.0057815    0.078737
0.034998     -1.0338     0.04026    -0.21264   0.0024402  -0.0018351    0.061636
0.041575    -0.71975    0.054401    -0.19554     0.11064   0.0070443    0.049797
0.061636    -0.32117     0.06065     -0.1587     0.23626    0.013622    0.053415
0.092221    0.084328    0.061965    -0.11891     0.34216    0.016253    0.068543
0.12905      0.4132    0.062294   -0.077475     0.39642    0.014608    0.086959
0.16391     0.60558    0.063938   -0.036366     0.38491   0.0086887     0.10011
0.1843     0.65294    0.067227  -0.0034794     0.31223   0.0034268     0.10899
0.18726      0.5921    0.079066    0.010991     0.19746   0.0047422     0.11689
0.18069     0.49311    0.097483   0.0077021    0.070187    0.013951     0.12609
0.17871     0.42142     0.11754  -0.0087413   -0.044259    0.027763     0.13169
0.18693     0.40695      0.1353   -0.030118    -0.13174    0.034669     0.13037
0.1922     0.44477     0.14122   -0.049192     -0.1883    0.032367     0.12281
0.17674      0.5135     0.12577    -0.06728    -0.21626    0.024145     0.11195
0.12938     0.58881    0.091563   -0.078132    -0.21264    0.019212     0.10274
0.054072     0.64373    0.055717   -0.075173    -0.16594    0.021843    0.097483
-0.039655     0.66577    0.043549   -0.055112   -0.064649    0.030723    0.093208
-0.13667     0.65327    0.064925   -0.026171    0.082355    0.043549    0.086301
-0.21724     0.62729     0.11787   0.0047422     0.23659    0.056046    0.079395
-0.27545     0.62236     0.18957    0.040589     0.35334    0.064267     0.07512
-0.3136     0.67234      0.2606    0.098141      0.3984    0.069529    0.072489
-0.33761     0.80257     0.30829     0.18792      0.3665    0.073147    0.067227
-0.35471      1.0078     0.31421     0.30072     0.28461     0.07808    0.057032
-0.36688      1.2462     0.26948     0.41221     0.19253    0.085972    0.042891
-0.37773      1.4639     0.17707     0.50166     0.12873    0.093536    0.034998
-0.38793      1.6201    0.059334     0.55494     0.11853    0.098469    0.032038
-0.39319       1.705   -0.050179     0.57007     0.17312     0.10274    0.028421
-0.38529      1.7254    -0.12911     0.55691     0.29875     0.11064    0.024803
-0.34978      1.6948     -0.1735       0.526     0.51284     0.12313    0.027763
-0.26164      1.6086    -0.19784     0.48949     0.81606     0.13991    0.041247
-0.10247      1.4189     -0.2179     0.45266      1.1578     0.15832    0.065583
0.11721      1.0709    -0.23665     0.40464      1.4393     0.17542    0.094523
0.36847     0.56349    -0.24618     0.32802       1.555     0.18957      0.1205
0.60756   -0.026171    -0.21691     0.21883      1.4633     0.19088     0.13201
0.79468     -0.5665    -0.12154    0.091563      1.1913     0.17378     0.12083
0.8986    -0.94568    0.035656   -0.026829     0.82691     0.14221     0.09255
0.91044     -1.1252     0.22015    -0.11069     0.47239     0.10735    0.059005
0.8427     -1.1374     0.38853    -0.15114     0.20404    0.075778    0.033354
0.72529     -1.0269     0.50265    -0.14884    0.038287    0.054072    0.019212
0.58848    -0.81545     0.53422    -0.11365   -0.055769    0.044206    0.013951
0.45463    -0.52769     0.47108   -0.079448    -0.12878    0.042233    0.012964
0.33854    -0.20179     0.33164   -0.068924    -0.21461      0.0373   0.0063866
0.24679    0.086959     0.16786    -0.08175    -0.32676    0.023488   -0.010057
0.17345     0.25435    0.044206    -0.10115    -0.45173   0.0030979   -0.033735
0.11491     0.24613  0.00046697    -0.11201     -0.5619   -0.015319   -0.054454
0.063938    0.064596    0.035985    -0.11003    -0.63819   -0.023869   -0.063991
0.0050711    -0.24224      0.1159    -0.09918     -0.6747   -0.021567   -0.060045
-0.065635    -0.61715      0.1991   -0.086354    -0.67996   -0.011701   -0.051165
-0.13733     -1.0088      0.2606   -0.077146     -0.6645   0.0030979   -0.047877
-0.19225     -1.3709     0.28198   -0.073857    -0.63195    0.018555   -0.055112
-0.22382     -1.6567     0.25205   -0.073857    -0.58097    0.028421   -0.067937
-0.23106      -1.807     0.18397   -0.073857    -0.51717    0.028092   -0.079777
-0.22185     -1.7613     0.11064   -0.071555    -0.45863    0.024474   -0.083394
-0.20179     -1.4906    0.058019   -0.064649    -0.41456    0.020857   -0.079119
-0.17712     -1.0256    0.035656   -0.055112    -0.38858    0.020199   -0.065635
-0.15476    -0.45699    0.031052   -0.047548    -0.36951    0.021514   -0.043601
-0.13568    0.097812    0.021514   -0.045574     -0.3432    0.023817   -0.018607
-0.11825     0.54047  -0.0077547   -0.053467    -0.29584    0.029736   0.0060577
-0.099838     0.82855   -0.054454   -0.056756    -0.22579    0.036314    0.028421
-0.072213     0.98016   -0.075173   -0.041299     -0.1564    0.042233    0.045851
-0.032091      1.0542   0.0001381   -0.020252    -0.12056    0.047495    0.058019
0.021514      1.1048     0.21686    -0.01203    -0.12845    0.053415    0.064267
0.090905       1.143     0.52698   -0.033406    -0.15969    0.058019    0.066569
0.17674      1.1482     0.79863   -0.080106    -0.18469    0.063281    0.066569
0.26389      1.0992     0.90946    -0.14127    -0.18567    0.068214    0.065583
0.32933      1.0002     0.81836    -0.19948     -0.1564    0.070845    0.061636
0.35301     0.86572     0.58421    -0.24421    -0.10444    0.067885     0.05177
0.32933     0.71345     0.32309    -0.26723   -0.043601    0.058019    0.037958
0.26751     0.56053      0.1376    -0.27052    0.010004    0.042233    0.018555
0.18792     0.39938     0.06624    -0.26493    0.049139    0.024474  -0.0015062
0.11162      0.2241    0.091563    -0.25375      0.0692    0.014608   -0.014661
0.053415      0.0373     0.16359    -0.23632    0.073147    0.017239   -0.016634
0.019541    -0.15015     0.21851    -0.19916    0.064925    0.029736    -0.01203
0.0047422    -0.33498      0.1991     -0.1347    0.046837    0.040918  -0.0034794
-0.00051963    -0.52835    0.084986   -0.052481    0.019212     0.04618   0.0077021
-0.0074258     -0.7533   -0.097536    0.028421   -0.014661    0.043877    0.020199
-0.025185     -1.0151    -0.29716    0.087288   -0.051823    0.036971    0.028092
-0.04985     -1.2897    -0.44022     0.12412   -0.081421    0.027105    0.026119
-0.071555     -1.5284    -0.45666     0.15668   -0.095233    0.020857    0.021186
-0.081421     -1.6649    -0.32741     0.21226   -0.095233    0.022501     0.02283
-0.076159     -1.6501    -0.10905      0.2925   -0.087998    0.031381    0.036642
-0.057414     -1.4574     0.10077     0.37669   -0.083723    0.039602     0.05177
-0.028473     -1.1134     0.20864     0.42964   -0.086025    0.047166    0.058676
0.0014536    -0.68358     0.17575     0.43457   -0.092931    0.056703    0.060321
0.027763    -0.25046    0.028092     0.39511    -0.10247    0.069858    0.061965
0.049468     0.11228    -0.16791     0.33591    -0.11694    0.081368     0.06361
0.0692     0.36156    -0.33596     0.27737    -0.14127    0.088275    0.062952
0.083013     0.49443    -0.42772     0.22739    -0.17613    0.088932    0.057032
0.085315     0.53784    -0.45567      0.1843    -0.21823    0.081368    0.052757
0.068543     0.53356    -0.45962     0.14188    -0.25441     0.06624    0.050455
0.038287     0.51514    -0.47573    0.098469    -0.26855    0.049139    0.050784
0.0070443     0.50758    -0.50402    0.059005    -0.23566    0.032038    0.050126
-0.016963     0.51547    -0.51487    0.036971    -0.13207    0.017897    0.051113
-0.028802     0.53718    -0.47606    0.035327    0.042233   0.0077021    0.058019
-0.030118     0.55987    -0.38135     0.05473     0.25896    0.002769    0.067227
-0.027158     0.57533    -0.25145    0.091563     0.46976  -0.0028217    0.071831
-0.032091     0.57598    -0.11858      0.1307     0.62827   -0.012688    0.073147
-0.045903     0.56053    -0.01499     0.16128     0.70589   -0.022554    0.069858
-0.063991     0.53422    0.043877     0.17674     0.69734   -0.024856     0.06624
-0.079448     0.50561    0.065254     0.18233     0.62367   -0.021896     0.06361
-0.086025     0.48522    0.066569       0.182      0.5158   -0.019594     0.05769
-0.079777     0.47897    0.062952     0.17181     0.40201   -0.020252    0.052099
-0.061031     0.47963    0.054401     0.15273     0.30467   -0.020909    0.049797
-0.034722       0.477      0.0373     0.12905     0.23791   -0.021567    0.052099
-0.011701     0.45957   0.0063866      0.1034     0.20502   -0.022554    0.059005
0.0014536     0.43194   -0.040641    0.080382     0.20272   -0.019265     0.07216
-0.002164     0.40464   -0.089972    0.069858      0.2264   -0.010715    0.087288
-0.020581      0.3859    -0.11661    0.068871     0.26652   0.0017824    0.097812
-0.046561     0.37176    -0.10806    0.075449     0.31223    0.014608    0.099785
-0.066622     0.36025   -0.081092    0.081039     0.35499    0.023159    0.095181
-0.080106     0.35531   -0.055769    0.085315     0.38689    0.027763    0.083342
-0.093589     0.35531   -0.037682    0.099127     0.39642    0.031052    0.073804
-0.11233     0.35466   -0.022554     0.12248     0.37965      0.0373     0.07216
-0.13568     0.35137  -0.0067681     0.14879     0.33986    0.048153    0.073804
-0.15575     0.35531    0.012964      0.1751     0.27803    0.059334    0.080053
-0.16035     0.37735    0.039602     0.19713     0.19088    0.065254    0.089261
-0.14851     0.41813    0.069858     0.20897    0.079066    0.062294    0.099127
-0.12845     0.47502    0.089261     0.20338   -0.050179    0.054401     0.10406
-0.10937     0.53915    0.092879     0.18069    -0.17942     0.04618     0.10406
-0.10411     0.59243    0.092221     0.14583    -0.29124    0.041575    0.099127
-0.11332     0.62203      0.1034     0.10998    -0.36984    0.041575    0.089919
-0.12582     0.63354     0.14484    0.091563    -0.40766    0.044864    0.082355
-0.13075     0.63419     0.22081    0.097812    -0.40733    0.049797    0.078737
-0.1176     0.62531      0.3198     0.12675    -0.38299     0.05473    0.076764
-0.08175     0.60164     0.42306     0.16819    -0.35931    0.059992    0.074133
-0.031762     0.54343     0.50265     0.21061    -0.36129    0.061965    0.069858
0.011977     0.41879     0.52402     0.23725    -0.41292    0.059663    0.067556
0.033354     0.19647     0.46285     0.23462    -0.52177    0.056046    0.065254
0.036314    -0.11891      0.3198     0.19812    -0.66582    0.055717    0.061965
0.042891    -0.48034     0.13432     0.13234    -0.80723    0.053743    0.059005
0.073147    -0.83091   -0.033735     0.05473    -0.91247     0.04618    0.057361
0.13169     -1.1279    -0.14719   -0.013017    -0.96147    0.038944    0.055388
0.19877     -1.3462    -0.21922   -0.057085      -0.947    0.040589    0.053415
0.24514     -1.4702    -0.28006   -0.076159    -0.87991    0.052757    0.052757
0.24942     -1.4913    -0.35142   -0.079777    -0.79408    0.068214    0.059992
0.20864     -1.3874    -0.42279   -0.079119    -0.72765    0.079724    0.076106
0.14517     -1.1489    -0.46093   -0.077803    -0.69575    0.087617    0.090248
0.090248    -0.79769     -0.4435   -0.079119    -0.65102     0.08959    0.092221
0.068871    -0.39154    -0.37115   -0.082736    -0.49579    0.084657    0.077751
0.086959  -0.0057815    -0.26624   -0.085367    -0.16166    0.077093    0.051441
0.133     0.30204    -0.15377   -0.087998     0.31223    0.073147    0.028421
0.19187     0.50561   -0.047877   -0.087012     0.79337    0.075778    0.021843
0.25369     0.61084    0.059334   -0.065964      1.1492    0.082684     0.03434
0.31322      0.6286     0.18069   -0.020581      1.3136    0.088603    0.057361
0.37538     0.58158     0.31585    0.035656       1.288    0.091234    0.082355
0.45036     0.49739     0.44345    0.083999      1.1272    0.090248      0.1011
0.5329     0.40366     0.53553     0.10669     0.90189    0.082684     0.10866
0.60098     0.32539     0.56809    0.097483     0.66248    0.068543     0.10472
0.63288     0.27935     0.53586    0.061307     0.44016    0.050784    0.094852
0.61183     0.27014     0.44904   0.0090175       0.256     0.03434    0.083999
0.53553      0.2777     0.33164   -0.042615     0.12445    0.020199    0.072818
0.41484     0.27902     0.21028   -0.079448    0.054072   0.0077021    0.059663
0.2731     0.25797     0.10932   -0.091287    0.040589  -0.0057815    0.047166
0.13958     0.22081    0.039273   -0.078461    0.077751   -0.016963    0.036314
0.038616     0.17345   -0.002164   -0.050507     0.14846    -0.02354    0.030723
-0.025842      0.1205    -0.01795   -0.020909     0.23067   -0.023211    0.036314
-0.063004    0.057361  -0.0084125  0.00079584     0.30533   -0.011372     0.04881
-0.087341   -0.013017    0.020199    0.019212     0.36452    0.010662    0.056703
-0.10806   -0.081421    0.059005    0.037958     0.40793    0.034669    0.053415
-0.13371    -0.13733    0.093208    0.058019     0.44477    0.051441    0.044206
-0.16495    -0.17712     0.11162    0.080382     0.47765    0.057032    0.037958
-0.19225    -0.20475     0.10998    0.097812     0.50594    0.058348    0.034669
-0.20606    -0.21856    0.093208     0.11097     0.53751    0.063281    0.028092
-0.20146    -0.21823    0.071173     0.12807     0.57894    0.075449    0.011977
-0.18403    -0.20573    0.049139     0.15175     0.64011    0.089919   -0.010057
-0.1564    -0.17975    0.018884     0.18595     0.72726     0.10274   -0.027158
-0.11398    -0.13437   -0.023211     0.22311     0.82527     0.10768   -0.027487
-0.0584   -0.066293   -0.073857      0.2606     0.89893    0.098798   -0.010057
0.002769    0.018884    -0.11825     0.29053     0.91702    0.084328    0.018226
0.064925     0.10932    -0.13437     0.30796     0.86933    0.072818    0.049139
0.12642     0.19417     -0.1051     0.30993     0.77166    0.064596    0.073804
0.17477     0.25961   -0.032091     0.29645     0.64866    0.059334    0.085644
0.20009     0.29382    0.068871     0.26817     0.52337     0.05769    0.083013
0.20371     0.28987     0.17477     0.22837      0.4053    0.056374    0.059992
0.18891     0.25271     0.26553     0.18266     0.29119    0.051113    0.027105
0.16687     0.19746     0.33065     0.14188     0.17378    0.040918   0.0034268
0.15175     0.14287      0.3665      0.1136    0.051441    0.029407  -0.0024928
0.15372     0.10143     0.37505     0.09551   -0.060373    0.020528   0.0050711
0.17937    0.070516     0.36189    0.083999    -0.13338     0.01987    0.013622
0.22706    0.045851      0.3346    0.075449    -0.14062    0.024474    0.010991
0.27869    0.021514       0.305    0.067556   -0.082408     0.02875    0.002769
0.3073 -0.00019077     0.27968    0.056374  -0.0008485    0.029736  -0.0041372
0.29711   -0.012359     0.25698    0.043877    0.041575    0.032696   -0.004466
0.24646   -0.014003     0.23791    0.026776   0.0037556    0.045522   -0.007097
0.16457   -0.011701     0.22048   0.0070443    -0.12319    0.068214   -0.015319
0.062952   -0.011372      0.2116   -0.011043    -0.30374    0.093208   -0.020581
-0.040313  -0.0093991     0.21061   -0.025842    -0.48297     0.11491   -0.011043
-0.13108  -0.0011774     0.21851    -0.04097    -0.60925     0.12281    0.010004
-0.19981    0.027434     0.23396   -0.064978    -0.63918     0.11524    0.033683
-0.23994     0.10505     0.25106   -0.099838    -0.56025      0.1011    0.054401
-0.24717     0.24482     0.26652    -0.13864    -0.39911    0.091563    0.065254
-0.22448     0.42832     0.27277    -0.17219    -0.20672    0.091234    0.067885
-0.18403     0.62137     0.26652    -0.19751   -0.035708    0.096825    0.064596
-0.14456     0.79304     0.24547    -0.21395     0.07808     0.10373    0.057361
-0.11924     0.92426      0.2139    -0.21395     0.12346      0.1057    0.049797
-0.11365      1.0025     0.18825    -0.20014     0.10209     0.10307    0.049468
-0.11957      1.0209     0.18726    -0.17449    0.035656    0.095181     0.05769
-0.12615     0.97523      0.2162    -0.14621    -0.05281    0.083013    0.066898
-0.12615     0.86769     0.26126    -0.12154    -0.15279    0.073147     0.07216
-0.11858     0.69931     0.29316    -0.10017    -0.27414    0.070187    0.072818
-0.11332     0.46943     0.29217   -0.086354    -0.42673    0.076435    0.079066
-0.11628     0.17937     0.25435   -0.077803    -0.59807    0.087288    0.089261
-0.12845    -0.14588     0.19351   -0.069911     -0.7408    0.094194    0.098141
-0.14456    -0.43956      0.1205    -0.06728        -0.8    0.090577    0.095839
-0.15311    -0.62964    0.030723   -0.068595    -0.74836    0.074462    0.080053
-0.15081    -0.68325   -0.081421   -0.071884    -0.60629    0.049468    0.056703
-0.14193    -0.62339    -0.21527   -0.075501    -0.41785    0.021186    0.034669
-0.13371    -0.51059    -0.35504   -0.075173    -0.22974  -0.0015062    0.019541
-0.12812     -0.4047    -0.47409   -0.072542   -0.073857    -0.01499    0.018226
-0.12154    -0.31294    -0.54644   -0.073857    0.037629    -0.01795     0.02579
-0.11201    -0.21198    -0.54874   -0.075501     0.10373  -0.0077547    0.035985
-0.095233   -0.080763    -0.47113    -0.06728     0.13728    0.015266    0.036971
-0.067937     0.05769    -0.31985   -0.030118     0.15142    0.049468    0.028421
-0.02946     0.12708    -0.11529    0.044206     0.16095    0.094523    0.013951
0.011648    0.044206    0.089261     0.13892     0.17181     0.14484  -0.0018351
0.044535    -0.23763     0.23626     0.22541     0.17806     0.19417   -0.016634
0.047495    -0.70989     0.28921     0.27935     0.17082     0.23396    -0.02946
0.0057288     -1.3127     0.24679     0.28757     0.14616     0.25205   -0.041299
-0.074186     -1.9645     0.14681     0.25731     0.11097     0.23857   -0.052152
-0.16495     -2.5732    0.035656     0.20272    0.073804     0.19877   -0.056756
-0.2373     -3.0264   -0.058071      0.1455    0.049468     0.14418   -0.048534
-0.27249     -3.2139    -0.12154     0.10209    0.041575    0.088275   -0.028473
-0.26723     -3.0735     -0.1518    0.080711    0.047495    0.040589  -0.0031506
-0.22119     -2.6357    -0.15311    0.076435    0.063938   0.0086887    0.020199
-0.12845      -2.006    -0.13272    0.080711     0.08959  -0.0051238    0.043877
0.020199     -1.3124   -0.096878    0.085644     0.11557   -0.002164    0.067227
0.21028    -0.67733    -0.04689     0.08663     0.13333   0.0063866    0.084657
0.40497    -0.17778    0.018555    0.079066      0.1432    0.011977    0.092879
0.55461     0.16424    0.093865    0.068543     0.15109    0.012306     0.08959
0.62531     0.36683     0.17016    0.059334      0.1672   0.0090175    0.081368
0.61479     0.48324     0.23922    0.053415     0.20338   0.0077021    0.077093
0.53882     0.56546     0.29217    0.050784     0.27014    0.010333    0.082026
0.43095     0.64866     0.31717    0.050784     0.37669    0.017239    0.089261
0.32341     0.74831     0.30862    0.059005     0.50791    0.026447    0.088603
0.24284      0.8667     0.27343    0.073476     0.62762      0.0373    0.082684
0.20108     0.99266      0.2264    0.089919     0.70424    0.048153    0.076764
0.18759      1.1111     0.17477     0.10242     0.71937     0.05473    0.069858
0.18891      1.2068     0.10998     0.10801     0.67991     0.05473    0.060321
0.18891      1.2581    0.021186     0.10373     0.59111    0.049468    0.055388
0.1751      1.2446    -0.09326    0.097812     0.46417    0.039931    0.059992
0.13892      1.1571    -0.22612    0.099127     0.31815    0.030394    0.070516
0.085644      1.0098    -0.36721     0.11458     0.17641     0.01987    0.079066
0.026447     0.83086    -0.51158     0.14714    0.066569     0.01132    0.081039
-0.026171     0.64274    -0.65793     0.18957   0.0070443   0.0047422    0.073476
-0.053467     0.46022    -0.80065     0.23035  -0.0011774   0.0011247    0.061965
-0.053796     0.29349    -0.92201     0.25929    0.026119  -0.0041372    0.049468
-0.040313      0.1603    -0.97791     0.27507    0.059663   -0.012688    0.046508
-0.025514    0.083342    -0.91247     0.27902    0.074133   -0.025514    0.053743
-0.019923     0.07512    -0.69706     0.27145    0.059005   -0.042286    0.065583
-0.013017     0.12938    -0.35603     0.25008   0.0047422   -0.059058    0.075778
0.0060577     0.22771    0.043549     0.21686    -0.08175   -0.068266    0.081697
0.049139     0.35301     0.41418      0.1797    -0.18337   -0.069253     0.08367
0.11886     0.48653     0.68517     0.15109    -0.27348    -0.06728    0.079395
0.20601     0.61282     0.82198     0.13859    -0.33136   -0.063333    0.067556
0.28855     0.71312     0.83217     0.14056    -0.35471   -0.059716    0.055717
0.34742     0.77429      0.7516     0.14583    -0.35339   -0.057085    0.054401
0.37143     0.79238     0.61742     0.13958    -0.33695   -0.057414    0.058348
0.35827     0.76804     0.46253     0.11787    -0.31393   -0.061689    0.059992
0.31454     0.72134     0.30204    0.097483    -0.28367    -0.06728    0.054072
0.25567     0.67136      0.1432    0.086301    -0.24191   -0.072542    0.041575
0.20272     0.63683   -0.010057     0.09551    -0.18863   -0.074186    0.033354
0.16753     0.61907    -0.14226     0.12609    -0.12615   -0.068924    0.032367
0.14879     0.60821    -0.23632     0.17181   -0.048205   -0.056756    0.040918
0.12708     0.59473     -0.2817     0.21818    0.049139   -0.037682    0.052757
0.093536     0.57237     -0.2794     0.25764     0.14879   -0.019265    0.060321
0.048153      0.5408    -0.24224     0.27902     0.22574  -0.0057815    0.060321
0.0021113     0.49443    -0.19324     0.27047     0.25567  0.00079584    0.055388
-0.036695     0.42438    -0.15213     0.22771     0.22903   0.0030979    0.050784
-0.071555      0.3438     -0.1268     0.15799     0.15602   0.0050711    0.047495
-0.10444     0.27441    -0.10674     0.07808    0.057361   0.0057288    0.043877
-0.13437     0.23495   -0.077475    0.002769   -0.041957   0.0034268    0.036971
-0.16035     0.23199   -0.033078   -0.057414    -0.11891   0.0001381    0.029078
-0.1906     0.25567    0.030394   -0.092603    -0.16462  -0.0015062    0.024145
-0.22481     0.28592     0.11393    -0.10576    -0.18337  0.00079584    0.027434
-0.25473     0.30237     0.20732    -0.10346      -0.186    0.010004    0.040589
-0.27184     0.30302     0.29645   -0.095891    -0.17449     0.02579    0.060979
-0.27545     0.29546     0.36979    -0.09326    -0.14292    0.046837    0.082355
-0.27447     0.28362     0.41813    -0.09918   -0.092274    0.067556    0.096496
-0.27907     0.26849     0.43753    -0.11168   -0.027158    0.085315     0.10011
-0.28992     0.24778     0.42734    -0.12352    0.037629     0.10077    0.097812
-0.28828     0.20996     0.39346    -0.13009    0.091234     0.11261    0.090905
-0.25177     0.15076      0.3415    -0.13108     0.12379     0.12017    0.083013
-0.1689    0.087946     0.27573    -0.13009       0.133     0.12412     0.07512
-0.042286    0.055388     0.20667    -0.13042     0.14122     0.12478    0.073804
0.10077    0.088603     0.14221    -0.12976      0.2014     0.11985    0.075449
0.23396     0.19285     0.08959    -0.12582      0.3563     0.11031    0.073476
0.33624     0.34775    0.060979    -0.11529     0.58059     0.10636    0.066898
0.40826     0.52238    0.056703    -0.09918     0.76574     0.11393    0.059334
0.46121     0.67793    0.071502   -0.082736     0.79271     0.12971    0.054401
0.51284     0.78482     0.10143   -0.080106     0.62071     0.14648    0.058676
0.57237     0.82264      0.1432    -0.10017     0.30237     0.15832    0.071831
0.63452     0.79896      0.1922      -0.137   -0.044588     0.16128    0.089261
0.68418     0.74042     0.24514    -0.17482    -0.30308     0.15503     0.10472
0.7026     0.66248     0.29415    -0.19356    -0.40667     0.14648     0.11721
0.67333     0.55527     0.32572    -0.17844    -0.35701     0.14714     0.12905
0.59933     0.38787     0.32901    -0.13371    -0.21626     0.15536     0.14451
0.49377     0.13563     0.29875   -0.066951   -0.063333      0.1626     0.16063
0.37307    -0.20047     0.23298   0.0040845    0.037958     0.16786     0.17049
0.25172    -0.58755     0.14385    0.061636    0.059334     0.17148     0.16885
0.14287    -0.96443    0.050784    0.099127    0.010333     0.17148     0.15767
0.055059      -1.268   -0.024856     0.12248   -0.081421     0.16523     0.13103
-0.0064392     -1.4551   -0.073199     0.13596    -0.17942     0.15438    0.090905
-0.042944     -1.5189   -0.094905     0.13826    -0.25901      0.1376    0.055717
-0.062676     -1.4679    -0.10247     0.12313    -0.30801     0.11754    0.034998
-0.075501     -1.3163    -0.11168     0.08367    -0.32215     0.09551    0.032696
-0.096549     -1.0887     -0.1324    0.023159    -0.30275    0.075778    0.042233
-0.12713    -0.82269    -0.17054   -0.051165    -0.25638    0.062623    0.053743
-0.15805    -0.55992    -0.21856    -0.12878    -0.19389    0.057032    0.062294
-0.17482      -0.333    -0.26296    -0.20409    -0.12023    0.058348    0.061965
-0.16989    -0.15575    -0.29354    -0.27348   -0.042286     0.06361    0.053743
-0.15377   -0.032091     -0.3011    -0.33728    0.036314    0.070187    0.038616
-0.14029    0.043877    -0.28631    -0.39648     0.11886    0.073804    0.018226
-0.13799    0.088932    -0.25375    -0.44548     0.20634     0.07512   0.0014536
-0.14818     0.11162    -0.20902     -0.4731     0.28987    0.077422   0.0011247
-0.16693     0.12116    -0.15542    -0.46061     0.34578    0.082355    0.012635
-0.19324     0.11787    -0.10378    -0.39187     0.34676    0.088275    0.022501
-0.22086      0.1057   -0.064649    -0.26526     0.27606    0.090577    0.020528
-0.23928    0.084328   -0.046232    -0.10346     0.15109    0.083013    0.010004
-0.24684    0.058348   -0.045246    0.060321    0.010004    0.066569  -0.0034794
-0.24618    0.031052   -0.051823     0.18726    -0.11628     0.04618   -0.016305
-0.24684   0.0090175   -0.061031     0.26159    -0.20573    0.032696   -0.026171
-0.25473  -0.0080836   -0.070568     0.28691    -0.25506    0.027763   -0.030775
-0.26361   -0.017621   -0.071884     0.27935    -0.27249    0.030394   -0.028802
-0.26559   -0.011701   -0.060702       0.256    -0.27085    0.033683    -0.02354
-0.25967   0.0086887   -0.038997     0.23002     -0.2623    0.033354   -0.016305
-0.25473    0.030394   -0.021896     0.21028    -0.25605    0.032038   -0.007097
-0.25506    0.043877   -0.019923     0.20239    -0.25046    0.035985   0.0047422
-0.25901    0.043549   -0.028802     0.22114    -0.23599    0.043549    0.015266
-0.25704    0.034998   -0.045246     0.27573    -0.20771     0.04618    0.022501
-0.24158    0.027763   -0.091945     0.36979    -0.16265    0.045522    0.023488
-0.20968    0.029407    -0.19422     0.48883    -0.10378    0.043877    0.027105
-0.16693     0.04322    -0.33794     0.60887   -0.037682    0.047495    0.035656
-0.11957    0.071173    -0.45173     0.70424    0.031052     0.05769    0.045851
-0.070568     0.10735    -0.46061     0.75259    0.098798    0.071173    0.054072
-0.020252     0.13991    -0.34353     0.74272      0.1649    0.082355    0.050126
0.033354     0.15536    -0.15772     0.68517     0.23988    0.088275    0.034669
0.088275     0.14944   0.0017824     0.60032     0.33788    0.090577    0.016253
0.14385     0.12445    0.070516      0.5089     0.45595    0.095181 -0.00019077
0.1922    0.093865    0.059663     0.42503     0.55757     0.10274   -0.013017
0.22804     0.07512    0.040918     0.35531     0.59276     0.10768   -0.018936
0.256    0.074462    0.083999     0.30171      0.5306      0.1034   -0.018936
0.27968    0.086959     0.20469     0.26455     0.38754    0.089919   -0.011372
0.29579     0.10406     0.34611     0.24218      0.2093    0.071502  -0.0011774
0.2948     0.11524      0.4178     0.22574    0.036971    0.055059   0.0090175
0.27737     0.10538     0.36222     0.20667    -0.10214    0.045193    0.017239
0.25468    0.069858     0.18989     0.17904    -0.20146    0.043877    0.018884
0.23626    0.017568   -0.032091     0.14155     -0.2692    0.046508    0.014937
0.22212   -0.031762    -0.21165    0.095181    -0.31459    0.047824   0.0093464
0.20305   -0.063004    -0.28861    0.044864    -0.34879    0.034669   0.0060577
0.17016    -0.07024    -0.24553  -0.0031506    -0.36918    0.011648   0.0040845
0.12511   -0.060045     -0.1199   -0.039326    -0.36885  -0.0093991  0.00046697
0.079395   -0.039984    0.032367   -0.062018    -0.34846   -0.018936  -0.0051238
0.048153   -0.013674     0.16391   -0.074186      -0.309   -0.013345   -0.010386
0.036642    0.012964     0.25665   -0.077146    -0.25276   0.0037556   -0.010715
0.041247    0.029407     0.31026   -0.072213    -0.17745    0.022501   -0.004466
0.04881    0.033025     0.32539   -0.058729   -0.079448    0.028421   0.0047422
0.050784    0.026776     0.31585   -0.031762    0.055059    0.021843    0.013293
0.049139    0.016581     0.30335      0.0054     0.22311    0.010333    0.017568
0.050126    0.011977     0.30335     0.04881       0.403   0.0030979    0.018555
0.056374    0.018555      0.3198    0.087946     0.55066   0.0024402    0.015924
0.06361    0.029736     0.34282     0.10834     0.62334   0.0070443   0.0093464
0.064267    0.038616     0.35992     0.10472     0.59999    0.013622   0.0030979
0.054072    0.043877     0.36419    0.086959     0.49377    0.017568  -0.0015062
0.035656    0.042891     0.35531    0.062952     0.33723    0.018555  -0.0051238
0.014279    0.029407     0.33493    0.038287     0.16983    0.016581  -0.0067681
-0.0077547    0.013293     0.30862    0.015924    0.022501    0.013622  -0.0074258
-0.025185   0.0047422     0.28527   -0.004466    -0.08471    0.010991  -0.0024928
-0.032091   0.0083598     0.26817   -0.022883    -0.14358     0.01132    0.011648
-0.029131     0.02579     0.25665   -0.037682    -0.16035    0.010662    0.029407
-0.017292    0.061307     0.25435   -0.044588     -0.1416   0.0086887     0.04618
-0.002164     0.11393     0.26257   -0.042286     -0.0903  0.00079584    0.060979
0.01691     0.17575     0.27441   -0.038011   -0.014003   -0.011372    0.073147
0.034669     0.23495     0.28691   -0.036366    0.079066   -0.024198    0.077093
0.046837     0.27935      0.2948   -0.037024     0.17214   -0.031762      0.0692
0.053743     0.29842     0.29447   -0.033406     0.24087   -0.031433    0.055059
0.056374     0.29053     0.28658    -0.01795     0.27376   -0.027487    0.044535
0.058348     0.26159      0.2731    0.015266     0.27606   -0.027816    0.039602
0.067556     0.22245     0.25501    0.056046     0.25698   -0.027487    0.039931
0.086959     0.18825     0.23133    0.084986      0.2287   -0.018936    0.045851
0.11557     0.15865     0.20042    0.093865     0.19845  -0.0024928    0.055059
0.14616     0.13103     0.16391    0.086301     0.17444     0.01132    0.063281
0.1626     0.10242     0.12083    0.071831     0.15734    0.016253    0.067556
0.15306    0.067556    0.078409    0.059992     0.14024    0.010991    0.065912
0.11754    0.026447    0.047495    0.046837     0.12149  -0.0008485    0.062952
0.065912   -0.016634    0.033683    0.030394     0.10406   -0.010057    0.064596
0.021186    -0.04985    0.028092    0.012306    0.092879   -0.018278    0.073476
0.00079584   -0.056756    0.020528   -0.002164    0.090248   -0.025514    0.081368
0.0050711   -0.020252    0.013293   -0.013674    0.095839   -0.031104    0.080382
0.021843    0.063938    0.012964   -0.021896     0.10373   -0.033735    0.074133
0.036971     0.18332    0.027434     -0.0265     0.10735   -0.034064    0.067556
0.039602     0.31421    0.058019    -0.02354     0.10242   -0.033406    0.066898
0.029407     0.43063    0.094523   -0.013345    0.087288   -0.034722    0.071173
0.0080309     0.51383      0.1284  -0.0024928    0.062952   -0.038668     0.07512
-0.021896     0.55658      0.1501   0.0050711    0.030723   -0.041957    0.074791
-0.054783     0.55592     0.15898   0.0063866   -0.013017   -0.040641      0.0692
-0.084052      0.5089     0.15898   0.0017824   -0.080763   -0.029789    0.064925
-0.10937     0.40859     0.15602  -0.0090702    -0.18205   -0.013674    0.065254
-0.13996     0.24975     0.15043   -0.027487     -0.3113   0.0017824    0.070845
-0.17942    0.035327     0.13728   -0.048205    -0.44712   0.0077021    0.073147
-0.22185    -0.21626     0.10702    -0.06432    -0.55565  -0.0008485    0.072818
-0.24717    -0.46718    0.056374   -0.073199    -0.60564   -0.019265    0.071502
-0.24388    -0.66253   -0.010715   -0.074844    -0.58261   -0.037353    0.068214
-0.20968    -0.74047   -0.087012    -0.07024    -0.49053   -0.044588    0.063938
-0.15673    -0.66812    -0.16298   -0.062676     -0.3432   -0.034064    0.061965
-0.098193    -0.45238    -0.22908   -0.051823    -0.16101   -0.010057    0.064267
-0.042615    -0.11628    -0.27348   -0.039655    0.029736    0.016581    0.068543
0.0034268     0.30862    -0.28137   -0.025185     0.19746    0.039931    0.073147
0.053086     0.77298    -0.24585 -0.00051963      0.3175     0.05769     0.07512
0.12083      1.2094    -0.17186    0.034669     0.38064    0.068214     0.07808
0.21719      1.5504   -0.077475    0.073804     0.40037    0.073476    0.085972
0.34249      1.7181    0.025461     0.11623     0.39675    0.076435    0.099785
0.49311      1.6524     0.12379     0.14846     0.38524    0.083342     0.11524
0.64242      1.3294     0.20206     0.15799     0.37209    0.097483     0.12445
0.75094     0.78449     0.24251     0.13958     0.35696     0.11261      0.1205
0.78613    0.088603      0.2287    0.096496     0.33821     0.12412     0.10011
0.7368    -0.67766     0.16128    0.048482     0.32243     0.12708    0.063281
0.61676     -1.4561    0.057361    0.012306     0.30927     0.11853    0.024803
0.45332     -2.2069   -0.048205  -0.0090702     0.29645     0.10209 -0.00051963
0.28658     -2.8696    -0.12154   -0.018278     0.27902    0.085644   -0.011701
0.14846     -3.3615    -0.14884   -0.017292     0.25961    0.076435   -0.013674
0.059334     -3.5842    -0.13601  -0.0051238     0.23955    0.072818  -0.0077547
0.020199     -3.4651     -0.1028   0.0080309     0.21193    0.075778   0.0067154
0.020857     -3.0103   -0.084381   0.0073732     0.17016    0.084657    0.024474
0.042891     -2.3174    -0.11135  -0.0097279     0.10505    0.093208    0.038287
0.072489     -1.5327    -0.18469   -0.033406    0.024145    0.098141    0.051113
0.099456    -0.80098    -0.26592   -0.048205     -0.0584     0.10143    0.063938
0.11689    -0.21659    -0.30571   -0.041299     -0.1222     0.10965    0.077422
0.12083     0.19351    -0.27743  -0.0011774    -0.15443     0.11787    0.093536
0.11064       0.452    -0.18041      0.0692    -0.15476     0.12609     0.11031
0.084328     0.59966   -0.046232     0.14418    -0.13404     0.12741     0.12774
0.041247     0.67136    0.085315     0.18759    -0.10313     0.12346     0.13991
-0.014332     0.68813     0.18463     0.18069   -0.070568      0.1205      0.1455
-0.075173     0.66741     0.23594     0.13596   -0.038668     0.12412     0.13596
-0.13009     0.63058     0.24383    0.086301  -0.0034794     0.13399     0.11689
-0.17219      0.5921     0.22377    0.058019    0.036642     0.14616    0.097812
-0.19948      0.5556     0.19647    0.064596     0.07808     0.15865    0.085972
-0.21165     0.52271     0.17477     0.08959     0.10274     0.16786    0.084986
-0.20573     0.50199     0.16457     0.11426    0.089261     0.17115    0.087617
-0.18534     0.50824     0.16589     0.12642     0.04322     0.16819    0.090577
-0.15739     0.55329     0.16983     0.11853   -0.007097     0.16326     0.08663
-0.13207     0.64242     0.16194    0.094852   -0.036366     0.15997    0.079066
-0.11727      0.7687     0.13728    0.063281   -0.035051     0.16424    0.068543
-0.11003     0.90058    0.096825    0.036971   0.0037556     0.17542    0.059992
-0.10378     0.99924     0.04322    0.027763    0.083342     0.18266    0.063281
-0.096549       1.041   -0.019923    0.036971     0.19253     0.17871    0.080053
-0.088656      1.0216   -0.087669    0.054072     0.31092      0.1649     0.10274
-0.081421     0.95451    -0.15048    0.061965      0.4178     0.14813     0.11426
-0.070897      0.8598    -0.20179    0.053415     0.49969     0.13497     0.10834
-0.04985     0.75818    -0.23763    0.034669     0.55494     0.12708    0.092879
-0.016634     0.66642    -0.25145    0.015924      0.5898     0.12017    0.077422
0.020528     0.58322    -0.24026   0.0077021      0.6138     0.11064    0.064925
0.059005     0.50758    -0.20968    0.014937     0.63946    0.094852    0.057032
0.093536     0.44115    -0.16989    0.038287     0.66971     0.07512    0.056046
0.11064     0.38853    -0.11858    0.073476     0.69964    0.055717    0.061307
0.10044     0.34578   -0.053796      0.1205     0.70655    0.043549    0.064925
0.066569     0.30631    0.026447     0.16852     0.66708    0.035656    0.064596
0.029407     0.27014     0.11195     0.19845      0.5625    0.034998    0.061307
0.021843     0.24153     0.19581     0.20371     0.38294    0.042233    0.058019
0.071502     0.23166     0.27672     0.19976     0.13037     0.05769    0.063281
0.18299     0.25994     0.35597     0.20404    -0.17252    0.076764    0.080711
0.33525     0.34216     0.42602     0.22081    -0.47409    0.092221    0.097812
0.49969     0.47864     0.47371     0.23495    -0.71712    0.099785      0.1034
0.64472     0.64077     0.48489     0.21916    -0.87629    0.096167    0.094523
0.74173     0.78778     0.45759     0.16095    -0.96279    0.085315    0.079724
0.77758     0.89696     0.40432    0.070187     -1.0022    0.067885    0.064925
0.75423     0.97326     0.35005   -0.034393     -1.0101    0.041904    0.054072
0.68155      1.0449     0.31421    -0.13207    -0.98515    0.010662    0.043549
0.58059      1.1255     0.30007    -0.19685    -0.91313   -0.019923    0.028421
0.47305      1.2225     0.29283    -0.21494    -0.79145   -0.044588    0.016581
0.37538      1.3373     0.26455    -0.19356    -0.62603   -0.062018    0.010662
0.29842      1.4791     0.18891    -0.15048    -0.41456   -0.071884   0.0086887
0.23429      1.6366    0.063938   -0.097207    -0.13141   -0.074844   0.0040845
0.17115      1.7819   -0.087341   -0.040641     0.23922   -0.069582   -0.007097
0.10209      1.8855    -0.23698    0.017568     0.65195   -0.057085   -0.020581
0.035656       1.928    -0.35734    0.073804     0.99759   -0.038011   -0.034064
-0.01203      1.8836    -0.42871     0.11787      1.1709   -0.016963   -0.039655
-0.042286      1.7303    -0.45403     0.13925      1.1252 -0.00019077   -0.040313
-0.065964      1.4695     -0.4514     0.13826     0.90091    0.010662   -0.039655
-0.096878       1.117     -0.4389      0.1182     0.60394    0.017239   -0.036366
-0.13963     0.68188    -0.42443    0.089261     0.34545    0.020528   -0.028802
-0.18403     0.16161    -0.39976    0.060321     0.19318    0.020857   -0.015976
-0.21955    -0.43758     -0.3603    0.036971     0.15635    0.020528   0.0090175
-0.23467     -1.0749     -0.2965     0.02283     0.20009    0.020199    0.036314
-0.23007     -1.6975    -0.20475    0.013951     0.26718    0.017568    0.053743
-0.2179     -2.2602    -0.10017   0.0040845     0.31421    0.010004    0.056046
-0.21099     -2.7351    -0.01499  -0.0028217     0.32736  -0.0008485    0.047495
-0.20376     -3.0925    0.031381   0.0017824     0.31421   -0.013017    0.037629
-0.1837     -3.2882    0.041247    0.025461     0.28165    -0.01795    0.034011
-0.14456     -3.2728     0.03434     0.06065     0.23857    -0.01499    0.037629
-0.092603     -3.0185    0.037958    0.089919     0.18858   -0.010715    0.046837
-0.047877     -2.5535    0.064267      0.1011     0.13432   -0.011701    0.056046
-0.032091     -1.9589    0.099456    0.092221    0.076106   -0.022554    0.058348
-0.057414      -1.337     0.12149    0.074133    0.025461   -0.036037    0.049468
-0.1097    -0.77928     0.11327    0.062952   -0.010386   -0.044588    0.031709
-0.15936    -0.33695    0.074133    0.070516   -0.029789   -0.039984    0.014608
-0.17679   -0.022225    0.020528     0.10472   -0.034393   -0.027158   0.0070443
-0.15509     0.18693   -0.025514     0.16063    -0.02354   -0.013017    0.012306
-0.10313     0.32637   -0.046561     0.22147    -0.01499   0.0014536    0.018884
-0.03242     0.42964   -0.036695     0.27639   -0.036037    0.012635    0.018555
0.0373     0.51054  -0.0057815     0.32703    -0.10214    0.018555     0.01691
0.086301     0.56316    0.033025     0.37899    -0.20705    0.022501    0.020199
0.097812     0.56875    0.070187     0.42997    -0.32807    0.026776    0.025461
0.07512     0.51021    0.097812     0.47141    -0.42607    0.028421    0.027434
0.032367     0.39346     0.11294     0.49936    -0.47738    0.027434    0.022172
-0.018278     0.23692     0.12083     0.51514     -0.4754    0.026447    0.012306
-0.072213    0.059992     0.13004     0.51843    -0.44153    0.025461   0.0001381
-0.12319    -0.11398      0.1501     0.50922    -0.41555    0.021514  -0.0080836
-0.1666     -0.2646     0.18299     0.47996    -0.43265    0.016253  -0.0064392
-0.20014    -0.37872     0.22443     0.42997    -0.50467    0.010662   0.0011247
-0.21856     -0.4412     0.26488     0.36518    -0.60761    0.012964   0.0077021
-0.22251    -0.43824     0.29612     0.29513    -0.69739     0.02579   0.0090175
-0.22448    -0.36589     0.31223     0.23166    -0.73357    0.049139   0.0073732
-0.2327    -0.24355      0.3119     0.18233    -0.68851     0.07512   0.0080309
-0.24783    -0.10411     0.29711      0.1455    -0.55598    0.092221   0.0080309
-0.26855    0.026776     0.27343     0.12544    -0.35635    0.095181   0.0037556
-0.29584      0.1376      0.2481     0.11721    -0.13009    0.085315  -0.0024928
-0.32413     0.22311     0.21489     0.11097    0.081039    0.072818  -0.0057815
-0.35307     0.27968     0.17016    0.087946     0.24613      0.0692  -0.0031506
-0.38365     0.30401     0.11426    0.043877      0.3415    0.077093      0.0054
-0.41423     0.29678    0.050126   -0.013345       0.354    0.087946    0.013951
-0.44416     0.26948   -0.016305   -0.075173     0.28395    0.090905    0.019212
-0.47014     0.25238   -0.076817     -0.1324     0.16391    0.084657    0.024145
-0.48626      0.2925    -0.12121    -0.17942    0.052428     0.07216    0.028421
-0.48001     0.44477    -0.14391    -0.21067   0.0090175    0.059992    0.028092
-0.43627     0.74831    -0.12417    -0.21823    0.053415    0.058348    0.024145
-0.34682      1.1821   -0.027158    -0.20014     0.16687    0.067227     0.02579
-0.21494       1.678     0.17674    -0.16068     0.30007    0.080711    0.040918
-0.04097      2.1654     0.46022    -0.11398     0.40497    0.095839    0.068871
0.15997      2.5959       0.747   -0.071555     0.45693     0.11228     0.10044
0.3665      2.9382     0.94695   -0.039655     0.46417      0.1284     0.12281
0.55954      3.1622     0.99792   -0.020909     0.44806     0.13432      0.1284
0.71575      3.2395     0.88874   -0.014661     0.42832     0.12873     0.12511
0.81968      3.1392     0.66708    -0.02354     0.41418     0.11853     0.12609
0.8644      2.8054     0.41616    -0.05544     0.40563     0.11393     0.13695
0.85618      2.1759     0.20667    -0.11825     0.39248      0.1159     0.14714
0.81145      1.2452    0.060321    -0.20475     0.37373     0.11491     0.14747
0.74239    0.085644   -0.040641    -0.29124     0.35466     0.10636     0.13662
0.65689     -1.1512    -0.12286    -0.34813     0.33624     0.08959     0.11952
0.5625     -2.3118    -0.20508     -0.3626     0.31881      0.0692    0.096825
0.46022     -3.2974    -0.28828    -0.34057     0.30204    0.050455    0.065912
0.35268     -4.0653    -0.36063    -0.30012     0.28494     0.04026    0.027434
0.23955     -4.6037    -0.41128    -0.25539     0.26225    0.040589  -0.0074258
0.12807     -4.8839    -0.43462    -0.21198     0.21916    0.049139   -0.024527
0.034998     -4.8655    -0.44153    -0.18271     0.15043     0.06065   -0.022883
-0.026171     -4.5218    -0.45469    -0.17087    0.061307    0.070187  -0.0093991
-0.052152     -3.8693    -0.49547    -0.17449   -0.022225    0.076106   0.0073732
-0.047877     -2.9981    -0.57275    -0.18962   -0.077146    0.075449    0.022501
-0.025514     -2.0527    -0.67042    -0.21132   -0.091616    0.069529    0.033354
-0.00051963     -1.1848      -0.751      -0.235   -0.069253    0.063281    0.038287
0.0093464    -0.49875    -0.76547    -0.25539   -0.020252    0.061965    0.035327
0.0001381   -0.027158    -0.68391    -0.26361      0.0373    0.061307    0.026119
-0.019923     0.26323    -0.51684    -0.24947    0.082026    0.058348    0.018884
-0.037682     0.43326     -0.3159    -0.20606     0.08959    0.055388    0.018884
-0.04985     0.54014    -0.13897    -0.13864    0.050126    0.058348    0.028421
-0.050507     0.62301    -0.02946   -0.051494   -0.025514    0.070845    0.041575
-0.039984     0.70359   0.0070443    0.044864    -0.11003    0.090248    0.056703
-0.020909     0.78054  -0.0051238      0.1376    -0.17548     0.10636    0.074791
0.0093464     0.84138   -0.036366     0.20996    -0.20343     0.11524    0.093865
0.045851     0.87657   -0.065964     0.25665    -0.19718     0.11228     0.11228
0.077422     0.88413   -0.079777     0.27376    -0.17877     0.10176     0.12313
0.08959     0.86966   -0.063333     0.26455    -0.17548    0.086959     0.11886
0.076764     0.84072   -0.010057     0.23626    -0.20113    0.071502     0.10044
0.044535     0.80915    0.072818     0.20338    -0.24914    0.054401    0.077093
0.00046697     0.78153     0.16424      0.1751    -0.30078    0.034669    0.055059
-0.04689     0.76574     0.24482     0.15964    -0.34057    0.012964    0.036971
-0.087998     0.77035     0.30598     0.15405    -0.37017  -0.0067681    0.023488
-0.11858     0.79501     0.34019     0.15536    -0.40305   -0.020252    0.015924
-0.14621     0.83711     0.35038     0.15865    -0.44087   -0.025842    0.015595
-0.17087     0.89499      0.3415      0.1626    -0.47869   -0.022225    0.019541
-0.18567     0.96832      0.3096     0.16918    -0.50599   -0.013017    0.029078
-0.1883      1.0528     0.25205     0.17148    -0.51947  -0.0024928      0.0373
-0.18304      1.1406     0.18661     0.16852    -0.52243   0.0090175    0.049139
-0.17022       1.213     0.14451     0.16227    -0.51849    0.021843    0.070516
-0.15575      1.2475     0.14681     0.15701    -0.49481    0.033683    0.094852
-0.14127      1.2202     0.18233     0.15734    -0.43035    0.038944     0.11426
-0.12483      1.1219     0.21423     0.16391     -0.3067    0.041575     0.12445
-0.10543     0.95846      0.2093     0.17707    -0.11825    0.045193     0.13037
-0.08471     0.74272     0.15043     0.19614      0.1182    0.049139     0.13925
-0.068595     0.48522     0.05177     0.21653     0.37636    0.053086     0.14879
-0.060373     0.18693   -0.048534     0.22936     0.61216     0.05473     0.15865
-0.056756    -0.14555    -0.11332     0.23199     0.77594    0.048482     0.16622
-0.048863    -0.48527     -0.1268     0.22475     0.83217    0.032696     0.16326
-0.020909    -0.77895   -0.095233     0.20404     0.77429    0.012306     0.14385
0.031052    -0.96081   -0.032749     0.16654     0.63452  -0.0087413      0.1113
0.095181    -0.98449    0.050784     0.11985     0.45858   -0.024527    0.073804
0.15109    -0.84966     0.14451    0.073147     0.29316    -0.03538    0.041247
0.18693    -0.59149     0.23495    0.026119     0.17444   -0.046232    0.018555
0.20371    -0.27512     0.30763   -0.020581     0.11491   -0.054454   0.0047422
0.21028    0.031709     0.35104   -0.055112     0.10899   -0.056427 -0.00051963
0.20798     0.27474     0.36715   -0.068266      0.1376   -0.051823   0.0047422
0.19121     0.43457     0.36288   -0.051494     0.17806   -0.042944    0.019212
0.16622     0.51712     0.35104   -0.016305     0.21489   -0.034064    0.034669
0.14221     0.53948     0.33493    0.015924      0.2435   -0.026171    0.041575
0.1284     0.53356     0.31684    0.032038     0.26948   -0.019594    0.038944
0.133     0.52665     0.29612    0.029078     0.29776   -0.011043    0.031709
0.15635     0.52665     0.27112    0.014279     0.32901  -0.0011774    0.027105
0.19877      0.5306     0.24153  -0.0077547     0.37472    0.002769    0.033025
0.2629     0.54244     0.21719   -0.026829     0.46581   0.0017824    0.049468
0.34775     0.56447     0.20798   -0.038668     0.62236   0.0024402    0.065254
0.43424     0.59309     0.21423   -0.045246     0.80389   0.0080309    0.064596
0.49903     0.61084     0.23166   -0.053138     0.91505    0.018226    0.048482
0.52074     0.60887     0.24942   -0.065635     0.86703    0.028092    0.027105
0.49212     0.58815     0.25633    -0.07879     0.64603    0.034998     0.01132
0.42273        0.55     0.23988   -0.089314     0.32276    0.036642   0.0073732
0.32309      0.4816     0.18891    -0.09918   0.0011247     0.03434    0.011648
0.20436     0.35696     0.11294    -0.10773    -0.23434    0.033025    0.018555
0.076435     0.16852    0.032367    -0.11398      -0.358    0.033683    0.021843
-0.042615   -0.063333   -0.042944     -0.1199    -0.40042    0.034011     0.02283
-0.13864    -0.30275    -0.11398    -0.11825    -0.40338     0.03434    0.021843
-0.21099    -0.51059    -0.18534   -0.099838    -0.40042    0.035985    0.017568
-0.26526    -0.65497    -0.25671   -0.069582     -0.3968    0.043549    0.018226
-0.30965    -0.72765    -0.31821   -0.037024    -0.38233    0.053086    0.022172
-0.34813    -0.72699    -0.35603   0.0014536    -0.34287    0.059663    0.028421
-0.37346    -0.65595    -0.35043     0.04881    -0.26065    0.065583    0.029078
-0.38102     -0.5129    -0.28335      0.1011     -0.1268    0.067227    0.023159
-0.37543    -0.30078     -0.1518     0.14879    0.048482    0.063281    0.013951
-0.35668   -0.016634    0.031052     0.18496     0.23363    0.058676   0.0067154
-0.32215     0.35137     0.23035     0.20798     0.38952    0.056046   0.0037556
-0.26986     0.79402     0.38886     0.21752     0.47634    0.059005   0.0073732
-0.20244      1.2584     0.46318     0.21818     0.47436    0.070516    0.017568
-0.11464      1.6642     0.45496     0.21489     0.39215    0.081039     0.03434
0.00079584      1.9444     0.40892     0.20864     0.24876    0.088932    0.053086
0.14879      2.0963     0.39313     0.20075    0.076435    0.098798    0.072489
0.3244      2.1595     0.44411     0.19779   -0.089643     0.11228    0.089261
0.5112       2.145     0.54014      0.2014    -0.21889     0.13201     0.10011
0.68484      2.0144     0.61249     0.21061    -0.28269     0.15602    0.099456
0.81704      1.7001     0.59933     0.22574    -0.27085     0.18036     0.09551
0.89203      1.1545     0.48653      0.2481    -0.18732     0.19351    0.093208
0.89531     0.40563      0.3244     0.27145   -0.049521     0.19614    0.093865
0.82987    -0.44383     0.18562     0.28888     0.11952     0.18989    0.090577
0.70819      -1.269     0.10965     0.29283     0.27869     0.17937    0.079395
0.55362     -1.9898    0.091892     0.28296     0.37932     0.16918    0.067885
0.39741     -2.5739    0.091234     0.26093     0.39215     0.16227    0.063281
0.26488     -3.0087    0.061965     0.22969     0.31782     0.15503    0.059663
0.16227     -3.2649  -0.0047949     0.19055     0.18529     0.13958    0.053086
0.085644     -3.2922   -0.088656     0.14813    0.030723     0.11886    0.045851
0.039602     -3.0616    -0.16594     0.10866    -0.10576    0.099127    0.037958
0.026776     -2.5871     -0.2133    0.079395    -0.19784    0.088603    0.031381
0.052428     -1.9497    -0.22448    0.064596    -0.23533    0.087617    0.029407
0.10801     -1.2703    -0.20343    0.062952    -0.23237    0.093865    0.032696
0.16786    -0.67272    -0.16265    0.071173    -0.21823    0.098141    0.034011
0.20864    -0.24684    -0.11398    0.085315     -0.2202    0.090905    0.029078
0.2139   -0.016305   -0.071555     0.10801    -0.24684    0.072489     0.01987
0.17937    0.047495   -0.048205     0.14287    -0.27907    0.045851    0.013293
0.11393 -0.00019077   -0.047548     0.17904    -0.28466    0.015924    0.010333
0.036642    -0.10444   -0.063004     0.19976    -0.23698  -0.0074258    0.012306
-0.033406    -0.22086   -0.088327     0.19877     -0.1393   -0.016963     0.01691
-0.087998    -0.31788    -0.12089     0.17181   -0.022554   -0.011372    0.021186
-0.12253    -0.37609    -0.15739     0.12248    0.070516   0.0030979    0.029407
-0.13897    -0.39812    -0.19422    0.059005      0.1136    0.013622    0.039273
-0.14555    -0.40009    -0.22382  -0.0077547    0.097483    0.010662    0.045851
-0.14884    -0.40799    -0.24158   -0.065635    0.025132  -0.0047949    0.049468
-0.15739    -0.42838    -0.24849    -0.10543   -0.086683   -0.025514    0.055059
-0.16693    -0.43134    -0.24947    -0.11891    -0.21132   -0.047548    0.059663
-0.17054    -0.38365     -0.2498    -0.11365    -0.31788   -0.068924     0.06065
-0.16561    -0.27019    -0.25309    -0.09622    -0.38431   -0.080434    0.056046
-0.15509    -0.10148    -0.25145   -0.073528     -0.3899   -0.075173     0.05177
-0.14325     0.08959      -0.235    -0.04985    -0.33827   -0.056756    0.045522
-0.13108     0.27145    -0.20672    -0.03242    -0.24388   -0.033078    0.035327
-0.12154     0.42503    -0.17811   -0.022883    -0.12779   -0.012359    0.024474
-0.11233     0.55099    -0.15542   -0.021238   -0.011043  -0.0011774    0.015924
-0.1005     0.65195    -0.12779   -0.027816    0.093865  0.00046697    0.011977
-0.087012     0.72924   -0.071884   -0.037353     0.18989  -0.0018351    0.014608
-0.079448     0.78745    0.011977   -0.036366     0.27408  -0.0041372    0.020528
-0.08175     0.83711     0.10044   -0.016963     0.33953 -0.00051963    0.031381
-0.093918      0.8815      0.1626     0.01132     0.37998   0.0096753    0.044206
-0.11036     0.91538     0.18167    0.046837     0.40859    0.024145    0.056046
-0.12779     0.92491     0.15832    0.093536     0.44707    0.041904    0.071831
-0.1393     0.89762     0.11327     0.15175     0.52271     0.05177    0.089261
-0.13799     0.82461    0.068871       0.207     0.64932    0.053743    0.094852
-0.12286     0.71049    0.041904      0.2481     0.80553    0.050455    0.086959
-0.1005     0.57007    0.047166     0.27376     0.93478    0.050126    0.071831
-0.083394     0.42076     0.07808     0.28296      0.9749    0.050784    0.053415
-0.075173     0.27376      0.1113     0.27935      0.8963    0.049797    0.035656
-0.074844     0.13793     0.11853     0.26981     0.71312    0.046837    0.027434
-0.078132    0.019541     0.08367     0.25863     0.46976    0.044535    0.029736
-0.077475   -0.065635   -0.002164     0.24449     0.21982    0.047824    0.036642
-0.072542   -0.090958    -0.14588     0.22903  0.00079584    0.059334    0.046508
-0.07024   -0.045574    -0.34978     0.22278    -0.17844     0.07808    0.058676
-0.076488    0.056374    -0.59676     0.22475    -0.33004    0.098469    0.068871
-0.092603     0.17838    -0.83782     0.22179    -0.46521     0.11458    0.069858
-0.11431     0.28132     -1.0157     0.20436    -0.57505     0.11985     0.05769
-0.1393     0.34512     -1.0887     0.17279     -0.6428     0.10965    0.036314
-0.16232     0.36913     -1.0424     0.13859    -0.64905    0.089261    0.014608
-0.18041     0.37143    -0.89076     0.10472    -0.59281     0.06624   0.0011247
-0.18666     0.37439    -0.65398    0.072489    -0.49119    0.047824  -0.0024928
-0.18074      0.3905    -0.33629    0.041575     -0.3705    0.036971   0.0014536
-0.1643     0.42175    0.064925    0.010333    -0.26361    0.034011   0.0096753
-0.13799     0.46088     0.49212   -0.023211    -0.19916    0.030723    0.015266
-0.10576     0.49969     0.83908   -0.065635     -0.1906    0.027763    0.011648
-0.068266     0.52797      1.0269    -0.12286    -0.23533    0.027763  0.00079584
-0.02946     0.53718      1.0499    -0.18797    -0.31459    0.032696  -0.0057815
0.010004     0.52304     0.96865    -0.23599    -0.39713     0.04026 -0.00019077
0.047166     0.49508     0.87361    -0.24158    -0.43627    0.051441    0.012306
0.077751     0.46976     0.82987    -0.20047    -0.40042     0.06361    0.026776
0.10044     0.45891     0.84467    -0.13174    -0.29091    0.075778    0.034998
0.12445     0.46417     0.87624   -0.063004    -0.13437    0.082355    0.033354
0.15767      0.4793     0.86243   -0.011043    0.030723    0.081368    0.031381
0.20009     0.49114     0.76706    0.026447     0.16852    0.078737    0.035656
0.2435     0.49048     0.60164     0.06065     0.26192    0.073476    0.045193
0.27902     0.47897     0.41089    0.087946     0.30927    0.065583    0.050784
0.30204     0.45759     0.23955     0.10077     0.32572    0.054072    0.048153
0.30796     0.42405     0.11524    0.094523     0.32374     0.04026    0.038944
0.29316     0.38623    0.036642    0.072818     0.31519    0.030065    0.029078
0.26126     0.34808    -0.02354     0.03434       0.305    0.030065    0.022501
0.22673     0.31256   -0.091287   -0.016963     0.29809     0.04026    0.023488
0.1968     0.27836    -0.16857   -0.065307     0.29546    0.053415    0.031381
0.17608     0.23824      -0.235   -0.089643     0.29645    0.063938    0.042233
0.15997     0.18266    -0.27184   -0.086025      0.2902    0.073476    0.046508
0.14714     0.10702    -0.26855   -0.071884     0.26257    0.080053     0.04026
0.13563    0.013622    -0.23533    -0.06136       0.207    0.082026    0.030723
0.12313   -0.085367    -0.18896   -0.061689     0.12642    0.076764    0.025461
0.10899    -0.17482    -0.15015   -0.079119    0.029736    0.062294    0.029407
0.088275    -0.25342    -0.12779    -0.11036   -0.065964    0.042891    0.041575
0.056703    -0.31755    -0.11628    -0.14193    -0.15772     0.02579    0.050455
0.019212    -0.35767    -0.10214    -0.16495    -0.24816    0.018555    0.048482
-0.017621    -0.36622    -0.07024    -0.18238    -0.34024     0.01987    0.030394
-0.043272    -0.33728   -0.012688    -0.19225    -0.41358    0.025461   0.0037556
-0.050836    -0.26098    0.063281    -0.19324    -0.44416    0.032038    -0.01499
-0.037353    -0.13371     0.14024     -0.1906    -0.41654    0.041247   -0.014661
-0.0074258    0.025461     0.20075    -0.18304    -0.32676    0.056046   0.0017824
0.021843     0.19285     0.23659    -0.17022    -0.19225    0.073476    0.024145
0.035327     0.35992     0.24646    -0.15838   -0.049521    0.088275    0.042233
0.030065     0.51876     0.23133    -0.14687    0.064596    0.097154    0.052099
0.015595     0.66642     0.19253    -0.13042      0.1353     0.10011    0.058676
0.0080309      0.7983     0.14616    -0.10674     0.16622    0.098469    0.064596
0.015924     0.90091     0.12478   -0.075501      0.1672    0.097812    0.071173
0.037629     0.93774     0.14977   -0.036037     0.15536     0.10011    0.078737
0.068543      0.8598     0.21719    0.011648     0.15076     0.10669     0.08959
0.10011     0.64834     0.29908    0.059334     0.15964     0.11458     0.10636
0.12379     0.32901     0.35499    0.098469     0.17279      0.1205     0.11886
0.13695   -0.051494     0.35663     0.11426      0.1695     0.12642     0.11853
0.13958    -0.45074     0.30533     0.10373     0.13662     0.13366     0.10768
0.1376    -0.85163     0.21949    0.072818    0.078409     0.14254    0.091234
0.1353     -1.2397     0.11754    0.036314     0.01132     0.14813    0.073804
0.13629     -1.5774    0.020199  0.00046697   -0.043601      0.1455    0.062623
0.14484     -1.7965   -0.060045    -0.03242    -0.06432     0.13563    0.055059
0.16063     -1.8379    -0.11924   -0.058071   -0.035051     0.12379    0.043549
0.1797      -1.687    -0.16364   -0.068924    0.047824     0.11426    0.031709
0.18693     -1.3883    -0.20179   -0.061031      0.1695     0.10932    0.023488
0.17608     -1.0256    -0.23665    -0.03538     0.30401     0.10932    0.027763
0.15043    -0.67766    -0.26657    0.012306     0.42503     0.10768    0.045193
0.11458    -0.39812    -0.28565    0.082026     0.51218    0.098798     0.06624
0.077093    -0.20639    -0.27578     0.17312     0.55461    0.083013    0.083013
0.042562   -0.091945    -0.21067     0.27836     0.55198    0.067227    0.095839
0.015924   -0.026829   -0.076817     0.39774      0.5158    0.058019     0.10373
-0.0018351    0.014937     0.10044     0.51876     0.46647    0.053743      0.1011
-0.0087413    0.047495     0.27507     0.61644     0.41517    0.052757     0.09255
-0.0074258    0.076764     0.39577      0.6684     0.36946    0.055388    0.086959
-0.0041372     0.10932      0.4395     0.66445     0.33295    0.057361    0.085315
-0.002164     0.14583     0.40629     0.60788     0.30993    0.058019    0.083999
-0.007097     0.18463     0.31618     0.51153      0.2948    0.055059    0.078737
-0.018278     0.21489     0.20502     0.40037     0.28099     0.04322      0.0692
-0.033735     0.22771     0.10439     0.29842     0.26521    0.021843    0.055717
-0.051823     0.22179    0.032696      0.2162     0.24547  -0.0041372    0.043877
-0.065307     0.20371   -0.004466     0.15997     0.22673   -0.028144    0.039602
-0.070897     0.18595   -0.017292     0.12675     0.20765    -0.04393     0.04881
-0.069911     0.18069    -0.01795     0.10636     0.18529   -0.046232    0.067556
-0.061689     0.18332   -0.015319    0.090248     0.15865   -0.039984    0.084657
-0.047877     0.18858  -0.0097279    0.070516     0.12807   -0.034393     0.09255
-0.027816     0.20601   0.0037556     0.04322    0.092221   -0.033735    0.091563
0.002769     0.24679    0.030065    0.016253    0.049797   -0.037682    0.084328
0.04618     0.30862    0.070187  0.00079584  0.00079584   -0.042615    0.079724
0.09551     0.38195     0.11656   0.0014536   -0.048534   -0.045574    0.084328
0.14056     0.45299     0.15635   0.0090175   -0.086025   -0.048534    0.090577
0.17181     0.50857     0.18003    0.010004    -0.10773   -0.048205    0.093865
0.18365     0.54672     0.19055  0.00079584    -0.11464   -0.044259     0.09551
0.18036     0.59013     0.19581  -0.0093991     -0.1051   -0.041957     0.09255
0.17575     0.67629     0.20371   -0.011701   -0.076488    -0.04393    0.084328
0.18463      0.8154     0.21719  -0.0064392   -0.038668   -0.051823    0.082684
0.21522      0.9851     0.22739  -0.0008485   -0.016305   -0.061031    0.092221
0.26586      1.1436     0.21292  -0.0041372   -0.031433   -0.066951     0.10406
0.32177      1.2419     0.15964   -0.016963   -0.085696   -0.068924     0.11064
0.36123      1.2505    0.077093   -0.032749    -0.16364   -0.069253     0.10669
0.36814      1.1745    -0.01499   -0.044259    -0.24388   -0.073199    0.089919
0.33887      1.0338   -0.095233   -0.052152    -0.30406   -0.076817    0.066569
0.27935      0.8348    -0.15246   -0.059058    -0.32544   -0.069911    0.044206
0.20732     0.56776    -0.18205   -0.060373    -0.30308   -0.045574    0.031052
0.14484     0.24383    -0.18896   -0.048534    -0.24651   -0.004466    0.031381
0.10472    -0.11595     -0.1883   -0.019594    -0.17449    0.052099    0.046508
0.081039    -0.49349    -0.20014    0.021186   -0.098522     0.11557    0.069529
0.059663    -0.89208    -0.23599    0.063281   -0.010057      0.1774    0.087617
0.029078     -1.3282    -0.29091     0.10209     0.12609     0.22311    0.089261
-0.010057     -1.7942    -0.34715     0.14089     0.36123     0.24021    0.077093
-0.045246     -2.2312    -0.38102     0.17674      0.7049      0.2264    0.063938
-0.065635     -2.5466    -0.36721     0.20535      1.0847     0.19121    0.049797
-0.071226     -2.6482    -0.29782     0.21752      1.3656     0.14616    0.034669
-0.071555     -2.4979    -0.19389     0.20732       1.433    0.099785    0.026776
-0.071884     -2.1385   -0.086683     0.17575      1.2558    0.058348    0.027763
-0.078132     -1.6633  -0.0038083     0.12544     0.89729    0.030065    0.032038
-0.092603     -1.1779    0.042562    0.061307      0.4816    0.013293    0.031052
-0.11628    -0.76448    0.054072  -0.0093991     0.13432   0.0073732    0.024145
-0.14983    -0.46455    0.039931    -0.07879    -0.07287   0.0077021    0.011648
-0.19488    -0.27282     0.02283    -0.13503    -0.14259   0.0073732   -0.010386
-0.25309     -0.1518    0.016581    -0.16561    -0.12648   0.0057288   -0.040641
-0.3136   -0.061689    0.030394     -0.1643   -0.083723   0.0063866   -0.071884
-0.36096    0.021186    0.059005    -0.13733   -0.052152    0.010333   -0.097864
-0.38497     0.10373    0.090577    -0.10313   -0.040641    0.013622    -0.11464
-0.37674     0.18989     0.11524   -0.075501   -0.043601    0.013622    -0.11661
-0.33235     0.28264     0.12609   -0.056756   -0.049521    0.013293    -0.10543
-0.26098      0.3905     0.11097   -0.043601   -0.052481    0.014608    -0.08471
-0.17416     0.51942    0.069858   -0.031104   -0.055769    0.018884     -0.0584
-0.086025     0.66346    0.019541   -0.011043   -0.066622    0.022501   -0.036366
-0.0087413     0.81047   -0.028144    0.015266   -0.088327    0.024474   -0.022554
0.04618     0.93905   -0.076488    0.042233     -0.1268     0.02283    -0.01499
0.070187      1.0344    -0.13568    0.066569    -0.17548    0.018226  -0.0077547
0.062294      1.0854    -0.20869    0.086301    -0.22481    0.020528   0.0001381
0.029407      1.0851    -0.28499    0.096496    -0.26559    0.029736   0.0047422
-0.018607      1.0348    -0.34254    0.093536    -0.30012    0.045193   0.0077021
-0.062676     0.94333    -0.36326    0.077422    -0.33629    0.062623    0.012306
-0.078132     0.81968    -0.34419    0.048153    -0.37082    0.077751    0.023488
-0.048534     0.67333    -0.29716    0.010662     -0.3968    0.092879    0.043549
0.040589      0.5135    -0.24553   -0.024856    -0.40568     0.10735    0.066569
0.18496     0.35729    -0.19883   -0.047219    -0.38628     0.11195    0.080711
0.36617     0.23462    -0.13832   -0.044588    -0.33695     0.10834    0.087288
0.55165     0.17904   -0.022225   -0.015976    -0.26657    0.099456    0.089261
0.7026     0.20831     0.18036    0.038287    -0.19883    0.092221    0.085972
0.78909     0.31388     0.45332    0.098469    -0.15673    0.087946    0.082026
0.80192     0.45759     0.72661     0.14418    -0.16232    0.088932    0.077093
0.74338     0.60164     0.91669     0.16654    -0.22711    0.090248     0.07512
0.63156     0.71312     0.97359     0.16852    -0.34484     0.08663    0.078737
0.48686     0.77955     0.89005     0.15865    -0.49053    0.080053    0.079066
0.34413     0.80586     0.69832     0.14352    -0.62767    0.075449    0.067227
0.23298     0.79863     0.44904     0.12412    -0.72469    0.071831    0.050455
0.16819     0.76607     0.19417    0.099785    -0.75955    0.068871    0.038616
0.14254     0.69569   -0.026171    0.079395    -0.73028    0.065254    0.033683
0.14188     0.57533     -0.1837    0.086959    -0.64543    0.059992    0.037629
0.15635     0.41056    -0.27052     0.12905    -0.52309    0.050126    0.052099
0.17904     0.22048    -0.29058     0.19812    -0.38398     0.04322    0.070516
0.19943    0.027763    -0.25605     0.26915    -0.24816    0.042233    0.082355
0.20864    -0.15213    -0.18304     0.31815    -0.12746    0.046837    0.082026
0.19943    -0.31689   -0.087012     0.32605     -0.0265    0.053743    0.071173
0.17181    -0.45896    0.011977     0.28888    0.049139    0.058676    0.057032
0.12938    -0.55894    0.097483     0.22114    0.093865    0.064925    0.043877
0.082026    -0.59511     0.16128     0.14846     0.11162    0.074462     0.04026
0.038944    -0.55039     0.20798    0.088932     0.11064    0.083342    0.049468
0.0014536    -0.42311     0.24547    0.051113     0.10242    0.087946    0.064925
-0.032091    -0.23336     0.28066    0.032038    0.090248    0.084657    0.070187
-0.061031   -0.020581     0.31322    0.024803    0.070187    0.077093     0.06361
-0.08471     0.16852     0.33986    0.024474    0.039931    0.068214     0.05177
-0.10346     0.29776       0.354    0.030394   0.0014536    0.059663     0.04322
-0.11891       0.354       0.354    0.037958   -0.041957    0.053415     0.04881
-0.13568     0.34676     0.34249    0.043549   -0.076817    0.047166    0.064596
-0.15607     0.29908     0.32572     0.04322   -0.087012    0.039931    0.083342
-0.18107     0.23857     0.30829    0.035327   -0.061689    0.029078    0.097154
-0.20738     0.18628     0.28823    0.024145   -0.007097    0.015924     0.10439
-0.23007     0.15931     0.26751    0.015595     0.05473   0.0014536     0.10472
-0.24684     0.15635     0.25139    0.011977    0.096167   -0.010715     0.09551
-0.25638     0.16391     0.24054    0.010991     0.10307   -0.016634    0.083999
-0.25967     0.17246     0.23298   0.0077021    0.078409   -0.013345    0.077093
-0.26032     0.17806      0.2264   0.0047422    0.039931  -0.0031506    0.083013
-0.25868     0.17674     0.22015   0.0086887   0.0011247   0.0086887    0.098141
-0.24783     0.17049      0.2093    0.018884   -0.027487    0.013622     0.11261
-0.22514     0.16227     0.19154    0.027434   -0.043272    0.013622     0.11787
-0.19028     0.15471     0.16194     0.02579   -0.046232    0.014608     0.11195
-0.14983     0.14418     0.12346    0.019541   -0.034064    0.020857     0.10077
-0.11398     0.13267    0.082026    0.014279  -0.0074258    0.030065    0.087946
-0.087341     0.12445    0.046837    0.012306    0.033025    0.038287    0.071831
-0.068266     0.12511    0.021186    0.010333    0.087617    0.045193    0.056374
-0.048863     0.13169   0.0060577    0.014608     0.14944    0.050455    0.049139
-0.027816     0.13169   0.0001381    0.034011     0.20371    0.054072     0.04881
-0.015648     0.11195  -0.0038083    0.064267     0.24317    0.058348    0.050784
-0.019265    0.071502  -0.0093991    0.091234     0.26553    0.064267    0.053743
-0.043601    0.017568   -0.030118    0.098469     0.27376    0.070516    0.050455
-0.082079   -0.034064   -0.069253    0.080053     0.27672    0.075449    0.037629
-0.1268   -0.074844    -0.11924     0.04618     0.27573    0.076764    0.025461
-0.16923     -0.1005    -0.16331    0.010662      0.2754    0.077093    0.026447
-0.20277    -0.11233    -0.18797   -0.020252     0.28329    0.083342    0.033025
-0.22185    -0.10839    -0.18797   -0.041957     0.31618    0.097812    0.042562
-0.22546   -0.090958    -0.16956    -0.04689     0.37538      0.1182    0.055059
-0.21099   -0.051823    -0.14654   -0.028473     0.44937     0.13399    0.069529
-0.18501    0.014937     -0.1347    0.016581     0.52633     0.14155    0.072818
-0.15969    0.094523    -0.14391    0.082355     0.60788     0.14648    0.065583
-0.14127     0.15931    -0.16791     0.15832     0.69438     0.15405    0.052099
-0.12713     0.18759    -0.19916     0.23594     0.77627     0.16293    0.036642
-0.11497     0.18102    -0.22645     0.30467     0.82724     0.16786    0.025461
-0.097864     0.14977    -0.23566     0.35038     0.82231      0.1603    0.021514
-0.07287     0.10899    -0.21889     0.36748     0.74568      0.1353    0.028092
-0.033406    0.078409    -0.17581     0.35663     0.60624     0.10011    0.042562
0.029736     0.07808    -0.11595     0.32769     0.43622    0.068214    0.056374
0.11721      0.1057   -0.048863     0.29612     0.27737    0.048482     0.06361
0.2139     0.14879    0.017568     0.26225     0.16227    0.037958    0.063938
0.2925     0.19285    0.083013     0.22475    0.099127    0.031052    0.056374
0.32078     0.23166     0.14352     0.18463    0.088275    0.023159    0.044206
0.28691     0.25139     0.19943     0.14418     0.13991    0.015595    0.031052
0.207     0.24383     0.25369      0.1113     0.27573   0.0090175    0.021186
0.11097     0.20864     0.28987    0.096496     0.49443   0.0030979    0.018884
0.02579     0.14747     0.28691     0.10274     0.74272   0.0077021    0.027105
-0.033078    0.074791     0.24416     0.11853     0.91899    0.027434     0.04026
-0.06432   0.0034268      0.1774     0.12938     0.94662    0.055717     0.04881
-0.08175   -0.063333    0.094523     0.12774     0.81507    0.074133    0.056374
-0.095891    -0.12845  -0.0097279     0.11754      0.5796    0.069858    0.061965
-0.11201    -0.19784     -0.1268     0.10899     0.31717    0.050126    0.068543
-0.12154    -0.27315    -0.23599     0.11327     0.08367     0.02283    0.074462
-0.11595    -0.34156    -0.32643     0.12642   -0.095562  -0.0041372    0.077751
-0.077803    -0.38628    -0.39023     0.14089    -0.21922   -0.024198    0.077093
0.0014536    -0.39549    -0.42081     0.14616    -0.29321   -0.033078    0.078409
0.11721    -0.36458    -0.41489      0.1307    -0.33136   -0.032091    0.080711
0.25172    -0.29387    -0.38266    0.093865    -0.34583   -0.022883    0.081697
0.37768    -0.18699    -0.34123    0.039273    -0.35076   -0.010386    0.079395
0.47009   -0.046232    -0.29847    -0.01795    -0.35438  -0.0015062    0.077093
0.51251     0.11426    -0.23994   -0.064649    -0.35866  -0.0008485    0.075778
0.50725     0.27935    -0.14029   -0.089314    -0.36096  -0.0041372    0.076106
0.46088     0.42372   0.0050711   -0.091945     -0.3626   -0.007097    0.073476
0.38491       0.526     0.17477   -0.079448    -0.36589   -0.007097    0.067556
0.2948     0.57796     0.33788   -0.062676    -0.36063  -0.0054526    0.061636
0.20765     0.58158     0.46549   -0.047877     -0.3409  -0.0041372    0.059334
0.13103     0.54343     0.54376    -0.04097    -0.30012  -0.0028217    0.059663
0.071831     0.47864     0.58782   -0.041628    -0.24125  -0.0061104    0.058019
0.035327     0.39708     0.61578   -0.044259     -0.1666   -0.013017    0.049468
0.019212     0.30533      0.6365   -0.045246   -0.078132   -0.017292    0.042233
0.019541     0.20338     0.64505   -0.039326    0.025132   -0.015648    0.037958
0.029736    0.080053     0.62893   -0.020581     0.14616  -0.0047949    0.035656
0.045851   -0.078461     0.56743    0.013951     0.27408    0.012306    0.035985
0.063281    -0.25737     0.44411    0.058019     0.38787    0.030065    0.041247
0.08959    -0.41785     0.26027     0.10077     0.45858    0.042562    0.049468
0.13662    -0.51388    0.048153       0.133      0.4691    0.047824    0.054072
0.20667    -0.49415    -0.13766     0.14484     0.41813    0.051441    0.047495
0.29283    -0.31788    -0.25605       0.133     0.32407    0.058676      0.0373
0.38294    0.035327    -0.30209    0.098798     0.21226    0.063938    0.030723
0.4645     0.54639    -0.29913    0.044206     0.10242    0.067556    0.030723
0.51679      1.1318    -0.28335   -0.021238    0.010662    0.067885    0.033683
0.52041      1.6899    -0.27447   -0.094247   -0.063662    0.067227    0.037958
0.47404      2.1555    -0.26296    -0.16232    -0.12319    0.065254     0.04322
0.39379      2.4864    -0.22053    -0.21132    -0.17022    0.062294    0.052428
0.31026      2.6396    -0.12878    -0.23171    -0.20771     0.06065    0.065583
0.24778      2.5568   0.0024402    -0.22119    -0.23763    0.059334    0.074462
0.21259      2.1855      0.1307    -0.19159    -0.25638    0.055717    0.075449
0.19417      1.5228     0.20535    -0.15344    -0.26361    0.047166    0.067885
0.1751     0.62729     0.19581    -0.11661    -0.26032    0.036642    0.058676
0.14089    -0.39812     0.10702   -0.088985    -0.24717    0.031381    0.053743
0.08959     -1.4433   -0.020581   -0.073199     -0.2133    0.032696    0.051441
0.025461     -2.4526    -0.13305    -0.06432    -0.15246     0.03434    0.047495
-0.049521     -3.4013    -0.18995    -0.06136   -0.065307    0.031052    0.043549
-0.12615     -4.2498    -0.17285   -0.063991    0.036642    0.024474    0.040589
-0.19356     -4.9066     -0.0903   -0.063662     0.14221    0.020528    0.033025
-0.23994     -4.9667    0.025461   -0.053467     0.24383    0.020199    0.019212
-0.26098     -4.9671     0.12774   -0.038668     0.31552    0.018884   0.0040845
-0.25671     -4.6033     0.17444   -0.035051     0.32374    0.015595   -0.010057
-0.23303     -3.7049     0.14616   -0.049521      0.2458    0.013951   -0.016305
-0.20212     -2.6558    0.063281   -0.076817    0.083342    0.012635   -0.013674
-0.17613     -1.6754   -0.022883    -0.11299    -0.14062    0.010333  -0.0051238
-0.16331    -0.92694    -0.07024    -0.15015    -0.37444    0.010004   0.0021113
-0.16397    -0.46159   -0.063333    -0.17844    -0.55466    0.016581    0.002769
-0.17186    -0.22744  -0.0041372    -0.18205    -0.62997    0.027434 -0.00019077
-0.18074    -0.12121     0.08367    -0.14588    -0.59445    0.038944  -0.0061104
-0.18501    -0.04689     0.16326   -0.062676    -0.48856    0.052099   -0.011043
-0.17844     0.05769     0.21883    0.056046     -0.3774    0.066569  -0.0057815
-0.1587     0.21028     0.26455     0.18924     -0.3113    0.081697    0.010662
-0.12615     0.38952     0.32901     0.30993    -0.30604    0.095839     0.02875
-0.087341      0.5625     0.41747     0.39379    -0.34353     0.10702    0.047166
-0.047548     0.70655     0.47272     0.41583    -0.38957     0.11557    0.059005
-0.013674      0.8177     0.41155     0.36979    -0.40009     0.11952     0.06065
0.014608     0.91439     0.19384     0.27441    -0.34747     0.12577    0.056374
0.041247        1.04    -0.13864     0.17016    -0.24125     0.13267    0.050126
0.070187       1.237     -0.4879    0.088932    -0.11793     0.13662    0.051113
0.10307        1.51    -0.75001    0.046837   -0.034064     0.13497    0.054072
0.13859      1.8181    -0.85755    0.038944   -0.028144     0.13169    0.054072
0.17312      2.1039    -0.80394    0.052757     -0.1005     0.12281    0.046508
0.19976      2.3163    -0.63458    0.069529    -0.21297     0.10636    0.030394
0.21785      2.4259    -0.41851    0.075778    -0.31886    0.085644   0.0040845
0.2287      2.4222    -0.21856    0.074462    -0.38529    0.067556   -0.016634
0.23166      2.3134    -0.07024    0.072818    -0.39976    0.052099   -0.020581
0.22739       2.095    0.021514    0.077093    -0.36227    0.041247  -0.0093991
0.21883      1.7533    0.062294    0.095181    -0.27578    0.035656    0.010662
0.20963        1.29    0.062952     0.12248    -0.14358    0.036971    0.026447
0.20634      0.7562    0.050784     0.14451    0.026119    0.039931    0.031709
0.20206       0.231    0.052757     0.15207     0.20765    0.038944    0.027105
0.18233    -0.21757    0.084328     0.14977     0.36058    0.031052    0.027105
0.1432    -0.55959     0.13859     0.14254     0.45332    0.018884    0.039602
0.091234    -0.81381     0.19055     0.13695     0.48193    0.010991    0.057032
0.038616      -1.017     0.22377     0.13695     0.45825    0.010662     0.06624
-0.0077547     -1.1772     0.23758     0.13596     0.40464    0.017239    0.065912
-0.042944     -1.2535     0.24613     0.12379     0.34084    0.027763    0.057032
-0.064978     -1.1848     0.25271    0.097812     0.28066    0.036314     0.04618
-0.074186    -0.93648     0.25994    0.061965       0.231    0.039602    0.038287
-0.075173    -0.52704     0.26422    0.021186     0.19812    0.036314    0.031381
-0.071555   -0.033406      0.2606   -0.018936     0.17773    0.027105     0.01691
-0.066622     0.44707     0.24613   -0.056756     0.16622    0.014279  -0.0051238
-0.058729     0.84862     0.22443   -0.088656     0.15635   0.0037556   -0.019265
-0.04393      1.1578     0.20272    -0.11299     0.13925  -0.0038083    -0.01795
-0.02354      1.3945     0.18365    -0.14095     0.10932   -0.010057  -0.0031506
-0.007097      1.5771     0.18397    -0.18304    0.071173   -0.010715    0.017239
0.002769      1.7172     0.21752     -0.2373    0.034669  -0.0054526    0.033683
0.013951      1.8273      0.2777    -0.28894   0.0047422      0.0054    0.036314
0.037958       1.897     0.34019    -0.32774    -0.01499     0.01987    0.022501
0.074462       1.899      0.3757    -0.35504   -0.024198    0.032367    0.002769
0.11031       1.802     0.37143    -0.37576   -0.026829    0.039602  -0.0077547
0.13201       1.582     0.33065    -0.38332   -0.020252    0.036642  -0.0034794
0.12905      1.2169     0.26685    -0.36392  -0.0008485    0.027434   0.0083598
0.10472     0.71214      0.2093    -0.30505    0.041904    0.018555    0.017239
0.074462      0.1113      0.1922    -0.19455     0.11886   0.0086887    0.019541
0.054072    -0.49612     0.23429   -0.029789     0.23331  0.00046697    0.015924
0.055717     -1.0131      0.3244     0.17477     0.37242  0.00079584    0.013622
0.076435     -1.3837     0.42931     0.38228     0.52369    0.011977    0.016253
0.10472     -1.6136     0.50824     0.55066     0.67925    0.028421    0.023488
0.12675     -1.7442      0.5158     0.65261     0.83645     0.04322    0.034998
0.13629     -1.8004      0.4201     0.68813     0.99496     0.05769    0.056046
0.13432     -1.7649     0.20996     0.68287      1.1413    0.073804    0.087617
0.12971     -1.6005   -0.094576      0.6605      1.2383    0.091234     0.11886
0.12478     -1.2995    -0.42575     0.63222      1.2498     0.10801     0.14089
0.11886    -0.90227      -0.677     0.60262      1.1574     0.11952     0.15076
0.11327    -0.47573    -0.76612     0.57303     0.97753     0.12281     0.15207
0.1057   -0.089643    -0.67272     0.54047     0.75357     0.11491     0.14977
0.094523      0.2093    -0.44416     0.50298     0.53126     0.10044     0.14352
0.080382     0.40169    -0.16989      0.4645     0.34413    0.087288     0.13234
0.064267     0.49673    0.061965     0.42997     0.19976    0.084657     0.11721
0.045193      0.5283     0.20765     0.39478    0.081697    0.093536      0.1011
0.027434     0.53619     0.26915     0.34841   -0.047877      0.1057    0.087288
0.011648     0.54277     0.27507     0.28987    -0.21231     0.10965    0.078737
-0.0057815     0.55132     0.25929     0.22278    -0.41456     0.10143    0.076435
-0.030447     0.55362     0.24317     0.15569    -0.62635    0.082355    0.079395
-0.065307     0.53521     0.23232    0.097483    -0.80098    0.063938    0.085315
-0.11102     0.49114     0.22508    0.053743    -0.90556    0.057032    0.083342
-0.16232     0.42635     0.21423    0.023488    -0.92562    0.063938    0.069529
-0.21395     0.34775     0.19121  -0.0008485    -0.87235    0.078737    0.047495
-0.26296     0.26849     0.16095   -0.033406    -0.77665    0.094523    0.028092
-0.30406     0.20305      0.1376   -0.080106    -0.67371     0.10274    0.020857
-0.33564     0.15438     0.13399    -0.12976     -0.5859    0.097812    0.026776
-0.35076     0.11952     0.15339    -0.16331    -0.51355    0.083999    0.034669
-0.34517    0.094523     0.18891    -0.17811     -0.4366    0.070516    0.029078
-0.31919    0.083013     0.22969     -0.1837     -0.3284    0.061965   0.0067154
-0.27743     0.09255     0.26849    -0.18666     -0.1814    0.063281   -0.028802
-0.22448     0.13037     0.29743    -0.19093  -0.0074258      0.0692   -0.062347
-0.16923     0.19877     0.30927    -0.19883     0.16983     0.07216   -0.082079
-0.11003       0.305     0.29875    -0.20113      0.3267    0.070516    -0.08471
-0.036695     0.44411      0.2708    -0.19291     0.45463    0.067227   -0.072542
0.050784     0.59276     0.22673    -0.17186     0.55691    0.064925   -0.047548
0.14714     0.70786     0.17411    -0.14456     0.64307    0.063281   -0.013017
0.2389     0.75028     0.11064    -0.11924     0.71378    0.061965    0.025132
0.31256     0.71345    0.030065    -0.10477     0.76475    0.062294    0.061965
0.36584     0.62762   -0.069911   -0.097207     0.79205    0.064596    0.092879
0.403     0.53784    -0.17581   -0.085039     0.79633    0.070516     0.11294
0.43457     0.48028    -0.27315   -0.059058     0.77232    0.082026     0.12445
0.4668     0.45134    -0.35668   -0.012359     0.71641    0.096496     0.13432
0.49311     0.40991    -0.43199    0.041575     0.62827     0.10801     0.13662
0.50265     0.30631    -0.50994    0.083342     0.51449     0.11261     0.13596
0.4941     0.12379     -0.5961    0.097812     0.37834     0.10965     0.13629
0.46187     -0.1005     -0.6724    0.082355     0.22475    0.099127     0.13234
0.40793    -0.30143    -0.71778    0.037958    0.055059    0.086301     0.12577
0.34545    -0.41851     -0.7112    -0.01795    -0.13371    0.079395     0.11623
0.28855     -0.4195    -0.64378   -0.064978    -0.34715    0.082355     0.11294
0.25172    -0.31985    -0.53065   -0.097864    -0.57571    0.094523     0.12445
0.23988    -0.17811     -0.4024    -0.12549    -0.79342     0.11426     0.14747
0.23824   -0.058729      -0.284    -0.15311     -0.9618     0.13169     0.17148
0.2264  -0.0061104    -0.19324    -0.17877     -1.0493     0.13563     0.18496
0.1843   -0.027816    -0.13009     -0.1906     -1.0365     0.12215     0.18299
0.11393    -0.11266   -0.085696    -0.18041    -0.93483    0.096825      0.1649
0.030394    -0.22678   -0.044259    -0.15673    -0.77467    0.066569     0.13563
-0.053467    -0.33136   0.0050711    -0.13733    -0.59511    0.038616     0.10044
-0.13207    -0.39845    0.064925    -0.12878    -0.42706    0.017568      0.0692
-0.20409    -0.42015     0.12083    -0.12615    -0.28927   0.0034268    0.048153
-0.26855    -0.39648     0.15043    -0.12121    -0.18403  -0.0067681    0.038944
-0.32281    -0.33202     0.15142    -0.10378    -0.10346   -0.011701    0.038944
-0.36425    -0.23237     0.13859   -0.071884   -0.040313   -0.016634    0.041904
-0.38924    -0.10181     0.12445   -0.032749    0.013293   -0.016963    0.043877
-0.39187    0.055717      0.1307   0.0070443    0.061636   -0.011372    0.041247
-0.36721     0.22541     0.18693    0.048482     0.10538  -0.0031506    0.034669
-0.3136     0.39083     0.30335     0.10373     0.13958   0.0024402    0.029078
-0.23665     0.53126     0.44707     0.16918     0.15273   0.0024402    0.029078
-0.14456     0.63058     0.55527     0.22541     0.13136  -0.0031506    0.036971
-0.051823     0.67563     0.57138     0.24778     0.07808   -0.010386    0.046508
0.029407     0.66807     0.47798     0.22673     0.01132   -0.013017    0.047495
0.10143     0.60986     0.30171     0.17674   -0.048863   -0.004466    0.036642
0.17049     0.50594     0.10077     0.11787   -0.096549    0.010004    0.025132
0.24547     0.36847   -0.068595    0.071173    -0.12648    0.018555    0.017897
0.3244     0.22673    -0.17219    0.044864    -0.13437    0.013951    0.014937
0.39642     0.11426    -0.20212    0.038616    -0.11266  0.00079584    0.012635
0.44674    0.048482    -0.17318    0.047824   -0.055112   -0.010057    0.012306
0.46483    0.036971   -0.098851     0.07512    0.033354   -0.013674    0.015266
0.44608    0.068543    0.015595     0.12017       0.133  -0.0093991     0.01691
0.39807      0.1182     0.17937     0.16983     0.22739   0.0014536    0.017568
0.33723     0.15964     0.38097     0.21259     0.30039    0.016253    0.014608
0.27704     0.17246     0.57566      0.2458     0.34676    0.026447   0.0077021
0.22771      0.1478     0.71345     0.27277     0.36123    0.027763   -0.002164
0.18661     0.10209     0.76574     0.29842     0.34742    0.020199   -0.013674
0.14385    0.068543     0.72825     0.32407     0.31519      0.0054   -0.024527
0.095839    0.076106      0.6217     0.35005     0.27902    -0.01203   -0.027158
0.052099     0.12281     0.48061     0.37439     0.24942   -0.027158   -0.016634
0.027434     0.16194     0.34117     0.39938     0.22837   -0.033735    0.010004
0.025132     0.12971     0.22114     0.42142     0.20436   -0.030775     0.04322
0.032696   -0.024856     0.12116     0.43063      0.1695   -0.022225    0.075778
0.032696    -0.30801    0.041247     0.41583     0.13201  -0.0097279    0.097812
0.013951    -0.67634   -0.014332     0.36847     0.11064   0.0034268      0.1034
-0.015648     -1.0549   -0.043601     0.29546     0.11557    0.014937    0.098141
-0.047877     -1.3735   -0.046561     0.21588     0.15207    0.021514    0.084328
-0.077146     -1.5889   -0.028144     0.14813     0.21292    0.023159    0.068871
-0.1051     -1.6758   0.0060577    0.096496     0.27441    0.022501    0.059663
-0.13141     -1.6274    0.043549    0.058676     0.31322    0.020528     0.05473
-0.15311     -1.4558    0.067885    0.027105     0.32013    0.014937    0.050784
-0.16495      -1.194    0.062952  -0.0051238     0.30171   0.0096753    0.042233
-0.16495    -0.89175    0.031381   -0.030775     0.26652   0.0090175    0.029407
-0.15311    -0.60235   0.0001381   -0.038668     0.22311    0.016253    0.019541
-0.1347    -0.36096   0.0034268   -0.021567     0.16819    0.031052    0.022172
-0.11924    -0.18567    0.055717    0.012964    0.082684    0.047495    0.036314
-0.11858   -0.078132     0.13464    0.052757   -0.051165    0.058019    0.057032
-0.13404   -0.027816     0.19516    0.080382     -0.2281    0.061965     0.07512
-0.16068    -0.02354     0.20568     0.08663    -0.41259    0.064267     0.08367
-0.18995   -0.052152     0.16523    0.068871    -0.54644    0.064925     0.07512
-0.21626   -0.094247    0.087288    0.038616    -0.58261     0.06065    0.054072
-0.23829     -0.1324  -0.0077547    0.015595    -0.49612    0.054401    0.032038
-0.25605    -0.15509   -0.096878    0.019212    -0.27874    0.049468    0.019212
-0.27151    -0.15706    -0.15607    0.055059    0.077093    0.051441    0.015924
-0.28795    -0.13568    -0.17745     0.11656     0.54704    0.061965    0.017568
-0.30505   -0.082736    -0.17383      0.1945      1.0302    0.076435     0.02579
