-0.050507      0.8575     0.35071  -0.0028217    -0.22744    0.061965    -0.03242
-0.033735     0.68451     0.35433  -0.0093991    -0.26131    0.061965   -0.020909
-0.01795     0.42898      0.3346  -0.0077547    -0.26131    0.064596  -0.0077547
-0.0061104     0.10932     0.29283   0.0001381    -0.22349    0.072489   0.0060577
0.0014536    -0.23336     0.23199    0.012306    -0.14687    0.084986    0.024803
0.0030979    -0.54184     0.15964    0.024474   -0.042286    0.095839    0.043877
0.0011247    -0.77698    0.088603    0.036971    0.073476     0.10242    0.058676
-0.0028217    -0.92793    0.029407    0.048482     0.17871     0.10373    0.068543
-0.0054526     -1.0082   -0.014332    0.062952     0.25698    0.098798    0.075449
-0.0041372     -1.0351   -0.043601    0.078737      0.3073     0.08959    0.079066
0.0017824     -1.0141   -0.063662    0.095839     0.34775    0.082684    0.075449
0.0083598    -0.94733   -0.081421     0.11228     0.40464    0.081039    0.066569
0.013293    -0.83091    -0.10181     0.12807     0.49344    0.085315    0.059663
0.014608    -0.66812    -0.12845     0.14056     0.60197     0.08959    0.053743
0.013951    -0.47639    -0.15706     0.14879     0.69438    0.091234    0.046837
0.012635    -0.28532    -0.17548     0.14846     0.74206    0.088603     0.04322
0.013293    -0.11891    -0.18205     0.14155     0.74535    0.082355    0.044864
0.01132   0.0037556    -0.18666     0.12642     0.74831    0.079395    0.048482
0.0040845    0.084328    -0.20179     0.10866     0.80849    0.084328    0.047824
-0.0074258     0.13793    -0.22711     0.09255     0.93445    0.097812    0.041904
-0.017292     0.18661    -0.24947    0.083999      1.0703     0.12149    0.034998
-0.019923     0.24087    -0.26065    0.083013      1.1318     0.15668    0.030723
-0.014332     0.30467    -0.25506    0.091563      1.0525     0.19483     0.03434
-0.0031506     0.37044    -0.23303     0.11162     0.83086     0.23002    0.042891
0.013622     0.42799    -0.19356     0.13728     0.52369     0.25633    0.052428
0.031052     0.47108    -0.14391     0.16227     0.21094     0.26915    0.059005
0.04618     0.49311   -0.083394     0.18036    -0.04985     0.26652    0.067227
0.055717     0.49903  -0.0064392     0.18858    -0.23994     0.24778     0.07808
0.068543     0.49706    0.089919     0.18726    -0.36819     0.21423    0.087288
0.08367     0.49278     0.19647     0.17477    -0.44679     0.17608    0.090905
0.1034     0.49081     0.28592     0.15142     -0.4833     0.14056    0.089919
0.12379     0.49212     0.33788     0.12412     -0.4856     0.11426    0.086301
0.13859     0.49015     0.34611      0.1011    -0.45633    0.099127    0.081697
0.14287     0.48226     0.31848    0.089919    -0.39878    0.096496    0.077422
0.14122     0.47042     0.27277    0.098798    -0.32478     0.10603    0.078409
0.1353     0.46022       0.231     0.12774    -0.23829     0.12281    0.087617
0.12774     0.45496     0.20897     0.16589    -0.14423     0.14352     0.10176
0.12182     0.45792     0.20996     0.19713   -0.061689     0.16161     0.11623
0.12182     0.47634     0.22311     0.20765   -0.014661     0.17049     0.12642
0.12544     0.51383     0.23265     0.19516  -0.0087413     0.16063      0.1284
0.12774     0.55691     0.22804     0.16128   -0.034722     0.13432     0.12445
0.12577     0.58717     0.21094     0.11064    -0.06432    0.098469     0.11656
0.11952      0.5921     0.18858     0.05769   -0.066293    0.063281     0.10735
0.10899     0.57007     0.16424    0.012306   -0.028802    0.039273     0.10044
0.093536     0.52731     0.13892   -0.025514    0.033683    0.029407    0.094852
0.078409     0.46779     0.10768   -0.058729    0.090577    0.028421    0.088275
0.067227      0.3984    0.072489   -0.082408     0.10834    0.026447    0.081697
0.06065     0.32802    0.029407   -0.094905    0.072489    0.020199    0.079066
0.056046     0.25929   -0.025514    -0.10115  -0.0093991    0.011977    0.085315
0.051441     0.18957   -0.088656     -0.1051    -0.11529   0.0080309    0.097812
0.045522     0.12149    -0.14917    -0.10543    -0.21626    0.010662     0.10899
0.036971    0.059992    -0.19422    -0.10411    -0.28927    0.019541     0.11426
0.026776   0.0096753    -0.22218   -0.098851    -0.32347    0.034011     0.11228
0.015924   -0.030775    -0.23862   -0.090629    -0.32544    0.052428     0.10834
0.0063866   -0.062676    -0.24816   -0.080763     -0.2988    0.072489     0.10439
-0.00019077   -0.083394    -0.24881   -0.068924    -0.22842    0.091234    0.098141
-0.0067681   -0.097536    -0.24257   -0.053138   -0.077803      0.1011     0.08663
-0.01499    -0.10674     -0.2281   -0.039655     0.16227     0.10274    0.071831
-0.022554     -0.1051    -0.20244   -0.029789     0.45266     0.10077    0.059992
-0.025842   -0.089314    -0.16495   -0.022883     0.72398    0.098798     0.05177
-0.029131   -0.059387    -0.11233   -0.018936     0.89959     0.10044    0.046837
-0.034722   -0.022225   -0.033078   -0.021238     0.93807     0.10834    0.045522
-0.041957   0.0083598    0.080711   -0.024856     0.84862     0.11886    0.045193
-0.048863    0.026776     0.22212   -0.030775     0.68254     0.13103    0.043549
-0.051165    0.034998     0.35696   -0.036366     0.51909      0.1455    0.038944
-0.049192    0.035656      0.4474   -0.037682     0.42438     0.15799    0.032367
-0.046561    0.031709     0.46614   -0.031433     0.41583     0.16885    0.024145
-0.041299     0.02579     0.42767   -0.023211     0.44674     0.17641    0.018555
-0.033406    0.022172     0.36847   -0.020581     0.44871     0.17575    0.017239
-0.022554    0.024474     0.32572   -0.024198      0.3757     0.16391     0.01691
-0.010386    0.030723     0.31388   -0.031433     0.23528     0.14254    0.010333
-0.0031506    0.038616     0.32933   -0.038011     0.07512     0.11524  -0.0015062
-0.0031506    0.044864     0.35597   -0.041299   -0.051165    0.085315   -0.015648
-0.0057815    0.045851     0.37307   -0.042286    -0.11661    0.055388     -0.0265
-0.0087413    0.042891     0.36814   -0.045246    -0.12615    0.025132   -0.033078
-0.013345    0.039273     0.33525   -0.050507    -0.10806  -0.0047949   -0.033735
-0.016963    0.041904     0.27737   -0.058071   -0.088327   -0.031762   -0.027487
-0.014661    0.049468     0.20996   -0.067937   -0.083723   -0.051165   -0.016305
-0.007097    0.063281     0.14681   -0.080434   -0.093589    -0.06136  -0.0097279
0.0034268    0.097812    0.092221    -0.09326    -0.10543   -0.062018   -0.013345
0.010333     0.16753    0.045193    -0.10247    -0.10181   -0.057085    -0.02354
0.012635      0.2777   0.0037556    -0.10247   -0.079448   -0.055112   -0.040313
0.010004      0.4132   -0.034722   -0.092931   -0.053467   -0.061031   -0.059716
0.0060577     0.54573   -0.069911   -0.081421   -0.037353   -0.078461   -0.082736
0.0037556     0.64603   -0.098851   -0.073528   -0.043601    -0.10247    -0.10378
0.0021113     0.69175     -0.1176   -0.069911    -0.07287    -0.12845     -0.1176
0.0011247     0.66905    -0.12615   -0.065307    -0.12121     -0.1518    -0.12352
-0.0028217     0.58059    -0.12483    -0.05544    -0.17844     -0.1712    -0.12286
-0.013674     0.43753    -0.12089   -0.034722    -0.23533    -0.18501    -0.12253
-0.026829     0.25929     -0.1176   -0.002164     -0.2942    -0.19192    -0.12089
-0.039984    0.061636    -0.11825    0.037958     -0.3626    -0.18863    -0.11529
-0.049521    -0.14851    -0.11957    0.077422    -0.44219    -0.17778    -0.10477
-0.051494    -0.37181    -0.11727     0.10932     -0.5221    -0.16265   -0.090629
-0.041957    -0.60596    -0.10543     0.13037    -0.59281    -0.14621   -0.070897
-0.023211    -0.82894   -0.086683      0.1432    -0.65266    -0.12878   -0.049192
-0.0054526     -1.0124    -0.06728     0.14681    -0.69936    -0.10707   -0.030118
0.0037556     -1.1275   -0.056756     0.14155    -0.71909   -0.085367   -0.018936
0.0017824     -1.1618   -0.064978     0.13004    -0.70035   -0.065635   -0.016305
-0.010386     -1.1223   -0.092931     0.11787    -0.63622   -0.051494   -0.022883
-0.028144      -1.021    -0.12779     0.10932    -0.52671   -0.045903   -0.037682
-0.043272    -0.87399    -0.15575     0.10899    -0.37937   -0.048863    -0.04985
-0.04985    -0.69344    -0.16561      0.1182    -0.21297   -0.056427   -0.050836
-0.04393    -0.49777    -0.15607     0.13662   -0.044588   -0.059058   -0.035051
-0.025185    -0.30439    -0.13897     0.15701     0.11919   -0.044588  -0.0074258
0.0024402     -0.1245     -0.1324     0.17246     0.28757   -0.010715    0.019212
0.031709    0.043549    -0.14818     0.16918     0.45825    0.034998    0.036314
0.059663     0.21259    -0.18666     0.14188     0.61348    0.078409    0.040589
0.089261     0.41747    -0.23402     0.09551     0.72759      0.1136    0.037958
0.11787     0.68024    -0.27578    0.042891     0.76607     0.13234    0.033354
0.13662     0.97589    -0.29617  -0.0018351     0.70918     0.13103    0.033354
0.14089      1.2367    -0.28203   -0.032749     0.56612     0.10932    0.036314
0.13103      1.3787    -0.23434   -0.051823     0.37768    0.075778    0.040918
0.11064      1.3485    -0.16232   -0.061689     0.19022    0.042562    0.044864
0.086959      1.1383   -0.082408   -0.063333    0.034998    0.012964    0.044864
0.065912     0.79106  -0.0084125   -0.058071   -0.074844   -0.013017    0.040918
0.046837     0.38524    0.046508   -0.048863    -0.13963   -0.032749    0.033025
0.032038    0.017239    0.073804   -0.038997    -0.17087   -0.047877    0.030394
0.027763    -0.24553    0.069529   -0.031762    -0.18567   -0.055112      0.0373
0.034998    -0.39121    0.039931   -0.030118    -0.20244   -0.053467    0.052099
0.04881    -0.45929   0.0024402   -0.031762    -0.22711   -0.043272    0.071831
0.060979    -0.51191   -0.021567   -0.034064    -0.25671   -0.028144     0.09255
0.062623    -0.60827   -0.019265   -0.036695      -0.284   -0.012359     0.10735
0.050455    -0.76415   0.0080309   -0.039326    -0.30637    0.002769     0.10998
0.021186    -0.96081    0.044864   -0.042944     -0.3307    0.017568     0.10077
-0.015319     -1.1562    0.082026   -0.046232    -0.36589    0.029736    0.081697
-0.04985     -1.3022     0.10932    -0.04985     -0.4218    0.035327    0.059663
-0.073857     -1.3673     0.11656   -0.056098    -0.50303     0.03434    0.032696
-0.082408     -1.3449    0.093536   -0.061689    -0.59314    0.032038   0.0044134
-0.074186     -1.2512    0.030723   -0.062676    -0.65398    0.028092   -0.019265
-0.054454      -1.116   -0.061031   -0.057414     -0.6451    0.023488   -0.034064
-0.033406    -0.96476    -0.15542   -0.050179    -0.53065    0.014279   -0.043601
-0.019265    -0.81907    -0.22086   -0.044588    -0.29551   0.0014536   -0.057085
-0.015648    -0.67897    -0.22711   -0.040313    0.029407  -0.0080836   -0.076159
-0.020252    -0.51849    -0.16956   -0.033735     0.37176   -0.014661   -0.095891
-0.026171    -0.28795   -0.069582   -0.023869      0.6707   -0.018607     -0.1074
-0.026829    0.080053    0.034669  -0.0057815      0.8815   -0.024856    -0.10674
-0.018278     0.60788     0.11195    0.022501      0.9772   -0.036366   -0.096549
-0.0018351      1.2189     0.15076    0.059663     0.95188   -0.050836    -0.08471
0.021186      1.7773     0.15832     0.10242     0.83151    -0.06136   -0.069911
0.041247      2.1509      0.1455     0.14583     0.65787   -0.061689   -0.055112
0.05177       2.267     0.12379     0.18069     0.47173   -0.056427   -0.046561
0.053415      2.1243    0.095839     0.19845     0.30434   -0.050179   -0.046232
0.050126        1.78     0.06361     0.19943     0.17049   -0.045574   -0.053467
0.045193      1.3173    0.035327     0.19351    0.078737   -0.046232   -0.061689
0.04026     0.81606    0.014937     0.18792    0.032696   -0.048863   -0.069582
0.035327     0.34183   0.0063866     0.18891    0.027763   -0.048534   -0.076488
0.032367   -0.072213    0.014279     0.19285    0.055388   -0.041628   -0.076488
0.035327    -0.43331    0.042233      0.2014     0.10998   -0.028144   -0.066293
0.045193    -0.76152     0.08367      0.2139     0.19351   -0.007097   -0.044259
0.053743     -1.0647     0.12577      0.2287      0.2948    0.018884   -0.018278
0.04881     -1.3268     0.14944     0.23692     0.37274    0.045522   0.0057288
0.02875     -1.5189     0.14616     0.23363     0.36123    0.065254    0.019212
-0.0024928     -1.6241     0.11623     0.21522     0.22179    0.073147    0.019541
-0.03538     -1.6396    0.063281     0.17871   -0.031104    0.068214    0.012964
-0.065635     -1.5732 -0.00051963     0.12412    -0.33399     0.05473   0.0086887
-0.091945     -1.4403   -0.057743    0.068543    -0.60695    0.039273    0.010662
-0.11332     -1.2545   -0.098522    0.025132    -0.78816    0.026776    0.015595
-0.12417     -1.0292    -0.11825   0.0021113    -0.85327     0.01987    0.017568
-0.12089     -0.7773    -0.11464  -0.0015062    -0.81414    0.014608    0.016253
-0.10346    -0.52342     -0.0903    0.002769     -0.7043   0.0096753    0.018226
-0.076488    -0.29453    -0.05544      0.0054    -0.55894    0.010004    0.025461
-0.044588    -0.11003   -0.020252   0.0017824    -0.40141    0.015595    0.036971
-0.015648    0.029736   0.0050711  -0.0054526    -0.24322    0.027763    0.051113
0.0037556     0.13464    0.015595   -0.014003    -0.09622    0.042891    0.065583
0.011977     0.22015    0.015924   -0.024198    0.031052    0.053743    0.077093
0.015266     0.30007   0.0080309   -0.038011     0.13169    0.055717    0.085972
0.017239     0.38294  -0.0054526    -0.05281     0.20009    0.045193    0.089261
0.016253      0.4645   -0.020252   -0.064649     0.23067    0.026776    0.085972
0.011977      0.5329   -0.034064    -0.07879      0.2287 -0.00051963    0.074133
0.0073732     0.58486   -0.049521   -0.096878     0.20502   -0.031433    0.058676
0.0070443     0.62137   -0.067609    -0.11825     0.17181   -0.062347    0.040589
0.0060577      0.6434    -0.08471    -0.14127     0.14221   -0.093918    0.022172
0.0037556      0.6559   -0.093918    -0.16364     0.12313    -0.12878   0.0037556
0.0040845     0.66281   -0.091945    -0.18337     0.11327    -0.16561   -0.018278
0.0070443     0.66577   -0.083394    -0.19488     0.10899    -0.19981   -0.043272
0.0063866     0.65853    -0.07583    -0.19521     0.10669    -0.22448   -0.065635
0.0030979     0.63913   -0.075173    -0.18238     0.10899    -0.23698    -0.07879
0.00046697     0.61512   -0.079119    -0.16068     0.11985    -0.23763   -0.079448
-0.0011774     0.59539   -0.080434    -0.13766     0.13464    -0.22448   -0.064978
-0.0024928     0.58421   -0.077803    -0.11793     0.14583    -0.19981    -0.04097
-0.0051238      0.5796   -0.074186    -0.10773     0.13991    -0.16627   -0.016634
-0.0064392     0.57566   -0.070568    -0.11102      0.1034     -0.1347  0.00046697
-0.0054526      0.5648   -0.068924     -0.1199    0.027763    -0.11529   0.0093464
-0.0034794     0.54244   -0.068924    -0.12713   -0.071884    -0.11036    0.013293
-0.0047949     0.51416    -0.07024    -0.12878    -0.16857    -0.11102    0.010991
-0.0090702     0.48982   -0.070897    -0.12121    -0.24388    -0.11102    0.012964
-0.013017     0.47634   -0.069253    -0.10641    -0.29486    -0.10247    0.022501
-0.010386      0.4691   -0.066293   -0.086354    -0.32873   -0.083723    0.038287
-0.00019077      0.4622   -0.059716    -0.06728    -0.35208   -0.059387    0.054072
0.01691     0.45167   -0.052481    -0.04985    -0.36688   -0.031104    0.063938
0.034669     0.43852   -0.044917   -0.036037    -0.38003  -0.0024928    0.068543
0.047166      0.4224   -0.034064   -0.025514    -0.39648     0.02283    0.069529
0.052428     0.40234   -0.017621   -0.016963    -0.40996    0.047495    0.068543
0.055388     0.37603   0.0057288  -0.0067681    -0.38727    0.076764    0.065583
0.056374      0.3438    0.033025   0.0086887    -0.28762     0.11787    0.063281
0.052428      0.3096    0.058676     0.02579    -0.09918     0.17542     0.06624
0.043877     0.27902    0.079724    0.040918     0.14418     0.24416    0.078737
0.036314     0.26159     0.09255    0.050784     0.37899     0.31256     0.09551
0.033354     0.25567    0.098141    0.053415     0.54474     0.37077     0.10834
0.033025     0.25468    0.096167    0.046837     0.60788     0.41254      0.1113
0.031709     0.24843    0.082684    0.035327     0.57796     0.42931      0.1057
0.035327     0.23396    0.061307    0.024474     0.50232     0.42142    0.094852
0.049139     0.21785    0.045851    0.020857     0.43293     0.39478    0.081697
0.064596     0.20502    0.041904    0.026776     0.39248     0.35564    0.071173
0.071831     0.21193    0.039602    0.044206     0.37505     0.30598     0.06624
0.071502     0.28066    0.025132    0.065254     0.37176     0.25139    0.069529
0.067227      0.4668    -0.01203    0.081039     0.39379     0.19647    0.078737
0.063938     0.80948   -0.071555     0.08663     0.47502     0.14484    0.084986
0.065912      1.2867    -0.14588    0.080711     0.66017     0.10011    0.083013
0.075449      1.8063     -0.2202     0.06624      0.9407     0.06624    0.074462
0.091892      2.2499       -0.26    0.054072       1.236    0.043877    0.064596
0.11261      2.5225    -0.21461     0.05769      1.4264    0.033354    0.053743
0.133      2.5696   -0.059058    0.078409      1.4297    0.030723    0.045851
0.14944      2.3769     0.16687     0.10538      1.2245    0.033683    0.046508
0.15931      1.9671     0.37209     0.12708     0.85881    0.038616    0.056046
0.16128      1.3817     0.48752     0.14089     0.43589    0.044864    0.070845
0.15306     0.67004     0.49048     0.14944    0.063281    0.053086    0.088603
0.13892    -0.11332     0.41089     0.15602    -0.18995    0.065583     0.10143
0.12478    -0.89833     0.30796     0.16326    -0.31163    0.083999     0.10834
0.11294     -1.6301     0.22574     0.17411    -0.32051     0.11064     0.11228
0.10472     -2.2529     0.18003     0.18661    -0.24717     0.14648     0.11393
0.096496     -2.7203     0.16391     0.19351    -0.12187     0.18924     0.11754
0.082684     -2.9998     0.15734     0.19351    0.027763     0.23232      0.1284
0.059334     -3.0912     0.14912     0.19121     0.15997     0.27014     0.15142
0.031052     -3.0251     0.14287     0.19088     0.23857     0.29415     0.17674
0.0050711     -2.8462     0.14912     0.19055     0.25468     0.29908     0.19384
-0.01795      -2.589     0.17608     0.18792     0.21916     0.28494     0.19812
-0.039326      -2.273     0.21982     0.17838     0.13991     0.25468      0.1922
-0.059058     -1.9149     0.27606     0.16128    0.024145     0.20996     0.18167
-0.072213     -1.5429     0.33558     0.14122    -0.11201     0.15471     0.17148
-0.077475      -1.189      0.3836     0.12544    -0.24717    0.094194     0.16095
-0.074515    -0.87925     0.40234     0.11524    -0.35767    0.037958     0.14977
-0.069582    -0.60399     0.37505     0.10735    -0.43331   -0.011701     0.14024
-0.059387    -0.32906     0.30566    0.094852    -0.47508   -0.058729      0.1307
-0.044588   -0.034393     0.20996    0.077422    -0.50138     -0.1028     0.11721
-0.024198     0.26718      0.1113    0.056046    -0.52572     -0.1416     0.10209
-0.0024928     0.53784    0.024803    0.032696    -0.55367    -0.16857    0.087617
0.015266     0.73614   -0.039326    0.018884     -0.5813    -0.18008     0.07808
0.029407     0.84072    -0.07287    0.020199     -0.5984    -0.17844    0.073147
0.040589     0.84894   -0.082079    0.031381     -0.6007    -0.17153    0.070187
0.047824     0.78186   -0.080434    0.041575    -0.58821    -0.16561    0.066569
0.052428     0.66215   -0.085039     0.04322    -0.56025    -0.16068    0.064925
0.055388     0.50659    -0.10378      0.0373    -0.52177     -0.1518    0.063281
0.056703     0.32572    -0.12713    0.024145    -0.47277    -0.13536    0.056374
0.053743     0.12149    -0.13963    0.011648    -0.41128    -0.11497    0.041904
0.049468   -0.095233    -0.12286   0.0070443    -0.33991    -0.09326    0.024474
0.049797    -0.31229    -0.06728    0.011977    -0.26559   -0.076488   0.0083598
0.053415    -0.50928    0.018555    0.021514    -0.19685   -0.065635  -0.0028217
0.056374    -0.65793     0.11031     0.02875     -0.1416   -0.062018   -0.013345
0.052757    -0.73521     0.16786    0.031381    -0.10477   -0.061031   -0.023869
0.042562    -0.72929     0.15602     0.02875   -0.089643   -0.061689   -0.035051
0.024803    -0.65135    0.078737     0.02283   -0.094247   -0.060045   -0.045246
0.0073732    -0.51355   -0.034064    0.016581    -0.11628   -0.058071   -0.056756
-0.0034794    -0.32117    -0.14062   0.0083598    -0.14752   -0.060373   -0.069253
-0.010386   -0.081421    -0.21198  -0.0024928    -0.17482   -0.063662   -0.076817
-0.016305     0.18167    -0.23599   -0.013674    -0.18765   -0.071555   -0.077475
-0.020252     0.43063    -0.22053     -0.0265    -0.18666    -0.07879    -0.07583
-0.020581     0.63091    -0.17778    -0.04097    -0.17909   -0.083723   -0.074844
-0.014332     0.76771     -0.1222   -0.051165    -0.17153   -0.084052   -0.073199
-0.0047949     0.85289   -0.068266   -0.052481    -0.17449    -0.08175   -0.070897
0.0050711     0.92754   -0.020909   -0.045574    -0.19389   -0.084381   -0.069911
0.014608      1.0512    0.013951   -0.036037    -0.23171   -0.096878    -0.07024
0.027105      1.2495    0.034998   -0.027487     -0.2794     -0.1176   -0.069582
0.041904      1.4843    0.041247   -0.019594    -0.32215    -0.14423   -0.067937
0.054401      1.6685     0.02875  -0.0080836    -0.35175    -0.16956    -0.06728
0.061307      1.7204    0.010004   0.0047422    -0.36425    -0.18304   -0.073857
0.063938      1.5955   0.0011247    0.014937    -0.36293    -0.17942   -0.087012
0.058348      1.3041    0.012964    0.019541     -0.3557    -0.16265    -0.10148
0.044864     0.88578     0.04026    0.018555    -0.34616    -0.14391    -0.11069
0.024474     0.39807    0.062623    0.016253    -0.33794    -0.13042    -0.11464
0.0021113    -0.10378    0.067885    0.012306    -0.32873    -0.12319    -0.11825
-0.019923    -0.57341    0.049468   0.0096753    -0.31261    -0.11266    -0.12253
-0.040313    -0.97265    0.017239    0.011977    -0.28894   -0.098193    -0.12582
-0.050507     -1.2788   -0.017292    0.021186     -0.2623   -0.083065     -0.1268
-0.04985      -1.485   -0.046561    0.031709     -0.2373   -0.070897     -0.1245
-0.039984     -1.6031   -0.065307     0.04026    -0.21494    -0.06432    -0.11825
-0.02946     -1.6488   -0.074844     0.04026    -0.19389   -0.060045    -0.11398
-0.024198     -1.6333   -0.083723    0.027434    -0.17844   -0.054125    -0.11266
-0.026171      -1.561   -0.099509      0.0054     -0.1689    -0.04393    -0.10806
-0.035051     -1.4291    -0.12483   -0.018607    -0.16068   -0.028802    -0.09918
-0.044588     -1.2256     -0.1518   -0.035708    -0.14621   -0.012688   -0.087998
-0.054125    -0.94042    -0.17416   -0.044588    -0.11858  -0.0011774   -0.081092
-0.061031    -0.58656    -0.18666   -0.048205   -0.074515   0.0047422   -0.078132
-0.065635     -0.2031    -0.18501   -0.049521    -0.01203    0.010004   -0.072213
-0.066951     0.15635     -0.1689    -0.05281    0.076435    0.018555   -0.063333
-0.062676     0.44345    -0.14226   -0.056098      0.1922    0.035327   -0.051494
-0.054125     0.63222    -0.10543   -0.057743     0.32374    0.058348   -0.038011
-0.045246     0.72398   -0.063004   -0.051823      0.4326    0.087617   -0.026829
-0.040313     0.73516   -0.021896   -0.038339     0.47502      0.1205   -0.019265
-0.041628      0.6878    0.016253    -0.01795     0.43128     0.15076   -0.013674
-0.043601     0.60262    0.053743    0.002769     0.32933     0.17016   -0.010057
-0.044588     0.49771     0.09551    0.015924     0.22377     0.17641  -0.0051238
-0.044259     0.38064      0.1501    0.019212     0.17246     0.17181   0.0040845
-0.039655     0.24909     0.21686    0.020199     0.21324     0.16391    0.015924
-0.028802     0.10143      0.2879    0.023159      0.3392     0.16128    0.029078
-0.01499   -0.049521     0.34315    0.031709     0.50692     0.16654    0.043549
-0.0064392     -0.1814     0.35597     0.04618     0.65722     0.17608    0.053086
-0.010057    -0.27414     0.31552    0.065254     0.73812     0.18529    0.054401
-0.023211    -0.32182     0.22903    0.082684     0.71444     0.19285    0.049468
-0.042944      -0.333     0.12313    0.090905     0.59309     0.19581    0.041247
-0.063333     -0.3159    0.022501    0.082684     0.41155     0.18661    0.035656
-0.077475    -0.27282   -0.057743    0.064596     0.22574     0.16457    0.037958
-0.083065    -0.20606    -0.11562    0.042233    0.096167     0.13662    0.044864
-0.082736    -0.12056    -0.15542    0.022501    0.058348     0.11294    0.052757
-0.076817   -0.025514    -0.18403    0.013622    0.094523    0.094194    0.059992
-0.067609    0.076764    -0.20409     0.01691     0.16424    0.084328    0.069858
-0.054125     0.18661    -0.21461    0.026776       0.231    0.078737    0.080053
-0.040641     0.30631    -0.21626    0.034998     0.26948    0.074133    0.085972
-0.027487     0.42832    -0.20803    0.032696     0.26784    0.067227    0.085644
-0.012359     0.53619    -0.18896     0.02579     0.23363    0.058676     0.07808
0.0080309     0.61117    -0.15903    0.018884     0.18102    0.049139    0.066569
0.028092     0.64274    -0.12089     0.01691     0.12511    0.039602    0.059005
0.043549     0.62893   -0.079119     0.01987    0.077093    0.034998    0.056046
0.049797     0.58388   -0.042944    0.024474    0.043877      0.0373    0.055059
0.048482     0.52698   -0.016963    0.031052    0.028092    0.043549    0.051113
0.044535     0.47173   0.0014536    0.039602    0.031709    0.045851    0.038944
0.04026      0.4132    0.015266    0.050126    0.045851    0.042233    0.021514
0.0373     0.34282    0.029078    0.059334    0.059992    0.039931   0.0060577
0.032367      0.2629    0.042562    0.065583    0.068543    0.046508  -0.0018351
0.028092     0.17871    0.052099    0.070516    0.089261    0.068543  -0.0008485
0.024145     0.10274     0.04881    0.083999      0.1455     0.10307   0.0093464
0.020199    0.041575    0.024145     0.11261     0.24251     0.14747    0.024145
0.012306  -0.0093991   -0.021896     0.15306     0.36288     0.19253    0.039273
0.0067154   -0.048863   -0.084381     0.19318     0.46845      0.2287    0.045522
0.0057288    -0.07583    -0.15476     0.22278     0.51646     0.24942    0.043549
0.016253    -0.08175    -0.21428     0.23166      0.4862     0.25369     0.04026
0.035985   -0.057085    -0.24684     0.21883     0.39346     0.24087    0.044864
0.055717   -0.007097    -0.24059     0.18693     0.27902     0.21193    0.059663
0.0692    0.056703     -0.1814     0.14616     0.20009     0.17181    0.074462
0.078409     0.12083   -0.059387     0.10242      0.1991     0.12741    0.076435
0.082684     0.17444     0.12017    0.061965     0.28066    0.087946    0.063281
0.081697     0.20963     0.32966    0.026447     0.41254    0.058348    0.044206
0.073804     0.22837     0.52468  -0.0034794     0.52633    0.038287    0.027763
0.064267     0.23429      0.6605   -0.028802      0.5625    0.022172    0.015924
0.059334     0.23396     0.70589   -0.047877     0.50626   0.0040845   0.0080309
0.057361      0.2287      0.6513   -0.063991     0.38919   -0.019594   0.0047422
0.055388     0.22081     0.51613   -0.076488     0.25567   -0.047877   0.0060577
0.054072     0.21061     0.34742   -0.086683     0.14221   -0.078132    0.010333
0.055059     0.19713     0.19581   -0.091616    0.062623    -0.10609    0.016581
0.057361      0.1774    0.093865   -0.090629    0.012635    -0.12746    0.028421
0.058019     0.15207    0.041247   -0.084052   -0.020252    -0.13864    0.047495
0.05473     0.12741    0.020857   -0.073199   -0.039984    -0.14062    0.066898
0.051441     0.10998    0.013293   -0.065635    -0.04689    -0.13634    0.081697
0.053415     0.11195   0.0050711   -0.066622   -0.039984    -0.13042    0.090248
0.060979     0.15602  -0.0084125   -0.071884   -0.023211     -0.1245    0.092221
0.071173     0.26915    -0.02946   -0.073528   -0.017621    -0.12056    0.086301
0.084986     0.46088   -0.060045   -0.065964   -0.044259    -0.11727    0.076435
0.10406     0.69503   -0.091616   -0.047548     -0.1097    -0.11398      0.0692
0.12149      0.9088    -0.12121   -0.024527    -0.21001    -0.10937    0.069529
0.13267      1.0459    -0.14522  -0.0051238    -0.33268    -0.10378    0.076435
0.13234      1.0847    -0.16068   0.0070443    -0.45469    -0.09918    0.081697
0.12544      1.0272     -0.1666    0.012306     -0.5494   -0.098193    0.078737
0.1159     0.88216    -0.16726   0.0080309    -0.59906    -0.09918    0.071831
0.10176      0.6707    -0.16134  -0.0051238    -0.59445    -0.09622    0.064596
0.078737     0.41352    -0.15048   -0.021896    -0.54381   -0.086025    0.062623
0.04618     0.13563    -0.13272   -0.033406    -0.46718   -0.068595    0.061965
0.017239    -0.14687    -0.10937   -0.033735    -0.38562   -0.047219    0.059992
-0.0011774    -0.41818   -0.076488   -0.019265    -0.31821   -0.028802    0.056046
-0.0047949     -0.6645    -0.03242   0.0057288    -0.26723    -0.01499    0.054072
0.00079584     -0.8786    0.017239    0.032696    -0.22678  0.00046697    0.061636
0.0080309     -1.0496    0.061636    0.057032    -0.19422    0.024474    0.079066
0.012306     -1.1611    0.092221    0.077422    -0.16397    0.058348     0.10044
0.0086887     -1.1913      0.1011    0.091234    -0.13009    0.093536     0.11886
0.0001381     -1.1049     0.08959    0.096825   -0.077475     0.12149     0.13037
-0.0077547    -0.87629    0.065254    0.098798  -0.0015062     0.13662     0.13432
-0.0087413    -0.50862    0.033683     0.10044    0.079724     0.13662     0.13234
0.00046697   -0.053467   0.0034268     0.10143     0.14089     0.12116     0.12642
0.014937     0.39938   -0.022883    0.098469     0.15964    0.093208      0.1159
0.030723     0.75456   -0.042615    0.087288     0.12807    0.055388     0.10209
0.042891     0.95484   -0.059058    0.065254    0.055717   0.0093464    0.087617
0.050126     0.99036   -0.071884    0.033683   -0.038997   -0.033406    0.074133
0.052428     0.89531   -0.082408  -0.0008485     -0.1347   -0.063991    0.062623
0.050455     0.71312   -0.087669    -0.03538    -0.21363    -0.07879    0.053743
0.045522     0.48588   -0.081421    -0.06728    -0.26986   -0.078132    0.047824
0.039602      0.2389   -0.055112   -0.090629    -0.30012   -0.066293    0.040918
0.032696   -0.018936   -0.011372    -0.10313    -0.30538   -0.048863    0.027763
0.024145    -0.30209    0.035656    -0.10609    -0.28795    -0.03242   0.0086887
0.014937    -0.62208    0.070845   -0.099509    -0.24553   -0.020909   -0.012688
0.0067154    -0.96607    0.095181   -0.090629    -0.17778   -0.015319   -0.029131
-0.007097     -1.3009     0.10636   -0.084052   -0.085039   -0.015976   -0.032749
-0.02946     -1.5847      0.1034   -0.079119    0.023817   -0.018278   -0.025842
-0.061689     -1.7827     0.08367    -0.07583      0.1307   -0.019594    -0.01203
-0.1005     -1.8856    0.051441    -0.07583     0.22081   -0.018278  0.00079584
-0.137     -1.9103    0.017568   -0.081421     0.30335   -0.018607   0.0070443
-0.16331     -1.8751  -0.0097279   -0.088656     0.41287   -0.018278   0.0073732
-0.17219     -1.7813   -0.031104     -0.0903     0.57862   -0.014003      0.0054
-0.16199     -1.6199    -0.04689   -0.078132     0.78876  -0.0041372   0.0001381
-0.13733     -1.3943     -0.0584   -0.050507     0.98016    0.010991  -0.0097279
-0.1051     -1.1206   -0.066622  -0.0097279      1.0792    0.027105   -0.019594
-0.076159    -0.83683   -0.070897    0.034669      1.0456     0.04026   -0.025185
-0.059387    -0.58261   -0.068924    0.068871     0.88907    0.047495    -0.02354
-0.055112    -0.37543   -0.060702    0.087288     0.65952     0.04881   -0.015648
-0.053467    -0.21099   -0.049521    0.090577     0.41024    0.041904  -0.0051238
-0.042286   -0.074186   -0.040313    0.081697     0.18299    0.028421  0.00079584
-0.019923    0.045522   -0.036695    0.067885 -0.00019077    0.013293   -0.002164
0.0077021     0.15997   -0.041628    0.056703    -0.13075  -0.0024928   -0.012688
0.031709     0.27112    -0.05544    0.045851    -0.21527    -0.01795   -0.026829
0.04881     0.38557   -0.074186    0.032696    -0.27118   -0.035708   -0.044259
0.059992      0.5408   -0.093918    0.018555    -0.32314   -0.054454     -0.0584
0.065254     0.77561    -0.11825     0.01132    -0.38858   -0.068924   -0.063333
0.068543      1.0676    -0.15147    0.015266     -0.4708   -0.074186   -0.060373
0.071173      1.3403    -0.19356    0.026776    -0.56025    -0.07024   -0.048863
0.076106      1.5146    -0.23961    0.040589    -0.63392   -0.061031   -0.028473
0.080382      1.5432    -0.27874    0.054401    -0.66187   -0.048863   0.0040845
0.085972      1.4268    -0.30768    0.070187    -0.61156   -0.031104    0.044535
0.088603      1.2038    -0.32149    0.093865    -0.46817  -0.0090702     0.08367
0.089261     0.93313    -0.32117     0.12774     -0.2669    0.013622     0.10899
0.087617     0.66346    -0.30374     0.16391   -0.056756    0.031052     0.11689
0.085315     0.41977    -0.26624     0.19055     0.11689    0.038944     0.10932
0.086959     0.20469    -0.20606     0.20075     0.21686    0.035985    0.091563
0.09255   0.0073732    -0.11529     0.20075     0.20897    0.022172    0.065912
0.099127    -0.18304    0.010004     0.19746    0.091892   0.0024402    0.030723
0.1057    -0.36392     0.16063     0.19088   -0.097207   -0.017292  -0.0047949
0.11162    -0.51421     0.29908     0.17904    -0.30406   -0.031762   -0.034064
0.11458    -0.61386     0.37834      0.1626    -0.48691   -0.037682    -0.05544
0.10669    -0.65233     0.37866      0.1478    -0.61879   -0.034722   -0.071226
0.086301    -0.62471     0.31486     0.13464    -0.68719    -0.02946   -0.081092
0.061636    -0.52013     0.24383     0.11689    -0.70002   -0.024527    -0.08471
0.04322    -0.34188     0.21752    0.095839    -0.67667   -0.019594   -0.080434
0.038616    -0.10378     0.25468    0.081697    -0.64346   -0.013345   -0.075501
0.047495     0.15964     0.34117    0.078409    -0.60991  -0.0015062   -0.074515
0.060321     0.40497     0.45003    0.083342    -0.56288    0.018555   -0.074515
0.068214     0.59736      0.5579    0.090905    -0.47014    0.041575   -0.067609
0.07216     0.72299     0.65228    0.094852    -0.30242    0.068871   -0.053796
0.071502     0.78317     0.72759    0.093536    -0.07287    0.096167   -0.038011
0.067885     0.79271     0.77857    0.085644     0.16622     0.11853   -0.021896
0.058348      0.7641     0.79994    0.076764     0.34709     0.13826  -0.0061104
0.045193     0.69898     0.77955    0.068543     0.40958     0.15438   0.0060577
0.030723     0.59736     0.71246    0.058676     0.33525     0.16326    0.014279
0.017897     0.46549     0.59966    0.044864     0.15405     0.16063    0.016581
0.010991     0.32144     0.45661    0.024803   -0.070568     0.14418    0.016253
0.0086887     0.18661     0.31059  -0.0015062    -0.26756     0.11656    0.017897
0.0037556    0.080382     0.17871   -0.031104    -0.39648     0.08367    0.024145
-0.0067681    0.013622    0.071502   -0.063333    -0.44909    0.050784    0.031709
-0.02354   -0.015319  -0.0067681   -0.096549    -0.44482     0.01987    0.036971
-0.037024   -0.019594   -0.060045    -0.12713     -0.4116  -0.0028217    0.041247
-0.042615   -0.018936   -0.095891    -0.14522    -0.37477   -0.014332    0.046508
-0.041299   -0.027158    -0.12483    -0.15147    -0.34583   -0.016963    0.053743
-0.038339   -0.038997     -0.1518    -0.15114    -0.31952   -0.012688    0.061965
-0.037353   -0.036366    -0.17548    -0.14621    -0.28663    0.002769    0.066569
-0.036366  -0.0054526    -0.19324      -0.137    -0.22908    0.030065     0.06624
-0.036695    0.054072    -0.20573    -0.12154    -0.11233      0.0692    0.057032
-0.034722     0.12675    -0.20968    -0.10017      0.1034     0.11097    0.045193
-0.031762      0.1922    -0.20475   -0.076159     0.40892     0.14418    0.036642
-0.028473     0.23495    -0.19521    -0.05544     0.73253     0.15931    0.033354
-0.026171     0.25172    -0.18797   -0.040641     0.96734     0.14747     0.03434
-0.02354     0.25008     -0.1814   -0.031433      1.0259     0.11919     0.04026
-0.020581     0.24087    -0.17811   -0.025842     0.89367    0.091563    0.055059
-0.021896     0.22443    -0.17778   -0.023211     0.63156    0.080382    0.077422
-0.030447     0.20535    -0.17811    -0.02354      0.3392    0.088932    0.094194
-0.04097     0.19055    -0.18041   -0.027487     0.10603      0.1113     0.09551
-0.042286     0.18463    -0.18567   -0.033406   -0.019265     0.13464    0.083013
-0.033406     0.18529    -0.19324   -0.040313   -0.038997     0.14287    0.067227
-0.020909     0.18858    -0.20047   -0.046232   0.0037556     0.12609    0.052428
-0.015319     0.18825     -0.2031   -0.044588    0.065912    0.088275    0.037629
-0.01795     0.18069    -0.19455   -0.033735     0.13004    0.043877    0.021843
-0.024527      0.1649    -0.17613   -0.011372     0.19088   0.0060577   0.0070443
-0.029131     0.14385    -0.15476    0.017897     0.25402   -0.014003   -0.002164
-0.029789     0.12116    -0.13799    0.046837     0.31815   -0.016305  -0.0077547
-0.028473     0.10143    -0.12911    0.071831     0.38162  -0.0090702  -0.0047949
-0.023869    0.084986    -0.12286    0.089919      0.4349  -0.0061104  0.00046697
-0.016634     0.07808    -0.11233     0.10899     0.46779  -0.0087413   0.0017824
-0.0064392    0.099785   -0.093918     0.12873     0.47864   -0.014003  -0.0011774
0.0054      0.1649   -0.070897     0.15207     0.47765   -0.019923  -0.0061104
0.012964     0.26784   -0.053467     0.17608     0.47798   -0.024527   -0.013674
0.017568     0.39346   -0.049192     0.19483     0.48851   -0.021238   -0.020909
0.023159     0.55329   -0.055769       0.207     0.50955  -0.0061104   -0.026171
0.031709     0.78712   -0.063662      0.2139     0.53553    0.018884    -0.02946
0.045193      1.0956    -0.06432     0.21324     0.54639    0.044535   -0.033735
0.059334      1.4051   -0.057414     0.20338     0.52435    0.061965   -0.038668
0.074462      1.6067   -0.047548     0.17871     0.47502    0.070187   -0.044259
0.086301      1.6287   -0.037682     0.14122     0.40925     0.07216   -0.048534
0.090248      1.4781   -0.031433    0.097154      0.3415    0.065912   -0.050179
0.085315      1.2268   -0.025185    0.052757     0.28461    0.051441   -0.051165
0.073804     0.97194   -0.022225    0.014937     0.25304    0.034011   -0.052481
0.06065     0.80915   -0.026171   -0.012359     0.24778    0.017568   -0.052152
0.047824     0.79041   -0.039326   -0.030447     0.26356   0.0063866   -0.049521
0.039602     0.87295   -0.054783   -0.044259     0.29447 -0.00019077   -0.042286
0.035656     0.93708   -0.059058   -0.053796     0.33164   -0.004466   -0.033735
0.031381     0.85388   -0.043272   -0.058071     0.36255  -0.0064392   -0.022883
0.024145     0.55461   -0.014332   -0.056756     0.37472  -0.0087413   -0.010057
0.01132    0.059992    0.013293   -0.053467     0.35104   -0.014332      0.0054
-0.0090702    -0.54447    0.029736   -0.051165     0.27244   -0.028473    0.018226
-0.035051     -1.1719    0.033025   -0.050507     0.12774   -0.052152    0.024145
-0.062676     -1.7754    0.027763   -0.051823   -0.062018   -0.080106    0.023817
-0.086683     -2.3305    0.028421   -0.051165    -0.25737    -0.10773    0.022501
-0.10444     -2.8192    0.041904   -0.047877    -0.41687    -0.12549    0.023817
-0.11365     -3.2178     0.06624   -0.038668     -0.5175     -0.1268    0.026119
-0.11727     -3.4984    0.085644   -0.022883    -0.55861    -0.11168    0.024474
-0.1176     -3.6342    0.084986  -0.0054526    -0.54216   -0.086683    0.019212
-0.12056     -3.6154    0.055388   0.0057288    -0.46488   -0.060045   0.0080309
-0.12845     -3.4454  -0.0038083    0.010333    -0.31623   -0.038997  -0.0051238
-0.14259     -3.1504   -0.086025     0.01132    -0.11201   -0.025842   -0.014332
-0.15969      -2.762    -0.17548   0.0083598    0.091892   -0.016305   -0.016963
-0.17252     -2.3082    -0.25737  -0.0011774     0.22377  -0.0080836   -0.010057
-0.17778     -1.8155    -0.32149   -0.021238     0.23791   -0.002164   0.0070443
-0.17646     -1.3097    -0.36425   -0.045903     0.14056   0.0021113    0.034011
-0.16397    -0.82762    -0.38266    -0.07024   -0.016305  0.00079584    0.062623
-0.14062    -0.40503    -0.35734   -0.087341     -0.1712  -0.0047949    0.082355
-0.11003    -0.06136    -0.25375   -0.095891    -0.28631   -0.012359    0.089919
-0.07583     0.19549   -0.063991   -0.097207    -0.35208   -0.019594    0.085315
-0.039326     0.37406     0.15931   -0.093918    -0.37773   -0.022225    0.074791
-0.004466     0.49081     0.33427   -0.085696    -0.38135   -0.018607     0.06624
0.028421     0.56382     0.40695   -0.071884    -0.37905  -0.0097279    0.066569
0.057032     0.61084     0.37307   -0.058729    -0.38299   0.0044134    0.073147
0.080711     0.64636     0.27211   -0.051165    -0.39187    0.017239    0.080711
0.10044      0.6776     0.15438   -0.052481    -0.40503    0.022501    0.079395
0.11689     0.70457     0.06065     -0.0584    -0.41489    0.021843    0.064596
0.12478     0.72562   0.0086887   -0.064649    -0.42279     0.01987    0.038616
0.12511     0.73713  -0.0051238   -0.067609    -0.43101    0.020199   0.0093464
0.1205     0.74272   0.0017824    -0.06728    -0.44515    0.021514   -0.012359
0.11162     0.74141   0.0014536   -0.063662    -0.45863    0.017897   -0.019594
0.098141     0.73351   -0.016305   -0.056427    -0.45304   0.0096753    -0.01795
0.084328     0.72266   -0.044917   -0.043272    -0.40832  -0.0008485   -0.014332
0.071173     0.71444   -0.075173   -0.024198    -0.31656  -0.0087413   -0.013017
0.062952     0.70852    -0.10115 -0.00051963    -0.18469  -0.0093991   -0.016963
0.061636     0.70457     -0.1222    0.021514   -0.033735  0.00046697   -0.021238
0.064267      0.7026    -0.12779    0.040589     0.10899     0.01987   -0.028473
0.0692     0.70161    -0.11299    0.058348     0.21357     0.04322   -0.036366
0.07512     0.69339   -0.075173    0.075449     0.25633    0.061636   -0.039984
0.078409     0.68056   -0.024198    0.092221     0.22936    0.071831   -0.037024
0.079395     0.66346    0.026776     0.10406     0.15273    0.070516   -0.028144
0.077751      0.6457    0.064267     0.10866    0.062294     0.06361   -0.019594
0.075778     0.63288    0.082355     0.10472  -0.0084125    0.058019   -0.013674
0.078409     0.62466     0.08367    0.096496   -0.042944    0.053086  -0.0093991
0.086301     0.61841    0.074462    0.087617   -0.041957    0.043877  -0.0031506
0.092879      0.6115    0.061307    0.078409   -0.017621    0.026447   0.0047422
0.093536     0.59999    0.050126      0.0692   0.0080309  0.00046697   0.0090175
0.093208     0.58519    0.041904    0.060979     0.01691   -0.030118   0.0073732
0.096496     0.56842    0.046508    0.056703      0.0054   -0.059716 -0.00019077
0.10472     0.55527    0.068543     0.05473   -0.023211   -0.079448   -0.007097
0.11393     0.54573     0.10505    0.056046   -0.058729   -0.082408  -0.0084125
0.11985     0.53751     0.15701    0.063281   -0.092931   -0.067937  -0.0015062
0.12017     0.52271     0.21818    0.076106    -0.12352   -0.046232    0.010004
0.11623     0.50002     0.28132    0.092879    -0.15081   -0.031433    0.025461
0.10834     0.47272     0.32736     0.10899    -0.17548   -0.030118    0.044535
0.10176     0.44246     0.33854     0.12346     -0.1962   -0.039984    0.061307
0.096825      0.4132     0.31092       0.133    -0.21527   -0.056098    0.071502
0.090577     0.38656     0.25698     0.13793    -0.23763   -0.070897    0.070516
0.081368     0.36288     0.19253     0.14122     -0.2623   -0.083065    0.060979
0.0692     0.34413     0.13037     0.14155    -0.28236   -0.089314    0.050126
0.055388     0.33591    0.075778     0.13464    -0.29486   -0.089314    0.040918
0.043877      0.3369    0.031381     0.11886    -0.29946   -0.086354    0.042562
0.038287     0.33953   -0.002164     0.09551    -0.30078   -0.083723    0.054401
0.034669      0.3369   -0.024856     0.07216    -0.30308   -0.085039    0.071831
0.029078     0.32539   -0.038668    0.056703    -0.30242   -0.093918    0.087288
0.018555     0.30697   -0.046232     0.05177    -0.28894     -0.1074    0.091234
0.0077021     0.28461    -0.04689     0.05769    -0.24881    -0.12319    0.087288
0.0040845     0.25863   -0.041957    0.073804    -0.17975    -0.13272    0.080711
0.011648     0.22837   -0.034722    0.092879   -0.091616    -0.13174    0.077422
0.029078     0.19318   -0.025514     0.10866  0.00046697     -0.1176    0.080382
0.049468     0.14583  -0.0097279     0.12215    0.084657    -0.09326    0.093208
0.064267    0.086959   0.0096753     0.13464     0.17345   -0.065307     0.10834
0.07512    0.018884    0.030394     0.13925     0.29546   -0.037024     0.11853
0.077422   -0.050507    0.050455     0.13366      0.4622  -0.0093991     0.12116
0.071502    -0.11365     0.06624     0.11919     0.64866    0.019212     0.11426
0.06065    -0.15969    0.071831    0.099785     0.81211    0.047824     0.10143
0.046508    -0.15673    0.064925    0.081697     0.91965    0.077093    0.089919
0.031709   -0.070568    0.047824    0.068214     0.94991     0.10768    0.083999
0.017239     0.10274    0.027434    0.058019     0.88315     0.13662    0.084657
0.0063866     0.32177    0.010991    0.050455     0.70852     0.16359    0.090577
0.0037556     0.53488    0.002769    0.039931     0.43786     0.18825    0.098141
0.010662     0.69767   0.0017824    0.029407     0.11491     0.20469     0.10274
0.022501     0.77857   0.0080309    0.017897    -0.18995     0.21061    0.097812
0.034669     0.76837    0.016581   0.0070443    -0.40733     0.20963    0.085315
0.045193     0.66971    0.021514   0.0001381    -0.47738     0.20996    0.067556
0.048153     0.49508    0.021186   0.0017824    -0.37543      0.2162    0.051441
0.043877     0.26323    0.021186   0.0093464    -0.12648     0.22739     0.04322
0.032367   -0.011372    0.029078    0.022501     0.19746     0.24218    0.045193
0.017239    -0.32084    0.046837    0.036642      0.5112     0.25896    0.052099
0.0021113    -0.65069    0.070516     0.04881     0.75094     0.27935    0.057032
-0.012359    -0.97693    0.095839    0.059334     0.88874     0.30171    0.057032
-0.025185     -1.2535     0.11228    0.068543     0.92458     0.32144    0.050455
-0.037682     -1.4383     0.10866    0.073476     0.86999     0.33032    0.038944
-0.050179     -1.5061    0.077422    0.070187     0.74272     0.32341    0.029078
-0.061689      -1.463    0.023817    0.056046     0.58289     0.30533     0.02875
-0.073528     -1.3403   -0.036037     0.03434     0.42964     0.28165    0.034669
-0.082736     -1.1782   -0.085367    0.014937     0.29612     0.25238    0.041575
-0.088656     -1.0003    -0.11003   0.0030979     0.17542     0.22114    0.045193
-0.088656    -0.81052    -0.10773   0.0011247    0.057032     0.18463    0.046837
-0.08471    -0.61057   -0.086025   0.0060577     -0.0584     0.14879    0.052757
-0.074844    -0.41226   -0.053138    0.013951    -0.17153     0.12083     0.06624
-0.06136    -0.23599   -0.014003    0.025132    -0.27611     0.10505     0.08367
-0.044917   -0.095562    0.025461    0.040918    -0.36326      0.1011    0.096496
-0.026829   0.0037556    0.054072    0.055388     -0.4218     0.10603     0.10209
-0.0097279     0.06361    0.062623    0.064267    -0.44646     0.10932      0.1057
0.0063866    0.092879    0.052099    0.063938    -0.44054     0.10274     0.11228
0.021843     0.10274    0.032367    0.057032    -0.41884    0.083999     0.12774
0.0373     0.10669     0.01987    0.045851    -0.39056    0.056046     0.15207
0.050126     0.11162    0.029407    0.033683    -0.36194    0.027763       0.182
0.059334     0.12017    0.064925    0.023159    -0.33333   0.0073732     0.20667
0.062623     0.12774     0.11853    0.016581    -0.29518  -0.0024928     0.22048
0.06065       0.133     0.16622    0.014608    -0.24026  -0.0054526     0.21949
0.056703     0.14484     0.17904    0.011648    -0.17515  -0.0077547     0.21094
0.05177     0.18891     0.14287   0.0063866    -0.11168    -0.01499      0.2014
0.049797     0.28954    0.062623   -0.004466    -0.06728   -0.030118     0.18989
0.048153     0.44542   -0.038668   -0.017621   -0.051165   -0.050836     0.17115
0.044864     0.63419    -0.12944   -0.029131    -0.06136   -0.077475     0.13991
0.04026      0.8177    -0.18469   -0.038668   -0.082079    -0.10247    0.099785
0.036314      0.9601     -0.2031   -0.045574   -0.096549    -0.12089     0.06065
0.038616      1.0476    -0.19291   -0.048205   -0.098851    -0.13832    0.029736
0.047824      1.1068    -0.16495   -0.047219   -0.089972    -0.15673   0.0077021
0.059663      1.1873    -0.12582   -0.044588    -0.07583    -0.17515   -0.013017
0.065583      1.2998   -0.083394   -0.044259    -0.06432    -0.18962   -0.038011
0.058019      1.3935   -0.045246   -0.043601   -0.057085    -0.19652   -0.070568
0.035985      1.3886   -0.016963   -0.041299   -0.048205    -0.19784     -0.1051
0.0090175      1.2196   0.0011247   -0.030447   -0.034064     -0.2008     -0.1347
-0.014332     0.86407     0.01691   -0.014332   -0.030118    -0.20771    -0.15476
-0.029789     0.35038      0.0373   0.0021113   -0.064978     -0.2156    -0.16693
-0.040641    -0.24224    0.064596    0.013293    -0.17022    -0.21987    -0.17909
-0.053467    -0.81282     0.09551    0.018555    -0.34846     -0.2156    -0.19192
-0.069582     -1.2874     0.12281    0.018226    -0.56025    -0.20376    -0.20475
-0.091945     -1.6353     0.13991    0.012964    -0.74738    -0.18534    -0.21297
-0.12286      -1.856     0.13958   0.0030979    -0.85821    -0.16857    -0.22382
-0.1564     -1.9675     0.11721   -0.013345    -0.87695    -0.15739    -0.23895
-0.18567     -1.9869    0.080382   -0.033735    -0.82072    -0.15246    -0.25473
-0.20376     -1.9024    0.030723   -0.052481    -0.72567    -0.14259    -0.26559
-0.20475     -1.6656    -0.02354   -0.064978    -0.61813    -0.11957    -0.26427
-0.18863     -1.2555    -0.07024   -0.076817    -0.49086   -0.084052    -0.24947
-0.1564    -0.71219    -0.10181   -0.088327    -0.30571   -0.042944    -0.22152
-0.11595    -0.14259    -0.10773   -0.093918   -0.027158  0.00046697    -0.18205
-0.077146     0.35038   -0.072542   -0.091945     0.34512    0.045193    -0.13996
-0.04689      0.7243   0.0050711   -0.083723     0.75292    0.092221    -0.10313
-0.028802     0.99102      0.1057   -0.068595      1.0831     0.13728   -0.075173
-0.013017      1.1643     0.19647   -0.050179      1.2347     0.17312    -0.05544
0.0017824      1.2419     0.25139   -0.027816      1.1702      0.1991   -0.041628
0.018884      1.2091     0.26488  -0.0061104     0.93511     0.21588   -0.030775
0.036642      1.0634      0.2435    0.010662     0.62367     0.22443   -0.018936
0.053086     0.81672     0.20469    0.023817     0.34545     0.22574  -0.0038083
0.062623     0.49278     0.16063    0.033683     0.20075     0.22245   0.0096753
0.066569      0.1159     0.12609    0.042891     0.24646     0.21949    0.019212
0.06361     -0.2794     0.10505    0.050784     0.47173     0.21555    0.020528
0.058019    -0.65036     0.09551    0.058348     0.80553     0.20831    0.011648
0.049468    -0.96673    0.091563    0.066898      1.1696      0.1922  -0.0018351
0.039931     -1.2177    0.089261    0.077093      1.4952     0.16819   -0.011043
0.027434     -1.4064    0.085972    0.083999      1.7227     0.13925   -0.012688
0.01132     -1.5357    0.071831    0.087617      1.8175     0.10538   -0.011701
-0.0097279     -1.6031    0.039931    0.083999      1.7579    0.067227   -0.011372
-0.028802     -1.6067   -0.011043    0.074462       1.534     0.02579  -0.0087413
-0.043272     -1.5541   -0.072213    0.064925      1.1627   -0.017621   -0.004466
-0.055112     -1.4676    -0.12713    0.059992     0.70885   -0.060045   0.0014536
-0.063662     -1.3663    -0.16594    0.057032     0.25764   -0.095562    0.010333
-0.068924     -1.2571    -0.18534    0.053086    -0.12384    -0.11891    0.019541
-0.067609     -1.1335    -0.18765    0.046837    -0.40963    -0.14029    0.023817
-0.059716     -0.9835    -0.17844    0.038616    -0.60465    -0.16857    0.021186
-0.045574    -0.80263    -0.15936    0.026447    -0.73784    -0.20738    0.013951
-0.029131    -0.59281    -0.13371    0.010333    -0.83519    -0.25079   0.0057288
-0.013674     -0.3649    -0.10641   -0.007097    -0.91444    -0.28927  -0.0015062
0.00079584    -0.13207   -0.079448   -0.021567    -0.96936    -0.31623  -0.0041372
0.012635    0.095839   -0.050179   -0.027816    -0.98646    -0.33004 -0.00051963
0.024474      0.3096   -0.012688   -0.027487    -0.95752    -0.32972   0.0063866
0.037958     0.49541    0.033683   -0.023211    -0.88846    -0.31623    0.014608
0.051441      0.6434    0.084328   -0.021567    -0.79177    -0.29617    0.018555
0.061965     0.75028     0.12971   -0.019594    -0.68851    -0.27085    0.016253
0.068871     0.81968     0.16227   -0.016305    -0.59709    -0.24289    0.010333
0.075449     0.86111     0.17542  -0.0084125    -0.51618    -0.21527   0.0080309
0.081697     0.89071     0.16424   0.0037556    -0.43199    -0.19126    0.012635
0.087946     0.91373      0.1284    0.019212    -0.33366    -0.16824    0.023159
0.091234     0.92491    0.079724    0.034998    -0.21231    -0.14621    0.038287
0.089261     0.92162    0.029078    0.048153   -0.056427    -0.12516    0.054072
0.084328     0.90748    -0.01499    0.055059     0.12182    -0.10609    0.064925
0.077751     0.88808   -0.048205    0.057032     0.28888   -0.086683    0.063281
0.073476     0.86637   -0.069582    0.059992     0.40728   -0.061689    0.049468
0.072489     0.84072   -0.076159    0.064267     0.43687   -0.030118    0.037629
0.076764     0.80455   -0.074186    0.067556     0.35959      0.0054    0.035327
0.082355     0.75785   -0.070897    0.062294     0.19121    0.038287    0.045193
0.085315     0.70161   -0.068924    0.050126   -0.021896    0.066569     0.06065
0.086301     0.63419   -0.063004    0.035327    -0.21987    0.092879    0.074133
0.083342     0.55033   -0.047548    0.026776    -0.36129     0.11524    0.082026
0.074791     0.45529     -0.0265    0.026776    -0.43594       0.133    0.082026
0.063938     0.35827   -0.007097    0.031381    -0.46159     0.14747    0.078737
0.057032     0.27244  0.00046697    0.036971    -0.46324     0.16391    0.077093
0.055388     0.20502   -0.010057    0.041575    -0.46159     0.19121    0.076435
0.057361     0.16128   -0.036366    0.040918    -0.45304     0.23166    0.072818
0.052757     0.14089    -0.07287    0.035656    -0.41818     0.27737    0.065254
0.039602     0.14024    -0.10937    0.026776    -0.34123      0.3198    0.052428
0.02283     0.15865    -0.13601    0.021843    -0.23566     0.35236    0.040589
0.0077021     0.19779    -0.14983    0.021514    -0.11858     0.37538    0.034011
-0.00051963     0.25304    -0.15443    0.023817   -0.018936     0.38985    0.035985
0.0030979     0.31322    -0.15377    0.026119    0.044864     0.39675    0.042891
0.018555     0.36683    -0.15081    0.024474     0.07808     0.40169     0.04618
0.037958     0.40826     -0.1495    0.021186    0.092879     0.40103    0.040589
0.045851     0.43227    -0.14752    0.022501    0.094194     0.38458    0.028092
0.038944     0.43885    -0.14391    0.031709    0.073476      0.3517    0.020857
0.02579      0.4372    -0.14062    0.045193     0.02579      0.3073    0.017897
0.017568     0.43687    -0.14226    0.053086   -0.029789     0.26652    0.019541
0.019541     0.43655    -0.14687    0.054072   -0.072213      0.2389    0.022172
0.031709     0.43753    -0.14785    0.051113   -0.090629     0.23067    0.026447
0.04618     0.43391    -0.14062    0.049797   -0.096878     0.24153    0.032038
0.058348     0.42734    -0.12089    0.053415    -0.11102     0.26751    0.041904
0.067556     0.41813   -0.082736    0.061636    -0.13075     0.29645    0.056703
0.073147     0.40958   -0.030775     0.07512    -0.13371     0.32243    0.074133
0.079066     0.40136    0.020199    0.096825    -0.10411     0.33986    0.091563
0.087288     0.38721    0.052099     0.11754   -0.048534     0.34545     0.10406
0.095181     0.36814    0.062952     0.13267    0.010662     0.33788     0.10834
0.1011     0.34742    0.062623     0.13859    0.051113     0.31782      0.1057
0.10176      0.3267     0.06065     0.13629    0.064267     0.28527    0.099127
0.098798     0.30927    0.058019     0.12379    0.063938      0.2412    0.092879
0.092221     0.28954    0.059992     0.10143     0.07216      0.1945     0.08959
0.082684     0.26389     0.07216    0.071502     0.10505     0.14879    0.090577
0.074133     0.23166     0.10209    0.041904     0.16063     0.10702     0.08959
0.064925     0.20009     0.15306    0.020199     0.22771    0.064267    0.080711
0.059663     0.18891     0.22278      0.0054     0.29743    0.017568    0.064267
0.057361     0.23922     0.29151  -0.0051238     0.35268   -0.033406    0.047495
0.055717     0.40333     0.33295   -0.014003     0.37899   -0.083394     0.03434
0.050784     0.68484      0.3346     -0.0265     0.36584    -0.13141    0.026776
0.042891      1.0236     0.30368   -0.042286     0.30993    -0.17613    0.022172
0.034669      1.3245     0.25468   -0.059716     0.21785    -0.21034    0.022501
0.024803      1.5024      0.2014   -0.075501     0.10801    -0.23171    0.025461
0.017897      1.5096     0.15503   -0.090958   -0.004466    -0.24553    0.029078
0.014279      1.3439     0.11656    -0.10773    -0.11036    -0.26032    0.031381
0.012964       1.039    0.078737    -0.12384    -0.20672    -0.27874    0.030723
0.010004     0.64735    0.038616    -0.14062    -0.29782    -0.29913    0.022172
0.0044134      0.2162    0.002769    -0.15542    -0.38529    -0.31919   0.0060577
-0.0034794    -0.22349   -0.019923    -0.16397    -0.45896    -0.33564   -0.013345
-0.0080836     -0.6474   -0.020581    -0.15969    -0.50303    -0.34287   -0.025842
-0.011372     -1.0345  -0.0077547    -0.14193    -0.50237    -0.33892   -0.026171
-0.011701     -1.3301   0.0044134    -0.11497    -0.45107    -0.32314   -0.016963
-0.012359     -1.4535 -0.00019077   -0.080434    -0.35734    -0.29913  -0.0054526
-0.010715     -1.3594   -0.033406   -0.042286    -0.24585    -0.27019   0.0021113
-0.0087413     -1.0917    -0.10247  -0.0087413     -0.1643    -0.24125   0.0047422
-0.010715    -0.76185    -0.19685    0.011648     -0.1587    -0.21659   0.0037556
-0.018936    -0.49678    -0.29025    0.019541    -0.24388     -0.1985  -0.0015062
-0.030118    -0.38431    -0.35668    0.017568    -0.38628    -0.19126   -0.013674
-0.036366    -0.43726    -0.37937    0.012964    -0.52441    -0.19948   -0.031762
-0.039326    -0.60136    -0.35043    0.017239    -0.58623    -0.21922   -0.052481
-0.038668    -0.77369    -0.26296    0.039602    -0.50961    -0.24191   -0.066951
-0.036366    -0.83387    -0.11431    0.079395    -0.27151    -0.25638   -0.065964
-0.025185    -0.71844    0.073147     0.12609     0.08367    -0.25145   -0.051494
-0.0051238    -0.46883      0.2481     0.17016     0.45792    -0.23073   -0.031104
0.018884    -0.20606     0.36025      0.2014     0.74831    -0.20146   -0.011701
0.040918   -0.048534     0.37768     0.21588     0.89071    -0.17054   0.0067154
0.057361   -0.049192     0.31289     0.21094     0.87854    -0.13799    0.025132
0.067885    -0.18765     0.20502     0.18792     0.74996    -0.10609    0.042562
0.072489    -0.40174    0.097154     0.15142     0.55823   -0.078461    0.057361
0.065912    -0.62537    0.018226     0.10965     0.35531   -0.060045    0.067885
0.044864    -0.81348   -0.020581    0.081368     0.18858   -0.053138    0.071502
0.015266    -0.95029   -0.020909    0.077751    0.090577   -0.056098      0.0692
-0.0087413     -1.0361   0.0080309    0.096496    0.072489   -0.061689    0.064596
-0.022225     -1.0776     0.04618     0.12807      0.1136   -0.058729    0.061307
-0.030118     -1.0799    0.079066     0.15767     0.17181   -0.048205    0.058019
-0.036037      -1.043    0.098141     0.17115     0.20601   -0.033735    0.056046
-0.041957    -0.96542     0.10274     0.16457     0.19549   -0.019923    0.054401
-0.051165    -0.85229    0.097483     0.14385     0.13037  -0.0074258    0.052099
-0.062347    -0.71844    0.083999     0.11294    0.014937   0.0017824    0.049139
-0.071555    -0.58755    0.065583    0.072818    -0.12549   0.0093464    0.046508
-0.075173    -0.48067    0.039602    0.026447    -0.24651    0.018555    0.039931
-0.074186    -0.40733   0.0044134   -0.020581    -0.28894    0.033683    0.031052
-0.073857    -0.36392   -0.040313   -0.061031    -0.21198    0.063281    0.025461
-0.076817    -0.34156   -0.088656   -0.087012   0.0021113      0.1057    0.027763
-0.081092    -0.33399    -0.12746   -0.093589     0.35795     0.15734    0.038287
-0.084052    -0.34715    -0.14851   -0.083723     0.82132     0.21752    0.050784
-0.086025    -0.38628    -0.15279   -0.063004      1.2959     0.28428    0.059005
-0.088656     -0.4366    -0.14752   -0.043272      1.6678     0.34676    0.057032
-0.087341    -0.47212    -0.14423   -0.032749      1.8375     0.39248    0.047495
-0.079448    -0.46948    -0.15048   -0.034064      1.7451      0.4155    0.037629
-0.064978    -0.42575    -0.16265   -0.046232      1.4051      0.4132    0.034998
-0.042286    -0.34978    -0.17285   -0.066293     0.91307     0.38689     0.04026
-0.016963    -0.25342    -0.16298   -0.086354     0.40366     0.34117    0.049468
0.0073732    -0.13996     -0.1176    -0.10115  -0.0084125     0.27803    0.061307
0.024145   0.0090175     -0.0265    -0.10905    -0.27414     0.21061    0.069529
0.031381     0.20338     0.10834    -0.11233    -0.40766      0.1478    0.068543
0.032696     0.43622     0.26718    -0.10905      -0.456     0.10011    0.058019
0.03434     0.67497     0.40596    -0.09622    -0.46324    0.072489    0.045193
0.039602     0.88282     0.47798   -0.077803    -0.45995    0.061636    0.032367
0.050126      1.0292     0.46746   -0.059058     -0.4435    0.059334    0.021186
0.065583      1.1035     0.39741   -0.046232     -0.3899    0.056703    0.012635
0.077751      1.1134     0.31486   -0.038997    -0.27315    0.052757   0.0090175
0.076764      1.0706     0.25961   -0.027158   -0.088985    0.049139    0.010662
0.058019     0.99167     0.24712  -0.0090702     0.11985    0.045851     0.01132
0.031709     0.87953     0.26915    0.019212     0.28461     0.04322   0.0073732
0.014279     0.73581     0.31026    0.052428     0.35531    0.039931  -0.0028217
0.011977      0.5648     0.35236    0.083013     0.32407    0.033683   -0.016305
0.021514     0.38195     0.37932     0.10472     0.22081    0.024474   -0.026171
0.034669     0.20732     0.37834     0.11689    0.092221    0.017897   -0.027816
0.042233    0.065583     0.34512     0.12215   -0.026171    0.016253   -0.022554
0.037958    -0.03242     0.28527      0.1182    -0.12549    0.018884   -0.013674
0.022501   -0.092603      0.2116     0.11064    -0.20968    0.023817  -0.0064392
0.002769    -0.12253      0.1376     0.10801    -0.28466    0.025132  -0.0008485
-0.01499     -0.1176    0.076435     0.11853    -0.35767     0.01987   0.0024402
-0.026829   -0.066951    0.029736     0.13859    -0.44318   0.0057288  0.00079584
-0.02946    0.034669  -0.0064392     0.15931     -0.5471   -0.020909  -0.0064392
-0.01795     0.17477   -0.033735     0.17542    -0.66023   -0.058071   -0.014332
0.0024402      0.3221   -0.055769     0.18003    -0.75067    -0.09622   -0.016634
0.02283     0.44214   -0.073528     0.18036    -0.78651    -0.12154   -0.012359
0.038287     0.50659   -0.086354     0.18167    -0.75691    -0.12878  -0.0011774
0.047166     0.50692   -0.095891     0.18792    -0.69542     -0.1222    0.014608
0.049139      0.4497    -0.10707     0.19877    -0.65957    -0.10477    0.033354
0.050784      0.3517    -0.12286      0.2116    -0.68719   -0.087012    0.047495
0.050126     0.23495    -0.15147     0.21555     -0.7704   -0.075501     0.05177
0.046508      0.1136     -0.1985     0.20206    -0.86709   -0.074844    0.047495
0.040918   -0.002164    -0.26427     0.16622    -0.92234   -0.082408    0.039931
0.030723   -0.099838    -0.33596     0.11458    -0.88912   -0.092931    0.036314
0.015924    -0.16627     -0.3922     0.06065    -0.75363    -0.09918    0.034998
-0.0008485    -0.18995    -0.39483    0.017568    -0.53822   -0.097207    0.037629
-0.013674    -0.17318    -0.29749  -0.0080836    -0.28565   -0.088985    0.041904
-0.020909    -0.12352   -0.097864   -0.016634   -0.036366   -0.077803    0.041247
-0.027158   -0.054454     0.14254   -0.016305     0.18496   -0.067937    0.032367
-0.031104    0.017239     0.33657   -0.017292     0.38919   -0.061031    0.014937
-0.025842    0.074462     0.42175   -0.027487     0.60229   -0.058729  -0.0015062
-0.012688     0.11524     0.39281   -0.042286     0.84072   -0.058729   -0.007097
-0.0008485     0.14747     0.28691    -0.05544      1.0976   -0.053467  -0.0047949
0.0037556     0.17575     0.15832   -0.063004       1.335   -0.038668  -0.0008485
0.0054     0.20338     0.04618    -0.06432      1.4919   -0.012688  -0.0024928
0.010333     0.22837   -0.031762   -0.060045      1.5208    0.021843  -0.0080836
0.01691     0.24416   -0.078461   -0.051494      1.4097    0.058676   -0.014003
0.024474     0.24712    -0.10247   -0.038997      1.2045    0.091563   -0.014332
0.027434     0.23955    -0.11365   -0.022883     0.97885     0.11097  -0.0067681
0.026776      0.2241     -0.1199  -0.0061104     0.79106      0.1159     0.01132
0.024145     0.20601    -0.12417   0.0077021      0.6559     0.10998    0.032038
0.024145     0.18693    -0.12615    0.017897      0.5477     0.10176    0.046508
0.029407     0.16786    -0.13009    0.024474     0.43194    0.096825    0.049139
0.038616     0.15273    -0.13536    0.025132     0.29447    0.098798    0.043877
0.046837     0.14155     -0.1393    0.019212     0.14089      0.1011    0.036642
0.05177     0.13464      -0.137   0.0080309   -0.014661     0.10143    0.033025
0.052757     0.13464    -0.12713  -0.0054526    -0.16035    0.098141    0.031381
0.050455     0.13728    -0.11332   -0.021567    -0.29058    0.090248    0.028421
0.042891     0.13991   -0.098851   -0.038668    -0.40503    0.083342     0.02283
0.032038      0.1376   -0.087998   -0.054783    -0.49941    0.079395    0.012306
0.020857     0.12905   -0.085696    -0.06728    -0.57308    0.080711   0.0057288
0.0093464     0.11426   -0.093589    -0.07583    -0.62405    0.088603    0.015266
0.0024402    0.098141    -0.10543   -0.077146     -0.6599    0.099456    0.041575
0.0050711     0.08367    -0.11365   -0.069582    -0.70199     0.10242    0.081368
0.017568    0.076435    -0.11694   -0.062018    -0.76843     0.08663     0.11952
0.033354    0.078409    -0.11924   -0.058729    -0.86149    0.047495     0.14813
0.046837    0.083999    -0.12253   -0.057743    -0.96607   -0.004466     0.16194
0.052099    0.085972     -0.1268   -0.053138     -1.0545   -0.056756     0.16128
0.051441    0.085315    -0.12812   -0.043601     -1.0986   -0.097536     0.14813
0.048153    0.085972    -0.12779   -0.034064     -1.0841    -0.12056     0.12478
0.046508    0.088603    -0.12615   -0.028473     -1.0154     -0.1268    0.093536
0.046837    0.097812    -0.11793   -0.030118    -0.90885     -0.1222    0.055059
0.04618     0.13925    -0.10609   -0.038668    -0.78421    -0.11562    0.014937
0.041904     0.25172   -0.096549   -0.045574    -0.65957    -0.11398   -0.020909
0.038616     0.44838   -0.096878   -0.043272     -0.5494    -0.11464   -0.048205
0.042891     0.68616     -0.1051   -0.031762    -0.46192    -0.10905   -0.062676
0.056374     0.88512    -0.11694   -0.019265    -0.39779   -0.096549   -0.062018
0.073476      0.9726    -0.13075    -0.01499    -0.35405   -0.071555   -0.045903
0.084986     0.91505    -0.14555   -0.021896    -0.33004   -0.037353   -0.021896
0.08959     0.72693    -0.15607    -0.03242    -0.32873   0.0011247   0.0014536
0.090248     0.45661    -0.16002   -0.037024    -0.34156    0.038616    0.015266
0.084986      0.1603    -0.15509   -0.033735    -0.35011    0.077093    0.017897
0.075449    -0.12089    -0.14391   -0.024198    -0.32347      0.1159    0.016253
0.064267    -0.36063    -0.12713   -0.011701    -0.22678     0.15175    0.016581
0.052428    -0.54841     -0.1051   0.0021113   -0.028473     0.18397    0.020528
0.041575    -0.69476    -0.07583    0.017239     0.25139     0.20963    0.022172
0.03434    -0.81151   -0.032749    0.032038     0.53751     0.23199     0.01987
0.030723    -0.89931    0.032696    0.051113     0.73877       0.256    0.017239
0.026119     -0.9516     0.12642    0.074133     0.80093     0.28296    0.020857
0.018884    -0.95654      0.2412    0.096496     0.73614     0.31223    0.024145
0.0096753    -0.89405     0.35203     0.11195     0.61676     0.34084    0.025461
-0.0008485    -0.73225     0.42503     0.11393     0.51778     0.36123    0.022501
-0.0093991    -0.45765      0.4395     0.10307     0.49344     0.36452     0.01691
-0.01499     -0.0903     0.39511     0.08663     0.55691     0.35071   0.0083598
-0.01795     0.30862      0.3119    0.069529     0.69043     0.32177   0.0024402
-0.01499     0.65952     0.21489    0.056374     0.85519     0.28888   0.0011247
-0.0090702     0.89268     0.12511    0.042891      1.0009     0.25567   0.0077021
-0.0028217     0.97655    0.053743    0.031381       1.089     0.22673    0.021843
0.0030979     0.91866   0.0030979    0.019212      1.0949     0.20009    0.036314
0.012635     0.75719   -0.027816   0.0083598      1.0206      0.1695    0.043877
0.024474     0.54507   -0.042944 -0.00051963     0.88084     0.12971    0.044535
0.03434     0.32243   -0.043272  -0.0061104     0.70095    0.079724    0.038616
0.037629     0.10307    -0.03242  -0.0097279     0.50331    0.024145    0.029407
0.033354    -0.12154   -0.011043  -0.0097279     0.30631   -0.031433    0.022501
0.020857    -0.35011    0.020857  -0.0061104     0.12346   -0.073199    0.017239
0.0090175    -0.54743    0.057032 -0.00019077   -0.034064   -0.095233    0.012635
0.0001381    -0.66023    0.084328   0.0080309    -0.16528   -0.098851   0.0083598
-0.0084125    -0.66713    0.094523    0.014279    -0.27184   -0.087998   0.0044134
-0.019594    -0.59774    0.083342    0.014608     -0.3649    -0.07287   0.0037556
-0.037024    -0.51125    0.052099    0.012964    -0.45765     -0.0584   0.0040845
-0.060702     -0.4583   0.0021113     0.01132     -0.5642   -0.051165   0.0037556
-0.081421    -0.46784   -0.054454   0.0057288    -0.68555   -0.052152    0.002769
-0.089972    -0.53559     -0.1005  -0.0051238    -0.79079   -0.057414  -0.0008485
-0.084381    -0.63326    -0.12648   -0.016634    -0.82795    -0.06136  -0.0054526
-0.068266    -0.73225    -0.13371   -0.024527    -0.74935   -0.058729   -0.013017
-0.047877     -0.8194     -0.1222   -0.027158    -0.53822   -0.052152    -0.02354
-0.028802    -0.90293   -0.094576   -0.023869    -0.23007    -0.04689    -0.02946
-0.013345     -1.0016   -0.060045   -0.015976     0.10899   -0.047877   -0.033735
-0.0028217     -1.1236   -0.027158  -0.0051238     0.42142   -0.055112   -0.038668
0.002769     -1.2535   0.0024402   0.0083598     0.68616   -0.066622   -0.044259
0.0040845     -1.3568    0.024474    0.027434     0.89038   -0.078461   -0.048863
0.002769     -1.3883     0.03434    0.052428      1.0006   -0.087669   -0.047877
0.0021113      -1.318    0.032367    0.076764      0.9897   -0.088985   -0.037024
0.0034268     -1.1532    0.024474    0.095839     0.87295   -0.084052   -0.023211
0.0067154    -0.93089   0.0083598     0.10834     0.69767   -0.073528   -0.007097
0.0083598    -0.69344   -0.021567     0.11787     0.50922   -0.062018   0.0073732
0.0047422    -0.46455   -0.061689     0.12313     0.32966   -0.056098     0.01691
-0.0028217    -0.24487    -0.10148     0.12281      0.1672   -0.061689    0.021843
-0.0097279   -0.032749    -0.11628     0.11787    0.026776   -0.080763    0.024145
-0.016305     0.16852   -0.091287     0.10965   -0.079119     -0.1051    0.023159
-0.021567     0.34315   -0.027816     0.10077    -0.14621    -0.12615    0.018555
-0.025514     0.47436    0.063281    0.094194    -0.18304    -0.13634    0.014937
-0.024856     0.55428     0.16391    0.093865    -0.20409    -0.13404    0.014608
-0.02354     0.59736     0.25271     0.10209    -0.22316    -0.12253    0.018226
-0.021567     0.62597     0.31256     0.11426    -0.24454    -0.11266    0.024803
-0.019923     0.65952     0.33098     0.12577    -0.26098     -0.1074    0.031709
-0.016634      0.7003     0.31223     0.13201    -0.24421     -0.1051    0.035985
-0.015648     0.74042     0.27376     0.13201    -0.17416    -0.10477    0.042891
-0.018607     0.77166     0.23331     0.12873   -0.060045    -0.10148    0.052099
-0.02354     0.80652     0.20568     0.12248    0.070845    -0.09918    0.060321
-0.026171     0.88676     0.19746      0.1182     0.19253   -0.094576    0.059005
-0.020252      1.0545      0.2139     0.11787     0.28855   -0.093589    0.048482
-0.0038083      1.3077     0.25698     0.11853     0.35795   -0.098193    0.029407
0.020199      1.5859     0.32045      0.1205     0.41385    -0.10411   0.0096753
0.042562      1.8007     0.38426     0.12182     0.46614    -0.10444  -0.0024928
0.056046       1.876     0.41254     0.12346     0.49541   -0.094247  -0.0090702
0.060321      1.7737     0.38426     0.12215     0.47667   -0.071226   -0.011701
0.057361      1.4991     0.29974     0.11327     0.39149    -0.04097   -0.014332
0.051441      1.1009     0.17838    0.092879      0.2583   -0.014661   -0.012688
0.044864      0.6513    0.047495    0.068543     0.12017  0.00046697  -0.0080836
0.044206     0.21752   -0.066951    0.044864    0.011977   0.0047422  -0.0034794
0.046837    -0.15311    -0.15048    0.027105   -0.065635   0.0047422   0.0001381
0.053415    -0.45074    -0.19126    0.016581    -0.14358   0.0070443   0.0077021
0.056703    -0.69015    -0.19258    0.010004    -0.25473    0.011977     0.01691
0.052099    -0.88386    -0.16726   0.0047422    -0.40963    0.016253    0.026776
0.040918     -1.0184    -0.13305  -0.0015062    -0.59413    0.018226    0.033025
0.024474     -1.0739    -0.10444   -0.007097    -0.76349    0.013622     0.03434
0.0070443      -1.044   -0.089643   -0.011372    -0.87235   0.0080309    0.027434
-0.010057    -0.94503   -0.090958   -0.013017    -0.89537   0.0077021    0.017239
-0.024527     -0.8092    -0.10247   -0.012359    -0.83288    0.019212    0.013951
-0.035708    -0.67141    -0.11233   -0.011372    -0.70462    0.041904    0.023159
-0.039984    -0.55499    -0.10872  -0.0064392    -0.54381    0.073804    0.043877
-0.03538    -0.46258   -0.089643   0.0047422    -0.38595     0.10768     0.07216
-0.016305    -0.38858   -0.063662    0.017897    -0.25112     0.13925     0.10077
0.011648    -0.32708   -0.035051    0.029078    -0.14983     0.16654     0.12313
0.036642    -0.27743   -0.012359    0.032367   -0.085696     0.18661     0.13892
0.052099    -0.23467  0.00046697     0.01987   -0.057743     0.19483     0.14616
0.059663    -0.19521   0.0050711  -0.0054526   -0.057085     0.18825     0.14221
0.06065    -0.15443   0.0040845    -0.03538    -0.07024     0.17148     0.13037
0.055717    -0.11299 -0.00051963   -0.061689    -0.07879     0.15109     0.11721
0.050455   -0.072542  -0.0064392   -0.081421   -0.071226     0.12905      0.1057
0.051441   -0.018936   -0.014003   -0.091616   -0.037024     0.10373    0.094852
0.057032    0.081697   -0.024856   -0.094576    0.021514    0.074133    0.080711
0.064596     0.26817   -0.038339   -0.095891    0.090248    0.039273    0.061636
0.073804     0.53849   -0.051494   -0.099509     0.14977   0.0070443    0.039602
0.082684     0.84664     -0.0584    -0.10872       0.182   -0.015648    0.021843
0.087946      1.1285   -0.055112    -0.11858     0.17279   -0.025514    0.013293
0.081697      1.3373   -0.044588    -0.12384     0.12017   -0.025514     0.01132
0.068543       1.485   -0.034064     -0.1245    0.033025   -0.023211    0.014608
0.055059      1.6129   -0.027816     -0.1245   -0.057085   -0.024198    0.020857
0.043549      1.7343   -0.025514    -0.12121    -0.10839   -0.024856    0.024145
0.035327      1.8125   -0.023869    -0.11464   -0.090629   -0.024856    0.016253
0.030394      1.7888   -0.017292    -0.10181  0.00079584   -0.025514  -0.0064392
0.02875      1.6247  -0.0051238   -0.083723     0.15503   -0.025842   -0.033735
0.031709      1.3478    0.015266   -0.057743     0.32703   -0.024856   -0.049521
0.039602      1.0334     0.04026   -0.031104     0.45332   -0.020909   -0.049192
0.049468     0.74634    0.058019  -0.0097279     0.47897   -0.013017   -0.035708
0.058676     0.49541    0.052757      0.0054     0.38294   0.0014536   -0.016305
0.064267     0.24613    0.023817    0.015266     0.18858    0.019541   0.0021113
0.064267   -0.049521   -0.025842    0.023488   -0.044588    0.033683    0.013293
0.05769    -0.40963   -0.085367    0.033025     -0.2498    0.042562    0.014608
0.046508    -0.81578    -0.14522    0.040589    -0.38431    0.045522   0.0093464
0.032367     -1.2302     -0.1906     0.04618    -0.43462     0.04618   0.0030979
0.015924     -1.6021    -0.20771    0.051441    -0.41423    0.045851   -0.002164
-0.004466     -1.8859    -0.19587    0.053086    -0.34846    0.045193  -0.0077547
-0.028473     -2.0527    -0.16068    0.052099    -0.26328     0.04322   -0.016305
-0.051494     -2.1089    -0.11003    0.048482    -0.17318    0.037629   -0.019594
-0.071226     -2.0885    -0.05281    0.043877   -0.083065    0.027763   -0.013674
-0.079448     -2.0211   0.0067154    0.037629   -0.002164    0.013293   0.0001381
-0.070568     -1.9155    0.058019    0.032038    0.063281  -0.0041372    0.017568
-0.051823     -1.7649    0.099456    0.026447     0.10834   -0.018607    0.030394
-0.034064     -1.5613     0.13695     0.01987     0.13169   -0.028802    0.029078
-0.022225     -1.3071     0.17444     0.01691     0.13892   -0.038011     0.01691
-0.018936     -1.0203     0.20831    0.017897     0.14122   -0.046561   0.0047422
-0.021238    -0.72271     0.22739    0.023159     0.14188    -0.05281  -0.0011774
-0.025842    -0.43923     0.21982    0.032038     0.14089   -0.056098  -0.0051238
-0.027816    -0.18304     0.18332    0.044535     0.13037     -0.0584   -0.010057
-0.022883    0.034998     0.12379    0.060979     0.10702   -0.063004   -0.017621
-0.007097     0.20963    0.059992    0.080382    0.073147   -0.077146   -0.029789
0.013622     0.34183     0.01691    0.097154    0.026119    -0.10017   -0.046232
0.030723     0.43655    0.013293     0.10669   -0.033735    -0.12417   -0.064978
0.042562     0.51317     0.04322     0.10538    -0.10115    -0.14292   -0.077146
0.04881     0.59769    0.089261    0.097483    -0.16758    -0.15377    -0.07583
0.052428     0.70457     0.13136    0.091892     -0.2281    -0.15476   -0.065635
0.05769      0.8256     0.15503    0.093865    -0.28104    -0.14719   -0.056098
0.06624     0.93379     0.16622    0.097483    -0.32511    -0.13536   -0.049521
0.078737     0.99562     0.17608    0.097154     -0.3557    -0.12384   -0.042286
0.08959     0.99003     0.19055    0.090248    -0.36589    -0.11069   -0.033406
0.092221      0.9236     0.20075    0.075778     -0.3603   -0.089972   -0.022554
0.086301      0.8131     0.18825    0.060321    -0.35011   -0.063004   -0.013674
0.073147     0.67991     0.13267     0.04618    -0.35043   -0.034722  -0.0093991
0.054401     0.54737    0.031052    0.031052    -0.36194   -0.011701   -0.011372
0.033683     0.42898   -0.095562    0.012306    -0.37181   0.0070443    -0.01795
0.01691     0.33032    -0.21264  -0.0090702    -0.35767    0.024474   -0.028144
0.010662      0.2481    -0.28367   -0.025514    -0.30341    0.040918   -0.036366
0.017568     0.17641     -0.2965   -0.036695    -0.20836    0.054072   -0.040313
0.033025     0.11491    -0.26164   -0.042944   -0.086354    0.060979   -0.039326
0.046508     0.06361     -0.2054   -0.050179    0.043877    0.063938   -0.034064
0.051113    0.023488    -0.15377   -0.054125     0.17246    0.069529   -0.027487
0.047495  -0.0034794    -0.11497    -0.04689     0.30237    0.083013   -0.022883
0.041247    -0.01203   -0.087012   -0.030118     0.45562     0.10176   -0.022225
0.03434   0.0030979    -0.06728  -0.0077547     0.65458     0.12215   -0.018278
0.026119    0.037629   -0.055769   0.0070443     0.89762     0.14418  -0.0034794
0.01691    0.083013   -0.045246    0.014937      1.1479      0.1649    0.021843
0.0077021     0.12807   -0.024527    0.021843      1.3465     0.18167    0.044864
0.00079584     0.17016    0.012635    0.030065      1.4445      0.1922    0.061965
-0.0011774     0.20798    0.066898    0.045522      1.4218     0.19614    0.072818
-0.0018351     0.24449     0.13234     0.06624      1.3028     0.19845    0.078409
-0.00051963     0.28198     0.19877    0.086301      1.1298     0.19779     0.07808
0.0034268     0.32407     0.26027     0.10077     0.95056     0.19022     0.07216
0.0093464     0.36156     0.31026     0.10505     0.81606     0.18003    0.060979
0.018226     0.38458     0.33657     0.10077     0.74042     0.17214    0.048153
0.025132      0.3813     0.32703    0.087946     0.70523     0.17016    0.040918
0.027105     0.35696     0.27836    0.072489     0.67728     0.17148    0.038944
0.022501     0.32111     0.20338    0.056703     0.62203     0.17674    0.042233
0.012306     0.28527     0.11656    0.046508     0.51218     0.18134     0.04322
0.0001381     0.25764    0.032696    0.045193     0.33821     0.17641    0.039273
-0.0061104     0.24251   -0.040641    0.052428     0.12511     0.15799    0.031052
-0.0061104      0.2412   -0.092603    0.061307   -0.097207     0.13366    0.024803
-0.0041372     0.25896     -0.1222    0.064267    -0.30176     0.11195    0.021514
-0.0034794     0.30697    -0.13766    0.059663     -0.4731    0.097154    0.021843
-0.0064392     0.39313    -0.14588    0.047495    -0.60037    0.084328    0.022172
-0.010057     0.51054    -0.15509     0.03434    -0.67996     0.07216    0.021514
-0.0097279     0.65919    -0.16791    0.025461    -0.71054    0.058348    0.019541
0.0001381      0.8746    -0.17844    0.021514    -0.69607    0.042562    0.018226
0.017897      1.1906    -0.17778    0.021186    -0.64839     0.01987    0.019212
0.038287      1.5771    -0.16166    0.020199    -0.58229  -0.0067681    0.025461
0.055388      1.9375    -0.13634    0.013293    -0.50862   -0.034064    0.038287
0.063938       2.174    -0.11365    0.002769    -0.44383   -0.060045     0.05769
0.067227      2.2585   -0.096878   -0.012688    -0.40141   -0.083065    0.080053
0.072818      2.2417   -0.086354   -0.031433    -0.38858   -0.097536     0.10044
0.083999      2.1753   -0.076817   -0.047548    -0.40437    -0.09622     0.11623
0.10011      2.0355   -0.062676   -0.056756    -0.43758   -0.082079     0.12544
0.11985      1.7579   -0.038339   -0.056756    -0.47804    -0.06432     0.13201
0.13892      1.2929   -0.004466   -0.045246    -0.52671   -0.055769     0.13793
0.15175     0.63683    0.032038   -0.027487    -0.58261   -0.060373     0.14879
0.15306    -0.16265    0.059992  -0.0041372    -0.64444   -0.073528     0.16654
0.13563     -1.0039    0.073147    0.022501     -0.7112   -0.088985     0.18989
0.098798     -1.7859    0.076106    0.053086     -0.7773   -0.096878     0.21489
0.04618     -2.4378    0.076435    0.085315    -0.84143   -0.091287     0.23232
-0.011701     -2.9294    0.078409     0.11524    -0.89208   -0.076488     0.23988
-0.065964     -3.2658    0.082026     0.13859    -0.91082   -0.055769     0.23791
-0.10806     -3.4711    0.084328     0.15832    -0.87268   -0.034393     0.22804
-0.13667     -3.5779    0.082026     0.17641    -0.75198   -0.011701     0.21226
-0.15147     -3.5996    0.075778      0.1968    -0.54019    0.017239     0.19351
-0.15903      -3.527     0.06065     0.22147     -0.2498    0.055388     0.17115
-0.16265     -3.3398    0.035985     0.24547     0.10242     0.10373     0.15175
-0.16232      -3.034   0.0047422      0.2629     0.48588     0.16128     0.13497
-0.15838     -2.6354   -0.027487     0.26488     0.87197     0.21785     0.11754
-0.1564     -2.1868   -0.055769     0.24975      1.2229     0.25929     0.10011
-0.15838     -1.7323   -0.073199     0.22344      1.4856     0.27869    0.082026
-0.16397     -1.3005   -0.079119     0.19614      1.6175     0.28066    0.064267
-0.16791    -0.90754   -0.080763     0.17444      1.6172     0.26981     0.04618
-0.16726    -0.55927   -0.080106      0.1626      1.5271     0.25172    0.023488
-0.15772    -0.25539   -0.079448      0.1626      1.4011     0.22837  -0.0008485
-0.1416   -0.002164   -0.075173     0.17016      1.2735     0.20108   -0.025514
-0.12089     0.19483   -0.063333     0.17477      1.1436     0.17181   -0.050836
-0.094576     0.33788   -0.048534     0.16622     0.98608     0.13859   -0.073857
-0.069253     0.42898   -0.036695     0.14122       0.771     0.10044   -0.093589
-0.055112       0.477   -0.036695     0.10538     0.48851    0.058348     -0.1074
-0.051823     0.50002   -0.052481    0.061636     0.16819    0.016581    -0.11562
-0.05281     0.51218   -0.083394    0.015595    -0.13338   -0.021238    -0.12023
-0.052152     0.51843    -0.11497   -0.027487     -0.3603   -0.052481    -0.12384
-0.048205     0.52271    -0.13601   -0.067937     -0.4731   -0.075501     -0.1245
-0.038997     0.53784    -0.14555     -0.1074    -0.46192   -0.094905    -0.12187
-0.025514     0.59407    -0.15476      -0.137    -0.36458    -0.11793    -0.11628
-0.010386     0.73351    -0.17613    -0.15311    -0.23994    -0.14095    -0.10872
0.0086887     0.97227    -0.21659    -0.15344    -0.13009    -0.15476   -0.097864
0.030394      1.2788    -0.26263    -0.14358   -0.058729    -0.15838   -0.083723
0.05177       1.582    -0.27118    -0.12944   -0.034393    -0.14917   -0.067609
0.071502      1.8059    -0.19521     -0.1176   -0.050507    -0.13108   -0.050836
0.084328       1.897   -0.038339    -0.10872     -0.1028    -0.10806   -0.034722
0.093536      1.8385     0.13497    -0.10346    -0.18173   -0.086354   -0.018936
0.099127      1.6445     0.24975    -0.10444    -0.26822   -0.069582  -0.0074258
0.10044      1.3531     0.26882    -0.11332    -0.33761   -0.056098   -0.002164
0.094523      1.0068     0.20897     -0.1268    -0.38102   -0.040313  -0.0047949
0.082026     0.64143     0.11721    -0.13667    -0.40733   -0.021896   -0.012359
0.0692     0.27968    0.046508    -0.13601    -0.42739  -0.0061104   -0.016634
0.059334   -0.061689     0.02875    -0.11924    -0.44712   0.0067154    -0.01203
0.055059    -0.36819    0.064267   -0.091287    -0.46521   0.0096753   -0.002164
0.055388    -0.62603     0.14056   -0.060702    -0.47738   0.0017824   0.0034268
0.057361    -0.81512     0.23955   -0.035051    -0.47639   -0.016634  -0.0015062
0.053743     -0.9174     0.33558   -0.014661    -0.45962   -0.041957   -0.014003
0.040918    -0.93056     0.39379 -0.00051963     -0.4264   -0.069582   -0.026829
0.025132    -0.87728     0.38393   0.0024402    -0.38332    -0.09918   -0.033078
0.0096753    -0.77961     0.30039  -0.0038083    -0.33695    -0.12648   -0.033406
-0.002164    -0.65365     0.17082   -0.014003    -0.29782    -0.14917   -0.030775
-0.0077547    -0.50204    0.042891   -0.022554    -0.27348    -0.16495   -0.028144
-0.012359    -0.32347   -0.041299   -0.027158    -0.25605    -0.17022   -0.028473
-0.015976    -0.12746   -0.063991   -0.031433    -0.22875    -0.16791   -0.034722
-0.015319    0.064596   -0.034393   -0.038339    -0.18797    -0.15805   -0.048863
-0.0074258     0.22607    0.020528   -0.051494    -0.14555    -0.14752   -0.065635
0.0090175     0.33821    0.072818   -0.069911    -0.11957      -0.137   -0.079448
0.027763     0.39675     0.10735   -0.094576    -0.11628    -0.13075   -0.089972
0.047166     0.40793     0.11985     -0.1199    -0.12286    -0.12648   -0.093589
0.063281     0.38097      0.1159    -0.14127    -0.11365    -0.12187   -0.089972
0.07216     0.33558     0.10603    -0.15081   -0.078461    -0.11201   -0.080763
0.074791      0.2879     0.10011    -0.14456   -0.028144   -0.093589   -0.065964
0.075778     0.25074    0.099456    -0.12911   0.0077021   -0.070568   -0.044259
0.078737     0.22311    0.097483    -0.10905   0.0044134   -0.044259   -0.016305
0.084328     0.20535    0.085315     -0.0903   -0.050507    -0.01795    0.017568
0.094523     0.19812    0.063281   -0.078132    -0.15213    0.010991    0.050455
0.1113     0.20601    0.042562   -0.068266    -0.28269    0.044535    0.073804
0.12971     0.23133    0.029407   -0.058729    -0.41917    0.076764    0.089261
0.14188     0.26981    0.026119   -0.051823    -0.54085    0.098798    0.098798
0.14155     0.31125    0.030394   -0.048863    -0.62274     0.11064    0.099456
0.13267     0.34709    0.037629    -0.04985    -0.63129     0.11721     0.09255
0.11985     0.36683    0.043877   -0.047877    -0.52967     0.12478    0.081697
0.10669     0.36781    0.044864   -0.039655    -0.29847     0.14122    0.068543
0.096496     0.35005    0.037629   -0.024527    0.022172     0.17016    0.056046
0.086301     0.32045    0.023817  -0.0057815      0.3438     0.21094    0.047495
0.074462      0.2948   0.0070443    0.010662     0.59309     0.26093    0.042233
0.061965     0.28987  -0.0077547     0.02579     0.74141     0.31026    0.042233
0.050126     0.34282   -0.013674    0.039273      0.7881     0.34216    0.044864
0.044206      0.4862   -0.012688    0.048482     0.74075     0.34644    0.044864
0.044535     0.72529   -0.013017    0.053415     0.61216     0.32243     0.04026
0.050126      1.0354    -0.01795     0.05177     0.42142     0.27474    0.036314
0.059005      1.3554   -0.024198     0.04618     0.19384     0.21061    0.034998
0.067885      1.6113   -0.029789    0.036314   -0.035708     0.14451    0.036971
0.075449      1.7491   -0.028473    0.023488    -0.23007    0.089261    0.042891
0.081039      1.7408   -0.020252   0.0093464    -0.36688    0.058348    0.050126
0.08367      1.5866  -0.0084125  -0.0024928    -0.42509    0.052099     0.05473
0.081039       1.312    0.002769  -0.0054526    -0.39319    0.067227    0.057032
0.070845     0.94958     0.01132   0.0060577    -0.26657    0.092879    0.057361
0.053743     0.53488    0.023488    0.028092   -0.061031      0.1159    0.061636
0.033025    0.088275    0.042233    0.055059      0.1843     0.13103    0.070187
0.014608     -0.3797    0.070187    0.083013     0.42372     0.13826    0.080053
0.0054    -0.85821     0.10472     0.11064     0.61907      0.1376    0.089919
0.0050711      -1.316     0.14287     0.13728     0.74206       0.133    0.098798
0.0054     -1.7073     0.17115     0.15964     0.77199     0.12609     0.10636
0.0021113     -1.9882      0.1797     0.16983     0.71049     0.11952     0.11195
-0.0087413     -2.1296     0.15832     0.16786     0.58092     0.11656      0.1113
-0.033078     -2.1316     0.10636     0.15931     0.42076      0.1159     0.10538
-0.068595     -2.0273    0.033354     0.15043     0.27606     0.11228    0.093865
-0.10346     -1.8534   -0.045574     0.13958     0.18365     0.10406    0.081697
-0.12746     -1.6284    -0.10905     0.12774     0.15076    0.089261    0.070845
-0.13404     -1.3512    -0.14456      0.1159      0.1603    0.070187    0.063938
-0.12352     -1.0355    -0.14917     0.10274     0.18496    0.044206    0.059663
-0.10082    -0.70594    -0.13108    0.087946     0.19943    0.010991    0.055059
-0.07287    -0.40075    -0.10247    0.070516     0.19055   -0.027487    0.043877
-0.046561    -0.15279   -0.077475    0.053743     0.15602   -0.063333    0.027105
-0.025842    0.026119   -0.063991    0.040918    0.099456   -0.091945   0.0093464
-0.01203     0.14385   -0.060045    0.034998     0.02875    -0.11135  -0.0024928
0.0037556     0.21226   -0.057414     0.04026   -0.041299    -0.12352  -0.0057815
0.024145     0.24909    -0.05544    0.053743   -0.096878    -0.12615  -0.0057815
0.04881      0.2731   -0.051494    0.064925    -0.13174    -0.12648  -0.0080836
0.073147     0.28823   -0.048205    0.067885    -0.14095     -0.1268   -0.014003
0.09255     0.29842   -0.048534    0.063281    -0.12845    -0.12976   -0.019594
0.10274     0.31059   -0.054783     0.05473   -0.092931    -0.13174   -0.021567
0.10044     0.33854   -0.065307    0.049468   -0.041628    -0.13009   -0.015976
0.08663      0.3836   -0.079777    0.047824   0.0083598    -0.12746  -0.0054526
0.064925     0.43424   -0.092931    0.040589    0.033354    -0.13207   0.0063866
0.04026     0.47371    -0.10247    0.028421    0.011648    -0.14917    0.015266
0.016253      0.4941    -0.10477    0.015595   -0.059716    -0.17811    0.017897
-0.0038083     0.50922     -0.1028   0.0083598    -0.16298    -0.21527    0.013951
-0.014003     0.55888    -0.10115   0.0086887    -0.26328    -0.24914   0.0090175
-0.013345     0.68517   -0.098522    0.011648    -0.32708    -0.26855     0.01132
-0.0074258     0.88315   -0.091287    0.020199    -0.33728     -0.2669    0.021186
-0.00019077      1.1064   -0.075501     0.03434    -0.30406    -0.24355    0.035985
0.010333      1.2909   -0.049521    0.052757    -0.24454    -0.20212    0.050126
0.022501      1.3814   -0.011043     0.07216    -0.16824    -0.14719    0.059663
0.035985      1.3452    0.038287    0.090248   -0.082408   -0.082408    0.064925
0.050784      1.1778    0.098798     0.10242   0.0080309   -0.014661    0.067227
0.063938     0.90123     0.16227     0.10866    0.098141    0.047824    0.064596
0.071831     0.55921     0.21259     0.10932     0.18233    0.099456    0.054401
0.07216     0.19253     0.24449     0.10538     0.25337     0.13662    0.041904
0.06624    -0.17318     0.26192    0.095181     0.31388     0.15569    0.028421
0.05769       -0.53     0.27112    0.082355     0.35762     0.15306    0.012306
0.047166    -0.87169     0.27376    0.071173      0.3859      0.1284  -0.0067681
0.035656     -1.1736     0.26389    0.062952     0.39938    0.089919   -0.025842
0.022172     -1.4048     0.23067    0.055717     0.39346    0.047495   -0.041299
0.0054     -1.5393     0.17082    0.048482     0.36255    0.010991   -0.044259
-0.01203     -1.5587    0.087617    0.042233     0.30007   -0.015319    -0.02946
-0.030775     -1.4798   -0.013674    0.035656     0.21094   -0.034393   0.0001381
-0.048863     -1.3403    -0.12023    0.027763      0.1057   -0.049192    0.035985
-0.06136     -1.1838    -0.21691    0.022501  0.00046697   -0.055769    0.067885
-0.066622     -1.0282    -0.29782    0.018555    -0.07879   -0.057743    0.090248
-0.066293    -0.86248     -0.3557    0.023488   -0.097536   -0.056098     0.10274
-0.059716     -0.6747     -0.3774    0.038287   -0.019265   -0.052481     0.10307
-0.052152    -0.46685    -0.34156    0.060321     0.16622   -0.042944    0.090248
-0.04689    -0.25737    -0.24322    0.087946     0.43424   -0.026171    0.065912
-0.045574   -0.071226   -0.092931     0.12083     0.72496  -0.0018351    0.030723
-0.039984    0.077093    0.083013     0.15602      0.9578    0.024474   -0.013017
-0.029789      0.1797     0.25534     0.18397       1.063    0.048153   -0.055112
-0.013017     0.23824     0.39807     0.20305     0.99825    0.058019   -0.085696
0.0090175     0.26422     0.48949      0.2162     0.77561    0.045522    -0.10247
0.030394     0.27277     0.51514      0.2241     0.45102    0.014937    -0.10641
0.043549     0.27639     0.47141     0.22475     0.10801   -0.020252    -0.10247
0.043877     0.28198      0.3757     0.21653    -0.17581   -0.050836   -0.093918
0.034011     0.29809     0.26159     0.19088     -0.3626   -0.074186   -0.081421
0.018884     0.35696     0.15799     0.15109     -0.4514   -0.087669   -0.069253
0.0083598     0.51383    0.069529     0.10702    -0.47113   -0.086683   -0.057085
0.0083598     0.79896  -0.0051238    0.068214    -0.46061   -0.066622   -0.044588
0.019212      1.1722   -0.060702    0.041247    -0.45337   -0.027487   -0.027158
0.035327      1.5287   -0.086354    0.029407    -0.47277    0.022172  -0.0084125
0.050455      1.7586   -0.078461    0.035327    -0.52539    0.071173    0.010004
0.065912      1.8122   -0.033406    0.049468    -0.59741     0.10998    0.026776
0.07512      1.6981    0.045522    0.061636    -0.67141     0.13497    0.042233
0.073804       1.455      0.1455    0.065254    -0.73028     0.14254    0.050126
0.063281      1.1324     0.23265    0.053415    -0.76283     0.13169    0.047495
0.047166     0.77298      0.2777     0.02875    -0.76316     0.10702    0.034011
0.033354     0.40464     0.26718  -0.0041372    -0.73554    0.072489    0.012964
0.023488    0.042891      0.2139    -0.03538    -0.68522    0.033354  -0.0047949
0.015924    -0.31294     0.14517   -0.059716    -0.61583  -0.0008485   -0.012359
0.0086887    -0.66121    0.082355   -0.077146    -0.53263   -0.016634   -0.014332
0.0014536    -0.98022     0.03434   -0.088656    -0.44318  -0.0093991   -0.014003
-0.010715     -1.2354   0.0057288   -0.099838    -0.35339    0.020199   -0.012688
-0.025842     -1.4045  -0.0087413    -0.11233    -0.26493    0.063938  -0.0067681
-0.039984     -1.4794   -0.010715    -0.12319    -0.17613      0.1113   0.0070443
-0.047548     -1.4748  -0.0077547    -0.13075   -0.093918     0.14912    0.027434
-0.04985     -1.4117  -0.0064392    -0.12944   -0.022554     0.16852    0.046837
-0.051494      -1.317   -0.015648    -0.11562    0.031709     0.16819     0.06361
-0.057743     -1.2025   -0.036695   -0.094905     0.05769     0.14944    0.077422
-0.069253     -1.0746   -0.070897   -0.076817    0.055388     0.12017    0.085644
-0.086025    -0.93023    -0.11365   -0.067937    0.031381    0.088603    0.086959
-0.10609    -0.77336    -0.15936   -0.065635   0.0080309    0.059663    0.081697
-0.12417    -0.61057    -0.19981   -0.069911   0.0080309    0.036642    0.072818
-0.13667    -0.45008     -0.2281   -0.074186    0.062623    0.024474    0.062623
-0.13799    -0.29584    -0.23829   -0.074186     0.19779     0.02579    0.055059
-0.12911    -0.14719    -0.23402   -0.061689     0.40497    0.038287    0.050455
-0.11299   -0.014003    -0.22119   -0.036366     0.63321     0.05177    0.049797
-0.087998     0.10011    -0.20014   -0.010057     0.80422    0.053086     0.05473
-0.059387     0.19253    -0.17482    0.010333     0.85815    0.039602    0.062623
-0.031433     0.26389    -0.14588    0.017568     0.77298    0.012306    0.070187
-0.010057     0.31454    -0.11168    0.012964     0.56743   -0.022225     0.07512
0.0014536     0.34841    -0.07287   0.0037556     0.28987   -0.050836    0.079395
0.0034268      0.3711   -0.034722  -0.0038083    0.010991   -0.060373    0.086959
0.0001381     0.38689  -0.0057815  -0.0054526    -0.19554   -0.044588    0.093865
-0.0018351     0.39708   0.0077021  -0.0038083    -0.28137   -0.011043    0.093536
0.0021113     0.40201   0.0050711    0.002769    -0.24651    0.029736    0.083013
0.016253     0.40169  -0.0080836    0.013622    -0.13799    0.066898     0.06624
0.03434     0.40037    -0.01499    0.026776   -0.020909    0.095181    0.054072
0.05177      0.4007  0.00079584    0.041247    0.056703     0.11557    0.050126
0.06361     0.40563    0.049468    0.056703    0.073476     0.13366    0.056703
0.0692     0.41714     0.11919    0.069858    0.031052     0.14714    0.075778
0.073804      0.4326     0.18069    0.076435   -0.055112     0.15536     0.10373
0.081039     0.45299     0.19976    0.071502    -0.16693     0.15273     0.13037
0.085972     0.48785     0.15832     0.05769    -0.28729     0.13432     0.15142
0.084328     0.55296    0.065583    0.033354    -0.40108     0.09551     0.16293
0.077422     0.65458    -0.04985   0.0030979     -0.4902    0.042891      0.1626
0.066898     0.79929    -0.16068   -0.031762    -0.54414   -0.010386     0.14681
0.061965      1.0183    -0.24849    -0.06432    -0.56453    -0.04689     0.11853
0.062952      1.3228    -0.30834   -0.089972    -0.56058   -0.054454    0.084328
0.073147      1.6517    -0.34221     -0.1051     -0.5448   -0.031762    0.055059
0.087288      1.8964    -0.35043    -0.10905    -0.51783   0.0067154    0.032367
0.098469      1.9585    -0.33498    -0.10444    -0.46488    0.050455    0.017897
0.10143      1.7803    -0.29814   -0.093589    -0.36096    0.090905    0.010991
0.09255      1.3771    -0.24881   -0.082408    -0.20047     0.12248     0.01132
0.075778     0.82823    -0.19324   -0.071884   -0.017621      0.1432    0.014608
0.059992     0.23922    -0.14456   -0.060373     0.12511     0.15536    0.016581
0.049468    -0.30045    -0.11529   -0.045903     0.18726     0.16227    0.013622
0.041904    -0.74146    -0.10905   -0.030118     0.15668      0.1626   0.0067154
0.036642     -1.0713    -0.11562   -0.020252    0.058348     0.15306 -0.00051963
0.030394     -1.2972    -0.11365   -0.016305   -0.067609     0.12873  -0.0061104
0.024474     -1.4137    -0.08471   -0.013017    -0.17778    0.091563   -0.014332
0.021186     -1.4002   -0.017292  -0.0061104    -0.24684    0.045522   -0.028473
0.01987     -1.2456    0.084986      0.0054     -0.2646   -0.004466   -0.052481
0.020857    -0.96871     0.20732    0.019541    -0.21856   -0.051165   -0.087012
0.025132    -0.61945     0.32341    0.035327   -0.081421    -0.08471    -0.12253
0.033683    -0.26559     0.40826     0.04881     0.18661   -0.098193    -0.14391
0.042562    0.034998     0.44575    0.058348     0.60821   -0.087998    -0.14555
0.04618     0.27178     0.43424    0.064925      1.1423   -0.055769    -0.12845
0.038944     0.47173     0.37998    0.070845      1.6797  -0.0067681    -0.10082
0.024474     0.65689     0.30105    0.075778       2.097    0.052099   -0.076488
0.015266     0.81507     0.21686    0.080053      2.3065     0.11458   -0.058729
0.018555     0.89466     0.13991     0.08367      2.2841     0.17378   -0.041957
0.033683     0.83382    0.072818    0.087617      2.0648     0.22475   -0.020581
0.04881     0.60657    0.015266    0.088603      1.7214     0.26225   0.0060577
0.052757     0.24646   -0.038339     0.08367      1.3383     0.27902    0.032367
0.044864    -0.14752   -0.077803    0.074462     0.96997     0.26718    0.053086
0.026447    -0.44318    -0.09918    0.058676     0.63781     0.22673    0.064596
0.0047422    -0.56683    -0.10247    0.039602     0.34052     0.16161    0.067885
-0.013345    -0.53033   -0.094905    0.023817    0.079066    0.085972    0.063281
-0.022883    -0.38332   -0.081421    0.013951    -0.13832    0.012306     0.05177
-0.026829    -0.18304   -0.065635   0.0080309    -0.30341   -0.044588    0.037629
-0.025185    0.014608   -0.046561   0.0057288    -0.41029    -0.07879    0.028421
-0.018607     0.16194   -0.025842      0.0054    -0.46685   -0.094905    0.024145
-0.0054526     0.21719   -0.011701   0.0080309    -0.49053    -0.10674    0.020528
0.0070443     0.16161   -0.010057     0.01132    -0.49547     -0.1245    0.015595
0.0090175  -0.0080836   -0.016305   0.0080309    -0.48297    -0.15081    0.010004
-0.00051963    -0.27151   -0.023869  -0.0080836    -0.45929    -0.17844   0.0014536
-0.019594    -0.58821   -0.024198   -0.034393    -0.44022    -0.20244   -0.012359
-0.043272    -0.91707   -0.010715   -0.060702    -0.44745    -0.22119   -0.026829
-0.063662      -1.218    0.014937   -0.076159    -0.48889    -0.23402   -0.037682
-0.073199     -1.4627    0.051441    -0.07879    -0.54216    -0.24487   -0.040313
-0.068595     -1.6383    0.092221   -0.068266    -0.55861    -0.25309   -0.034064
-0.054454     -1.7468     0.12675   -0.047877    -0.49744    -0.25572   -0.018607
-0.031104     -1.8004      0.1501   -0.021238    -0.35043    -0.24914  -0.0011774
-0.0051238      -1.809     0.15931   0.0093464    -0.15903     -0.2304   0.0096753
0.015595     -1.7738     0.15734    0.035985  0.00046697    -0.20244    0.011648
0.022172     -1.6889     0.15109     0.05473    0.065583    -0.17548    0.010004
0.012635     -1.5587     0.15142    0.064267    0.012306    -0.16035   0.0077021
-0.0074258     -1.3913     0.15931    0.063938    -0.14095    -0.15838  0.00046697
-0.030775     -1.1963     0.16589    0.054401    -0.34978    -0.16824  -0.0057815
-0.051165    -0.97824     0.15405    0.036642    -0.56782    -0.18403  -0.0077547
-0.064649    -0.73916     0.11721    0.011648    -0.76777    -0.20212  -0.0064392
-0.07024    -0.48395    0.062952   -0.015976    -0.92628    -0.21823  -0.0087413
-0.068266    -0.21823   0.0083598   -0.038011     -1.0049    -0.22152   -0.017292
-0.064649    0.043549   -0.036037   -0.048205    -0.97298    -0.21099   -0.029789
-0.058071     0.27737   -0.064649    -0.04985    -0.82367    -0.19093   -0.045574
-0.047219     0.46516    -0.07879   -0.050179    -0.57637    -0.17022   -0.061689
-0.027158     0.60032   -0.079448   -0.047219    -0.27381    -0.15344   -0.073857
-0.002164     0.68616   -0.074186   -0.036695    0.014937    -0.13766   -0.081092
0.017897     0.73516   -0.070568   -0.023211     0.21719    -0.12023   -0.086354
0.027105     0.76278   -0.074844   -0.011043     0.28494    -0.09918   -0.090629
0.032696     0.78087   -0.082408   -0.002164     0.21324   -0.072542   -0.092603
0.041575     0.79633   -0.094576   0.0030979    0.052428   -0.040313   -0.090629
0.05473     0.80882    -0.10378   0.0044134    -0.11595  -0.0057815   -0.087998
0.06624     0.82198    -0.10346   0.0093464    -0.22777    0.027105   -0.082408
0.075449     0.83842   -0.093918    0.018226    -0.25737    0.054072   -0.066622
0.084986     0.85552   -0.076159    0.032696    -0.21099    0.079724    -0.04097
0.097483     0.86637   -0.052152    0.054072    -0.11266      0.1057  -0.0090702
0.10834     0.86637   -0.021238    0.084657 -0.00019077     0.13103    0.019212
0.11853     0.86013    0.012635     0.12083    0.082684     0.15635      0.0373
0.12511     0.84631    0.042562     0.15832     0.11261      0.1797    0.047495
0.12905     0.82954    0.066898     0.19154    0.098141     0.20173    0.055388
0.1284      0.8131    0.083999     0.21949    0.070516     0.22245    0.061965
0.12577     0.79731    0.094852     0.24218    0.056046      0.2435    0.066569
0.12445     0.77627     0.10011     0.26093    0.057032     0.25797    0.067885
0.12346     0.74864     0.10077      0.2731    0.048482     0.26455    0.066569
0.12116     0.71707     0.10307     0.27178   0.0073732     0.25961    0.065254
0.11327     0.68681     0.11064     0.25929   -0.078461     0.24218    0.062294
0.098141     0.66149     0.12017     0.24186    -0.19685     0.21719    0.055717
0.078409      0.6411     0.12905     0.22311    -0.31525     0.19055    0.049468
0.06065      0.6194     0.12741     0.20798    -0.39417     0.16885    0.047495
0.053086     0.59177     0.11327     0.19943    -0.40338     0.15964    0.051441
0.056703     0.55888    0.093865      0.1945    -0.33465     0.16326    0.058348
0.061307     0.52534    0.079066     0.18924    -0.20935     0.17608    0.064925
0.062294     0.49574    0.070187     0.17838    -0.07287     0.18957     0.06624
0.057361     0.47371    0.068214     0.15734    0.030394     0.19976    0.063281
0.050126     0.45693    0.071831      0.1307    0.067227     0.20371    0.058676
0.036971     0.44082    0.074133     0.10274    0.031052      0.1968    0.057032
0.020528     0.41879    0.073476     0.07512   -0.068266      0.1751    0.057361
0.0050711      0.3905    0.067556    0.046837     -0.2031     0.14122    0.061965
-0.0024928     0.35696    0.059005    0.024803    -0.33235      0.1011    0.066898
-0.00051963     0.32637    0.051113    0.016581    -0.40667    0.062294    0.070187
0.012306       0.305     0.04618    0.019541    -0.38135    0.032696    0.071502
0.02875     0.29053    0.043549    0.030065    -0.22612     0.01987     0.07216
0.044864     0.27376    0.041247    0.041904    0.050126    0.021186    0.074462
0.05473     0.24942    0.035985    0.047495     0.37998    0.027105    0.081697
0.056046     0.21851    0.028092    0.045522     0.68155     0.03434     0.08959
0.049468     0.18628    0.013293    0.037629     0.90551    0.039602    0.096496
0.039931     0.15701   -0.015976    0.029078      1.0308    0.044206     0.10176
0.031052     0.13169    -0.06432    0.018884      1.0466    0.047495      0.1034
0.026447     0.11031    -0.12746   0.0034268     0.95846    0.044864    0.099785
0.024803     0.09255    -0.19883   -0.019265     0.79665    0.038287    0.090248
0.02283    0.078409    -0.27216   -0.046561     0.60361    0.029736    0.083999
0.018555    0.066898    -0.33958   -0.071555     0.42043    0.019541    0.085972
0.012306    0.055388    -0.39648   -0.088327      0.2731    0.010991    0.093536
0.0083598    0.041575    -0.42575   -0.092931     0.17806   0.0057288      0.1011
0.0060577    0.023817    -0.37872   -0.088327     0.13728   0.0057288     0.10669
0.0080309   0.0037556    -0.21297   -0.080434     0.13464    0.010662     0.10603
0.013951   -0.013674     0.05473   -0.077146     0.14681    0.012635     0.10242
0.023817   -0.024198     0.33953    -0.07879     0.15536   0.0077021     0.10077
0.037629   -0.028802     0.55296   -0.086025     0.15438  -0.0047949    0.099785
0.048482   -0.032749     0.64439   -0.095562     0.14648   -0.019594     0.10077
0.053415   -0.027158     0.61676    -0.10411      0.1353   -0.034064     0.10143
0.05473   0.0034268      0.4987    -0.10937     0.12149   -0.047219    0.096825
0.050784    0.066898     0.33262     -0.1097     0.10932   -0.062018    0.082026
0.045522     0.15207     0.16128    -0.10576     0.10307   -0.077146    0.061307
0.039602     0.23002    0.024474    -0.10082    0.095839   -0.087998    0.040589
0.031709     0.27639    -0.05544   -0.097207    0.070845   -0.087341    0.023159
0.020857     0.27376   -0.079448   -0.097207    0.017897   -0.077803   0.0083598
0.012635     0.21949   -0.062018   -0.095891   -0.063991   -0.061031 -0.00051963
0.0080309     0.12675   -0.023869     -0.0903    -0.17252   -0.042944 -0.00019077
0.0021113    0.011977    0.015266   -0.082079     -0.2919   -0.027158   0.0080309
-0.010386    -0.10937    0.041575    -0.07024    -0.39615   -0.016305    0.018226
-0.0265    -0.22119    0.052757     -0.0584    -0.46093   -0.012359    0.023817
-0.040641    -0.31886    0.052428   -0.043601    -0.46784   -0.012359    0.018226
-0.048205    -0.40733    0.051441   -0.023211    -0.41456   -0.012688      0.0054
-0.045574    -0.48889    0.054072   0.0014536    -0.31426   -0.010057  -0.0077547
-0.037024    -0.56157    0.054072    0.024803    -0.19521  -0.0015062   -0.017292
-0.0265    -0.61484    0.048153    0.037629   -0.088656   0.0080309   -0.021567
-0.020581    -0.64543    0.035327    0.039931   -0.013345    0.013293   -0.018936
-0.029789     -0.6474    0.014937    0.031709    0.019212   0.0096753    -0.01203
-0.050836    -0.61057   -0.015648    0.017239    0.010662   0.0011247  -0.0061104
-0.073199    -0.51191   -0.051823   0.0037556    -0.03242  -0.0051238   -0.007097
-0.086025    -0.34254   -0.085367  -0.0097279   -0.098193  -0.0080836    -0.01499
-0.086354    -0.12352    -0.11102   -0.024856    -0.17252  -0.0080836    -0.02354
-0.078461    0.099456    -0.12845   -0.036366    -0.24257  -0.0038083   -0.027158
-0.071884     0.28329      -0.137   -0.043601    -0.29453   0.0057288    -0.02354
-0.070568     0.39873    -0.13799   -0.044917    -0.31952    0.016581   -0.016634
-0.072213     0.43359     -0.1347   -0.039984    -0.31557    0.026776  -0.0080836
-0.070568     0.39215    -0.12976   -0.028802      -0.284    0.035985  -0.0011774
-0.061689     0.28757    -0.11924   -0.014332    -0.22974    0.044864   0.0024402
-0.048534     0.13859   -0.099838  0.00079584    -0.15509    0.053743  -0.0008485
-0.035051   -0.041957   -0.074844    0.014279   -0.060373    0.059334  -0.0057815
-0.030447    -0.24553    -0.05281    0.027763     0.05177    0.061307   -0.007097
-0.036366    -0.46718   -0.031433    0.042562      0.1751    0.060979  -0.0057815
-0.042615    -0.69279  -0.0061104    0.059663     0.29678    0.059334  -0.0018351
-0.042286    -0.90326     0.02283    0.078409      0.4007    0.061307   0.0017824
-0.037353     -1.0759    0.042891    0.092221      0.4793    0.067556   0.0021113
-0.035708     -1.1904    0.046837      0.1011     0.53849     0.07808  -0.0041372
-0.033735     -1.2318     0.03434     0.10274     0.59276    0.091892   -0.015319
-0.030118      -1.195    0.013293    0.099456     0.63551     0.10505   -0.027487
-0.024198      -1.091  -0.0061104    0.092221     0.64899     0.11327   -0.032749
-0.016963    -0.94272   -0.019923    0.083342     0.61644     0.11261   -0.029789
-0.0090702    -0.76875   -0.025842    0.074462     0.53981     0.10505   -0.022883
-0.0024928     -0.5813   -0.026171    0.063281     0.43523    0.088603   -0.018607
0.0024402    -0.39615   -0.028802    0.049797     0.32374    0.065254   -0.022554
0.0060577    -0.23204   -0.035708    0.033354     0.21357    0.041247   -0.026171
0.0080309    -0.10313   -0.039326    0.015924     0.10702    0.020199   -0.024856
0.01132   -0.015648   -0.037353   0.0034268   0.0090175   0.0030979   -0.016963
0.018555    0.032696   -0.027487 -0.00051963   -0.072213   -0.012688  -0.0093991
0.029736    0.052428   -0.012359   0.0021113    -0.11497   -0.034064   -0.010715
0.042233    0.062623    0.002769    0.011648   -0.096878   -0.062347   -0.021238
0.050784    0.095839    0.012964    0.026119   -0.015319   -0.093918   -0.037024
0.05769     0.18069    0.018555     0.04026     0.10242    -0.12056   -0.052152
0.062623     0.32473    0.018555    0.044864     0.21094    -0.13864   -0.063004
0.06065     0.50988    0.013293    0.040918     0.27935    -0.14654    -0.06728
0.049139     0.69668   0.0050711    0.035656     0.29513    -0.14752    -0.06728
0.030394     0.83546  -0.0018351    0.034998     0.26422    -0.14621    -0.06432
0.012635     0.88644  -0.0038083    0.034669     0.20206     -0.1495   -0.058071
0.0014536     0.84467   0.0011247    0.032696     0.12938     -0.1587   -0.049521
-0.0015062     0.73187    0.013293    0.031052    0.076764    -0.16824   -0.042944
0.0034268      0.5819    0.028092    0.033354    0.067227    -0.16923   -0.036037
0.010004     0.42339    0.045522    0.036314    0.098798    -0.15673   -0.025842
0.014608     0.26652    0.062294    0.040918      0.1307    -0.13503   -0.012359
0.01691     0.10406    0.082684    0.044864     0.11327    -0.11299   0.0044134
0.015924   -0.074515     0.10899     0.04881    0.018226   -0.095562    0.017568
0.016581    -0.27381     0.13728     0.05473    -0.14489   -0.084381    0.026776
0.020857    -0.48198     0.15405    0.062623    -0.33136   -0.078132    0.035985
0.02875    -0.67371     0.14418    0.065583    -0.49185   -0.076159     0.04618
0.036971    -0.82006     0.10307    0.059005    -0.59248   -0.074515    0.059334
0.044206    -0.89866    0.033683    0.043877    -0.63096   -0.066951    0.070187
0.045851    -0.90359   -0.057414    0.027763    -0.62504   -0.052481    0.081697
0.039931    -0.84242     -0.1564    0.019541    -0.59577   -0.030447    0.098798
0.02875    -0.72797    -0.24553    0.020199    -0.56091  -0.0077547     0.11458
0.017897    -0.58064    -0.30571    0.027763    -0.52112    0.011977     0.12182
0.0090175    -0.42081    -0.33564    0.033683    -0.46488    0.032038     0.11853
0.0011247     -0.2623    -0.33136    0.032696    -0.37477     0.05473     0.11195
-0.0038083    -0.11003    -0.28729    0.023159     -0.2475    0.081368     0.10932
-0.0011774    0.026447     -0.2179    0.010333    -0.10148     0.10373     0.10866
0.0093464     0.14056    -0.14687   0.0044134    0.022501     0.11623     0.10538
0.023159     0.22771   -0.099838   0.0093464    0.090248      0.1159     0.10044
0.038287     0.28559   -0.092603     0.02283    0.083999     0.10801     0.10439
0.050455     0.33394    -0.11365    0.039602   0.0060577    0.098469     0.11721
0.065912     0.43687    -0.13634    0.056374    -0.11858    0.091234       0.133
0.085644     0.68287    -0.11562    0.070516    -0.25013    0.087946      0.1478
0.11228      1.1048   -0.022225     0.08367    -0.35109    0.091892     0.15602
0.14188      1.6218     0.12412    0.093536    -0.39187      0.1057     0.15635
0.16918      2.0733     0.26093    0.097483    -0.36194     0.13037     0.14648
0.18595      2.3131     0.32933    0.093865    -0.26657     0.16293     0.13004
0.18365      2.2667     0.30763    0.080382    -0.11365     0.19647     0.11491
0.15635      1.9444     0.22475    0.055717    0.075778     0.21719     0.10176
0.11064      1.4245     0.13629    0.026447     0.27047     0.22311    0.088932
0.061636     0.80751    0.088275   0.0024402     0.43819     0.22377    0.073476
0.026447     0.18693    0.095839  -0.0093991     0.55823     0.23035    0.057032
0.0080309    -0.37411     0.14846  -0.0047949     0.61841     0.23955    0.041575
0.0060577    -0.86347     0.22311    0.014608     0.62499     0.25074    0.032367
0.016253     -1.3166     0.30007    0.043877     0.59407     0.26126    0.036971
0.029736     -1.7508     0.35531     0.07216     0.55395     0.26981    0.056046
0.036314     -2.1447     0.37077    0.093865     0.52896     0.27376    0.084657
0.030394     -2.4401     0.34315     0.10932     0.52665     0.27244     0.11393
0.016581     -2.5644     0.28527      0.1205      0.5329     0.26619       0.133
-0.0041372     -2.4795     0.22475     0.12873     0.52106     0.25567     0.13464
-0.02946     -2.2056       0.182     0.13234     0.47206     0.24251     0.12412
-0.055112     -1.8027     0.15997     0.13366     0.37472     0.22475     0.10998
-0.07879     -1.3351     0.15964     0.12774     0.23692     0.19812    0.092879
-0.10017    -0.84801     0.17937     0.11228    0.076106     0.15931    0.073147
-0.12121    -0.36786     0.21292    0.093865   -0.085367     0.11031    0.051113
-0.13766    0.077093     0.24383    0.079395    -0.22612    0.055059    0.026776
-0.14423     0.45693     0.24942    0.075449    -0.33037 -0.00019077    0.002769
-0.14029     0.75884     0.21949    0.076435    -0.38891   -0.046561   -0.016634
-0.12549     0.98575     0.15635    0.080711    -0.40766   -0.079777   -0.026171
-0.097207      1.1449     0.08367    0.089261    -0.40272   -0.098522   -0.027158
-0.059058       1.262    0.031052    0.097483    -0.39385    -0.10872   -0.020909
-0.01795      1.3893    0.013951    0.098141     -0.3945    -0.11562   -0.014661
0.018555      1.5675    0.025461     0.09551    -0.41687    -0.11957   -0.014332
0.045193      1.7711    0.050126     0.10176    -0.45633    -0.12089   -0.019923
0.061636      1.9263    0.080382     0.11689    -0.49218    -0.11793   -0.026171
0.071502      1.9816     0.12116     0.13333    -0.48001    -0.11266    -0.02946
0.077093      1.9316     0.17049     0.14122    -0.35011    -0.10543   -0.027816
0.074791      1.7852     0.21094     0.13267   -0.061689    -0.09622   -0.029789
0.064925      1.5415     0.21916     0.10801     0.34907   -0.084381   -0.034722
0.04881       1.187     0.18463    0.073476     0.76245   -0.069582   -0.045246
0.026776     0.72398     0.11327    0.040918      1.0449   -0.057414   -0.060702
0.0011247     0.18134    0.019541    0.016581      1.1127    -0.05544   -0.082079
-0.025842    -0.38233   -0.080106   -0.002164      0.9601   -0.064649     -0.1005
-0.051494    -0.90589    -0.16462   -0.023211     0.65524   -0.084052    -0.11102
-0.077475     -1.3462    -0.21823   -0.050507     0.30566    -0.11036    -0.11825
-0.10017     -1.6768    -0.23106   -0.083065   0.0040845    -0.13503    -0.12648
-0.11398     -1.8833     -0.2156    -0.11431    -0.20343    -0.15048    -0.13667
-0.11233     -1.9704    -0.19291    -0.13996    -0.32544     -0.1495    -0.14259
-0.1005     -1.9507    -0.17909    -0.15575     -0.3968    -0.13864    -0.14193
-0.087341     -1.8442    -0.18041    -0.16693    -0.44975    -0.12516    -0.13437
-0.076817     -1.6774    -0.19652    -0.17548    -0.49678    -0.11168    -0.11957
