0.047495    0.021843    0.063281    0.073476    -0.64872    0.040589    0.044864
0.045522    0.010662    0.046837   0.0096753    -0.84768    -0.34419    0.033025
0.047824 -0.00019077    0.027763   -0.039984    -0.97495    -0.72041    0.036314
0.05769  -0.0061104    0.013622   -0.074844     -1.0674     -1.0233     0.05177
0.074462  -0.0041372    0.010333   -0.092603     -1.1726     -1.2167     0.07216
0.093865   0.0030979    0.018884   -0.095562     -1.2805     -1.2936    0.091234
0.10801    0.012635    0.031381   -0.084381     -1.2847     -1.2723     0.10439
0.11327    0.018884    0.041904   -0.065307     -1.0559     -1.1999     0.10669
0.11064    0.020199    0.045193   -0.050179     -0.6109     -1.1292    0.092221
0.10209    0.015924    0.045851   -0.045574    -0.15377     -1.0677    0.062952
0.091234    0.013293    0.045193   -0.050507    0.077751    -0.94568    0.031709
0.084657    0.013622    0.042233   -0.062347    0.018226     -0.6724    0.012635
0.083013    0.017897    0.037958   -0.073199    -0.22579    -0.21461   0.0083598
0.081368    0.027105    0.036642   -0.080106    -0.50336     0.34117    0.013293
0.077751    0.040589    0.036314   -0.082079     -0.7112     0.82099    0.016581
0.071502    0.053415    0.033354   -0.071555    -0.81216       1.066    0.015595
0.058676    0.058676    0.025461    -0.04393    -0.85985     0.99989    0.010991
0.042562    0.058019    0.018884  0.00046697    -0.93713     0.68747   0.0063866
0.031709    0.050126    0.021186    0.060321     -1.0687      0.3073   0.0037556
0.037958    0.039602    0.033025     0.12905     -1.2012    0.046508   0.0070443
0.059992    0.033354    0.054072      0.1922     -1.2321    0.021514     0.02283
0.088275    0.033354    0.081368     0.23857     -1.0835     0.25534    0.059005
0.1182    0.042891      0.1057     0.26849    -0.79572     0.69898      0.1113
0.14517     0.06065     0.12215     0.29217    -0.50599      1.2554     0.16753
0.16556    0.081039     0.12642     0.31289    -0.36688      1.7944     0.21653
0.17838    0.094852     0.12379     0.32572     -0.4731      2.1664     0.24547
0.18069    0.095839      0.1205     0.32539    -0.78092      2.2588      0.2435
0.17214    0.085644      0.1182     0.30434       -1.12      2.0345     0.21028
0.15273    0.070845     0.10932     0.26126     -1.3545      1.5557     0.15602
0.12346    0.056374    0.093208     0.20075      -1.439     0.94662    0.097483
0.086959    0.044864    0.072818     0.13793      -1.367     0.32374    0.045851
0.05177    0.034998    0.052757    0.081697      -1.118    -0.23895   0.0050711
0.023817    0.024474    0.032367    0.032038    -0.68983    -0.72008   -0.028144
0.0073732    0.014608    0.015595   -0.012359    -0.12812     -1.0966   -0.052481
-0.004466   0.0063866   0.0030979   -0.053138     0.48226     -1.3245   -0.063991
-0.017621  -0.0024928  -0.0057815   -0.092931      1.0374     -1.3712   -0.064978
-0.028144   -0.012688  -0.0061104    -0.13075      1.4514       -1.24   -0.055112
-0.03242   -0.019923  -0.0015062    -0.16331      1.6665    -0.98482   -0.037353
-0.028144   -0.019594   0.0014536    -0.18534      1.6701    -0.69015   -0.014003
-0.017292   -0.013674  -0.0018351    -0.19455      1.5205    -0.43791    0.011648
-0.0028217  -0.0051238   -0.010715    -0.19784      1.3199    -0.27151    0.036314
0.0090175 -0.00019077   -0.020909    -0.20047      1.1587    -0.18436    0.052099
0.012635  -0.0015062   -0.029789    -0.20212      1.0696    -0.13536    0.057361
0.0073732  -0.0093991   -0.031433    -0.19916      1.0239   -0.052152    0.062623
-0.0047949   -0.019265   -0.022883    -0.18567     0.96832     0.13497    0.073804
-0.015319   -0.022883  -0.0084125    -0.15344     0.91011     0.44279    0.096496
-0.018607   -0.014003   0.0080309   -0.095891     0.93149     0.79501     0.12478
-0.012359 -0.00019077    0.022501   -0.016634      1.1193      1.0765     0.14747
-0.0028217    0.014608    0.032696    0.074791      1.4751      1.2002     0.15109
0.0073732    0.023817    0.039602     0.16128      1.8829      1.1242      0.1353
0.013951    0.023817    0.045522     0.22475      2.1654     0.86111      0.1011
0.013293    0.018226    0.051113     0.25337      2.1835     0.47404    0.054072
0.0024402   0.0096753    0.052757     0.24482      1.9217    0.062623   0.0073732
-0.018278   0.0034268    0.045193       0.207      1.4902    -0.27874   -0.032091
-0.043272   0.0017824    0.027434     0.15109      1.0331    -0.49547   -0.057743
-0.065635   0.0057288   0.0057288     0.08367     0.63847    -0.57933   -0.073528
-0.082736    0.010333   -0.014003    0.014937     0.31355    -0.56157   -0.085696
-0.094905    0.011977   -0.029131   -0.050179    0.026776    -0.49875   -0.099509
-0.10872   0.0080309   -0.038997    -0.10576    -0.26822    -0.45008    -0.11464
-0.12352   -0.002164   -0.045574    -0.14818    -0.59248    -0.45962    -0.12582
-0.13667   -0.012688   -0.045903    -0.17482    -0.91938    -0.53263    -0.12713
-0.13897   -0.017292   -0.039655    -0.17646     -1.1305    -0.63162    -0.12187
-0.12319   -0.013017   -0.024527    -0.15377     -1.0631    -0.68719    -0.10839
-0.090629  -0.0024928   0.0011247    -0.11266    -0.64773     -0.6326   -0.082079
-0.051823   0.0093464    0.031052   -0.057743  -0.0034794    -0.45436   -0.044917
-0.014003    0.022172    0.058348   0.0017824     0.64274    -0.20508   0.0017824
0.018555    0.034011     0.07808    0.052757      1.1229    0.024145    0.050126
0.043877    0.044535    0.088932    0.084328       1.357     0.14846    0.093208
0.059663     0.05473    0.091563    0.097483      1.3002     0.12971     0.12609
0.062952     0.06065    0.088932     0.09551     0.94925   -0.020581     0.14616
0.056046    0.060979    0.088275    0.087288     0.40366    -0.26855     0.15668
0.045851    0.056374    0.093865    0.078737    -0.17153    -0.56683      0.1626
0.040918    0.050784     0.10307    0.071831    -0.62701    -0.85196     0.16589
0.042891    0.051441     0.11426    0.073476    -0.90227     -1.0661     0.16326
0.053743    0.056703     0.12642    0.078409      -1.019     -1.1752     0.15142
0.066569    0.064267     0.13432    0.077093     -1.0338     -1.1529     0.12807
0.074462    0.074462     0.13497    0.067227     -1.0075    -0.99567    0.095839
0.07512    0.081368     0.13004    0.049468    -0.99238    -0.73916    0.065254
0.068543    0.077751     0.12281     0.02579     -1.0263    -0.47639     0.04881
0.059334    0.065912     0.12017   0.0001381     -1.1078    -0.30702    0.052428
0.051441    0.057361     0.12215   -0.022883     -1.1825    -0.28696    0.077093
0.050784    0.057032     0.12642    -0.03538     -1.1752    -0.40338      0.1159
0.059334    0.061965      0.1284   -0.034722     -1.0397    -0.56913     0.16359
0.07512    0.060979      0.1284   -0.025842    -0.78487    -0.65332     0.20897
0.094194    0.053415     0.12741   -0.011701    -0.45666     -0.5392     0.23791
0.10538    0.041575      0.1307   0.0050711     -0.1005     -0.1666     0.24416
0.10373    0.029078     0.13859    0.016581     0.25139     0.44838     0.23002
0.087617    0.016253     0.14648    0.016253     0.57763      1.1716     0.20436
0.06065   0.0080309     0.14616   0.0063866     0.85322      1.7918     0.17608
0.033025 -0.00019077     0.13695   -0.011043      1.0426       2.124     0.14648
0.013622  -0.0064392     0.11919   -0.035708      1.1153      2.0937     0.11656
-0.00051963  -0.0093991     0.10044    -0.06432      1.0565      1.7553    0.086301
-0.010715   -0.016634    0.082684    -0.09326     0.87427      1.2525    0.053415
-0.016963   -0.030118    0.071173    -0.11727     0.59539     0.74765    0.018884
-0.020909    -0.04393    0.065583    -0.12483      0.2879     0.36255   -0.014003
-0.025514   -0.051823    0.064267    -0.11398    0.043549     0.15076   -0.043272
-0.030775   -0.048205    0.063281   -0.086354   -0.067609    0.094523   -0.064978
-0.035051   -0.038668    0.056374    -0.05281   -0.060045     0.13037   -0.073857
-0.033078   -0.032749    0.044864   -0.019923   -0.044917     0.19055   -0.068595
-0.025514   -0.036037    0.033025   0.0017824    -0.17482     0.22837   -0.055769
-0.014661   -0.037682    0.024803    0.010004    -0.53493       0.231   -0.038011
-0.0015062   -0.032749    0.024474   0.0060577     -1.0661     0.20009   -0.022554
0.011648   -0.021567    0.032367   -0.002164     -1.6021     0.14484   -0.010386
0.024803  -0.0090702    0.041904  -0.0061104     -1.9889    0.078737  -0.0028217
0.035656   0.0040845    0.042233 -0.00019077     -2.1572     0.01987  0.00079584
0.039602    0.011977    0.030065    0.016581     -2.1217   -0.025842   0.0014536
0.038287    0.010991   0.0070443    0.042233     -1.9379   -0.062018  -0.0018351
0.027434   0.0037556   -0.018936     0.07216     -1.6692    -0.10148   -0.015648
0.0077021  -0.0018351   -0.038339     0.10011     -1.3689    -0.15476   -0.039326
-0.019923  -0.0011774   -0.048205     0.12149     -1.0756    -0.21461    -0.06432
-0.047548  0.00046697   -0.052481     0.13333    -0.81907    -0.26559   -0.080763
-0.061031   -0.002164   -0.056098     0.13497    -0.61616    -0.30242   -0.085039
-0.057414   -0.007097   -0.061689     0.12445    -0.48494    -0.32774   -0.085367
-0.03538   -0.010386   -0.071884     0.10209    -0.43134    -0.34813   -0.091616
-0.0051238   -0.011701    -0.08471      0.0692    -0.43232    -0.37313    -0.10641
0.018555   -0.014003   -0.095891    0.029078    -0.44153    -0.40799    -0.12056
0.021186   -0.016305    -0.10674   -0.017292    -0.42739    -0.45567    -0.12845
0.0030979   -0.018607     -0.1176   -0.068924    -0.37214    -0.50961     -0.1347
-0.027158   -0.022883    -0.13272    -0.12056    -0.27644    -0.56782    -0.14226
-0.057743   -0.028802    -0.15147    -0.16824    -0.16002    -0.62241    -0.15081
-0.075501   -0.034393    -0.17022     -0.2054   -0.057414    -0.66089    -0.15936
-0.081092   -0.038339    -0.18304    -0.22875   0.0034268    -0.67272    -0.16594
-0.079777   -0.038339    -0.18337    -0.23566    0.016253    -0.65464    -0.16693
-0.076159    -0.03538    -0.17581    -0.22579  -0.0064392    -0.61254    -0.16035
-0.070897   -0.028802    -0.16462     -0.2008   -0.034393     -0.5494    -0.14456
-0.063004   -0.023869    -0.15344    -0.16857   -0.035708    -0.46883    -0.12483
-0.051165   -0.016963    -0.14325    -0.13207  -0.0061104    -0.37576    -0.10576
-0.036695  -0.0015062    -0.12976   -0.092603    0.033683     -0.2794   -0.090958
-0.018936    0.025461    -0.11003   -0.055112    0.058019    -0.17679   -0.081421
-0.0008485    0.052757   -0.085696    -0.02354    0.054072   -0.045246   -0.074515
0.0093464      0.0692   -0.061031    0.002769    0.062952     0.12281   -0.063662
0.010991    0.071831    -0.04097    0.025132     0.15175     0.30007   -0.050179
0.0063866    0.065583     -0.0265    0.047824     0.33756     0.43128    -0.03538
0.0054    0.058019    -0.01499    0.072818     0.56283     0.47042   -0.020252
0.010333    0.053415  -0.0031506    0.098141     0.72792     0.40201  -0.0054526
0.017897     0.05177   0.0083598      0.1182     0.75259     0.24021   0.0047422
0.024145    0.055388     0.01691     0.13563     0.63715    0.012306    0.013951
0.022501    0.059663    0.018555     0.15273     0.45003    -0.23073    0.021186
0.0093464    0.059334    0.015595      0.1672     0.28428    -0.42838    0.024474
-0.0097279    0.050126    0.010662     0.17411     0.21423    -0.54151     0.01691
-0.032091    0.027763   0.0044134      0.1672     0.25665    -0.57998  -0.0061104
-0.056098   0.0001381   0.0011247     0.14747     0.35005    -0.57735   -0.041299
-0.077475   -0.018607   0.0017824      0.1205     0.35203    -0.55959   -0.079119
-0.092931   -0.021896   0.0040845    0.099456     0.14352    -0.53394    -0.10806
-0.095562   -0.015648   0.0057288     0.09255    -0.24618    -0.50138    -0.12187
-0.082736  -0.0093991   0.0073732     0.10439    -0.57998    -0.46291    -0.11595
-0.054454  -0.0084125   0.0086887     0.13958    -0.57143    -0.41489   -0.090629
-0.014661  -0.0057815   0.0093464     0.18858   -0.089972    -0.35175   -0.050179
0.029078   0.0024402    0.010991     0.24317       0.771    -0.25737 -0.00051963
0.068214    0.018555     0.01691     0.29184      1.7602    -0.11398    0.048482
0.099785    0.044206    0.025461     0.33262       2.612    0.074133    0.091234
0.12675    0.075449    0.037958     0.36814      3.1158     0.28888      0.1284
0.14912     0.10307    0.050126     0.39478      3.1951     0.50824     0.15997
0.16589     0.11952     0.05769     0.40234      2.9054      0.7072     0.18891
0.17181     0.12149    0.056374     0.38458      2.3571     0.85421     0.21522
0.16622     0.11623    0.047495      0.3438      1.6672     0.92623     0.23396
0.15569     0.10899    0.036314     0.28757     0.96405     0.92064     0.24284
0.14352      0.1057    0.028421     0.22344      0.3882     0.86078      0.2435
0.12807     0.10603    0.022501     0.16095    0.052428     0.77659     0.24218
0.1113      0.1057    0.017239     0.10472   -0.019594     0.68616     0.23922
0.092221     0.10274    0.012635    0.058676     0.10044     0.59637     0.23133
0.073147    0.096496   0.0070443    0.026447     0.29283     0.50133     0.22114
0.058676    0.086301   0.0037556   0.0073732     0.44148     0.40234     0.20798
0.048482    0.073476  -0.0011774  -0.0084125     0.49903     0.31552     0.19253
0.038944    0.061307   -0.010057   -0.033078     0.48028     0.25238     0.16918
0.028421    0.051441   -0.023869   -0.068266     0.45003     0.20568     0.13826
0.014279    0.046508    -0.04097    -0.10609     0.46812     0.15109      0.1011
0.00046697    0.041247   -0.054783    -0.13766     0.55198    0.078737    0.062294
-0.0064392    0.033025   -0.063004    -0.15344     0.67892    0.012635    0.020528
-0.010715     0.02283   -0.063662    -0.14752     0.79238    -0.01203   -0.021567
-0.014332    0.014937   -0.059058    -0.12582     0.83053    0.026447   -0.058729
-0.014332   0.0093464   -0.055112   -0.099509     0.75752     0.11919   -0.085039
-0.0097279   0.0090175   -0.056098   -0.069911     0.56743     0.23331   -0.097207
-0.00051963    0.014279   -0.056756   -0.034064     0.26619     0.33493   -0.098193
0.016253    0.024145   -0.052481   0.0073732    -0.15213     0.39379   -0.089314
0.034998    0.039602   -0.039655    0.055388    -0.69015     0.39577   -0.069911
0.05177     0.05769   -0.022883    0.099456     -1.3074     0.34742   -0.043272
0.058019    0.070516  -0.0093991     0.13596     -1.9178     0.26619   -0.012359
0.057361    0.072489  -0.0067681     0.16095     -2.3884     0.17115    0.018555
0.052428     0.06361   -0.013674      0.1797     -2.5719    0.083999    0.047166
0.047166    0.049139   -0.024856     0.19187     -2.4164    0.015595    0.066898
0.039602    0.034669   -0.034064     0.19055     -1.9938   -0.037353    0.074133
0.031709    0.020528   -0.035051     0.17049     -1.4357   -0.080763    0.066898
0.030065    0.012306   -0.027158     0.13596    -0.89241    -0.11957    0.051441
0.035985    0.013622    -0.01499     0.10044    -0.48231    -0.15542    0.033683
0.047824    0.024803  -0.0038083    0.077422    -0.26328    -0.17482    0.022501
0.059992    0.042233   0.0040845    0.069858    -0.21527    -0.15575    0.015266
0.068871    0.060321   0.0063866      0.0692    -0.22678   -0.084052    0.010662
0.072489    0.073476   0.0060577    0.067227    -0.14522    0.039931    0.010991
0.068543    0.078737   0.0057288    0.058019     0.10669     0.20404    0.016253
0.062294    0.078737   0.0070443    0.042233     0.47436      0.3813    0.017568
0.05769    0.071502   0.0040845    0.023488     0.83086     0.54902    0.010991
0.056046    0.056374  -0.0031506   0.0077021      1.0597     0.69207   -0.002164
0.053415    0.039602   -0.013674   -0.007097      1.0913      0.8029   -0.016634
0.048153    0.026776   -0.018607   -0.024198     0.91636     0.88315   -0.030118
0.0373    0.023817   -0.013017   -0.049192     0.59013      0.9305   -0.036366
0.019541    0.029078  -0.0008485    -0.08175     0.18989     0.94103   -0.036366
-0.0047949    0.034998   0.0070443    -0.12319     -0.2304     0.89663   -0.030775
-0.025514     0.03434    0.002769    -0.17186    -0.63195     0.77988   -0.022883
-0.03538     0.02579  -0.0084125    -0.22382    -0.95358     0.57894   -0.016634
-0.032091   0.0077021   -0.020909    -0.26855     -1.1256      0.3073    -0.01203
-0.021238    -0.01795   -0.026829    -0.29124     -1.1295  -0.0047949   -0.010715
-0.011701   -0.042286     -0.0265    -0.28532     -1.0085    -0.32478   -0.012359
-0.0087413   -0.053467   -0.021896    -0.26197    -0.81414    -0.62668   -0.020909
-0.012688   -0.048863   -0.010386     -0.2281    -0.56518    -0.89043   -0.033406
-0.023869   -0.032749   0.0060577    -0.19258     -0.2817      -1.097   -0.046561
-0.038339   -0.017621    0.019212     -0.1735   -0.039655     -1.2348   -0.057414
-0.057414   -0.012359    0.021843    -0.18666    0.048153     -1.3045   -0.069911
-0.083394   -0.019265   0.0096753    -0.23402   -0.071226     -1.3305   -0.089643
-0.11694   -0.036037    -0.01499    -0.30045    -0.32413     -1.3502    -0.12417
-0.15147   -0.056098   -0.045903    -0.36589    -0.56058     -1.3913     -0.1689
-0.17778   -0.072542   -0.070568    -0.41029    -0.65431     -1.4663    -0.21691
-0.19126   -0.081092   -0.081092    -0.41752    -0.52243     -1.5699     -0.2521
-0.19093   -0.083065    -0.07879    -0.38661    -0.15509     -1.6738    -0.26526
-0.1837   -0.080434   -0.064978    -0.32873     0.33657     -1.7337    -0.25375
-0.17318   -0.076159   -0.044588    -0.25901     0.75226     -1.7152     -0.2304
-0.15903   -0.068924   -0.027158    -0.19192      0.8986     -1.6169    -0.20935
-0.14456   -0.057414   -0.016963    -0.13832     0.70655     -1.4669     -0.1985
-0.12911   -0.043601  -0.0084125    -0.10115     0.28329     -1.3245    -0.19356
-0.11266   -0.031433   0.0034268   -0.076817    -0.15015     -1.2302    -0.18797
-0.090629   -0.022554    0.020528   -0.057085    -0.40864     -1.1479    -0.17285
-0.06432   -0.014003    0.044206   -0.032091    -0.43495     -0.9743    -0.13963
-0.034722  -0.0018351    0.076106   0.0044134    -0.26098    -0.60432   -0.085039
-0.0054526    0.013951      0.1113     0.05473    0.061965  -0.0028217   -0.014003
0.020857    0.030723     0.14254     0.11491     0.53488     0.76936    0.063281
0.048153    0.043877     0.17049     0.19055      1.1775      1.6007     0.14714
0.086301     0.05473     0.20272     0.29283      1.9645        2.39     0.24021
0.14155    0.073804     0.24514     0.42569      2.7807      3.0514     0.34117
0.20963     0.10307     0.29711     0.57072      3.4299      3.5026     0.43753
0.27704     0.13366     0.34315     0.69405      3.6634      3.6604     0.51843
0.32802     0.15734     0.37242     0.76278      3.2757      3.4976     0.56908
0.34841     0.16819     0.37505     0.75982      2.2476       3.078      0.5796
0.33164     0.16523     0.35038     0.68977     0.83875      2.5406     0.55033
0.28592     0.14977     0.30598     0.58223    -0.52309      2.0292     0.49344
0.23133       0.133     0.25435     0.47568     -1.4308      1.6343     0.42701
0.18726     0.12248     0.20601     0.39445     -1.7126      1.3748     0.36551
0.16293     0.11853     0.17049     0.34676     -1.4239      1.2183      0.3221
0.15175     0.11393     0.14879     0.31848    -0.84308      1.1189     0.29217
0.1432     0.10242     0.13366     0.27704    -0.32972      1.0384     0.26257
0.13004     0.08367     0.12149     0.20404    -0.11003     0.95122      0.2264
0.10801    0.064267     0.10636     0.10439    -0.18173     0.84072     0.18595
0.081039     0.04881    0.085972   0.0030979    -0.39121     0.68484     0.14517
0.050126    0.034011    0.062294   -0.079119    -0.58097     0.46351     0.10439
0.017239    0.021514    0.038944    -0.13536    -0.68588     0.17608    0.061307
-0.018278   0.0093464    0.015595    -0.16693    -0.72732    -0.15246    0.015924
-0.051494  -0.0051238   -0.007097    -0.17712    -0.74968    -0.47475   -0.023211
-0.080106   -0.019594   -0.022883    -0.16331    -0.78421    -0.74606   -0.051823
-0.10181   -0.032749    -0.03242    -0.13174    -0.85262    -0.94075   -0.067609
-0.11431   -0.045246   -0.039326   -0.093918    -0.95588     -1.0568   -0.071226
-0.12286   -0.052481   -0.044588    -0.06136     -1.0565     -1.1072   -0.065964
-0.13141    -0.04985   -0.048205   -0.041299     -1.1072     -1.1164   -0.061689
-0.14029    -0.04097   -0.051494   -0.041299     -1.0739     -1.1144   -0.066951
-0.14489   -0.030447   -0.054125   -0.054125    -0.92595     -1.1144   -0.083065
-0.14522   -0.024527   -0.059716   -0.065964    -0.61517     -1.1121    -0.10247
-0.13832   -0.022554   -0.065964    -0.06728    -0.12516      -1.094    -0.11299
-0.12384   -0.020581   -0.068595   -0.056098     0.48357     -1.0542    -0.10773
-0.099838   -0.014003   -0.062018   -0.034722      1.0315     -1.0009   -0.089972
-0.069582  -0.0008485   -0.047219    -0.01499      1.2919    -0.95029   -0.064978
-0.041299    0.014279   -0.030118  -0.0018351      1.1331    -0.91839   -0.040641
-0.018278    0.023817   -0.019594  0.00046697     0.60065    -0.89931   -0.030447
-0.0064392    0.030723   -0.016634  -0.0067681    -0.10378    -0.87761   -0.040641
-0.0074258    0.036314   -0.018278   -0.018936     -0.7089    -0.83486   -0.069582
-0.021896    0.038287   -0.022225   -0.039326      -1.024    -0.77106    -0.10937
-0.045574    0.033354   -0.027816    -0.07024     -1.0072    -0.72271    -0.15147
-0.069582    0.024145   -0.034393     -0.1028    -0.75955    -0.71285     -0.1814
-0.088656    0.012635   -0.038997     -0.1245    -0.44515    -0.71975    -0.18962
-0.097864   0.0021113   -0.043272    -0.13272    -0.19554    -0.69871    -0.17613
-0.097864  -0.0097279   -0.049192    -0.13305   -0.075173    -0.61945    -0.14719
-0.089643   -0.019265   -0.056098    -0.13042     -0.0903    -0.48395    -0.11464
-0.074515   -0.024198   -0.060702     -0.1222    -0.20409    -0.31196   -0.082736
-0.053138   -0.019923   -0.056098    -0.10411     -0.3478    -0.12746   -0.054454
-0.028144  -0.0077547   -0.042615   -0.077146    -0.42081    0.049139   -0.026829
-0.0015062   0.0050711   -0.024527   -0.044917    -0.33695     0.21916   0.0030979
0.020528    0.015595  -0.0054526   -0.014003   -0.083723      0.3905    0.032038
0.035656    0.023488    0.012306   0.0093464     0.25731     0.57007    0.059663
0.04618    0.030723    0.024474    0.016253     0.53159     0.75094    0.082355
0.057032    0.036642    0.030065     0.01132     0.58125     0.89926     0.10044
0.069529    0.037629    0.033025   0.0017824     0.35433      0.9601     0.11393
0.083013    0.033683    0.033354  -0.0067681   -0.061031     0.89071     0.12313
0.096167    0.025461    0.031381   -0.016634    -0.48691     0.69306     0.12971
0.10669    0.018555    0.027434   -0.027487    -0.77632     0.41221     0.13563
0.11557     0.01987    0.026447   -0.039326    -0.88583     0.11754      0.1455
0.1205    0.028092    0.028421   -0.050507    -0.85327    -0.12976     0.15799
0.12083    0.037958    0.032367   -0.062676    -0.75198     -0.3159     0.16654
0.11689    0.043549    0.038616   -0.076488    -0.64477    -0.46521     0.17246
0.10801      0.0373    0.045851   -0.087341    -0.56551    -0.61123     0.17674
0.097483     0.02283    0.050126   -0.095562    -0.52868    -0.77303     0.18134
0.087617    0.010662    0.050455   -0.094576    -0.54776    -0.94437     0.18726
0.079066   0.0073732    0.050126   -0.082079    -0.64082     -1.0933     0.19614
0.070845    0.013951    0.046508   -0.060373    -0.78783     -1.1719     0.20272
0.06624    0.025461    0.042233   -0.043601    -0.92661     -1.1466     0.19483
0.065912    0.034011    0.036314   -0.042615    -0.99929     -1.0174     0.16885
0.06361    0.037629    0.029736   -0.055112     -0.9664    -0.82302     0.12609
0.055388     0.03434    0.023159   -0.069911    -0.82269    -0.62274    0.075778
0.036971    0.024145    0.014937    -0.07583    -0.60564    -0.46291    0.031709
0.015266   0.0093464   0.0034268   -0.066293    -0.37642    -0.34846 -0.00051963
-0.0057815  -0.0084125  -0.0061104    -0.04097    -0.18041    -0.24816    -0.02354
-0.022225   -0.022225   -0.014003  -0.0074258   -0.020252   -0.099509   -0.043272
-0.036037   -0.030118   -0.018936    0.017897      0.1307     0.15471   -0.058071
-0.044259   -0.034722   -0.021896    0.024474     0.29349     0.50298   -0.065307
-0.04393   -0.037353   -0.024856    0.012306     0.47173     0.87032   -0.065964
-0.035708   -0.037682   -0.026829  -0.0047949     0.66017      1.1647    -0.06136
-0.024856   -0.035708    -0.02946   -0.010715     0.85684      1.3311   -0.056427
-0.018278   -0.030775   -0.032749   0.0034268      1.0456       1.361   -0.055112
-0.016305   -0.022225   -0.039326    0.040918      1.1821      1.2926   -0.055112
-0.01499   -0.013017   -0.044588    0.094194      1.2278       1.192   -0.049192
-0.0090702  -0.0015062   -0.044259     0.14977      1.1505      1.1127   -0.031762
0.0017824   0.0077021   -0.038339      0.1968     0.95944      1.0719   -0.004466
0.017568    0.013951   -0.024527     0.23002      0.7049      1.0486    0.019212
0.02875    0.016253  -0.0064392     0.24778     0.45529      1.0045    0.027105
0.034011    0.016581    0.010333     0.25041     0.27145     0.90387    0.016581
0.034669    0.016253    0.019541     0.23659     0.17838     0.73318   -0.010715
0.033025    0.016253    0.020857     0.21324     0.17115     0.49771   -0.047877
0.030065     0.01691    0.023488     0.18891     0.22212     0.23035   -0.082736
0.025132    0.017897    0.031052     0.16819     0.29119   -0.027816     -0.1028
0.020528    0.018226    0.040918     0.14846     0.34479    -0.23763    -0.10576
0.013293    0.015595    0.047166     0.12379     0.36847    -0.38595    -0.09622
0.0057288   0.0096753    0.045851    0.093536     0.37011     -0.4833   -0.089643
-0.0034794   0.0001381    0.036642    0.057032     0.37077    -0.54578   -0.096549
-0.014332  -0.0090702    0.022172    0.022501     0.39017     -0.5813    -0.11562
-0.026829   -0.015648   0.0060577  -0.0008485     0.44773    -0.58788    -0.13864
-0.037353   -0.022554   -0.011372   -0.004466     0.54178     -0.5665    -0.15805
-0.039326   -0.027816   -0.027158   0.0080309     0.63847    -0.52145    -0.16693
-0.03242   -0.030775   -0.041957    0.023817     0.68287    -0.46356     -0.1666
-0.019594   -0.029789    -0.05544    0.031381     0.64768    -0.40568    -0.16035
-0.0077547   -0.028144   -0.064978    0.024803     0.54277    -0.34879    -0.15443
-0.0041372   -0.025842   -0.069582  0.00046697      0.3882    -0.28499    -0.15805
-0.010715   -0.023211   -0.070897   -0.038011     0.18496    -0.21757    -0.17285
-0.023211   -0.022883   -0.070897   -0.079448   -0.045903    -0.15969    -0.18501
-0.035708   -0.022554   -0.069253    -0.11464    -0.24684    -0.12187    -0.18304
-0.041957   -0.024527   -0.067937    -0.13864    -0.34616   -0.097864    -0.17054
-0.042944   -0.029789   -0.065307    -0.14555    -0.30078   -0.074515    -0.14752
-0.040313    -0.03242   -0.059058     -0.1324     -0.1176   -0.051165    -0.11299
-0.030447   -0.030447   -0.050507   -0.098851     0.14155   -0.035708   -0.069253
-0.013674   -0.025842   -0.040641   -0.054783     0.37801   -0.041299   -0.022554
0.0096753   -0.019594    -0.02946   -0.011372     0.48127   -0.079448    0.012306
0.031709   -0.014003   -0.017292    0.026119     0.35729    -0.15147    0.033025
0.043877  -0.0093991  -0.0018351    0.055388   -0.018936    -0.25243    0.043549
0.045522  -0.0054526    0.014937      0.0692    -0.57768     -0.3705    0.048482
0.042562  -0.0024928    0.027434     0.05769      -1.192    -0.49349    0.046508
0.038616   0.0014536    0.029407    0.024474     -1.7396    -0.61254    0.036971
0.0373   0.0070443    0.023159   -0.019265     -2.1211    -0.71942    0.028421
0.039273    0.013622    0.014937   -0.055112     -2.2786    -0.80394    0.025132
0.043877     0.01987   0.0083598    -0.07024     -2.2204    -0.84933    0.026447
0.051113    0.025132   0.0080309   -0.063004     -2.0145    -0.84735    0.030065
0.060979    0.030394    0.016581   -0.036366     -1.7632    -0.79967    0.035985
0.073476    0.037629    0.033683   0.0047422     -1.5617    -0.71811    0.043549
0.08663    0.045522     0.05473    0.046837     -1.4347    -0.62833    0.044535
0.097483    0.056703    0.071831    0.078409     -1.2864     -0.5494    0.032696
0.10242    0.067885    0.080711    0.096496    -0.96936    -0.47804   0.0047422
0.10176    0.073804    0.084328     0.10603    -0.38135    -0.39023   -0.033078
0.098798    0.075449    0.087617     0.11458     0.47108       -0.26   -0.069911
0.095181    0.073147    0.091563     0.12971      1.4958   -0.068266   -0.090629
0.090905    0.071173    0.097483     0.15734      2.5985     0.19022   -0.089314
0.081039    0.069529     0.10242     0.19614      3.6874     0.50659   -0.065964
0.068871    0.067556     0.10702     0.24317       4.601     0.85651   -0.028144
0.059005    0.067227     0.10899     0.28888      4.9594      1.2015    0.016253
0.051441      0.0692     0.10439     0.31914      4.9594      1.4962    0.064267
0.044864    0.074462    0.089261     0.32013      4.5628      1.6964     0.10801
0.040589    0.077093    0.067556     0.29743      3.5506      1.7754     0.14747
0.042891    0.077093    0.047166     0.26981       2.317      1.7405     0.18266
0.053415    0.077093    0.033354     0.25304      1.1055      1.6198     0.21456
0.067885    0.082026    0.027763     0.25863     0.09551      1.4425     0.24712
0.087946    0.090905    0.032038     0.28527    -0.61715      1.2321     0.27704
0.11097     0.10209    0.043549     0.32868     -1.0322     0.99529     0.30072
0.13169     0.10801     0.05769     0.37505     -1.2114     0.73154      0.3119
0.14352     0.10538    0.070187     0.40662     -1.2588     0.45726      0.3073
0.14221    0.095839    0.076435     0.40629     -1.2785     0.20436     0.29184
0.13333    0.081697    0.072818     0.36979     -1.3153   0.0021113     0.27408
0.11689    0.064925    0.055388     0.30335     -1.3334    -0.14062     0.25435
0.097154    0.049139    0.026119      0.2162     -1.2561    -0.24553     0.22936
0.076106    0.038944  -0.0084125     0.11458     -1.0348    -0.34747     0.19549
0.053415    0.031709    -0.04097    0.013951    -0.69706     -0.4685     0.15405
0.024474    0.022501   -0.065635   -0.070897     -0.3432    -0.62339     0.11261
-0.0077547    0.010662    -0.08175    -0.13338   -0.072213        -0.8    0.071831
-0.041957  -0.0011774     -0.0903    -0.18008    0.044206    -0.97462    0.031709
-0.071555   -0.010386   -0.095891    -0.21987    -0.02946     -1.1299   -0.011372
-0.094905   -0.016634    -0.10181    -0.25671    -0.26888     -1.2607   -0.059716
-0.10477   -0.022225    -0.10609    -0.28631    -0.60827     -1.3683    -0.10839
-0.098522    -0.02946     -0.1074    -0.30143    -0.97199     -1.4469    -0.14719
-0.082736   -0.036037    -0.10477    -0.29683     -1.2824     -1.4791    -0.16199
-0.062347   -0.038011   -0.097864    -0.26855     -1.4561     -1.4354    -0.14654
-0.041957   -0.031762   -0.086683    -0.21626     -1.4318     -1.2982    -0.10444
-0.026171   -0.013345   -0.069253    -0.14884     -1.1887     -1.1081   -0.046232
-0.017621    0.013293   -0.048534   -0.079448    -0.76448    -0.95391    0.013951
-0.015976    0.036642   -0.031104   -0.019594    -0.22579    -0.87498    0.061965
-0.017621     0.04618   -0.025842    0.015924     0.35334     -0.8023    0.088603
-0.023211    0.046508   -0.035708    0.024803     0.89038    -0.60958    0.091563
-0.031104     0.04618   -0.051165    0.010333      1.3261    -0.20047    0.081697
-0.040313    0.049468    -0.06136   -0.014661      1.6251     0.42438    0.069858
-0.051823    0.053415   -0.063004   -0.034393      1.7764       1.139    0.061965
-0.065635    0.055717   -0.059716   -0.045903      1.7898      1.7678    0.058676
-0.079119    0.058676   -0.054783   -0.044588      1.6744      2.1772    0.057361
-0.088327    0.060321   -0.050836   -0.028802      1.4781      2.3246    0.053415
-0.091616    0.060321   -0.046232  -0.0054526      1.2712      2.2631    0.042891
-0.088327    0.058019   -0.038668    0.011648      1.0867      2.0907    0.028421
-0.077146    0.055717   -0.029131    0.012964     0.95056      1.9217    0.015595
-0.061689    0.057361    -0.02354  -0.0024928     0.92261      1.8822   0.0080309
-0.045574    0.062952   -0.026171   -0.026829      1.0061       2.073   0.0077021
-0.032749    0.068543   -0.035708   -0.050179      1.1262      2.5117    0.013622
-0.024527    0.069858   -0.052481   -0.064978      1.1679      3.0731    0.027763
-0.019923    0.064925   -0.070897   -0.070897      1.0387      3.5157    0.046508
-0.014661    0.056046   -0.082736   -0.070897     0.73943       3.593     0.06624
-0.0051238    0.043549   -0.081421   -0.069582     0.35367      3.1852    0.081697
0.0014536    0.032038   -0.063004    -0.07287   -0.016634      2.3529    0.082684
-0.0034794    0.024474   -0.037353   -0.085039    -0.30176      1.2975    0.063938
-0.024198    0.019541   -0.016634    -0.10181     -0.4902     0.26422    0.027434
-0.053138    0.019212  -0.0084125    -0.11727    -0.62635    -0.54808   -0.014003
-0.077475    0.024145  -0.0061104     -0.1245    -0.75165     -1.0559   -0.046561
-0.086683    0.031381  -0.0018351    -0.11858    -0.84933     -1.2949   -0.059716
-0.08175    0.035656    0.010004    -0.10148    -0.89635      -1.339   -0.050836
-0.067609    0.038287    0.027763   -0.077146    -0.89076     -1.2769   -0.018278
-0.047548     0.04026    0.049468   -0.049192    -0.83091     -1.1877    0.030723
-0.025185    0.041575    0.072489    -0.01795    -0.72732     -1.1239    0.081039
-0.0031506    0.040918    0.095181    0.024145    -0.61747     -1.1052     0.11853
0.018555    0.040918      0.1136    0.075449    -0.52539     -1.1381     0.13169
0.042233    0.042891     0.12708       0.133    -0.46028     -1.2229     0.12017
0.069529    0.049797     0.14352     0.18496    -0.45501     -1.3492     0.09255
0.098798    0.063281     0.16391     0.22508    -0.57702     -1.4837    0.069529
0.12445    0.080711     0.19055     0.25402    -0.89307     -1.5814    0.064267
0.13958    0.096825     0.21653     0.27343     -1.4179     -1.5959    0.077422
0.14089     0.10538     0.23429     0.28362     -2.0599     -1.4821     0.09255
0.12774     0.10274     0.23955     0.27737     -2.6183     -1.2009    0.095181
0.1034    0.090905     0.22804     0.24975     -2.8146    -0.74508    0.087946
0.078737    0.073147     0.20568     0.20601     -2.4437    -0.15706    0.085644
0.062952    0.055059     0.17411     0.15931     -1.5432     0.46022      0.1011
0.058676    0.037958     0.13728     0.11458    -0.38891     0.97885     0.12807
0.061965    0.021186     0.10077    0.068214     0.61841      1.2949     0.15109
0.065583   0.0034268    0.066569    0.013951      1.1541      1.3541     0.15569
0.061636   -0.013345    0.033025   -0.051165      1.1216      1.1597     0.13662
0.045522   -0.025185   0.0057288    -0.11924     0.63123      0.7562    0.095181
0.023488    -0.03242   -0.012688    -0.17613   -0.077146     0.21588     0.04618
0.0017824   -0.033078   -0.018278    -0.21165     -0.7362    -0.37346   0.0037556
-0.018278   -0.032091   -0.011043    -0.22152     -1.1716    -0.93713   -0.029131
-0.036695   -0.031762   0.0014536    -0.20869     -1.3489     -1.4288     -0.0584
-0.055112   -0.033078    0.013293    -0.18534     -1.3028     -1.8149   -0.086025
-0.07287   -0.037353    0.018555    -0.15772     -1.0437      -2.054    -0.11168
-0.082736   -0.045574    0.024474    -0.12549    -0.55565     -2.0987    -0.12253
-0.082408   -0.055769    0.030065   -0.085696    0.099127     -1.9283    -0.11036
-0.073528   -0.062347    0.034998   -0.033735     0.73417     -1.5811   -0.075501
-0.060373   -0.061689      0.0373    0.029736      1.1584     -1.1331   -0.033735
-0.047877    -0.05281    0.038287    0.097812      1.2978    -0.66878 -0.00019077
-0.039326   -0.043272    0.038944     0.16161      1.1962    -0.25243    0.012964
-0.028802   -0.034722    0.036314     0.20798     0.93313    0.084657   0.0090175
-0.013017   -0.027487    0.030065     0.23133      0.5819     0.34512  -0.0054526
0.0054   -0.021896    0.021514     0.22771     0.19746     0.54047   -0.019594
0.018555   -0.022225    0.012964     0.19845    -0.19324     0.66807   -0.025185
0.021186   -0.027816   0.0011247     0.15142    -0.55565     0.71148   -0.023211
0.015595   -0.034722   -0.012359     0.10373    -0.79112     0.67037    -0.01795
0.0073732   -0.043601   -0.029789    0.068871    -0.77895     0.57335   -0.011701
0.0034268   -0.048863   -0.050836     0.04618    -0.47771       0.452  -0.0084125
0.0057288    -0.04985   -0.070568    0.027434   0.0044134     0.33394   -0.011043
0.013293   -0.047548   -0.082736   0.0014536     0.45595     0.22969   -0.016963
0.021514   -0.041628    -0.08471   -0.038011     0.69076     0.13925   -0.024198
0.027763   -0.036366   -0.073528   -0.087012     0.62729    0.055059   -0.030118
0.030723   -0.032749   -0.055769    -0.14456     0.31486   -0.020909   -0.035708
0.029736   -0.031433   -0.041957    -0.20212    -0.11102   -0.082736   -0.038668
0.026119   -0.032749   -0.038997    -0.24618    -0.51026    -0.13766   -0.040313
0.024803   -0.028802    -0.04393    -0.25868    -0.80559    -0.20113   -0.041299
0.030065   -0.014003   -0.044259    -0.23369    -0.98285    -0.28466   -0.047219
0.039273    0.012306   -0.034064    -0.18337     -1.0687    -0.39385   -0.057743
0.048153    0.040589   -0.015319    -0.12746     -1.0878    -0.51487   -0.063991
0.054072    0.061307   0.0044134   -0.079119      -1.048      -0.628   -0.062676
0.05769     0.07216    0.020857   -0.047877    -0.94864    -0.69969   -0.058071
0.059334    0.077093    0.031381   -0.030775    -0.80394    -0.70068   -0.056756
0.055717    0.080053    0.037629   -0.024198    -0.64411    -0.62833   -0.060045
0.050455    0.082026    0.041247   -0.022883    -0.49974    -0.51421   -0.065307
0.047824    0.081368    0.043549   -0.026171    -0.37707    -0.40437   -0.073199
0.047495    0.076435    0.046837   -0.034722     -0.2475    -0.33103   -0.087012
0.049139      0.0692     0.04881   -0.048205   -0.070897    -0.30275     -0.1051
0.051441    0.061965     0.04618   -0.062018      0.1751    -0.30702    -0.12352
0.05177    0.054401    0.041247   -0.071884     0.47404    -0.32117    -0.13996
0.045522    0.044864    0.037629   -0.076159     0.78876    -0.33004    -0.14851
0.030065    0.034669    0.033025   -0.070897      1.0706      -0.333    -0.15311
0.0057288    0.021186    0.024803   -0.054783      1.2663    -0.34057     -0.1564
-0.020252    0.010662   0.0090175   -0.034722      1.3304    -0.36096    -0.16002
-0.04097   0.0070443  -0.0087413   -0.017292      1.2502    -0.39911    -0.16265
-0.053138   0.0083598   -0.022554  -0.0067681      1.0489    -0.45403    -0.16627
-0.063991   0.0083598   -0.033406  -0.0097279     0.77988     -0.5175    -0.16791
-0.076159   0.0030979   -0.041957   -0.031433     0.50067    -0.58097    -0.16035
-0.086025  -0.0028217   -0.048205   -0.068266     0.27803    -0.64017    -0.14062
-0.086683   -0.004466   -0.049521    -0.11102     0.16687    -0.69443    -0.11102
-0.077146   -0.002164   -0.045903    -0.14983     0.18102    -0.74343   -0.074515
-0.060373   0.0014536   -0.038011    -0.17219     0.29678    -0.78454   -0.033735
-0.039655   0.0096753   -0.026829    -0.16791     0.45726    -0.80361     0.01132
-0.017621    0.018555    -0.01499    -0.13437     0.59144    -0.77303    0.067227
0.0044134    0.023817   -0.004466   -0.079119     0.64472     -0.6816     0.12905
0.019541    0.022501      0.0054   -0.010057     0.61216    -0.54512      0.1843
0.024145     0.01691    0.017568    0.062294     0.55823    -0.38825     0.21588
0.021186   0.0090175     0.03434     0.12248     0.55329    -0.21659     0.21357
0.014937   0.0040845    0.054401     0.16589     0.60558   -0.019923     0.18299
0.0047422   0.0057288    0.079066     0.19187     0.62663     0.22179     0.14155
-0.0054526    0.016581     0.10636     0.20996     0.50791     0.52468      0.1159
-0.010057    0.035656     0.13596     0.23495     0.25797     0.86341     0.12083
-0.002164    0.058348     0.16194     0.26849   -0.014661       1.188     0.15668
0.018884    0.079724     0.18036     0.30533    -0.21461      1.4554     0.21127
0.050126    0.093865     0.18957     0.33887    -0.30176      1.6441     0.26882
0.081368    0.095181     0.19022     0.36156    -0.29387      1.7471     0.30927
0.10209    0.083342     0.17871     0.36715    -0.25769      1.7754     0.31782
0.11195     0.06624     0.15865     0.35301    -0.25243      1.7415     0.29316
0.11557    0.052757     0.13464     0.32506    -0.29223      1.6517     0.24383
0.11327    0.045851     0.11557     0.28625    -0.34517       1.507     0.18365
0.10406    0.043549     0.10603     0.24514    -0.37609      1.3071     0.12774
0.095181    0.038944     0.10242     0.20831    -0.35899      1.0558    0.077093
0.08367    0.027763    0.096496     0.17871    -0.27808     0.76739    0.023159
0.064925    0.014608    0.081697     0.15273    -0.13568     0.46351    -0.04393
0.041904   0.0044134    0.055388     0.12017    0.027105     0.17181    -0.12187
0.019212   -0.002164    0.019212    0.074133     0.14879   -0.073857    -0.19422
0.0011247  -0.0067681   -0.016305    0.012635     0.19614    -0.23632    -0.23862
-0.011043   -0.010386   -0.043601   -0.054454     0.18562     -0.3011    -0.23994
-0.022225   -0.015648   -0.060702    -0.11299     0.16424    -0.28236    -0.19652
-0.034064   -0.027158   -0.070568    -0.15213     0.17378    -0.20146     -0.1268
-0.041957   -0.042615   -0.076488    -0.16594     0.20963   -0.082736   -0.047219
-0.046232   -0.057743   -0.076817    -0.15772     0.21226    0.046837    0.026119
-0.044588   -0.065964   -0.074844    -0.13568     0.12083     0.16293    0.084328
-0.034393   -0.063991   -0.077475    -0.11497   -0.069253      0.2458     0.12905
-0.018278   -0.047877   -0.081092   -0.099509    -0.28631     0.30138     0.16326
0.00079584   -0.024198   -0.080763   -0.089314    -0.39911     0.34742     0.18562
0.018884  0.00046697    -0.07287   -0.086025    -0.33136     0.42142     0.19976
0.037629    0.021186   -0.056756   -0.085696    -0.13766     0.55888     0.20765
0.055388    0.036314   -0.037024   -0.085367    0.059334     0.76969      0.2116
0.069529     0.04618   -0.020909   -0.082736     0.17345      1.0094     0.20732
0.077422     0.05177   -0.013674   -0.083065     0.17608       1.192     0.19318
0.07808    0.056374   -0.011043   -0.083723     0.06624      1.2327      0.1774
0.072818    0.059005  -0.0074258   -0.071884    -0.14588      1.1002     0.16786
0.068214    0.059992  0.00046697   -0.030775    -0.42048     0.81704     0.16885
0.059663    0.060321    0.012635    0.045193    -0.67042     0.45562      0.1751
0.051441    0.059005    0.024145     0.14188    -0.79769     0.11458     0.18003
0.040589    0.056703    0.035656     0.22969    -0.70134    -0.11003     0.17838
0.02579     0.05177    0.046508      0.2777    -0.26197    -0.15476     0.17575
0.010333    0.044864    0.056374     0.25863      0.5477   -0.018936     0.16885
-0.0031506    0.037629    0.057032     0.16983      1.5728     0.21916     0.15339
-0.012359    0.036642    0.047166     0.04026      2.5295     0.44542     0.12774
-0.020581    0.038287    0.029407   -0.083394      3.1316     0.56382    0.093536
-0.033406    0.038944   0.0090175    -0.16134      3.2303     0.52665    0.052428
-0.054125    0.036314   -0.014003    -0.17613       2.854     0.34545   0.0021113
-0.071555    0.029736   -0.038339     -0.1347      2.1401    0.079395   -0.046561
-0.078461    0.020857    -0.06432   -0.062676      1.2285    -0.18995   -0.085039
-0.074186    0.012306   -0.087012   0.0096753      0.2116    -0.39615    -0.10641
-0.062018   0.0060577    -0.10017    0.059992    -0.85722    -0.50862    -0.11069
-0.044588   0.0014536   -0.097207    0.082684     -1.8774    -0.53559   -0.097864
-0.027158  -0.0011774   -0.076817    0.087617     -2.6147    -0.50303   -0.073199
-0.016305   -0.002164   -0.047219    0.084328     -2.7666    -0.42903   -0.047877
-0.016305   -0.004466   -0.019594    0.083999     -2.2102    -0.33399   -0.031762
-0.025185  -0.0087413  -0.0061104    0.091892     -1.1381    -0.25309   -0.027487
-0.037353   -0.012359  -0.0051238     0.10669   0.0044134    -0.22316   -0.030447
-0.048534    -0.01203   -0.014332     0.12313      0.7664    -0.24355   -0.038339
-0.052152  -0.0061104   -0.023211     0.13793     0.98641    -0.27447   -0.048863
-0.043601   0.0034268   -0.022225     0.14681      0.8006    -0.26953   -0.060702
-0.022883   0.0096753  -0.0090702     0.14714     0.50725    -0.21527   -0.068924
0.0047422    0.010662    0.010662      0.1376      0.3734    -0.13272   -0.074844
0.035985     0.01691    0.031381     0.12741     0.49147   -0.055769   -0.073528
0.06361    0.031052    0.048153     0.12478     0.77331  -0.0051238    -0.06432
0.080053    0.047824    0.056703     0.13267      1.0351    0.020857   -0.052152
0.083342    0.056703    0.053415     0.14287      1.1282    0.034998   -0.044588
0.079395    0.059005    0.040589     0.14912      1.0121    0.042233    -0.04393
0.07808    0.059005    0.028421     0.15405     0.74634    0.036314   -0.044917
0.081368    0.055717    0.024803     0.16194     0.43194 -0.00051963   -0.037353
0.084986    0.052757    0.029736     0.17575     0.16326   -0.068595   -0.016634
0.088932    0.051441    0.041247      0.1991  -0.0047949    -0.16068    0.013293
0.092221     0.04881    0.055717     0.23166   -0.065964    -0.24651    0.044864
0.094523    0.044864    0.068543     0.27573   -0.050507    -0.29749    0.074133
0.10044    0.043877    0.078409     0.32802   -0.017621    -0.30209    0.097483
0.11261    0.047824    0.086301     0.37866   -0.035051    -0.27282     0.11458
0.1284    0.057361    0.097812      0.4155    -0.13832    -0.22711     0.12741
0.1455    0.066898     0.11623     0.42701    -0.32051    -0.17548     0.13563
0.15569    0.071502      0.1353     0.40464    -0.55631    -0.11102     0.13399
0.15306    0.069858     0.14517     0.34183    -0.82335    -0.01795     0.11952
0.14024    0.067556      0.1455     0.24284     -1.1111    0.098141    0.096167
0.12281    0.063938     0.14056     0.12938     -1.3943     0.20864    0.069858
0.10505    0.058348     0.13267    0.026447     -1.6623        0.28    0.044864
0.086959    0.053086     0.12215    -0.05281     -1.9178     0.27869    0.024145
0.0692    0.053086     0.10834    -0.10806     -2.1546     0.18167  -0.0018351
0.056703    0.056046    0.095181    -0.14062     -2.3375   -0.011372   -0.030775
0.049468    0.060321    0.083013    -0.14884     -2.3891    -0.25835   -0.054125
0.050126    0.063281    0.068543    -0.13305     -2.1835    -0.48198   -0.061689
0.053086    0.061307    0.050784   -0.099838      -1.585    -0.61123   -0.045903
0.05473    0.054072    0.029078   -0.062676    -0.56716    -0.60958   -0.010386
0.050784    0.039273   0.0040845   -0.034064     0.68287    -0.49448     0.03434
0.042562    0.019541   -0.019594   -0.024198      1.7935    -0.32445    0.078409
0.037958    0.002769   -0.038668   -0.033735      2.4183    -0.15903     0.11721
0.040589  -0.0074258   -0.048205   -0.053796      2.3953   -0.048534     0.15142
0.054072  -0.0097279   -0.048205   -0.076159       1.852   -0.015319     0.18167
0.069529   -0.007097   -0.043601   -0.094576      1.1074   -0.045574     0.20042
0.079395   -0.002164   -0.040313     -0.1097     0.48653    -0.11299     0.20206
0.081039   0.0014536   -0.040313    -0.12352     0.14944    -0.19225       0.182
0.075778   0.0034268   -0.047219    -0.13864     0.06065    -0.26756     0.14287
0.06624   0.0047422   -0.060373    -0.15344     0.10998    -0.33366    0.087946
0.058019    0.010004   -0.071884    -0.16791     0.21522    -0.38497    0.029078
0.048482    0.014279   -0.075173    -0.17613     0.32506    -0.40799   -0.018278
0.032038    0.014608    -0.07024    -0.17712     0.38689    -0.39779   -0.047877
0.010333    0.010004   -0.063004    -0.17646      0.3711    -0.36063   -0.059716
-0.016305   0.0014536    -0.06136    -0.17778     0.27639    -0.30768   -0.062347
-0.041957   -0.011701   -0.066293    -0.18403     0.12938    -0.24388    -0.06432
-0.062347   -0.027816   -0.080106    -0.19258   -0.041957    -0.17318   -0.071884
-0.071555   -0.039984   -0.095233    -0.20179    -0.20771   -0.098193   -0.086354
-0.068924   -0.044259     -0.1005    -0.20475    -0.33037   -0.022225    -0.10148
-0.0584   -0.038997   -0.095562     -0.1906    -0.37872    0.046508    -0.11003
-0.047877   -0.026829   -0.082408    -0.15443    -0.34386    0.097483    -0.10641
-0.038668  -0.0084125   -0.062347    -0.09918    -0.25769     0.11952   -0.091945
-0.033735    0.010662   -0.037353   -0.037682    -0.17449     0.11097   -0.069582
-0.034393    0.028092   -0.018278   0.0063866    -0.13404    0.082684    -0.04689
-0.041299    0.038944   -0.015976    0.013293    -0.14654    0.050126   -0.033406
-0.048205    0.042562   -0.036037   -0.022225     -0.2008    0.017239   -0.034722
-0.052481    0.038616   -0.069911   -0.080106    -0.28894   -0.019923   -0.051494
-0.055112    0.032038    -0.10214    -0.13437    -0.41029   -0.070897   -0.079448
-0.061689    0.028421    -0.11891    -0.16693     -0.5517    -0.14029    -0.11266
-0.065964    0.030723    -0.11727    -0.17449    -0.68522    -0.21757    -0.14917
-0.065635    0.038287   -0.099509    -0.16726     -0.7704    -0.27743    -0.17877
-0.056756    0.044206    -0.07287    -0.15476    -0.78553     -0.3067    -0.19389
-0.046232    0.042562   -0.046232    -0.14358    -0.73291    -0.31097    -0.19258
-0.038011     0.03434   -0.027487    -0.13799    -0.62866    -0.32084    -0.17877
-0.037024    0.024803   -0.019265      -0.137    -0.46948    -0.36819    -0.15969
-0.038997    0.014608   -0.019594    -0.13733    -0.24421    -0.46028    -0.14029
-0.041299   0.0060577   -0.024198    -0.13601   0.0070443    -0.58985    -0.12483
-0.045574  -0.0034794   -0.031433    -0.13075     0.18365     -0.7385    -0.11003
-0.04985   -0.010057   -0.033735    -0.11924     0.18924    -0.86577   -0.096878
-0.053138  -0.0067681   -0.024198    -0.10017    0.010662    -0.93286   -0.077475
-0.05281  0.00046697  -0.0041372   -0.072213    -0.24585    -0.92102   -0.049521
-0.04985   0.0080309    0.022172   -0.038011    -0.41292    -0.84012   -0.021567
-0.04393    0.015924    0.050126  -0.0061104    -0.35307     -0.7112 -0.00019077
-0.038339    0.023817     0.07216    0.023817   -0.060702    -0.54216    0.010662
-0.038011    0.025461    0.085972    0.050126     0.30664    -0.33695    0.012635
-0.048205     0.01691    0.093865    0.069529     0.53718    -0.09918    0.010004
-0.06136   0.0030979    0.098469    0.082355     0.52172     0.15898   0.0083598
-0.068595  -0.0097279    0.099785     0.08663     0.31947     0.42569    0.011977
-0.07024   -0.015319    0.098141    0.086959    0.099785     0.69734    0.015924
-0.066951   -0.016305    0.093865    0.089919   -0.018936     0.97589     0.02283
-0.060373   -0.011043    0.091234    0.097812   -0.025842      1.2383    0.033025
-0.049521  -0.0041372     0.08959     0.10866    0.020857      1.4166    0.045851
-0.037024   0.0030979     0.08663     0.11557    0.052757      1.4498    0.054401
-0.0265    0.010004    0.079395     0.11689    0.027105      1.3199    0.056046
-0.020581    0.013622    0.067227     0.11261    -0.04689      1.0611    0.054401
-0.020909    0.011977    0.050126    0.098798    -0.13272     0.73483    0.047824
-0.030447   0.0060577    0.031381    0.070516    -0.20573     0.39741     0.03434
-0.044917  -0.0047949    0.012964    0.026776    -0.27578    0.082026   0.0044134
-0.059716    -0.01795  -0.0067681   -0.021567    -0.36523    -0.19093   -0.040641
-0.069582   -0.031762   -0.028802   -0.064978    -0.46488     -0.3922   -0.099509
-0.075173   -0.042944   -0.050179   -0.091287    -0.51717    -0.49251    -0.16035
-0.079777   -0.049521    -0.06728    -0.09622    -0.45699    -0.49316    -0.20639
-0.08175    -0.04985   -0.077803   -0.076817    -0.26032    -0.41621    -0.22481
-0.082408   -0.042615   -0.083394   -0.033406    0.023817    -0.29255    -0.21363
-0.080106   -0.027158   -0.082408    0.023159     0.30697    -0.16035    -0.17745
-0.073199  -0.0097279   -0.075173    0.089261     0.51449   -0.041628    -0.12648
-0.057743   0.0077021   -0.056756      0.1603     0.62301    0.055388   -0.065307
-0.031433    0.023488   -0.024198      0.2389     0.65031     0.13432  -0.0015062
0.0024402      0.0373    0.015924     0.31815     0.61742     0.20404    0.058676
0.038616    0.047166    0.052757     0.37866     0.54408     0.27376     0.11393
0.070516    0.052757    0.079395     0.40004     0.44806     0.34874     0.16161
0.097483    0.055059    0.096167     0.38097     0.35597     0.43983     0.19614
0.11524    0.056703     0.10735     0.33295      0.2879     0.55527     0.21785
0.12412    0.061636     0.11162      0.2731     0.21916     0.69109     0.23002
0.12281    0.069529     0.10998     0.21489    0.049139     0.81474     0.23824
0.11195    0.080053     0.10505     0.16293    -0.32906     0.87887     0.24778
0.099456    0.094194    0.097812     0.11491    -0.90852     0.84862     0.25271
0.090248     0.10801    0.093208    0.068214     -1.5281     0.72003     0.25271
0.084328     0.11327    0.093208    0.023817     -1.9701     0.52698     0.24547
0.081697     0.10801    0.096496   -0.011043     -2.0813     0.32933     0.22771
0.08367    0.091892    0.098141   -0.034722     -1.7672     0.18266     0.20601
0.08663    0.070187    0.089261   -0.049192     -1.0052     0.10735     0.18792
0.086959    0.050455    0.068214   -0.058071    0.068214    0.083013      0.1751
0.082026      0.0373    0.040918   -0.069911      1.1538    0.060321     0.16326
0.07512    0.029078     0.01691   -0.084381      1.9779   -0.002164     0.14648
0.064925    0.021514   0.0014536   -0.097207      2.4354    -0.11036     0.12116
0.056046    0.012964   -0.002164   -0.098851      2.5679    -0.23369    0.095181
0.049468   0.0047422   0.0057288   -0.080106      2.5107    -0.32774    0.080382
0.050784   0.0011247    0.022501   -0.033735      2.3792    -0.36458    0.084986
0.065583   0.0070443    0.043877    0.033683      2.1894    -0.32939     0.10636
0.090577    0.023817    0.066569     0.10866      1.8895    -0.22185     0.13958
0.11886    0.044864    0.089261     0.17214      1.4254    -0.06432     0.17444
0.13991    0.060321     0.10538     0.21028     0.80553     0.10603     0.20469
0.15339    0.065254     0.10866     0.21851     0.12017      0.2708     0.23035
0.15602    0.063281      0.1057     0.19483    -0.49185     0.44115     0.25074
0.14944    0.056374     0.10011     0.15076    -0.91346     0.63156      0.2606
0.13464    0.047495    0.090905      0.1057     -1.0887     0.82395     0.25271
0.11656    0.039931    0.080711    0.078737     -1.0213     0.96109      0.2264
0.09551    0.033354    0.069529    0.075778    -0.76711     0.96767     0.18891
0.07808     0.02579    0.057032    0.090248    -0.42081     0.79304     0.14221
0.065254    0.020528    0.047495     0.11097    -0.07879     0.47239    0.091892
0.059005    0.020528    0.041575     0.12248     0.18102     0.12182    0.047495
0.059334    0.023159    0.037958     0.11787     0.30204    -0.12056    0.019541
0.06065    0.021843    0.036971     0.10077     0.27704    -0.15443     0.01132
0.060321    0.021186    0.035327    0.080053     0.16063    0.034011    0.015266
0.057361     0.01987    0.034998     0.06624    0.066898     0.33427    0.024474
0.053086    0.018555    0.033025    0.058676     0.11195     0.57204    0.031052
0.047166    0.013622    0.026776    0.054401     0.33328     0.61052    0.033025
0.0373   0.0057288    0.016581    0.048482     0.65228     0.40958    0.024474
0.02579  -0.0041372   0.0021113      0.0373     0.90354    0.024474  -0.0031506
0.010004    -0.01203   -0.010715    0.018555     0.96109    -0.42509   -0.054125
-0.007097   -0.019265   -0.020581  -0.0093991     0.78876    -0.80164     -0.1176
-0.025842   -0.026171   -0.025185   -0.047877     0.43161     -1.0134    -0.17581
-0.046561   -0.035051   -0.031104   -0.089314  -0.0031506     -1.0457    -0.21922
-0.065964   -0.043272   -0.041299    -0.12812    -0.38497    -0.95358    -0.24026
-0.079777   -0.043601   -0.053467    -0.16134    -0.64872    -0.82367    -0.24059
-0.083723   -0.035708   -0.066951    -0.18962    -0.81216    -0.72699    -0.22218
-0.079448   -0.030118   -0.079119    -0.21395    -0.91181    -0.69871    -0.19192
-0.07583   -0.030775   -0.087998    -0.23106    -0.95654    -0.74179    -0.15805
-0.082736   -0.038668   -0.096549    -0.23665    -0.91707    -0.82236    -0.12878
-0.097536   -0.046561    -0.10148    -0.22875    -0.79408    -0.89241    -0.10773
-0.11036   -0.047219    -0.10181    -0.19817    -0.66911    -0.91346   -0.093918
-0.11694   -0.041628   -0.093918    -0.14292    -0.64642    -0.86084   -0.080106
-0.11727   -0.035708   -0.085367   -0.069911    -0.80427    -0.69377   -0.063662
-0.11299    -0.03242   -0.081421   0.0090175      -1.121    -0.36556   -0.046561
-0.10576   -0.032091   -0.079448    0.073476      -1.461     0.12774   -0.032749
-0.090958   -0.031104   -0.074844     0.10801     -1.6823     0.71838   -0.022554
-0.073199   -0.025514   -0.061689      0.1113      -1.732      1.2906   -0.011701
-0.05281   -0.014661   -0.043272    0.095181     -1.6399      1.7122   0.0030979
-0.032091 -0.00051963   -0.022883     0.07808     -1.4025      1.8865    0.020528
-0.01499    0.015595  -0.0008485    0.076435    -0.95621      1.7994     0.03434
0.0014536    0.030394    0.016581     0.10077    -0.24421       1.505    0.041575
0.017239     0.04026    0.025461      0.1432     0.68221      1.1015    0.049139
0.035656    0.044864    0.029078     0.18825      1.6073     0.69569    0.058348
0.05473    0.046837    0.031052     0.21785      2.2693     0.38426    0.071502
0.070516    0.046837    0.032696     0.22081      2.5423     0.21719    0.089261
0.075778    0.047166    0.036314     0.20042      2.5242     0.17773      0.1057
0.073804    0.050126    0.042562     0.16687      2.4209     0.20601     0.11426
0.069858    0.057032    0.052428     0.13333      2.3755     0.23528     0.11327
0.068214    0.062623    0.060979     0.10768      2.3742     0.22015     0.10274
0.066569    0.061636    0.069858    0.090248      2.2864      0.1524    0.083013
0.064596    0.055717    0.078737     0.07808      1.9872    0.052757    0.057032
0.064596    0.047495    0.087288    0.065254      1.4672   -0.054125    0.036971
0.063281    0.042891    0.092879    0.046837     0.83612    -0.16265    0.030065
0.055388     0.04322    0.094852    0.020199      0.2481    -0.27841     0.03434
0.0373    0.040589    0.090577   -0.012359    -0.18271    -0.41522    0.040918
0.015924    0.031381     0.08367   -0.045246    -0.42706    -0.57637    0.043549
0.0011247    0.013293    0.075449    -0.07024     -0.5175    -0.74902    0.046508
-0.0041372  -0.0084125    0.063281   -0.082079    -0.51092    -0.89964    0.045193
-0.0054526    -0.02946    0.047166    -0.08175    -0.45469    -0.99403    0.031052
-0.0080836   -0.043601    0.030065   -0.080434    -0.38003     -1.0203   0.0021113
-0.014332   -0.048863    0.013293   -0.091287    -0.31459    -0.98153   -0.037024
-0.024856   -0.044259  -0.0028217    -0.11102     -0.3067    -0.89109   -0.076488
-0.034064   -0.033406   -0.017621    -0.13207    -0.39121    -0.76678    -0.10346
-0.037024   -0.024198   -0.030775     -0.1495    -0.56979    -0.62438    -0.10773
-0.034064   -0.019594    -0.04097    -0.15936    -0.81381    -0.49316   -0.087998
-0.02946    -0.01795   -0.047548    -0.16166     -1.0848      -0.407   -0.051823
-0.025185   -0.013345    -0.05544     -0.1587     -1.3239    -0.36458   -0.013674
-0.022883   -0.010057   -0.065635    -0.15443      -1.463    -0.32314    0.014279
-0.025842  -0.0093991   -0.076159    -0.15279     -1.4676     -0.2179    0.023159
-0.035051   -0.013674   -0.086354    -0.15706     -1.3745  -0.0051238    0.013293
-0.047219   -0.018607   -0.094576    -0.17153     -1.2561     0.29941  -0.0077547
-0.060702   -0.020581   -0.098851    -0.19192     -1.1858     0.61972   -0.031762
-0.070568   -0.016634   -0.098851    -0.21099     -1.2223     0.85815   -0.052152
-0.07287   -0.011372   -0.098193    -0.21659     -1.3811     0.94333   -0.065307
-0.068266   -0.010386   -0.098522    -0.20639     -1.5968     0.85454   -0.070897
-0.0584   -0.011043   -0.097207    -0.17877     -1.7073     0.62367   -0.067937
-0.046561  -0.0097279   -0.087012    -0.13272     -1.5077      0.3244   -0.062018
-0.029789  -0.0031506   -0.071226   -0.070897     -0.9174    0.042891   -0.056427
-0.0061104    0.013622   -0.047219    0.002769    -0.11858    -0.15772   -0.049521
0.024474    0.039931   -0.016963    0.084328     0.56349    -0.25868   -0.034722
0.055059    0.071502    0.017239     0.16556     0.89104    -0.27381   -0.010715
0.07808    0.095839    0.047824     0.23725     0.86835    -0.22941    0.015924
0.091892     0.11097    0.069858     0.28757      0.7516    -0.14654    0.040918
0.097483      0.1136    0.083999     0.31421     0.86046   -0.026171    0.064267
0.10011     0.10899    0.091234     0.32703      1.2982     0.12774    0.091563
0.10077     0.10274    0.090248     0.33493      1.8855     0.29513     0.11985
0.099127     0.10307     0.08367     0.33887      2.3187     0.44181     0.14056
0.095839     0.10801    0.076764     0.33164      2.3732     0.53553     0.14583
0.091234     0.11195    0.071173     0.31059       2.021     0.54935     0.14254
0.085972     0.11195    0.062294      0.2708      1.3965     0.47963     0.13629
0.080053     0.10538    0.050126     0.22147     0.72858     0.35301     0.12971
0.074791    0.092879      0.0373     0.17181     0.23758     0.20469     0.12017
0.069858    0.078737    0.026776       0.133    0.017239    0.065254     0.10439
0.063281    0.064925    0.020528     0.10538  -0.0038083   -0.050179    0.080382
0.053743    0.052757    0.012306    0.080711    0.021186    -0.14555    0.049139
0.038616    0.043549   0.0014536    0.054401   -0.025185    -0.22612    0.018555
0.014608    0.039273   -0.013345     0.02283    -0.15607    -0.29255   -0.002164
-0.013345    0.035327   -0.031104  -0.0084125    -0.29782    -0.34221   -0.012359
-0.038011    0.027105   -0.050836   -0.035051    -0.38299    -0.37477   -0.019923
-0.054125    0.014279   -0.064978   -0.057414    -0.39944    -0.39878   -0.031762
-0.057743   0.0017824   -0.074186   -0.073528     -0.3705    -0.42542    -0.04985
-0.053467  -0.0028217   -0.080763   -0.083065    -0.34287    -0.46422   -0.066951
-0.042944   0.0021113   -0.084381   -0.083394    -0.36194    -0.51224   -0.071555
-0.031433    0.014279   -0.083723   -0.081421    -0.43956    -0.55828   -0.061689
-0.018936    0.027105   -0.076159   -0.079448     -0.5471    -0.58853   -0.039984
-0.0097279    0.033025   -0.063004   -0.077146    -0.64082    -0.60103   -0.015976
-0.0061104    0.031709   -0.044259    -0.07024    -0.68358    -0.60268   0.0034268
-0.0054526    0.028421   -0.020252     -0.0584    -0.65891    -0.60268    0.014608
-0.0028217    0.030065   0.0040845   -0.040313    -0.58327     -0.6086    0.016253
0.0050711      0.0373    0.020528   -0.018278    -0.48856    -0.62603    0.011648
0.017568    0.052099    0.028421   0.0060577    -0.40272    -0.65201      0.0054
0.032367    0.073147    0.033025    0.035327    -0.35339    -0.68687      0.0054
0.042233    0.096167    0.036642    0.067885    -0.35043    -0.74113    0.013293
0.045193     0.11458    0.043877    0.098469    -0.38595     -0.8217    0.021514
0.043877     0.11853    0.054401     0.12017    -0.42509    -0.90984    0.024474
0.040589     0.10768    0.065912     0.12609    -0.42377    -0.96607    0.024803
0.033354    0.090577    0.072818     0.11458    -0.34287    -0.95588    0.027434
0.01987    0.071173    0.074133    0.091892    -0.18041    -0.87892    0.028092
0.0034268    0.057361    0.065254    0.061965    0.021514    -0.76382    0.024474
-0.010715    0.051441    0.052428    0.029078      0.1968    -0.64477    0.022501
-0.018607    0.053086    0.044206  -0.0011774     0.28231    -0.53394     0.02579
-0.019265    0.058676    0.040589   -0.023211     0.25698    -0.41621    0.029078
-0.01499    0.065912    0.039931   -0.037353     0.13103    -0.27743    0.023159
-0.011043    0.074462    0.039273   -0.048534   -0.072542     -0.1074   0.0083598
-0.010057    0.086301    0.036971   -0.062018    -0.32741    0.091563   -0.018278
-0.014332     0.09255    0.029407   -0.080106    -0.60333     0.30434   -0.059716
-0.021567    0.088932    0.014608    -0.10411    -0.90556     0.49179    -0.11168
-0.027816     0.07216  -0.0093991    -0.12911     -1.2706     0.60854    -0.15805
-0.032091     0.04026   -0.036037    -0.14884     -1.7034     0.63123    -0.18699
-0.033078   0.0014536   -0.059716    -0.15739      -2.124     0.56842    -0.19488
-0.032749   -0.031104   -0.075173    -0.15377     -2.3779     0.46351    -0.18732
-0.034064    -0.05281   -0.081421    -0.14259     -2.3121      0.3711    -0.17482
-0.036037   -0.066622    -0.08175    -0.13272     -1.8494     0.32177     -0.1666
-0.034722   -0.074186    -0.07879    -0.12615     -1.0335     0.31486    -0.16923
-0.027816   -0.076159   -0.075501    -0.12549   -0.026829     0.31881    -0.18173
-0.019265   -0.070568   -0.070897    -0.12976     0.96043     0.30138    -0.18403
-0.01203   -0.062676   -0.062018    -0.13141      1.7777     0.25041    -0.16166
-0.012359   -0.055112   -0.045903     -0.1176      2.3479      0.1751    -0.11135
-0.016634   -0.049192    -0.02354   -0.089314      2.6327    0.096167   -0.045574
-0.022225   -0.044259   0.0011247   -0.059058      2.6156    0.023488     0.01987
-0.023211    -0.04097    0.023817   -0.030447        2.29   -0.042615    0.067227
-0.018936   -0.038668    0.044206   0.0017824      1.6892    -0.10082    0.090248
-0.011043   -0.037024    0.064596    0.046837     0.93675    -0.14555      0.1011
0.0024402   -0.030775    0.091234     0.10834     0.23199    -0.16232     0.11393
0.022501   -0.017621     0.12675     0.17904    -0.25802    -0.15838     0.13333
0.046837 -0.00051963     0.16457     0.24186    -0.51026    -0.15739     0.15536
0.067556    0.016581     0.19549     0.27935    -0.62734    -0.17646     0.17838
0.080382    0.033683     0.21851        0.28    -0.71614    -0.20738     0.20404
0.090905    0.049468     0.23594     0.25731    -0.79013    -0.22546     0.22739
0.10505    0.061307     0.24712     0.24087    -0.77073    -0.20376     0.24218
0.12938    0.071173     0.25501     0.25369    -0.57604    -0.11497     0.23955
0.16063    0.071502     0.25929     0.29809    -0.24881    0.057032     0.22936
0.19022    0.061307     0.26257     0.35992    0.099127     0.31585     0.22574
0.21094    0.046837     0.26422     0.42273     0.38393     0.64768     0.22969
0.21982    0.036971     0.25863     0.47338     0.59374      1.0124     0.23363
0.20963    0.030065     0.24383     0.49673     0.72463      1.3505     0.23495
0.17871    0.018555     0.21719     0.47897     0.74075      1.6244     0.23035
0.13497  -0.0024928     0.17838     0.41681     0.61348      1.8418     0.21949
0.094852     -0.0265     0.13366     0.32045     0.36617      2.0197     0.20338
0.065583    -0.04393    0.089261     0.21028    0.082355      2.1555     0.18693
0.046837   -0.050179    0.051441     0.10965    -0.13338      2.2246     0.17838
0.033354    -0.04985    0.023159    0.030394    -0.20573       2.195     0.18003
0.018226   -0.045903   0.0030979   -0.024856    -0.11299      2.0523     0.18266
-0.002164   -0.041957   -0.011372   -0.062676     0.14122      1.8135     0.17937
-0.025514   -0.041628   -0.026829   -0.086354     0.53323      1.5129     0.16194
-0.050507   -0.043272   -0.046232   -0.097864      1.0042      1.1966     0.13432
-0.070568   -0.044917   -0.064649   -0.094576      1.5037     0.90979     0.10044
-0.079777   -0.041628   -0.073199   -0.079777      1.9888     0.68056    0.064267
-0.077146   -0.034722   -0.070897   -0.057414      2.3844     0.52369    0.028421
-0.069582   -0.030775   -0.061031   -0.031433      2.5748     0.44608  -0.0034794
-0.059716   -0.028802   -0.050836  -0.0028217      2.4574     0.42635   -0.025185
-0.04689   -0.024856   -0.041628    0.028421      1.9898     0.41155   -0.029789
-0.028473   -0.017292   -0.033406    0.064596      1.2377     0.31782   -0.015319
-0.007097  -0.0051238   -0.024856     0.10242     0.35795    0.084986    0.013293
0.015266   0.0090175   -0.018607     0.13464    -0.44942    -0.26723    0.045851
0.032367     0.02283    -0.01203     0.15471     -1.0121    -0.63819    0.067885
0.043549    0.031709  -0.0041372     0.15898     -1.2621    -0.89603     0.07808
0.051441    0.035327    0.002769      0.1478     -1.2213    -0.95226    0.086301
0.059334    0.039602   0.0096753      0.1284    -0.98252    -0.79769     0.10077
0.069529    0.048153    0.018555      0.1034    -0.68621    -0.49514     0.12577
0.079395    0.059663    0.033025    0.081039    -0.45699    -0.14719     0.15701
0.090577    0.070845     0.04881    0.061307    -0.33531     0.14846     0.18661
0.10307    0.077751    0.063281    0.036971    -0.28663     0.33558     0.20305
0.11327    0.080053    0.074462   0.0044134    -0.22744     0.42471     0.19746
0.11327    0.073147    0.080711   -0.033735   -0.075173     0.45957     0.17115
0.098798    0.056046    0.079066   -0.075173     0.17444     0.47141     0.12577
0.071502    0.035327    0.065254    -0.11398     0.39675     0.44477    0.067885
0.038287    0.015266    0.039273    -0.14917     0.39215     0.33361  0.00079584
0.0037556  -0.0054526 -0.00051963      -0.186    0.035656     0.11195   -0.071226
-0.031104    -0.02354   -0.050507    -0.23402    -0.62405    -0.20606    -0.13832
-0.06432   -0.038997    -0.10247    -0.29354     -1.3693    -0.57966    -0.18501
-0.089972   -0.047877    -0.14489    -0.35635     -1.8853     -0.9516     -0.2031
-0.10181   -0.047548    -0.16824    -0.40601     -1.9445     -1.2667    -0.19093
-0.10247   -0.040313     -0.1712    -0.43002     -1.5834     -1.4962    -0.16298
-0.097864   -0.027816    -0.15936    -0.43035     -1.0328     -1.6373    -0.13832
-0.095891   -0.013017    -0.14358    -0.41259    -0.52572     -1.6994    -0.13141
-0.10247   0.0034268    -0.13437    -0.38365    -0.18008     -1.6827    -0.13996
-0.11168    0.016253    -0.13174    -0.34287    0.026447     -1.5745    -0.15575
-0.11398    0.022172    -0.12812    -0.29091     0.20634     -1.3729    -0.17285
-0.10444     0.02579    -0.11464    -0.22514     0.41747     -1.0904    -0.18041
-0.086354    0.031052     -0.0903    -0.15509     0.60887    -0.74409    -0.16956
-0.063991    0.037958   -0.063333   -0.089643      0.6605    -0.33991    -0.14226
-0.04097    0.044206   -0.038997   -0.032749     0.47667     0.12116    -0.10313
-0.017621    0.050455   -0.020252    0.021186    0.081697      0.6115   -0.054125
0.0070443    0.056374  -0.0084125    0.079395    -0.41292      1.0482  -0.0051238
0.030065    0.069529  -0.0011774     0.14681    -0.83782      1.3242    0.034998
0.054072    0.089919    0.002769     0.21949     -0.9914      1.3834    0.059992
0.079066     0.10866    0.014608     0.29678    -0.75724      1.2551    0.075449
0.10373     0.12182    0.038944     0.37603    -0.20606      1.0413    0.091892
0.12149     0.13037    0.066569     0.44871     0.44312     0.85421     0.11064
0.12379     0.13596    0.086959     0.49936     0.96569     0.75555     0.12708
0.10899     0.13333    0.094523     0.50922      1.2377     0.73845     0.13662
0.08663     0.11886     0.08959     0.46877      1.2298      0.7345     0.13169
0.061636    0.095181    0.074791     0.37307     0.98806     0.66445      0.1057
0.036971    0.067556    0.054401     0.22739     0.60986     0.47864    0.059005
0.010333    0.045193    0.031709    0.059334     0.22508     0.18266      0.0054
-0.011372    0.030723   0.0090175   -0.097207   -0.039984    -0.17548   -0.038668
-0.024198    0.020528   -0.004466    -0.20836    -0.13897    -0.52408   -0.060702
-0.027158    0.013622  -0.0038083    -0.25671    -0.14423    -0.80197   -0.060373
-0.020252   0.0096753    0.011648    -0.24257    -0.17679    -0.97693    -0.04097
-0.0064392    0.013293    0.032367      -0.186     -0.2988     -1.0598   -0.010386
0.0070443    0.022172    0.045522     -0.1245    -0.50632     -1.0956    0.015924
0.015266    0.034669    0.048482   -0.089643    -0.79868     -1.1394    0.030394
0.015924    0.038944    0.040589   -0.091287     -1.1904     -1.2193    0.031052
0.0067154    0.029736    0.026119    -0.11957     -1.6472     -1.3255    0.019212
-0.01203   0.0093464   0.0090175    -0.15739     -2.0467     -1.4137   0.0017824
-0.034393   -0.011043   -0.010386    -0.18995     -2.1829     -1.4354   -0.019594
-0.053138   -0.024856    -0.02946    -0.19948     -1.8159     -1.3614   -0.039655
-0.065307   -0.033735   -0.045574    -0.17909    -0.85919     -1.1917   -0.054125
-0.066951    -0.03242   -0.052481    -0.13075     0.48555    -0.96509   -0.060702
-0.0584   -0.019923    -0.04689   -0.061689       1.778    -0.73357   -0.057085
-0.038011    0.002769   -0.028473    0.016253      2.6452    -0.53263   -0.048863
-0.0093991     0.02579 -0.00019077    0.091892      2.9172    -0.36786   -0.036037
0.020857    0.040918    0.031709     0.15569      2.6206     -0.2179    -0.02354
0.045193    0.045851    0.057361     0.20042       1.897   -0.063991   -0.010057
0.060979    0.043877    0.068871     0.22739     0.91044    0.094852   0.0040845
0.070187    0.041575    0.068871     0.24317    -0.15246     0.24021    0.013293
0.072489    0.042233    0.067556     0.26455    -0.97068     0.34052    0.010004
0.071502    0.046508    0.070845      0.3073     -1.1641     0.38294  -0.0031506
0.073147    0.052099    0.082355     0.37176    -0.51684     0.37899   -0.016963
0.077751    0.059005    0.098798     0.43359     0.79106     0.34742   -0.026171
0.079066    0.064596     0.11031     0.45562      2.1884     0.30138   -0.028802
0.079066    0.067227     0.10669     0.40464      3.1237     0.24646   -0.025514
0.075778    0.062294    0.088603     0.26915      3.3033     0.18069   -0.017621
0.062623    0.049139     0.06065    0.070516      2.7554    0.098141   -0.015648
0.039602    0.033025    0.021514    -0.14456      1.7665   0.0001381   -0.026171
0.0070443    0.018884   -0.022883    -0.32445      0.7003     -0.1051   -0.049521
-0.031762    0.010333    -0.06432    -0.43528    -0.18008    -0.20803   -0.075173
-0.069253   0.0021113   -0.097536    -0.47442    -0.79638    -0.30965   -0.092603
-0.09918  -0.0061104    -0.12089    -0.45929     -1.2209    -0.41719   -0.097864
-0.11332   -0.013017    -0.13568    -0.41654     -1.5518    -0.53657   -0.092603
-0.11201   -0.015976    -0.14029     -0.3649     -1.7896    -0.66286   -0.081092
-0.095891   -0.010057    -0.13503      -0.309      -1.832    -0.77698   -0.071555
-0.073857    0.002769    -0.12089    -0.24783     -1.6005    -0.85623   -0.064978
-0.053796    0.017897    -0.10247    -0.18469     -1.1206    -0.90129   -0.063991
-0.037353    0.029736   -0.080106    -0.11891    -0.52342    -0.91773   -0.066293
-0.025514    0.036971   -0.052152   -0.041628    0.020528    -0.91313   -0.067609
-0.015976    0.038944   -0.023211    0.047824     0.37899     -0.8809   -0.063333
-0.0064392    0.038287   0.0017824      0.1432     0.50791    -0.79934   -0.050836
0.0060577    0.037958    0.024474     0.23035     0.45496    -0.63556   -0.031762
0.016581    0.036642    0.043549     0.29809     0.34052    -0.38069   -0.013674
0.026776    0.031709    0.058676      0.3392     0.28066   -0.061689  -0.0038083
0.039931    0.022172    0.071502     0.35696     0.33723     0.26422  -0.0034794
0.056703     0.01132    0.088603     0.36288     0.47436      0.5454  -0.0041372
0.073804  0.00079584     0.11426     0.37176     0.57039     0.75982   0.0070443
0.080711  -0.0067681     0.14517     0.38985     0.50166     0.91011    0.035985
0.077751  -0.0074258     0.17214     0.40596     0.20469     0.99529    0.072489
0.067556   -0.004466     0.18792     0.39741    -0.29124     0.99726     0.10176
0.053086  -0.0041372     0.18924     0.35466     -0.8638     0.89597     0.11426
0.034011  -0.0077547      0.1774     0.28066     -1.3597     0.69207     0.10603
0.011977   -0.014332     0.15142     0.18792       -1.66     0.41221    0.084986
-0.0067681   -0.018278      0.1136    0.090905      -1.732     0.10768    0.061636
-0.020581   -0.019923    0.071831 -0.00019077     -1.6291    -0.14522    0.045193
-0.030118   -0.020581    0.033683   -0.079119     -1.4337    -0.25934    0.040589
-0.034064   -0.021567   0.0060577    -0.14654     -1.2163    -0.17087    0.046508
-0.033078   -0.023211   -0.013017    -0.20212     -1.0338     0.14221    0.058348
-0.025514   -0.024198   -0.019923    -0.24684    -0.91576     0.60756    0.069529
-0.019265   -0.025185   -0.018936    -0.28104    -0.85064      1.0597    0.072489
-0.019265   -0.029131    -0.01203     -0.2988     -0.8046      1.3317    0.065254
-0.024527   -0.033078  -0.0028217    -0.29551    -0.73389      1.3475    0.053743
-0.028144   -0.035708    0.010991     -0.2771     -0.6007      1.1554    0.042233
-0.025185   -0.037682    0.026776    -0.25013    -0.41884     0.88578    0.030723
-0.01499   -0.037024    0.041904    -0.21889    -0.24059      0.6536    0.016581
-0.007097   -0.035708    0.053086    -0.18633    -0.11299     0.49969   0.0030979
-0.0064392   -0.033406    0.051441    -0.15344    -0.02946     0.40333  -0.0064392
-0.0080836   -0.030447    0.032367     -0.1222    0.029407     0.31782   -0.012359
-0.007097   -0.025514   0.0037556    -0.09326    0.050455     0.20075   -0.017621
-0.0008485    -0.01499   -0.017292   -0.070897   0.0083598    0.039273   -0.018278
0.0077021  -0.0041372   -0.020581   -0.052152    -0.10181    -0.15147   -0.013674
0.016253   0.0017824  -0.0097279   -0.031104    -0.24257    -0.34123  -0.0077547
0.020857   0.0001381   0.0063866  -0.0011774    -0.35537    -0.49547  -0.0051238
0.024145  -0.0061104    0.016253    0.036642    -0.39713    -0.57604   -0.002164
0.032696   -0.012359    0.021514    0.084986    -0.34156    -0.56157    0.012635
0.05177    -0.01499    0.021514     0.14089    -0.18304    -0.43956    0.040589
0.075449    -0.01499    0.021186     0.19713    0.074462    -0.20705    0.073804
0.09255   -0.010057    0.026119     0.24843     0.38853     0.11491     0.10077
0.10242   0.0014536    0.035985     0.28855     0.66478     0.47963     0.11458
0.10834    0.019541    0.044206     0.30302     0.80882     0.82625     0.11261
0.11689    0.038944    0.049797     0.28461     0.80323       1.094     0.10143
0.12642    0.051441    0.050126      0.2412      0.7322      1.2469    0.090577
0.13563    0.055059    0.041247     0.18496     0.70391      1.3034    0.084328
0.13991    0.050784    0.020857     0.12708     0.74173      1.3169     0.07808
0.13464    0.042562  -0.0054526    0.073804     0.75686      1.3416    0.071831
0.12116     0.03434   -0.030775    0.027105     0.65656      1.3968    0.068214
0.10603    0.030723    -0.04985   -0.010386     0.42964      1.4491    0.071502
0.089261    0.029078   -0.063991   -0.032091     0.15372      1.4294    0.082684
0.073147    0.029078   -0.076488   -0.036366   -0.046561      1.2824    0.099127
0.060321    0.026776   -0.083065   -0.029789   -0.077803      1.0081     0.11393
0.047495     0.01987   -0.083394   -0.024856    0.071502     0.65722     0.12248
0.032696   0.0070443   -0.074515   -0.022554     0.34907     0.31914     0.12149
0.019212  -0.0084125   -0.060373   -0.021567      0.7026     0.11327      0.1113
0.012635   -0.018607   -0.047548   -0.017292      1.0834     0.10702    0.094523
0.01132   -0.019594   -0.041628   -0.013017      1.4106     0.26981    0.079395
0.0093464   -0.013674   -0.042286   -0.011043      1.5797     0.49607    0.077422
0.0054  -0.0051238    -0.04689   -0.012688      1.5205     0.66248    0.086959
-0.0008485    0.002769   -0.052481   -0.019265      1.2265      0.6901     0.10242
-0.0067681   0.0034268   -0.055769   -0.034722     0.75555     0.58421     0.11327
-0.013674  -0.0028217   -0.060045   -0.060702     0.20272     0.40892     0.10834
-0.02354   -0.012359   -0.065964   -0.089972    -0.30242     0.21818    0.080711
-0.031433   -0.016963   -0.073199    -0.11398    -0.62405    0.031381    0.037629
-0.041299   -0.015976   -0.081092    -0.12516    -0.68884    -0.15279  -0.0061104
-0.049192  -0.0064392    -0.08471    -0.11529     -0.5323    -0.32906   -0.040313
-0.055769   0.0070443   -0.078461   -0.084052    -0.28006    -0.47409   -0.059387
-0.0584    0.013951   -0.057085   -0.040641   -0.070897     -0.5813   -0.068266
-0.05544    0.011648   -0.026171   0.0050711    0.030065    -0.66944   -0.065964
-0.04689   0.0060577   0.0011247    0.044535    0.038616    -0.75067   -0.056756
-0.033406   0.0080309    0.017568    0.068543    0.014279    -0.80953   -0.045903
-0.016634    0.013951     0.01691    0.068543      0.0054    -0.81085   -0.031104
0.0014536    0.022501   0.0047422    0.053415    0.026447    -0.71745   -0.015319
0.01691    0.030394   -0.010386    0.034998    0.080711    -0.51684  0.00046697
0.029078    0.036971   -0.022225    0.018884     0.16128     -0.2498    0.010991
0.038944    0.042233   -0.028802   0.0060577     0.23232  -0.0087413    0.020528
0.044206    0.046508   -0.034722  -0.0054526     0.22574     0.12379    0.033683
0.049139    0.050784   -0.046232   -0.014003    0.084986     0.12511    0.050126
0.059992    0.059005   -0.060702   -0.013674    -0.19028    0.037958    0.072489
0.078409    0.074133   -0.063662  0.00079584    -0.52342   -0.068266     0.10011
0.097812    0.090248   -0.046232    0.033354    -0.80855    -0.14358     0.12971
0.11097    0.097483   -0.013345    0.086301    -0.97561    -0.18304     0.15602
0.11097    0.090905    0.023159     0.14517     -1.0144    -0.21691     0.17246
0.10044    0.079395    0.053086     0.19154     -0.9424    -0.27184     0.17674
0.083342    0.069858    0.065583     0.21193    -0.77434    -0.34616     0.16885
0.065254     0.06624    0.061307     0.20897    -0.52309    -0.42081     0.15207
0.048482      0.0692    0.049139     0.18397    -0.19652    -0.48067     0.13728
0.039273    0.076435    0.038287      0.1432     0.18628    -0.52967     0.12938
0.032696    0.083342    0.032696    0.095181     0.59111    -0.58788     0.12807
0.023817    0.088932    0.034011    0.055059     0.96339    -0.66417      0.1284
0.01132    0.095181    0.040589    0.035656       1.216    -0.74672     0.12346
-0.0011774     0.10143    0.050126     0.04026      1.2666    -0.80953     0.11524
-0.011701     0.10439    0.061636     0.06065      1.1068    -0.82992      0.1057
-0.016305      0.1011    0.074791    0.082684      0.8154    -0.79769    0.098798
-0.013345    0.091563    0.088932    0.088275     0.50298     -0.7135    0.090905
-0.007097    0.080382     0.10735    0.067885     0.22706    -0.58952     0.07808
-0.002164    0.068543     0.12741     0.02283   -0.020252    -0.45436    0.057361
-0.0057815    0.059663     0.14352   -0.031433    -0.28762    -0.34649    0.027105
-0.019265    0.053415     0.15043   -0.080106    -0.62274    -0.30045  -0.0008485
-0.033078     0.04881     0.14287     -0.1097     -1.0016    -0.32972   -0.019265
-0.034722    0.041575     0.12379    -0.12023     -1.3262    -0.41325    -0.02354
-0.024856    0.030065    0.098798    -0.11431     -1.4821    -0.50928    -0.01795
-0.0093991    0.016581    0.076106    -0.09326     -1.4048    -0.57176   -0.011043
0.0044134   0.0060577    0.060979   -0.061689     -1.1183    -0.57374  -0.0087413
0.0080309   0.0001381    0.052757   -0.027816    -0.72173    -0.52276   -0.016305
-0.0034794  -0.0064392    0.049468  -0.0057815    -0.30702    -0.43791   -0.034064
-0.029789   -0.014661     0.04618   -0.002164     0.10801    -0.33037   -0.060045
-0.059387   -0.025842     0.04026   -0.012359     0.53257    -0.20738   -0.086683
-0.083723   -0.033078    0.029407   -0.019923     0.96471   -0.077146     -0.1097
-0.094247   -0.029131    0.021514    -0.01203      1.3554    0.037629    -0.12187
-0.088327   -0.013674    0.021843    0.016581      1.5859     0.11656    -0.12483
-0.068924   0.0060577    0.027434    0.061965        1.56     0.13563    -0.12384
-0.046232    0.024803    0.036971     0.11689       1.259     0.09255    -0.12615
-0.028802    0.036971     0.04618     0.17246      0.7664   0.0040845    -0.13075
-0.020252     0.04618    0.054072     0.22673     0.22147     -0.1051    -0.13141
-0.017292    0.055059    0.062952     0.27441    -0.22875    -0.22053    -0.12352
-0.020252    0.061965    0.068871     0.30368    -0.48165    -0.32873    -0.10609
-0.026829    0.066898      0.0692       0.305    -0.51914    -0.41654   -0.088656
-0.026829    0.068871    0.061636     0.28099    -0.42279    -0.46521    -0.07024
-0.011701      0.0692    0.056374     0.24745    -0.33761    -0.45567   -0.038668
0.020528     0.06624    0.063281     0.22443    -0.35668    -0.38661    0.010662
0.059334    0.059334    0.083999     0.22147    -0.47639    -0.28598    0.069858
0.093536    0.050126      0.1034     0.23429     -0.6576    -0.20146     0.12741
0.10965    0.040918     0.11327     0.24218    -0.86314     -0.1735     0.17115
0.10702    0.036971     0.10801     0.22739     -1.0529    -0.20705     0.18891
0.093536    0.031052     0.08959     0.18496     -1.1976    -0.27874     0.17838
0.075449    0.023159    0.059992     0.12215     -1.2824    -0.34747     0.15076
0.059992    0.015266    0.030723     0.05473     -1.2765    -0.38135     0.11721
0.049139    0.011977    0.013951   0.0024402     -1.1407    -0.36556    0.091563
0.041247    0.010662    0.014937   -0.023869    -0.87366    -0.31163    0.075778
0.0373   0.0063866    0.026119   -0.030118    -0.52802    -0.24717    0.065254
0.037629  -0.0061104    0.038616   -0.029789    -0.16791    -0.19455    0.052757
0.039273   -0.023869    0.044864   -0.033078     0.15799     -0.1587    0.035656
0.040918   -0.038997    0.042233   -0.048205     0.42898    -0.14029    0.015595
0.038944   -0.042615    0.030065   -0.069253     0.63123    -0.14489  -0.0011774
0.032367   -0.032749    0.011648   -0.090958     0.74535    -0.17679  -0.0093991
0.02283   -0.018278  -0.0051238    -0.11069      0.7493    -0.23566   -0.013345
0.0047422  -0.0090702    -0.01795    -0.13305     0.63255    -0.31097   -0.026171
-0.016963  -0.0080836   -0.027487     -0.1541     0.40826    -0.38168   -0.059058
-0.038997   -0.012359   -0.035051    -0.17153     0.12083    -0.41752    -0.11529
-0.062347   -0.019265   -0.044259    -0.18205     -0.1587    -0.39056    -0.18534
-0.087012   -0.024856   -0.053467    -0.18765    -0.34747      -0.284    -0.25704
-0.10872    -0.02354   -0.059387    -0.19422    -0.39352     -0.1199    -0.31327
-0.12187   -0.020581   -0.063991    -0.20606    -0.31821    0.053086    -0.34419
-0.12648   -0.020581   -0.065635    -0.22251    -0.19817     0.18529    -0.34353
-0.1268   -0.027816   -0.063662    -0.24059   -0.085367     0.25369    -0.31525
-0.12648   -0.038011   -0.060702    -0.25473   -0.017292     0.26849    -0.26953
-0.12187   -0.045246    -0.06136    -0.25934    -0.01499     0.24909    -0.21494
-0.11036   -0.045246   -0.063662    -0.25145    -0.05544     0.20305    -0.16101
-0.092274   -0.036037    -0.06728    -0.23204    -0.10082     0.13596    -0.11266
-0.071226   -0.020909   -0.068595    -0.20047     -0.1518    0.065912   -0.074186
-0.051823  -0.0054526   -0.062018    -0.15805    -0.21395    0.031052   -0.045574
-0.036695    0.010991   -0.048205    -0.10937    -0.29979    0.073147   -0.025514
-0.0265    0.024803   -0.034064   -0.068266    -0.45041     0.21292   -0.011701
-0.023211    0.033354   -0.029131   -0.044588    -0.67733     0.42306  -0.0038083
-0.02354      0.0373    -0.02946   -0.037024    -0.89076      0.6536   0.0030979
-0.022883    0.040589   -0.032091   -0.027158    -0.83683     0.86506     0.01691
-0.010386    0.048153   -0.031762  -0.0008485    -0.25704      1.0364    0.045522
0.01691    0.062623   -0.024198    0.041575     0.81704      1.1538    0.089919
0.051441    0.080711  -0.0077547    0.088603      2.0098      1.1979     0.14024
0.082026    0.092221     0.01132     0.12445      2.9001      1.1499     0.18595
0.098141    0.095839    0.029078     0.13991      3.2293      1.0311     0.21883
0.099456    0.090248    0.038616     0.12807      3.0119      0.9236     0.23692
0.090577    0.077751    0.037958    0.092221       2.516     0.95352     0.24514
0.081039    0.062623    0.026119    0.053415      2.0329       1.191     0.24909
0.077422    0.055059   0.0096753    0.033354      1.6718      1.5583     0.24843
0.082355    0.058676  -0.0024928    0.045193      1.3376      1.8694      0.2412
0.097483    0.069529  -0.0031506     0.08663     0.89005      1.9559      0.2287
0.12149    0.084328   0.0080309     0.14221     0.33394      1.7569     0.21226
0.14451    0.094852    0.026447     0.19417    -0.12944      1.3344     0.19746
0.15734    0.098469    0.045522     0.23363    -0.28236     0.83283     0.18397
0.15701     0.10143    0.057361     0.24909    -0.10378     0.39938     0.17049
0.14681     0.10603    0.059005     0.23331     0.21818     0.12017     0.16063
0.13004      0.1113    0.054072     0.18529     0.43556    0.002769     0.15405
0.10669     0.11195    0.046508     0.11524     0.40234   0.0024402     0.14418
0.081697     0.10406    0.040918    0.039931     0.12675    0.063281      0.1284
0.059005    0.088275    0.039273   -0.025514    -0.25704     0.13859     0.10373
0.042562    0.066898    0.040918   -0.071884    -0.58031     0.19384    0.068871
0.029407     0.04322    0.039273   -0.099509    -0.72962     0.20173    0.021514
0.012964    0.022172    0.030723    -0.11661    -0.67272     0.14254   -0.032749
-0.0080836   0.0083598    0.014608    -0.12483    -0.43397     0.01987   -0.085039
-0.031433    0.002769   -0.007097    -0.12023   -0.062347    -0.13404    -0.12713
-0.051494  -0.0024928   -0.031433    -0.10247     0.37406    -0.27249    -0.15443
-0.067609  -0.0087413   -0.056098   -0.071884     0.78876    -0.34912    -0.16166
-0.071884   -0.014003   -0.077146   -0.033735       1.094    -0.33531    -0.14555
-0.065964   -0.015976   -0.092603   0.0077021      1.2216    -0.22875    -0.11003
-0.051165   -0.014332   -0.099509     0.04618      1.1166    -0.06728   -0.063662
-0.030775  -0.0084125   -0.094576    0.076764     0.74239    0.096167   -0.015319
-0.0031506   0.0014536   -0.079448    0.098141      0.1136     0.22508    0.025132
0.026447    0.011648   -0.056427     0.11524    -0.67996     0.30664     0.05177
0.052099    0.018226    -0.02946     0.13563     -1.4942     0.34446    0.055388
0.067885    0.021843   -0.004466     0.16161     -2.1579     0.35433    0.037958
0.07512    0.023159    0.014608     0.19187     -2.4522     0.36189   0.0096753
0.076764     0.02283    0.024474      0.2264     -2.1628     0.38919  -0.0084125
0.076435    0.020857    0.026447     0.25961     -1.2486     0.43753  -0.0054526
0.079066    0.016581    0.023817     0.28559   0.0047422     0.49147     0.01691
0.081039   0.0083598    0.019212     0.30072      1.0515     0.52205    0.050455
0.080382   0.0011247    0.011977     0.30368      1.4774     0.50429    0.084328
0.073147  -0.0038083   0.0070443     0.29776      1.2084     0.42964     0.10735
0.058676  -0.0084125   0.0037556     0.28461     0.48423     0.30533     0.11853
0.043877   -0.017621  0.00046697     0.26981    -0.32084     0.15076     0.12116
0.034011   -0.029131  -0.0024928     0.25665    -0.90589   -0.016634     0.11458
0.030065   -0.038668  -0.0067681     0.24449     -1.1917     -0.1814    0.092879
0.025132   -0.041957   -0.011043     0.22837      -1.243    -0.32807    0.056703
0.015266   -0.038011   -0.015648     0.20206     -1.1562    -0.43594    0.015924
-0.002164    -0.02946   -0.026171     0.15997    -0.98844    -0.49579   -0.019594
-0.021238   -0.018607   -0.039655      0.1034    -0.75264    -0.51257   -0.049192
-0.036695   -0.011372   -0.050836    0.040589    -0.44482    -0.50402   -0.070897
-0.049192   -0.011372    -0.05544   -0.016963    -0.09918    -0.48724   -0.084381
-0.058071   -0.021567   -0.054125   -0.063662      0.1945    -0.47508   -0.091287
-0.061689   -0.037353   -0.051165    -0.10214     0.33986    -0.47409     -0.0903
-0.058071   -0.052152   -0.048205    -0.13536     0.29217    -0.48231   -0.084381
-0.053796   -0.060045   -0.045574    -0.16232    0.082355    -0.49547   -0.078461
-0.052152   -0.057743   -0.044588    -0.18337    -0.20672    -0.50862   -0.077146
-0.054783   -0.047219   -0.048863    -0.19685    -0.47212    -0.51947   -0.087998
-0.062347    -0.02946   -0.056098    -0.20902    -0.64609    -0.52704    -0.10674
-0.071884   -0.012359   -0.062676    -0.22119    -0.71416    -0.53098     -0.1245
-0.077475   -0.004466   -0.068924    -0.23007    -0.70298    -0.52704    -0.13404
-0.074844  -0.0061104   -0.073199    -0.23073    -0.65464    -0.51388     -0.1324
-0.063991   -0.013017   -0.071555    -0.22053    -0.59643    -0.49349    -0.12187
-0.048205   -0.015976   -0.064978    -0.19751    -0.54315    -0.46652     -0.1074
-0.035708   -0.014003   -0.056098     -0.1643    -0.50961    -0.43857   -0.095891
-0.030118  -0.0087413   -0.046232    -0.12549    -0.50303    -0.41719   -0.089643
-0.027487  -0.0031506   -0.034064   -0.089643    -0.49316    -0.40075   -0.088985
-0.026171   0.0017824   -0.017292    -0.06136    -0.43101    -0.38694   -0.088327
-0.023211   0.0070443 -0.00051963   -0.037682    -0.27282     -0.3751   -0.084052
-0.012688    0.012306    0.012306    -0.01499   -0.033735     -0.3728   -0.073199
0.0047422    0.017897    0.022501   0.0060577     0.22574    -0.39878   -0.055112
0.021186    0.023488    0.029736    0.022501      0.4372    -0.47376   -0.029789
0.030065    0.027105    0.035985    0.033354     0.55165    -0.60892  -0.0011774
0.029407    0.029736    0.039602    0.038616     0.52369    -0.80329    0.027105
0.021843    0.029736    0.044535    0.034011       0.354     -1.0256    0.050126
0.0083598    0.024145    0.042233    0.012964    0.094852     -1.2463    0.063938
-0.002164    0.015924    0.029407   -0.025514    -0.18337     -1.4686    0.062952
-0.0087413   0.0080309   0.0073732   -0.071884    -0.42575     -1.6965    0.042891
-0.01499  -0.0018351   -0.016305    -0.11135    -0.61484      -1.906   0.0070443
-0.019265   -0.013674   -0.036695    -0.13536    -0.77138     -2.0513   -0.032091
-0.019594   -0.022883   -0.049521    -0.13733    -0.91576     -2.0872   -0.061689
-0.012359   -0.022554   -0.049192    -0.12253     -1.0559     -1.9902   -0.073199
-0.0034794   -0.016634   -0.039326    -0.10082     -1.1887     -1.7734   -0.065307
0.0030979  -0.0051238    -0.02354   -0.077146     -1.3397     -1.4633   -0.042944
0.0073732   0.0090175  -0.0038083   -0.047548     -1.5304     -1.0897    -0.01203
0.015595    0.025461    0.023817  -0.0064392     -1.7504    -0.68292    0.021843
0.035656    0.044864    0.058348    0.053086     -1.9333    -0.26789    0.057032
0.067227    0.062294    0.097483     0.12774     -1.9356     0.13728    0.093865
0.10143    0.077422     0.13563     0.20601     -1.5176     0.52139     0.13629
0.13037     0.09255     0.16687     0.27704    -0.48428     0.88019     0.18299
0.15109      0.1057     0.18989     0.33788      1.0515      1.2186       0.231
0.16326     0.11393     0.20371     0.38162      2.5939      1.5264     0.27507
0.16753     0.11393     0.20634     0.39971      3.6331      1.7724     0.30796
0.16326     0.10373     0.19976      0.3836      3.8551      1.9181     0.33098
0.15043    0.085644     0.18693      0.3392      3.2655      1.9444     0.35038
0.13432    0.068543     0.17477     0.27836      2.1677      1.8628      0.3665
0.11985    0.055717     0.16622     0.21653     0.98838      1.7109     0.37669
0.10998    0.045851     0.16063     0.16819    0.080382      1.5241     0.37274
0.10538    0.039931     0.15372     0.14056     -0.3899      1.3199     0.35466
0.10636    0.033683     0.14616     0.13958    -0.46422      1.1176     0.32901
0.10669    0.027763     0.13991     0.15701     -0.2965     0.93511     0.29678
0.099127    0.027763     0.13267     0.17674   -0.058729     0.78613     0.26027
0.08367    0.036314     0.12379     0.17707     0.12708      0.6855     0.22443
0.061965     0.04881     0.10899     0.13596     0.20075     0.63518     0.18891
0.038287     0.06065    0.081368    0.040918      0.1672     0.61019     0.15043
0.019541    0.068871    0.045193   -0.094576    0.066898     0.57401     0.10505
0.0054    0.073804    0.014608    -0.23369   -0.046232     0.49114    0.056374
-0.0041372    0.073804  -0.0034794    -0.33958    -0.13404     0.35663    0.013293
-0.015976    0.064596   -0.010057    -0.38825    -0.18567     0.19417   -0.023869
-0.031104    0.048482   -0.011043    -0.38299    -0.21659    0.038287   -0.048534
-0.045574    0.028421   -0.012688    -0.34024    -0.23303   -0.082079   -0.060045
-0.060045   0.0077021   -0.018278    -0.28302    -0.23171    -0.15805   -0.064978
-0.077803   -0.010057   -0.033078    -0.23106    -0.20146    -0.19784   -0.073857
-0.097207   -0.018278   -0.050836    -0.19192    -0.12944    -0.22546   -0.094247
-0.11102   -0.015648   -0.064649    -0.16298    0.010004    -0.25934    -0.12089
-0.11562  -0.0061104   -0.073528    -0.13799     0.23626    -0.30702    -0.14292
-0.11332 -0.00019077   -0.074515     -0.1199     0.55428    -0.35964    -0.15607
-0.10905   0.0011247   -0.069911    -0.11135     0.93182    -0.40634    -0.16462
-0.1028   0.0014536   -0.058729    -0.11233      1.3103    -0.44383    -0.17054
-0.096549  -0.0015062    -0.04393    -0.11694      1.6053    -0.46916    -0.17877
-0.090958  -0.0080836   -0.033406    -0.12154       1.727    -0.48691    -0.19126
-0.086683   -0.018936   -0.030118     -0.1222      1.6142    -0.50369     -0.2008
-0.085367   -0.027158   -0.034064    -0.11661      1.3018    -0.52342    -0.20475
-0.083065   -0.028473   -0.038997    -0.10313     0.94004    -0.54447    -0.20146
-0.083065    -0.02354   -0.034393   -0.083394     0.68813    -0.55959    -0.19192
-0.084052   -0.015648    -0.01795   -0.060045     0.57303    -0.56387    -0.18008
-0.085367   -0.013017   0.0070443   -0.043272     0.48226    -0.56617     -0.1689
-0.085696   -0.016963    0.030723   -0.038997     0.30204    -0.57012    -0.16462
-0.086025   -0.023869    0.044206   -0.048863   0.0044134     -0.5688    -0.16923
-0.083065   -0.028473    0.045193   -0.074515    -0.39911    -0.55466    -0.17482
-0.075173   -0.029131    0.039602    -0.10346    -0.88978    -0.51684    -0.16594
-0.063662   -0.027158    0.035327     -0.1176     -1.4146    -0.44548    -0.13799
-0.052481   -0.021896    0.034669    -0.10115     -1.8642    -0.32478   -0.095891
-0.039984   -0.013017    0.036971   -0.054783     -2.0392    -0.14127   -0.046232
-0.021896  -0.0011774    0.044206   0.0083598     -1.7794     0.10603   0.0063866
0.0044134    0.013951    0.059334    0.080053     -1.0641     0.41221    0.059005
0.036971    0.031709    0.085644     0.16293   -0.074515     0.76377     0.11228
0.070187    0.047495     0.12445     0.25534     0.89729      1.1377      0.1649
0.10242    0.061636     0.16622     0.35236      1.6372      1.5008     0.21357
0.12741    0.067885     0.20173     0.44312      2.0756      1.8122     0.25139
0.14024    0.064267     0.22673     0.51251      2.2098      2.0342     0.27836
0.13728    0.053086     0.23758     0.54737      2.0759      2.1391     0.30105
0.12017    0.036314     0.23331     0.54803      1.7172      2.1194     0.32605
0.094523    0.018884     0.21226     0.51679      1.1827      1.9763     0.34676
0.0692   0.0067154     0.17444     0.46088     0.53817      1.7244     0.35005
0.050126   0.0001381     0.12675     0.38557     -0.1324      1.3932     0.32539
0.04322   0.0001381    0.079724     0.29875    -0.73685      1.0239     0.28066
0.047166   0.0067154    0.047824     0.21588     -1.2157     0.66412       0.231
0.057032    0.014608    0.033683     0.15142     -1.5317     0.35104     0.19581
0.069529    0.021514    0.032367     0.10669     -1.6314    0.095839     0.17214
0.080053    0.021514    0.033354    0.069529     -1.4709    -0.11233     0.15207
0.082026    0.014608    0.027105    0.026119     -1.0539    -0.28367     0.12149
0.076106   0.0067154    0.014608   -0.024856    -0.46093    -0.41983    0.076106
0.068871   0.0047422  0.00079584   -0.074186     0.13859    -0.50829    0.021843
0.067556    0.013951  -0.0067681    -0.10378     0.54639    -0.53953   -0.028473
0.071831    0.032038   -0.004466    -0.10576     0.65787    -0.52506   -0.060373
0.082355    0.051441   0.0073732   -0.082079     0.50331    -0.49316   -0.070897
0.095181    0.062294    0.023159   -0.048534     0.21719    -0.47836   -0.073199
0.10636    0.059334    0.030394   -0.025514    -0.01795    -0.49612   -0.081421
0.10768    0.046508    0.023817    -0.02354   -0.077803    -0.54315   -0.096878
0.099456    0.029078   0.0060577   -0.034722    0.024803    -0.60498    -0.11003
0.083342    0.014937   -0.011701    -0.04689     0.16589    -0.66385    -0.11036
0.062623    0.010991   -0.020252   -0.050179     0.21752    -0.71285   -0.087998
0.041247    0.011648   -0.019265    -0.04097     0.12708    -0.74836   -0.042615
0.023817    0.010004   -0.014003   -0.023211   -0.082408    -0.78191    0.011977
0.012306   0.0050711  -0.0093991  -0.0038083    -0.33202    -0.82269    0.059992
0.0083598  -0.0011774  -0.0034794    0.012635    -0.53263    -0.85985    0.092879
0.013622   -0.007097   0.0080309    0.029407     -0.6303    -0.85557     0.11294
0.021514  -0.0061104    0.024803    0.050126    -0.61353    -0.76283     0.12905
0.025461  -0.0008485    0.041904    0.074462    -0.49777    -0.54545     0.14681
0.026447   0.0030979    0.056046      0.1011    -0.28631    -0.18896      0.1626
0.027434   0.0063866     0.06624     0.12511    0.053415     0.28132     0.16687
0.031052   0.0073732    0.067885     0.14714     0.52205     0.79633     0.15964
0.034998   0.0096753    0.057032      0.1603      1.0226      1.2604     0.14714
0.03434   0.0090175    0.034011     0.15701      1.3758       1.582     0.13234
0.025461   0.0063866    0.002769      0.1284      1.4271      1.7109     0.11491
0.0096753   0.0037556   -0.034393    0.071831      1.1528      1.6379    0.089919
-0.0051238   0.0057288    -0.07287   0.0014536     0.69043      1.3929    0.059992
-0.011043    0.013622   -0.099838   -0.065964     0.26619      1.0384    0.028421
-0.0074258     0.02579    -0.11102    -0.11858    0.045193     0.64866  0.00079584
-0.002164    0.035656    -0.10806    -0.15344    0.031709      0.2948   -0.021896
0.0017824     0.04026    -0.10082    -0.17153    0.091234    0.024145   -0.041299
-0.0011774    0.042233   -0.092931    -0.18008    0.059663    -0.15706   -0.059387
-0.0090702     0.04322   -0.085039    -0.18896    -0.16101    -0.27118   -0.068924
-0.019923    0.040918   -0.076159    -0.19751    -0.55039    -0.36227   -0.073199
-0.031433     0.03434   -0.068924    -0.20771    -0.99534    -0.47047   -0.079448
-0.041957    0.025461    -0.06432     -0.2179      -1.362    -0.62339   -0.096878
-0.051165    0.015924   -0.066622    -0.22382     -1.5482    -0.82466    -0.12615
-0.059716   0.0034268   -0.073199    -0.22152     -1.5084     -1.0578    -0.16495
-0.066951   -0.011372   -0.080106    -0.20869      -1.269     -1.2949    -0.20606
-0.073199   -0.022554   -0.083394    -0.18501    -0.90195     -1.4979    -0.24125
-0.073857   -0.032091   -0.084052     -0.1541    -0.52506     -1.6376    -0.26361
-0.071555   -0.035708   -0.083394     -0.1222    -0.26427     -1.6981    -0.27019
-0.063991   -0.027487   -0.079448   -0.095562     -0.2008     -1.6827    -0.26361
-0.050507   -0.007097   -0.074186   -0.075173    -0.33136      -1.611    -0.24914
-0.034064    0.017568   -0.066293   -0.061031    -0.56617      -1.515    -0.22974
-0.019265    0.036314   -0.059716   -0.050179    -0.76251     -1.4193    -0.20738
-0.0087413    0.046837   -0.053138   -0.042944    -0.77467     -1.3088    -0.18633
-0.007097    0.050126    -0.04393   -0.033406    -0.54414     -1.1262    -0.16857
-0.0084125    0.045193   -0.036695   -0.018936    -0.13075    -0.79408    -0.15673
-0.0057815    0.037629   -0.038011   0.0037556     0.33887    -0.25473    -0.14423
0.0040845    0.035656   -0.037682    0.037629     0.69372     0.44345    -0.11694
0.018884    0.044206   -0.026171    0.082355     0.76212      1.1183    -0.06432
0.043877    0.062294   0.0021113     0.13629     0.46154      1.5777   0.0073732
0.078737    0.081368    0.045851     0.19614    -0.17679      1.7241    0.083013
0.1136    0.095181    0.096496     0.24876     -1.0131      1.5938     0.14944
0.13366    0.098798     0.13991     0.28066     -1.8372      1.3156     0.19845
0.13267    0.090248     0.16095     0.28559     -2.3983      1.0236     0.22936
0.11393    0.072489     0.15142     0.26652     -2.4588     0.78712     0.23626
0.092221    0.051113     0.11524     0.23594     -1.9596     0.58881     0.22212
0.074462    0.035985    0.071173      0.2093     -1.1216     0.37472     0.19713
0.063281    0.029736    0.033354     0.20272    -0.28795     0.12116     0.17806
0.058019    0.030723    0.012306     0.21883     0.33953    -0.12417     0.18332
0.056703     0.03434    0.010991       0.256     0.76936    -0.27414     0.21094
0.060321    0.035327    0.026447      0.3027      1.0489    -0.24849     0.24251
0.064596    0.033354    0.047824     0.33723      1.1683   0.0067154     0.25567
0.062623    0.032038    0.060321     0.33394      1.1091     0.48292     0.24284
0.050784    0.032696    0.059334     0.28296     0.93412      1.1074     0.20239
0.030065    0.034011    0.047166     0.19351     0.76179      1.7517     0.14517
0.0050711    0.031052    0.026447    0.092221     0.66478      2.2565    0.084986
-0.018607     0.02283   0.0050711   0.0001381     0.63617      2.4653    0.033025
-0.038011    0.011977   -0.013017    -0.06728      0.6365      2.2983   -0.004466
-0.049192   0.0047422   -0.025514    -0.10543     0.63419       1.802    -0.02354
-0.049521   0.0024402   -0.036037    -0.11266     0.62597        1.14   -0.030447
-0.04393   0.0070443   -0.046232   -0.095562     0.62334      0.5089   -0.031762
-0.033406    0.018884   -0.053796   -0.064649     0.63419    0.053086   -0.028144
-0.022225    0.034998   -0.055769   -0.030118     0.66741    -0.17548   -0.019265
-0.011372    0.049797   -0.050507  -0.0041372      0.7243    -0.21067  -0.0038083
-0.0031506    0.055388   -0.042944    0.010333     0.78514    -0.13009    0.015924
0.0024402     0.05177   -0.034722    0.013951     0.81935  -0.0061104    0.034998
0.0034268    0.044535   -0.028144   0.0077021     0.82428    0.097483    0.045522
-0.0024928    0.036642   -0.028473  -0.0067681     0.82231       0.133    0.042233
-0.017621    0.027434   -0.041628   -0.027487     0.82132    0.076764    0.027105
-0.039326    0.015924    -0.06136   -0.054125     0.80915   -0.059716   0.0050711
-0.060373   0.0070443   -0.081092    -0.08175      0.7516     -0.2475   -0.018278
-0.07583   0.0017824   -0.089643    -0.10247     0.62531    -0.45797   -0.038011
-0.080106   0.0030979   -0.086683    -0.10641     0.43227    -0.67536   -0.056427
-0.07287    0.010333   -0.077146   -0.095562     0.18759    -0.88912   -0.076488
-0.0584    0.020528   -0.062347   -0.074186   -0.079777     -1.0832    -0.09918
-0.043601    0.032038   -0.041957   -0.050836    -0.32478     -1.2357    -0.11924
-0.031104    0.044535   -0.016963   -0.028802    -0.48757     -1.3278    -0.13207
-0.024198    0.059334   0.0067154  -0.0093991    -0.52177     -1.3502    -0.13568
-0.022225    0.074462    0.023817   0.0067154    -0.43134     -1.3005    -0.12911
-0.021567    0.084657    0.035327    0.018226    -0.27447     -1.1831    -0.11299
-0.018607    0.086959    0.042562    0.024145     -0.1268     -1.0098   -0.092603
-0.010715    0.080053    0.049468    0.024145   -0.050836    -0.80624   -0.078132
-0.0028217    0.067885    0.055717    0.019212   -0.087341    -0.59741   -0.074515
0.0037556    0.053743    0.059005   0.0077021    -0.25441      -0.407   -0.075501
0.0063866    0.039931    0.054401  -0.0090702    -0.55598    -0.25638   -0.077146
0.0070443    0.029078    0.042562   -0.031433    -0.97791    -0.16166   -0.074844
0.0080309    0.021843    0.031052   -0.065307     -1.4735    -0.13108   -0.070897
0.0073732    0.018226    0.024474    -0.11036     -1.9484    -0.15706   -0.066622
0.002769    0.012635    0.020857    -0.16397      -2.295    -0.21626   -0.062018
-0.0034794   0.0037556    0.014937     -0.2133     -2.4407    -0.28631   -0.054783
-0.0074258   -0.010715   0.0047422    -0.24585     -2.3828    -0.35899    -0.04097
-0.0064392   -0.022554  -0.0057815    -0.24914     -2.1832    -0.43397   -0.024198
-0.0011774     -0.0265   -0.011372    -0.22218     -1.9195    -0.50928   -0.010715
0.0090175   -0.021896   -0.013345    -0.17646     -1.6255    -0.58393   -0.007097
0.015924   -0.014332   -0.016634    -0.13338     -1.2854    -0.66023   -0.015319
0.011977   -0.012359   -0.022883    -0.11332    -0.88287    -0.75067   -0.026171
-0.0024928    -0.01795   -0.028144    -0.12121    -0.41785    -0.87333   -0.033735
-0.019923   -0.029131   -0.033735    -0.14983     0.10768     -1.0299   -0.029789
-0.031104   -0.040313   -0.040313    -0.17975     0.67432      -1.193   -0.016305
-0.029789   -0.044259   -0.049192    -0.18765      1.2521     -1.3318   0.0047422
-0.017621   -0.039655   -0.056427    -0.16232      1.8059     -1.4275     0.02579
0.002769   -0.027816   -0.060373     -0.1051      2.3029     -1.4656    0.038616
0.029078   -0.011701    -0.05544    -0.03242      2.7284     -1.4311    0.036642
0.058348   0.0080309   -0.036695    0.044864      3.0889     -1.3045    0.024145
0.084657    0.023488  -0.0057815     0.11689      3.3618     -1.0664    0.013622
0.10538    0.034011    0.028421     0.17838      3.4753    -0.70726     0.01691
0.11656     0.04026    0.054072     0.22673       3.371    -0.24289    0.034011
0.12182    0.037629    0.060979     0.26652      3.0583     0.28395    0.055717
0.12215    0.024474    0.048153     0.29974      2.5985     0.82888    0.068214
0.11721   0.0086887    0.025461     0.32966      2.0664      1.3452    0.067227
0.10768   0.0021113    0.010333     0.35959      1.5123      1.7688    0.057032
0.097812   0.0057288    0.012635     0.38689     0.95912       2.024    0.051441
0.088932    0.013951    0.031709     0.40728     0.43391      2.0575    0.054072
0.083999     0.02283    0.058348     0.41879   -0.034064      1.8721    0.067227
0.087288    0.029078    0.084328     0.41648    -0.42015      1.5383    0.090905
0.096167    0.031052      0.1011     0.39511    -0.69542      1.1699     0.11458
0.1034    0.030394     0.10965     0.35268    -0.83058     0.86276     0.13201
0.10077    0.031052     0.10866     0.29217    -0.81348     0.65689     0.13695
0.085644    0.031052    0.099127     0.21719    -0.67042     0.54672     0.13399
0.065254    0.025132    0.084328     0.13793     -0.4537     0.50429     0.12971
0.047495    0.013951     0.06624    0.065583    -0.22086     0.50298       0.133
0.036642   0.0034268    0.048482    0.010662   -0.022225     0.51942     0.14352
0.028421  0.00079584    0.034998   -0.022554     0.10768     0.52435     0.15471
0.019212      0.0054    0.026447   -0.032749     0.17016      0.4941     0.16391
0.010333    0.011977    0.020857   -0.023869     0.19976     0.42602     0.16457
0.0073732     0.01691    0.019541  -0.0057815      0.2287      0.3392     0.15405
0.014937    0.017897     0.01987   0.0080309     0.25435     0.26323     0.13169
0.027105    0.018884    0.023159   0.0077021     0.24482     0.20371     0.10603
0.033025    0.024145    0.028421  -0.0067681     0.16622     0.14517    0.083999
0.029736    0.031052    0.031052   -0.030118    0.017568    0.068871    0.068214
0.016253     0.04026    0.033025   -0.049192    -0.15542   -0.037353    0.055388
-0.002164     0.04618    0.036642   -0.053138    -0.29716    -0.17482    0.043549
-0.019265    0.050455     0.04026   -0.041628    -0.39154    -0.32972    0.028421
-0.029789    0.053743    0.044864   -0.022554    -0.48001    -0.48363    0.012964
-0.030447    0.058019    0.051441  -0.0051238    -0.61353    -0.60925 -0.00051963
-0.025185     0.06624    0.062952   0.0070443    -0.80361    -0.67503  -0.0034794
-0.019594    0.073476    0.077093     0.01132     -1.0259    -0.67141   0.0030979
-0.015319    0.075449    0.086301    0.010333     -1.2459    -0.61649    0.019212
-0.01203    0.070516    0.088603   0.0060577     -1.4334    -0.53855    0.038287
-0.0077547    0.062952    0.082026   0.0040845     -1.5758    -0.44153     0.06065
0.00079584    0.057032     0.07216      0.0054     -1.6718     -0.3113    0.082026
0.01132    0.054072    0.065912   0.0057288     -1.7267    -0.13207     0.09551
0.017239    0.050126    0.065254   -0.002164     -1.7396    0.095181    0.095181
0.015266    0.043877    0.066898   -0.021238     -1.7383     0.34282    0.085972
0.0073732    0.039931    0.067227   -0.047219     -1.7481     0.55823     0.07512
-0.0047949    0.039931    0.061965   -0.076488     -1.7511     0.68122    0.062294
-0.016963     0.04322     0.05177    -0.10214     -1.6712     0.67234     0.05177
-0.025842     0.04322    0.038616    -0.11595     -1.4041     0.53159    0.042891
-0.03242    0.033683    0.021186    -0.11299    -0.87892     0.29875    0.035327
-0.039984    0.016253   0.0044134    -0.09622    -0.14752    0.044535    0.024474
-0.048205  -0.0011774  -0.0097279    -0.07583     0.61874    -0.16364    0.010333
-0.055112   -0.016634    -0.01499   -0.063004      1.2521    -0.28466  -0.0054526
-0.060373    -0.02946   -0.015319   -0.059058      1.6754    -0.31261   -0.019265
-0.063991    -0.03538    -0.01499    -0.06728      1.8905    -0.26855   -0.024198
-0.063662   -0.034722   -0.019265   -0.081421      1.9421    -0.18469   -0.022225
-0.060373   -0.028802    -0.03242   -0.089643      1.9026   -0.091616   -0.014661
-0.053796   -0.017621    -0.04985   -0.078461      1.8339  -0.0057815  -0.0087413
-0.045246  -0.0024928   -0.064978   -0.048534      1.7596    0.073804  -0.0057815
-0.036366    0.014608   -0.071884   -0.011701      1.6948     0.16161  -0.0047949
-0.027816    0.027763   -0.064978    0.016253      1.6501     0.27145  -0.0024928
-0.022225    0.033683   -0.047548    0.032367      1.5892     0.40793   0.0014536
-0.018278    0.032038   -0.025842    0.039602      1.4291     0.55527   0.0037556
-0.013345    0.025461  -0.0034794    0.038287      1.1157     0.68451   0.0070443
-0.0054526    0.018555     0.01132    0.028421     0.66708     0.77594    0.014937
0.0021113    0.013951    0.012964   0.0086887     0.17641     0.81935     0.02579
0.0073732    0.010991  0.00079584    -0.01795    -0.24651     0.80882    0.032367
0.010004   0.0086887   -0.016963   -0.043601    -0.52046     0.74469    0.029078
0.013622   0.0093464   -0.028144   -0.059716    -0.60728     0.63321    0.020857
0.01691    0.013951   -0.028144   -0.058729     -0.5369     0.48555    0.012964
0.020199    0.027434   -0.014332   -0.040641    -0.38233     0.31454    0.010991
0.029407    0.044864   0.0090175  -0.0093991    -0.21823     0.12873    0.017568
0.04322     0.05769    0.042233    0.025461    -0.10773   -0.058071    0.031709
0.06065    0.060321     0.07808    0.051441   -0.095891    -0.21626    0.051113
0.07808    0.051441     0.10801    0.062294     -0.2008    -0.31755    0.070516
0.090905    0.031052     0.12544    0.059005     -0.4047    -0.35241     0.08663
0.09551   0.0073732     0.12873    0.053086    -0.65825     -0.3261    0.092221
0.088603   -0.015976     0.12116    0.050126    -0.93385    -0.26065    0.087617
0.07512   -0.030118     0.10735    0.053415     -1.2239    -0.18567    0.079066
0.058019   -0.033078    0.096825    0.068214      -1.514    -0.12023    0.073476
0.042891   -0.026829    0.092221    0.096496     -1.7698   -0.073199    0.074462
0.034669   -0.013674    0.093536     0.13366     -1.9415   -0.043272    0.079395
0.036314   0.0034268    0.093536     0.16687     -1.9836    -0.01795    0.084657
0.049468    0.017568    0.089261       0.182     -1.9004    0.014608    0.085972
0.064267     0.02283    0.076106     0.16983      -1.735    0.059005    0.083342
0.068871    0.021514     0.05473      0.1307     -1.5228     0.11294     0.07808
0.06065    0.014937    0.027105    0.071831     -1.2953     0.17082    0.070845
0.04322    0.010662  -0.0041372   0.0047422     -1.0736     0.22114    0.060979
0.021514   0.0060577   -0.034064   -0.057085    -0.85525      0.2583    0.052757
0.0047422    0.002769   -0.059387    -0.10543    -0.57933     0.28724    0.046508
-0.00051963   0.0044134   -0.079777    -0.13634     -0.1416     0.32276    0.039273
0.0047422    0.013951    -0.09326    -0.14259     0.49212     0.36683    0.036314
0.010991    0.024803   -0.098522    -0.12845        1.21     0.41024    0.042891
0.012964    0.032367    -0.09622    -0.10214       1.804     0.43424    0.059334
0.0077021    0.034998   -0.088656   -0.072213      2.0654     0.41944    0.073804
-0.0024928     0.03434   -0.076159   -0.040641      1.8674     0.35696     0.07808
-0.010057    0.030723   -0.057743  -0.0057815      1.2472     0.26323    0.067227
-0.010386    0.027763   -0.037682    0.030394      0.4224     0.18102    0.039273
-0.0028217    0.032038   -0.020909     0.06624    -0.25967      0.1376   0.0057288
0.010662    0.042233   -0.011043    0.098798    -0.47244     0.12708    -0.01203
0.023817     0.05177  -0.0084125     0.12149    -0.11069     0.10932  -0.0074258
0.027763    0.057032  -0.0097279     0.13563     0.68648    0.047824    0.013622
0.021843    0.055717  -0.0093991     0.13958      1.5902   -0.067937    0.034669
0.0086887    0.047824  -0.0084125     0.13464        2.27    -0.22086    0.040589
-0.0093991    0.038616  -0.0057815      0.1284      2.5443    -0.37806    0.031052
-0.028144    0.035327 -0.00051963     0.12478       2.388    -0.50665    0.012635
-0.039984    0.037629   0.0070443     0.12017      1.8872    -0.59676  -0.0084125
-0.039326    0.044206    0.013293     0.11261      1.1959    -0.65497   -0.035051
-0.027158     0.05473    0.020199     0.10209     0.48028    -0.69279   -0.063662
-0.0061104    0.065254    0.031052    0.094852    -0.12878    -0.71712   -0.089972
0.015924    0.076106    0.046508    0.094194    -0.56551    -0.71745    -0.11266
0.029736     0.07808    0.063281     0.10209    -0.82795    -0.67503    -0.13305
0.031709    0.069529     0.07216     0.11031    -0.93417    -0.58623    -0.15246
0.020528    0.052099    0.064925      0.1113    -0.89866    -0.46028     -0.1712
0.0040845    0.031381    0.039602    0.097812    -0.74146    -0.30867      -0.186
-0.010386    0.013293   0.0037556    0.072489    -0.50895    -0.14555    -0.19258
-0.020909  -0.0041372   -0.027487    0.042562    -0.24849   0.0077021    -0.18863
-0.029131   -0.022883   -0.045574    0.015266    0.010991     0.12807    -0.17285
-0.037682   -0.041628   -0.050836  -0.0090702     0.26027     0.18628    -0.15114
-0.04689    -0.05544   -0.047219   -0.032749     0.48818     0.15799    -0.13634
-0.051823     -0.0584   -0.036695    -0.05281     0.67497    0.027763    -0.13338
-0.048205   -0.052481   -0.023211   -0.063004     0.80619     -0.1906    -0.13766
-0.034722   -0.041299   -0.014661   -0.065635     0.88019    -0.46324    -0.14062
-0.015648   -0.029131   -0.013345   -0.059058     0.90419    -0.74705    -0.13371
-0.0018351   -0.018278    -0.01499   -0.039984     0.89104    -0.98942    -0.11398
0.0014536  -0.0061104   -0.013017  -0.0051238     0.83842     -1.1397   -0.082736
0.0001381   0.0067154   -0.004466    0.045522     0.69076     -1.1667   -0.048534
0.0054    0.018226    0.010662     0.10768     0.37834     -1.0828   -0.020252
0.020528    0.022172    0.031052      0.1672    -0.11661    -0.92793 -0.00051963
0.044206    0.017568    0.054401     0.20831    -0.74442    -0.73258    0.017897
