0.00079584  -0.0047949   -0.088327    -0.14062    -0.37609    -0.67075   -0.069582
-0.0057815  -0.0057815   -0.060045   -0.093918    -0.30341    -0.50961   -0.090958
-0.011372  -0.0018351   -0.036366    -0.03538    -0.20113    -0.31229    -0.10905
-0.010386   0.0040845   -0.024527    0.035985   -0.085696    -0.14752    -0.11891
0.00079584    0.010991   -0.027158     0.11853     0.01987   -0.058729    -0.11529
0.014279    0.015266   -0.039984     0.20732    0.095181   -0.055769   -0.097536
0.026119    0.018226   -0.059058     0.29217     0.13234    -0.11595   -0.071555
0.035656    0.022501   -0.076488     0.35795     0.13563    -0.19916   -0.045903
0.043549    0.028092   -0.086683     0.39642     0.12609    -0.27151   -0.024856
0.05177    0.037629   -0.091616     0.40826     0.12281    -0.31163  -0.0041372
0.059992    0.050784   -0.092603     0.39708      0.1432    -0.30965    0.019541
0.065912     0.06624   -0.085367     0.38195     0.19549    -0.25506    0.045851
0.070845    0.083999    -0.06432     0.38853     0.27047    -0.13601    0.070187
0.07216    0.099456   -0.025514     0.43622     0.34775     0.04322    0.090577
0.070187     0.10801    0.022172      0.5329     0.40991     0.25929     0.10406
0.063281     0.10801    0.071831       0.673      0.4474     0.47601     0.11557
0.055059    0.099456     0.11689     0.84072     0.45266     0.65557     0.12511
0.04881    0.085972     0.15701      1.0068     0.41846     0.77232     0.13201
0.042891    0.070516     0.19647      1.1357     0.34348     0.81639     0.13432
0.036314    0.057361     0.23363      1.2028     0.22936     0.79698      0.1307
0.029078    0.049139     0.27145      1.2012    0.089919     0.73318     0.12083
0.020199    0.045193     0.31223      1.1321   -0.051823     0.64373     0.10801
0.015595    0.045851     0.35564      1.0107    -0.17285     0.54343    0.091563
0.017568    0.051441     0.40629     0.85947    -0.26164     0.44214     0.07216
0.022172    0.055388     0.46549     0.70095    -0.32117     0.34611     0.04881
0.021514    0.055059     0.52468     0.54606    -0.35767     0.25501    0.023817
0.01132    0.048153     0.56349     0.39741     -0.3751      0.1751  -0.0011774
-0.0031506    0.036971     0.56086     0.26192    -0.36359     0.11491   -0.021567
-0.016634    0.027105     0.50955     0.14352    -0.31853    0.089919   -0.037682
-0.024527    0.021186     0.41912    0.043877    -0.24881     0.10768   -0.053467
-0.026171    0.021843     0.31651    -0.04097    -0.17581     0.16424   -0.068924
-0.023211    0.026776     0.22574    -0.11233     -0.1222     0.25074   -0.079777
-0.013017    0.032696     0.16128    -0.16627    -0.09622     0.35597   -0.078132
0.00046697    0.036971     0.12873    -0.20244   -0.095891      0.4622   -0.063662
0.014608    0.039273     0.12741    -0.22579    -0.11069     0.55296   -0.041628
0.025461    0.038287     0.14813    -0.24618    -0.13141      0.6069   -0.018936
0.031381    0.032038     0.17312    -0.27414    -0.14785     0.61742  -0.0015062
0.033354    0.018884     0.18792    -0.31327    -0.15476     0.57829   0.0083598
0.034998   0.0047422     0.18792    -0.35701    -0.15344     0.49015    0.011977
0.04026  -0.0087413     0.17115    -0.40042    -0.14226     0.35564   0.0093464
0.052428   -0.015319     0.13892    -0.43594    -0.11529     0.18233   0.0030979
0.068871   -0.016634    0.092221    -0.46061   -0.066622  -0.0097279  -0.0028217
0.084328   -0.017621    0.033354    -0.47376   0.0080309    -0.20475  -0.0074258
0.089261   -0.018936   -0.034064    -0.47606     0.10702    -0.39253   -0.014661
0.080053   -0.022225    -0.10247    -0.47179     0.22015    -0.57012   -0.022883
0.06065   -0.031762    -0.16068    -0.45962     0.32769    -0.72666   -0.033735
0.039602   -0.051823     -0.2031    -0.43989     0.41616     -0.8467   -0.054125
0.01987   -0.079777    -0.22908    -0.41423     0.49245    -0.90984   -0.083065
0.0017824    -0.11003    -0.23796    -0.38661     0.57796    -0.89241    -0.11233
-0.012359    -0.13207    -0.23336    -0.35603     0.69076     -0.7829    -0.12154
-0.020909    -0.14292    -0.21955     -0.3136     0.82987    -0.59215   -0.095891
-0.0265    -0.14358     -0.2008    -0.25638     0.97457    -0.35175   -0.037024
-0.028473    -0.13832    -0.17975    -0.19126      1.0811    -0.10707    0.033025
-0.029789     -0.1324     -0.1587    -0.12845      1.1104    0.094523     0.08959
-0.025514    -0.12713    -0.14292   -0.078461      1.0348     0.22212     0.11689
-0.019923    -0.12253    -0.13503   -0.044917     0.86046     0.26882     0.11458
-0.01499    -0.11694     -0.1347   -0.011701     0.63091     0.25633    0.093865
-0.013674    -0.10937     -0.1393    0.039602     0.40629     0.21226    0.069529
-0.01203    -0.10313    -0.14851     0.11261     0.23824     0.17181    0.055059
-0.011372   -0.096878     -0.1518     0.19779     0.13563     0.15405    0.056046
-0.010057   -0.086354    -0.14489      0.2777    0.080382     0.16194    0.067556
-0.0093991   -0.070568    -0.12549     0.33427    0.042891     0.18299    0.077751
-0.010715   -0.048863   -0.098522     0.35729   0.0017824     0.20798    0.082684
-0.015319   -0.024527   -0.077146      0.3517   -0.060373     0.23298    0.082684
-0.020252  -0.0024928   -0.072213     0.32999    -0.14621     0.25929    0.083342
-0.022554    0.011648   -0.089314     0.30697    -0.24783     0.29842    0.083999
-0.019265    0.021514    -0.12516     0.29513    -0.34024     0.36288     0.08959
-0.015319    0.027434    -0.16726     0.30039    -0.40108     0.45167    0.099456
-0.013674    0.029407    -0.20738     0.32341    -0.40667     0.54869     0.11294
-0.0077547    0.026119    -0.23994      0.3517    -0.34747     0.62926     0.12478
0.0050711    0.019212    -0.26032     0.36946    -0.24158     0.66708     0.13596
0.021514   0.0070443    -0.27019     0.36518    -0.13108     0.64406     0.14484
0.03434  -0.0057815    -0.27611     0.33295   -0.060373     0.55823      0.1524
0.043877   -0.016634    -0.28137     0.26718   -0.049192     0.42043     0.15635
0.049139   -0.020909    -0.28992     0.17016   -0.089972     0.25435     0.15273
0.049797   -0.019923    -0.30341    0.054401     -0.1541    0.092221     0.13958
0.044864   -0.016963    -0.31722   -0.065964    -0.21395    -0.04097     0.11919
0.033354   -0.014661    -0.31689    -0.17613    -0.25375    -0.13733     0.09551
0.021514   -0.010057    -0.29847    -0.26822    -0.26723    -0.19981    0.067885
0.013622  -0.0011774    -0.26592    -0.34254     -0.2623    -0.23796    0.034998
0.010991    0.010333    -0.22777    -0.40042    -0.25243    -0.26657    0.002769
0.0083598     0.02579    -0.19192    -0.44679    -0.24618     -0.2942   -0.026171
0.0054    0.044864    -0.16298    -0.48494    -0.25046    -0.32741   -0.051494
0.0024402    0.065583    -0.14226    -0.51684    -0.27249    -0.37115   -0.073528
0.0011247    0.082684    -0.13141    -0.54611    -0.30406    -0.42542   -0.094247
0.0047422    0.098798    -0.12911    -0.57341    -0.32939    -0.48034    -0.11398
0.011648     0.11689    -0.12878    -0.59511    -0.32511     -0.5129    -0.12878
0.023159     0.14056    -0.12187    -0.60366     -0.2748     -0.5004     -0.1324
0.040589     0.16786   -0.098851    -0.58623    -0.17679    -0.44383    -0.12023
0.063938     0.19516   -0.059716    -0.52802   -0.043272     -0.3649   -0.098851
0.09255     0.21916   -0.012359    -0.42311     0.10011    -0.29288   -0.077146
0.11721     0.23791    0.033683     -0.2817     0.22377     -0.2521   -0.061031
0.13399      0.2481    0.071502    -0.12089     0.31059    -0.25868   -0.054783
0.14352     0.24975    0.098469    0.034011     0.35531    -0.31261   -0.056756
0.14977     0.23857     0.11097     0.15997     0.36156    -0.40305   -0.065307
0.14813     0.21127     0.11195     0.23725     0.34019    -0.50665   -0.067937
0.13432     0.17411     0.11031     0.26159      0.3027    -0.59972     -0.0584
0.10932     0.13333      0.1136     0.24317     0.26126    -0.66911   -0.037024
0.078737    0.097483     0.12774     0.20206     0.22114    -0.71679   -0.013017
0.044864    0.071173     0.14977     0.16063     0.17575    -0.75494   0.0047422
0.0070443    0.049468     0.17279     0.12741      0.1136    -0.79408    0.002769
-0.03242    0.026447     0.19483     0.11097    0.038616    -0.82927   -0.020581
-0.074186   0.0034268     0.21818      0.1136   -0.041299    -0.84834   -0.057085
-0.11233   -0.014661      0.2481     0.14122    -0.11661    -0.84045    -0.09326
-0.13634   -0.018278     0.28823       0.207    -0.18041    -0.80263    -0.12056
-0.13766  -0.0077547     0.33164     0.31486    -0.22875    -0.73948    -0.13503
-0.12121    0.014279     0.36617     0.45365    -0.25901    -0.65233    -0.13371
-0.095233    0.039602     0.38491     0.59276    -0.27381    -0.53855    -0.11431
-0.064978    0.064596      0.3859     0.69701     -0.2748    -0.40207   -0.080106
-0.039326    0.081697     0.37768     0.73055    -0.26131    -0.25473   -0.037024
-0.022883    0.090905      0.3688     0.68714    -0.23007    -0.11727    0.010991
-0.013674    0.095839     0.36058     0.57993    -0.17778   -0.014661     0.05473
-0.0057815    0.097483     0.34841     0.43885    -0.11003      0.0373    0.086301
0.0030979    0.094523     0.32736     0.29053   -0.033406    0.047166    0.099456
0.0086887    0.087288     0.29217     0.15273    0.047166     0.06065    0.098798
0.011648    0.073804     0.24186    0.038944     0.12774      0.1307    0.092879
0.013622    0.049468     0.18595   -0.044588     0.19943     0.28658    0.090577
0.012964     0.01691     0.13037    -0.10674     0.25698     0.51712     0.09551
0.0060577   -0.016305    0.081368    -0.15805     0.29645     0.76278     0.10834
-0.0084125   -0.041628     0.04322     -0.2008     0.31848     0.94793     0.12544
-0.023869   -0.052152    0.023488    -0.21461     0.32736      1.0295     0.14517
-0.029789   -0.047548    0.026447    -0.17877      0.3267      1.0239     0.16753
-0.024198    -0.03242    0.051441   -0.087998     0.31421       1.016     0.19088
-0.013017    -0.01203    0.087617     0.04026     0.28757      1.1041     0.21094
-0.0041372   0.0057288     0.12313     0.16983     0.24021      1.3294     0.22804
-0.00051963    0.012635     0.14944      0.2708     0.16918      1.6277     0.23462
-0.0051238   0.0080309     0.16063     0.33756    0.085644       1.877     0.22739
-0.012688  -0.0034794     0.15536     0.38228      0.0054      1.9829     0.20765
-0.019265   -0.018278     0.13662     0.41747   -0.056427      1.9273     0.18167
-0.020252   -0.031104     0.11195     0.44674   -0.097536       1.756     0.15175
-0.018607   -0.038011    0.085315     0.46713    -0.12845      1.5271     0.12017
-0.019265   -0.036366    0.062952     0.47075    -0.16068      1.2814    0.085315
-0.022225   -0.029789    0.044864     0.45595    -0.19948      1.0364    0.048482
-0.028473    -0.01795    0.033683     0.42931    -0.24553     0.79731    0.015924
-0.036695  -0.0015062     0.02579     0.39971     -0.2919     0.56283   -0.010715
-0.038011    0.014608     0.01987     0.36748    -0.32939     0.33657   -0.031762
-0.030118    0.026776    0.017897     0.32802     -0.3557     0.11952   -0.046561
-0.019923    0.034669    0.017568     0.27869    -0.37017   -0.093918   -0.056098
-0.012688    0.039273    0.022172     0.21818    -0.37806    -0.30735   -0.057414
-0.0064392    0.040589    0.030723     0.14451    -0.37839    -0.51355   -0.050836
-0.0015062    0.038944    0.037958    0.057361    -0.36392    -0.69673   -0.044259
-0.002164    0.035985      0.0373   -0.041628    -0.33432    -0.84735    -0.04097
-0.0084125    0.029736     0.02875    -0.14719     -0.2942    -0.96739   -0.039655
-0.019923    0.020528    0.013951       -0.26    -0.25243     -1.0555   -0.045574
-0.034064   0.0080309  -0.0067681    -0.38233    -0.21461     -1.1104   -0.057743
-0.044588   -0.010386   -0.033735    -0.51158    -0.18732     -1.1236   -0.074844
-0.049521   -0.031762   -0.062676    -0.62734    -0.17548     -1.0713   -0.087669
-0.044917    -0.05544   -0.088656    -0.70397     -0.1666    -0.93516   -0.093589
-0.025514   -0.074844    -0.10905    -0.72962     -0.1347    -0.71087   -0.093918
0.0040845   -0.085696    -0.12253     -0.7112   -0.063333    -0.41687   -0.092274
0.036642   -0.086354    -0.12713    -0.67404    0.043877   -0.098851   -0.086683
0.059992   -0.077475    -0.12549    -0.63951     0.14813     0.18299   -0.079777
0.068871   -0.067609    -0.12582    -0.60794     0.20469     0.38491   -0.073528
0.063281    -0.06432    -0.12713    -0.57341     0.19417     0.50659   -0.072213
0.047824   -0.067937    -0.12779    -0.52539     0.12873     0.57171   -0.078461
0.027763   -0.070897    -0.12746    -0.45863    0.036314      0.5921   -0.087998
0.0073732   -0.069582    -0.12319    -0.37773   -0.050179     0.55757   -0.095891
-0.0090702   -0.062347    -0.11201    -0.29453    -0.10017     0.45989    -0.10214
-0.020581   -0.048205   -0.092931     -0.2304    -0.09622     0.31552    -0.10378
-0.024527   -0.030118   -0.069582    -0.20047   -0.036366     0.16194   -0.094247
-0.024527   -0.011372    -0.04985    -0.21363    0.063938    0.034011   -0.075173
-0.025185    0.002769   -0.041957    -0.26131     0.17608   -0.066951   -0.057414
-0.028802   0.0057288   -0.044588    -0.31656     0.26981    -0.16726   -0.053467
-0.034064  -0.0018351   -0.051494    -0.34287     0.32637    -0.30374   -0.066951
-0.038011   -0.015648   -0.050179     -0.3136     0.33756    -0.49974   -0.091616
-0.038011   -0.033078   -0.030775    -0.22579     0.31388    -0.75363    -0.11793
-0.031433   -0.051494   0.0040845    -0.10115     0.26685      -1.022    -0.13404
-0.019594   -0.067609    0.042891    0.026119     0.21061     -1.2446    -0.13174
-0.013345   -0.079119    0.063938     0.12905     0.15701     -1.3722    -0.11497
-0.017621   -0.082079    0.056374     0.19976     0.11491     -1.3801   -0.084052
-0.025185    -0.07583    0.016253     0.24449    0.098469     -1.2581   -0.045574
-0.025185   -0.063004   -0.047548     0.27507     0.11491     -1.0167   -0.013674
-0.016963   -0.045903    -0.11957     0.29941     0.16293    -0.69772   0.0030979
-0.0051238   -0.028144    -0.18666     0.31651     0.21916     -0.3626   0.0073732
0.0086887  -0.0097279    -0.23533      0.3175     0.25797   -0.083723    0.011648
0.026447   0.0090175    -0.25704     0.29513     0.25764    0.082026    0.023817
0.044206    0.029407    -0.25079     0.25106      0.2162     0.13037    0.041904
0.057032     0.04618    -0.22415     0.18924     0.14583    0.098469    0.060321
0.059663     0.05177    -0.18962     0.11853    0.067885    0.041247     0.07808
0.051441     0.04322     -0.1587    0.049139   0.0067154   0.0021113    0.097154
0.036314    0.021843     -0.1416   -0.015976   -0.028802  -0.0051238     0.11294
0.017897  -0.0057815    -0.14423   -0.079777   -0.040641   0.0047422     0.12511
-0.00019077   -0.036366    -0.16561    -0.14752   -0.048534   0.0021113     0.13366
-0.016634    -0.06432    -0.20179    -0.22415    -0.06728    -0.02946     0.13662
-0.031762   -0.078132    -0.24487    -0.30308    -0.11398   -0.081421     0.13563
-0.042286   -0.075173    -0.28861    -0.37905    -0.18666    -0.11957     0.12873
-0.044588    -0.06432    -0.32347    -0.44482    -0.26756    -0.10937     0.11689
-0.041299   -0.054454    -0.34188    -0.48889    -0.33761   -0.044917     0.10274
-0.034393   -0.051823    -0.33827    -0.50303    -0.38332     0.05177    0.089261
-0.027816   -0.055112    -0.31886    -0.48593    -0.40667     0.14517    0.076106
-0.028144   -0.060373    -0.29354    -0.44548    -0.41522     0.20206    0.059005
-0.027816   -0.060045    -0.26526    -0.39385    -0.41489     0.20667    0.038287
-0.022225   -0.054125    -0.23434    -0.33892    -0.40634     0.16161    0.017239
-0.0080836   -0.044588     -0.2031    -0.28499    -0.37806    0.084657   0.0021113
0.013951   -0.030447    -0.17613    -0.22612    -0.32314   0.0086887  -0.0024928
0.041247   -0.014332    -0.15344    -0.16101    -0.24355   -0.036695 -0.00019077
0.061307  0.00046697    -0.13338     -0.1005    -0.15443   -0.038668    0.002769
0.064267    0.012306    -0.11299   -0.051165   -0.078461  -0.0067681   0.0057288
0.048482    0.018555   -0.098193   -0.014661   -0.024856    0.040589    0.010004
0.026119    0.018555   -0.089643    0.011977     0.01132    0.082684     0.01987
0.0030979   0.0093464   -0.087341    0.031052    0.047166     0.10801    0.035327
-0.014332   -0.004466   -0.086354    0.044864    0.097483     0.12116     0.05473
-0.02354   -0.015648   -0.078132    0.060979     0.16622     0.13136    0.074133
-0.019265   -0.016634   -0.060373    0.084328     0.25172     0.15175    0.090577
-0.0077547  -0.0074258   -0.039984     0.11294     0.35203     0.20108     0.10439
0.0030979   0.0050711   -0.020909     0.14583     0.46055     0.29086     0.11919
0.0096753    0.014608  -0.0041372      0.1774     0.56119     0.42175     0.13004
0.01132    0.019212    0.013951     0.20601     0.63617     0.58421     0.12938
0.01132    0.017897    0.032367     0.23035     0.67366     0.74864     0.11426
0.012964    0.012964    0.044535     0.25468     0.67136     0.87164    0.086301
0.012635    0.011648    0.047495     0.27902     0.63814     0.91373     0.05177
0.012306    0.012635     0.04026     0.30796     0.58585     0.86506     0.01691
0.016253    0.015924    0.026447      0.3494     0.52863     0.74272   -0.015319
0.026776    0.016581    0.014937      0.4155     0.47996       0.575   -0.040641
0.041247    0.018555     0.01691     0.51547     0.44838     0.38985   -0.051823
0.060321    0.027434     0.04026     0.65097      0.4303     0.21555   -0.042944
0.080053    0.048482    0.079395      0.8131     0.40662    0.073147   -0.019594
0.10011    0.077093     0.12675     0.97655     0.35959   -0.034722   0.0086887
0.12017     0.11195     0.17345      1.1147     0.28165    -0.11299    0.037629
0.13925     0.15142     0.22081      1.2107     0.17575     -0.1666    0.058348
0.15438     0.18891     0.26981      1.2577    0.055388    -0.20573    0.067885
0.1626     0.21916     0.31717      1.2623   -0.064649    -0.23961    0.068214
0.16128     0.23659     0.35499      1.2416    -0.16956    -0.27381    0.059005
0.14846     0.24251     0.37735      1.2018    -0.24717    -0.30965    0.039931
0.12642     0.23659     0.37801      1.1321    -0.28631    -0.34682    0.014937
0.099785     0.21883     0.35466      1.0163    -0.29716    -0.39516  -0.0093991
0.070187     0.19549     0.31388     0.85322    -0.30242    -0.46652   -0.028802
0.039273     0.17411     0.26718     0.65162    -0.32478    -0.56091   -0.042944
0.010662      0.1626     0.22541      0.4326    -0.37411    -0.65069   -0.055769
-0.010715     0.16457      0.1991     0.21653    -0.44975    -0.68555   -0.071555
-0.023869     0.17806     0.18924    0.021186    -0.53394    -0.62142   -0.088327
-0.028473     0.19614     0.19022    -0.14719    -0.60794    -0.46225     -0.1005
-0.027816     0.20864     0.19516    -0.28631    -0.66023    -0.27381    -0.10247
-0.024527     0.21226     0.20173    -0.40536    -0.68424     -0.1416   -0.096878
-0.016963     0.20535     0.20798    -0.50336    -0.67996    -0.12713   -0.082079
-0.004466     0.19154     0.21226    -0.57702    -0.65398    -0.23599   -0.060045
0.0080309     0.17806      0.2162    -0.62241    -0.61254    -0.42476   -0.033406
0.015924     0.16391     0.21752    -0.64477    -0.56157     -0.6178   -0.012688
0.018884     0.14747     0.22147    -0.64839     -0.5073    -0.74573   0.0011247
0.022501     0.12642     0.23725    -0.63227    -0.44811    -0.75593      0.0054
0.025461    0.098141      0.2777    -0.60103    -0.37115    -0.63063   0.0040845
0.028421    0.064596     0.34676    -0.56354    -0.26098     -0.3922   0.0073732
0.030394    0.034669     0.44016    -0.52342    -0.10674   -0.080763    0.014937
0.031052    0.012306     0.54178    -0.47047    0.086301     0.23659    0.025461
0.032696  0.00046697     0.63091    -0.39352     0.30434     0.49114    0.034998
0.035656  -0.0024928     0.68879    -0.28762     0.52041     0.62367    0.041247
0.038616   0.0017824     0.70326    -0.16956     0.70391     0.62499    0.044864
0.035985   0.0063866     0.67037   -0.062347     0.81836     0.53586    0.043877
0.030723    0.010991      0.5967    0.020857     0.83086      0.4132    0.041904
0.026119    0.013951     0.49179    0.077093     0.72726     0.31914    0.045193
0.023817    0.014608     0.37044     0.10669     0.52402     0.29776    0.051113
0.025132    0.011648      0.2458     0.11327     0.26817     0.35762    0.052757
0.02283   0.0057288     0.12905    0.095839    0.025132      0.4645    0.049797
0.016581  -0.0051238    0.023159     0.05769    -0.15015     0.57467    0.046837
0.0070443   -0.020581   -0.065964   0.0086887    -0.22514     0.64735    0.050126
-0.0041372   -0.038668    -0.12746   -0.036366    -0.20244     0.65524    0.060979
-0.0097279   -0.056098    -0.16232   -0.067609    -0.11201     0.59572    0.073804
-0.0087413   -0.071884    -0.18436   -0.080763 -0.00019077     0.48094    0.084328
0.0001381   -0.085696    -0.20705   -0.083065     0.08663     0.33723    0.088603
0.011977   -0.093589    -0.23665   -0.084052     0.12116     0.19088    0.084986
0.018226   -0.095562    -0.26986   -0.088985     0.10274    0.049797    0.074133
0.012306   -0.095562    -0.30012    -0.09326    0.044535    -0.08471    0.062952
-0.0080836   -0.098193    -0.31985   -0.091287    -0.03242    -0.20244     0.05473
-0.036366    -0.10674    -0.32478    -0.07879    -0.10707    -0.28071    0.045193
-0.063333    -0.11431    -0.31557   -0.057743    -0.16298    -0.31097    0.034998
-0.08175    -0.11661    -0.29157   -0.030118     -0.1883    -0.29453    0.024474
-0.088985    -0.11365    -0.25967  -0.0018351     -0.1735    -0.24026    0.021514
-0.085039     -0.1051     -0.2281    0.024803    -0.11562    -0.15903    0.027763
-0.073528   -0.090958     -0.2008    0.055059   -0.024856   -0.062018     0.04322
-0.062347   -0.077803    -0.17877    0.090248    0.080053    0.050784    0.068871
-0.051494   -0.069253    -0.16134     0.12807      0.1797     0.17542    0.096167
-0.037353   -0.065635    -0.14423     0.16128     0.24942     0.29546      0.1159
-0.020581   -0.063004    -0.12286       0.182     0.26685     0.38162     0.11853
-0.004466   -0.059387   -0.098193     0.18726     0.22771     0.41681      0.1011
0.0030979   -0.054783   -0.070568     0.18069     0.15471     0.40728      0.0692
0.0017824   -0.054783   -0.044917     0.16918    0.083999     0.37538    0.035985
-0.0054526   -0.063662   -0.018278     0.15602    0.045522     0.34019    0.013293
-0.013017   -0.075173    0.010662      0.1353    0.045522     0.30796   0.0057288
-0.011701    -0.08175    0.039602    0.097483    0.081039     0.28099    0.010004
0.0034268   -0.077475    0.067227    0.038616     0.14188      0.2606    0.021843
0.023817   -0.059387    0.090905   -0.036366     0.20765     0.24646    0.039273
0.039602   -0.030775     0.10636    -0.11595     0.26126     0.23659    0.054072
0.048482  -0.0008485     0.10636    -0.19126      0.2948     0.23002    0.062623
0.044864    0.020199     0.08959    -0.26065     0.30533     0.21982     0.06624
0.027763    0.030723    0.053743    -0.32314     0.28757     0.19779    0.066569
-0.00051963    0.033354  -0.0024928    -0.37609     0.24383     0.16589     0.06361
-0.03242    0.029078   -0.074186    -0.41654     0.17871     0.13136    0.057361
-0.059387    0.019541    -0.14851    -0.44416      0.1034    0.098141    0.052099
-0.075501   0.0037556    -0.21363    -0.46784    0.025132    0.059663    0.052428
-0.082736   -0.015976    -0.26131    -0.49185   -0.060045    0.016581    0.053086
-0.085039   -0.032749    -0.29025    -0.51585    -0.15246   -0.016963    0.053086
-0.086354   -0.041957    -0.30242     -0.5346    -0.24651   -0.013345    0.049797
-0.089643   -0.045903    -0.30505    -0.54381    -0.33235    0.035327    0.043877
-0.092931   -0.045903    -0.30374    -0.53394    -0.40272     0.11458    0.032367
-0.092931   -0.043272    -0.30242    -0.49251    -0.45304     0.19779    0.018884
-0.087669    -0.04097    -0.29847     -0.4195    -0.48626     0.26257   0.0063866
-0.077475   -0.038997    -0.28236    -0.32676    -0.50533      0.3027 -0.00051963
-0.0584   -0.038011    -0.25177    -0.24125    -0.51026     0.32703  -0.0024928
-0.026171    -0.03538    -0.21264    -0.18699     -0.4981     0.35696  -0.0024928
0.014279   -0.024856    -0.17252    -0.17646    -0.46883     0.40793 -0.00019077
0.055388  -0.0077547    -0.13733    -0.20672    -0.42246     0.46779    0.002769
0.087288   0.0073732     -0.1097    -0.25967    -0.36359     0.51087   0.0047422
0.10472    0.013293   -0.093918    -0.30571    -0.30374     0.51449   0.0057288
0.11327   0.0090175   -0.095233    -0.31492    -0.25473     0.46253   0.0044134
0.11754  -0.0008485    -0.11266    -0.26789    -0.22349     0.34907  -0.0024928
0.11557  -0.0087413    -0.14029    -0.16364    -0.21461      0.1751   -0.022225
0.10735   -0.011701    -0.16495   -0.016963    -0.22415   -0.037024     -0.0584
0.093208  -0.0084125    -0.17318     0.14846    -0.23665    -0.25638    -0.10181
0.07512   -0.004466    -0.15805     0.30105    -0.23106    -0.45567    -0.13897
0.052428  -0.0024928    -0.12286     0.41747    -0.19192    -0.62405    -0.16265
0.025132   -0.007097    -0.07024     0.48028    -0.11332    -0.77073    -0.17416
-0.007097   -0.020581  -0.0064392     0.48588  -0.0077547    -0.91017    -0.17482
-0.039984   -0.038668    0.059992     0.44707     0.10472     -1.0522    -0.16758
-0.073199   -0.058729     0.11557     0.38491      0.2139     -1.1884    -0.15706
-0.10543   -0.079777     0.14944     0.32309     0.32144     -1.3091    -0.14588
-0.13404   -0.097536     0.15142     0.28132     0.44148     -1.4114    -0.13601
-0.15443    -0.11036     0.11886      0.2708     0.58158     -1.4923    -0.12812
-0.16002    -0.11529    0.058676     0.29612     0.71246     -1.5353    -0.12582
-0.14884    -0.11365  -0.0093991     0.35038     0.78284     -1.5202    -0.12615
-0.12319    -0.10806   -0.070568     0.40958     0.74141     -1.4341    -0.12154
-0.090629    -0.10115    -0.12023     0.45003     0.58059     -1.2775    -0.10477
-0.059058   -0.094576    -0.15772     0.45693     0.34413      -1.067   -0.073857
-0.036037   -0.085039    -0.17745     0.43326     0.10274    -0.82433   -0.034064
-0.022883    -0.06728    -0.17318     0.39083   -0.073199    -0.55828   0.0030979
-0.018607   -0.038997    -0.14456     0.34644    -0.14687    -0.28039    0.030065
-0.022225  -0.0077547   -0.098522     0.30697    -0.12615   -0.021896     0.04026
-0.030447    0.017897   -0.042944     0.27178   -0.058729     0.17773    0.028421
-0.042286    0.033683   0.0083598     0.23002  -0.0015062     0.30007  -0.0064392
-0.057085    0.041904    0.046837     0.16687     0.01132     0.35301   -0.052481
-0.071884    0.048153    0.067227    0.080382   -0.012688     0.36058   -0.095233
-0.079119    0.058348    0.079724   -0.012359   -0.045246     0.34775    -0.12056
-0.078461    0.075778    0.089261   -0.088985   -0.054783     0.32802    -0.12516
-0.071226    0.098798    0.099127    -0.14193   -0.031433     0.29776    -0.11431
-0.059058     0.12215     0.10735    -0.17416    0.021514     0.25074    -0.10115
-0.044588     0.14122     0.11064     -0.1883    0.092221     0.19516   -0.088656
-0.028144     0.15471     0.11031    -0.19159      0.1797     0.14912   -0.073528
-0.0084125     0.16589     0.11097    -0.18863     0.27968     0.13103    -0.05281
0.014608      0.1774     0.11886    -0.17909      0.3836     0.14484   -0.023211
0.040918     0.18693     0.13892    -0.16364     0.47141     0.18496    0.014608
0.069529      0.1945     0.16983    -0.14719     0.51909     0.23857    0.052099
0.098469      0.1968      0.2014      -0.137     0.50692     0.29941    0.082684
0.12149     0.19022     0.22837    -0.13371      0.4395     0.35433     0.10176
0.13201     0.18069     0.24482    -0.13996     0.32966     0.38689     0.10274
0.12905     0.16819     0.24383    -0.15509      0.1968     0.38294    0.089261
0.11919     0.15799     0.21818    -0.18238    0.064267      0.3438    0.073147
0.10866     0.14616     0.16622    -0.22678    -0.05281     0.28527    0.065583
0.097812      0.1353     0.09255    -0.28631    -0.15147     0.22804    0.068543
0.085644     0.12577    0.010662    -0.35142    -0.22415     0.19121     0.07808
0.073804     0.11952   -0.060702    -0.40634    -0.27545     0.17542     0.09255
0.065254     0.11689    -0.10313    -0.43561    -0.30965     0.17148     0.10307
0.058019     0.11261    -0.11036    -0.43068    -0.33333     0.16326     0.10603
0.04881     0.10932   -0.081421    -0.39253    -0.35339     0.13629     0.10242
0.035985     0.10965   -0.028802     -0.3307    -0.37313    0.079724    0.095839
0.028092     0.11524    0.031052    -0.25408    -0.39023  -0.0041372    0.091563
0.030723     0.12544     0.08663     -0.1666    -0.39779    -0.10641     0.09551
0.049797     0.13662     0.13267   -0.070568    -0.38497    -0.20771     0.11097
0.082355     0.14418     0.16918    0.028092    -0.34386    -0.28203     0.13169
0.11491     0.14352     0.19483     0.11426    -0.27677    -0.30965      0.1478
0.13563     0.13662     0.21094     0.17345    -0.19718    -0.27808     0.15306
0.14188     0.12511     0.21653     0.20206    -0.11825     -0.1814      0.1432
0.13892     0.11031     0.21522     0.21522    -0.04393    -0.02946     0.12313
0.13169    0.090577     0.21061     0.22936    0.020528     0.15701    0.098469
0.12215    0.068543     0.20568     0.24975    0.064925     0.34611    0.072489
0.11195    0.051441     0.19647     0.27277    0.085315     0.49936    0.047495
0.10274    0.039931     0.18266     0.28691    0.083342     0.58092    0.027105
0.089261    0.032696     0.16983     0.28296    0.071173     0.56941    0.015266
0.072818    0.020857     0.15668     0.26586    0.059334     0.47864   0.0070443
0.053086  -0.0015062     0.14714     0.25337    0.052428     0.35137   0.0080309
0.029078   -0.030118     0.14616     0.26685    0.044864     0.23396    0.018555
0.00046697   -0.059387     0.14813     0.31322    0.027763     0.16852    0.041904
-0.028144   -0.081092     0.14583      0.3859  -0.0057815     0.20108    0.074791
-0.055112   -0.089314     0.13103     0.46154   -0.056756     0.33229     0.11064
-0.075501   -0.085039     0.10406     0.51416    -0.11793      0.5112     0.13728
-0.085696   -0.080763    0.065583     0.52633    -0.17745     0.68583     0.14681
-0.087669   -0.085696    0.017568     0.49607    -0.22316     0.81606     0.14484
-0.08471   -0.094905    -0.04097      0.4303    -0.24585     0.88249     0.13958
-0.077803    -0.10444    -0.10444     0.33164    -0.24585     0.89005     0.13695
-0.066293    -0.11135    -0.16397     0.21028    -0.23434     0.85519     0.13596
-0.051165    -0.11168    -0.20573    0.083342    -0.21955     0.78909     0.13629
-0.033735    -0.10214    -0.22185   -0.019923    -0.20442     0.69569     0.13793
-0.01499   -0.083394    -0.21099    -0.07287    -0.18469     0.56908     0.13793
0.0040845   -0.060045    -0.17679   -0.061031    -0.15213     0.41385     0.13826
0.020857   -0.036695    -0.12746    0.017239    -0.10115     0.26718     0.14122
0.035985   -0.016963   -0.070568     0.15372   -0.031433     0.19483      0.1455
0.049139  -0.0015062   -0.020581     0.33328    0.054401     0.24745     0.14714
0.05769    0.010004    0.014937     0.53093     0.14879     0.41813      0.1432
0.056374    0.016253    0.035327       0.722     0.24087     0.63847     0.12708
0.045193    0.019212    0.038616     0.88644      0.3198     0.80389    0.094852
0.029407    0.020857    0.026447      1.0137     0.37274     0.81573    0.053743
0.013293    0.021843   0.0073732      1.1071     0.39445     0.63946    0.013293
0.0024402    0.024145  -0.0034794      1.1712      0.3882     0.31223   -0.020581
0.0017824    0.029407      0.0054      1.2068     0.36189    -0.08175   -0.040313
0.012306    0.036642    0.033025      1.2008     0.32868    -0.45107   -0.049521
0.026119    0.042233    0.069529      1.1226     0.29645    -0.73061   -0.055769
0.032696    0.039273    0.096825     0.95155     0.26652    -0.90688   -0.068266
0.022501    0.023817     0.10044     0.69372     0.23331     -1.0072   -0.093918
0.0001381   -0.002164     0.07512     0.38458     0.19121     -1.0687    -0.13075
-0.027158   -0.032091    0.027105    0.072818     0.13464     -1.1104    -0.17482
-0.050507   -0.057414    -0.03242    -0.19817    0.074133     -1.1345    -0.20902
-0.063662   -0.071884   -0.097207    -0.40305    0.021186     -1.1423    -0.22415
-0.061689   -0.076488    -0.16134    -0.53756   -0.020252     -1.1509     -0.2156
-0.042944   -0.074186    -0.21856    -0.61945   -0.060373     -1.1854    -0.18633
-0.016634    -0.07287    -0.26493    -0.67733    -0.10641     -1.2617    -0.14325
0.0067154   -0.077803     -0.2965    -0.73357     -0.1564     -1.3693   -0.098522
0.015924   -0.088656    -0.31853    -0.79079    -0.20475     -1.4719   -0.062347
0.0093464    -0.10247    -0.33892    -0.83913     -0.2452     -1.5011   -0.032749
-0.0061104    -0.11858    -0.36063     -0.8707    -0.27085     -1.3778   -0.004466
-0.022554    -0.13503    -0.38168    -0.88287    -0.27216     -1.0637    0.029736
-0.033078    -0.15279    -0.39516     -0.8809    -0.24059    -0.59544    0.072489
-0.034722     -0.1689    -0.38891    -0.86741    -0.17844    -0.06728     0.11886
-0.033078    -0.18403    -0.36326    -0.84801   -0.093918     0.40399     0.15734
-0.031104     -0.1985    -0.32149    -0.82499   0.0063866     0.73647     0.18529
-0.028802    -0.20738     -0.2669    -0.80559     0.10735      0.9134     0.20535
-0.022225    -0.21001    -0.20179     -0.7852     0.19055     0.98115     0.21818
-0.016963    -0.20508    -0.13404     -0.7579     0.24646      1.0147     0.22048
-0.014332    -0.19192   -0.071226    -0.72271     0.27639      1.0864     0.20963
-0.01499     -0.1689   -0.019594    -0.68358     0.29776      1.2304     0.19088
-0.01203     -0.1347    0.016581    -0.64247     0.33591      1.4409     0.17049
-0.00019077   -0.092274     0.03434    -0.60004     0.41221      1.6764     0.15602
0.018884   -0.042615     0.03434    -0.56025      0.5283      1.8753      0.1432
0.040918    0.010004    0.025132    -0.52737     0.66182      1.9717     0.12675
0.065254    0.059005   0.0073732    -0.50336     0.76739       1.924    0.099456
0.090905    0.095839   -0.014661    -0.47606     0.79896       1.727    0.062623
0.11261      0.1182   -0.034393    -0.43265     0.73055      1.4245    0.021186
0.12248     0.12708   -0.046561     -0.3626     0.57204      1.0857   -0.015648
0.11557     0.12511   -0.047548    -0.26065     0.36091     0.77429   -0.045246
0.096825     0.11327   -0.033078    -0.11891     0.15635     0.52633   -0.066951
0.0692    0.095181  -0.0051238    0.056703   0.0090175     0.35137   -0.081421
0.039602    0.077422    0.036971     0.25172   -0.053138     0.24383   -0.085367
0.01691    0.067227    0.092221     0.44477   -0.045574     0.18759   -0.083065
0.0057288    0.067885     0.16095     0.60854  -0.0093991     0.15898   -0.084052
0.0037556    0.077093     0.23725      0.7174   0.0090175     0.12445   -0.096549
0.0070443    0.089919     0.31815     0.76673   -0.019265    0.050126    -0.12615
0.012964     0.10176     0.40399       0.771   -0.095891    -0.07879    -0.16495
0.015924     0.11393     0.49443      0.7516    -0.19883    -0.25243    -0.20376
0.019212     0.12741     0.58519     0.72069    -0.29913    -0.44186    -0.23204
0.019541     0.13826     0.66511     0.67596    -0.37806     -0.6303    -0.24487
0.017897      0.1432     0.71904     0.60197    -0.43232    -0.80033    -0.24585
0.013622     0.14681     0.73154     0.49541    -0.46455    -0.94305     -0.2373
0.0073732     0.15076     0.70063     0.37373    -0.47804     -1.0489    -0.22645
-0.0024928     0.16063     0.63551     0.25863    -0.47738      -1.118     -0.2156
-0.01499     0.17246     0.55033     0.16293     -0.4662     -1.1522    -0.20968
-0.030775     0.17773     0.46187    0.093536    -0.44186     -1.1512    -0.20442
-0.045903     0.17575     0.38327     0.04881    -0.40766     -1.1131    -0.19225
-0.055769     0.17411     0.32276    0.021186    -0.37378      -1.042    -0.17054
-0.061689      0.1774        0.28   0.0021113    -0.35307    -0.95555    -0.13996
-0.062018     0.19121     0.25008    -0.01795    -0.34747    -0.86709     -0.1074
-0.051494     0.21028     0.22475   -0.037353    -0.35274    -0.79145   -0.076488
-0.030447     0.22278     0.19088   -0.055769    -0.36326    -0.73883    -0.04689
-0.0034794      0.2162     0.14418   -0.073857    -0.37839    -0.71285   -0.020252
0.02283     0.19187    0.085315   -0.089643    -0.39352    -0.71153   -0.002164
0.038944     0.15668    0.013622     -0.1028    -0.40996    -0.72633   0.0040845
0.040589      0.1182   -0.062018    -0.10674    -0.42015    -0.73948  -0.0054526
0.027105    0.081697    -0.13141   -0.097536    -0.41128    -0.73192   -0.022883
0.0017824    0.050455    -0.18666   -0.069911    -0.37181     -0.6964   -0.038339
-0.027487    0.024474    -0.22711   -0.027487    -0.30867    -0.64082   -0.040641
-0.054125   0.0067154    -0.25276    0.017568    -0.23467    -0.57801   -0.027487
-0.072213  -0.0074258    -0.26789    0.049797    -0.16364    -0.51454  -0.0028217
-0.080106   -0.018936    -0.27611    0.064596   -0.094247    -0.44054    0.024145
-0.081421   -0.027158    -0.28006     0.06624   -0.023869    -0.33695    0.045522
-0.080106   -0.031433    -0.28302    0.059005    0.046508    -0.19389     0.06065
-0.081092   -0.035051    -0.28631    0.042562     0.11426   -0.019923    0.069529
-0.086025   -0.040313    -0.28861    0.018884     0.17641     0.15043    0.077422
-0.092603   -0.049192    -0.28663   -0.010386     0.23298     0.28165    0.084328
-0.096549   -0.057414    -0.27677   -0.044588     0.28592     0.35499     0.08959
-0.094576   -0.065635       -0.26   -0.080434     0.33427     0.36814    0.087946
-0.083065   -0.071555    -0.24224    -0.11069     0.37735     0.33197    0.079066
-0.061031   -0.077146    -0.22119    -0.12549     0.41747      0.2708    0.061307
-0.031433   -0.078461    -0.19455    -0.11825     0.45891     0.21752    0.040918
-0.0061104   -0.077146     -0.1643   -0.091616     0.50396     0.20239    0.030065
0.013951   -0.069253    -0.13733   -0.057743     0.55855     0.23824    0.031381
0.032367   -0.059716    -0.11727   -0.033406      0.6217     0.31782    0.045193
0.053086   -0.055112    -0.10543   -0.029789     0.68517     0.42076    0.063938
0.070516    -0.05544     -0.1005   -0.049521     0.73154     0.51317    0.087617
0.082684   -0.059716   -0.097207   -0.083723      0.7368     0.56382     0.11261
0.083999   -0.065635   -0.096549    -0.12253     0.69142     0.56217       0.133
0.070845   -0.071555   -0.098193    -0.15805     0.60032     0.50922     0.13728
0.049139   -0.076159     -0.1005    -0.18929     0.47305     0.42175     0.12511
0.028092   -0.078132   -0.097864    -0.21428     0.32506     0.32276     0.10472
0.011977   -0.073528   -0.086354    -0.23665      0.1751     0.22607    0.083999
0.0037556   -0.054454   -0.069582    -0.26427    0.044206     0.13596    0.069529
-0.00019077   -0.025514    -0.05281    -0.30275    -0.06432    0.052757    0.062623
-0.002164   0.0021113   -0.042286    -0.34649    -0.15443   -0.024856    0.062294
-0.00051963    0.017239   -0.047548    -0.36951    -0.23204    -0.10346    0.059992
0.0070443    0.016581    -0.06728    -0.35011    -0.29782    -0.19258    0.053086
0.018555   0.0070443    -0.09326    -0.29058    -0.34517    -0.29255    0.044206
0.029407   -0.002164    -0.11529    -0.21659    -0.37346    -0.38793     0.03434
0.03434  -0.0067681    -0.13141    -0.15969    -0.38595    -0.46389    0.021843
0.033683   -0.010715    -0.14489     -0.1347    -0.38924    -0.51191  0.00079584
0.029736   -0.016305    -0.15673    -0.14193    -0.38793    -0.52506   -0.024198
0.027763   -0.020909    -0.16726     -0.1689    -0.38135    -0.48955   -0.043272
0.030065   -0.019923    -0.17548    -0.19324    -0.36425     -0.3876   -0.051165
0.040918   -0.014003    -0.18107    -0.20014    -0.33136    -0.21757   -0.042286
0.053743  -0.0047949    -0.18633    -0.18238    -0.28861   -0.012359   -0.019594
0.062294   0.0030979    -0.19389    -0.14851    -0.24849     0.17904    0.010991
0.062623   0.0044134    -0.20508    -0.10872    -0.21922     0.31881    0.040918
0.052099   0.0017824    -0.22349   -0.074515    -0.19883      0.3882    0.058019
0.035327  -0.0041372    -0.24651   -0.059716    -0.18008     0.38952    0.062952
0.016253   -0.012688    -0.27381   -0.068266    -0.15279     0.33854    0.059334
-0.0008485   -0.025185    -0.29749   -0.090629    -0.11168     0.25665    0.049139
-0.010386   -0.038668    -0.31557    -0.11365   -0.056756     0.16556    0.033354
-0.011701   -0.050836    -0.32676    -0.12286    0.011648    0.088603    0.016581
-0.0090702   -0.056098     -0.3284    -0.10937    0.082684    0.049139   0.0070443
-0.0054526   -0.052152    -0.31821   -0.068924     0.13695    0.060321   0.0057288
-0.00051963   -0.041299    -0.29387   -0.004466     0.14912      0.1159    0.015595
0.0034268   -0.030118    -0.25539    0.076764     0.10274     0.18989    0.035656
0.0073732   -0.020909    -0.20277     0.17049    0.015266     0.24186     0.05769
0.0096753   -0.010715    -0.13963     0.26882   -0.062676     0.22804    0.080382
0.011977   0.0040845    -0.06728     0.36222   -0.077475     0.13267     0.09551
0.01132    0.021843    0.013293     0.43786   -0.014003   -0.033735    0.097154
0.010991    0.041904     0.10274     0.49147    0.094523    -0.22415    0.083013
0.013622    0.064267     0.19417     0.52139     0.18858    -0.38727    0.059992
0.023488    0.086959     0.28329     0.52994      0.2116    -0.48724    0.032367
0.040918     0.10406     0.36452     0.51383     0.14287    -0.51026    0.010333
0.059334     0.11228      0.4326      0.4691   0.0060577    -0.45765 -0.00051963
0.067885     0.11853     0.48357      0.3984     -0.1587    -0.34879   0.0024402
0.06361     0.12708     0.51087     0.30927    -0.30374    -0.21297     0.01691
0.051113     0.13596     0.51021     0.21094     -0.3968   -0.073857    0.035656
0.038616     0.14254     0.48127      0.1182    -0.42509    0.049139    0.046837
0.031052     0.14385      0.4303    0.044864     -0.3968     0.13826    0.048153
0.029736     0.14287     0.36715   0.0034268    -0.33268     0.18036    0.040918
0.033354     0.14056     0.31026  -0.0024928       -0.26     0.17148    0.033683
0.037629     0.13793      0.2708    0.018555    -0.19718     0.12412    0.027434
0.040918     0.13366     0.24613     0.05177    -0.15279    0.067885    0.017239
0.047824     0.13037     0.23626    0.083999    -0.13009    0.040589      0.0054
0.054401     0.13037     0.23857     0.10932    -0.11957    0.082026  -0.0041372
0.053415       0.133     0.25008     0.12971    -0.11694     0.20601   -0.013674
0.04322     0.13201     0.26751     0.15306    -0.11595     0.40826   -0.022554
0.028421     0.12248     0.28855     0.17806    -0.12023     0.68122   -0.028802
0.011977    0.098798      0.3096     0.19845    -0.13305     0.99332   -0.029789
-0.0064392    0.061965      0.3244     0.21324    -0.14752      1.2761   -0.027487
-0.026171    0.018884      0.3267     0.22278    -0.16232      1.4557   -0.022883
-0.042944   -0.019923     0.31125     0.23495    -0.18074      1.4787   -0.017292
-0.053138   -0.048534     0.27606     0.26159    -0.20376      1.3278   -0.010057
-0.059716   -0.069253     0.22607     0.31618    -0.21823      1.0302  -0.0018351
-0.062347   -0.080106     0.17246     0.39905    -0.19488     0.64866   0.0080309
-0.062018   -0.081092     0.12116     0.50495    -0.10806     0.25863    0.016581
-0.06432   -0.078132    0.073147     0.62038    0.052757    -0.07879     0.02283
-0.071555   -0.073199    0.026776     0.73121      0.2629    -0.34287    0.026776
-0.077803   -0.069582   -0.016305     0.81737     0.48226     -0.5369    0.029407
-0.075501   -0.066951   -0.049521     0.86046     0.66741    -0.66779    0.033683
-0.06728   -0.060045   -0.064978     0.84894     0.78054    -0.73948      0.0373
-0.04985    -0.04393   -0.064978     0.78449     0.79896    -0.77402      0.0373
-0.026171   -0.016963   -0.055112     0.67958     0.72398        -0.8    0.034669
-0.00019077    0.019212    -0.04097     0.55132     0.58388    -0.83814    0.027434
0.023817    0.056703   -0.025842     0.41648     0.42175    -0.88583    0.017897
0.041575    0.083342   -0.011372     0.28329     0.27836    -0.92332    0.010004
0.055059    0.092221   0.0034268     0.15734     0.17641    -0.93681      0.0054
0.06624    0.083342     0.02283    0.046837     0.10965    -0.93286   0.0030979
0.067885    0.062952     0.05177   -0.047548    0.059992    -0.93121  -0.0015062
0.055388    0.039602    0.077422    -0.12878    0.011977    -0.94799  -0.0087413
0.030394    0.017897    0.083013    -0.20146   -0.039984     -0.9812   -0.016305
-0.0031506   -0.004466    0.052757    -0.26822   -0.091616     -1.0092   -0.021567
-0.039326   -0.029131  -0.0087413    -0.32807    -0.13963     -1.0049   -0.022883
-0.071884   -0.057414   -0.089972    -0.38069    -0.18666    -0.94042   -0.020581
-0.097207   -0.089972    -0.17383    -0.43101    -0.23467    -0.80526   -0.020581
-0.11595    -0.12187    -0.25046    -0.48099    -0.28269      -0.603   -0.022225
-0.12944    -0.14687    -0.31656    -0.53197    -0.32084    -0.35537   -0.020252
-0.13799    -0.16232    -0.37115    -0.57801    -0.34156   -0.098522    -0.01203
-0.14325    -0.17252    -0.41522    -0.61484    -0.34715     0.13859   0.0014536
-0.14588    -0.17712    -0.44909     -0.6405     -0.3386     0.35499    0.018884
-0.14884    -0.17548    -0.46817     -0.6497    -0.31557     0.57171    0.039273
-0.14818    -0.16594    -0.47047    -0.63984     -0.2794     0.80685    0.061636
-0.14358    -0.15114    -0.46291    -0.61517    -0.22875      1.0519    0.084657
-0.12976    -0.13536    -0.44712    -0.57768    -0.16166      1.2837     0.10702
-0.10576    -0.12089    -0.42509    -0.53427   -0.087669      1.4728     0.12511
-0.074844    -0.10773    -0.39976    -0.49448   -0.018278      1.6017     0.13826
-0.042286    -0.09622    -0.37148    -0.45797    0.039602      1.6905     0.14254
-0.011372   -0.088656    -0.34484    -0.42147    0.085972      1.7757     0.14484
0.017897   -0.083065    -0.32281    -0.38069     0.12281      1.8701     0.14714
0.043549    -0.07287    -0.30078    -0.33498     0.15569      1.9398     0.14714
0.062294   -0.056756    -0.27348    -0.28894     0.18858      1.9316     0.13892
0.073476   -0.037024    -0.23895    -0.24355     0.23002       1.803     0.12215
0.080053   -0.019923    -0.19916    -0.20113      0.2902      1.5475     0.10044
0.077093   -0.007097    -0.15213    -0.15805     0.38426      1.1923    0.078409
0.067556   0.0044134   -0.091616    -0.10773     0.52271     0.79731     0.06361
0.059005    0.019541   -0.013674   -0.044917     0.70589     0.43753    0.059005
0.060321     0.04026    0.081697     0.02283     0.90354     0.17279    0.061307
0.073804    0.064925     0.18989    0.084986      1.0528    0.019212    0.066898
0.094194     0.09551       0.305     0.13958      1.0916   -0.046561    0.076764
0.11623     0.12741     0.41747     0.19253     0.98411   -0.071884    0.085644
0.13662     0.15569     0.51646     0.25172      0.7493   -0.090958    0.087288
0.15339     0.17674      0.5921     0.31421     0.45167    -0.11299    0.080053
0.1626     0.18628     0.62827     0.36387      0.1751    -0.12615    0.064596
0.16391     0.18266     0.61644     0.38162    -0.01795    -0.12878    0.039602
0.15175      0.1672      0.5579     0.35696    -0.11727    -0.13075   0.0060577
0.12577     0.14418     0.46647     0.30335    -0.16693    -0.15575   -0.028473
0.092221     0.12017     0.36748     0.24449    -0.21363    -0.21527    -0.05544
0.058676     0.10143     0.28823     0.20634    -0.28499    -0.30637   -0.073857
0.034011    0.089919      0.2458     0.19746    -0.37905    -0.40437    -0.08471
0.017897    0.087288     0.24613     0.20864    -0.47573     -0.4879   -0.088656
0.0060577    0.091234     0.27803     0.22377    -0.55302    -0.55335   -0.091945
-0.0028217    0.096496     0.32703     0.23002    -0.59478    -0.62011    -0.09918
-0.0090702     0.10209     0.38162     0.22607    -0.59972     -0.7135    -0.10937
-0.010386     0.10998     0.43918     0.22903    -0.57538    -0.84374    -0.11727
-0.0080836     0.12313     0.49739       0.256    -0.53723    -0.99436    -0.12121
0.0017824     0.14221     0.55658     0.31158    -0.50138     -1.1387    -0.12056
0.020857     0.16227     0.61117     0.39182    -0.46817     -1.2667    -0.11694
0.045851     0.17477      0.6457      0.4816    -0.43989     -1.3758     -0.1097
0.068871     0.17444     0.64307     0.55066    -0.41884     -1.4584     -0.1051
0.084657     0.15898     0.59276     0.57237    -0.39944     -1.4827    -0.10247
0.091892     0.13136     0.49311     0.53915    -0.37346     -1.4048   -0.099838
0.09255    0.098141     0.35959     0.45463    -0.33399     -1.2022   -0.096878
0.086301    0.066569     0.21324     0.33427    -0.27907    -0.90523   -0.095233
0.071831     0.04026    0.076764     0.19877    -0.21757    -0.59018    -0.09326
0.053086    0.022172   -0.033735    0.070516    -0.15969    -0.34945    -0.09622
0.0373    0.011977    -0.10674   -0.033078    -0.10937    -0.23928    -0.10543
0.028421   0.0057288    -0.14292    -0.10609   -0.069911    -0.26164    -0.12023
0.023159  -0.0008485    -0.15213    -0.14654   -0.038997    -0.37148    -0.13996
0.014937   -0.010386    -0.14358    -0.16035  -0.0074258    -0.50073    -0.16232
0.0001381   -0.022554    -0.12845    -0.15706    0.028092    -0.58919    -0.18238
-0.019594   -0.036037    -0.11497    -0.14522    0.073476    -0.61024    -0.19028
-0.038997   -0.054454    -0.10543    -0.12944     0.13103    -0.57143    -0.18534
-0.054783   -0.076488    -0.10247    -0.11168     0.20206    -0.49645    -0.17054
-0.06728   -0.094576     -0.1028   -0.088656     0.28658      -0.407    -0.14884
-0.072542    -0.10115    -0.10247   -0.062018     0.37274     -0.3136    -0.12089
-0.06728   -0.091616     -0.1005   -0.039326     0.45003    -0.21428   -0.091945
-0.053467   -0.067937   -0.099509    -0.02946     0.51646    -0.10082   -0.063662
-0.031762   -0.035708   -0.098193   -0.033735     0.57664    0.027105    -0.03538
-0.0077547  -0.0008485    -0.09326    -0.05281     0.63058     0.15668  -0.0041372
0.014937    0.027434     -0.0903   -0.085039     0.67267     0.26849     0.02875
0.02579    0.045522    -0.10017    -0.13009     0.69668     0.35005    0.059005
0.027763    0.055388    -0.13108    -0.18534     0.69503     0.39544    0.083013
0.024145    0.062294    -0.18633    -0.25177     0.65393      0.4076    0.096496
0.016581    0.067227    -0.25737    -0.32281     0.57204     0.40037     0.10011
0.0060577    0.067227    -0.32577    -0.39187     0.46055     0.39478    0.096496
-0.004466    0.060321    -0.37674    -0.45041     0.33788     0.40991    0.091892
-0.014003     0.04322    -0.40174    -0.49218     0.22048     0.44838    0.093208
-0.020909    0.017897    -0.40996    -0.51421      0.1159     0.49508     0.10274
-0.027158  -0.0097279      -0.407    -0.52112    0.019212     0.52501      0.1136
-0.037024   -0.031104    -0.40338    -0.51585   -0.069582     0.51613     0.12544
-0.049521   -0.043601    -0.39976    -0.50369    -0.14752     0.47305     0.13892
-0.059716   -0.043601    -0.38957     -0.4856     -0.2156     0.41616     0.14879
-0.062676    -0.03242    -0.36293    -0.46422    -0.26822     0.37209     0.15306
-0.060045   -0.018278    -0.31097    -0.44054    -0.30538     0.37011     0.15832
-0.055112  -0.0064392    -0.24224     -0.4116     -0.3284     0.42898      0.1672
-0.049192  -0.0077547    -0.16758    -0.37674     -0.3307     0.54211      0.1797
-0.04393   -0.019265    -0.10148    -0.33991    -0.30176     0.69405     0.19022
-0.034722   -0.033078   -0.057743    -0.30439    -0.23796     0.86013     0.19384
-0.021567   -0.044259   -0.051165    -0.27052    -0.14489      1.0081     0.19285
-0.0057815   -0.049521   -0.086025    -0.24289   -0.040313      1.1002     0.18759
0.0070443   -0.046232    -0.15607    -0.22316    0.059334       1.116     0.18102
0.015266   -0.036695    -0.24585    -0.21165     0.13958      1.0558     0.17115
0.023159   -0.026171      -0.333    -0.20738     0.18858     0.94103     0.15602
0.032038   -0.018936    -0.40305    -0.20146     0.20108     0.80784     0.13958
0.039602   -0.020909    -0.44679    -0.19356     0.17378     0.68681     0.12215
0.044206   -0.032091    -0.45633    -0.18501     0.10998     0.58947     0.10603
0.044206   -0.048205    -0.43462    -0.17778    0.017239     0.51514    0.094852
0.04026   -0.060702    -0.39121    -0.17548   -0.087998     0.45529    0.088603
0.032696   -0.067937     -0.3455    -0.17416     -0.1837     0.40136    0.084986
0.026776   -0.074186    -0.31294     -0.1643     -0.2498     0.35038    0.082026
0.024145   -0.079119    -0.30505    -0.14062    -0.28006     0.30138    0.079395
0.024803   -0.080434    -0.31788    -0.10313    -0.27841     0.25698    0.077422
0.029078   -0.076488    -0.33629   -0.051823    -0.25145      0.2093    0.077422
0.039273   -0.063004    -0.33695    0.014279     -0.2133     0.15668    0.081039
0.056703   -0.043272    -0.30604    0.098141    -0.17909     0.10011    0.086301
0.076435   -0.022225    -0.24191      0.1991    -0.15575    0.045851    0.092221
0.090905   -0.007097    -0.16035     0.30862    -0.14259  -0.0028217    0.094194
0.094852  -0.0011774   -0.077475     0.41484    -0.13404   -0.045574    0.089261
0.094194  -0.0011774  -0.0018351     0.50659    -0.12878   -0.087012    0.074133
0.095181   -0.004466    0.059992     0.57796    -0.12582    -0.12089    0.053415
0.09551  -0.0074258     0.10669     0.62795    -0.12648    -0.13207    0.031709
0.091563   -0.010057     0.13793     0.66215    -0.13667    -0.10707    0.012306
0.074791   -0.010715     0.15668     0.68747    -0.15509   -0.041957   -0.007097
0.041247  -0.0087413     0.16687     0.70819    -0.17942    0.053743   -0.033078
0.0011247    0.002769     0.17246     0.72332    -0.19948     0.15175   -0.065964
-0.02946    0.021514      0.1797     0.72693     -0.2031     0.22278    -0.10115
-0.039655    0.048153     0.18957     0.71806    -0.18534     0.24284    -0.12483
-0.031433    0.076106     0.19253     0.68813    -0.15015     0.20568     -0.1324
-0.011372    0.097154     0.18989     0.63123    -0.10905     0.11656    -0.12516
0.011977     0.10932     0.18233     0.55132   -0.075501   -0.012359     -0.1097
0.030394     0.11097      0.1695     0.46779   -0.060045    -0.17087   -0.092931
0.034669     0.10209     0.15109       0.403   -0.066951    -0.34879   -0.081421
0.027763    0.086959      0.1307     0.36979   -0.089643    -0.52375    -0.07287
0.016581    0.072489     0.10702     0.36058    -0.12154    -0.67272   -0.069911
0.0070443    0.059992    0.075778     0.35531    -0.15311    -0.79605   -0.074515
-0.00019077    0.049139    0.038944     0.33032    -0.18238    -0.91543   -0.082736
-0.0011774    0.041575   0.0037556     0.27244    -0.21264     -1.0483   -0.088985
0.0024402    0.038616   -0.018607     0.17904    -0.24224      -1.194   -0.091616
0.0060577    0.037958   -0.027158    0.055388    -0.26263     -1.3357   -0.093589
0.0030979    0.038944   -0.025514   -0.085367    -0.26657     -1.4449   -0.093918
-0.0074258    0.040918   -0.021567    -0.21823    -0.24816      -1.489   -0.089972
-0.02354    0.040918   -0.015319    -0.32149    -0.20113     -1.4367   -0.075173
-0.041628    0.035985   -0.002164    -0.38858    -0.12516     -1.2755   -0.048534
-0.053467    0.023159    0.022172     -0.4264   -0.021896     -1.0223   -0.016963
-0.05544      0.0054    0.059334    -0.45173    0.088275    -0.70758    0.011648
-0.048205    -0.01499     0.11031    -0.48395     0.17641    -0.36819    0.033025
-0.037353   -0.030447      0.1774    -0.52802     0.21785    -0.04393    0.046508
-0.028473   -0.035708      0.2606    -0.57702     0.21028     0.22673    0.050784
-0.022554   -0.028144     0.35564    -0.61616     0.15898     0.40991    0.046837
-0.022225   -0.011043     0.44904    -0.63622     0.08663     0.48851    0.036971
-0.028144   0.0047422     0.52567    -0.63819    0.014279      0.4622    0.029078
-0.036037    0.017568     0.56776    -0.62405   -0.042944     0.36058     0.02875
-0.043272    0.027434     0.56513    -0.59544   -0.077146     0.23594    0.033683
-0.049192     0.04026     0.51778    -0.55039   -0.089643     0.14089    0.038287
-0.054783    0.052428     0.42964    -0.48165   -0.083065    0.090577    0.036314
-0.059058    0.055388     0.31486    -0.37937   -0.058071    0.082026    0.024474
-0.0584    0.044535     0.19351    -0.24388   -0.012688     0.11393   0.0086887
-0.04985     0.02283    0.085972   -0.086683    0.052757     0.17477 -0.00051963
-0.031104 -0.00019077   0.0073732    0.068543     0.13399     0.24975    0.002769
-0.0051238   -0.016963   -0.033735     0.19154     0.22673     0.32703    0.015266
0.021843   -0.022554   -0.044259     0.25238      0.3175     0.39708    0.034998
0.043877    -0.01795   -0.038339     0.24317     0.39478     0.44937    0.058348
0.055059  -0.0080836    -0.02946     0.17542     0.44674     0.47305    0.083013
0.058019  -0.0011774   -0.023869    0.078409     0.47173     0.46417     0.10274
0.06065   -0.002164   -0.023869   -0.010386     0.47272     0.42405     0.11426
0.062294  -0.0087413   -0.019265   -0.057085     0.45661     0.35499     0.11557
0.056046   -0.018278  -0.0051238   -0.046232      0.4326     0.26126     0.10472
0.038616   -0.032749    0.019541    0.018226     0.40267     0.14747    0.082355
0.0086887   -0.047548    0.053086     0.10998     0.36387    0.019212    0.050455
-0.031433   -0.060702    0.085315     0.19746     0.31289    -0.11431    0.015924
-0.07287   -0.066622     0.10538     0.25468     0.25567    -0.23994   -0.016305
-0.10247   -0.055112     0.10965     0.28033     0.20404    -0.35372    -0.04689
-0.10773   -0.024856     0.10768     0.28264     0.16589    -0.46061    -0.08175
-0.085367    0.015924     0.10044     0.28461     0.14155    -0.56025    -0.11891
-0.046561    0.054072    0.089261     0.30467     0.12412    -0.64411     -0.1495
-0.0074258    0.077751    0.070516      0.3517     0.11097    -0.69048    -0.16693
0.025461     0.08367    0.042233     0.42438     0.10702    -0.68325    -0.17482
0.046837    0.072818   0.0063866     0.51317     0.11524    -0.62866    -0.17877
0.053415    0.050126   -0.032091     0.60493      0.1284    -0.55137    -0.18337
0.042562    0.021514   -0.066622     0.68846     0.14188    -0.47804    -0.18403
0.018226  -0.0087413   -0.091616      0.7539     0.15142    -0.42542     -0.1814
-0.01203   -0.033078    -0.10641     0.79008     0.16194    -0.40141    -0.17909
-0.038997   -0.048534    -0.11529     0.78942     0.17312    -0.40733    -0.17712
-0.0584    -0.05281    -0.12352      0.7493     0.17148    -0.43824    -0.17778
-0.070568   -0.048534    -0.13305     0.67267     0.14385    -0.48593    -0.17778
-0.075501   -0.041628    -0.14325     0.57105    0.079724    -0.54249    -0.17909
-0.074186   -0.037353    -0.14818     0.46384   -0.021238    -0.60103    -0.17975
-0.073857   -0.039326    -0.13799     0.37768    -0.14292    -0.65365    -0.17975
-0.073199   -0.046232    -0.10674     0.32769     -0.2623    -0.68884    -0.17548
-0.066951   -0.052152   -0.054783     0.31158    -0.35734    -0.69772    -0.15936
-0.053138   -0.051165    0.010662     0.31355    -0.41621    -0.67174    -0.13009
-0.033406   -0.039326    0.081697     0.30697    -0.43561     -0.6132     -0.0903
-0.011701   -0.017621     0.15339     0.27211    -0.41687    -0.54545   -0.044588
0.0073732   0.0096753     0.21785     0.21259    -0.36162    -0.50007  -0.0034794
0.022172    0.040589     0.26751     0.15142    -0.26394    -0.48922    0.031381
0.029078     0.07216     0.29349     0.11689    -0.12187    -0.48757    0.055059
0.030065    0.097483     0.29513     0.11426    0.052757    -0.42805      0.0692
0.030723     0.11195     0.27507     0.12149     0.22771    -0.22218     0.07512
0.031052     0.11952     0.23429     0.11228     0.36584     0.18036    0.082026
0.032367      0.1182     0.17575    0.076435     0.43161      0.7493    0.099785
0.033025     0.10998     0.11064    0.012635     0.41616      1.3949     0.13464
0.032696     0.09551    0.053415   -0.070897     0.32966      2.0098     0.18332
0.032367    0.078409    0.013951    -0.16199     0.20272      2.4982     0.23955
0.031709    0.059005  -0.0077547    -0.24914     0.07512      2.8021     0.29447
0.031052    0.042891   -0.018278    -0.32018   -0.025514       2.903      0.3415
0.028092    0.031709     -0.0265    -0.36786     -0.0903      2.8202     0.37603
0.024474    0.024145   -0.032749    -0.39352    -0.12286       2.589     0.39379
0.020199    0.020528   -0.028473    -0.39976    -0.13503      2.2447     0.39609
0.017568    0.020199  -0.0084125    -0.39089    -0.13996       1.828     0.38031
0.012964    0.016253    0.023817    -0.36786    -0.15081      1.3804      0.3517
0.0057288    0.012635    0.062952    -0.32741    -0.17087     0.94728     0.32013
0.0001381    0.019541     0.10472    -0.27052    -0.20113     0.57467     0.29349
0.0024402    0.040589     0.14648    -0.20113    -0.24553     0.28888     0.27573
0.012635      0.0692     0.18463    -0.12417    -0.30604    0.097812     0.26455
0.027763    0.098469     0.21949    -0.04393    -0.37872   -0.011043     0.25534
0.041904     0.12215     0.24449    0.031052    -0.44975   -0.063004     0.24087
0.050455     0.13103     0.25172    0.079395    -0.50599   -0.082079     0.21456
0.052099     0.12544     0.23528    0.077093    -0.53328   -0.086683     0.18167
0.047824      0.1159     0.19647    0.014608       -0.53    -0.08471     0.14977
0.040589     0.10636     0.14517   -0.088656    -0.49448   -0.082079     0.12577
0.034011    0.096167    0.086959     -0.2031    -0.42311   -0.087341     0.10735
0.027763    0.081368    0.031052     -0.2965    -0.31853   -0.096549     0.09551
0.025132    0.064925   -0.020909    -0.35603    -0.20212   -0.091287     0.08959
0.025461    0.048482   -0.070568     -0.3945     -0.1051   -0.059058    0.084657
0.026447    0.027763    -0.12483    -0.43002   -0.049192   -0.002164     0.07512
0.027105  0.00046697    -0.19192    -0.47804   -0.038997    0.059992    0.057361
0.02283   -0.027487     -0.2623    -0.54184   -0.059387    0.099785     0.03434
0.011977   -0.047219    -0.32215     -0.6109   -0.086354     0.10209    0.010662
0.0017824   -0.056756    -0.36096    -0.66417   -0.096878    0.058348   -0.011372
-0.002164     -0.0584    -0.37806    -0.68522   -0.080106   -0.026171   -0.037024
-0.0008485   -0.052152    -0.37609    -0.66648   -0.036037    -0.13437   -0.068924
0.0017824   -0.040313    -0.35997    -0.60958    0.025461    -0.23829    -0.10346
0.0030979   -0.028144     -0.3307    -0.51684    0.090248    -0.31952    -0.13207
-0.0011774   -0.018278    -0.29288    -0.40601     0.14451    -0.37707    -0.15114
-0.010715   -0.014661    -0.25013     -0.3011     0.18003    -0.42772    -0.16101
-0.021567   -0.017621    -0.21001    -0.22415     0.19121    -0.49119    -0.16495
-0.032091   -0.023211    -0.17581    -0.18962     0.18463    -0.57604    -0.16265
-0.036366   -0.030447    -0.14719    -0.19488     0.17674    -0.66878    -0.15081
-0.032749    -0.03538     -0.1222    -0.22053     0.17871     -0.7408    -0.12976
-0.020909   -0.034722    -0.09326    -0.24881     0.19088    -0.77928    -0.10905
-0.0054526   -0.026829   -0.059058    -0.27052      0.2014    -0.78618   -0.089643
0.012306   -0.014332   -0.018936    -0.28927     0.20272    -0.77007   -0.076488
0.031709  0.00079584    0.028092    -0.30472     0.18562    -0.74244   -0.064649
0.050784    0.020857    0.083013    -0.31196     0.14122    -0.70265   -0.051165
0.069529    0.047824     0.13695    -0.30176    0.067885    -0.64082   -0.032749
0.081697    0.073476     0.17575    -0.26822   -0.027158    -0.54611   -0.014003
0.084328     0.09255     0.18825    -0.21626    -0.11661    -0.42575  -0.0008485
0.077093     0.10274     0.16983    -0.15542    -0.17646    -0.30439  0.00079584
0.061965     0.10209     0.12379   -0.093918    -0.19422    -0.22612   -0.014332
0.043549    0.093536    0.058019   -0.031104    -0.17909    -0.23204   -0.040313
0.027434     0.07808   -0.014332    0.033354    -0.14654    -0.34024   -0.066951
0.017568    0.058676    -0.08175     0.10373    -0.10674    -0.51849   -0.088985
0.010662    0.042891    -0.13042     0.18003   -0.065635     -0.6918    -0.10477
0.0040845    0.031381    -0.15279     0.25435   -0.021567    -0.79079    -0.11694
-0.002164    0.022501    -0.14391      0.3198    0.025132    -0.77895    -0.12582
-0.01203    0.010333    -0.10477     0.36946    0.075778    -0.67832    -0.13174
-0.023211  -0.0047949   -0.041299     0.40267     0.12675    -0.53986     -0.1347
-0.036695   -0.018278    0.038287     0.42175     0.17575    -0.41095    -0.13437
-0.04985     -0.0265     0.12873     0.43655     0.21719    -0.31229    -0.12812
-0.060045   -0.028473     0.22147     0.45134     0.24778    -0.23434    -0.11595
-0.065307   -0.026829     0.30467     0.46812     0.26915    -0.15805     -0.1005
-0.068595   -0.025842     0.36715     0.48785     0.28264   -0.077146   -0.082079
-0.067937   -0.027158     0.40563     0.50659     0.28592  -0.0038083   -0.066293
-0.06136   -0.028802     0.42207     0.51613     0.27836    0.043877   -0.059716
-0.048534   -0.028802     0.42076     0.50495     0.26882    0.062294   -0.060373
-0.034393   -0.025842     0.40366     0.47732     0.26882     0.06065   -0.067609
-0.026171   -0.021238     0.37505     0.45299     0.29316    0.051441   -0.076817
-0.022883    -0.01499      0.3346     0.45003     0.35663     0.04618   -0.081421
-0.01499  -0.0093991     0.27704     0.47535     0.46516    0.047495   -0.074515
0.0024402   -0.007097     0.20173     0.52402     0.60657    0.056703   -0.057085
0.023488  -0.0077547      0.1136     0.58092     0.74864    0.076435   -0.034393
0.043877  -0.0080836     0.01987     0.62367     0.84434     0.13432   -0.013345
0.057361  -0.0080836   -0.066293     0.63321     0.84829     0.26192   0.0077021
0.061965  -0.0080836     -0.1393     0.59407     0.74338     0.45924    0.030394
0.061965  -0.0038083    -0.19291     0.49903     0.55132     0.67695    0.058019
0.059334   0.0047422    -0.22842     0.35663     0.31881     0.84533    0.088275
0.059663    0.016581    -0.25079     0.18825    0.093536     0.91044     0.11853
0.065254    0.028092    -0.26624    0.020199   -0.088985     0.85585     0.14089
0.074462    0.034998    -0.27775    -0.12023    -0.21856     0.70786     0.15109
0.08367    0.032696    -0.28466    -0.21922    -0.30735     0.51317     0.15076
0.088932    0.017568    -0.28992    -0.27545    -0.36951     0.31059     0.14221
0.086959  -0.0074258    -0.29453    -0.30209    -0.41522     0.12938     0.13004
0.079066   -0.038011    -0.29387    -0.31327    -0.43824   -0.016305     0.11393
0.068214   -0.065964    -0.29124    -0.31557    -0.42838    -0.10707    0.097483
0.052099   -0.083723    -0.28927    -0.31426     -0.3876    -0.12713    0.086301
0.032038     -0.0903    -0.28729    -0.31821    -0.33202   -0.076488    0.084328
0.011648   -0.087669    -0.28466    -0.33235    -0.28236    0.029736    0.090248
-0.0061104   -0.083394    -0.28631    -0.35899    -0.25802     0.16523    0.096167
-0.018278   -0.085039    -0.29518    -0.39121    -0.26888     0.30138    0.096496
-0.020909   -0.091287    -0.30406    -0.41719    -0.32051     0.41616    0.090248
-0.018607   -0.093918    -0.31097    -0.42739    -0.40305     0.50824    0.075449
-0.015648   -0.088327    -0.31459    -0.41325    -0.49251     0.58815    0.059334
-0.01499   -0.076159    -0.31294     -0.3797    -0.56584      0.6605    0.050126
-0.020252   -0.066293    -0.30308    -0.33333    -0.60596     0.70918    0.044864
-0.031433    -0.06136    -0.28696    -0.28269    -0.59906     0.71312    0.044864
-0.046232   -0.062347    -0.26624    -0.23204    -0.54447      0.6605    0.048153
-0.059387   -0.065307    -0.24092    -0.18041    -0.44942     0.56053    0.052757
-0.065964   -0.068924    -0.21165    -0.12187    -0.32149     0.44214    0.059334
-0.064978   -0.071555    -0.18008   -0.052152    -0.17844      0.3438    0.072489
-0.056427   -0.075501    -0.14818    0.024474   -0.039655     0.29053    0.085972
-0.041957   -0.082736    -0.11727    0.093865    0.065583     0.28066    0.094523
-0.0265   -0.091287   -0.089972     0.14188     0.11623      0.2902    0.096496
-0.012688   -0.095233   -0.063333     0.16457      0.1057     0.28592    0.093536
-0.0011774   -0.090629   -0.037024     0.16457     0.04881     0.23429    0.077422
0.0077021   -0.074844   -0.015319     0.15339   -0.026171      0.1205    0.045522
0.012306   -0.048205   0.0063866     0.14484   -0.079119   -0.035051   0.0047422
0.019541   -0.014003     0.02875     0.14287   -0.071555    -0.18534   -0.028802
0.032367    0.025132    0.057032     0.14254    0.010004    -0.28203   -0.044588
0.051441    0.065912    0.083999     0.13793     0.14944    -0.29354   -0.041628
0.07216     0.10538     0.10702     0.12478     0.30927    -0.21363   -0.028144
0.084328     0.13629     0.12215      0.1057     0.44806   -0.075173  -0.0077547
0.084328     0.15668     0.12741    0.092221      0.5431    0.068214    0.014279
0.071502     0.16424     0.12346     0.10077     0.58618     0.16622    0.035656
0.047824     0.15372     0.11426     0.14287     0.59736     0.20667    0.052099
0.022501     0.12873     0.10307     0.21456     0.61315     0.19976    0.061636
0.0040845    0.096167    0.094194     0.30039     0.65294     0.16457    0.067227
-0.004466    0.061965    0.084986     0.38426     0.71312     0.11162    0.065254
0.00046697    0.031709    0.079066     0.45233     0.76837     0.05177    0.055717
0.010991    0.011977    0.078409     0.49179     0.77922   -0.015319    0.036971
0.022501   0.0034268    0.080053     0.49278     0.71444   -0.095562    0.014937
0.030065   0.0077021    0.078409     0.45233     0.57664    -0.19751  -0.0031506
0.035327    0.026119    0.072489     0.38327     0.39412    -0.31853   -0.011701
0.041575    0.056703    0.068214     0.30401     0.20469    -0.44811  -0.0090702
0.05177    0.092221    0.065583     0.23331    0.034011    -0.56814  -0.0061104
0.064267     0.12379    0.062952     0.17871    -0.10411    -0.65924  -0.0057815
0.079724     0.14648    0.059992     0.13629    -0.20573    -0.71416   -0.010057
0.10077     0.16063     0.05473    0.099456    -0.26855    -0.73718   -0.015319
0.12511     0.16885    0.044535    0.059663    -0.29814    -0.73587   -0.017292
0.14352     0.17904    0.034998    0.013293    -0.30933    -0.71482   -0.018936
0.15142     0.18825    0.032038   -0.037024    -0.32084    -0.68193   -0.021896
0.14714     0.19285    0.034669   -0.091287     -0.3455    -0.63359   -0.031433
0.13234     0.18957    0.038944    -0.14555    -0.38365    -0.56979   -0.050836
0.1113     0.18299      0.0373    -0.19883    -0.42838    -0.49415   -0.081421
0.085972     0.17049    0.017568    -0.24947    -0.47014     -0.4195    -0.12154
0.059334     0.14912   -0.025185    -0.29321    -0.50369    -0.35504    -0.15739
0.033683     0.11919   -0.085039    -0.32807    -0.52079     -0.2965     -0.1735
0.011648    0.087288    -0.14095    -0.35603    -0.52145    -0.22251    -0.16561
-0.0041372    0.060321    -0.17416     -0.3774    -0.50862   -0.082079    -0.13897
-0.016963    0.043877    -0.17285    -0.39089    -0.48461     0.16885     -0.1051
-0.026829    0.038287    -0.13832     -0.3922    -0.45469     0.50955   -0.074515
-0.035051    0.039931   -0.078132    -0.37642    -0.42081     0.85125   -0.049192
-0.043601    0.043549 -0.00051963    -0.34123    -0.38727      1.0877   -0.030775
-0.053138    0.046837     0.08959    -0.29518    -0.35964      1.1449    -0.01795
-0.063004     0.04881     0.18299     -0.2475    -0.34715     0.99496  -0.0061104
-0.071555    0.048153     0.26882     -0.2031    -0.34945     0.67925   0.0011247
-0.076488    0.045522     0.34413     -0.1643    -0.34846     0.28527   0.0034268
-0.07879    0.046508     0.40695    -0.12648    -0.31097   -0.089972 -0.00051963
-0.079777    0.046837      0.4543   -0.092274    -0.21363    -0.39253  -0.0087413
-0.086025    0.048153     0.48259   -0.065635   -0.061031    -0.60958   -0.017292
-0.096878    0.047824     0.48357    -0.04689     0.11623    -0.76349    -0.02354
-0.11266    0.041904     0.45529   -0.025842     0.28658      -0.873   -0.029131
-0.12582    0.029736     0.39544   0.0067154     0.43128    -0.94042   -0.035708
-0.12878    0.012964     0.31684    0.057361     0.55231     -0.9641    -0.04097
-0.1176  -0.0028217     0.24021     0.12248     0.66511     -0.9424   -0.037024
-0.091616   -0.007097     0.17937     0.18726       0.771    -0.87728   -0.019594
-0.057743   0.0017824     0.13004     0.23166     0.83612    -0.78059    0.010991
-0.021896    0.017568    0.084328     0.23396     0.80784    -0.65891    0.051113
0.015595    0.032367    0.038944     0.18726     0.64899    -0.52243    0.096167
0.048482    0.038944  -0.0061104     0.10834     0.36058    -0.38793     0.13728
0.073476    0.034669   -0.047219    0.023488  -0.0024928    -0.27545     0.17378
0.086301    0.021843   -0.076159   -0.054454    -0.35537    -0.19192     0.19812
0.084986   0.0067154   -0.089972    -0.12384    -0.62866    -0.13733     0.21127
0.070187   -0.015648   -0.091287    -0.18863    -0.79309    -0.11003     0.20897
0.041247   -0.044917    -0.08471    -0.25145    -0.85656    -0.11036     0.19351
0.0060577   -0.082079   -0.073528    -0.30341      -0.849    -0.12352     0.16654
-0.03242    -0.12648   -0.057085    -0.32906    -0.80329     -0.1097     0.13399
-0.069911     -0.1712    -0.03538    -0.30834    -0.74705   -0.038011     0.10044
-0.1051    -0.20442  -0.0031506    -0.22842    -0.69147     0.08367     0.07216
-0.13667     -0.2179    0.033354    -0.10115    -0.64082     0.21752    0.053415
-0.15903    -0.20771      0.0692    0.039931    -0.59544     0.31223    0.042562
-0.16956    -0.17975     0.10011     0.16753     -0.5494     0.32736    0.038287
-0.1689    -0.14621     0.12149     0.25665    -0.50237     0.24317    0.033683
-0.1643    -0.11497     0.13563     0.30039    -0.44975    0.069858     0.02283
-0.1564   -0.090629     0.14583      0.3027    -0.38497    -0.16068   0.0040845
-0.14292   -0.074515     0.15109     0.27507    -0.30768     -0.4024   -0.020909
-0.12615   -0.066951     0.14188     0.23363    -0.21593    -0.61715   -0.046232
-0.10576   -0.066951      0.1136     0.18759    -0.11562    -0.77533   -0.067609
-0.085367   -0.074844    0.067227     0.14451  -0.0097279     -0.8411   -0.082736
-0.065307   -0.087012   0.0090175      0.1159     0.10044    -0.79243   -0.089314
-0.041957    -0.09622   -0.051823     0.11754     0.21127    -0.62175   -0.085039
-0.020581    -0.09622     -0.1051     0.15471     0.31519    -0.35043   -0.072213
-0.0077547   -0.087341    -0.14095     0.22081     0.40201   -0.032749   -0.056756
-0.004466   -0.069582    -0.15509     0.29908     0.45693     0.25041   -0.046561
-0.004466   -0.045246    -0.14719     0.36847      0.4645     0.43687   -0.045574
0.002769   -0.015976    -0.11825     0.41616     0.41944     0.49804   -0.049521
0.02283    0.013951   -0.070568     0.44707     0.33164      0.4497   -0.050507
0.054072    0.041575  -0.0038083     0.47864     0.22969     0.33525   -0.043601
0.096167    0.065254    0.079724     0.53192     0.14944     0.20272   -0.030775
0.14517    0.088932     0.16819     0.62203     0.11985    0.094852    -0.01499
0.19055     0.11458      0.2458     0.73976     0.14714    0.043877    0.002769
0.22179     0.14024     0.30007     0.85651     0.21423    0.064596    0.020857
0.23331     0.16194     0.32966     0.94366     0.30434     0.14912    0.033025
0.22804     0.17773     0.33854     0.98477     0.41188     0.27014    0.038287
0.21292     0.18726     0.33032     0.98049     0.53751     0.39807    0.036971
0.19483     0.19055     0.31486     0.93609     0.67925     0.51449    0.032696
0.17707     0.18792     0.29678     0.85158      0.8177     0.60361    0.032038
0.15734     0.17806     0.27573     0.73022     0.92097      0.6582    0.039273
0.13695     0.16654     0.25304     0.58158     0.96438     0.68122    0.046837
0.11557     0.15569     0.22508     0.42438     0.94859     0.68846    0.051441
0.094852     0.14352     0.18924     0.27376     0.88742     0.70095    0.054072
0.073147     0.12609     0.13991     0.13728     0.80356      0.7391     0.05473
0.050126     0.10406    0.071173    0.019212     0.71378     0.80389    0.051113
0.02283     0.07808   -0.014332   -0.076159       0.624     0.87065    0.040589
-0.010386    0.047495    -0.10346    -0.15015     0.52402     0.91373    0.024803
-0.045246    0.019212    -0.17646    -0.21099     0.40432     0.90288   0.0050711
-0.072542   0.0044134    -0.21363    -0.26657     0.26817     0.81507   -0.010715
-0.085367   0.0070443    -0.20771    -0.32544     0.13497     0.64373   -0.017292
-0.085696    0.017568    -0.16364    -0.38793    0.035327     0.41484  -0.0090702
-0.079119    0.028092   -0.089643    -0.45469   -0.010057     0.18628    0.013622
-0.065964    0.035327   0.0021113    -0.52079  -0.0097279   0.0083598    0.042891
-0.04985    0.042891    0.096825    -0.58196     0.01132   -0.092274    0.066569
-0.035051    0.046837      0.1797     -0.6303    0.027105    -0.11497    0.083013
-0.02354    0.041575     0.23429     -0.6599    0.019541   -0.077146    0.087946
-0.013017    0.031709     0.25008    -0.67536   -0.011372  -0.0054526    0.086959
0.0021113     0.02283     0.22936    -0.68391   -0.060373    0.062294    0.084328
0.023488    0.019212     0.18233    -0.68555    -0.11036    0.090577    0.082026
0.049468    0.018226     0.12215    -0.67667     -0.1541     0.05473    0.079395
0.070845    0.017239    0.060979    -0.65299    -0.18436   -0.045574    0.076435
0.076106    0.012635   0.0034268     -0.6155    -0.20179    -0.19028    0.070845
0.06624  -0.0031506   -0.051494    -0.56847    -0.20869    -0.35603    0.059005
0.046837   -0.031104    -0.10411    -0.52572    -0.21034    -0.52868    0.037958
0.028092   -0.063662    -0.15772    -0.49579    -0.22316    -0.70495    0.002769
0.013293   -0.092603    -0.21461    -0.47968    -0.25769    -0.88221   -0.045574
-0.0034794    -0.11628    -0.27085     -0.4685    -0.31261     -1.0394   -0.098193
-0.026171     -0.1347    -0.31919    -0.45304     -0.3751     -1.1423    -0.14226
-0.054454    -0.15147    -0.35504    -0.42147    -0.43101     -1.1657    -0.16495
-0.083394     -0.1666    -0.37576    -0.35241     -0.4685     -1.1108    -0.16199
-0.10444    -0.17515    -0.38497    -0.23171    -0.47738    -0.98778    -0.14062
-0.11036    -0.17449    -0.38201   -0.066293    -0.45074    -0.82466    -0.10937
-0.10181     -0.1643    -0.36721     0.11524    -0.38858    -0.65957   -0.075173
-0.085039    -0.14489     -0.3409      0.2754    -0.29847    -0.52967   -0.043272
-0.062347     -0.1199    -0.30275     0.38919     -0.1962    -0.45765   -0.013674
-0.035708   -0.089972    -0.25473     0.45003    -0.10576    -0.45041    0.015595
-0.013017    -0.05281     -0.1985     0.47568   -0.031433     -0.4833    0.044535
0.002769  -0.0090702    -0.13766     0.49015    0.031052    -0.52243    0.073147
0.013293    0.036971   -0.078461     0.50331    0.087946     -0.5129    0.095839
0.021514    0.077093   -0.027816     0.51054     0.14122    -0.38233     0.11195
0.031052     0.10274   0.0093464      0.4987      0.1843    -0.07583     0.13004
0.044535     0.11458    0.028421      0.4622     0.20765     0.41188     0.15076
0.06065     0.11919    0.027763     0.39807     0.20634      1.0094     0.16786
0.076764     0.12116   0.0040845     0.31092     0.18496      1.5873      0.1695
0.085315     0.12412   -0.038011     0.21094      0.1501      2.0039     0.15076
0.083013      0.1307   -0.086683     0.10965     0.10834      2.1628      0.1159
0.07216     0.14484    -0.12944     0.01132    0.065254      2.0529    0.078737
0.059334     0.15898    -0.15936   -0.074844    0.023817       1.752    0.047166
0.046837     0.16391    -0.17613    -0.14095    -0.01499      1.3751    0.021843
0.034669     0.15339    -0.17942    -0.18666   -0.046561      1.0308  0.00079584
0.022501     0.12905    -0.17416    -0.21527   -0.067609     0.78876    -0.01795
0.012306    0.098798    -0.16331    -0.23204   -0.078461     0.66182   -0.031433
0.0070443    0.066898    -0.15015     -0.2373   -0.079119     0.62564   -0.034722
0.0040845    0.039273    -0.13371    -0.22218   -0.057414     0.64439   -0.028802
-0.0018351    0.018226    -0.11957    -0.17877    -0.01203     0.68385   -0.016634
-0.010715   0.0037556    -0.11595    -0.11299     0.04322     0.71279  -0.0008485
-0.020252   -0.007097    -0.12187   -0.041299    0.087617     0.71608    0.011977
-0.025842   -0.017621    -0.13141    0.015266    0.099456     0.69339    0.016253
-0.027487   -0.027487    -0.12779    0.039931    0.068214     0.66248    0.015924
-0.025514   -0.033406    -0.10148    0.029736  -0.0034794     0.64077    0.018555
-0.018607    -0.03242   -0.051494  -0.0031506    -0.10115     0.63715    0.027105
-0.010057   -0.023211    0.016253    -0.04097    -0.19751     0.64603    0.039602
-0.0038083  -0.0038083    0.091892   -0.074186    -0.27118     0.64636    0.049468
0.0030979     0.01987     0.16128    -0.10082    -0.30998     0.62005    0.062952
0.010991    0.043877     0.21785    -0.12352    -0.31229     0.56349    0.080382
0.017897    0.063938     0.25961    -0.14654    -0.28631     0.48061     0.10209
0.022172    0.071831     0.28527    -0.16989    -0.25046     0.37505     0.12478
0.019541    0.067556     0.29316    -0.19455    -0.22053     0.25337     0.14122
0.01132    0.054072     0.27573    -0.22283    -0.20146     0.11787     0.14385
-0.002164    0.031709     0.22969    -0.25441     -0.1906   -0.024856     0.13333
-0.018607   0.0063866     0.16128    -0.28927    -0.17778    -0.14785     0.11458
-0.036037   -0.022883    0.083013    -0.32347    -0.15015    -0.20803    0.094852
-0.04985   -0.053796      0.0054    -0.35241   -0.098193     -0.1814    0.076764
-0.053796   -0.086025   -0.066951    -0.37477   -0.014332   -0.069582    0.062952
-0.048534    -0.11464    -0.13174     -0.3968    0.095181    0.094523    0.053086
-0.037024    -0.13503    -0.18962     -0.4241     0.20469     0.25896    0.043877
-0.024856    -0.14621    -0.23895    -0.46093     0.27902     0.37505    0.032038
-0.018278    -0.15443    -0.27841    -0.49974     0.29743      0.4132    0.017239
-0.021567    -0.16265    -0.31097    -0.53328     0.25304     0.36255  0.00046697
-0.03242    -0.16693    -0.33399    -0.55203     0.15339     0.23626   -0.019923
-0.045574    -0.16561    -0.34978    -0.55236    0.016253    0.058676   -0.042944
-0.058071    -0.15936    -0.35438    -0.53789    -0.13075    -0.14983   -0.065964
-0.068595    -0.14719    -0.35175    -0.52177    -0.26197    -0.37214   -0.084381
-0.076159    -0.13141    -0.35109    -0.51388    -0.36194    -0.58327   -0.094247
-0.079448    -0.11661     -0.3557    -0.51816    -0.42344    -0.75363   -0.092931
-0.077146    -0.10444    -0.36162    -0.52802    -0.44844    -0.86873   -0.085696
-0.07024    -0.09326    -0.36721    -0.54216    -0.44318    -0.93417   -0.077803
-0.066622    -0.08471    -0.36359    -0.55696    -0.41292    -0.96476   -0.073199
-0.065635   -0.075501    -0.33958    -0.57078     -0.3649    -0.98252   -0.070897
-0.063991   -0.062018    -0.29157    -0.57341    -0.29782     -1.0006   -0.069582
-0.05544   -0.046232    -0.22546    -0.55335    -0.21659     -1.0233   -0.067609
-0.03538   -0.028144    -0.15048    -0.50073    -0.12878     -1.0427   -0.062018
-0.0067681  -0.0067681   -0.077475    -0.41391   -0.048863     -1.0325   -0.057414
0.023488     0.01691   -0.013345    -0.30078   0.0057288     -0.9641   -0.058729
0.04618    0.039273    0.043549    -0.17613    0.013293      -0.824   -0.063991
0.056046    0.059334     0.10077     -0.0584   -0.031433    -0.61945   -0.077475
0.051113    0.076106     0.15931    0.037958    -0.11201    -0.38957    -0.10214
0.035656    0.087617     0.21324     0.11261    -0.19784    -0.19093    -0.13174
0.017239    0.093208       0.256     0.18529    -0.25901   -0.081421    -0.15673
0.00079584    0.091892     0.28329     0.27902    -0.26888   -0.085367    -0.16824
-0.0077547    0.085972     0.29743     0.40103    -0.21955    -0.21264    -0.16594
-0.0057815    0.079066     0.30171     0.54507    -0.12319    -0.45732    -0.15344
0.0054    0.073147     0.29875     0.69503  -0.0034794     -0.7875    -0.13897
0.020528    0.069529     0.28691     0.83119     0.11491     -1.1289    -0.11891
0.033354    0.065254     0.26225     0.93412     0.22048     -1.3926   -0.091945
0.039602    0.055717     0.22739     0.99069     0.30631     -1.4863   -0.060702
0.0373    0.041575     0.19055     0.99957     0.37274     -1.3459   -0.028802
0.031709    0.029736     0.16359     0.96799     0.41944    -0.98186   -0.004466
0.02579    0.024145     0.15635     0.90551     0.44444      -0.505    0.002769
0.018884    0.022172      0.1672     0.82329     0.44279   -0.086354  -0.0064392
0.0040845    0.016253     0.18397     0.72989     0.41024     0.14484   -0.030447
-0.019265   0.0063866     0.19022     0.62827     0.34808     0.15668   -0.063333
-0.041628  -0.0061104     0.17444     0.51745     0.26126   0.0057288   -0.095233
-0.056427   -0.016305     0.13793     0.39346     0.16523    -0.20573    -0.11825
-0.061689   -0.020252    0.082684     0.26323    0.079395    -0.39089    -0.12549
-0.061031   -0.017621    0.015595     0.13958    0.020857    -0.49974    -0.12023
-0.059058  -0.0093991   -0.052481    0.034669  -0.0031506    -0.52408     -0.1074
-0.057743  -0.0018351     -0.1051   -0.045574   0.0001381    -0.47771   -0.087012
-0.055112   0.0057288     -0.1324    -0.09918    0.021843    -0.36063   -0.058729
-0.052152   0.0090175    -0.13207    -0.11858    0.054401    -0.16627   -0.026829
-0.050179   0.0077021    -0.10444   -0.090958    0.084328     0.09255   0.0044134
-0.045903   0.0030979   -0.057414   -0.014332    0.099456     0.37307    0.035327
-0.033735 -0.00051963  -0.0067681     0.10899    0.094852     0.62104    0.065912
-0.017292    0.002769     0.03434     0.26915    0.070187     0.78745     0.08959
-0.0008485    0.013951    0.059005     0.45529    0.033025      0.8598     0.10176
0.014608    0.029078    0.071173     0.65097  -0.0057815     0.86933     0.10307
0.029407    0.042891    0.079395     0.82954   -0.033735     0.85914    0.097812
0.042562    0.050455    0.088275     0.95813   -0.048534     0.84763     0.08959
0.052757    0.050455    0.095839      1.0029   -0.053467     0.83612    0.085644
0.062294    0.044206    0.096496     0.94826   -0.052152     0.81968    0.091563
0.071502    0.036642     0.08367     0.80619   -0.043601     0.79402     0.10439
0.076764    0.031381     0.06065     0.60788   -0.032091     0.75686     0.11524
0.079395    0.032696    0.033025     0.39248   -0.014332     0.69043      0.1205
0.082355    0.038287   0.0063866     0.19417    0.017897     0.58421     0.11689
0.088275    0.045851   -0.016963    0.039602      0.0692     0.44181     0.10899
0.097154    0.052428   -0.033078   -0.061031     0.12938      0.2777     0.10143
0.1057    0.055388   -0.036695     -0.1097     0.17115     0.11656      0.1034
0.10866    0.056703   -0.022225    -0.12384     0.17937   -0.019265     0.11919
0.10866    0.062294    0.010991     -0.1222     0.15997    -0.12417     0.14385
0.11557    0.069858    0.064267    -0.11069     0.13366    -0.20047     0.17246
0.13267    0.076764     0.13695   -0.091287     0.11754    -0.25967     0.20075
0.15273    0.083013     0.21851    -0.06136     0.11195    -0.32215     0.21818
0.16654     0.08959     0.29875   -0.018936     0.10801    -0.39911     0.21719
0.16391    0.093865     0.36551    0.030394     0.10702    -0.48856     0.19318
0.14385    0.091234     0.41616    0.077751     0.11919    -0.55367     0.14846
0.1136     0.08663     0.45365     0.12083     0.15175    -0.54052    0.093208
0.081697    0.081368     0.47831     0.16128     0.21226    -0.42969    0.045193
0.05769    0.079395     0.48949     0.20206     0.29612    -0.25704    0.022501
0.048153    0.083999     0.48423      0.2481     0.38886    -0.09326    0.024145
0.052099    0.092879     0.45858     0.29349     0.45989  -0.0034794     0.04322
0.059663     0.10176     0.41681     0.32802      0.4691   -0.022225      0.0692
0.064267     0.10866     0.36255     0.33854     0.39017    -0.13305    0.088603
0.061636     0.11294     0.30105     0.32013     0.22804    -0.27348    0.091234
0.051441     0.11228     0.23659      0.2731    0.020199    -0.37707    0.076435
0.04026     0.10538     0.17937     0.20436    -0.17975    -0.41555    0.053086
0.035985     0.09255     0.13596     0.12938    -0.32676    -0.39483    0.035985
0.042233    0.077093     0.10603    0.059334    -0.39976    -0.33892    0.033354
0.05473    0.059663    0.085315  -0.0011774    -0.40864     -0.2748    0.050455
0.063281    0.042891    0.064925   -0.055112    -0.38069    -0.21691    0.078409
0.062623    0.030065    0.038287    -0.10543    -0.33991    -0.17646     0.10636
0.05473    0.022172   0.0086887    -0.14884     -0.3011    -0.14884     0.12412
0.045193    0.017239   -0.017292    -0.18567    -0.26394    -0.10806      0.1284
0.041904    0.016253   -0.037353    -0.21724    -0.22777   -0.031762     0.12215
0.042891    0.018884   -0.056427    -0.24717     -0.1962    0.072489     0.10932
0.042891    0.028092   -0.079448    -0.27381    -0.16857     0.16622    0.094194
0.037629     0.04322     -0.1051    -0.29584    -0.14588     0.20831    0.079066
0.032696    0.059334    -0.13503    -0.31393     -0.1245     0.18332    0.062294
0.026776    0.071831     -0.1666    -0.32741   -0.095233     0.10801    0.041904
0.021514    0.080711    -0.19521    -0.33366   -0.053138    0.012964    0.020857
0.018226    0.082026    -0.21231    -0.32807   0.0040845   -0.076159   0.0040845
0.018555    0.077093    -0.21297    -0.30735    0.069858    -0.14391  -0.0047949
0.020857     0.06624    -0.19521     -0.2817     0.12642    -0.18238  -0.0087413
0.016253    0.050126    -0.16265    -0.26986     0.15635    -0.19258  -0.0084125
-0.0024928    0.029736    -0.11825    -0.28071     0.15142    -0.18666  -0.0087413
-0.033406   0.0050711    -0.07024    -0.31229      0.1284    -0.18337   -0.010057
-0.071226   -0.019265    -0.02946    -0.35208      0.1136     -0.1883   -0.013345
-0.10576   -0.038011  -0.0024928    -0.38299     0.14155    -0.18567   -0.014332
-0.12976   -0.052152    0.012306    -0.39648     0.22574    -0.15542   -0.015976
-0.14095   -0.064978    0.015924     -0.3922     0.35729   -0.084052   -0.019265
-0.13996   -0.079448   0.0057288    -0.37642     0.50594    0.035327   -0.027487
-0.1324   -0.091616   -0.023869    -0.35175     0.63683     0.19022   -0.038668
-0.12121   -0.091945   -0.068266    -0.32182     0.72628     0.35696   -0.045903
-0.1074   -0.071884     -0.1222    -0.29288     0.77166     0.50396   -0.045574
-0.085367   -0.033078    -0.17449    -0.27216      0.7789     0.60394   -0.039984
-0.057085    0.015924     -0.2179       -0.26     0.75061     0.64274   -0.029789
-0.0265    0.058676    -0.24783    -0.25177     0.68616     0.62301   -0.017621
-0.004466    0.082355    -0.26032    -0.24289     0.59703     0.55954  -0.0074258
0.0054    0.086959    -0.25145    -0.22218     0.50758     0.48127  -0.0041372
0.0077021    0.077751    -0.22283    -0.18567     0.44378     0.42438  -0.0080836
0.0070443     0.06065    -0.17712    -0.12911     0.40695     0.41616   -0.017621
0.0034268    0.041575    -0.11464   -0.060373     0.37505     0.45496   -0.029789
-0.0064392    0.025461   -0.038339   0.0067154     0.31454     0.51251   -0.041299
-0.021567    0.015924    0.046837    0.055717     0.20206     0.55921   -0.054454
-0.042286   0.0096753     0.13662    0.073476     0.04618     0.57368   -0.071555
-0.062676   0.0037556      0.2162    0.057032    -0.11661     0.55198   -0.091945
-0.069911   -0.002164     0.27606    0.017239    -0.24158     0.50692    -0.10411
-0.0584  -0.0047949     0.31223     -0.0265    -0.30406     0.46614   -0.094905
-0.036366  -0.0047949     0.32802   -0.050836    -0.30965      0.4543   -0.066951
-0.010057  -0.0028217     0.32966   -0.032749    -0.28828     0.47667   -0.028802
0.010004  -0.0015062     0.32045    0.052757    -0.27216     0.51613   0.0044134
0.020528   -0.004466       0.305     0.21916    -0.28269     0.54441    0.022501
0.018555   -0.016963     0.28724     0.45693    -0.31327     0.54244    0.021514
0.0057288   -0.037024     0.26553     0.72398    -0.34287     0.50429   0.0086887
-0.014332     -0.0584     0.23857      0.9624    -0.35274     0.43556   -0.004466
-0.038011   -0.071226     0.19976      1.1259    -0.33596     0.33657   -0.012688
-0.059387   -0.071884     0.15142      1.1962    -0.29124     0.20108   -0.017292
-0.073199   -0.059716    0.096496      1.1772    -0.21987    0.030723   -0.014661
-0.07879   -0.039984    0.039931      1.0841     -0.1176    -0.14785  -0.0074258
-0.074844    -0.01795  -0.0077547     0.93577    0.014937    -0.29716   0.0014536
-0.063991   0.0073732   -0.039326     0.75292     0.15602    -0.39385    0.013951
-0.049521    0.033354   -0.051165     0.55066     0.25139    -0.43791    0.028421
-0.032749    0.055059   -0.046232     0.33657     0.24482     -0.4435    0.039602
-0.01795    0.072489   -0.034722     0.12642     0.10998    -0.42509    0.045851
-0.004466    0.083999   -0.023211   -0.059716    -0.12911    -0.38562    0.045522
0.0093464    0.093208   -0.013017     -0.2008    -0.39483     -0.3113    0.040589
0.029736     0.10439  -0.0031506    -0.28598    -0.60498    -0.18666     0.03434
0.054072     0.11656   0.0090175    -0.32215    -0.71482   -0.011701    0.030394
0.07512     0.12675    0.021514    -0.33169    -0.72962     0.18003    0.025132
0.087288     0.12971    0.031709    -0.33695    -0.69081     0.33854     0.01691
0.085315     0.11985    0.039931    -0.34945    -0.64346     0.41451   0.0044134
0.066898     0.10077    0.044864    -0.37411    -0.62011     0.38393   -0.011372
0.038616    0.079066    0.042233    -0.41029    -0.62175     0.26521   -0.033735
0.013293    0.058676    0.023159    -0.45633    -0.62931     0.10768   -0.059387
-0.0024928    0.041575   -0.019265    -0.51125    -0.62241   -0.028802   -0.085696
-0.0054526    0.026447   -0.086683    -0.57966    -0.59347   -0.092931    -0.10477
-0.00019077   0.0083598    -0.17087    -0.66319    -0.54611     -0.0584    -0.11168
0.010333   -0.016963       -0.26    -0.75889    -0.48626    0.052757    -0.10905
0.018226   -0.045903    -0.33169     -0.8513    -0.41719     0.19055    -0.10148
0.021843   -0.077146    -0.37346    -0.91674    -0.33695     0.30171    -0.08471
0.021843     -0.1005    -0.38694    -0.92398    -0.24355     0.34117   -0.063004
0.019541    -0.11299    -0.38266    -0.85557    -0.13897     0.27639   -0.040641
0.017897    -0.11431    -0.37082    -0.71745   -0.031433     0.10834   -0.021896
0.014608    -0.10707    -0.35109    -0.52934    0.062623    -0.12878   -0.011701
0.01132    -0.09622    -0.31623    -0.31261     0.13333     -0.3876  -0.0080836
0.010662   -0.087012    -0.26559   -0.083723      0.1751    -0.62076   -0.010057
0.017239   -0.081421    -0.20047     0.13662     0.18628    -0.80065    -0.01499
0.026119   -0.076488     -0.1245     0.32374     0.16391    -0.92069   -0.020581
0.031709   -0.069253   -0.042944     0.46187     0.11327    -0.98942   -0.023211
0.030723   -0.058729    0.033354     0.54606    0.058019     -1.0134   -0.016634
0.022172   -0.045246    0.093536     0.57335    0.017239     -1.0022  -0.0057815
0.0090175    -0.03242     0.12708     0.55987   0.0001381    -0.97265   0.0040845
-0.0057815   -0.022554     0.13169     0.52665   0.0030979    -0.94536    0.013951
-0.014332   -0.016305     0.10932     0.49541    0.013951    -0.93483    0.025132
-0.01499   -0.015319    0.068214     0.47469    0.023159    -0.95424    0.036971
-0.0090702   -0.021896    0.014937     0.46318    0.025461    -0.99699    0.050455
-0.0024928   -0.033735   -0.044588     0.45398    0.014937     -1.0266    0.060979
-0.0015062   -0.051823    -0.10576     0.43687   -0.018936    -0.98482      0.0692
-0.0064392   -0.070897    -0.16298     0.40103   -0.079119    -0.82137    0.070845
-0.011043   -0.083394    -0.21132      0.3369    -0.15344    -0.52835    0.066569
-0.011701   -0.087998     -0.2475     0.24876    -0.21987    -0.15969    0.057032
-0.0038083   -0.086354     -0.2692     0.15701    -0.25276     0.18924     0.04618
0.0080309   -0.082408    -0.27874    0.080053    -0.24388      0.4326    0.036971
0.018226   -0.076817    -0.27545    0.030394    -0.19192     0.52994     0.03434
0.026776    -0.07024    -0.25835   0.0014536    -0.10674     0.48916    0.038944
0.033683   -0.068595    -0.23073   -0.012688  -0.0051238     0.35005    0.048482
0.041904    -0.07583    -0.19521   -0.024527    0.080382     0.16326    0.060321
0.049139   -0.088327    -0.15443   -0.034393     0.12017     -0.0265    0.064596
0.04881    -0.10115    -0.11595    -0.03538     0.10932    -0.18699    0.059334
0.04026    -0.10839   -0.088656   -0.023869    0.065912    -0.29551    0.043877
0.029407    -0.10707   -0.079777  -0.0061104    0.013951    -0.34123     0.02875
0.023159   -0.097864   -0.090958  0.00046697   -0.026829    -0.32347    0.014937
0.021186   -0.084052    -0.11365    -0.01499   -0.047877    -0.25177   0.0044134
0.017897    -0.06432    -0.13766   -0.060702   -0.051494    -0.14818   -0.002164
0.0083598   -0.040641    -0.15969    -0.13042   -0.047219   -0.034393  -0.0064392
-0.0067681   -0.017292    -0.17877    -0.21231   -0.047548    0.067885  -0.0097279
-0.022883   0.0017824    -0.19948    -0.28828   -0.057743     0.13793   -0.010386
-0.031104   0.0093464    -0.22053    -0.34715    -0.07583      0.1672  -0.0077547
-0.030447   0.0021113    -0.23665    -0.38529   -0.086025     0.17279   0.0017824
-0.029789   -0.015319    -0.24257    -0.40207   -0.072213     0.18693     0.01691
-0.034393   -0.038011    -0.24224    -0.40338   -0.021567      0.2412     0.03434
-0.04097   -0.057743    -0.23402    -0.39549    0.060321      0.3415    0.048153
-0.041957   -0.069582    -0.21889    -0.38233     0.15668     0.47667    0.056374
-0.036366   -0.066293    -0.19192    -0.36819     0.25074     0.61841    0.061307
-0.025514   -0.047548    -0.14818    -0.35011     0.33229     0.73483    0.065912
-0.012359   -0.015976   -0.084052    -0.32873     0.39873     0.79863    0.073147
0.0040845    0.017897  -0.0061104    -0.29814     0.44378     0.80093    0.083013
0.019541    0.042562    0.072489    -0.25342     0.45989     0.74831    0.093208
0.029078    0.054401     0.14352    -0.20212     0.44641     0.66577     0.10011
0.031709    0.055388     0.19746    -0.15607     0.40892     0.58158     0.10209
0.030394    0.054072     0.22804    -0.13075     0.36058     0.51942     0.10669
0.031709    0.055717     0.23429    -0.13338     0.31651     0.49443      0.1136
0.037958    0.060321     0.22114    -0.16298     0.28461     0.51186      0.1205
0.045851    0.065912     0.19351    -0.20803     0.25994     0.56053      0.1307
0.051441    0.072818     0.16391    -0.25177     0.23331     0.63683     0.14254
0.056703    0.085644     0.14089    -0.28071      0.2014     0.74897     0.15471
0.065912     0.10274     0.12511    -0.28959     0.16819     0.89499     0.16095
0.076435     0.12478     0.11162    -0.27775     0.14287      1.0644     0.15668
0.080382      0.1455    0.096496    -0.24914     0.13333      1.2288     0.13925
0.076435     0.15931    0.074133    -0.21297     0.14418      1.3439      0.1113
0.06065     0.15964    0.040918    -0.17186     0.17082      1.3709    0.075778
0.034998      0.1455   0.0014536    -0.12582     0.20765      1.2982    0.039931
0.0063866      0.1205   -0.035051   -0.063662     0.25271      1.1495   0.0067154
-0.019594     0.08959   -0.059387     0.01691     0.29513     0.96339   -0.022225
-0.038997    0.060979   -0.060045     0.11458     0.32243     0.77495   -0.042615
-0.052481    0.042562   -0.032749     0.22443     0.32506     0.61446   -0.053796
-0.061031     0.03434    0.019541     0.33986     0.30105     0.50067   -0.059058
-0.063662    0.038944    0.087288     0.44904     0.25468     0.42799   -0.066951
-0.060702    0.054401     0.15668     0.54145      0.1968     0.38327   -0.079777
-0.052481    0.076435     0.21818     0.60591     0.13892     0.35071   -0.092603
-0.041299     0.10307     0.26422     0.63715    0.094852     0.31585   -0.098522
-0.025842     0.13004      0.2902     0.63354    0.071173     0.26948   -0.090958
-0.0077547      0.1478     0.29875     0.59999    0.062952     0.20272   -0.068266
0.0067154     0.15043     0.30105     0.54178    0.057032    0.099785   -0.038011
0.016581     0.13859     0.30697     0.46647    0.046837   -0.044259  -0.0093991
0.023159     0.11886      0.3175     0.37702    0.031052     -0.2156    0.010333
0.027434    0.099785      0.3244      0.2754    0.012635    -0.38891    0.017568
0.028421    0.086959     0.31914      0.1649   -0.010715    -0.53888    0.015924
0.027763    0.082026     0.30072    0.047166   -0.035708    -0.64872    0.011648
0.025132    0.082684     0.27047   -0.072213   -0.060373    -0.70561   0.0080309
0.019212    0.086959     0.23528    -0.18403   -0.082079     -0.7135   0.0057288
0.010991    0.088932     0.20272    -0.27151    -0.10411    -0.68259    0.010991
0.0080309    0.083999     0.17838    -0.31919    -0.12352    -0.62208    0.025461
0.010004    0.072818     0.16424    -0.31557     -0.1347    -0.53263    0.045193
0.013951    0.058676     0.15273    -0.26131    -0.13996    -0.42246    0.061965
0.014608    0.040918     0.13234    -0.17383    -0.14555    -0.29979    0.065583
0.010004    0.018226    0.098798   -0.075173    -0.15081    -0.17877    0.058019
0.00079584   -0.007097    0.057361    0.012964    -0.15147   -0.057085    0.045851
-0.01203   -0.028144    0.021186    0.081368    -0.13963    0.083342    0.036971
-0.0265   -0.041299  -0.0034794     0.12544    -0.11694     0.24251    0.034011
-0.036366   -0.048863    -0.01499     0.13925   -0.094247     0.38261    0.031381
-0.041628   -0.050836   -0.020909     0.11952   -0.093918     0.45134    0.023159
-0.045246    -0.04985   -0.025514    0.069529    -0.13503     0.39905   0.0080309
-0.048534   -0.043272    -0.03242  -0.0041372    -0.21987     0.20272   -0.018936
-0.052481   -0.033406   -0.041628   -0.092603    -0.33235    -0.12089   -0.055112
-0.051494   -0.020581   -0.056427    -0.17909    -0.44646    -0.50961   -0.093918
-0.045574  -0.0084125   -0.075501    -0.24684    -0.53493    -0.88057    -0.12417
-0.039326 -0.00019077    -0.09326    -0.28598    -0.57604     -1.1673     -0.1347
-0.03538   0.0070443    -0.10181    -0.29025      -0.554      -1.337    -0.12582
-0.030775    0.019212   -0.093918    -0.26098    -0.45765     -1.3906    -0.10444
-0.026829    0.036314   -0.067609    -0.19784    -0.28762     -1.3518   -0.077803
-0.020252    0.051441   -0.027487    -0.10707   -0.073199     -1.2519   -0.051823
-0.010386    0.059992    0.020528    0.002769      0.1307     -1.1259   -0.033406
0.0037556    0.062623    0.075449     0.11952     0.26882     -1.0138   -0.029789
0.017568     0.06361     0.13596      0.2264     0.30697    -0.94733   -0.038997
0.027434      0.0692     0.19516     0.30237     0.25271    -0.93549   -0.055769
0.031052     0.07512      0.2389     0.34052     0.14484    -0.96575   -0.078132
0.031709    0.073476     0.25435     0.34841    0.033354     -1.0088    -0.10115
0.032367    0.063938     0.23824     0.33756   -0.045246     -1.0371    -0.12417
0.033025    0.048153     0.19812     0.32309   -0.081092     -1.0338    -0.14193
0.03434    0.035327     0.14287     0.32111   -0.082408    -0.99666    -0.14884
0.033354     0.02875    0.083013     0.34084   -0.062018    -0.93121    -0.14489
0.030394    0.032038    0.030394     0.37669   -0.026829    -0.84834    -0.13634
0.02875      0.0373    -0.01203      0.4132    0.015266    -0.76514    -0.12615
0.032696    0.036971   -0.044588      0.4372    0.070187    -0.68489    -0.11003
0.038616    0.031381   -0.063991     0.44082     0.13629    -0.60761     -0.0903
0.041247    0.020528   -0.068595     0.41813     0.19746    -0.53493   -0.071226
0.036971   0.0080309   -0.062676     0.37242     0.22377    -0.47804   -0.054454
0.026447  -0.0028217   -0.053467     0.30796     0.19746    -0.44318   -0.038011
0.013951   -0.011372   -0.045903     0.23298     0.12313    -0.43101   -0.027158
-0.0008485   -0.018936   -0.043601     0.15438    0.030723    -0.44712   -0.019594
-0.014003   -0.021567   -0.043601    0.083999   -0.053467    -0.49251   -0.012359
-0.019594   -0.016634   -0.039326     0.03434    -0.11529    -0.55137  -0.0084125
-0.015976   -0.007097   -0.027816   0.0070443    -0.14851    -0.57702  -0.0061104
-0.0074258   0.0030979   -0.011701   0.0014536    -0.15542    -0.50303  -0.0008485
0.0024402    0.013293   0.0047422    0.016581    -0.13536    -0.26657    0.010333
0.010662    0.025132     0.01987    0.052428    -0.09622     0.13728     0.02579
0.01987     0.04322    0.035327     0.10538   -0.054783      0.6194    0.043877
0.035327    0.061965    0.052757     0.16293   -0.026171      1.0426    0.066569
0.055388    0.073147     0.07216     0.21489   -0.010715      1.2988    0.093536
0.07808    0.079066     0.09551     0.25041  -0.0028217      1.3616     0.11952
0.10143    0.084986     0.12313     0.26257   0.0014536      1.2732     0.14254
0.12379    0.094194     0.15207     0.25337 -0.00051963      1.1045     0.16063
0.14287     0.10702     0.17345     0.22475   -0.011701     0.90123     0.17148
0.15405      0.1182     0.18397     0.18759   -0.037024     0.69076     0.17608
0.15569     0.11886     0.18266     0.15405   -0.072213     0.48916     0.17246
0.14714     0.10866     0.16786     0.13497    -0.11003     0.30993      0.1626
0.12938    0.091563      0.1376     0.13267    -0.13832     0.17641     0.15635
0.10834    0.071173    0.096167     0.14747    -0.14884     0.10998     0.15832
0.088275    0.050126    0.052757     0.17806    -0.13996     0.11886     0.16819
0.07216    0.026776    0.017897     0.21259    -0.11233     0.18463     0.18233
0.059005   0.0014536  -0.0064392     0.23824    -0.06136      0.2754     0.19779
0.047824   -0.020909    -0.02354     0.25106    0.030065     0.35203       0.207
0.036971   -0.037682   -0.037682     0.25468     0.17806     0.38458     0.20404
0.027105   -0.044917   -0.055769     0.24712     0.37307     0.36156     0.18529
0.020857   -0.046232   -0.083065     0.22607     0.58454     0.29217     0.15438
0.017568   -0.046232    -0.11497     0.19154     0.77067     0.20042     0.11721
0.016581   -0.047219    -0.14456     0.14188       0.894     0.13958    0.082355
0.012964   -0.051165    -0.17252    0.076764     0.92853     0.16556    0.061636
0.0024402   -0.057414    -0.19883  -0.0024928     0.86539     0.30138    0.058019
-0.015319   -0.063991    -0.22579   -0.097536     0.72102     0.51843    0.067885
-0.038668   -0.074186    -0.25112    -0.19817     0.52731      0.7493    0.082355
-0.062347   -0.086354     -0.2692    -0.29025     0.31914     0.91044    0.091234
-0.078132    -0.10115    -0.26888     -0.3603     0.12182     0.95648    0.090248
-0.08471    -0.11069    -0.25177    -0.40799   -0.045574     0.90946    0.084986
-0.08471    -0.11168     -0.2179    -0.44054     -0.1735     0.82592    0.077093
-0.083394    -0.10082    -0.17219    -0.46554    -0.25671     0.76771    0.068871
-0.086683   -0.081092    -0.11562    -0.48724    -0.29683     0.76508    0.057361
-0.095891   -0.058071   -0.047877    -0.50106    -0.29683      0.8131    0.044864
-0.10937   -0.041957    0.025461    -0.50204       -0.26     0.88315    0.034669
-0.11891   -0.038339    0.096167    -0.47672    -0.20014     0.93609    0.025132
-0.11562   -0.043272     0.15997    -0.41128    -0.12976     0.93281    0.015266
-0.10313   -0.050179     0.20667    -0.30012   -0.060045     0.84303    0.011977
-0.090958    -0.05544     0.22245    -0.15213  -0.0015062     0.66149    0.015924
-0.087669   -0.053467     0.19976   0.0037556    0.037629     0.41056    0.020199
-0.086025   -0.046561     0.14221      0.1284    0.055717     0.12544    0.021186
-0.080434   -0.039984    0.065254     0.18891    0.053743    -0.15739    0.011977
-0.066293   -0.038668   -0.012688     0.17871    0.035656    -0.40766  -0.0093991
-0.048534   -0.038668   -0.080763     0.11261   0.0086887    -0.59972   -0.033735
-0.031762   -0.036695    -0.13404    0.015266   -0.011701    -0.71811   -0.052481
-0.018607   -0.039984    -0.17022   -0.087669   -0.004466    -0.75922   -0.066951
-0.011372   -0.047548    -0.19159    -0.17646    0.046508    -0.73751   -0.081092
-0.010386   -0.054125    -0.20146    -0.24059     0.14089    -0.68983   -0.095233
-0.014332   -0.057414    -0.19948    -0.27677     0.25797    -0.65562    -0.10346
-0.01499     -0.0584    -0.18567    -0.28663     0.37538    -0.65661    -0.10148
-0.011372   -0.057414     -0.1643    -0.28006     0.47864    -0.68588    -0.09326
-0.007097    -0.05544     -0.1416    -0.27118     0.56053    -0.70857   -0.080763
-0.00051963   -0.052481    -0.12023    -0.27019     0.62137    -0.68358   -0.064978
0.011977   -0.050507     -0.1051    -0.28104     0.67169    -0.58064   -0.042615
0.029736   -0.042944     -0.1005     -0.2965     0.71838     -0.3876   -0.013674
0.047495   -0.031104    -0.10806    -0.30801     0.76377    -0.11003    0.019212
0.057032   -0.023869    -0.12384    -0.30965     0.79863     0.22443    0.049468
0.053415   -0.029131      -0.137    -0.30242     0.80257     0.56349    0.071502
0.032696   -0.051165    -0.13963     -0.2942     0.74732     0.84171    0.084986
0.00079584   -0.077803    -0.12944    -0.28203     0.61742      1.0002    0.085972
-0.034722    -0.10148    -0.11529    -0.25868     0.42569      1.0134    0.073147
-0.064978    -0.11529    -0.10214    -0.21955     0.20831     0.90156    0.048482
-0.085367     -0.1176   -0.092603    -0.16462   0.0083598      0.7049    0.013622
-0.09622    -0.10378    -0.08175   -0.092931    -0.14983     0.46384   -0.025842
-0.099838   -0.078461   -0.064649 -0.00051963    -0.25802     0.19877   -0.065964
-0.09918   -0.048534   -0.045246     0.11919    -0.32084   -0.088656    -0.10115
-0.09918   -0.019265   -0.032749     0.25929    -0.35274    -0.39516     -0.1324
-0.098193 -0.00019077    -0.03242     0.40399    -0.37017    -0.71285    -0.15476
-0.093918   0.0083598   -0.045574     0.53389    -0.38661     -1.0292    -0.16364
-0.083065    0.010333   -0.064649      0.6286    -0.40634     -1.3173    -0.15048
-0.066293    0.012306   -0.080434     0.67103    -0.42147      -1.537    -0.11529
-0.042944    0.013951   -0.085696     0.64899    -0.42575     -1.6478   -0.058071
-0.017292    0.013293   -0.086354     0.56711    -0.42871     -1.6208    0.010991
0.0054   0.0080309   -0.089972     0.44542     -0.4435     -1.4331     0.07216
0.018884   -0.002164    -0.09622     0.30664    -0.48034     -1.0891     0.11097
0.021843    -0.01203   -0.098851     0.17049    -0.53986    -0.64082     0.12346
0.019541   -0.011701   -0.094576    0.055388    -0.61057    -0.18173      0.1159
0.018226  -0.0008485   -0.080763   -0.033406     -0.6747     0.19154    0.096496
0.01691    0.017897   -0.057743    -0.09326    -0.72304     0.42109    0.069858
0.015266      0.0373   -0.036366    -0.12976     -0.7556     0.50429     0.04026
0.013951    0.051441   -0.024856    -0.15936    -0.77665     0.47798   0.0086887
0.010662     0.06361   -0.023869    -0.19192    -0.79013     0.39083   -0.022883
0.002769    0.076764   -0.027816    -0.23138    -0.79572     0.29513    -0.04985
-0.0087413    0.088932   -0.031433    -0.26756    -0.79342     0.23462   -0.070568
-0.016634    0.099785   -0.028144    -0.29518    -0.77862     0.22804   -0.084052
-0.018936     0.10998   -0.013674    -0.31097    -0.74409     0.26948   -0.090629
-0.014332     0.12149   0.0093464     -0.3136    -0.68522     0.33591   -0.092931
-0.0057815     0.13037    0.038944    -0.29847     -0.6109     0.40464   -0.089972
0.0070443     0.13793    0.073804     -0.2669    -0.53033     0.45989   -0.084052
0.021514     0.14089     0.11327    -0.23171    -0.46192     0.49245   -0.075173
0.039931     0.14089     0.15536    -0.20771    -0.42147     0.50462    -0.06432
0.06624     0.14188     0.19417    -0.20409    -0.41884     0.51251   -0.053467
0.094852     0.14484     0.22837    -0.22514    -0.45501     0.52501   -0.042615
0.11623     0.14846     0.25994    -0.25934    -0.52079      0.5454   -0.036037
0.12346     0.14813     0.28099    -0.29058    -0.59478      0.5727   -0.035708
0.11623     0.13991     0.28099    -0.30768    -0.64609     0.60394   -0.042944
0.098798     0.12149     0.26027    -0.30768    -0.64839     0.62992   -0.059716
0.075778    0.096167     0.22443    -0.28137      -0.579     0.64176   -0.075173
0.055717    0.071502     0.19285    -0.21691    -0.43528     0.63321   -0.078132
0.042233    0.053086     0.18693    -0.10247    -0.22415      0.5921   -0.060045
0.040589    0.040589      0.2139    0.057361    0.039602     0.50824   -0.017292
0.055388    0.033025     0.27047     0.24876     0.34446     0.38458    0.040918
0.088275    0.033025     0.34578      0.4451     0.66675     0.24186     0.10636
0.1307    0.039273     0.42898     0.62762     0.95912     0.10242     0.16227
0.17246    0.048153     0.50692     0.78317      1.1485   -0.016634     0.19285
0.20305    0.059334     0.57401      0.9088      1.1722    -0.10477      0.1945
0.21127    0.068543     0.62268     0.99595      1.0029    -0.13996     0.17674
0.19581    0.077751     0.64669      1.0295     0.67728    -0.09622     0.14747
0.15898    0.088275      0.6434      1.0002     0.28329    0.041575     0.11162
0.11458     0.10307     0.61216      0.9157   -0.079777     0.25238    0.074133
0.072489     0.12017     0.55461     0.79468    -0.34813     0.47831     0.04026
0.042233     0.13136     0.47141      0.6582    -0.50829     0.65294   0.0096753
0.023817     0.13169     0.36913     0.52369    -0.57768     0.72102   -0.017621
0.014279     0.11985       0.256     0.39807    -0.58294     0.66346   -0.037353
0.015595     0.10242      0.1455     0.28395    -0.54151     0.49607    -0.04689
0.024803    0.088275     0.04618     0.18299    -0.45962     0.25534   -0.044588
0.035985    0.082355   -0.030775    0.094194    -0.34419   -0.019923   -0.036695
0.040589    0.081368   -0.083394    0.014937    -0.20869    -0.30867   -0.030118
0.03434    0.080382    -0.11825   -0.059387   -0.077803    -0.60662   -0.029789
0.01691    0.071831    -0.14719    -0.13042    0.022501    -0.90392   -0.039326
-0.0090702    0.057032    -0.17613    -0.19718    0.073476     -1.1861   -0.053796
-0.037024    0.039273    -0.21067    -0.25605    0.073476     -1.4403    -0.06728
-0.057743    0.026119    -0.24717    -0.30768    0.039931     -1.6514    -0.07287
-0.066951    0.020528    -0.28335    -0.36162   0.0047422     -1.7988    -0.06728
-0.065964    0.027434    -0.31623    -0.43068  -0.0024928     -1.8734   -0.048205
-0.060373    0.041904    -0.34254    -0.51881    0.026776       -1.88   -0.018936
-0.052481    0.051113    -0.36162    -0.62471    0.084328     -1.8241    0.014608
-0.041299    0.049468    -0.36918    -0.73324     0.15602     -1.7041    0.041247
-0.027158    0.038287    -0.36096    -0.83124     0.22377     -1.5041    0.057032
-0.015648    0.020199    -0.33629    -0.89668      0.2731     -1.2127    0.059663
-0.012688   0.0021113     -0.2919    -0.90688     0.29974    -0.84768    0.053415
-0.019594   -0.012688    -0.22974     -0.8467     0.31289    -0.44383     0.04322
-0.028473   -0.021567    -0.15279    -0.71745      0.3267   -0.053796    0.039273
-0.037353   -0.027158   -0.068924    -0.54381     0.36058     0.26356     0.04322
-0.04097   -0.027158   0.0083598    -0.36063     0.41912     0.45562    0.056374
-0.037682   -0.017292      0.0692    -0.19422     0.49081     0.50462     0.07512
-0.026171   0.0017824     0.10307   -0.061031     0.55461     0.43359    0.097812
-0.007097    0.026447     0.10538    0.030394     0.59243     0.30829     0.12149
0.018555     0.05177    0.076435    0.074133     0.59309     0.21028     0.14385
0.047166    0.075778    0.023817    0.069858     0.55724     0.20469     0.15865
0.071173    0.094852   -0.044917    0.027434     0.50067     0.30039     0.15997
0.08367     0.10538    -0.11497   -0.034064     0.44608     0.45825      0.1478
0.083342     0.10176    -0.16956    -0.09326     0.41517     0.61315     0.12642
0.076435    0.081697    -0.20113    -0.13371     0.40728     0.73417     0.10044
0.070845    0.050784    -0.21428    -0.13897     0.40432     0.84467    0.077093
0.071502    0.017239    -0.21922    -0.10609     0.39313     0.98082    0.058019
0.073804   -0.013674    -0.22218    -0.04689     0.36847      1.1416    0.044535
0.0692   -0.035051    -0.22218    0.023488     0.33394      1.2811    0.039602
0.056703   -0.049521     -0.2202    0.092221     0.29349      1.3396    0.042562
0.038944   -0.062018    -0.21691     0.15536     0.24745      1.2765    0.049797
0.015595   -0.073857    -0.21001     0.21785     0.19713      1.0857    0.056374
-0.0097279   -0.084381    -0.19685     0.30533     0.14484     0.80521    0.061307
-0.028144   -0.088985    -0.17087     0.45134    0.097812     0.48851     0.06624
-0.033735   -0.084381    -0.13174     0.67399    0.059663     0.18989    0.073147
-0.022883   -0.069253   -0.081421     0.95944    0.035985   -0.053467    0.089261
-0.0008485   -0.045246   -0.028802      1.2673    0.022501    -0.21987     0.11195
0.023817   -0.018278    0.018555      1.5445    0.014279    -0.29979     0.13169
0.042562   0.0057288     0.05177      1.7438   0.0077021     -0.2988     0.13728
0.05177    0.016253    0.071173        1.83   0.0021113    -0.23632     0.11886
0.048153   0.0096753    0.081039      1.7875   0.0057288    -0.14456    0.082026
0.033025  -0.0080836    0.090577      1.6316    0.026447   -0.049521    0.043877
0.0093464   -0.030775     0.10998      1.3942    0.065254    0.034011    0.015924
-0.012359   -0.048205     0.15043      1.1055     0.10801    0.098798   -0.002164
-0.0265   -0.054125     0.21061     0.79238      0.1376     0.14254   -0.018278
-0.037024   -0.047877     0.28165     0.47864     0.14385     0.16885   -0.037682
-0.044259   -0.032749     0.33821     0.18463     0.13169     0.18825   -0.058071
-0.044917   -0.011372     0.36025   -0.077475     0.12215      0.2162   -0.073199
-0.036695    0.011977     0.33788     -0.2942     0.13497     0.26488   -0.080763
-0.019923    0.033683     0.27606    -0.46028     0.17115     0.33953   -0.080434
-0.0064392    0.047166     0.18792    -0.58097     0.21259     0.44542   -0.070897
-0.0028217    0.047495    0.094194     -0.6645     0.23758      0.5796   -0.053138
-0.0077547    0.036314    0.010004    -0.72041     0.22804      0.7174   -0.029131
-0.013017    0.018555   -0.049192    -0.75691     0.18693     0.82855  -0.0011774
-0.014003   0.0017824    -0.07583    -0.77698     0.13366     0.88019    0.025132
-0.011043   -0.010715    -0.07583    -0.77763    0.090905     0.85585    0.041904
-0.0061104   -0.019923    -0.06432     -0.7556    0.080711     0.75423    0.042891
-0.0018351   -0.029131   -0.052152    -0.72008     0.10373      0.5967    0.033354
-0.002164   -0.041628   -0.051823    -0.68522      0.1432     0.41879    0.021514
-0.0057815    -0.05544   -0.073857    -0.66516     0.16687     0.25369    0.011977
-0.0097279   -0.067609    -0.11529    -0.66187      0.1524     0.11327   0.0047422
-0.014003   -0.074844    -0.16528    -0.67437    0.097812   -0.013017  -0.0038083
-0.018278   -0.076159    -0.21165    -0.69476    0.018555    -0.14226   -0.014332
