0.0093464   0.0024402    0.041247   -0.099509    -0.29124    -0.73324     0.06065
0.019212 -0.00051963    0.036314   -0.075173    -0.16627    -0.63918    0.075778
0.026776  -0.0024928    0.029078   -0.051165   -0.012359    -0.52868    0.079066
0.030723   -0.002164    0.023817   -0.034722    0.082355    -0.39516    0.079395
0.02875    0.002769     0.02579   -0.031762    0.079395    -0.23895    0.082355
0.021843   0.0073732    0.034011   -0.039655    0.068543   -0.078132    0.085315
0.011648   0.0086887    0.048482   -0.044917     0.21094    0.063938    0.085315
-0.0008485   0.0047422    0.061307   -0.036695     0.58454      0.1672    0.082355
-0.010715   -0.004466    0.065254    -0.01203      1.0999     0.22114     0.07808
-0.011043   -0.015319    0.062623    0.027763      1.5711     0.22212    0.070187
-0.002164   -0.024856    0.059334    0.071831      1.8178     0.17312    0.057361
0.0083598   -0.031433    0.060979     0.11031      1.7892    0.083342     0.04322
0.011648   -0.035708    0.069858       0.133      1.5603   -0.030775    0.029078
0.0034268   -0.037353    0.078409     0.13366      1.2459     -0.1393   0.0093464
-0.013345   -0.037353    0.078409     0.11327     0.95385     -0.2179   -0.020581
-0.032091   -0.038668    0.067227    0.074133     0.76837    -0.25638     -0.0584
-0.044588   -0.038997    0.049468     0.02579     0.70391    -0.25013    -0.09622
-0.04689   -0.037024    0.031381   -0.020581     0.71214    -0.20343    -0.12648
-0.042615   -0.031433     0.01987   -0.055112     0.73022    -0.13174    -0.14062
-0.034722   -0.024198    0.015924   -0.070568     0.70918   -0.053796    -0.13338
-0.030775   -0.018278    0.013622   -0.072542     0.63946    0.020857     -0.1028
-0.027158   -0.016963   0.0067154   -0.067937     0.52435    0.092879   -0.056427
-0.025185   -0.017621  -0.0024928   -0.063333     0.37636     0.15898  -0.0080836
-0.0265   -0.019594  -0.0067681   -0.061689     0.21982     0.20009    0.028421
-0.030118   -0.020909  -0.0067681   -0.064978    0.099785     0.20009    0.042233
-0.033078   -0.018278  -0.0064392   -0.071884    0.061965     0.16095    0.033025
-0.036695   -0.014003  -0.0084125    -0.08175      0.1159    0.097812   0.0080309
-0.041628    -0.01203   -0.012688   -0.092274     0.21324    0.026119   -0.019923
-0.043601   -0.012688   -0.018936     -0.1028      0.2754   -0.034722   -0.039655
-0.039655   -0.013345   -0.028473    -0.11201     0.22804   -0.074186   -0.046561
-0.032749   -0.011043   -0.037682     -0.1176    0.052428   -0.088656   -0.040313
-0.025842  -0.0038083   -0.043601    -0.11661    -0.20442   -0.070897   -0.025514
-0.02354   0.0047422   -0.046232    -0.10444    -0.47047   -0.021896   -0.014003
-0.025842    0.011648   -0.051165   -0.084381    -0.68226    0.038944  -0.0097279
-0.030447    0.014279   -0.061689   -0.058729    -0.78783    0.076435   -0.012359
-0.033735    0.012964   -0.070568   -0.028473    -0.76152    0.064925   -0.019923
-0.027158   0.0080309   -0.076488   -0.002164    -0.62668    0.011977   -0.027158
-0.0090702 -0.00019077   -0.082408   0.0040845    -0.46061   -0.050507   -0.034064
0.017239  -0.0077547    -0.08175   -0.016305    -0.35471   -0.088327   -0.037353
0.04322   -0.014003   -0.069911   -0.056427    -0.36556   -0.082736   -0.036695
0.05769   -0.018278   -0.046232   -0.093918    -0.47902   -0.031762   -0.031104
0.057361   -0.020252   -0.016634    -0.10148    -0.63721    0.046508   -0.023869
0.044864   -0.019594   0.0073732   -0.070897    -0.78816     0.12511   -0.021567
0.027763   -0.015648    0.026119   -0.011372    -0.92694     0.18332   -0.022225
0.0083598    -0.01203    0.039931    0.055388     -1.0687     0.21555   -0.026171
-0.0074258   -0.011372    0.046508     0.10702     -1.2042     0.23232   -0.030447
-0.014003  -0.0093991    0.046508     0.13958      -1.268     0.25041   -0.027158
-0.0087413  -0.0051238    0.044535     0.15569     -1.1729     0.28494   -0.012359
0.0063866   0.0034268    0.042891     0.16753    -0.86248     0.35005    0.014608
0.028092    0.015266    0.044864     0.19154    -0.37543     0.44838    0.047824
0.056046    0.029078    0.053743     0.23528     0.12675     0.57335    0.083342
0.085972    0.044535    0.068871     0.28823     0.43852     0.72003      0.1136
0.10866    0.059992    0.084986     0.32243     0.43918     0.88183     0.13432
0.1136    0.069858    0.092879      0.3198     0.16128      1.0331     0.13596
0.098141     0.07216    0.086959     0.27606    -0.26756      1.1344     0.11524
0.074462    0.064267    0.066569     0.19713    -0.71022      1.1591    0.083342
0.055059    0.049797    0.036314     0.10077     -1.0707      1.1097    0.056374
0.044864    0.032367   0.0024402   0.0093464     -1.3219     0.99266    0.041247
0.0373    0.017568   -0.031104   -0.062347     -1.5025     0.81803    0.038944
0.029736   0.0083598   -0.055769    -0.11102     -1.6652     0.59736    0.046508
0.019212  0.00046697   -0.068924    -0.14489      -1.852     0.35268    0.059334
0.0060577   -0.004466   -0.073528    -0.16923     -2.0714     0.11228    0.066569
-0.0057815  -0.0024928   -0.072542    -0.18633     -2.2871   -0.090629    0.065254
-0.017292   0.0080309   -0.072542    -0.19981     -2.4387    -0.23599    0.052428
-0.029131    0.024145   -0.074515    -0.21264     -2.4634    -0.32051    0.030723
-0.039326    0.038287   -0.071555    -0.22711     -2.3204    -0.35866   0.0070443
-0.046232    0.045522   -0.061689    -0.24125      -2.024    -0.37609   -0.011043
-0.051165     0.04618   -0.045246    -0.25046     -1.6333    -0.38793   -0.016634
-0.057414     0.04026   -0.027816    -0.25046     -1.2147    -0.40634   -0.012688
-0.06728    0.031709   -0.014661    -0.23994    -0.81743    -0.43627  -0.0064392
-0.079119    0.019541  -0.0077547     -0.2202    -0.45962    -0.47277  -0.0041372
-0.088656   0.0077021  -0.0028217    -0.19455    -0.12615    -0.50467  -0.0047949
-0.087341   0.0037556   0.0030979    -0.16035     0.22903    -0.50763  -0.0034794
-0.071884    0.010991    0.012964    -0.11398     0.65458    -0.46587   0.0090175
-0.040641     0.02579    0.026776   -0.056098      1.1515     -0.3876    0.039602
-0.0008485    0.040589    0.045522   0.0070443       1.633    -0.30374    0.079724
0.03434    0.053415    0.068214      0.0692      1.9927    -0.24191     0.11491
0.05473    0.063938    0.088275     0.12511      2.1624    -0.21659     0.14056
0.062294    0.072489     0.10274     0.17312      2.1279    -0.22908     0.15767
0.065912     0.07512     0.10801     0.21357      1.9303     -0.2771     0.16654
0.067885    0.067556     0.10735     0.23955       1.653    -0.35339     0.16194
0.0692    0.052757     0.10406     0.24218      1.3939    -0.43134     0.14517
0.066898    0.040589    0.099785     0.21851      1.2189     -0.4708     0.12116
0.062294    0.036642     0.09255     0.17246      1.1305    -0.44252    0.094852
0.055388      0.0373    0.081697     0.11097      1.0653    -0.35405    0.065912
0.043549    0.038287    0.073804    0.047495     0.94793    -0.24257    0.035985
0.030065    0.039931     0.07216   -0.011043     0.76837    -0.14983     0.01132
0.020199    0.048153    0.072489   -0.060373     0.56151   -0.094576  -0.0041372
0.013951    0.061307    0.066569    -0.10181     0.37538   -0.071226  -0.0093991
0.0096753    0.071173    0.050455    -0.13667     0.26685   -0.065635  -0.0057815
0.0054    0.071173    0.027434    -0.16331     0.28395    -0.07024   0.0040845
-0.0034794    0.061965    0.010004    -0.17811      0.4349    -0.08471    0.018226
-0.015319    0.049468 -0.00019077    -0.17712     0.65656    -0.12154    0.038287
-0.024198    0.037958  -0.0064392    -0.15936      0.8177    -0.18929    0.061636
-0.024856    0.031381   -0.010715    -0.12812     0.78909    -0.28335    0.082355
-0.018607    0.031052   -0.017292   -0.090629     0.51416    -0.37872    0.096167
-0.010386    0.038616   -0.026829   -0.052152    0.079724     -0.4412     0.10044
-0.0031506     0.04881   -0.034064   -0.020252     -0.3307    -0.44515    0.095839
0.0047422    0.058348   -0.034722   0.0034268     -0.5688    -0.38332    0.085315
0.012635    0.063281   -0.028473    0.021514    -0.60695    -0.26624    0.074133
0.021514    0.063938   -0.019923    0.040589     -0.4685    -0.11464    0.067885
0.02875    0.062952  -0.0084125    0.064925    -0.12187    0.048153    0.065912
0.033683    0.065912      0.0054    0.095181     0.45496     0.21094    0.065254
0.036971    0.069858    0.023159     0.12774      1.1449     0.36584    0.063938
0.04026    0.071831    0.041247     0.15536      1.7172     0.50166    0.061965
0.04322    0.070516    0.057361     0.17049      1.9645     0.61446    0.063938
0.049139    0.064267      0.0692     0.17312      1.8175      0.7003    0.067885
0.053415    0.052428    0.074133     0.16589      1.3659     0.75851    0.067885
0.052428     0.04026    0.071173     0.15273     0.79106     0.79205    0.060321
0.044535    0.030065    0.059005       0.133     0.27211     0.79271    0.043549
0.030394    0.020857    0.039931     0.10899   -0.073528     0.74732    0.021843
0.010991    0.014608    0.019212    0.081368    -0.22251     0.63946   -0.004466
-0.014661   0.0096753 -0.00019077    0.054401    -0.23665     0.46943   -0.036366
-0.043272   0.0034268   -0.016634     0.03434    -0.19587     0.25304   -0.076817
-0.070568  -0.0015062   -0.027816     0.02579     -0.1518    0.024803    -0.11793
-0.09326  -0.0041372   -0.030118    0.031052    -0.10214     -0.1814    -0.14555
-0.10839  -0.0051238   -0.024856    0.059005  -0.0090702    -0.33827    -0.15575
-0.11562  -0.0077547   -0.015976     0.10932     0.17115    -0.44022    -0.15476
-0.11497   -0.010057   -0.011372     0.17246     0.45003    -0.48987    -0.14785
-0.10773  -0.0084125   -0.015319     0.22311     0.75292    -0.49415    -0.13536
-0.095562  -0.0061104   -0.029131     0.23265     0.92919    -0.45534    -0.12056
-0.083394  -0.0038083   -0.048534     0.18891     0.86802    -0.37839     -0.1028
-0.071226  0.00079584   -0.066622     0.10899     0.58454    -0.26888   -0.083723
-0.056427   0.0050711   -0.075501    0.029078     0.14879    -0.14095    -0.06432
-0.035051    0.010333   -0.070897   -0.025185    -0.39089   -0.010386    -0.04689
-0.011372     0.01691   -0.056098   -0.046232    -0.99797      0.1136    -0.03242
0.0083598    0.027434   -0.036366   -0.037024      -1.609     0.22377    -0.01795
0.024803    0.039931   -0.016963  -0.0090702     -2.0796     0.32177   0.0021113
0.040918    0.052428  -0.0024928    0.018226     -2.2506     0.40103    0.027763
0.054072    0.061636   0.0030979    0.031381     -2.0806     0.47272    0.055388
0.061965    0.065912   0.0014536    0.029736     -1.6695     0.55592     0.07808
0.062623    0.062294  -0.0051238    0.023488     -1.1983      0.6513     0.10011
0.056046    0.056046   -0.011372    0.022501    -0.82137     0.74305     0.12083
0.046508    0.049468   -0.013017    0.029078    -0.63458     0.80981     0.13793
0.039931    0.041904  -0.0064392    0.035656     -0.6747     0.83743      0.1455
0.038616     0.03434   0.0021113    0.041904    -0.89109     0.82494     0.13958
0.042233    0.029407   0.0093464    0.048482     -1.1673     0.77429      0.1205
0.050784    0.029736   0.0086887    0.055388     -1.4008     0.69207    0.094523
0.059334     0.03434    0.002769    0.052428     -1.5281     0.57467    0.064596
0.060321    0.036314  -0.0011774    0.039273     -1.5159     0.42109    0.036314
0.050455    0.034998  0.00079584    0.017897      -1.361      0.2412    0.013622
0.033683    0.029736   0.0060577   0.0044134     -1.0884    0.054072  -0.0011774
0.016581    0.023817    0.011648    0.010004    -0.74771     -0.1222  -0.0097279
0.0017824    0.018555   0.0090175    0.025461    -0.40075      -0.284   -0.016305
-0.011701    0.011648   -0.010057    0.029407   -0.089972    -0.43265   -0.027158
-0.024527  -0.0041372    -0.04097   0.0060577     0.16293    -0.56716   -0.044917
-0.033078   -0.024527   -0.071555   -0.045574     0.33756    -0.67174   -0.063662
-0.036695   -0.044588   -0.090629    -0.11398     0.42734    -0.74277   -0.075501
-0.034722   -0.061031   -0.096549    -0.18337      0.4645    -0.80493   -0.077475
-0.028802   -0.068924   -0.093589      -0.235      0.4987    -0.89405   -0.075173
-0.020581   -0.068924   -0.083723     -0.2623     0.57467     -1.0263   -0.076159
-0.0097279   -0.063991   -0.072542     -0.2623     0.69043     -1.1785   -0.086025
0.0017824   -0.056427   -0.057743    -0.23961     0.80685     -1.2903   -0.099838
0.01132    -0.04097   -0.038997     -0.1985     0.87295     -1.3081    -0.10773
0.023159   -0.019265    -0.01795    -0.14752     0.83842     -1.2167    -0.10082
0.038287   0.0096753    0.002769   -0.094905      0.6832     -1.0259   -0.076817
0.061307    0.036971     0.02283   -0.045246     0.43819    -0.75494    -0.04097
0.089261    0.056046    0.038616   -0.002164     0.16556    -0.43265  -0.0024928
0.1159    0.062294    0.049139    0.028092   -0.081092    -0.09326    0.028421
0.13004     0.05473    0.053415    0.041904    -0.27874     0.22771    0.044864
0.12708    0.039273    0.049468    0.039931    -0.43265     0.50265    0.049139
0.10965    0.023159    0.037958    0.027105    -0.54381     0.71641    0.049468
0.087617    0.012635    0.023817    0.014608    -0.60662      0.8621    0.054072
0.067885   0.0067154    0.015924    0.011648    -0.60531     0.93017     0.06361
0.057361      0.0054    0.017239    0.024474    -0.53592     0.91834    0.074133
0.056703   0.0083598    0.026776    0.056374    -0.40042     0.83086     0.07808
0.058348    0.015266    0.041247     0.11557     -0.1712      0.6924    0.075449
0.055717    0.021186    0.055717     0.20305     0.20042     0.53225    0.067885
0.047824    0.023488    0.064267     0.31519     0.70293     0.38294    0.058019
0.036971    0.020528    0.068214     0.43753      1.2571     0.26915    0.049468
0.026447    0.014937    0.064925     0.54836      1.7599     0.21094    0.045193
0.019212   0.0080309    0.055388     0.61972      2.1157     0.21324    0.040589
0.016581 -0.00019077    0.044206     0.62893      2.2621     0.25698    0.036314
0.01691  -0.0093991    0.035985     0.57237      2.1911      0.3073    0.027763
0.015266   -0.018278    0.030394     0.46845      1.9329     0.32506    0.013622
0.0086887   -0.024527    0.025461      0.3494      1.5399     0.27869  -0.0087413
-0.0018351   -0.029131    0.015924     0.24251      1.0736     0.15438   -0.037682
-0.0093991   -0.031762   0.0030979     0.16424     0.59999   -0.029789   -0.060045
-0.0077547   -0.029131  -0.0087413     0.11787      0.1751    -0.23994   -0.066622
-0.00051963   -0.019265    -0.01499    0.094194    -0.18107    -0.45699   -0.057743
0.010004  -0.0051238   -0.012359    0.083342    -0.47869    -0.67371   -0.039326
0.021843     0.01132 -0.00051963    0.074791    -0.73784    -0.87958    -0.02354
0.033683    0.024803    0.013293    0.058019    -0.96772     -1.0545   -0.015648
0.043549    0.028421    0.021186    0.030723      -1.165     -1.1854   -0.021567
0.045851    0.022172    0.020857  -0.0047949     -1.3242     -1.2663   -0.035708
0.038616    0.010662     0.01691   -0.044588     -1.4127     -1.2969   -0.048534
0.025461  -0.0031506    0.011648   -0.081421      -1.343     -1.2795   -0.049192
0.012306   -0.016305   0.0083598    -0.10576     -1.0299     -1.2061   -0.038339
0.0011247   -0.028144   0.0086887    -0.10477    -0.46817     -1.0657   -0.022554
-0.0067681   -0.035051    0.015924   -0.082736     0.23265    -0.85689  -0.0031506
-0.0074258   -0.035708    0.026776    -0.04985     0.88676    -0.59544    0.017897
0.002769   -0.032749    0.037629   -0.019923      1.3232     -0.3067    0.037629
0.017568   -0.030447    0.041247  -0.0028217      1.4613    -0.01499    0.058019
0.029736   -0.033406    0.035327  -0.0015062      1.3278     0.26455    0.070516
0.02875   -0.043272    0.015924   -0.018936      1.0229     0.51745     0.07216
0.012964   -0.053138  -0.0077547   -0.049521      0.6605     0.72989     0.06624
-0.01203   -0.056756   -0.027816   -0.084052     0.31782     0.88084     0.05177
-0.033406   -0.050507   -0.039984    -0.11529    0.031709     0.95944    0.029407
-0.045574   -0.036366   -0.042615    -0.14325    -0.18633     0.96142   0.0073732
-0.045246   -0.025514    -0.04097    -0.17318    -0.33366     0.89301   -0.012688
-0.04097     -0.0265   -0.038011    -0.20047    -0.41752     0.77067   -0.029789
-0.037353   -0.036037   -0.036037     -0.2179    -0.44515     0.61644    -0.04393
-0.037682   -0.047219   -0.032749    -0.22283    -0.43134     0.45562    -0.05281
-0.038997   -0.054125   -0.027487    -0.21099    -0.40832     0.29612    -0.05281
-0.037024   -0.052481   -0.018607     -0.1906    -0.39746     0.13826   -0.044917
-0.032749   -0.041957   -0.010386    -0.16989    -0.38299    -0.01499   -0.030118
-0.027158   -0.030775  -0.0077547    -0.15575    -0.32281    -0.15903   -0.011372
-0.021567   -0.021567   -0.013017     -0.1518    -0.20212    -0.28335   0.0073732
-0.018278   -0.014003   -0.025842    -0.15838   -0.060045    -0.37806    0.019212
-0.016963   -0.007097    -0.04097     -0.1712    0.030394    -0.43989    0.020199
-0.020252  -0.0018351   -0.053138    -0.18666    0.025132    -0.46718   0.0090175
-0.027816  0.00046697   -0.058729    -0.19916   -0.068595     -0.4537   -0.012359
-0.038668  0.00046697   -0.059387    -0.20475    -0.21593    -0.40174    -0.03538
-0.047877 -0.00019077   -0.056098    -0.20179    -0.37378    -0.31919   -0.054125
-0.053138  -0.0028217   -0.050836    -0.19258    -0.52441    -0.22777   -0.065635
-0.054125  -0.0024928   -0.046232    -0.18041     -0.6645    -0.14127   -0.069911
-0.053138   0.0047422    -0.04393    -0.16726    -0.78914   -0.066622   -0.065307
-0.049192    0.018884   -0.044259    -0.15673    -0.88287   0.0063866   -0.050179
-0.041628    0.032696   -0.044917    -0.14719    -0.92529    0.099127   -0.031433
-0.032091    0.042891   -0.041957    -0.13667    -0.89274     0.22508   -0.012359
-0.016634    0.050784   -0.028802    -0.11562    -0.74573     0.37406    0.010662
0.0047422     0.06065  -0.0034794    -0.07583    -0.43134     0.51712     0.04026
0.027105     0.07216    0.027105    -0.01795    0.063281      0.6263    0.069529
0.047495    0.082684    0.053743    0.053086     0.68122     0.68846    0.096825
0.060321    0.088932    0.073804      0.1284      1.3501      0.7003     0.12248
0.06361    0.092879    0.090577     0.19285      2.0046      0.6776     0.14517
0.058348    0.089919     0.10274     0.22969      2.5403     0.63748     0.15997
0.049797    0.079066     0.10768     0.22771      2.8514     0.59835     0.15931
0.036971    0.064267     0.10636     0.19154      2.9001     0.57664      0.1455
0.026776     0.04618     0.10044     0.13925      2.7281     0.58947      0.1284
0.022172    0.028092    0.090905    0.087288      2.4393     0.64735     0.11524
0.022501    0.015924    0.078409    0.049139       2.122     0.73779      0.1057
0.022501    0.014608    0.061965    0.025461      1.8161     0.82428    0.096167
0.016581     0.02283     0.04322    0.010662      1.4991      0.8644    0.084986
0.0034268    0.032696    0.022501  -0.0057815      1.1403     0.83612    0.067227
-0.014332    0.035985   0.0030979   -0.032749     0.75522       0.747    0.042562
-0.031762    0.031381   -0.015319   -0.074844     0.42339     0.62104    0.017568
-0.043272    0.020857   -0.037682    -0.12516     0.25468     0.49278  -0.0018351
-0.045574    0.013951   -0.061689    -0.16693     0.29382     0.39017   -0.011701
-0.038668    0.013293   -0.080434    -0.18863     0.43655     0.31848   -0.014003
-0.024198    0.016581   -0.086354    -0.17548     0.49212     0.27014   -0.013017
-0.0074258    0.025132   -0.079448    -0.12944     0.29743     0.23429  -0.0084125
0.0073732     0.03434   -0.066951   -0.066293    -0.19521     0.18661  -0.0008485
0.019541    0.047166   -0.050179   0.0001381    -0.88188    0.091563    0.010004
0.030065    0.062952   -0.029789    0.065254     -1.5936   -0.073199    0.019541
0.0373    0.079066  -0.0047949     0.12116     -2.1812    -0.30933    0.024803
0.044535    0.092879    0.022501      0.1649     -2.5631    -0.58985    0.027434
0.057361     0.10209    0.050126     0.19877     -2.7124     -0.8661    0.034669
0.075449     0.10998    0.077422     0.22574      -2.638     -1.0855    0.049139
0.093536     0.11886    0.099127     0.24745     -2.3776     -1.1989    0.066569
0.11195     0.12905     0.10899     0.26389      -2.001     -1.1805    0.087288
0.12905     0.13629     0.10965     0.27112      -1.587     -1.0338     0.11031
0.14188     0.13563     0.10143     0.27112     -1.2117    -0.78322     0.13629
0.1455     0.12577     0.08663     0.27277    -0.91806    -0.46061     0.15668
0.13958     0.10998    0.070516     0.28527    -0.69607   -0.088985     0.16326
0.12807    0.093208    0.057032     0.30697    -0.50599     0.31947     0.15438
0.11393    0.079066    0.049468     0.33328    -0.33761     0.73351     0.13136
0.097483     0.06624    0.043877     0.35236    -0.23698      1.0706    0.097154
0.076435     0.05473    0.036971     0.34512    -0.26296      1.2278    0.050784
0.053743    0.038944     0.02875     0.29941    -0.42805      1.1571   -0.002164
0.030394    0.021843    0.018226     0.21752    -0.70199      0.8963   -0.048534
0.0060577   0.0047422    0.002769     0.11458     -1.0249     0.54178   -0.079777
-0.020909   -0.010386   -0.017621     0.01132      -1.316     0.19713   -0.092931
-0.048534   -0.022225   -0.041628    -0.07583     -1.4998   -0.071884   -0.096878
-0.07287   -0.029131   -0.063333    -0.13503     -1.5304     -0.2452    -0.10082
-0.09326   -0.029789   -0.077475    -0.17087     -1.3962    -0.33925    -0.10313
-0.10641    -0.02354   -0.079777    -0.18666     -1.1183    -0.37872    -0.10378
-0.10674   -0.012688   -0.069582     -0.1883    -0.72929    -0.39385   -0.098851
-0.099838  -0.0034794   -0.053796    -0.18469    -0.24651    -0.41489   -0.090629
-0.090958 -0.00051963   -0.038997    -0.17877      0.3175    -0.46093   -0.084052
-0.082736   0.0011247   -0.028802    -0.16528     0.92228    -0.52276   -0.082408
-0.07583  0.00046697   -0.024198    -0.14062      1.4935    -0.56486   -0.078461
-0.069582  -0.0018351   -0.022883    -0.10181      1.9016    -0.55499   -0.064978
-0.057743   -0.002164   -0.026171   -0.055769      2.0029    -0.48231   -0.041957
-0.038668      0.0054    -0.03242   -0.014003      1.7362    -0.36918   -0.010715
-0.014332    0.019541   -0.032091    0.016253       1.166    -0.24585    0.023488
0.012306    0.034998    -0.02354      0.0373     0.50133    -0.13503    0.055388
0.038944    0.045851  -0.0041372    0.059992    0.024145   -0.041299    0.084328
0.066569     0.04881    0.023159     0.09255   -0.089314    0.048482     0.10932
0.088932     0.04618    0.052428     0.13004     0.14648     0.15175     0.12445
0.099785    0.041904    0.076764      0.1626     0.54573     0.26192     0.12873
0.098798    0.039273    0.089919     0.17838     0.90847       0.354     0.12675
0.088932    0.036314    0.090248     0.17049      1.1607     0.40728     0.11985
0.074791    0.030065    0.083342     0.14221      1.3153     0.41155     0.10834
0.05769    0.020857    0.066569      0.1034       1.358     0.37472    0.096825
0.042233    0.010333    0.044864    0.066898      1.2252     0.31256    0.088932
0.034998    0.002769    0.025132    0.041575     0.87427     0.24218    0.085972
0.039602  -0.0015062    0.013951    0.031052     0.33953      0.1695    0.085972
0.049139  -0.0038083    0.013293    0.032696      -0.284    0.094852    0.085644
0.052757  -0.0064392    0.021186    0.036971    -0.88123   0.0083598    0.081368
0.049139  -0.0093991    0.030394    0.033683     -1.3597   -0.097864    0.064267
0.037629    -0.01203    0.034998    0.023159     -1.6551     -0.2202    0.034998
0.021514   -0.013017    0.035327   0.0060577     -1.7547     -0.3432  -0.0015062
0.0044134   -0.010715    0.034998    -0.01795     -1.6883    -0.44613   -0.040641
-0.012688  -0.0080836    0.034669   -0.046232     -1.5113    -0.50895   -0.080106
-0.028144  -0.0087413    0.033025   -0.074186     -1.2851    -0.52276    -0.11825
-0.040641   -0.011701     0.02579   -0.099838     -1.0664    -0.49415    -0.14917
-0.04985    -0.01499    0.011977     -0.1245    -0.89076    -0.44449    -0.16298
-0.056427   -0.021238   -0.010386    -0.14818     -0.7556    -0.39779    -0.16002
-0.061689   -0.031433   -0.034393    -0.16989    -0.62964    -0.37674    -0.14884
-0.066951   -0.045246   -0.052481    -0.18896    -0.45732     -0.3876    -0.13897
-0.067937   -0.057085   -0.059387     -0.2031    -0.18403    -0.41752    -0.13305
-0.062347   -0.061031   -0.057743    -0.20935     0.22114    -0.44679    -0.12845
-0.051823   -0.053467   -0.053467    -0.20639     0.72365    -0.45797    -0.12187
-0.041957   -0.041299   -0.049521    -0.19324      1.2511    -0.43232    -0.10839
-0.036366   -0.031104    -0.04689    -0.16791      1.7224     -0.3603   -0.089314
-0.034722   -0.020581   -0.041957    -0.13667      2.0631    -0.25309   -0.069911
-0.03538  -0.0093991   -0.034393    -0.10313      2.1953    -0.13207   -0.053138
-0.036037  -0.0038083   -0.027816   -0.074844      2.0562   -0.014332   -0.043272
-0.041957  -0.0028217   -0.027487   -0.053796      1.6705    0.097483   -0.039326
-0.052481  -0.0067681   -0.033406   -0.038997      1.1538     0.21456   -0.039326
-0.06432   -0.018607   -0.043601   -0.030775     0.64899      0.3369   -0.041299
-0.074515   -0.039326   -0.054125    -0.02354     0.25764     0.44575   -0.043272
-0.083065   -0.061689    -0.06136   -0.013017    0.032696     0.52205   -0.041957
-0.089643   -0.076159   -0.064649   0.0080309  -0.0031506     0.56382   -0.037353
-0.094905   -0.076488   -0.063004    0.044864     0.17378     0.58486   -0.024856
-0.095891   -0.066951   -0.055112    0.094194     0.58092     0.59309  -0.0038083
-0.092274   -0.052152   -0.040313     0.14648      1.1673     0.58947    0.020528
-0.085696   -0.040313   -0.021896     0.18496      1.7895     0.55855    0.040918
-0.07879    -0.02946  -0.0024928      0.2014       2.269     0.48818    0.051441
-0.069911   -0.016305    0.016581     0.19483      2.4574     0.37307     0.05177
-0.058071  -0.0011774    0.031052     0.17181      2.2937     0.22245    0.045851
-0.044259    0.015924    0.041247     0.14385      1.8132     0.05177    0.039602
-0.030118    0.030394     0.04881     0.12116      1.1209    -0.12023     0.03434
-0.017292    0.038616    0.054401     0.10603     0.32835    -0.27414    0.030065
-0.0061104    0.037958    0.059334    0.096496    -0.52737    -0.39746    0.024474
0.002769    0.029736     0.06361    0.092221     -1.4462    -0.48001     0.02283
0.010662    0.018555    0.070187    0.095181     -2.3884    -0.52309    0.027105
0.021186    0.013622     0.07808     0.10834     -3.2247    -0.52967    0.039931
0.036971     0.01987    0.088275     0.13004     -3.7749    -0.50171    0.059005
0.058019    0.036642     0.10242     0.15438     -3.9561    -0.43594    0.084328
0.083999    0.058019      0.1182     0.17707     -3.8433    -0.32873     0.11458
0.10801    0.079066     0.13234     0.19351     -3.5658    -0.18337     0.14254
0.12544    0.097154     0.14418     0.20075     -3.2159   -0.002164     0.16227
0.13629     0.10866     0.15701     0.20075     -2.8067     0.21259     0.17575
0.14616     0.10669     0.16918     0.19877     -2.3049     0.44542     0.18628
0.15964    0.097154     0.17575     0.20108     -1.6906     0.65689     0.20469
0.1774    0.087288     0.17411     0.19943    -0.98153     0.79731     0.22969
0.19121    0.082355     0.16424     0.18792    -0.22185     0.82888     0.25337
0.19384    0.080382     0.15109      0.1695     0.50824     0.74371     0.26455
0.18397    0.079395     0.13563     0.14977      1.0963     0.55987     0.26257
0.16457    0.075778     0.12412       0.133      1.4419     0.29645     0.25468
0.14221    0.071831     0.11721     0.11886      1.4971   -0.031762     0.24218
0.11853    0.067227     0.11031     0.10143      1.2959    -0.39352     0.22574
0.096167    0.059005    0.097483    0.075449     0.95122    -0.73751     0.20732
0.076435     0.04618    0.076764    0.036971     0.59013     -1.0062     0.19121
0.059663    0.030723    0.052428   -0.007097     0.30894     -1.1562     0.17411
0.048153    0.014608    0.028421   -0.045903     0.14418     -1.1693      0.1501
0.037629   0.0014536   0.0067154   -0.071226    0.084657     -1.0647     0.11491
0.02579  -0.0084125   -0.014661   -0.087998    0.093865    -0.88386    0.072818
0.012964   -0.012359   -0.035051    -0.10411     0.12313    -0.66911    0.033025
-0.00019077   -0.013017   -0.050507    -0.12352     0.12215    -0.45304    0.002769
-0.010715   -0.011372   -0.060373    -0.14489    0.065912    -0.25835   -0.011043
-0.018607  -0.0093991   -0.060702    -0.16791   -0.036695    -0.10543  -0.0090702
-0.022225  -0.0064392   -0.051494    -0.19159    -0.15476   0.0047422    0.002769
-0.02354   0.0014536   -0.038668    -0.21001    -0.22777     0.08663    0.015924
-0.023211    0.010662   -0.030447    -0.21856     -0.1837     0.17345    0.028092
-0.02354    0.023159   -0.030447    -0.21264    0.021514     0.29119    0.034011
-0.024527     0.03434   -0.036037    -0.19225     0.36189      0.4395    0.031381
-0.022883      0.0373   -0.043601    -0.16035     0.74075     0.58815    0.018884
-0.019265    0.031709   -0.052481    -0.12286      1.0663     0.70161  -0.0034794
-0.015648    0.022501   -0.057743   -0.086354      1.2636     0.75193   -0.032091
-0.012359    0.014937   -0.054783   -0.056427      1.2817     0.72463    -0.06136
-0.0097279    0.012964   -0.041299   -0.038997       1.114     0.62203    -0.08175
-0.0067681    0.020857   -0.024527   -0.035051     0.79896     0.45989   -0.089643
0.00046697    0.036314   -0.010057   -0.040641     0.40267     0.25271   -0.085696
0.01132    0.053415 -0.00051963    -0.04985    0.022172    0.010662   -0.071884
0.021514    0.062623   0.0057288   -0.054454    -0.26855    -0.24651   -0.055769
0.023817     0.06065   0.0073732   -0.052152    -0.45304    -0.47212   -0.040313
0.020199     0.05177   0.0050711   -0.043601    -0.53953    -0.62537   -0.030775
0.010333    0.040918   0.0017824   -0.028144    -0.54216    -0.68325   -0.028144
-0.0031506    0.036314   0.0021113  -0.0051238    -0.48922    -0.64642   -0.031762
-0.016634    0.039273    0.010662    0.025132    -0.42903    -0.53131   -0.041299
-0.024856    0.043549    0.022501    0.053743     -0.3705    -0.36951   -0.050507
-0.026829     0.04618    0.028092    0.075778    -0.28696    -0.18501   -0.053796
-0.024527    0.044535    0.026776    0.090248    -0.13897   0.0057288   -0.051823
-0.020252    0.039273    0.017568    0.099456     0.10603     0.17904   -0.045574
-0.014332    0.031709    0.002769    0.097483     0.43227     0.31421   -0.038668
-0.013017    0.023488   -0.011372    0.084328     0.75522     0.39379   -0.035051
-0.019594    0.018555   -0.021238    0.058676     0.98411     0.41254   -0.037353
-0.035708    0.015924     -0.0265    0.024145      1.0686     0.38294   -0.051165
-0.055112    0.012306   -0.034722   -0.014003     0.99989      0.3267    -0.07287
-0.067937   0.0070443   -0.049521   -0.046561     0.81573     0.26882   -0.094247
-0.072213   0.0057288   -0.065307   -0.066951     0.58092     0.22212     -0.1051
-0.071884   0.0086887   -0.076488    -0.07583     0.34545     0.18167     -0.1005
-0.068595    0.016253   -0.081421   -0.085039     0.13793     0.13859    -0.08175
-0.062347    0.026119   -0.085039    -0.10674   -0.024856    0.091892   -0.053796
-0.055769    0.030065   -0.086354    -0.13897    -0.14917    0.047824   -0.030775
-0.051494    0.024474   -0.087341     -0.1643    -0.23698    0.010991   -0.023211
-0.04985   0.0080309   -0.086683     -0.1689    -0.28565  -0.0084125   -0.035051
-0.047219   -0.012359   -0.085367    -0.14719    -0.30242  -0.0090702   -0.056098
-0.04097    -0.02354   -0.080106   -0.098851    -0.27611    0.016253    -0.07024
-0.02946   -0.018936   -0.066951   -0.028144    -0.17877     0.06624   -0.065964
-0.014332   0.0014536   -0.047548    0.044535    0.041575     0.12971   -0.043601
0.0047422    0.026119   -0.026829    0.094194     0.41648     0.19318   -0.010715
0.02283    0.045522   -0.011372    0.099456     0.87887     0.25633    0.016581
0.033354    0.052757   -0.002164    0.067556      1.2952      0.3221    0.027434
0.039931    0.045522   0.0037556    0.026776      1.5429     0.39083    0.022501
0.04322    0.026447   0.0073732   0.0030979      1.5619     0.45759   0.0090175
0.045193      0.0054    0.012635    0.010991      1.3682     0.51449  -0.0011774
0.046837  -0.0090702    0.021186    0.047166      1.0565     0.55757  -0.0034794
0.047166   -0.012359    0.031052    0.096825     0.77725     0.59276  0.00046697
0.044864  -0.0080836    0.038616     0.15142     0.63683     0.63979    0.014937
0.042562   0.0017824    0.045851     0.20996     0.60197     0.71641    0.038287
0.048153    0.013622    0.057361     0.27803     0.56447     0.82658     0.06624
0.059005    0.025132    0.074791     0.35762     0.48226     0.94793     0.09255
0.07216    0.034998    0.096167     0.43885     0.39215      1.0374     0.11064
0.08367    0.044864     0.11656     0.50791     0.34611      1.0525      0.1182
0.091234    0.053086     0.12905     0.54606     0.34512     0.97753      0.1159
0.091892    0.057361      0.1307     0.53685     0.33821     0.82592     0.10702
0.084986    0.057032     0.12313     0.47338     0.26159     0.62959    0.097154
0.074462    0.054401     0.11228     0.37044    0.094523     0.41879    0.088275
0.058019    0.051441     0.10472     0.25369    -0.13963     0.21851    0.079395
0.038944    0.050126     0.10505     0.14813    -0.38891    0.040589    0.070187
0.023817    0.046837      0.1113    0.070845    -0.60432    -0.11069    0.060979
0.013951    0.038616     0.11327    0.029078    -0.76678    -0.23402    0.056046
0.010333    0.025132     0.10439    0.016581    -0.87366     -0.3261    0.057032
0.010662    0.011648    0.083342    0.016581    -0.92595    -0.38562    0.061307
0.013951   0.0014536    0.055717    0.012306    -0.92825    -0.41358    0.061965
0.012635  -0.0057815    0.029407  -0.0047949    -0.88583    -0.41292     0.05473
0.0030979   -0.011701    0.010662   -0.030775     -0.8069    -0.39154    0.042891
-0.010386   -0.018278  -0.0031506   -0.057743    -0.71022    -0.36786    0.032038
-0.020252   -0.024856   -0.011701   -0.074844    -0.60202     -0.3603    0.020199
-0.024527   -0.028144   -0.015648   -0.079448    -0.47113    -0.37937   0.0073732
-0.024856   -0.027487   -0.018936   -0.073857    -0.30538    -0.42377   -0.007097
-0.024198   -0.028802   -0.018936   -0.059058    -0.10378    -0.47409   -0.021896
-0.021567   -0.034064   -0.014661   -0.036695     0.12511    -0.49678   -0.031762
-0.017292   -0.037353  -0.0054526  -0.0090702     0.35795    -0.46455   -0.031762
-0.013017   -0.032749   0.0047422    0.022501     0.56283    -0.36622   -0.019594
-0.010057   -0.022225    0.015266    0.046508     0.70457    -0.21593  -0.0051238
-0.0093991   -0.013674    0.020857    0.052757     0.76048   -0.041957   0.0034268
-0.010057   -0.013345    0.021186    0.039602     0.73581     0.11524   0.0040845
-0.011043   -0.023869    0.017568    0.011977     0.65327     0.22212  -0.0024928
-0.012688   -0.041628    0.010333   -0.024856     0.53356     0.26356   -0.015648
-0.013674   -0.057743  -0.0041372   -0.064649     0.39807     0.24383    -0.03242
-0.016305   -0.068266   -0.020909   -0.095233     0.26356     0.18266   -0.045903
-0.018936   -0.068595   -0.039655    -0.11003     0.13695     0.10538   -0.051165
-0.019923     -0.0584    -0.05544    -0.11036    0.023488    0.035985   -0.043601
-0.014003   -0.041957    -0.06432    -0.10346   -0.073857  -0.0084125     -0.0265
-0.007097   -0.027816   -0.062676   -0.094576    -0.16101   -0.022883  -0.0080836
-0.0024928   -0.014661   -0.051165   -0.087012    -0.25276   -0.020909   0.0037556
-0.0018351  -0.0018351   -0.033078    -0.08175    -0.36129   -0.018278   0.0021113
-0.0008485    0.012306   -0.011701   -0.082408    -0.49152   -0.027487  -0.0087413
0.0054    0.020857   0.0093464   -0.085367     -0.6405   -0.053796   -0.018936
0.019541    0.024803    0.030394    -0.08471    -0.80296    -0.10082   -0.020252
0.039602    0.024803    0.045851   -0.078132    -0.96344    -0.16134   -0.014332
0.059992     0.02283    0.052099   -0.066622     -1.0973    -0.23073  -0.0047949
0.073147    0.022501    0.049797   -0.054454     -1.1798    -0.29749   0.0044134
0.074791    0.021514    0.041247   -0.044259     -1.2015    -0.35372    0.010991
0.065583    0.020528    0.027763   -0.038668     -1.1742    -0.39976    0.011648
0.049468    0.021186    0.014608   -0.037682     -1.1312    -0.43956   0.0077021
0.029736    0.027105   0.0040845   -0.043272     -1.1068    -0.47804   0.0021113
0.0096753     0.03434  -0.0054526   -0.057414     -1.1302    -0.51125  -0.0047949
-0.0041372    0.037629   -0.016963   -0.085367     -1.2121     -0.5346   -0.015648
-0.011372    0.034669   -0.027487    -0.12812     -1.3321    -0.54512   -0.025514
-0.011372     0.02579   -0.039326    -0.18304     -1.4429    -0.54381   -0.032091
-0.0057815    0.012635   -0.047877    -0.23632     -1.4952    -0.53263   -0.036366
-0.0018351  -0.0011774   -0.051823    -0.27184     -1.4706     -0.5175   -0.041628
-0.0051238  -0.0097279   -0.054783    -0.27874     -1.3726    -0.51191    -0.04689
-0.01795   -0.010057   -0.057085    -0.25342     -1.2269     -0.5323   -0.059387
-0.039984  -0.0054526   -0.055769    -0.20409     -1.0614    -0.58294    -0.08175
-0.06728  -0.0034794   -0.047877    -0.15279    -0.89372    -0.65332    -0.11694
-0.094247   -0.010057   -0.039326    -0.11694    -0.73258    -0.71844    -0.16134
-0.11562   -0.025185   -0.036037    -0.10115    -0.57933    -0.75297    -0.20442
-0.12516   -0.039984   -0.036366   -0.096549    -0.42838    -0.74836    -0.23007
-0.11825   -0.044588   -0.035051   -0.088985    -0.25835    -0.71219     -0.2281
-0.10148   -0.034064   -0.028144   -0.066622   -0.034064    -0.65201    -0.19916
-0.080106   -0.012688   -0.015976   -0.031762     0.25731    -0.56782    -0.15311
-0.060702    0.012964   -0.002164   0.0080309     0.60558    -0.44811    -0.10017
-0.042286    0.032038   0.0083598     0.04881     0.98279    -0.29486   -0.054783
-0.025185    0.041904     0.01691    0.091892       1.336    -0.12944    -0.02354
-0.0084125    0.046837    0.027434     0.14122      1.6021    0.019212  0.00046697
0.011648    0.051113    0.043877     0.19614      1.7313     0.12642    0.024474
0.04026    0.059992     0.06065     0.25238      1.6856     0.18397    0.053415
0.077422    0.071173    0.074462     0.29842      1.4399     0.19154    0.087288
0.11458    0.084328    0.083013     0.32407      1.0308     0.16063     0.12182
0.13925     0.08959    0.085644     0.32341     0.56645     0.11228     0.14813
0.14583    0.082684    0.082684     0.30039     0.19417    0.074462     0.15602
0.13892     0.06361    0.073476     0.26455    0.069858    0.083342      0.1478
0.12445    0.039602    0.059005     0.23265       0.256     0.16095      0.1307
0.10965    0.023159    0.044864     0.21883     0.64636     0.29908      0.1182
0.10274    0.017239    0.038287     0.23035      1.0298     0.48324     0.11985
0.10899    0.018555    0.042891     0.26126      1.2219     0.69273     0.13859
0.12182    0.023159    0.060979     0.29119      1.1499     0.88841     0.17214
0.13201    0.026776    0.082684      0.2925     0.86407       1.013      0.2093
0.13695    0.027434     0.09551     0.24054     0.50002       1.017     0.23857
0.13695    0.026119    0.092221     0.13728     0.21193     0.87788     0.25402
0.13728     0.02579    0.076764    0.012635    0.093536     0.60953     0.25534
0.13826    0.025461    0.059663   -0.092274     0.14912     0.26488     0.24679
0.14024    0.030065    0.045522    -0.15279     0.31684   -0.082408     0.22673
0.13497    0.036642    0.033683    -0.16693     0.49903    -0.36721      0.2014
0.11491    0.042233     0.02283    -0.15311     0.62367    -0.54249     0.17181
0.080711    0.040589    0.014608    -0.13404     0.68681    -0.59577     0.13629
0.041575    0.033354    0.011648    -0.11529     0.72233    -0.53953    0.098141
0.010333     0.02579    0.012306   -0.099509     0.74305      -0.407    0.061636
-0.0067681    0.021514    0.015595   -0.078461     0.74141      -0.235    0.036971
-0.014332    0.025132    0.019212   -0.048534     0.69306   -0.059716    0.028421
-0.016634    0.031381    0.021186   -0.015319     0.55066    0.099127    0.031381
-0.018936    0.035656    0.016581   0.0096753     0.29283     0.22443    0.042562
-0.021896    0.034669    0.010004    0.017239   -0.042286     0.31421    0.056374
-0.025514    0.026119   0.0021113   0.0047422    -0.37017     0.38524    0.067227
-0.028802    0.013951  -0.0057815   -0.018278    -0.64082     0.45529     0.07216
-0.033078      0.0054   -0.012359    -0.04097    -0.84275     0.52633    0.071502
-0.034393      0.0054   -0.014003    -0.05281    -0.96575     0.59177    0.068871
-0.026829    0.015924   -0.010386    -0.04393     -1.0075     0.64274    0.069529
-0.010715    0.032038  -0.0038083   -0.015976     -1.0121      0.6684    0.074462
0.010333    0.044864    0.002769    0.022172     -1.0506     0.65064    0.081368
0.027434    0.049468   0.0057288    0.056046     -1.1594     0.57829    0.087288
0.035327    0.047824   0.0024402     0.07216     -1.2851     0.45891    0.091234
0.034011    0.039931   -0.010715    0.067227     -1.3173     0.31421     0.09255
0.025461    0.030723   -0.030118    0.045522      -1.166     0.16852     0.08367
0.015266    0.023159    -0.04689    0.013622    -0.81677    0.047495    0.064596
0.0047422    0.015924   -0.053467   -0.018607    -0.34254   -0.025514     0.04026
-0.0051238   0.0057288   -0.051165   -0.045903     0.15175    -0.04097    0.022172
-0.015976  -0.0034794   -0.046561    -0.06728     0.60953  -0.0028217    0.013951
-0.025842  -0.0047949   -0.042286   -0.080763      1.0302    0.074791    0.017239
-0.035708   0.0021113    -0.04097   -0.079777      1.3853     0.16819    0.027105
-0.045574    0.012964   -0.041957   -0.063004      1.5896     0.24449    0.037629
-0.051165    0.022501   -0.045903   -0.033735      1.5619     0.27704     0.04026
-0.049192    0.031052   -0.053467  -0.0067681      1.2932     0.25698    0.035327
-0.041628    0.032696    -0.06432   0.0040845     0.86341     0.19877    0.022172
-0.034064    0.026447   -0.077475  -0.0051238     0.38787     0.13234   0.0060577
-0.02354    0.015924   -0.087998   -0.030118   -0.065635    0.085644  -0.0028217
-0.011372   0.0083598   -0.092931   -0.056427    -0.49053    0.079395  -0.0008485
0.0017824   0.0044134    -0.09326   -0.068266    -0.84867     0.11623   0.0096753
0.01132   0.0034268   -0.086683   -0.053796     -1.0634     0.18661    0.021514
0.010333   0.0040845   -0.072542   -0.013674     -1.0762     0.27376    0.035327
0.0011247   0.0060577    -0.05544    0.042891    -0.89076      0.3563    0.045193
-0.010057   0.0080309   -0.037024     0.10373    -0.60235     0.41616    0.047166
-0.018936   0.0080309   -0.019265     0.15635    -0.31755      0.4451    0.038287
-0.025185    0.012635  -0.0015062     0.19187   -0.087998     0.44641    0.025461
-0.029789    0.020199    0.018555     0.20601    0.064925     0.42701    0.015924
-0.034722    0.032696    0.036642     0.20009     0.14352     0.39873    0.015924
-0.038339    0.044206     0.05177     0.17904     0.15898     0.37176     0.01987
-0.043272    0.047824    0.057361     0.15043     0.10899     0.34676    0.017239
-0.045574     0.04881    0.053415     0.12182   -0.010386     0.31223   0.0017824
-0.042615     0.04881    0.043877    0.093865    -0.17877     0.25337    -0.01795
-0.03242     0.05177    0.036642     0.06624    -0.34583     0.16063   -0.031104
-0.023869    0.055388    0.034011     0.03434    -0.44449     0.03434   -0.040313
-0.02354    0.059334    0.032696   0.0011247    -0.42706    -0.11661   -0.046232
-0.035051    0.059334    0.028421   -0.027816    -0.30702     -0.2771   -0.054125
-0.056756    0.051441    0.023817   -0.050836     -0.1666    -0.42344   -0.068595
-0.077803    0.036971    0.019212   -0.066622   -0.090629    -0.53855   -0.085367
-0.089314    0.023488    0.014937   -0.076817   -0.099838    -0.61879    -0.10378
-0.088656    0.014279    0.012635   -0.083065    -0.17811    -0.67371    -0.11727
-0.082408   0.0070443    0.013293   -0.092603    -0.29913    -0.72896    -0.13108
-0.074515  -0.0031506    0.012635    -0.10674    -0.43627    -0.81151    -0.14719
-0.071884    -0.01795    0.011977    -0.12516    -0.59281    -0.92694     -0.1666
-0.077146   -0.036366    0.014279    -0.14522    -0.78224     -1.0555    -0.18666
-0.09326   -0.059716     0.01987    -0.16364     -1.0118     -1.1795    -0.20705
-0.11168   -0.082079    0.024803    -0.17515     -1.2709     -1.2933    -0.22218
-0.12976   -0.095562    0.024474    -0.17745     -1.5515     -1.4031    -0.23204
-0.14292   -0.098851    0.010991    -0.17022     -1.8162     -1.5064    -0.23895
-0.14259   -0.092931   -0.014003    -0.15377     -1.9905     -1.5814    -0.24421
-0.12944   -0.083723   -0.041628     -0.1347     -1.9977     -1.5932    -0.24816
-0.10806   -0.078461   -0.060702    -0.11562     -1.7586     -1.5209    -0.24816
-0.08471   -0.079119   -0.066622   -0.096549      -1.193     -1.3551    -0.23763
-0.065307   -0.078132   -0.062676   -0.072542    -0.31261     -1.1029    -0.21099
-0.047877   -0.073199   -0.052481   -0.038011     0.73253    -0.77171    -0.16561
-0.019594   -0.062018   -0.035051    0.014608      1.6951    -0.37148    -0.10576
0.021514   -0.044588  -0.0074258    0.084986       2.365    0.080053   -0.035708
0.06624   -0.018936     0.02579     0.16556      2.6564     0.55132    0.034998
0.10603    0.013293     0.06065     0.24317      2.6212      1.0262    0.092879
0.13859    0.042562    0.087617     0.30763      2.4163      1.5156     0.13366
0.16293    0.068214     0.10176      0.3563      2.2003      2.0279     0.16095
0.18069    0.084657     0.10866     0.39346       2.024      2.5489     0.18595
0.1945    0.090577     0.11261     0.41912      1.8543      3.0119     0.22081
0.207    0.088932     0.11754     0.42997      1.6787      3.3039     0.26257
0.21456    0.084657     0.12379     0.42438      1.5626       3.322     0.30039
0.21522    0.084328     0.13169     0.40333      1.5593      3.0356     0.32045
0.20206    0.090905     0.13826     0.36979      1.6353      2.5147     0.31782
0.17444     0.10176     0.14352     0.32276       1.703      1.8957     0.29151
0.14451     0.10702     0.14583     0.26652      1.6941      1.3057     0.25238
0.12116     0.10209     0.13892     0.20173      1.5991      0.8154     0.20798
0.10603    0.087288     0.11952     0.13136      1.4675     0.43687     0.16523
0.093536    0.065583    0.089919    0.065254       1.358     0.14879     0.13037
0.080711    0.045851    0.059992    0.011977      1.2949   -0.074515     0.10538
0.066898    0.034998    0.035656   -0.023211      1.2498     -0.2498    0.088603
0.05769     0.03434    0.020528   -0.037682      1.1643    -0.38332    0.077093
0.049797    0.035985    0.014608   -0.029789      0.9874    -0.49152    0.066898
0.04026    0.034669     0.01691  -0.0031506     0.69273    -0.59018    0.059005
0.032367    0.032038    0.023817    0.036971     0.29645    -0.69147    0.058019
0.031052    0.030394    0.032367    0.081039    -0.15246    -0.79408    0.064925
0.039602    0.030065    0.038616     0.11557    -0.61156    -0.88452    0.084986
0.056374    0.034011    0.037629     0.12412     -1.0631    -0.94634     0.11228
0.071831    0.042562    0.030394     0.10143     -1.4785    -0.97397     0.13234
0.076764    0.056703    0.015924    0.049468     -1.7945    -0.98186     0.13201
0.064596    0.068871 -0.00019077   -0.014003     -1.9685    -0.98745     0.10834
0.039602    0.070845   -0.013345   -0.065307     -2.0043    -0.99765    0.071502
0.0073732    0.059663   -0.021896     -0.0903       -1.93    -0.99962    0.036314
-0.018607    0.041904   -0.026829   -0.084381      -1.782    -0.96279    0.010662
-0.036695    0.028421   -0.024856   -0.053796     -1.5995    -0.85985  -0.0077547
-0.048863    0.023817   -0.019265    -0.01203     -1.4143    -0.69509   -0.024527
-0.055769    0.024474   -0.016305    0.026119     -1.2427    -0.50533   -0.039984
-0.062018    0.024474   -0.018607    0.048482     -1.0684    -0.33268   -0.051823
-0.066951    0.021186   -0.025185    0.045193    -0.80329    -0.19981   -0.055769
-0.07287    0.016253   -0.033406    0.018555    -0.28269    -0.11102   -0.053138
-0.07583    0.015595   -0.040641   -0.016305     0.62005   -0.046561   -0.048205
-0.070897    0.018555   -0.039655   -0.038997      1.8645    0.026119   -0.042286
-0.056756    0.026776   -0.027487   -0.038668      3.2263       0.133   -0.031762
-0.031104    0.035327  -0.0064392   -0.012688      4.3474     0.26619   -0.012359
0.0011247    0.041575    0.018884    0.027434      4.8766     0.38886    0.018884
0.031709    0.048153    0.039273    0.063938      4.6148     0.46285    0.055388
0.053086    0.057032    0.050126    0.082355      3.6141     0.46285    0.085644
0.061636    0.063938    0.053086    0.077751      2.1746     0.37768     0.10143
0.060979    0.067885    0.052428    0.054072     0.69076     0.21555    0.098469
0.053415    0.070187    0.049797    0.016581    -0.49678   -0.012359    0.077093
0.042233    0.071502    0.039602   -0.027158     -1.2193    -0.29025    0.046837
0.030394    0.070187    0.021514   -0.069253       -1.51    -0.57735     0.01691
0.017239    0.061965  -0.0008485    -0.10378     -1.5071    -0.81743  -0.0090702
-0.00051963    0.050126   -0.021567    -0.13174     -1.3785     -0.9641   -0.028144
-0.017621    0.037958   -0.038997    -0.15377     -1.2696     -1.0111   -0.037682
-0.030118    0.022172   -0.056098    -0.16693     -1.2548    -0.98844   -0.041299
-0.037353   0.0021113   -0.068595    -0.17054     -1.3305    -0.93713   -0.042615
-0.035708   -0.021567   -0.075501    -0.16594      -1.463    -0.88024   -0.048863
-0.022225   -0.037024   -0.075501    -0.15739     -1.6409    -0.81052   -0.054454
-0.0034794   -0.038011    -0.07024    -0.14522     -1.8698    -0.69838   -0.052152
0.011977     -0.0265   -0.063991    -0.13108     -2.1227    -0.52342   -0.042944
0.018555  -0.0090702   -0.059058    -0.11233     -2.3059    -0.29255   -0.036037
0.014937   0.0063866   -0.060702   -0.086025     -2.2967   -0.030447   -0.038997
0.002769    0.013622   -0.066622   -0.053796     -2.0372     0.23035    -0.05281
-0.011043    0.013293   -0.072542   -0.015319     -1.5495     0.47371   -0.067937
-0.020909   0.0070443   -0.073528    0.021843    -0.92201      0.7003   -0.075173
-0.024856  -0.0024928   -0.066951     0.04881    -0.30965     0.91143    -0.06728
-0.022225   -0.014661   -0.057414    0.064925     0.12478      1.0936    -0.04985
-0.01499   -0.022554   -0.051823    0.067885     0.28461      1.2252   -0.034393
-0.0077547   -0.021238   -0.054783    0.049139     0.18167      1.2821    -0.02946
-0.0097279   -0.010715   -0.063333    0.010662   -0.092603      1.2515   -0.037353
-0.025185   0.0017824   -0.077803   -0.042615    -0.41423      1.1252   -0.055112
-0.047877    0.010991    -0.09326    -0.10115    -0.67601     0.90979   -0.076488
-0.066951   0.0080309     -0.1074     -0.1564    -0.82861     0.62663   -0.094576
-0.074515  -0.0028217    -0.11661    -0.20738    -0.86577     0.31651    -0.10247
-0.067937   -0.016305    -0.12089    -0.25145    -0.82137    0.021514   -0.096878
-0.051165   -0.024856    -0.11464    -0.28104    -0.75297    -0.22382   -0.080434
-0.033078   -0.024856    -0.10148    -0.29321     -0.7043    -0.40536    -0.06136
-0.019265   -0.018607    -0.08471    -0.28729    -0.68259    -0.52342   -0.044917
-0.014003   -0.011043   -0.071884     -0.2669    -0.66812    -0.60498   -0.032749
-0.012688  -0.0038083   -0.064978    -0.23599    -0.63786    -0.67568   -0.024856
-0.012359  -0.0008485   -0.062676    -0.19916    -0.57735    -0.74935   -0.022883
-0.014332  -0.0057815   -0.061031    -0.16101    -0.49481    -0.81677   -0.031104
-0.015319   -0.018278   -0.053467    -0.12779    -0.41588    -0.85919   -0.050179
-0.01499   -0.030118   -0.039984     -0.1051    -0.34978    -0.86709    -0.07583
-0.015976   -0.035708   -0.020581   -0.094905    -0.26197     -0.8342   -0.095233
-0.015648   -0.032749  -0.0028217   -0.092274    -0.10707    -0.75823    -0.09918
-0.011701   -0.027487    0.010004   -0.089972     0.12642    -0.64609     -0.0903
-0.0067681   -0.024198    0.017239   -0.079777     0.39675     -0.5152   -0.074186
-0.0041372   -0.022554     0.02283   -0.058071     0.60756    -0.38595   -0.057414
-0.0015062   -0.020581    0.027763     -0.0265      0.6776    -0.27907   -0.047219
0.0034268   -0.016634    0.025461    0.010004     0.57894     -0.2031   -0.049521
0.0063866   -0.012359    0.015266    0.047166     0.35564    -0.15542   -0.063662
0.0060577  -0.0097279  -0.0008485    0.084328     0.10077    -0.12187   -0.081421
0.0040845   -0.010057   -0.013017     0.12971   -0.095233   -0.084381   -0.091287
0.0040845   -0.013017   -0.014661     0.18628    -0.19192   -0.014332   -0.081421
0.0080309   -0.018607  -0.0057815     0.25238    -0.20212     0.10538   -0.052152
0.016253   -0.023211   0.0063866      0.3096    -0.16758     0.26751   -0.011701
0.02875   -0.021896    0.013622     0.33821    -0.12878      0.4474    0.027763
0.042891   -0.016305    0.011977     0.32407    -0.11266      0.6115    0.058348
0.056374  -0.0090702   0.0044134     0.26784    -0.13799      0.7368    0.079066
0.06624 -0.00051963  -0.0034794     0.18726    -0.20836     0.80915     0.09255
0.069529   0.0057288  -0.0077547     0.10834    -0.30308      0.8302     0.10307
0.068543   0.0047422  -0.0028217    0.049139    -0.38562     0.80488      0.1113
0.064925  -0.0018351   0.0093464     0.01691     -0.4241     0.73779     0.11097
0.06065   -0.011043    0.019541   0.0080309    -0.40207     0.63485     0.10406
0.056703   -0.018278     0.02579    0.010004    -0.33761     0.50791    0.093208
0.055388    -0.01795    0.028092    0.012635    -0.26263     0.37242    0.081697
0.051441   -0.012688    0.027763    0.010333    -0.20508     0.24383    0.068871
0.043877  -0.0041372    0.023817  -0.0008485    -0.18765     0.13201    0.053743
0.034669   0.0037556     0.01987   -0.015319    -0.21922    0.047495    0.039931
0.029078   0.0096753    0.018884   -0.023869    -0.29584   -0.010715    0.029078
0.024474    0.011648    0.022501   -0.022225     -0.4047   -0.055112    0.019541
0.018884    0.013293    0.031052    -0.01203    -0.54216    -0.09918    0.014937
0.017568    0.015595    0.041247  -0.0011774    -0.68884    -0.14752    0.013293
0.020857     0.01691    0.046837   0.0044134    -0.78586    -0.19488    0.015266
0.027434    0.016253     0.04618   0.0024402    -0.77138    -0.23566    0.022172
0.032367    0.013622    0.041904  0.00046697    -0.62833    -0.26493    0.028092
0.033354    0.012635    0.037629   0.0077021     -0.3922    -0.28927    0.030723
0.031052    0.013622    0.037629    0.022172    -0.12516    -0.30834    0.032367
0.029407    0.019541    0.042891    0.035327     0.10505     -0.3136    0.033354
0.030394    0.027105     0.04881    0.041904     0.25337    -0.29321    0.033354
0.033683    0.033683    0.052757    0.036971      0.3073     -0.2521    0.031052
0.035656    0.038944     0.05473    0.020528     0.28724    -0.20968    0.028092
0.034998     0.04322    0.056374   0.0014536     0.22903    -0.18469    0.030065
0.027434     0.04618    0.059334   -0.016305     0.16654      -0.186    0.031709
0.014937    0.043877    0.065583   -0.034722     0.12116    -0.21264    0.030723
0.0024402    0.036971    0.073147   -0.051823     0.11721    -0.25046    0.026447
-0.0064392    0.029078    0.081697   -0.062347     0.20173    -0.27973    0.024145
-0.012359    0.024803    0.087617   -0.056427     0.43622    -0.27973    0.024145
-0.017292    0.023817     0.08367   -0.031433     0.82592    -0.24816    0.023159
-0.025185    0.024145    0.066898   0.0011247       1.285    -0.20014    0.014608
-0.034064    0.025132    0.041247    0.026776      1.6918    -0.16166  -0.0015062
-0.042286    0.021186    0.017568    0.036314      1.9506    -0.14752   -0.020252
-0.053467     0.01132    0.002769    0.030723      2.0217    -0.15344   -0.030447
-0.065307  -0.0024928  -0.0034794    0.021186      1.9109    -0.15443    -0.02946
-0.077146   -0.015648  -0.0038083    0.023159      1.6603    -0.13042   -0.024198
-0.083065   -0.024198  -0.0031506    0.042233       1.333   -0.086683   -0.020252
-0.07879   -0.026171    0.002769    0.084986      1.0045   -0.068924   -0.018278
-0.06728   -0.022225    0.013622     0.14418     0.76179     -0.1222   -0.014661
-0.048863   -0.015648    0.027763       0.207     0.68648    -0.24717  -0.0074258
-0.027158  -0.0074258     0.04026     0.26225     0.82198      -0.407   0.0044134
-0.0067681  0.00079584     0.04881     0.30302      1.1489    -0.56157    0.019212
0.0073732   0.0080309    0.051113     0.32078      1.5958    -0.67568    0.033354
0.011648     0.01691    0.045193     0.30993      2.0914    -0.73291    0.038616
0.0080309    0.026776    0.032367     0.26652      2.5762    -0.71186     0.02875
0.002769    0.038287    0.021186     0.19812      2.9619    -0.58525   0.0044134
0.0034268    0.047495    0.019212     0.12083      3.1168    -0.33827   -0.017621
0.011977    0.054072     0.02579    0.059005      2.9458    0.023159   -0.020909
0.026776    0.059334    0.040918    0.029407      2.4239     0.45167   0.0040845
0.046837    0.066569    0.061965    0.035985      1.5909     0.87788    0.050784
0.074791    0.080053    0.085972    0.068871      0.5556      1.2291     0.10274
0.10373    0.098798     0.10965     0.11097    -0.46455      1.4626     0.14714
0.12905     0.11524     0.13004      0.1524     -1.2256      1.5774     0.17806
0.14352     0.12215     0.14385     0.18661     -1.5995      1.6162     0.19713
0.14846     0.11656     0.14648     0.21028     -1.6074      1.6376     0.20798
0.14418     0.10242      0.1376     0.22344     -1.3913      1.6793     0.20864
0.1284    0.087288     0.11985     0.22048     -1.1437      1.7293     0.19713
0.1011    0.073804     0.10044     0.19877     -1.0384      1.7444     0.17016
0.06624    0.063938     0.08367     0.16293     -1.1673      1.6744     0.13004
0.029407    0.055388    0.069858     0.12182     -1.5136      1.4827    0.080053
-0.0024928     0.04322    0.058019    0.088932     -1.9658      1.1693    0.031709
-0.02354    0.030065     0.04618    0.068871     -2.4026     0.77988   -0.004466
-0.031433    0.021514    0.033354    0.062952     -2.7298     0.37669   -0.028802
-0.033078    0.017568    0.020199    0.068871     -2.8791   0.0060577   -0.044588
-0.032749     0.01691    0.010333    0.082355     -2.7995    -0.31656   -0.056756
-0.033735    0.012306   0.0014536    0.093208     -2.4664    -0.59051   -0.069253
-0.037682 -0.00019077  -0.0061104    0.091563     -1.9112    -0.81381   -0.082408
-0.042944   -0.016634   -0.013017    0.068214     -1.2578    -0.97791   -0.094576
-0.04985   -0.031433   -0.019265    0.024145    -0.70923     -1.0808    -0.10378
-0.058071   -0.038668   -0.021567   -0.033406     -0.4514     -1.1229    -0.10905
-0.065307   -0.034722   -0.016963   -0.095233     -0.5175     -1.1151     -0.1097
-0.069253   -0.021238  -0.0077547    -0.14621    -0.74606     -1.0618    -0.10378
-0.066293  0.00046697    0.002769    -0.17482        -0.8    -0.96279   -0.088985
-0.054783    0.020857    0.010991    -0.17054     -0.3751    -0.81249   -0.057743
-0.037024    0.033683    0.018555     -0.1324     0.52961    -0.61517   -0.010057
-0.017292     0.03434    0.027434   -0.076488      1.6448    -0.38858    0.047824
-0.002164    0.022172    0.035656   -0.021238       2.615    -0.16002     0.11195
0.010333   0.0083598    0.041904    0.020199      3.1777    0.052428     0.17542
0.020199    0.002769    0.047495    0.047166      3.2339     0.25665     0.23067
0.032696   0.0067154    0.051441    0.066569      2.8175     0.46779     0.27639
0.05177     0.01987    0.057032    0.088932       2.145     0.70194     0.31454
0.078737    0.032038    0.069529     0.12346      1.5116     0.96109     0.34216
0.10998    0.036314    0.090577     0.17181      1.1081      1.2262     0.35893
0.13793    0.037629     0.11458     0.23298     0.95221      1.4564     0.37044
0.15438    0.040918     0.13662     0.29678     0.95352      1.6195     0.38524
0.15503    0.048153     0.15109     0.34742     0.99891      1.7024     0.40432
0.14385     0.05769     0.15931     0.37209      1.0229      1.7024     0.42109
0.12905    0.072818     0.16194     0.37044      1.0065      1.6215     0.42536
0.11393    0.087288     0.15865      0.3494     0.93215      1.4925     0.40991
0.098798    0.097483     0.15207     0.31815     0.76969      1.3616     0.37373
0.08367     0.10242     0.14352        0.28     0.49015      1.2581      0.3221
0.073804    0.097812     0.13004     0.23363    0.098798      1.1729     0.25994
0.072489    0.086959     0.11195     0.17608    -0.34517       1.069     0.19285
0.079724    0.071831    0.091234     0.10801    -0.74672     0.91373     0.13103
0.086959    0.055059    0.065583    0.034011     -1.0187     0.71049    0.084328
0.084328    0.036971    0.036971   -0.046561     -1.1193     0.48686    0.057361
0.069529    0.019212   0.0070443    -0.12911     -1.0618     0.27704    0.045522
0.044535   0.0017824   -0.021896    -0.20475    -0.89175     0.10242    0.039602
0.013951   -0.016963   -0.044588    -0.25934    -0.66516   -0.039984    0.027434
-0.013674   -0.033078    -0.05281    -0.28499    -0.43726    -0.16594   0.0057288
-0.031433   -0.042286   -0.046232    -0.28104     -0.2692     -0.2919    -0.01499
-0.038668   -0.041957   -0.028144    -0.25638    -0.21132    -0.42969    -0.02354
-0.039655    -0.02946    -0.01203    -0.22415    -0.28565    -0.58327   -0.016963
-0.036037    -0.01203  -0.0031506    -0.19718    -0.46784    -0.74705   -0.007097
-0.028473   0.0017824  -0.0038083    -0.18238    -0.68818    -0.91082  -0.0034794
-0.024198      0.0054    -0.01499     -0.1814    -0.87564     -1.0654    -0.01203
-0.025185  -0.0008485   -0.033735    -0.19356    -0.97956     -1.1979   -0.037024
-0.036695   -0.012688   -0.057414    -0.21001    -0.98975     -1.2894   -0.080106
-0.053138   -0.025514   -0.079777    -0.22481    -0.92727     -1.3236    -0.13404
-0.069582   -0.035051   -0.094576    -0.22678    -0.81447     -1.2963    -0.18666
-0.083394   -0.034722    -0.10082    -0.21461    -0.67536      -1.216    -0.22612
-0.093918   -0.024527   -0.097864    -0.19324    -0.54151     -1.1078    -0.24717
-0.098193  -0.0097279   -0.088985    -0.16693    -0.44942     -1.0072    -0.25013
-0.095891    0.002769   -0.079119    -0.14029    -0.42673      -0.947    -0.23994
-0.089314   0.0083598   -0.073528    -0.11661    -0.47639    -0.94601    -0.22316
-0.080434      0.0054   -0.072542     -0.1005    -0.57406     -1.0009    -0.21001
-0.072213  -0.0054526    -0.07583    -0.09326     -0.6747     -1.0878    -0.20836
-0.063991   -0.019923   -0.076817   -0.095233    -0.71909     -1.1759    -0.21757
-0.055769   -0.029789   -0.073528    -0.10148    -0.65793     -1.2433    -0.22678
-0.049192   -0.029789   -0.068595    -0.10346    -0.47244     -1.2729    -0.22875
-0.045903    -0.02354   -0.065307   -0.095891    -0.19093     -1.2545    -0.22349
-0.042286   -0.013017   -0.062676   -0.082079     0.11623     -1.1877    -0.21034
-0.036366  -0.0015062   -0.057085   -0.067609     0.36222     -1.0753    -0.18896
-0.02946    0.013293   -0.050179   -0.060373     0.47667    -0.93352    -0.16791
-0.025842    0.029407   -0.046561   -0.059716     0.43885     -0.7852     -0.1564
-0.027816    0.038944   -0.047877   -0.061031     0.28658    -0.65036    -0.15311
-0.031433    0.036642   -0.057414   -0.058729    0.088932    -0.53756     -0.1541
-0.031104    0.024474   -0.073857   -0.045574   -0.095233    -0.44942    -0.15509
-0.023211    0.010662     -0.0903   -0.025185    -0.23928     -0.3876    -0.15443
-0.015976  0.00079584   -0.098851  -0.0087413    -0.35964    -0.35603    -0.14555
-0.01203  -0.0051238   -0.097536    -0.01203    -0.49974    -0.34813    -0.12483
-0.015319  -0.0080836   -0.094247   -0.051165    -0.69805    -0.35274   -0.094905
-0.022225   -0.010386   -0.099509    -0.12549    -0.97298    -0.35931   -0.062018
-0.029789  -0.0090702    -0.10872    -0.20968     -1.3101    -0.35899   -0.032091
-0.031104  -0.0054526    -0.11102    -0.27151     -1.6692    -0.34583   -0.012359
-0.024198  -0.0018351    -0.10247    -0.28861     -1.9783    -0.31525  -0.0061104
-0.011043   0.0014536   -0.088656    -0.25671     -2.1424    -0.26888   -0.010386
0.0034268   0.0034268   -0.071226    -0.19587     -2.1234    -0.21428   -0.017292
0.014608   0.0063866   -0.053467    -0.13042     -1.9625    -0.16101   -0.022883
0.020199    0.013622   -0.034722   -0.080106      -1.709    -0.11464   -0.022883
0.017568    0.026776    -0.01499   -0.044259     -1.3703   -0.079119   -0.018278
0.0073732    0.036314   0.0037556   -0.012688     -0.9345   -0.055769  -0.0084125
-0.0061104     0.03434    0.016581    0.026776    -0.43298   -0.049521    0.002769
-0.017621    0.018226    0.021186    0.068871    0.074462   -0.066951   0.0077021
-0.027158  -0.0011774    0.017897     0.10735     0.54244    -0.10641   0.0047422
-0.032749   -0.018936   0.0096753     0.13037      1.0012    -0.15114   -0.002164
-0.035051   -0.030775   0.0030979     0.13399      1.5304    -0.17877  -0.0077547
-0.030118   -0.038997   0.0021113     0.12313      2.1654    -0.15838  -0.0084125
-0.019594   -0.042944   0.0080309     0.11097      2.8238   -0.074186   -0.004466
-0.0087413   -0.041299    0.020857     0.10669      3.3398    0.058019  -0.0011774
-0.0031506   -0.037353    0.034998     0.10636      3.5483     0.19943  -0.0041372
-0.010057    -0.03538    0.044206     0.10505      3.3763     0.30763   -0.012359
-0.026829    -0.03242    0.045522    0.097154      2.8646     0.35597   -0.024198
-0.044259     -0.0265    0.041904    0.085644      2.1286     0.34512   -0.034064
-0.050507   -0.016634    0.039602    0.069529      1.2936      0.2902   -0.037353
-0.047219  -0.0064392    0.039273    0.046837     0.47371     0.21226   -0.033406
-0.038339   0.0040845    0.039931    0.020199     -0.2373     0.14089   -0.028144
-0.029789    0.011977    0.038616  -0.0093991    -0.78092     0.10242   -0.025185
-0.024527    0.016581    0.033683   -0.036366     -1.1275     0.11162   -0.027158
-0.022554    0.017239    0.027105   -0.055112     -1.2614     0.16687   -0.029131
-0.021896    0.015924    0.018226   -0.060373     -1.1887     0.24021   -0.026829
-0.018936    0.013293   0.0077021   -0.051823    -0.95456     0.29743   -0.017292
-0.011372    0.013293  -0.0054526   -0.032749    -0.64806     0.31486  -0.0008485
0.0024402    0.018555   -0.015648  -0.0093991    -0.38003     0.27639    0.016253
0.015595    0.028092   -0.020909    0.010662    -0.23073     0.17246    0.026119
0.02579    0.037958    -0.01795    0.020199    -0.20014   0.0086887    0.031381
0.035985    0.044864  -0.0093991    0.021843      -0.186    -0.18271    0.034669
0.047495    0.047824 -0.00019077    0.023488   -0.052152    -0.34813    0.041247
0.059334    0.050126   0.0057288    0.030723     0.25764    -0.43627    0.053743
0.069529    0.053743   0.0077021    0.042891     0.69405    -0.41456      0.0692
0.073804    0.057032   0.0063866    0.058676      1.1558    -0.27578    0.077093
0.068543    0.057032   0.0011247    0.076106      1.5517   -0.034722    0.073147
0.05473    0.053743  -0.0041372    0.096496      1.8263     0.27145    0.059334
0.037958    0.046837  -0.0064392     0.12182      1.9658     0.59835    0.045522
0.026447    0.035985  -0.0057815     0.15273       1.977     0.89531    0.044535
0.025461    0.020528  -0.0034794     0.17674      1.8655       1.118    0.052428
0.032696   0.0044134  -0.0024928     0.18299      1.6471       1.235    0.059663
0.047166  -0.0077547   -0.002164     0.17049      1.3557      1.2446    0.063281
0.061307   -0.013017  -0.0038083     0.14648      1.0397       1.185    0.065912
0.071502  -0.0074258   -0.004466     0.12017     0.74075      1.1078    0.069529
0.074133   0.0080309  -0.0028217    0.096167     0.45398      1.0522    0.074462
0.068871    0.026119  -0.0008485    0.078737     0.12905      1.0255    0.078409
0.060979    0.039931 -0.00051963    0.067227    -0.29223      1.0078    0.078409
0.052757    0.048482   0.0021113    0.058348    -0.81512     0.97359    0.077751
0.050126    0.055388    0.010333    0.051441     -1.3742     0.90617    0.080711
0.055388    0.064267    0.026776    0.051441     -1.8751      0.8029    0.090905
0.064925    0.073147    0.050126    0.064925       -2.25     0.66741     0.10801
0.074133    0.076764    0.076764    0.088275     -2.4529     0.50363     0.12412
0.07808    0.072818     0.10274     0.10932     -2.4667     0.31585     0.13004
0.073476    0.065912     0.11919     0.12248     -2.3049     0.11327     0.12708
0.059992     0.06065     0.11952     0.12445      -2.004    -0.08175     0.11919
0.039602     0.05473     0.10176     0.11327     -1.5998       -0.26     0.10702
0.020199     0.04618     0.07216    0.087617     -1.1081    -0.42772    0.085972
0.0021113    0.031381    0.042891    0.050126    -0.50632    -0.59741    0.049468
-0.016634    0.013293    0.014937   0.0034268     0.22147    -0.76415  -0.0034794
-0.037353   -0.007097  -0.0090702    -0.04097      1.0137    -0.90754   -0.064978
-0.055112   -0.023869   -0.030118   -0.071884        1.75    -0.99501    -0.11858
-0.062018   -0.030447   -0.044588    -0.07879      2.3134     -1.0062    -0.14884
-0.054125   -0.027158   -0.050836   -0.060702      2.6455    -0.93648    -0.15114
-0.032749   -0.012359   -0.043272    -0.02354      2.7666    -0.79802    -0.12944
-0.0057815    0.013293   -0.025514    0.018226      2.7011    -0.61024    -0.09918
0.021514    0.042891  -0.0080836    0.058019      2.4564    -0.40075   -0.065635
0.042891    0.067885    0.002769    0.090577      2.0483    -0.18205   -0.035051
0.054072    0.081368   0.0034268     0.11721       1.532    0.045851  -0.0064392
0.058676    0.083999 -0.00019077     0.13892     0.99661     0.28395     0.01691
0.062294    0.079395  -0.0011774     0.15536     0.51186     0.52896    0.039602
0.0692    0.078409   0.0080309     0.17214    0.073147      0.7641     0.06361
0.081697    0.083342    0.028421     0.18858    -0.39911     0.96997    0.091892
0.098469    0.091563    0.054072     0.19943    -0.97923      1.1262      0.1205
0.11787    0.099785    0.074462     0.20042     -1.6712      1.2192     0.15142
0.1307      0.1057    0.084986     0.18858     -2.4157      1.2288     0.18299
0.13432     0.10439    0.082026     0.16063     -3.0883      1.1298     0.20963
0.12938    0.092879    0.064596      0.1205     -3.5092     0.92393      0.2241
0.12182    0.070516    0.036314    0.077422     -3.5506     0.64702      0.2241
0.11787     0.04618   0.0037556    0.036314     -3.2208     0.34742     0.21094
0.11557    0.030065   -0.021567   -0.002164     -2.6324     0.06624     0.19022
0.11064    0.025132   -0.033406   -0.036366     -1.9198    -0.16758     0.16326
0.10439    0.025461    -0.03242   -0.066622     -1.1749    -0.34978     0.12905
0.091892    0.025132     -0.0265   -0.089972    -0.40042    -0.48823    0.090577
0.069858    0.023488   -0.021238     -0.1051     0.44904    -0.59149     0.05769
0.040918    0.018226   -0.022225    -0.11102      1.3939    -0.64378    0.038944
0.017239    0.012306   -0.027487    -0.10181      2.3686    -0.61813    0.038944
0.011648   0.0090175   -0.029131   -0.063991      3.1546    -0.49251    0.055717
0.023817   0.0096753   -0.019594 -0.00051963      3.4463     -0.2669    0.076764
0.046837    0.010991   0.0047422     0.07512      3.0237    0.034998    0.092221
0.067556    0.014279    0.037958      0.1455      1.8355     0.37603     0.10176
0.07808    0.017568    0.070187     0.19746     0.11557     0.73351     0.10834
0.079395    0.021186    0.093865       0.231      -1.588      1.1143     0.12116
0.079395    0.027105     0.10932     0.25797     -2.7061      1.5218     0.14879
0.08959      0.0373     0.12379      0.2925     -3.0011      1.9125     0.19943
0.11261    0.051441     0.13958     0.33295     -2.5825      2.1996     0.26455
0.14221    0.063938     0.15471     0.36715      -1.834      2.3137     0.32835
0.16885    0.067227     0.16786     0.38064     -1.1578      2.2453      0.3688
0.1774     0.05769      0.1774     0.37768    -0.73422      2.0487     0.37472
0.16457    0.039273     0.18628     0.36946     -0.4856      1.8079     0.34578
0.13629     0.01987     0.19647     0.36518    -0.22579      1.5925     0.29415
0.1011      0.0054     0.20765     0.36123     0.18332      1.4468     0.23429
0.064267  -0.0011774     0.21423     0.34545     0.72332      1.3741     0.18233
0.03434   -0.004466     0.20798     0.30368      1.2821      1.3373     0.14352
0.012635  -0.0064392     0.18102     0.23692      1.7773      1.2768     0.11623
-0.0011774   -0.010386     0.14056     0.15799      2.1763       1.138    0.093536
-0.013017   -0.013674     0.10044    0.081697      2.4574     0.89499    0.072818
-0.024527   -0.012688    0.071831     0.01691      2.5992     0.55987    0.052099
-0.035708  -0.0077547    0.053086   -0.041957      2.5584     0.17115    0.029078
-0.042615  -0.0031506    0.038616    -0.10148      2.3098     -0.2281   0.0057288
-0.046561  -0.0008485    0.026776    -0.16265      1.8855    -0.60432   -0.017292
-0.049521  -0.0028217    0.013951    -0.22185      1.3834     -0.9322   -0.037353
-0.055112   -0.011043 -0.00019077    -0.26723     0.93248     -1.2006   -0.058071
-0.066293   -0.024527   -0.014003     -0.2919     0.62696     -1.4087   -0.082736
-0.084052   -0.039984   -0.025842    -0.29782      0.4839     -1.5699    -0.11957
-0.10346   -0.052152   -0.033735    -0.29058     0.44082     -1.7021     -0.1712
-0.12319   -0.057743   -0.039984    -0.28006     0.42142     -1.8165    -0.23138
-0.1416     -0.0584   -0.043272    -0.26986     0.36288     -1.9096    -0.28466
-0.15509   -0.057414   -0.045574    -0.25638     0.21489     -1.9754    -0.31886
-0.16364   -0.054783   -0.050836    -0.24092   -0.043601      -2.004    -0.33103
-0.16791   -0.050179   -0.062018    -0.22678    -0.39154     -1.9819    -0.32676
-0.17285   -0.043601   -0.078132    -0.21626    -0.76283     -1.9024    -0.31031
-0.17844   -0.037353    -0.09326    -0.20935     -1.0739     -1.7679    -0.28927
-0.18271   -0.031104    -0.10576    -0.20639     -1.2742     -1.5791     -0.2669
-0.17877   -0.027487    -0.11595    -0.20803      -1.392     -1.3439    -0.24881
-0.16528   -0.026171    -0.12615    -0.21132     -1.4985     -1.0841    -0.23402
-0.14719   -0.026171    -0.13634    -0.21198     -1.6255    -0.82828    -0.22185
-0.13075   -0.028802    -0.14292    -0.20573     -1.7511    -0.59873    -0.21363
-0.11694   -0.034722    -0.14588    -0.19028     -1.8175    -0.41062    -0.20376
-0.10444   -0.041628    -0.14621    -0.16166     -1.7728    -0.27907    -0.18962
-0.092931   -0.046232    -0.14785     -0.1245       -1.61    -0.22185    -0.17252
-0.084381   -0.045574    -0.14884    -0.09326     -1.3591    -0.24651    -0.15509
-0.07879   -0.043601    -0.15246   -0.085367     -1.0493    -0.33991    -0.13733
-0.078461    -0.04097    -0.15246    -0.10181    -0.72271    -0.47277    -0.11924
-0.07879   -0.036695    -0.14489    -0.13536    -0.45436    -0.61221    -0.10247
-0.071226   -0.033735    -0.12845    -0.17054    -0.32215    -0.72436   -0.086354
-0.052481   -0.033406    -0.10411    -0.19389    -0.36359     -0.7773   -0.067609
-0.0265   -0.030775   -0.073528    -0.19652    -0.54578    -0.76119   -0.045574
-0.0038083   -0.021896   -0.041628    -0.17383    -0.73981    -0.68522   -0.019594
0.010662   -0.010057   -0.011372    -0.12944    -0.75823    -0.56716    0.010662
0.019212    0.002769    0.011977   -0.072213    -0.50402    -0.42344    0.040918
0.02579    0.017897     0.02875   -0.012688   -0.028473    -0.26822    0.066898
0.029078     0.03434    0.037629    0.038944     0.52402    -0.11398    0.082684
0.027763    0.049468    0.040589    0.082355     0.98181     0.02283    0.085644
0.025461    0.059005    0.038287     0.12116       1.213     0.12708    0.083013
0.031709    0.062623    0.034011      0.1603      1.1722     0.19121    0.088275
0.053086    0.062952    0.032038     0.20305     0.89301     0.21423     0.11162
0.079395    0.061965    0.036971     0.25008     0.45299     0.19746     0.15109
0.10439    0.061636    0.048153     0.29941   -0.062018     0.14517     0.18957
0.12313    0.062294    0.062294      0.3392    -0.56518    0.067227     0.20469
0.12905     0.06065    0.076106     0.34972    -0.98811    -0.02354     0.18792
0.11919    0.054401    0.084328     0.31947     -1.2778    -0.11266     0.14747
0.090248    0.045193    0.085644     0.25304     -1.4077    -0.19324    0.099456
0.048153    0.038287    0.080711     0.17082     -1.3851    -0.25638    0.058348
0.0040845    0.028421    0.073147    0.090248      -1.238    -0.29058    0.026447
-0.034393    0.017239    0.065912    0.027434     -1.0082    -0.28729   0.0060577
-0.059058   0.0080309    0.062623   -0.013674    -0.74705     -0.2475  -0.0024928
-0.06432   0.0063866    0.062623   -0.038011    -0.50862    -0.18304  -0.0038083
-0.052481    0.010991    0.060979   -0.056427    -0.32413    -0.11398  0.00079584
-0.032091    0.017568     0.05177   -0.076817    -0.19883   -0.058729   0.0067154
-0.014003     0.01987    0.033354   -0.098193    -0.13009    -0.02946   0.0050711
-0.0041372    0.021186    0.010333    -0.11858   -0.091945   -0.030447  -0.0018351
-0.0047949    0.026119  -0.0090702    -0.12911   -0.035051   -0.056098  -0.0061104
-0.015648    0.035656   -0.019265     -0.1268    0.086301   -0.090629  -0.0028217
-0.027816    0.044864    -0.01795    -0.10674     0.28296    -0.11924   0.0070443
-0.036695    0.045193  -0.0097279    -0.06728      0.5158    -0.13371    0.015924
-0.037353     0.04026   0.0001381   -0.021567     0.71542    -0.12648    0.023817
-0.031104    0.032038    0.012306    0.015595     0.81737    -0.10543     0.02875
-0.022225     0.02283    0.023488    0.032367     0.80027   -0.086683     0.02875
-0.012359    0.016253    0.027105    0.028092     0.69207   -0.086683     0.02283
-0.0047949    0.014937    0.016581    0.010004     0.53915    -0.11793    0.014279
-0.00051963    0.017897  -0.0028217   -0.010386     0.38853    -0.19028  0.00079584
-0.0038083    0.020199   -0.022883   -0.023211     0.27376    -0.30538   -0.015319
-0.015319    0.019212   -0.036366   -0.026171     0.21653    -0.44449   -0.029789
-0.029789    0.017897   -0.039984   -0.021896      0.2264    -0.57308   -0.037353
-0.036366    0.014279   -0.039326    -0.01499     0.29776    -0.65497   -0.038011
-0.030775    0.010662   -0.041628  -0.0067681     0.41484    -0.66615   -0.034064
-0.019265   0.0067154   -0.050507   0.0047422     0.56711    -0.60268   -0.026171
-0.0080836   0.0021113   -0.057743    0.024474     0.76804    -0.47639   -0.014661
-0.0031506  -0.0008485   -0.059058     0.05177      1.0157    -0.31459  -0.0041372
-0.00051963 -0.00019077   -0.054454    0.080711      1.2696    -0.15048  -0.0011774
-0.0038083      0.0054    -0.04689    0.098798      1.4636   -0.017621  -0.0087413
-0.0093991    0.012306   -0.041628     0.10044      1.5376    0.077422   -0.025185
-0.014661    0.016581   -0.038011    0.093208      1.4715     0.13958   -0.042944
-0.016305    0.023159   -0.033406    0.086959      1.3015     0.18463   -0.055112
-0.011372    0.029736   -0.020252    0.086959      1.0838     0.23561   -0.060702
0.00079584    0.036642  -0.0038083    0.095839     0.84467     0.31552   -0.054783
0.01691    0.039602    0.011977     0.10998     0.58519     0.44312   -0.034722
0.031381    0.038287    0.021186     0.11656     0.32111     0.61742   -0.010715
0.04026    0.032038    0.023817      0.1113    0.073476     0.80784    0.010991
0.042891    0.023159    0.017239    0.094194    -0.13667     0.97359    0.027434
0.042562     0.01691   0.0030979    0.074133    -0.30702      1.0887    0.038287
0.044864    0.014608    -0.01203    0.060321    -0.44745      1.1439    0.047166
0.053415    0.014279    -0.02354    0.055717    -0.57341       1.138    0.055717
0.066898    0.014608    -0.02946    0.053086    -0.68193      1.0841    0.060321
0.076435    0.013951   -0.030118    0.043549      -0.751      1.0081    0.051113
0.075449    0.012306   -0.027816    0.021186    -0.76645     0.93083     0.02579
0.06361   0.0086887   -0.020581   -0.014332    -0.72633     0.86243  -0.0084125
0.043877   0.0040845   -0.013345   -0.060045    -0.64346     0.79172   -0.040313
0.020199   0.0011247   -0.010057     -0.1097     -0.5346     0.70227   -0.064978
0.0021113  -0.0057815   -0.013345    -0.15311    -0.40207     0.58421   -0.079119
-0.0087413   -0.013345   -0.021896     -0.1837      -0.235     0.43885    -0.08175
-0.013345   -0.018278   -0.031762     -0.2008   -0.032749     0.27408   -0.071555
-0.0080836   -0.019594   -0.035708     -0.2031     0.19549     0.11524   -0.053796
0.010004   -0.013674   -0.031762     -0.1906     0.42701  -0.0097279   -0.031762
0.032367   -0.002164   -0.020252    -0.16561     0.62071   -0.081421  -0.0080836
0.049468    0.010662  -0.0087413     -0.1324     0.72858     -0.1005    0.014937
0.053743    0.024145  -0.0038083   -0.094247     0.71904   -0.081421      0.0373
0.047166    0.035656  -0.0064392   -0.057414     0.62762   -0.038339    0.057361
0.036642    0.046508  -0.0090702   -0.025514     0.51942   0.0086887    0.070845
0.031381    0.059334  -0.0057815 -0.00019077     0.42273     0.04322    0.074462
0.030723    0.071502   0.0017824    0.016581     0.32868    0.050455    0.064925
0.031709    0.077751   0.0060577    0.026447     0.25961     0.03434    0.043877
0.031052    0.080053   0.0073732    0.033025     0.27737    0.018884    0.021186
0.025132    0.079724   0.0083598    0.041247     0.43753    0.041575   0.0001381
0.015266     0.07808   0.0086887     0.05473     0.73746     0.12544   -0.011043
0.0070443    0.075778   0.0086887    0.081039      1.0834     0.26192   -0.011372
0.0060577    0.072489    0.012635     0.12215      1.3225     0.40497  -0.0067681
0.01132    0.069858    0.025461     0.16918       1.314     0.50659  -0.0061104
0.023817    0.067556    0.045193     0.20732      1.0094     0.53981  -0.0090702
0.043877    0.063938    0.064596     0.22508     0.46713     0.50002  -0.0087413
0.063281    0.062623    0.079724     0.21818    -0.18271     0.41418   0.0024402
0.071831    0.061636    0.086959     0.19417    -0.77994     0.32045    0.023159
0.069529    0.057032    0.086959     0.16687     -1.2081     0.24646    0.044206
0.062294    0.054072    0.084657     0.14517     -1.4288      0.2014    0.057032
0.055717    0.053415    0.080382     0.13629     -1.4663      0.1751    0.059005
0.049468     0.05473    0.077093     0.13826     -1.3689     0.15076    0.058348
0.04881    0.060321     0.07808      0.1455     -1.1946     0.12248    0.068543
0.059334     0.06624    0.083342     0.14813     -1.0072     0.10307    0.090577
0.075449    0.064925    0.094194     0.13859    -0.87596     0.12182      0.1205
0.085644    0.052099     0.10242     0.12346    -0.83519     0.19187     0.14977
0.084328    0.034011      0.1034     0.10669    -0.85097     0.28757     0.16885
0.072818    0.018226    0.094194    0.093865    -0.87465     0.35827     0.17115
0.06065   0.0093464    0.076106    0.083342     -0.8559     0.36913     0.15767
0.053086   0.0044134    0.058019    0.072818     -0.7283     0.32703     0.13497
0.049468   0.0040845    0.046837    0.064267     -0.4514     0.25731     0.11294
0.050455   0.0047422    0.039602     0.05769   -0.064649     0.18693    0.091563
0.048482   0.0021113    0.034011    0.049468     0.32572     0.13234    0.071831
0.042233  -0.0051238    0.027105    0.035327     0.62663     0.10176    0.050784
0.033025   -0.012359    0.017568    0.014937     0.80685     0.10603    0.036642
0.025132   -0.017292    0.010662  -0.0087413     0.88479     0.14616    0.038287
0.02283   -0.021567   0.0093464   -0.031433     0.88709     0.20897    0.059992
0.02283    -0.02354    0.012964   -0.051165     0.80718     0.25402    0.093865
0.019212   -0.019923    0.017239   -0.065964     0.62268     0.24087     0.12642
0.012964   -0.020252    0.022501   -0.073857     0.32868      0.1432     0.14352
0.0037556   -0.028802    0.026119   -0.080763   -0.064978   -0.043272     0.13958
-0.0080836   -0.046232    0.029078   -0.090629    -0.51914    -0.30176     0.12017
-0.023211   -0.065964    0.030394    -0.11036    -0.95489    -0.58459    0.085972
-0.038011   -0.076159    0.028421    -0.14062     -1.2453    -0.81644    0.042891
-0.050836   -0.075173    0.021843    -0.17383     -1.2683    -0.93582  -0.0041372
-0.061689   -0.069253    0.010662    -0.20442    -0.99238    -0.93779   -0.046232
-0.069253   -0.063662  -0.0028217    -0.23106    -0.54841     -0.8707   -0.077803
-0.07287   -0.062347    -0.01499    -0.25539    -0.15838    -0.79572   -0.099509
-0.073857   -0.066622   -0.027487    -0.27512    0.031052    -0.76053    -0.11299
-0.076488   -0.073528   -0.044917    -0.29782  -0.0080836    -0.79408    -0.12549
-0.081421   -0.077803   -0.065964    -0.32511    -0.27118    -0.90556    -0.13897
-0.084381    -0.07583     -0.0903    -0.35274      -0.677     -1.0858    -0.15114
-0.080763   -0.067937    -0.11562     -0.3705     -1.0624     -1.3101    -0.15903
-0.068924   -0.054783     -0.1347    -0.36359       -1.22     -1.5344    -0.15443
-0.051823   -0.035708    -0.14029    -0.31985    -0.97791     -1.7037    -0.13963
-0.034064   -0.016963    -0.13338    -0.24947    -0.32873     -1.7843    -0.11595
-0.021896  -0.0018351    -0.11825    -0.16791     0.53455     -1.7606   -0.086683
-0.011043      0.0054   -0.094905   -0.097536      1.3468     -1.6271   -0.056427
0.0034268    0.010004   -0.067937   -0.039655      1.9809     -1.3791   -0.027487
0.026447    0.016253   -0.042615   0.0090175      2.4676     -1.0151   0.0001381
0.056374    0.027434   -0.016963    0.061965      2.9182    -0.53592    0.033354
0.085972    0.041247    0.012635     0.13859      3.4493    0.038616    0.073804
0.10866    0.058676    0.050126     0.25008      4.0452     0.65426     0.12116
0.12675    0.077751    0.093208     0.39675      4.4859      1.2413     0.17246
0.14517    0.097483     0.14254     0.56184      4.4619      1.7412     0.22607
0.16852      0.1159     0.19581     0.71542      3.7972      2.1157     0.27573
0.19483     0.13333     0.24613      0.8279      2.5804      2.3512     0.31158
0.21818     0.15142     0.28592      0.8815      1.1305      2.4449     0.32605
0.23133     0.16786     0.30664     0.87756    -0.14785      2.4005     0.32407
0.231     0.17806      0.3096     0.82757    -0.95917      2.2509      0.3119
0.21883     0.17674     0.29743     0.74765     -1.2486      2.0542      0.2925
0.1945     0.16457      0.2708     0.64702     -1.1137      1.8546     0.26652
0.16063      0.1432     0.23659      0.5329    -0.70002      1.6797     0.23495
0.11656     0.11458     0.19417     0.41484    -0.13832      1.5261     0.19614
0.068871    0.083013     0.14583     0.30072     0.47502       1.384     0.14944
0.023817    0.052757     0.09551     0.19943      1.0311      1.2505    0.094852
-0.012359    0.027763    0.049468     0.11393      1.3735      1.1203    0.036971
-0.034393    0.012306    0.013951     0.04618      1.2946     0.99102   -0.013345
-0.043272   0.0044134   -0.011043   -0.004466      0.6559     0.86309   -0.038339
-0.038339      0.0054   -0.027158   -0.035051    -0.50698     0.74305   -0.034722
-0.025842   0.0093464   -0.036695   -0.041299     -1.8902     0.63485  -0.0077547
-0.011701   0.0070443   -0.038997   -0.027158     -3.0284     0.54145    0.030065
-0.00051963 -0.00051963   -0.037353   0.0070443     -3.4921     0.46055    0.068871
0.0093464  -0.0038083   -0.034722    0.052757     -3.0902     0.39938    0.098798
0.018226   0.0017824   -0.032091     0.10242     -2.0247     0.36485     0.11228
0.026447     0.01132   -0.027487     0.14056     -0.7704     0.35038     0.11228
0.028092    0.017897   -0.024198     0.15536     0.21259     0.32769     0.10011
0.021186    0.017239   -0.027816     0.14287     0.69734     0.27672    0.081368
0.0093464    0.010662   -0.037682     0.10998     0.70359     0.19154    0.061307
-0.0024928   0.0034268   -0.050836    0.068871     0.38064    0.071502    0.039602
-0.014003  -0.0028217   -0.063991    0.027763   -0.069911   -0.082408    0.016253
-0.024198  -0.0080836   -0.071884   -0.012359    -0.46455    -0.26493  -0.0093991
-0.036366   -0.011372   -0.074844    -0.04689    -0.70758    -0.47244   -0.037024
-0.050507   -0.012359   -0.074844   -0.074186     -0.7921    -0.70002    -0.06432
-0.066622   -0.011372   -0.076817   -0.097536    -0.74606    -0.94799   -0.087341
-0.085367  -0.0087413   -0.082736    -0.12417    -0.60465     -1.2104    -0.11036
-0.10707   -0.010386   -0.093589    -0.16068    -0.42838     -1.4637    -0.13667
-0.12812   -0.018278    -0.10609    -0.21132    -0.30275     -1.6738    -0.16726
-0.14555    -0.03242    -0.11497    -0.26723    -0.31196     -1.8086    -0.19587
-0.15739   -0.048205    -0.11924    -0.31886    -0.49875     -1.8511    -0.21856
-0.16199   -0.066293    -0.12187    -0.35964    -0.83486     -1.7994    -0.23106
-0.15903   -0.079448    -0.12319    -0.38398      -1.243     -1.6689    -0.23237
-0.15213   -0.085367    -0.12286    -0.38957     -1.6491     -1.4896    -0.22612
-0.14818   -0.085039    -0.11793    -0.38201     -1.9967     -1.3104     -0.2156
-0.1495   -0.079119    -0.11168    -0.36293     -2.2332     -1.1772    -0.20212
-0.15114   -0.069911    -0.10773      -0.333     -2.3121     -1.1095    -0.18403
-0.14621   -0.058729    -0.10444     -0.2942     -2.2145     -1.0855    -0.16298
-0.13108   -0.042944   -0.097207    -0.25309     -1.9826     -1.0588    -0.14029
-0.10609   -0.024856   -0.083723    -0.21395     -1.7008    -0.98646    -0.11266
-0.075501  -0.0041372   -0.064649    -0.18041     -1.4327    -0.84374   -0.079119
-0.049521    0.012635   -0.044917    -0.15443     -1.2015    -0.63918   -0.041628
-0.032091    0.022501   -0.030118    -0.13536     -1.0078    -0.40009  -0.0064392
-0.025514    0.026776   -0.018278    -0.11957    -0.84406    -0.15114    0.021514
-0.026171    0.025132  -0.0077547    -0.10378    -0.71219    0.080382     0.04322
-0.028802     0.01987   0.0024402   -0.087012    -0.63063     0.26356    0.063281
-0.026829    0.013622    0.010662   -0.071555    -0.61715     0.36946    0.079724
-0.014003    0.014608    0.017239   -0.058071    -0.66549      0.3882    0.089919
0.0044134    0.027105    0.025132   -0.045903    -0.73389     0.34644    0.088603
0.021186     0.04618    0.035656    -0.03242    -0.75626     0.30401    0.080053
0.032038    0.065254    0.051441    -0.01203    -0.65233     0.32572    0.073476
0.040589    0.080382    0.068543    0.017239    -0.36425     0.45595    0.073476
0.051441    0.090248    0.081368    0.046837    0.099127     0.68221    0.083342
0.060321     0.09551    0.083999    0.065254     0.63354     0.91998    0.096825
0.064267    0.096496    0.074462    0.066569      1.0847      1.0611     0.10242
0.062623    0.088603     0.05473    0.053743      1.3327      1.0502    0.095181
0.055388    0.076106    0.032696    0.030065      1.3422      0.9065    0.077751
0.044864    0.059663    0.013293   0.0030979      1.1702     0.69734    0.050455
0.03434    0.042891  -0.0011774   -0.018936     0.91538     0.49344    0.013622
0.021843    0.025461   -0.015319   -0.036037     0.66149     0.34512   -0.027816
0.0037556    0.010333   -0.027816    -0.04985     0.45562     0.25797   -0.067937
-0.017621  -0.0028217   -0.040313   -0.063333     0.29579     0.20338    -0.10082
-0.036366   -0.016963   -0.054125   -0.079777     0.16786     0.15043    -0.12023
-0.046232   -0.031433   -0.069582    -0.10247    0.064596    0.077093    -0.12911
-0.051823   -0.044917   -0.082408    -0.12944  -0.0047949   -0.016634    -0.13272
-0.055112   -0.051494   -0.088985    -0.15673   -0.014332    -0.12352    -0.13305
-0.057743   -0.050507   -0.083065    -0.17416    0.065254    -0.23566    -0.13305
-0.059716   -0.041957    -0.06728    -0.17515      0.2435    -0.34484      -0.137
-0.06136   -0.033406    -0.04985     -0.1587     0.48193     -0.4389     -0.1416
-0.063333   -0.027487   -0.036366    -0.12845     0.69438    -0.50434    -0.14391
-0.059058   -0.024198   -0.028144   -0.093589     0.76739    -0.53328    -0.14226
-0.046232   -0.019265    -0.01795   -0.059058     0.62827    -0.52079    -0.13799
-0.027487   -0.010715   -0.007097   -0.023869     0.31684    -0.46751    -0.12648
-0.0080836   0.0021113   0.0037556    0.010991   -0.034393    -0.38661    -0.10115
0.0090175    0.021514    0.012635    0.045851    -0.30045    -0.30176   -0.066622
0.024145    0.044206    0.017239    0.070845    -0.41884    -0.24125   -0.034722
0.035327    0.064596    0.017897    0.083013     -0.3945    -0.21099  -0.0077547
0.038944    0.074133    0.015924    0.081368    -0.28203    -0.20113     0.01691
0.035327    0.069529     0.01132    0.068214    -0.14719    -0.19916    0.038944
0.031381    0.051441    0.010662    0.045851    -0.02946    -0.19883    0.054072
0.028092    0.026447    0.015266    0.020199    0.074133    -0.20146    0.060979
0.02579    0.002769    0.027763   0.0037556     0.18562    -0.21823     0.06065
0.029407   -0.011372    0.044535  -0.0011774     0.31947    -0.25605    0.052099
0.038616   -0.012359    0.059334   0.0037556     0.46516    -0.30604    0.043877
0.04618  -0.0041372    0.065254    0.013293     0.60032    -0.35043    0.047495
0.045851   0.0080309    0.064267    0.022501     0.70095     -0.3728    0.062623
0.037629    0.018226    0.057032    0.029078     0.75884    -0.36688    0.082026
0.027434    0.021843     0.04026    0.029078     0.78482     -0.3409    0.093208
0.018884    0.018555    0.016581    0.018884     0.78514     -0.2988    0.092221
0.015266    0.013293  -0.0087413  -0.0024928     0.76147    -0.24947    0.080382
0.014937   0.0086887   -0.027816   -0.031104     0.71378    -0.21231    0.068214
0.017239   0.0024402   -0.036695    -0.06136     0.63979    -0.20113     0.06065
0.019541  -0.0024928   -0.031762   -0.088656     0.51416    -0.21856     0.06065
0.018555  -0.0061104   -0.016305    -0.11332     0.29941    -0.25112    0.070516
0.014608  -0.0038083   0.0034268    -0.13141   -0.028802    -0.28729    0.086959
0.013622   0.0073732    0.021843    -0.13832    -0.44548    -0.31393     0.10603
0.017239     0.02283    0.038616    -0.12582     -0.8559    -0.30965     0.12478
0.026447    0.036314    0.054072   -0.096549      -1.166    -0.26197     0.13793
0.035656    0.045851    0.066569   -0.059387     -1.3479    -0.17449     0.14484
0.042891    0.050126    0.073476   -0.022554     -1.3962   -0.067609     0.14747
0.050784    0.049468     0.07808   0.0090175     -1.2887    0.041575     0.14616
0.060979    0.045193    0.082026     0.03434     -1.0184     0.13728     0.13925
0.075449    0.039273    0.083999    0.059663     -0.6599     0.20963     0.13366
0.090577    0.034669    0.085644    0.094852    -0.33004     0.25665      0.1284
0.10406    0.034669    0.087288     0.14122   -0.091945     0.28395     0.12642
0.11623    0.038616    0.087617     0.19516    0.087617       0.305     0.12741
0.12774     0.04881    0.086959     0.25172     0.29941     0.32802     0.13037
0.13563    0.064267    0.088603     0.31158     0.61644     0.34742     0.12807
0.14188    0.079066     0.09255     0.37176      1.0328     0.35334     0.11524
0.14648    0.085644    0.097812     0.43293      1.4968     0.34348     0.09551
0.14813    0.084986     0.10044     0.49706      1.9303     0.32341    0.077751
0.14714    0.083013    0.099127     0.56151      2.2394     0.30697     0.06361
0.14024    0.081368    0.097483     0.62696      2.3568     0.30335     0.05177
0.12938    0.075778    0.092879     0.68517      2.2677     0.30598    0.041575
0.11524    0.064596    0.083013     0.71641      2.0144     0.30072    0.032038
0.1011    0.047166    0.070187     0.70918      1.6764      0.2777    0.016581
0.087946    0.030394    0.055388     0.65886       1.334     0.25238   0.0011247
0.076435    0.017897    0.038616     0.57105      1.0519     0.24679  -0.0090702
0.065254    0.011977    0.021843     0.45924     0.87361     0.28296   -0.013674
0.056703    0.010662   0.0093464     0.33624     0.79337     0.36979   -0.017621
0.047824    0.013622   0.0014536     0.21982     0.76969     0.49081   -0.022883
0.034669    0.018555  -0.0047949     0.12412     0.76245     0.61446   -0.031762
0.02283    0.020199   -0.011701     0.05769      0.7641      0.7072   -0.039326
0.016581    0.017897   -0.018936    0.017568     0.80159     0.74601   -0.047877
0.017239    0.011977   -0.022225  -0.0031506     0.90913     0.72463   -0.054454
0.018555   0.0017824   -0.019923   -0.016634       1.089     0.65064   -0.055769
0.017897  -0.0093991   -0.013345    -0.03242      1.2998     0.53849   -0.051165
0.017568   -0.014332  -0.0008485   -0.059716      1.4679     0.41352   -0.039326
0.014608   -0.011701    0.012635     -0.0903      1.5175     0.30237   -0.025514
0.010662  -0.0018351    0.023488    -0.11891      1.4136     0.21785   -0.014003
0.0070443    0.010004    0.031381    -0.13634      1.1768     0.15931  -0.0074258
0.0030979    0.018226    0.036314    -0.14029      0.8621     0.12116  -0.0057815
0.0001381    0.022172    0.038944    -0.12911     0.52501    0.095839 -0.00019077
-0.0015062    0.021843    0.041904    -0.10378     0.20634    0.074133    0.010004
0.002769    0.017897    0.043549   -0.066293   -0.065964    0.037629    0.026119
0.010004    0.010004    0.045522   -0.022883    -0.27447   -0.026171    0.044535
0.013951   0.0011247    0.050455    0.017897    -0.40996    -0.11562    0.059005
0.0090175  -0.0080836    0.056374    0.044864    -0.48527    -0.21395     0.06361
-0.0038083   -0.016305    0.059992    0.053415    -0.53789    -0.29354     0.05769
-0.018278    -0.01795    0.057361    0.042562    -0.62274    -0.33892    0.043877
-0.030775   -0.014332    0.051441    0.012635     -0.7829    -0.35043    0.025461
-0.038997  -0.0051238    0.043877   -0.034064     -1.0269    -0.33892   0.0044134
-0.04393   0.0037556    0.034669   -0.090958     -1.3377    -0.31557   -0.013345
-0.045574   0.0077021     0.02283    -0.14785     -1.7004    -0.29157   -0.024198
-0.043272 -0.00019077    0.010991    -0.19521        -2.1     -0.2748   -0.025514
-0.039326   -0.016634  0.00046697    -0.22875     -2.5075     -0.2748   -0.019594
-0.035051   -0.036695  -0.0051238     -0.2498     -2.8899    -0.29979   -0.011043
-0.03538   -0.050836  -0.0034794     -0.2669     -3.2362    -0.35931  -0.0051238
-0.043272   -0.054783  0.00079584    -0.28565     -3.5355    -0.44515   -0.010057
-0.056427   -0.052481   0.0021113    -0.30472     -3.7503    -0.53756   -0.027487
-0.071884   -0.050836   0.0021113    -0.31853     -3.8144    -0.60761   -0.053138
-0.085696   -0.055112  -0.0018351    -0.32051     -3.6746    -0.63655    -0.07879
-0.09622   -0.061689  -0.0064392    -0.30505     -3.3356    -0.62274   -0.099838
-0.10247   -0.065307   -0.013017    -0.27874     -2.8123    -0.57933    -0.10641
-0.10477   -0.063004   -0.024198    -0.25145     -2.0961    -0.52572   -0.097864
-0.10115   -0.057414   -0.040313     -0.2281     -1.1262     -0.4685    -0.07879
-0.089314   -0.049521     -0.0584    -0.20277     0.17279    -0.39089   -0.050836
-0.067937   -0.038668    -0.07024    -0.16166       1.704    -0.27019   -0.015648
-0.036037   -0.025185   -0.069582   -0.095233      3.2063   -0.095562    0.028421
0.0037556   -0.004466   -0.054454  -0.0057815      4.3935     0.11853    0.072818
0.041247    0.022501   -0.028473    0.097483      4.9594     0.34841     0.10866
0.065912    0.047824   0.0030979     0.19285      4.9594     0.57105     0.13004
0.074462    0.064925    0.031381     0.25863      4.6349      0.7664     0.13958
0.077751    0.067556    0.053086     0.28296      3.9206      0.9259     0.14484
0.083999    0.059005    0.064925     0.26685      3.1721      1.0716     0.15142
0.093865    0.044535    0.068543     0.22541      2.5564      1.2337     0.16095
0.10274    0.030065    0.065583     0.18167      2.1401      1.4235     0.17312
0.1113     0.01691    0.057032     0.14616      1.8865      1.6175     0.18397
0.11393   0.0040845    0.046837     0.11261      1.7106      1.7592     0.18397
0.10603  -0.0034794    0.035985    0.067556       1.529      1.7823     0.17082
0.086959  -0.0024928    0.026447   0.0017824      1.3002      1.6543     0.14418
0.063281   0.0047422    0.015595   -0.078132      1.0535      1.4057     0.11458
0.039931    0.012964   0.0070443    -0.15344     0.83053      1.1117    0.094852
0.024145    0.021843   0.0014536    -0.20179     0.63387     0.85355    0.086959
0.018226    0.033025 -0.00051963    -0.21067     0.44246     0.68056    0.091234
0.01987    0.047495  -0.0024928    -0.18534     0.22377     0.60361     0.10209
0.021186    0.058348  -0.0028217    -0.14226   -0.046232     0.59407     0.10636
0.015595    0.061636   0.0001381   -0.098193     -0.3774     0.59539    0.095181
-0.0008485    0.051441 -0.00019077   -0.071884    -0.78026      0.5454    0.068543
-0.025514    0.029078  -0.0087413   -0.069911     -1.2167     0.40333    0.029078
-0.053467 -0.00019077   -0.021567   -0.082736     -1.5718     0.17378   -0.012359
-0.076159   -0.020252   -0.030118   -0.092603      -1.709     -0.1051   -0.045574
-0.086683   -0.022554   -0.029789   -0.082408      -1.586     -0.3774   -0.064649
-0.082079  -0.0064392   -0.016634   -0.045246     -1.3038      -0.603   -0.068595
-0.062676     0.01987    0.002769   0.0083598     -1.0397    -0.76777   -0.063662
-0.036037    0.050126     0.02283    0.063281    -0.93681    -0.87564    -0.06136
-0.013017    0.077751    0.035656     0.10472     -1.0207    -0.94042   -0.069911
-0.0015062    0.097812    0.038287      0.1307     -1.2045    -0.97364   -0.085367
-0.0054526     0.10899    0.031381      0.1478     -1.3522    -0.97232   -0.097536
-0.022554     0.11064    0.020199     0.17246     -1.3439    -0.92464    -0.10609
-0.042944     0.10603    0.012635      0.2116     -1.1571    -0.82236    -0.11365
-0.057743    0.095181    0.010991     0.25731    -0.88912     -0.6747    -0.12023
-0.066293    0.081039    0.015924     0.30204    -0.66154    -0.50665     -0.1222
-0.07024    0.067556    0.025461      0.3438     -0.5836    -0.34386    -0.11529
-0.066951    0.057361      0.0373     0.37768    -0.71054     -0.2054   -0.094576
-0.04985    0.054072    0.043877     0.38952     -1.0174    -0.10543     -0.0584
-0.022883    0.052757    0.041904     0.35926     -1.3952   -0.051165   -0.021567
0.0037556    0.051113    0.033683     0.27869     -1.6985    -0.04097   0.0044134
0.021514    0.047166     0.02283      0.1672     -1.8409   -0.058729    0.015595
0.030065    0.040918    0.011648    0.056046     -1.8244   -0.084381    0.015266
0.029078    0.034669  -0.0047949   -0.025185     -1.7152    -0.10313   0.0080309
0.01987    0.027105   -0.025842   -0.063333     -1.6021    -0.11003  -0.0038083
0.0070443    0.021186   -0.049521   -0.065635     -1.5751    -0.11529   -0.013674
-0.0047949    0.020199   -0.067937   -0.046561     -1.6708    -0.12713   -0.017621
-0.0097279    0.025461   -0.074186     -0.0265     -1.8491     -0.1495   -0.017621
-0.0051238    0.035656   -0.071555   -0.021896     -2.0148     -0.1837   -0.013017
0.0050711    0.050126   -0.065307   -0.040313     -2.0681     -0.2304   -0.002164
0.014279    0.064267   -0.062018   -0.082408     -1.9629    -0.28137    0.016581
0.015924      0.0692   -0.063662    -0.14062     -1.7297    -0.32018    0.039931
0.0090175    0.058348   -0.066622    -0.20672     -1.4758    -0.33498    0.064267
-0.0034794    0.038287   -0.069582    -0.26789     -1.3232    -0.34057    0.082026
-0.015648    0.021514   -0.074186    -0.30768     -1.3259    -0.37477    0.087946
-0.019923    0.014608   -0.073199    -0.31722     -1.4406    -0.45699     0.08367
-0.018607    0.014279   -0.065635    -0.29551      -1.561     -0.5688    0.073476
-0.012688    0.018884   -0.052152     -0.2475     -1.5765    -0.65661    0.063281
-0.0047949    0.024474   -0.034393    -0.18304     -1.4676    -0.67601    0.056703
-0.0011774    0.026119   -0.016305    -0.12056     -1.2877    -0.61517    0.050455
-0.0057815    0.023817   0.0001381   -0.067937     -1.0753    -0.48593    0.038287
-0.020252     0.01691    0.013622   -0.032091    -0.85985    -0.30735    0.015595
-0.040313   0.0073732    0.021514   -0.016963    -0.66944   -0.096878   -0.012359
-0.054454  -0.0015062    0.020528   -0.020909    -0.49875     0.12412   -0.035708
-0.056756   -0.007097    0.013293   -0.039326    -0.29255     0.32769   -0.043601
-0.048205  -0.0077547   0.0011247   -0.058071    0.025461     0.48324   -0.031104
-0.032749  -0.0051238  -0.0067681   -0.066622     0.54803     0.56382  -0.0015062
-0.013674 -0.00019077  -0.0077547   -0.057743      1.3442      0.5579      0.0373
0.0054   0.0011247  -0.0011774   -0.029131      2.3568     0.47305    0.073804
0.01987  -0.0034794   0.0080309    0.013293      3.3839      0.3267    0.097483
0.030394   -0.011701     0.01691     0.05769      4.1744      0.1501     0.10505
0.034998    -0.01499    0.024803    0.094852      4.5303   -0.024527      0.1011
0.03434  -0.0074258    0.031709     0.11886      4.4004    -0.17515    0.094194
0.031381   0.0067154    0.038616      0.1353      3.8841    -0.28335    0.091234
0.029407     0.01987    0.043877     0.14977      3.1573    -0.32577    0.093865
0.032038    0.029078    0.048153     0.16622      2.3861    -0.28499     0.10077
0.035656    0.028421    0.047166       0.182      1.7027    -0.16956     0.10176
0.036314    0.017568    0.041247     0.19285      1.1857   -0.022554    0.080711
0.028421 -0.00051963    0.033683     0.19121     0.85388    0.096167    0.029407
0.014937   -0.017292    0.026447      0.1751     0.68155     0.13991   -0.046232
-0.0011774   -0.027816    0.019541     0.14517     0.62038     0.10274    -0.12483
-0.016305   -0.029789   0.0086887    0.099127     0.61117    0.020528    -0.18041
-0.0265   -0.029789  -0.0038083    0.032696     0.56743   -0.058729    -0.19948
-0.033735   -0.031762    -0.01499   -0.056098     0.40695    -0.11891    -0.18337
-0.032749   -0.037353   -0.025185    -0.15377     0.10209    -0.17087     -0.1393
-0.021567   -0.042615    -0.03242    -0.23665    -0.29157    -0.23138    -0.08175
-0.0034794   -0.042944   -0.038997    -0.28104    -0.63129    -0.31196   -0.028802
0.015266   -0.042615   -0.042615     -0.2771    -0.77467    -0.41851   0.0077021
0.027105   -0.044588   -0.039326    -0.23204    -0.65957    -0.54545    0.027105
0.029407   -0.047219   -0.023211     -0.1587    -0.31261    -0.68325    0.036642
0.027763   -0.043272   0.0037556   -0.071884     0.17279    -0.82663    0.038616
0.032038   -0.027487    0.036642    0.020199      0.6605     -0.9641    0.043549
0.045851  -0.0018351    0.069858     0.10669      1.0331     -1.0664     0.05473
0.063281    0.026119    0.096825     0.17838      1.2235     -1.0874    0.071502
0.074791    0.052428      0.1113     0.22377      1.1975    -0.98318    0.086301
0.072818    0.071502     0.11031     0.23857     0.94826    -0.74014    0.094852
0.062952    0.080711    0.097812     0.23133     0.52633    -0.38266     0.10044
0.051113    0.080711    0.080711     0.21357    0.050455    0.030723     0.10636
0.041904    0.074791    0.061307     0.19253    -0.37773     0.43161      0.1136
0.038616    0.064925    0.044206     0.17016    -0.72567     0.76607     0.12313
0.041247    0.053086    0.032038      0.1455     -1.0154      1.0094     0.13366
0.044864    0.044206    0.026447     0.11656     -1.2746      1.1564     0.14418
0.046508    0.038287    0.020528    0.085644     -1.4653       1.215      0.1501
0.049797    0.032367   0.0080309    0.053086     -1.5182      1.1962     0.14681
0.055717    0.027105   -0.011372    0.018226      -1.392       1.116     0.13103
0.06361    0.018884   -0.033078   -0.024527       -1.12     0.99233     0.10143
0.069858    0.010333   -0.051494   -0.075501     -0.7602     0.84533    0.068214
0.071502   0.0063866   -0.063333    -0.12319    -0.33465      0.6901    0.041904
0.067885    0.010004   -0.065964    -0.15015     0.19417     0.54047    0.026447
0.060979    0.020199   -0.058729    -0.14095     0.87328     0.41583    0.022501
0.053086    0.031052   -0.043272   -0.087998      1.6816     0.32703    0.033354
0.047166    0.038287   -0.024198  -0.0008485      2.4844     0.27178    0.054072
0.045193    0.036642  -0.0054526    0.091563      3.0941     0.22574    0.072489
0.046837    0.030065   0.0073732     0.16326      3.3559     0.16293    0.077751
0.049139    0.023159    0.012964     0.20206       3.199    0.065912    0.067227
0.051441    0.020199   0.0090175     0.20535      2.6498   -0.060373    0.047166
0.052099    0.017568  -0.0054526     0.17838      1.7921    -0.18797    0.022172
0.047495    0.011648     -0.0265     0.13333     0.72924    -0.27052  -0.0034794
0.0373   0.0024402   -0.048863    0.085972    -0.36721    -0.25704   -0.023211
0.027434  -0.0011774   -0.066293    0.048153     -1.2476    -0.13996   -0.030118
0.023817   0.0083598   -0.074844    0.024474     -1.7386    0.031052   -0.024527
0.031381    0.028421    -0.07583    0.019212     -1.8149     0.18562   -0.013017
0.044864    0.052757   -0.073528    0.032038     -1.5742      0.2731  -0.0024928
0.058019    0.072489    -0.07024    0.051441     -1.1647     0.28132   0.0073732
0.06624    0.079066   -0.065964    0.063938    -0.73093     0.23199    0.016253
0.063281    0.068543   -0.060702    0.059005    -0.36918     0.15438    0.021843
0.04618    0.045193    -0.05544    0.033025    -0.10937    0.067227    0.018226
0.014937    0.019541   -0.056756   -0.007097    0.059334   -0.021567   0.0034268
-0.025842  -0.0051238   -0.065307   -0.050179     0.13596    -0.11858   -0.026829
-0.066951   -0.023211   -0.076817   -0.080106     0.11754     -0.2304   -0.075501
-0.10411   -0.033406   -0.084052   -0.087669    0.013622    -0.35405      -0.137
-0.13371   -0.035708   -0.081092   -0.074515    -0.17186    -0.49251    -0.19521
-0.15509   -0.033406    -0.06728   -0.051165    -0.43265    -0.65628    -0.23632
-0.16495   -0.030118   -0.045903   -0.028473    -0.75363    -0.85426    -0.25868
-0.16561   -0.028802   -0.022554   -0.019594     -1.0832     -1.0772    -0.26789
-0.1587   -0.027158 -0.00019077   -0.024527     -1.3443      -1.293    -0.26723
-0.14654   -0.027487    0.019212   -0.035708     -1.4344     -1.4554    -0.26065
-0.12812   -0.025842    0.027763   -0.042944     -1.2801     -1.5334    -0.25046
-0.10543   -0.021238    0.025132   -0.041299    -0.91609     -1.5166    -0.23533
-0.080106   -0.013017    0.017568   -0.029789     -0.4754     -1.4173    -0.21395
-0.052152  -0.0047949    0.016253   -0.013674   -0.097207     -1.2505    -0.18403
-0.022883   0.0077021     0.02283    0.013293     0.16622      -1.023    -0.14719
0.0086887    0.022501    0.036971    0.059992     0.34874      -0.751    -0.10839
0.04026    0.040918     0.05769     0.12642     0.52402    -0.46652   -0.075173
0.0692    0.059334    0.079724     0.20272     0.74469    -0.21264   -0.051494
0.088275    0.073804    0.097154     0.26882     0.97589   -0.035051   -0.041299
0.093536    0.077422     0.10274     0.29974      1.1048    0.036314   -0.045246
0.080053      0.0692    0.096167     0.28329      1.0423    0.011648   -0.060045
0.051441    0.051441    0.082026      0.2241     0.78745   -0.058071   -0.079119
0.015266    0.027105    0.060321     0.14122     0.41944     -0.1176   -0.091616
-0.016963    0.002769    0.033354    0.053415     0.05473    -0.14325   -0.087998
-0.037353   -0.013345   0.0047422   -0.018278    -0.22711    -0.13174   -0.064649
-0.042615   -0.019594   -0.020909   -0.059716    -0.40437   -0.095233   -0.030447
-0.039984   -0.017292   -0.036695   -0.063991    -0.48823   -0.046232  -0.0051238
-0.037353   -0.014661   -0.039655    -0.03242    -0.45633   0.0057288    0.002769
-0.039326   -0.016305   -0.028802    0.026447    -0.21823    0.079395  -0.0090702
-0.047548   -0.014661   -0.011372     0.10373     0.31717      0.2241   -0.030118
-0.051494  -0.0077547   0.0063866     0.18858      1.1676     0.49475   -0.041628
-0.042944   0.0067154    0.024145     0.26619      2.1934     0.94399   -0.024856
-0.014003    0.025132    0.039931     0.32407      3.1306        1.58    0.026447
0.027763    0.044535    0.053415     0.34709      3.7121      2.3229     0.10307
0.068871    0.059334    0.063938     0.32802      3.7755      3.0362      0.1797
0.096167    0.067556    0.072489      0.2708      3.3214      3.5894     0.23955
0.10735    0.065912    0.076435     0.18496       2.514      3.8933     0.26619
0.10209    0.053743    0.068214    0.086301      1.6017       3.914     0.25698
0.086301    0.036971    0.046837   -0.013017     0.80159      3.6617     0.22081
0.068871    0.023488    0.014937    -0.10148     0.25008      3.1967     0.17411
0.056046    0.014608   -0.014332    -0.16462   -0.002164      2.6107     0.14024
0.053086    0.010004   -0.031762     -0.1962   -0.011372      1.9921      0.1307
0.065583    0.010662   -0.030775    -0.19718     0.11097      1.4008      0.1455
0.088932     0.01691   -0.019265    -0.17285     0.24087     0.86769     0.17378
0.11557    0.025132  -0.0018351    -0.13536     0.25731     0.41944     0.20568
0.13728    0.030394    0.014608   -0.098522    0.098141    0.078737     0.23429
0.15207    0.030394     0.02579   -0.066622    -0.21922     -0.1495     0.25402
0.15438    0.024145    0.033354   -0.047219     -0.6109    -0.28565      0.2629
0.14385    0.018226    0.039273   -0.041299     -0.9835    -0.36326     0.25369
0.12379    0.014279    0.044864   -0.045246     -1.2864    -0.41555     0.22903
0.1011    0.013951    0.056046    -0.04985     -1.5505    -0.46587     0.19581
0.083999     0.01691    0.074791   -0.042944     -1.8991    -0.51388      0.1626
0.07512    0.028092    0.096496   -0.021896     -2.4716    -0.54381     0.14352
0.076435    0.045193     0.11327    0.013951     -3.2836    -0.54085     0.14451
0.088275    0.065254     0.12215    0.055388     -4.2202    -0.50994     0.16194
0.10538    0.085972     0.12905    0.098469     -4.9687    -0.47442     0.18595
0.12083     0.10242     0.13826     0.13892     -4.9684    -0.46422     0.20568
0.12741     0.11327     0.15438     0.17181     -4.9684    -0.47376     0.21489
0.12445     0.11952     0.17312     0.19614     -4.9684    -0.46948     0.21259
0.11426     0.12149     0.19318     0.21423     -3.9897    -0.42903      0.2014
0.098469     0.11426     0.21061     0.22443      -2.692    -0.36458     0.18891
0.080711     0.10209     0.22081     0.22114     -1.4988    -0.33432     0.17049
0.061636     0.08663     0.22114     0.20075     -0.6622    -0.40174     0.14484
0.04322    0.068214     0.20798     0.16983    -0.23895    -0.59248     0.10768
0.019541    0.046508     0.18134     0.13366   -0.098522    -0.86972    0.060979
-0.007097    0.030065     0.14418    0.098469   -0.036366     -1.1539    0.010004
-0.031433    0.017897     0.10472    0.068871    0.095839     -1.3601    -0.04097
-0.047219    0.010991     0.07216    0.041575     0.35038     -1.4344   -0.083065
-0.054783   0.0030979    0.050455   0.0090175     0.69142     -1.3624    -0.11201
-0.057414  -0.0067681    0.039931   -0.030447      1.0219     -1.1696    -0.12417
-0.060373   -0.015976    0.035656   -0.074515      1.2216    -0.91543    -0.12483
-0.063333   -0.022883    0.032696    -0.11858      1.1979    -0.65891    -0.12121
-0.070897   -0.028473    0.024145    -0.15706     0.91932     -0.4435    -0.11957
-0.081421   -0.034064      0.0054    -0.19028     0.42306    -0.28894     -0.1222
-0.093589   -0.035051   -0.020252    -0.21955    -0.17416    -0.19455    -0.12483
-0.10806   -0.033406   -0.045903    -0.24816     -0.6793    -0.15344    -0.12483
-0.12187   -0.034064   -0.067937     -0.2794    -0.92825    -0.15114    -0.12121
-0.13009   -0.039655   -0.082736    -0.30768     -0.8832    -0.17613    -0.11266
-0.13141   -0.048534   -0.091945    -0.33366    -0.63984    -0.22119    -0.10707
-0.13141    -0.05544   -0.094247    -0.35964    -0.35175    -0.28367    -0.10773
-0.13404   -0.057414   -0.086683    -0.37937    -0.12154    -0.35504    -0.11135
-0.137   -0.059716   -0.073199    -0.38595     0.04322    -0.41785    -0.11661
-0.13601   -0.065964   -0.060373     -0.3728     0.18332    -0.44778     -0.1176
-0.12812    -0.07287   -0.051165    -0.33728     0.33591    -0.42081    -0.11003
-0.11201   -0.079777    -0.04097    -0.28071     0.51449    -0.33004   -0.091945
-0.089314   -0.084381   -0.025842    -0.21264     0.71904    -0.18797   -0.062347
-0.064649   -0.082736  -0.0087413    -0.14456     0.93412    -0.02354   -0.020909
-0.039984   -0.072213 -0.00051963   -0.090629      1.1045     0.12116    0.025461
-0.018936   -0.054454  -0.0051238   -0.061689      1.1591     0.20108    0.063281
-0.0034794   -0.039326   -0.019594   -0.060702      1.0473     0.19088    0.082355
0.0030979   -0.030775   -0.039326   -0.087341     0.78021    0.094194    0.084657
0.0011247   -0.030447   -0.059716    -0.13141     0.42142   -0.059716    0.075449
-0.010715   -0.039984    -0.07583     -0.1814    0.054072    -0.23533    0.059663
-0.02946   -0.056098    -0.08471    -0.21987    -0.25572    -0.40305    0.036642
-0.050507   -0.070897   -0.088656     -0.2373    -0.47606    -0.55729   0.0063866
-0.069911   -0.077475     -0.0903    -0.22744    -0.59774    -0.70989   -0.028473
-0.087012   -0.072542   -0.088985    -0.18995    -0.62043    -0.87695   -0.063662
-0.098851   -0.063333   -0.081421     -0.1245    -0.55104     -1.0591   -0.098522
-0.10214   -0.057414   -0.068595   -0.038339    -0.37937     -1.2183    -0.13404
-0.092274   -0.057085   -0.055769    0.060979   -0.092931     -1.3065    -0.16462
-0.075501   -0.056756   -0.044588     0.16852     0.27704     -1.2867    -0.17613
-0.057414    -0.05281   -0.037024     0.26915     0.64505     -1.1509    -0.16462
-0.041957   -0.044917   -0.032749     0.33756     0.94826     -0.9174    -0.13536
-0.031433   -0.033078   -0.028802     0.34874      1.1584    -0.63096   -0.098193
-0.023869   -0.016305   -0.022883     0.29809      1.2232    -0.35438   -0.063004
-0.015976   0.0040845   -0.016634     0.20436      1.1009    -0.12746    -0.03538
-0.007097    0.021514   -0.014661     0.10307     0.81211    0.046837   -0.020252
0.0034268    0.031709   -0.011701    0.023159     0.44049      0.1991   -0.011701
0.014608    0.031709  -0.0018351   -0.020252     0.14418     0.36683  -0.0054526
0.027763    0.027434    0.010662   -0.025185     0.07808     0.57138   0.0037556
0.044206    0.025461    0.023817   -0.002164      0.3198     0.81178    0.017568
0.061965    0.033683    0.036314    0.032696     0.81178       1.069    0.040589
0.079395    0.052099    0.051113    0.073804      1.3926      1.3077    0.077093
0.095839     0.07512      0.0692     0.12313      1.9099      1.4919     0.12379
0.11097    0.095181    0.087946     0.17937      2.2608      1.5955     0.16687
0.1284     0.10932     0.10702     0.23035      2.4058      1.6116     0.20009
0.1455      0.1136     0.12544     0.25961      2.3594      1.5514     0.22377
0.15175     0.10735     0.13596     0.25698      2.1582      1.4192     0.23265
0.14254    0.096167     0.13399      0.2287      1.8441      1.2153      0.2264
0.11886    0.084657     0.11985     0.19351       1.459     0.93149     0.20436
0.091234    0.075449    0.098141     0.16819      1.0597     0.57763     0.16654
0.065912      0.0692     0.07808     0.16424     0.72398     0.19121     0.11919
0.049468    0.067885     0.06361     0.17871     0.46779     -0.1712    0.073476
0.044864    0.071173    0.054072     0.20173     0.23626    -0.46554    0.034998
