-0.041299    0.030723   -0.068924    -0.26164    -0.14687    -0.57045   -0.031762
-0.040313    0.034669   -0.063333    -0.28795      0.0373    -0.64707   -0.042615
-0.035051    0.034998     -0.0584    -0.30374     0.20798    -0.74212   -0.052481
-0.024856    0.032367   -0.050179    -0.29749     0.28033    -0.84176   -0.057085
-0.0093991    0.028421   -0.038997    -0.26723     0.21752    -0.92793   -0.051823
0.0093464    0.031709   -0.022225    -0.21132    0.059005     -0.9743   -0.035051
0.029736     0.04322   -0.004466    -0.13009    -0.12154    -0.96377   -0.011372
0.047824    0.059663    0.012635    -0.02354    -0.27249    -0.90063    0.016581
0.060321    0.074462    0.027434    0.097483    -0.42673    -0.80296    0.043877
0.068871    0.082355    0.039602     0.21423    -0.70923    -0.69706    0.065254
0.074133     0.08663    0.050455     0.31486     -1.2367    -0.59972    0.074791
0.076106    0.087946     0.06065     0.38689      -1.977     -0.5129    0.065912
0.075449    0.086959    0.067885     0.42306     -2.7857    -0.42443    0.044535
0.071831    0.084986     0.07216     0.41681     -3.5345    -0.30637    0.021514
0.065254    0.082026    0.070516     0.36748     -4.0995    -0.15377   0.0021113
0.05473    0.076106    0.059005     0.28231     -4.3557   0.0080309   -0.016305
0.038287    0.063281    0.039273     0.17773     -4.2367     0.12281   -0.038997
0.015595    0.041904   0.0093464    0.065912     -3.7812     0.12116    -0.06432
-0.012688    0.017239   -0.027816   -0.044917     -3.1353   -0.048534   -0.090629
-0.038997  -0.0054526   -0.063004    -0.14884     -2.4743    -0.39154    -0.11102
-0.057085   -0.020581   -0.086683    -0.23994     -1.9093    -0.85393    -0.12253
-0.064978   -0.027816   -0.095891    -0.30933     -1.4278     -1.3324    -0.11825
-0.063333   -0.029789   -0.094247     -0.3603     -0.9322     -1.7254    -0.10378
-0.061031   -0.030447    -0.09622    -0.39582    -0.32478     -1.9586   -0.087998
-0.062018   -0.035708    -0.10477    -0.41621     0.38228     -1.9872    -0.07287
-0.069253   -0.042944    -0.12187    -0.41752      1.0597      -1.804   -0.060702
-0.080763   -0.050507    -0.14325    -0.39911      1.6254     -1.4271   -0.058071
-0.090958   -0.060373    -0.15903    -0.35734      2.1424    -0.90556   -0.066951
-0.094247   -0.068595    -0.16068    -0.29091      2.7403    -0.31327    -0.07879
-0.084052   -0.068266    -0.14226    -0.19981      3.3947     0.26027   -0.078461
-0.05544     -0.0584    -0.10806   -0.091616      3.8453      0.7391     -0.0584
-0.012688   -0.038997   -0.064649    0.012306      3.7729      1.0884   -0.021896
0.034998   -0.018607   -0.026171    0.088275      3.0944      1.3307    0.018555
0.078737  -0.0018351   0.0021113     0.12215      2.1032      1.5251    0.050784
0.1113    0.011977    0.016253     0.12346       1.239      1.7093    0.067227
0.12905    0.022172    0.016581     0.11623     0.76969      1.8579    0.070187
0.13432    0.032367   0.0093464     0.12478     0.67497      1.9247    0.068543
0.12905    0.041575   0.0030979     0.16128     0.75686      1.8691     0.07216
0.11656    0.049797   0.0070443     0.23035     0.78646      1.6846    0.079066
0.10077    0.051441    0.021186      0.3244      0.6434      1.3975     0.08959
0.084986    0.050126    0.038944     0.41846     0.38327      1.0611     0.10143
0.072489    0.045851    0.052757     0.48259     0.15799      0.7391     0.11261
0.061307    0.040918    0.058676     0.49048      0.0692     0.48324     0.11853
0.049468    0.033354    0.054401     0.43589     0.10669     0.30533     0.11491
0.036314    0.022501    0.038944     0.33295     0.19483     0.18003     0.10242
0.026447      0.0054    0.018226     0.21588     0.26981    0.082026    0.084986
0.025461   -0.007097  -0.0008485     0.13234     0.31848    0.012635    0.058019
0.039602   -0.012359  -0.0057815     0.12116     0.37143  -0.0093991    0.021186
0.066569  -0.0031506     0.01132     0.19549     0.47206    0.046837  -0.0097279
0.10439    0.016253    0.051441     0.34052     0.64176     0.19812   -0.020581
0.14484     0.04026     0.10077     0.51087     0.82757     0.42076  -0.0090702
0.17641    0.056703      0.1432     0.66017     0.92294     0.65689    0.018226
0.19088     0.06065     0.16819     0.75949     0.82888     0.85355    0.048153
0.19187    0.053086     0.17773       0.796     0.52863     0.98838    0.068214
0.18529     0.04322     0.17641      0.7687     0.10603      1.0496    0.077093
0.16852    0.034669     0.16391     0.67958    -0.31163       1.019    0.076106
0.14188    0.023159     0.13728     0.53027     -0.6405     0.87229    0.069529
0.10307   0.0073732     0.10077     0.32111    -0.87892     0.59736    0.050455
0.055717  -0.0090702    0.059992    0.065912     -1.0953     0.21982    0.017568
0.0057288    -0.02354    0.016253    -0.19718     -1.3693    -0.19258   -0.024527
-0.040641   -0.037682   -0.024856    -0.42279     -1.7067    -0.55466    -0.06432
-0.078461   -0.052152   -0.057085    -0.57209     -2.0089    -0.79704   -0.083394
-0.10313   -0.063333   -0.075173    -0.63458     -2.1257    -0.87958   -0.073857
-0.11595   -0.068595   -0.079777    -0.61813     -1.9283    -0.81743   -0.039326
-0.11431   -0.066622    -0.07024    -0.54578     -1.3923    -0.66516   0.0090175
-0.10214   -0.055112   -0.049192    -0.44646    -0.58952     -0.4685    0.055717
-0.083394   -0.034064    -0.02354    -0.34978     0.34019    -0.25473    0.095839
-0.057743   -0.010386   0.0001381    -0.27216      1.1772   -0.053138     0.13267
-0.024856    0.011977    0.023159    -0.21461      1.7135    0.099127     0.16852
0.012635    0.027763    0.042233    -0.17285      1.8556     0.15997     0.20239
0.048482    0.038616    0.055388    -0.14423      1.6626    0.092879     0.23002
0.073804    0.048482    0.063938    -0.12944      1.2988    -0.10872      0.2458
0.08367    0.055717    0.071831    -0.12483     0.91636    -0.40897     0.24482
0.081039    0.060321    0.082355    -0.12352     0.55165    -0.73422     0.22377
0.067885    0.059663    0.097483    -0.11398     0.12971     -1.0026     0.18529
0.050126    0.056703     0.11754   -0.085039    -0.40963     -1.1525     0.13793
0.037629    0.055717     0.14089   -0.029789     -1.0115      -1.169    0.098141
0.030723    0.058676     0.16326    0.043549     -1.5094     -1.0762    0.074462
0.025461    0.062294     0.17871     0.11689     -1.6985    -0.88452    0.072489
0.021843    0.064267       0.182     0.17148     -1.4485     -0.5836     0.09255
0.022501     0.06065     0.17115     0.19746    -0.78487    -0.18797      0.1284
0.026776    0.050126     0.14813     0.19614     0.10669     0.20765     0.16391
0.029078    0.036642     0.12544      0.1797     0.93248     0.45858     0.18233
0.024145    0.030065     0.10801     0.15668      1.4182     0.48094     0.17411
0.010991    0.029736    0.093865     0.12642      1.4278     0.30072     0.13629
-0.010386    0.030394    0.077093    0.090248        1.02    0.030723     0.07512
-0.03538    0.026776    0.058676    0.062952     0.41122    -0.18896   0.0060577
-0.061689    0.018555    0.041904    0.055388    -0.15772    -0.27249   -0.056098
-0.083394   0.0070443    0.030723    0.067885    -0.54085    -0.22514   -0.099509
-0.1005  -0.0031506    0.023817    0.089919    -0.72995    -0.11365    -0.12187
-0.11233   -0.010386    0.017897    0.099127    -0.78914   -0.018278    -0.12812
-0.12154   -0.019923   0.0070443    0.062952    -0.78651   0.0090175    -0.12713
-0.13075    -0.02946   -0.016634   -0.033735     -0.7602   -0.039655    -0.12878
-0.14193   -0.037353   -0.047548    -0.16791    -0.71252    -0.13371    -0.14193
-0.15739   -0.043601   -0.080106    -0.29288    -0.64674    -0.24191    -0.17054
-0.17548   -0.048863    -0.10773    -0.36458    -0.57801    -0.35603    -0.20803
-0.19093   -0.053467    -0.13009    -0.36458    -0.52276    -0.47146    -0.24191
-0.20376   -0.060045    -0.14522    -0.30834    -0.49678    -0.57012    -0.26098
-0.21231   -0.065635    -0.15377    -0.23073    -0.51388    -0.62635    -0.26361
-0.2179   -0.071555     -0.1587    -0.16726    -0.57341    -0.62175    -0.25769
-0.22711   -0.075173    -0.16035    -0.13601    -0.64576    -0.55499     -0.2521
-0.23533   -0.073528    -0.15706    -0.13371    -0.68193    -0.44449    -0.24947
-0.23533   -0.066622    -0.14719    -0.14193    -0.63096     -0.3159    -0.24553
-0.21922   -0.056098    -0.13305    -0.13601    -0.47738    -0.19258    -0.23467
-0.19126   -0.044259    -0.11299   -0.099838    -0.23665   -0.092931    -0.21363
-0.15575   -0.031762   -0.090629   -0.035708    0.063938   -0.024856    -0.18633
-0.11957   -0.022225   -0.071555    0.035327     0.38623  -0.0011774    -0.15903
-0.086354   -0.014332   -0.058729    0.085644     0.63518   -0.036366    -0.13864
-0.055112  -0.0041372   -0.047877    0.095839     0.70918    -0.15147    -0.12615
-0.025514    0.011648   -0.031104    0.071173     0.57829    -0.35241    -0.11398
0.002769    0.028421  -0.0041372    0.031709      0.3198    -0.60564     -0.1005
0.024145    0.042562     0.02875  -0.0011774    0.044206    -0.84406   -0.091616
0.036642    0.050784    0.056703   -0.016305    -0.16956     -1.0026   -0.089972
0.038287    0.052099    0.073476   -0.015976    -0.30735     -1.0483   -0.093589
0.033354    0.051441    0.081039  -0.0054526    -0.37247    -0.98811   -0.095562
0.024145    0.047495    0.084328   0.0073732    -0.36523    -0.85952   -0.089972
0.018884    0.042891    0.083013    0.016253    -0.29453    -0.70364   -0.070897
0.021843      0.0373    0.075778    0.015595    -0.14785    -0.53822   -0.033735
0.030065    0.035985     0.06624    0.013622     0.22179    -0.34254    0.012635
0.046508    0.039273    0.058019     0.02579     0.96767   -0.079777    0.058348
0.073147     0.04618    0.058348    0.069529      1.9753     0.26521     0.10538
0.10735     0.05473    0.072489     0.14517      2.8508     0.65952     0.15536
0.14188    0.065254    0.099456     0.23594      3.1882      1.0367     0.20436
0.17049     0.07808     0.13234      0.3119      2.8044      1.3307     0.24087
0.18924    0.090577     0.16194     0.34479      1.8513      1.5037     0.25764
0.19417     0.10011     0.17411     0.31618     0.72825      1.5646     0.25271
0.18595      0.1034     0.16227     0.22969    -0.15279      1.5406     0.23002
0.16359    0.096825     0.13004     0.11097    -0.56486      1.4317     0.19845
0.133    0.079724    0.087617  -0.0034794    -0.53855      1.2235     0.15799
0.098798    0.057032    0.046837   -0.085039    -0.26592     0.92162     0.10702
0.066898    0.036314    0.014937    -0.12648    0.036642     0.55691    0.047495
0.041904     0.02283   -0.004466    -0.12713     0.23857     0.17345   -0.014003
0.02283    0.015924   -0.015319    -0.10247     0.31355    -0.17482   -0.066622
0.0057288     0.01132   -0.024198   -0.068266     0.31158    -0.44219   -0.095233
-0.011043   0.0067154   -0.034064   -0.036037     0.31092    -0.60366   -0.095233
-0.022554   0.0011247   -0.042615  -0.0087413     0.32045     -0.6724   -0.070568
-0.025842   0.0014536   -0.046561    0.013622     0.24613    -0.68719   -0.033406
-0.025842      0.0054   -0.045903    0.032038   -0.039984    -0.68785   0.0014536
-0.027816    0.010991   -0.042615    0.046837    -0.55828    -0.68851    0.023159
-0.030118    0.016253   -0.032749    0.062623     -1.1525    -0.68456    0.030723
-0.027487    0.020528   -0.016963    0.087617     -1.5801    -0.64346    0.034998
-0.014003    0.027105    0.002769      0.1205     -1.6629    -0.53493    0.043549
0.013293    0.037958    0.018555     0.15109     -1.3752    -0.36556    0.057032
0.046837    0.052757    0.027105     0.17115    -0.78224    -0.17811      0.0692
0.072489     0.06624    0.024145     0.17904  -0.0077547   -0.028802    0.074462
0.081039    0.075778    0.010991       0.182     0.73516    0.044864    0.070516
0.074791    0.079395  -0.0034794     0.18233      1.2133    0.039931    0.058676
0.061636    0.079724   -0.012359     0.18463      1.2636   -0.027487    0.044206
0.050784    0.077751   -0.012688     0.18759     0.86506    -0.15048    0.031052
0.044206    0.078409  -0.0084125     0.18562     0.17378     -0.3113    0.023159
0.037629    0.078737  -0.0080836      0.1695    -0.58525    -0.46751    0.016581
0.028092     0.07216   -0.019594      0.1353      -1.245    -0.56814   0.0034268
0.01691    0.055388   -0.039655    0.086959     -1.7172    -0.56946   -0.017621
0.0070443    0.031381   -0.065635    0.034998     -1.9464    -0.45271   -0.037024
0.0034268   0.0030979   -0.087998  -0.0080836     -1.8997    -0.23533   -0.045246
0.0057288   -0.022225    -0.10346   -0.029131     -1.6629    0.023488   -0.037353
0.010333   -0.040641    -0.11233    -0.02946     -1.4706     0.25172   -0.018278
0.015924   -0.046232    -0.11069   -0.017292     -1.5666     0.39248  -0.0028217
0.020857   -0.039326    -0.10214   -0.010057     -1.9885      0.4372   -0.002164
0.022501   -0.022554   -0.091287   -0.020581     -2.5594     0.42569   -0.018607
0.01987  -0.0031506    -0.08471   -0.056756     -3.0623     0.40432   -0.042615
0.014279   0.0080309   -0.083394    -0.11299     -3.2928     0.38294   -0.059716
0.0086887   0.0070443   -0.080106    -0.16857     -3.0439     0.32999   -0.055112
0.0086887  0.00079584   -0.065635    -0.20212     -2.1572      0.2241   -0.022554
0.014937   -0.004466   -0.038668    -0.19718    -0.69607    0.087288     0.03434
0.027434  -0.0028217    0.002769    -0.14621      1.0068   0.0017824     0.10768
0.045851   0.0096753    0.053086   -0.047548      2.5104    0.070845     0.18562
0.071831    0.032038     0.10439    0.090905      3.6285     0.36814     0.25106
0.10044    0.055388      0.1478     0.24679      4.3316     0.86144      0.2925
0.12511     0.07512     0.17115     0.38031      4.6411      1.3949     0.31026
0.13859    0.092221     0.16983     0.45266       4.548      1.7754     0.30927
0.13728     0.10669     0.15043      0.4451      4.0521      1.8747     0.29546
0.12511     0.11327      0.1205     0.36091      3.2566      1.6889     0.27507
0.10505     0.10669     0.08367     0.23298      2.3436      1.3265     0.24876
0.078737    0.090905    0.045193     0.10143      1.4751     0.95714     0.21588
0.05177    0.069529    0.011648   -0.004466     0.78679     0.72792     0.17641
0.025132    0.046508   -0.010386   -0.069253     0.38721     0.68451     0.13728
0.0014536    0.024474   -0.021567   -0.094576        0.28     0.75259     0.10077
-0.021238   0.0073732   -0.028144   -0.088985     0.35236     0.80553    0.066898
-0.040313  -0.0034794   -0.031104    -0.06136     0.45891     0.75357    0.033354
-0.057414  -0.0087413   -0.028473    -0.02354     0.48489     0.58421  0.00046697
-0.069582   -0.011372   -0.022225   0.0093464      0.3494     0.34874   -0.026171
-0.077475   -0.013674    -0.01795    0.027434   0.0040845     0.11327   -0.044588
-0.080434   -0.016305   -0.017621    0.018884    -0.52605    -0.07024   -0.057743
-0.080434   -0.019594   -0.027816   -0.017621     -1.1039    -0.17548   -0.068924
-0.077803   -0.026829    -0.04689   -0.073199     -1.5587    -0.21067   -0.079777
-0.070897   -0.037682   -0.066293    -0.13174     -1.7804    -0.19718     -0.0903
-0.062347   -0.052152   -0.081092    -0.17778     -1.7652     -0.1689   -0.096878
-0.052481   -0.063004   -0.092931    -0.20244     -1.6195    -0.15903   -0.095562
-0.046232   -0.062018    -0.10214    -0.20343     -1.4804    -0.19916   -0.087012
-0.045246   -0.050507    -0.10576      -0.186     -1.4567    -0.29255   -0.074515
-0.049192   -0.030447   -0.097864    -0.15838      -1.583    -0.42476   -0.064978
-0.054125   -0.010386   -0.076817    -0.12516     -1.7951    -0.57801   -0.059716
-0.054783   0.0034268   -0.042286   -0.083723     -1.9408    -0.74343   -0.055112
-0.049521   0.0086887  -0.0011774   -0.034393     -1.8178    -0.88978    -0.04689
-0.038339    0.012635    0.041575    0.027434     -1.2818    -0.95259    -0.02354
-0.022554    0.019212    0.082355     0.10538    -0.35767    -0.85557    0.018884
-0.002164    0.035327     0.11623     0.19351     0.72562    -0.54249    0.077751
0.02283    0.058019     0.14122     0.27902      1.6445   -0.045246     0.13859
0.05177    0.083013     0.15635     0.34348      2.2088     0.50725     0.18595
0.081368     0.10274     0.16589     0.37538      2.3926     0.94169     0.21357
0.10801     0.11294     0.16852     0.37011      2.3016      1.1282     0.21423
0.1284     0.11689      0.1672     0.32736      2.0957      1.0328     0.19022
0.13892     0.11656     0.15569     0.25501      1.8977     0.72858     0.15175
0.1353     0.11426      0.1353     0.15997      1.7211     0.32769     0.10965
0.12346     0.10899     0.10538    0.057032      1.4971   -0.081421     0.07216
0.10965    0.099456     0.06624   -0.037682      1.1525    -0.44975     0.04618
0.099127    0.086301    0.023817    -0.10872     0.67629     -0.7454    0.030394
0.093208    0.071173   -0.010386    -0.14884     0.13695    -0.94733     0.02283
0.09551    0.052099   -0.024856    -0.15903    -0.34813     -1.0368    0.017568
0.10439    0.031709   -0.023211    -0.14588    -0.66417     -1.0026   0.0080309
0.11327    0.014608   -0.016634    -0.12121    -0.74836    -0.86117   -0.011372
0.11623   0.0037556   -0.013674   -0.097207    -0.60925     -0.6451   -0.041628
0.10834 -0.00051963   -0.017621   -0.082079    -0.33136    -0.39483   -0.079777
0.085972  -0.0018351   -0.025185    -0.08175   -0.036695    -0.13897    -0.11628
0.056046  -0.0047949   -0.033735   -0.095891     0.16983     0.10209    -0.13897
0.021843    -0.01499   -0.045574    -0.12121      0.2412     0.31059    -0.13996
-0.0087413   -0.034393   -0.060702    -0.14654     0.19812     0.47009    -0.12154
-0.030775   -0.056098   -0.076817    -0.16035     0.10242     0.57533   -0.090958
-0.039984   -0.072542   -0.089972    -0.15673     0.01132     0.64077    -0.06136
-0.041628   -0.073528   -0.094905    -0.13766   -0.040313     0.68352   -0.038339
-0.044259   -0.060045   -0.091287     -0.1074   -0.031104     0.68846   -0.027816
-0.050836   -0.045574   -0.082408   -0.063004    0.011977     0.61644    -0.02946
-0.056756   -0.041299   -0.069582  -0.0084125    0.027105     0.45693   -0.038011
-0.055112    -0.04985   -0.057414    0.044206   -0.065964     0.24646   -0.049521
-0.048534   -0.065635    -0.04985    0.079066    -0.32314    0.044864   -0.055112
-0.040313   -0.076817    -0.04985    0.082026    -0.69607   -0.097536   -0.040641
-0.030118   -0.079119   -0.049521    0.055388     -1.0716     -0.1712  -0.0047949
-0.016634   -0.069911   -0.043272    0.010333     -1.3831    -0.19981    0.046837
0.002769   -0.048534   -0.028802   -0.039326     -1.6222    -0.21823     0.10439
0.019541   -0.023869  -0.0093991   -0.082408     -1.7843     -0.2623     0.15207
0.029407  -0.0051238   0.0083598    -0.10937     -1.8435    -0.35767     0.17641
0.030065   0.0047422    0.019541    -0.12154     -1.7586    -0.49514     0.16523
0.024803   0.0070443    0.024474    -0.12286     -1.5169    -0.63392     0.12281
0.013622   0.0024402    0.024474    -0.11957     -1.1677    -0.71581    0.071831
-0.0015062  -0.0034794     0.01987    -0.11793    -0.81348    -0.70462    0.031381
-0.011372  -0.0074258    0.014937    -0.11858    -0.55499    -0.60695    0.010662
-0.010057   -0.010715    0.014279    -0.11858    -0.45403    -0.47672   0.0037556
0.0014536    -0.01203    0.022501    -0.11891    -0.52506    -0.38595  -0.0008485
0.015595   -0.011701      0.0373    -0.11431    -0.72699    -0.38529   -0.016634
0.023159  -0.0097279    0.054072    -0.10214    -0.97528    -0.47705   -0.046561
0.018555  -0.0090702    0.064925   -0.085367       -1.17    -0.62734   -0.090958
0.0001381  -0.0057815    0.064925    -0.07024     -1.2173    -0.77763    -0.13799
-0.02354  0.00079584     0.05769   -0.063662     -1.0621    -0.86972    -0.17679
-0.046561   0.0057288    0.045193   -0.065635    -0.71975    -0.87498    -0.19948
-0.064649   0.0047422    0.034011    -0.06728    -0.28894    -0.79802    -0.20508
-0.073528  -0.0015062    0.027105   -0.063004    0.081697    -0.66549    -0.19324
-0.073857  -0.0087413    0.026447   -0.054454     0.28395    -0.49941    -0.16134
-0.066293   -0.016305    0.030065   -0.045903     0.30566    -0.31656    -0.11299
-0.050836   -0.022554    0.032038    -0.04097     0.18759    -0.13207   -0.061689
-0.032749    -0.02946     0.02579   -0.041299  -0.0093991    0.030394   -0.019923
-0.015648   -0.034064   0.0083598   -0.044588    -0.20902     0.15799      0.0054
-0.0041372   -0.036037   -0.014332   -0.046232    -0.34024     0.24712    0.018884
-0.0008485   -0.036366   -0.030775   -0.043601    -0.36819      0.2879    0.025132
-0.00051963   -0.034722   -0.035051   -0.030775    -0.33366       0.256    0.030065
-0.0028217   -0.028473   -0.026171  -0.0064392    -0.30867     0.14155    0.034998
-0.0074258    -0.01499   -0.011372    0.024803    -0.30637   -0.044917    0.038616
-0.012359   0.0037556   0.0067154    0.058676    -0.24881    -0.27512    0.041247
-0.015648    0.026119    0.022172    0.087617   0.0034268    -0.49448    0.039273
-0.014332    0.042233    0.032038     0.10702     0.52041    -0.62931    0.032696
-0.0084125     0.04881    0.037958     0.11623      1.2452    -0.63162    0.025132
-0.0011774    0.045193     0.04026     0.12017      2.0615    -0.50467    0.018555
0.0054    0.042233    0.038944     0.12544      2.8485    -0.28828    0.014937
0.013622    0.040918    0.036314      0.1353      3.4496   -0.038668    0.012306
0.025132     0.04026    0.033025      0.1501      3.7052     0.18529    0.013622
0.041247    0.039931    0.033683      0.1672      3.5276      0.3438    0.018884
0.055388    0.043549    0.037958     0.18069      2.9274     0.42405    0.025461
0.062623    0.050126    0.043877      0.1843      2.0355     0.44838    0.032367
0.061307    0.056046    0.049139     0.17838      1.0844     0.44641    0.042891
0.056703    0.064925    0.054401     0.17444     0.28823     0.43687    0.054072
0.052099    0.077093    0.057032     0.17904     -0.2452     0.43161    0.063281
0.048153    0.093536    0.057032     0.19022    -0.51421     0.44082    0.071831
0.049468     0.10801    0.059005     0.20535    -0.54677     0.47831    0.080382
0.057361     0.11853    0.060321     0.22607    -0.36589     0.53948    0.091234
0.07216     0.12149    0.059663     0.25106   -0.037353     0.60493     0.10373
0.086959      0.1159     0.06065     0.26948     0.30631     0.64603     0.11721
0.096496      0.1057    0.060979     0.26817     0.52731      0.6411     0.12971
0.098798     0.10011    0.058348     0.23429     0.54507     0.58717     0.13563
0.090905    0.098141    0.051441     0.17279     0.40037     0.49804     0.13267
0.075449    0.094852    0.043877     0.10044     0.24613     0.39313     0.11656
0.057361    0.087946    0.034011    0.034011     0.22903     0.30927    0.085972
0.040918    0.079395    0.024803   -0.015319     0.40103     0.27902    0.048153
0.02579    0.069529    0.014608   -0.043272     0.69076     0.31223    0.012635
0.0086887     0.05769   0.0014536   -0.055112     0.97983     0.39281   -0.010386
-0.0097279    0.042562   -0.011372   -0.063991      1.1627     0.48193   -0.017292
-0.02946    0.027434   -0.021567    -0.07287       1.187     0.52994    -0.01499
-0.048863    0.012964   -0.030118   -0.083723      1.0499     0.50659  -0.0084125
-0.062018    0.002769   -0.040313    -0.09622     0.77429     0.42503  -0.0028217
-0.070897  -0.0051238   -0.054783    -0.10444     0.36847     0.33262  -0.0008485
-0.077475   -0.011043   -0.069253    -0.10214    -0.19916     0.26488  -0.0054526
-0.081421   -0.015976   -0.076488   -0.089314     -0.9322     0.22804   -0.017292
-0.080763   -0.019265   -0.070897   -0.065635     -1.7527     0.20305   -0.033735
-0.074515   -0.018278   -0.051494   -0.032091     -2.5509     0.14944   -0.046232
-0.064649   -0.013345   -0.027158   0.0077021     -3.2063    0.038944   -0.050836
-0.053467  -0.0090702  -0.0038083    0.051441     -3.6125    -0.13667   -0.048863
-0.042615   -0.011701    0.014608    0.092221      -3.744    -0.36819   -0.048534
-0.039655   -0.018936    0.026119      0.1205     -3.6667    -0.63392   -0.056756
-0.049192   -0.020909    0.028421      0.1307     -3.4734    -0.89109   -0.076159
-0.065635   -0.015976    0.021843     0.11886     -3.2201     -1.0792     -0.1005
-0.085367  -0.0097279   0.0083598    0.083013     -2.9488     -1.1361    -0.11727
-0.1051  -0.0038083   -0.010057    0.029078     -2.6663     -1.0427    -0.11957
-0.12352  -0.0015062   -0.033406   -0.030118     -2.2829    -0.82861     -0.1074
-0.13338  -0.0034794   -0.055112   -0.080763     -1.6468    -0.55729   -0.087998
-0.12845  -0.0093991   -0.067937    -0.10937    -0.68654     -0.2919   -0.068924
-0.11102   -0.014661   -0.069582    -0.11365     0.47765   -0.079119   -0.053796
-0.087998    -0.01499   -0.064649   -0.098851      1.5988    0.070516   -0.046232
-0.063662   -0.010386   -0.058729   -0.073199      2.5791     0.18496    -0.04393
-0.040313  -0.0018351   -0.053796   -0.042944      3.4444     0.29415   -0.040313
-0.019923    0.010004   -0.045903   -0.010386      4.1975     0.40859   -0.029131
0.00046697    0.022501    -0.03242    0.023817      4.7161     0.50561   -0.007097
0.026447     0.03434  -0.0087413    0.059663       4.843     0.55264     0.02579
0.05473    0.040918    0.023488    0.096825      4.5017     0.55099    0.063281
0.078737    0.043549    0.059334     0.13432      3.7995     0.53192     0.10176
0.094194    0.047166    0.089261     0.16983      3.0142     0.53126      0.1307
0.10011     0.05473     0.10768     0.20502      2.4604     0.57796     0.14714
0.093865    0.067885     0.11557     0.23857      2.3598     0.68813     0.14944
0.085972    0.084986     0.11919     0.26389      2.6827     0.84467     0.14155
0.08367    0.099456     0.12182     0.27573      3.1152     0.99595     0.12905
0.083342      0.1034     0.12215     0.26915      3.2438      1.0663     0.10998
0.077751    0.096825     0.11656     0.23725      2.7945      1.0042    0.082355
0.065254    0.083342      0.1057     0.17641      1.7892     0.79731    0.041904
0.048482    0.066898    0.088275    0.094523     0.51778     0.48193  -0.0093991
0.0373    0.052757    0.067227    0.014608    -0.63885     0.13136   -0.057743
0.033683    0.042562    0.049139   -0.044588     -1.3952    -0.17679   -0.087012
0.029078    0.038287    0.035985   -0.079448     -1.7034    -0.38793   -0.095891
0.018226    0.037958    0.026119    -0.09918     -1.6735    -0.48659   -0.095891
0.002769    0.034669    0.016581    -0.11727     -1.4919    -0.48724   -0.094576
-0.013017    0.023817   0.0047422    -0.13832     -1.3275    -0.41423   -0.086683
-0.024856   0.0083598  -0.0093991    -0.16298     -1.2111    -0.28532   -0.063991
-0.034722  -0.0087413   -0.028802    -0.18962     -1.0552    -0.11562   -0.019923
-0.039326   -0.022225   -0.049192    -0.21264    -0.77007    0.063938    0.041575
-0.033406   -0.029789   -0.059716    -0.21724    -0.36918      0.2241     0.11195
-0.012688   -0.027816   -0.056427    -0.19981    0.034011     0.37538      0.1797
0.023817   -0.018278   -0.038011     -0.1587     0.32769     0.56053     0.23857
0.067556  -0.0008485  -0.0067681   -0.092274     0.44115     0.80455     0.28888
0.11064    0.024145    0.029736  -0.0057815     0.35433      1.0834     0.33295
0.1455    0.052099    0.066569    0.087288    0.062294      1.3334     0.36584
0.16654    0.074791    0.093865     0.17641    -0.44186      1.5001     0.38228
0.17279    0.085972     0.10768     0.25369      -1.121      1.5613     0.38064
0.16918    0.087946     0.11261     0.32045     -1.8277      1.5136     0.36814
0.16194     0.08367     0.11557     0.38327     -2.3657      1.3626     0.35301
0.15635    0.077751      0.1182     0.43523     -2.6397      1.1301     0.33525
0.15339    0.068214      0.1159     0.46351     -2.6949     0.83743     0.31322
0.15043    0.056046      0.1057     0.44871     -2.6532     0.50659     0.28296
0.14188    0.047495    0.090248     0.38294     -2.6088     0.16852     0.24087
0.12544    0.041575    0.072818      0.2777     -2.5571    -0.14062     0.18924
0.1011    0.033683    0.055059     0.16227     -2.4207    -0.38924     0.13366
0.072489    0.020528    0.037629    0.066898     -2.1569    -0.56288    0.077093
0.045193   0.0021113    0.020857   0.0014536     -1.7889    -0.66681    0.020857
0.019212   -0.015976   0.0037556   -0.038997     -1.3834    -0.71844    -0.03242
-0.0061104   -0.030118   -0.010057   -0.061031     -1.0131    -0.73916    -0.08175
-0.027816   -0.040313   -0.024856   -0.079119    -0.72403     -0.7431    -0.12648
-0.048863   -0.054125   -0.039984    -0.11003    -0.54315     -0.7408     -0.1643
-0.067937   -0.069582   -0.060045     -0.1643     -0.4537    -0.73718    -0.19028
-0.086354   -0.085039   -0.087012    -0.24816    -0.40568    -0.73521     -0.2031
-0.10346   -0.094905    -0.11299    -0.34912    -0.35043    -0.73159    -0.20277
-0.11431   -0.094247    -0.13075    -0.44548    -0.27381    -0.72403    -0.19126
-0.11628   -0.088985    -0.14095    -0.51355    -0.19751    -0.70462    -0.17285
-0.11102   -0.082408    -0.14522    -0.54381    -0.16035    -0.67601    -0.15147
-0.10115   -0.078461    -0.14588    -0.53427    -0.18797    -0.65266    -0.13371
-0.094576   -0.074186    -0.14489    -0.49349    -0.27545    -0.65102    -0.12516
-0.098522   -0.066951    -0.14621    -0.43068    -0.38102     -0.6816     -0.1268
-0.10872   -0.053796    -0.14654    -0.35471    -0.44515    -0.74179    -0.13503
-0.11497    -0.03538    -0.14292    -0.27414    -0.44581    -0.81776    -0.14522
-0.10905   -0.016634    -0.12779    -0.19817    -0.41325    -0.89142    -0.14884
-0.089643 -0.00051963   -0.096549    -0.12944    -0.40404    -0.94963    -0.14029
-0.060045    0.015924   -0.050507   -0.066622    -0.45666    -0.98318     -0.1222
-0.026171    0.038616    0.002769  -0.0008485     -0.5619    -0.99173    -0.10082
0.0070443    0.064267     0.05473    0.077093    -0.65825     -0.9743   -0.080434
0.033683     0.08959    0.094523     0.16523     -0.6622    -0.93154   -0.065307
0.055717     0.10801     0.11853     0.25435    -0.47836    -0.86709   -0.056098
0.071831     0.11623     0.12609     0.33098   -0.014661    -0.78553   -0.055112
0.080053     0.11491     0.12149     0.38721     0.70885    -0.69509   -0.058071
0.077422     0.10406     0.10834     0.42701      1.4883    -0.60136   -0.060702
0.066898    0.086959    0.092221     0.45365      2.0164    -0.50138   -0.059058
0.052757    0.071831    0.077751     0.46943      2.0898    -0.39121   -0.042944
0.043877     0.06361    0.070516     0.47075      1.7188    -0.26624   -0.011043
0.04618    0.059334     0.07216     0.45332      1.0722    -0.13536    0.031052
0.058676    0.052099    0.081368     0.41517     0.36847   -0.020581    0.065912
0.074133    0.041247    0.093536     0.35729    -0.19324    0.061307    0.080053
0.08663    0.030065     0.10505     0.28855    -0.47738     0.10932    0.074133
0.08959    0.020528     0.11031     0.21785    -0.46554     0.12905    0.061307
0.085644    0.016253     0.10538     0.14912    -0.23763     0.10702    0.053086
0.079066    0.015595     0.09255     0.08367     0.06065    0.027105    0.060979
0.073476    0.016253    0.074462    0.024145     0.27014    -0.11102    0.079724
0.069529    0.014608    0.058676   -0.025185       0.305    -0.27019    0.096167
0.067556    0.014937    0.048482    -0.05544     0.19187    -0.37411    0.098798
0.067227    0.017239    0.040589   -0.064978    0.039273    -0.34188    0.086959
0.066569    0.023817     0.03434   -0.054783   -0.030775    -0.15114      0.0692
0.059663    0.028092    0.030394   -0.034722    0.029078     0.14089    0.050784
0.042891    0.025461    0.024474   -0.026829     0.19483     0.41714    0.030723
0.018555    0.016253    0.010004   -0.050507     0.40037     0.57664   0.0073732
-0.0084125 -0.00051963   -0.015976    -0.10937     0.58815     0.58388   -0.016305
-0.031433   -0.016634   -0.041628    -0.17482     0.72759     0.47009   -0.035051
-0.048205   -0.030447   -0.060702    -0.20869     0.81474     0.30204   -0.047877
-0.056427   -0.039326   -0.069911    -0.18699     0.85815     0.12971    -0.05544
-0.06136   -0.047219   -0.068924    -0.11003     0.86539   -0.036366   -0.066951
-0.069582   -0.054454   -0.064649   0.0037556     0.83875    -0.20639   -0.085039
-0.08471   -0.062676   -0.066293     0.10669     0.77692    -0.38398    -0.11036
-0.1051   -0.071555   -0.079777     0.15471     0.69471    -0.55071    -0.14127
-0.12878   -0.084052    -0.10082     0.13629     0.61578    -0.67634    -0.17054
-0.15147    -0.09918    -0.12549    0.070516     0.54408    -0.73817    -0.18995
-0.16627    -0.10773    -0.14687  -0.0077547     0.47502    -0.73455    -0.19159
-0.17186    -0.10641    -0.16298   -0.073528     0.40728     -0.6793    -0.17745
-0.17087    -0.10181    -0.17646     -0.1268     0.33723    -0.58623    -0.15377
-0.15936    -0.10017    -0.18666    -0.19883     0.25567    -0.46751    -0.12976
-0.14259     -0.1051    -0.19192    -0.32084     0.15438    -0.32873    -0.11266
-0.12154    -0.11168     -0.1883     -0.4902     0.02579    -0.17186    -0.09918
-0.095891    -0.11069    -0.17778    -0.67272    -0.11497   0.0063866   -0.082079
-0.065635   -0.094905     -0.1643    -0.81874    -0.22579     0.20601   -0.055112
-0.03538   -0.066622    -0.14983    -0.88813    -0.27841     0.41944   -0.018278
-0.010057   -0.032091    -0.13536    -0.86741    -0.29288     0.62564    0.022501
0.014608  -0.0031506    -0.11727    -0.77303    -0.32117     0.79896    0.062952
0.036314    0.014937   -0.090629    -0.63622    -0.36984      0.9134     0.10307
0.056046    0.026447   -0.057085    -0.48593     -0.4116     0.93807     0.13925
0.072489    0.037958   -0.023869    -0.34517    -0.45896     0.84401     0.16622
0.086959    0.053415   0.0037556    -0.21856    -0.58656     0.63419     0.18036
0.1011    0.071831    0.028092   -0.099509    -0.85525     0.33723     0.18069
0.11228     0.08959    0.050784    0.018226     -1.1756   0.0063866     0.16852
0.11228     0.10077    0.073147     0.13136      -1.338    -0.28927     0.14287
0.10307     0.10307    0.095181     0.22903     -1.1486    -0.48724     0.11064
0.096496     0.10077     0.11557     0.30105    -0.55137    -0.55433    0.085972
0.10011    0.099127      0.1307     0.34413     0.31684    -0.49514    0.074791
0.11195    0.099456     0.13695     0.36123      1.1423    -0.36556    0.070845
0.12609     0.10242     0.13103     0.36354       1.603    -0.24322    0.065254
0.13234      0.1034     0.11064     0.36091       1.532    -0.16528    0.055717
0.12774    0.097483    0.081039     0.35893      1.0104    -0.12154    0.050455
0.11195    0.085972    0.049139     0.35564     0.35466   -0.079119    0.051113
0.090248    0.071173    0.020199     0.34808   -0.067609  -0.0024928    0.057032
0.067885    0.051113 -0.00051963     0.34644   -0.030118     0.11689    0.064596
0.049797     0.02875  -0.0077547     0.35795     0.44345     0.25337    0.070845
0.036642   0.0093464  -0.0008485     0.38261      1.1351     0.36814     0.07808
0.031381  -0.0008485     0.01691     0.40826      1.7852     0.43885    0.082355
0.034998  -0.0008485    0.038616     0.42668      2.2039     0.48357    0.084986
0.047166    0.010004     0.05769     0.42767      2.3006     0.53323    0.092221
0.066569    0.024803      0.0692     0.40596      2.0684     0.59341     0.10472
0.086301      0.0373    0.072489     0.36091      1.5886     0.63156     0.11228
0.094523    0.039273      0.0692     0.29776      1.0374     0.61117     0.11097
0.087946    0.030723    0.064925     0.23725     0.64768     0.52896    0.098469
0.068871    0.015595    0.065912      0.1968     0.54211     0.41254    0.080382
0.043549   0.0073732    0.075778       0.182     0.57927     0.30204    0.061965
0.022501    0.014608    0.097812     0.18299     0.45989     0.23462    0.050784
0.0096753      0.0373     0.12741       0.182   -0.066293     0.22903     0.04881
0.0037556    0.061965     0.15372     0.16852     -1.0328     0.28231    0.053086
-0.0015062    0.079066     0.16687     0.13859     -2.2421     0.36683     0.06065
-0.0031506    0.085315     0.16095    0.095839     -3.3941     0.44082      0.0692
0.0037556    0.084328     0.14517     0.05177     -4.2011      0.4668    0.077422
0.017897    0.078409     0.12346    0.017897     -4.4156     0.43655    0.080711
0.035656    0.066898      0.1057    0.010004     -3.8601     0.40333    0.080711
0.052428    0.055717    0.093865    0.035656     -2.5085     0.45134    0.083342
0.064596    0.044864    0.093208    0.099456    -0.48099     0.64011    0.095839
0.07512    0.039931      0.1011     0.18989      1.8793     0.94925     0.11853
0.087946    0.039273     0.11458     0.28198      4.0383      1.2768     0.14616
0.097483    0.041904     0.12544     0.35071      4.9588      1.4952     0.16622
0.10011    0.046837     0.13234     0.36946      4.9594      1.5274     0.17312
0.094194    0.051113     0.13234     0.33854      4.9594      1.3787     0.16852
0.081697    0.051441     0.12544     0.27178      3.9518      1.1009     0.15668
0.064596    0.052099     0.11327     0.18759      2.1917     0.77396     0.13892
0.044864    0.051441    0.094852     0.10669     0.65261       0.477     0.11294
0.020199    0.048482    0.071173    0.040918    -0.26164     0.26718    0.076435
-0.0041372    0.042233    0.045851   -0.007097    -0.39713      0.1626    0.032038
-0.028144    0.034011    0.022172   -0.038668      0.1182     0.14517   -0.016305
-0.051494    0.023817   0.0024402     -0.0584     0.92754     0.18628     -0.0584
-0.076488   0.0073732   -0.019265   -0.084052      1.6313     0.26784   -0.085696
-0.099838   -0.015319   -0.041957    -0.12417      1.9678     0.36551   -0.094247
-0.12483   -0.041957   -0.065307    -0.17877      1.8911     0.42503   -0.086025
-0.14391   -0.068595   -0.087669    -0.24059      1.5455     0.39675   -0.072213
-0.15279   -0.086683    -0.10674    -0.30341      1.1397     0.25008   -0.064649
-0.15246   -0.093589    -0.11431    -0.36194     0.82691   -0.014003   -0.065635
-0.14719   -0.092603    -0.11069    -0.40963     0.63617    -0.33991   -0.070897
-0.13667    -0.08471   -0.098851    -0.43068     0.49377    -0.63458   -0.070897
-0.12187   -0.073528   -0.080763    -0.41292     0.30829    -0.81545   -0.059716
-0.10378   -0.061689     -0.0584    -0.35471    0.052428    -0.83124   -0.038011
-0.078461   -0.048534   -0.033406    -0.26427      -0.186    -0.68522  -0.0064392
-0.047548    -0.03538  -0.0047949    -0.15772    -0.31689    -0.44548    0.027763
-0.018278   -0.020252    0.026447   -0.055769     -0.3922    -0.21099    0.059334
-0.0008485  -0.0041372    0.052428    0.020857    -0.58459   -0.048205    0.082684
0.0040845    0.010991      0.0692    0.058019     -1.0174    0.031052     0.09551
0.0001381    0.026119    0.071831    0.053743      -1.659    0.067227    0.099456
-0.0057815    0.041247     0.06624    0.026447     -2.3661     0.10998    0.098141
-0.0067681    0.055388    0.061307   0.0060577     -2.9761     0.19943    0.097483
-0.0031506    0.065254    0.064925   0.0077021     -3.4027     0.36387     0.10274
0.0030979    0.067885    0.070845    0.024803     -3.6516     0.61611     0.11689
0.0030979    0.063281    0.073476    0.045193     -3.7522      0.9259     0.13267
-0.0077547    0.054072    0.066898    0.062294     -3.7138        1.19     0.13497
-0.026171    0.043877    0.047824    0.071173     -3.5303      1.2659      0.1136
-0.044259    0.034998    0.022172    0.071173     -3.2106      1.0565    0.072818
-0.057085    0.026447  -0.0031506    0.071831     -2.8021     0.56579    0.027434
-0.063662    0.019541   -0.019265    0.083013     -2.3907    -0.08471  -0.0087413
-0.063004     0.01987   -0.027487     0.11393     -2.0566    -0.73028   -0.024527
-0.054125    0.025461   -0.031104     0.16128     -1.7882     -1.2575   -0.020252
-0.038668    0.028421   -0.031762     0.21259      -1.509     -1.6373  -0.0011774
-0.017292    0.028092   -0.032091     0.24745     -1.1736     -1.8925    0.017568
0.0040845    0.027105   -0.033078     0.25369    -0.83124     -2.0533    0.021186
0.021186    0.028092   -0.031104     0.22607    -0.58853     -2.1273  0.00079584
0.03434    0.031709   -0.022225     0.17312    -0.48823     -2.0957   -0.042615
0.046837    0.041904   -0.007097     0.11557    -0.46324     -1.9418   -0.097864
0.058019    0.058019    0.012306     0.07216    -0.42279     -1.6712    -0.15509
0.06361    0.072818    0.031381    0.046508     -0.3626     -1.3272    -0.21428
0.056703    0.078737    0.047166    0.033683    -0.34517    -0.97397    -0.26888
0.038287     0.07216     0.05769    0.028092    -0.38858    -0.64313    -0.30735
0.021514    0.055717     0.06361    0.028092    -0.42706    -0.30472    -0.31623
0.016253    0.035656    0.066569    0.036642     -0.3751    0.094194    -0.28598
0.024803    0.020528      0.0692     0.05177    -0.22218     0.55855    -0.22283
0.037629    0.016253    0.067556    0.065254   -0.056756      1.0009    -0.13832
0.044206    0.015924    0.057032     0.06361   0.0096753      1.2952   -0.054125
0.036971    0.014608    0.037629    0.030723   -0.083065      1.3475    0.010662
0.017239    0.010333   0.0070443   -0.037682    -0.28631      1.1446    0.045851
-0.0054526   0.0034268   -0.028802    -0.12352    -0.48527     0.76936    0.052099
-0.024198  -0.0067681    -0.06136    -0.19685    -0.59182     0.35334    0.041904
-0.033406   -0.017621   -0.085367    -0.23632    -0.58327    0.010991    0.024474
-0.030775   -0.020581   -0.096878    -0.24454    -0.50928    -0.20146   0.0057288
-0.020581   -0.013345   -0.098522    -0.23698    -0.43791    -0.28433  -0.0097279
-0.014661   0.0011247   -0.094247    -0.22941    -0.39582    -0.27578   -0.014332
-0.015648    0.016581   -0.087998    -0.22612    -0.32051    -0.22382  -0.0093991
-0.021567     0.02579   -0.086025     -0.2179    -0.13864    -0.16561  -0.0038083
-0.027158    0.027105   -0.087341    -0.19159     0.15076     -0.1268  -0.0057815
-0.031104    0.024803   -0.086025    -0.13963     0.49969    -0.11431   -0.010057
-0.027487    0.024145   -0.072213   -0.065964     0.85815    -0.12812   -0.012688
-0.015319    0.024474   -0.044259    0.024145      1.1841    -0.16364  -0.0093991
0.0060577    0.026119  -0.0051238     0.11491      1.4445     -0.2179  0.00046697
0.03434     0.02875    0.034669     0.18924      1.6155    -0.28433    0.011977
0.061636     0.02875     0.06065     0.23331      1.6806     -0.3557    0.018555
0.077751     0.02875    0.069858     0.24054      1.6392    -0.42509    0.015266
0.080053    0.028421    0.062952     0.20963      1.5281    -0.49514  0.00046697
0.070187    0.027105    0.045522     0.15372      1.3889    -0.58064   -0.020252
0.052757    0.028421    0.026119    0.096496      1.2669    -0.69311   -0.041628
0.033025    0.031052    0.016253    0.067556      1.1716    -0.81907   -0.063333
0.020528    0.032696    0.020528    0.078737     0.97227    -0.92497   -0.084052
0.018555    0.035327    0.034998     0.11721     0.47141    -0.98614    -0.10576
0.02283    0.040589    0.045851     0.15931    -0.34813     -1.0062    -0.11957
0.027105    0.045193    0.042233     0.18266     -1.2282     -1.0009    -0.12023
0.030394    0.045522    0.026776     0.17838     -1.8428    -0.98186    -0.10872
0.0373    0.036314   0.0057288     0.14879     -2.0138    -0.95917     -0.0903
0.042891    0.020528   -0.015648     0.10439     -1.7705    -0.94634   -0.079448
0.041575  0.00046697   -0.033735    0.052757     -1.3081    -0.95654   -0.086683
0.031381   -0.022554   -0.052481  -0.0057815    -0.84702     -1.0022    -0.11793
0.0083598   -0.042286   -0.071226   -0.074515    -0.51684     -1.0753    -0.16857
-0.0265   -0.055112   -0.091945    -0.15081    -0.31853     -1.1374    -0.22119
-0.063333   -0.062018    -0.11233    -0.22053     -0.1416     -1.1266    -0.25375
-0.088656    -0.06136    -0.12615    -0.26657     0.10866    -0.98614    -0.24388
-0.092603   -0.054454    -0.12878     -0.2794     0.42898    -0.70791    -0.18633
-0.077146   -0.042615    -0.11924    -0.26526     0.77725    -0.34123   -0.091616
-0.048205   -0.028802    -0.09918    -0.23533      1.0897    0.012635    0.015266
-0.018607   -0.019594    -0.07583    -0.19948      1.2396     0.23528     0.11228
0.002769   -0.021238   -0.057414    -0.16989      1.1104     0.27737     0.18365
0.011977   -0.028473   -0.050836     -0.1541     0.73022     0.21292     0.22475
0.011977   -0.035708   -0.057085    -0.15838     0.25304     0.20996     0.24383
0.013951   -0.036366   -0.065964    -0.17285    -0.15607     0.43885     0.25435
0.026776   -0.029131   -0.069911    -0.17548    -0.34813     0.97128     0.26718
0.055717   -0.012359   -0.062018    -0.14423    -0.20836        1.73     0.28658
0.099456    0.010333   -0.041299   -0.071226     0.28691      2.5081     0.30993
0.14583    0.033683   -0.010057    0.028421      1.0104        3.08     0.33065
0.18266    0.053086    0.026776     0.12938      1.7668      3.2993     0.33953
0.19746    0.062294    0.059663     0.20404      2.4242      3.1652     0.33262
0.19088    0.059992    0.083013     0.23396      2.9863      2.8139     0.31486
0.17082    0.050126    0.093865      0.2241       3.546      2.4446     0.29119
0.14879    0.039931    0.098798     0.20108      4.1537      2.2019     0.27112
0.13004    0.033354     0.10044     0.19022      4.7431      2.0967     0.26093
0.11294    0.033025     0.10242     0.20338      4.9594      2.0424     0.26356
0.09551    0.038287     0.10965       0.231      4.9591      1.9345      0.2708
0.080053    0.045851     0.11919     0.25896       4.602      1.7175     0.27441
0.066569    0.047824     0.12478     0.27606      3.6285      1.4317     0.26751
0.050784    0.037958     0.11787     0.26718      2.4153      1.1551      0.2458
0.030723    0.020199     0.10011     0.22903      1.2248      0.9259     0.20667
0.0073732    0.002769    0.076764     0.16918     0.27507     0.74634     0.15832
-0.013017  -0.0093991    0.049797    0.099127    -0.32215     0.58914     0.10866
-0.025185   -0.016963    0.023159    0.027105    -0.59577     0.42602    0.068871
-0.023869   -0.019265   0.0001381    -0.04393    -0.67272      0.2481    0.042562
-0.014332   -0.015319   -0.014661    -0.11299     -0.7089    0.065254    0.029078
-0.0041372  -0.0074258   -0.020909    -0.17811    -0.84702    -0.11003    0.022172
-0.002164  -0.0038083   -0.020909    -0.23665     -1.1775    -0.26493    0.011648
-0.014332  -0.0090702   -0.024856    -0.29288     -1.7113    -0.39286  -0.0077547
-0.039984   -0.026171    -0.04097    -0.35109     -2.3552    -0.49283   -0.037024
-0.067937   -0.044588   -0.068924    -0.40996      -2.939    -0.57406   -0.068266
-0.088985   -0.058729    -0.09918    -0.45797     -3.2675    -0.65233   -0.095891
-0.098522   -0.063333    -0.12352    -0.47902      -3.153    -0.74508    -0.11694
-0.10378   -0.059716     -0.1393    -0.46981     -2.4923    -0.87531    -0.12812
-0.1097   -0.053467    -0.14917    -0.43824     -1.3791     -1.0513    -0.13799
-0.12286   -0.049192    -0.15542    -0.39911     -0.1495     -1.2601    -0.15081
-0.14029   -0.045246    -0.15838    -0.36227     0.70687     -1.4686    -0.16923
-0.15575   -0.039984    -0.15607    -0.32906     0.81145      -1.636    -0.18929
-0.16002   -0.033735    -0.14851     -0.2942     0.10866     -1.7304    -0.20146
-0.15311   -0.027816    -0.13733    -0.25375     -1.0907     -1.7376    -0.20113
-0.14391   -0.019923    -0.12187    -0.19981     -2.2967     -1.6715    -0.19291
-0.13667   -0.010386    -0.10378    -0.12976     -3.1409     -1.5551    -0.18337
-0.12812  -0.0011774   -0.082408   -0.038339     -3.4152      -1.414    -0.17416
-0.11562    0.010662   -0.054454    0.069858     -3.0649     -1.2686    -0.16758
-0.097207    0.030065   -0.018607     0.18858     -2.1835     -1.1414    -0.16035
-0.070568    0.056703    0.026776     0.31421     -1.0253     -1.0434    -0.14555
-0.038668    0.082026    0.076106     0.43523    0.040589    -0.98383     -0.1199
-0.0051238     0.10044     0.11721     0.53159     0.70293    -0.96575   -0.087669
0.026447     0.10932     0.14385     0.58684     0.92458    -0.94404   -0.059058
0.053415     0.10866     0.15339     0.59802     0.88216    -0.83913    -0.03538
0.078737     0.10439     0.15273     0.57138     0.79205    -0.60596   -0.013345
0.10307     0.10538      0.1501     0.52369     0.77363    -0.27019     0.01132
0.12774     0.11721     0.15306     0.47206     0.82625    0.085972    0.040918
0.15043     0.14089     0.16293     0.42405     0.86802     0.37834    0.068871
0.16852     0.16918     0.17444     0.37801     0.83053     0.57368    0.091234
0.17542     0.18825     0.17871     0.33229     0.70457     0.68944     0.10472
0.17148     0.19581     0.17378     0.28855     0.50955     0.76739     0.11294
0.1603     0.18924     0.16128     0.25106     0.26751     0.84335     0.12313
0.14024     0.17345     0.14484     0.22081    0.037958      0.9236     0.13497
0.1136     0.14912     0.12774     0.19614   -0.084381     0.98444     0.14155
0.083013     0.11623     0.11097     0.17148   -0.020581      1.0012     0.13859
0.058019    0.077751    0.099127     0.15273     0.21818     0.96208     0.12609
0.045193    0.043549    0.095181     0.15471     0.52534     0.87164     0.11064
0.046508    0.020857    0.098141     0.18332     0.74798     0.74634    0.099127
0.060979   0.0077021     0.10636     0.22903     0.78218     0.60229    0.093536
0.081368   0.0037556     0.11031     0.27178      0.5921     0.46285    0.094523
0.10735   0.0083598     0.10768     0.28658     0.18825     0.35203     0.10274
0.13859     0.01987    0.099127      0.2606    -0.38102     0.29086     0.11853
0.16786    0.033025    0.088275     0.20469    -0.99896     0.27968      0.1353
0.18792    0.040918    0.078737     0.13958     -1.5041     0.28329      0.1455
0.18924    0.042562    0.071173    0.080382     -1.7626     0.24218     0.14089
0.17641    0.036971    0.063281    0.038287     -1.7455      0.1034      0.1205
0.15799    0.033683    0.053743    0.012964      -1.533    -0.16068    0.089919
0.14089    0.033025    0.046508   0.0021113     -1.2528    -0.52605    0.057361
0.12511    0.035327    0.047824  0.00079584    -0.97989    -0.91576    0.033025
0.11097    0.039931    0.053415  -0.0051238    -0.72732     -1.2209    0.024803
0.098141    0.040589    0.054401   -0.023211    -0.53526     -1.3466    0.030394
0.083013    0.032696    0.043877   -0.056756     -0.4685     -1.2525     0.04026
0.064925    0.017568    0.025132   -0.094247    -0.54414    -0.98219    0.049139
0.044864  -0.0011774   0.0014536    -0.12056    -0.69443    -0.64346    0.050126
0.02283   -0.017292   -0.020909     -0.1268    -0.81545    -0.35997    0.034669
-0.0031506   -0.025842   -0.034393    -0.11793    -0.87662    -0.21099   0.0011247
-0.037024   -0.028473   -0.039655    -0.12121    -0.92069    -0.20244   -0.045246
-0.07583   -0.026829   -0.045246    -0.16528    -0.97989    -0.26328   -0.091945
-0.11135   -0.026171   -0.051165    -0.24914     -1.0374    -0.28466    -0.13207
-0.13766   -0.031433     -0.0584     -0.3386     -1.0476    -0.19291    -0.15838
-0.15509   -0.036366   -0.067937    -0.39648    -0.97495   0.0086887    -0.17153
-0.1643   -0.037024   -0.079777      -0.407    -0.81447     0.25863    -0.17318
-0.16561   -0.037024   -0.091945    -0.37642    -0.59906     0.46351    -0.17383
-0.16331   -0.039326    -0.10247    -0.32413    -0.35767     0.54277    -0.18107
-0.15476   -0.044917    -0.10543    -0.27282   -0.087341     0.45891    -0.19093
-0.13733   -0.047548   -0.097207    -0.23862     0.25106     0.21686    -0.19324
-0.11102   -0.041628   -0.078132    -0.22119     0.68418    -0.13667    -0.18436
-0.075173   -0.025185   -0.052152    -0.20442      1.1732    -0.53098    -0.16232
-0.035051   0.0017824   -0.021896    -0.16298      1.6382    -0.89011    -0.12976
-0.0018351    0.028421    0.014608   -0.072213      2.0062     -1.1545   -0.084381
0.026447    0.048482    0.056046    0.079724      2.2213      -1.287   -0.030118
0.050455    0.062623    0.097154     0.27639      2.2552     -1.2565    0.033354
0.06624    0.067556      0.1284     0.47568      2.0967     -1.0545    0.097154
0.068214    0.061307     0.14517       0.624      1.7316    -0.71548     0.14385
0.058019    0.045193     0.14681     0.68977      1.1781    -0.30571     0.16622
0.039602     0.02283     0.13662     0.66971     0.48818    0.099785     0.17148
0.018884   0.0001381     0.11656     0.58585    -0.22875     0.42503     0.17214
0.002769   -0.019265    0.093208     0.46976    -0.82072     0.61479     0.17082
-0.0077547    -0.03538    0.065912     0.34841     -1.1762     0.65195     0.16194
-0.018936   -0.043272    0.036971      0.2389     -1.2578     0.56217     0.14024
-0.031433   -0.044588   0.0096753      0.1455     -1.1111     0.40793     0.10406
-0.044917   -0.041299   -0.013674    0.059992    -0.82861     0.26192     0.06361
-0.056427   -0.036695   -0.034064   -0.023869    -0.51914     0.18036    0.031381
-0.06432   -0.035708   -0.053138    -0.10872    -0.29223      0.1843    0.015924
-0.070897   -0.038997   -0.067937    -0.18732    -0.20179       0.256     0.01691
-0.074515   -0.044588   -0.076817     -0.2521    -0.23073     0.34874    0.026447
-0.070568   -0.049521   -0.081421    -0.29814    -0.32906     0.41056     0.03434
-0.06136   -0.051823   -0.086025    -0.32248    -0.44811      0.3984    0.031381
-0.055769   -0.051823   -0.089972      -0.333    -0.53624     0.30138    0.015595
-0.060045   -0.050507   -0.092931    -0.34188      -0.554     0.14813   -0.014332
-0.073199   -0.053138   -0.093918    -0.35175     -0.4879   -0.018607   -0.052481
-0.087012   -0.060045   -0.094905    -0.35734    -0.37378    -0.16758   -0.088656
-0.093918   -0.068924   -0.094576    -0.35339    -0.27249    -0.27315    -0.11464
-0.094905   -0.077475   -0.090958    -0.33761    -0.19258    -0.31426    -0.12352
-0.092274   -0.082408   -0.084052    -0.31525   -0.074844    -0.28894    -0.11891
-0.0903    -0.08175   -0.077475    -0.28499     0.18825    -0.22152    -0.10937
-0.0903   -0.076159   -0.073857    -0.24388     0.69767     -0.1393    -0.10148
-0.087669   -0.065964   -0.069582     -0.1906      1.4251   -0.048534   -0.094905
-0.074844   -0.046561   -0.060373    -0.12746      2.0917    0.063281   -0.087341
-0.048863   -0.019265   -0.045903    -0.06136      2.3101     0.20173    -0.07024
-0.021896   0.0060577   -0.028473  -0.0018351      1.9092     0.35663   -0.041299
-0.0031506    0.023159   -0.012359    0.038287      1.0798     0.52074    -0.01203
0.0037556    0.028092  -0.0011774    0.052757     0.22804     0.69865    0.010333
0.002769    0.021843   -0.002164     0.04026    -0.26164     0.90781    0.023159
-0.0028217    0.011977   -0.014003    0.012964    -0.21494      1.1393    0.026776
-0.013017   0.0034268   -0.032091   -0.018278     0.25369      1.3268    0.023488
-0.025842  -0.0024928   -0.046232   -0.042615     0.86341      1.3732    0.020857
-0.039984  -0.0057815   -0.050836   -0.053796       1.362      1.2071    0.022172
-0.051494  -0.0067681   -0.039655   -0.049521      1.6386     0.82757    0.026776
-0.054125   -0.002164   -0.022554   -0.027487      1.7336     0.33394    0.032038
-0.046232   0.0080309   -0.007097   0.0070443      1.7191    -0.11957    0.036642
-0.030447    0.018555   0.0030979    0.047166      1.6277    -0.42015    0.039931
-0.0080836    0.027763   0.0080309    0.088932      1.4633    -0.53789    0.040918
0.019541    0.039273   0.0073732     0.12873      1.2117    -0.50138    0.047824
0.050784    0.056046   0.0086887     0.16983     0.91439    -0.35471    0.065254
0.083013     0.07512    0.019212     0.21818     0.63913    -0.13733    0.097154
0.11195    0.094523    0.041904     0.27211       0.403     0.11031     0.13596
0.13169     0.11458    0.070845      0.3221     0.18726     0.36123     0.17246
0.1376     0.13136    0.094523     0.35926   -0.018936      0.6092     0.19121
0.13563     0.13925      0.1034     0.37307    -0.20705     0.86539     0.18562
0.12675     0.13366     0.09551     0.36123    -0.35767      1.1328     0.15701
0.11524     0.11557     0.07808     0.32637    -0.45074      1.3893      0.1159
0.10636    0.097154    0.059334     0.27211    -0.47047      1.5846    0.075449
0.10011     0.08367    0.044864     0.21028    -0.42772      1.6557    0.045193
0.092221     0.07808    0.037958     0.15668    -0.34386      1.5718    0.031052
0.080711    0.079395    0.034998      0.1205    -0.26197       1.363    0.030723
0.067885    0.084328     0.03434     0.10274    -0.22316       1.114    0.033683
0.058019    0.083013    0.032696    0.097483    -0.24059     0.90683    0.035327
0.051441    0.065583    0.030723    0.091234    -0.28828     0.77627    0.036314
0.052099    0.038287    0.027434    0.075778    -0.32708     0.70326    0.032038
0.045522    0.012635    0.021186    0.044206    -0.34254     0.64307    0.021843
0.023488  -0.0028217   0.0086887   0.0037556    -0.35964      0.5648    0.012306
-0.0093991   -0.010386  -0.0061104   -0.035051    -0.40075     0.45759   0.0073732
-0.041299   -0.013674   -0.016305    -0.06136    -0.44745     0.32966      0.0054
-0.062676   -0.020909   -0.021896    -0.07287    -0.46883     0.20798   0.0060577
-0.069911    -0.03242   -0.023869    -0.06728    -0.49152     0.12938   0.0083598
-0.063662    -0.04097   -0.019923    -0.04985    -0.57045     0.11787    0.013951
-0.046561   -0.042944  -0.0080836   -0.036037     -0.7237     0.15832    0.022172
-0.027158   -0.038668   0.0067154   -0.036037    -0.93911     0.19877    0.031709
-0.011043   -0.028802    0.020857   -0.047219      -1.165      0.1922    0.042891
0.0014536   -0.013017     0.03434   -0.053138     -1.2972     0.12675     0.05473
0.012306   0.0073732     0.04618   -0.042286      -1.218    0.013951    0.064267
0.021186    0.028421    0.057032   -0.012359    -0.88912    -0.12746    0.067556
0.029736    0.044864    0.066898    0.023817    -0.38497    -0.28598    0.059663
0.035656    0.051441    0.074462    0.045522     0.14254    -0.46093      0.0373
0.0373    0.053415    0.077422    0.035985     0.53389    -0.66845  -0.0038083
0.033025    0.052757    0.072818   -0.011372      0.6832    -0.92168   -0.059058
0.021186    0.052099    0.059334   -0.086025      0.5921     -1.2084     -0.1222
0.0001381     0.05177    0.036642     -0.1643     0.38294       -1.49    -0.18074
-0.023869    0.050455    0.011648    -0.22086     0.23166     -1.7218    -0.22053
-0.042286    0.046508   -0.011043    -0.24553     0.25896     -1.8777     -0.2373
-0.048863    0.037629   -0.029789    -0.23928     0.45134     -1.9652    -0.23073
-0.048205     0.02875   -0.042615    -0.21132     0.68813      -2.005    -0.20771
-0.041957    0.020857   -0.045246    -0.17646     0.82428     -2.0188    -0.17745
-0.034064    0.015924   -0.036366    -0.14588     0.74996     -2.0112    -0.14851
-0.023869    0.014608   -0.018278     -0.1199     0.44444     -1.9711    -0.12352
-0.014661    0.016581   0.0047422    -0.10444  -0.0018351     -1.8655    -0.09622
-0.0061104    0.021514    0.026447   -0.096549    -0.43923     -1.6521   -0.059058
0.00079584    0.024474      0.0373   -0.095891    -0.73389      -1.314   -0.011043
0.0070443    0.021186    0.036642   -0.096549    -0.81381    -0.88583    0.041247
0.013293    0.010004    0.027105   -0.094247    -0.68621    -0.44449    0.093536
0.016253  -0.0038083    0.012964    -0.08471    -0.41128   -0.065307     0.13629
0.013293   -0.011701  -0.0028217   -0.066622   -0.076159     0.24284     0.16194
0.0057288   -0.011701   -0.014661   -0.047548     0.21818     0.55033     0.16194
-0.0080836  -0.0067681   -0.021567   -0.041957     0.36683     0.92261     0.14056
-0.020252  -0.0047949   -0.024198   -0.047877      0.3027      1.3518      0.1034
-0.030447  -0.0057815   -0.023869   -0.054125     0.02579      1.7655    0.062623
-0.037353  -0.0064392   -0.026171   -0.047548    -0.41489      2.0753    0.033683
-0.032749   -0.004466   -0.028473   -0.017621    -0.93779       2.217    0.031052
-0.016305   0.0030979   -0.025514    0.041575     -1.4535      2.1631    0.053743
0.0070443    0.012306   -0.016963     0.12642     -1.8955      1.9243    0.086301
0.02875    0.023817  -0.0051238     0.21916     -2.2115      1.5432     0.10932
0.04322    0.036642   0.0070443     0.29217     -2.3539      1.0841     0.11195
0.04881    0.047495    0.014279     0.32243     -2.2447     0.63748    0.097812
0.04618    0.054072    0.016581     0.30927     -1.8251     0.28494    0.079395
0.041904    0.056703    0.015924     0.26817      -1.142     0.07216    0.070187
0.041904    0.057032     0.01691     0.23232    -0.37411  -0.0061104    0.079395
0.052428    0.052757    0.019212     0.22541     0.22475 -0.00019077     0.10603
0.077751    0.045851    0.019212     0.25172      0.4645    0.014279     0.14352
0.11228    0.042891    0.015924     0.29579     0.27376   -0.043272     0.18069
0.14352    0.049468    0.014608     0.33953    -0.28104    -0.21264     0.21324
0.16095    0.061636    0.019541     0.36946    -0.99534    -0.47804     0.23692
0.1626    0.073147    0.031381     0.37406     -1.6011    -0.78026     0.24778
0.1501    0.081697    0.043549     0.34084     -1.8524     -1.0466     0.23824
0.12807    0.081039     0.04881     0.25501     -1.6172     -1.2094     0.21028
0.10011    0.066898    0.037629     0.10965    -0.92299     -1.2325     0.17312
0.067227    0.046508    0.014937   -0.079448    0.046837     -1.1167     0.13464
0.033683    0.029407    -0.01203    -0.27973      1.0038    -0.89175    0.093208
0.0050711    0.017239   -0.034722    -0.44942      1.6915    -0.61649    0.045522
-0.020909   0.0044134   -0.050836    -0.55894      1.9533    -0.37115   -0.007097
-0.041628   -0.010386   -0.057743      -0.603      1.7477    -0.22875   -0.053467
-0.053138     -0.0265   -0.057743    -0.58755      1.1712    -0.22218   -0.087012
-0.04985   -0.038339   -0.049521    -0.52967     0.44575    -0.33629    -0.11003
-0.033735    -0.04393   -0.038668    -0.44416    -0.14062    -0.51454    -0.12187
-0.012359   -0.039326   -0.025514    -0.33925    -0.38168    -0.69048    -0.12845
0.0050711   -0.028802   -0.010715    -0.22218    -0.24947    -0.80526    -0.13766
0.014937   -0.017621   0.0057288   -0.095233     0.18759    -0.81907    -0.15048
0.023488   -0.011372    0.018555    0.038944     0.81803    -0.72173    -0.15739
0.035656   -0.007097    0.023817      0.1751      1.5087    -0.52967    -0.15081
0.054401 -0.00019077    0.021186     0.30335      2.1559     -0.2771    -0.12648
0.077751   0.0090175    0.017239     0.40958      2.7126  -0.0090702   -0.080106
0.10439    0.017568    0.013951      0.4793       3.124     0.24021   -0.010715
0.13267    0.026776    0.016253     0.50199      3.2385     0.45693     0.07216
0.15306    0.038944    0.021186     0.47173      2.8715     0.61874      0.1478
0.15832    0.050455    0.027434     0.38853       1.949     0.68418     0.19253
0.14616    0.054072    0.030394     0.27441     0.59901     0.62236     0.19516
0.12445    0.044864    0.032038     0.15306    -0.88123     0.46746     0.16556
0.098798    0.024145    0.039273    0.050126     -2.1112     0.29086     0.12281
0.075778   0.0034268     0.04881   -0.019923      -2.889     0.14287    0.084986
0.05769  -0.0077547    0.059992   -0.047877     -3.2073    0.021843    0.061965
0.041904  -0.0077547    0.075449   -0.035708     -3.2237    -0.10181    0.047495
0.026119  0.00046697    0.095181   0.0014536     -3.1221    -0.26559     0.03434
0.0073732   0.0086887     0.11162    0.047495     -3.0143    -0.48198    0.013293
-0.015319    0.013622     0.11985    0.084657      -2.885    -0.72403   -0.015976
-0.038011    0.014279     0.11952     0.10866     -2.5953    -0.94305   -0.042944
-0.053138    0.015924     0.11754     0.12577     -1.9129     -1.1016   -0.055112
-0.054454    0.021843     0.12248     0.15438    -0.66779     -1.1884   -0.045574
-0.034393    0.036314     0.13399     0.21061     0.99299     -1.2006   -0.018607
0.0057288    0.056046      0.1478     0.29612      2.6166     -1.1381    0.018555
0.054401    0.074462     0.16326     0.39478      3.8633      -0.996    0.050126
0.094852     0.08959     0.17279     0.47996      4.6161    -0.77204    0.060321
0.11097    0.094194     0.16391     0.51975      4.9124    -0.48757    0.044535
0.095181    0.085644     0.12971     0.49377      4.8249    -0.20935   0.0037556
0.048482    0.061307    0.071502     0.40136      4.4392   -0.036037   -0.053796
-0.015319    0.026119   0.0057288     0.26849      3.8643   -0.049192    -0.11069
-0.073199   -0.010386   -0.053796     0.12971      3.2342    -0.25441    -0.14851
-0.11003   -0.037353   -0.093589    0.017568      2.6498     -0.5517    -0.15377
-0.12056    -0.04393    -0.11036   -0.054783      2.1246    -0.77533    -0.12417
-0.10247   -0.030775    -0.10477   -0.090629      1.6076    -0.76514    -0.07024
-0.066951   -0.007097     -0.0903    -0.10313      1.0703    -0.43068  -0.0074258
-0.027158    0.014937   -0.073199    -0.10411     0.52435     0.17477    0.046508
0.0057288    0.029078   -0.060373    -0.10477    0.002769     0.85486    0.078737
0.023817    0.036642   -0.051165    -0.11069    -0.46587      1.4051    0.086959
0.026776    0.041247    -0.04393    -0.11793    -0.88221       1.703    0.077751
0.021514    0.044535   -0.036037    -0.12121     -1.2759      1.7237    0.063281
0.017897    0.050455   -0.025185    -0.11727     -1.6218      1.5336    0.053415
0.02579    0.058019  -0.0080836    -0.10247     -1.8093      1.2538    0.057361
0.044206    0.062294    0.016581    -0.08175     -1.7481      1.0124    0.082684
0.064267    0.061307    0.038616   -0.064978     -1.4048     0.88512     0.11952
0.077751    0.055059    0.052099   -0.062347    -0.80559     0.88578     0.15306
0.07808    0.048482    0.053086   -0.074844   -0.054454     0.97655      0.1672
0.062952    0.038287    0.043877   -0.092274     0.69536      1.1087     0.15569
0.036971    0.026447    0.029078    -0.10346      1.2801      1.2465      0.1205
0.0086887    0.011648    0.016253    -0.10313      1.5461      1.3676    0.070187
-0.016305  -0.0038083   0.0073732   -0.094576      1.4172      1.4491    0.020857
-0.034393    -0.01795   0.0001381    -0.08471     0.95024      1.4659   -0.017292
-0.045574   -0.030447  -0.0067681    -0.08471     0.31355      1.4034   -0.039326
-0.04985   -0.037353   -0.016305    -0.10115    -0.29288      1.2715   -0.044588
-0.05281   -0.038997   -0.032749    -0.13174    -0.73093      1.0972   -0.038339
-0.057743    -0.03242   -0.056427    -0.16561    -0.95325     0.91077   -0.032749
-0.062018   -0.021896   -0.081421    -0.19225    -0.97035     0.73154   -0.036037
-0.061689   -0.014332   -0.097864    -0.19883    -0.82433     0.56349   -0.048863
-0.053467   -0.012688   -0.097207    -0.17877    -0.60531     0.40859   -0.064649
-0.037353   -0.010386   -0.072542    -0.12746    -0.46258     0.26619   -0.071226
-0.018278   0.0001381    -0.03242   -0.053796    -0.53328     0.14056    -0.06136
-0.0038083    0.015266    0.011648    0.033025    -0.86643    0.031709   -0.038997
-0.0034794    0.026776    0.045522     0.11985     -1.4045   -0.065635   -0.016305
-0.015319    0.027105    0.064925     0.18858     -2.0569     -0.1666  -0.0077547
-0.035708     0.01691     0.07512     0.22475      -2.715    -0.28861   -0.020252
-0.059716   0.0034268    0.076435     0.21982     -3.2593    -0.44022   -0.044588
-0.083394  -0.0064392    0.067227     0.17444     -3.5931    -0.61912   -0.066951
-0.10346  -0.0064392    0.047824     0.10274      -3.648    -0.81282   -0.076159
-0.11365  -0.0057815    0.019541    0.018226     -3.3464     -1.0009   -0.069582
-0.10872  -0.0093991   -0.011372   -0.058729      -2.618     -1.1519   -0.053796
-0.091945   -0.018278   -0.037024    -0.11595      -1.486       -1.24   -0.033735
-0.065964   -0.024198   -0.055112    -0.14588    -0.13897     -1.2575   -0.014661
-0.034064   -0.020909   -0.065307    -0.14719      1.0732     -1.2262  -0.0018351
-0.0041372   -0.010715   -0.065964    -0.13108      1.8753     -1.1854  -0.0024928
0.01987   0.0021113   -0.059716    -0.11497      2.2174     -1.1627   -0.024527
0.032696    0.010662   -0.049521    -0.11233      2.1851     -1.1519   -0.063333
0.031709    0.010333    -0.04097    -0.12352      1.9263     -1.1193     -0.1074
0.022172  0.00079584   -0.037353    -0.14029      1.5882     -1.0322    -0.13568
0.010662  -0.0093991   -0.036366    -0.15936      1.2683    -0.88452      -0.137
0.0054   -0.015648   -0.037353    -0.17449      1.0038    -0.70594    -0.11431
0.0067154   -0.022225   -0.039326    -0.17975     0.78218    -0.51816   -0.076817
0.010004   -0.025185   -0.042286    -0.16923     0.60229    -0.29453   -0.034393
0.015595     -0.0265   -0.042615    -0.14029     0.45759    0.021843   0.0047422
0.020528   -0.025185   -0.037682    -0.09622     0.29349      0.4622    0.043549
0.020199   -0.018936   -0.029131   -0.047548    0.034998     0.96865    0.079066
0.013951  -0.0041372   -0.018936  -0.0064392    -0.35833      1.4024     0.10538
0.0014536    0.010991  -0.0054526    0.021843    -0.84012      1.6251     0.11754
-0.014332    0.023488    0.013622     0.04322     -1.2828      1.5826     0.11656
-0.030118    0.031381    0.036314    0.064596     -1.5399      1.3143     0.10439
-0.04097     0.03434    0.059663    0.092879     -1.5436     0.92557    0.085315
-0.044588    0.033683     0.07808     0.12807     -1.3561      0.5283    0.063938
-0.040313    0.027105    0.091234     0.15931     -1.1312     0.20798    0.043549
-0.030775    0.017239    0.099127      0.1751     -1.0177   0.0017824    0.030394
-0.020909   0.0037556     0.10011      0.1695     -1.0976   -0.085696    0.026447
-0.013017  -0.0097279    0.089919     0.14484     -1.3923   -0.078132    0.031381
-0.007097   -0.018278      0.0692     0.10505     -1.8481   -0.015976    0.042562
-0.0077547   -0.019594    0.044206    0.059005     -2.3299    0.056703    0.056703
-0.013345    -0.01499    0.021514    0.012306     -2.6449     0.11327    0.069858
-0.023211  -0.0051238   0.0037556   -0.028802     -2.6331     0.15602    0.084657
-0.028802   0.0080309   -0.007097   -0.062347     -2.2171     0.20042     0.10044
-0.025514    0.020857  -0.0090702   -0.084381     -1.4239     0.24876     0.11393
-0.014003    0.029078  -0.0047949   -0.097536    -0.43166        0.28     0.11754
-0.0024928    0.034998  -0.0018351    -0.11266     0.47535     0.26093     0.10899
0.0040845    0.035327  -0.0034794    -0.14226      1.0403     0.16819    0.091563
0.002769    0.030723   -0.012359    -0.19159      1.1476   -0.014332    0.065583
-0.0087413    0.022501   -0.022883    -0.25375     0.86243    -0.29683    0.027105
-0.026829    0.013951   -0.031104    -0.30735     0.43293    -0.64444   -0.020581
-0.051494   0.0080309   -0.033406     -0.3307     0.16063    -0.97758   -0.071555
-0.071555   0.0070443   -0.029131    -0.31196     0.22541     -1.2091    -0.11233
-0.077475    0.010991   -0.020252    -0.25177     0.61841     -1.2972    -0.13108
-0.065307    0.017897  -0.0080836    -0.16956      1.1722     -1.2558     -0.1222
-0.041957    0.029078  -0.0015062     -0.0903      1.6869     -1.1328   -0.087669
-0.01499     0.04026      0.0054    -0.03242       2.051     -0.9835   -0.043272
0.0083598    0.047824    0.010333   0.0001381      2.2739    -0.83913  -0.0093991
0.02579    0.049139    0.014937    0.016253      2.4245    -0.70956   0.0034268
0.036971    0.045522    0.014279    0.032696      2.5397    -0.58031  -0.0038083
0.043549    0.042562    0.012964    0.064267      2.6035    -0.41785   -0.020581
0.052428    0.050126    0.015595     0.11162      2.5972    -0.18205   -0.028802
0.066569    0.064596    0.025132     0.16391       2.517     0.14352   -0.016963
0.084657    0.076435    0.036642     0.20831      2.3795     0.52501    0.013293
0.10274    0.081368    0.042891     0.23824       2.218      0.8838    0.050126
0.1136    0.077422    0.040918     0.25402      2.0572      1.1505    0.082355
0.11656    0.069529    0.032038     0.26192       1.897      1.2942     0.10011
0.11228    0.062294    0.022172     0.27836      1.6922      1.3321     0.10209
0.10702    0.063938    0.017568     0.31322      1.3682      1.3067     0.09551
0.1011    0.077422     0.02283     0.36419     0.87032      1.2518     0.08959
0.095839    0.096496    0.036642     0.41879     0.21752      1.1745    0.091234
0.091892     0.11195    0.053415     0.45036    -0.48823      1.0607      0.1011
0.08663     0.11458    0.061965     0.42997     -1.1328     0.89038     0.11261
0.07808     0.10274     0.06065     0.34907     -1.6241     0.65787     0.12215
0.062952    0.080053    0.052757     0.22804     -1.8751     0.39083     0.12577
0.044864    0.053743    0.044206     0.10801     -1.8537     0.14089     0.11886
0.026447     0.02875    0.035985    0.026776     -1.6222   -0.045903     0.10669
0.010662   0.0093464    0.029407   -0.007097     -1.3331    -0.15081    0.098469
-0.0034794  -0.0028217    0.026447  -0.0097279     -1.1545    -0.18304    0.097483
-0.016305    -0.01203    0.026776  -0.0018351     -1.1611    -0.17745    0.096496
-0.025842   -0.019594    0.025461   0.0014536     -1.2864    -0.18863    0.084986
-0.032749   -0.028473    0.023488    0.011977     -1.3887    -0.25309    0.059663
-0.038011   -0.034064     0.01691     0.04618     -1.3351     -0.3876     0.02875
-0.039655   -0.030118    0.010662     0.10603     -1.0693    -0.56617      0.0054
-0.036695   -0.017292   0.0037556     0.17542    -0.64806    -0.72008   0.0011247
-0.0265  -0.0031506   -0.004466     0.22903    -0.19883    -0.76218    0.017239
-0.010386   0.0060577   -0.014332      0.2458     0.15602    -0.65628    0.041904
0.0080309      0.0054   -0.031104     0.21555     0.37373    -0.43298    0.057032
0.021843  -0.0018351   -0.054125      0.1501     0.49278    -0.16989    0.053086
0.024145   -0.012359   -0.081421    0.075449     0.57368     0.04322    0.030065
0.015266   -0.022225    -0.10937    0.016253     0.64439     0.12938  -0.0047949
-0.0008485   -0.032091    -0.13568   -0.018278     0.69207    0.058019   -0.039326
-0.019265   -0.039655    -0.15476   -0.034722     0.69799    -0.13634   -0.066622
-0.032749   -0.042944    -0.15969    -0.04393     0.64307    -0.35767   -0.087998
-0.037024    -0.04097    -0.15048   -0.044588     0.50298     -0.4981    -0.10674
-0.032749   -0.032749    -0.12812     -0.0265     0.24646    -0.49382    -0.12187
-0.024198   -0.019265   -0.093918    0.010662    -0.13371    -0.36063    -0.13174
-0.014003   -0.004466   -0.054454    0.045193    -0.58064    -0.17909    -0.13799
-0.0064392   0.0063866   -0.018936    0.046508    -0.98548   -0.050507     -0.1416
-0.0011774    0.013293   0.0060577 -0.00051963     -1.2374   -0.036695    -0.14127
0.00046697    0.018226    0.018226   -0.085039     -1.2713    -0.13601    -0.13897
-0.0028217    0.024474    0.022172    -0.17712     -1.1118    -0.29946    -0.13536
-0.0087413    0.029078    0.022172    -0.24257    -0.84604    -0.46685    -0.13272
-0.01499    0.032696    0.017897    -0.26822    -0.56979    -0.57702    -0.13108
-0.018607    0.032367   0.0093464    -0.25802    -0.35339    -0.59018     -0.1268
-0.018278     0.02875 -0.00019077    -0.22678    -0.24454    -0.51158    -0.11924
-0.015976    0.023159  -0.0028217     -0.1883    -0.28532    -0.39089    -0.11003
-0.012688    0.017239  -0.0008485    -0.15048    -0.44383    -0.26131    -0.10247
-0.0087413    0.013293   0.0047422    -0.11661    -0.60268    -0.11825   -0.092931
0.00046697    0.010004     0.01132   -0.086354    -0.61682    0.048482   -0.071226
0.020857    0.010662    0.018555   -0.054454    -0.41226     0.21324   -0.027487
0.046508    0.015595     0.02579   -0.020581   -0.024198     0.31454    0.036642
0.07512    0.023159    0.034669    0.013951     0.41813     0.29316      0.1136
0.099456     0.03434    0.042233    0.050455     0.77922     0.14221     0.18858
0.11524    0.048482    0.049797    0.088275     0.99134   -0.073199     0.25041
0.12544    0.064596    0.062623      0.1307      1.0821    -0.21494     0.30007
0.13234    0.077751    0.084328       0.182      1.1449    -0.13141     0.33821
0.13826    0.085644     0.11064     0.23594      1.2564     0.23232      0.3586
0.13958    0.083999     0.13267     0.28559      1.4041     0.77133     0.35531
0.12971     0.07216     0.14385     0.32243      1.5057      1.2834     0.33032
0.10768    0.055717     0.13925     0.33854      1.4738      1.5958     0.29119
0.076435    0.037958     0.11985     0.33229      1.2702      1.6514     0.24843
0.042891    0.023817    0.094523     0.30434     0.93807      1.4962       0.207
0.013622    0.010662    0.073476     0.25994     0.56809      1.2123      0.1672
-0.0097279   -0.002164    0.059334     0.20404     0.25468     0.86736     0.12313
-0.02946   -0.015319    0.049139     0.13925     0.06065     0.49903    0.066898
-0.050507   -0.021896    0.035327    0.065912     0.01132     0.13596  -0.0047949
-0.073199    -0.02354    0.013293   -0.017621    0.081368    -0.20047    -0.08175
-0.094247   -0.026171   -0.014003    -0.10806     0.20305     -0.4754    -0.15542
-0.11069   -0.030775   -0.037024    -0.19817     0.30598    -0.65069    -0.20771
-0.12089   -0.036695   -0.051823    -0.27184     0.35433    -0.69311    -0.22645
-0.1176   -0.043272   -0.056427    -0.31294      0.3346    -0.57933    -0.20738
-0.097207   -0.046561   -0.051165    -0.31097     0.24646    -0.32643    -0.15344
-0.060702    -0.04097    -0.03538    -0.27052    0.088932   -0.007097    -0.07583
-0.016305   -0.026829   -0.011701    -0.20869    -0.13963     0.27047   0.0086887
0.026447  -0.0077547    0.015924    -0.14621    -0.40897     0.43326    0.081697
0.061965    0.013622    0.043549    -0.09918    -0.67009     0.47634     0.13169
0.087617    0.032038    0.068871   -0.070897    -0.88221     0.42635     0.15898
0.10143    0.044206    0.091234   -0.058071     -1.0184     0.31782     0.16128
0.099456    0.051113     0.10373   -0.061031     -1.0684     0.18726     0.13925
0.084657    0.050784      0.1034   -0.077803     -1.0552    0.059005    0.099127
0.06361    0.042233    0.091892    -0.10214     -1.0342   -0.059058    0.052099
0.042233    0.026776    0.071831    -0.12516     -1.0828    -0.16364   0.0096753
0.024474   0.0096753    0.047166    -0.13799     -1.2279    -0.25506   -0.018278
0.013622   -0.002164    0.020528     -0.1347     -1.4061    -0.34057   -0.036366
0.010662  -0.0061104  -0.0077547    -0.11398     -1.5031    -0.43824   -0.053467
0.0080309  -0.0011774   -0.034722   -0.084052     -1.3897    -0.55598   -0.074515
0.002769   0.0040845   -0.059716   -0.054454    -0.93549    -0.66812   -0.098193
-0.0084125   0.0037556   -0.074515    -0.03242   -0.082736    -0.73225    -0.11628
-0.024856  -0.0031506   -0.077475   -0.014332      1.0285    -0.72271    -0.11924
-0.042286   -0.010057   -0.069582   0.0086887      2.1266    -0.63984    -0.10411
-0.054783  -0.0064392   -0.049521    0.042562      3.0251    -0.50599   -0.073199
-0.057085   0.0077021   -0.019594    0.089261      3.6121    -0.35405   -0.038997
-0.045246    0.025132    0.012306     0.14188      3.7558    -0.22875   -0.010386
-0.025842    0.039931    0.036642     0.18825      3.3164    -0.18173      0.0054
-0.0024928    0.044864    0.046508     0.21259       2.296    -0.23467   0.0060577
0.021186    0.042233    0.047824     0.20963     0.96471    -0.35142   0.0001381
0.039931    0.037629    0.052099     0.18661    -0.21757    -0.46554   0.0011247
0.054401    0.036314    0.058676     0.15372    -0.88057    -0.51717    0.011648
0.063938    0.037958    0.058676     0.12281    -0.91806    -0.47146     0.02579
0.070516      0.0373    0.051113      0.1011    -0.44186    -0.32051    0.035656
0.076764    0.031709    0.039931    0.085644     0.25896   -0.080434    0.038944
0.086301    0.023817    0.034011    0.079066     0.83842     0.21226     0.04026
0.09551    0.021186     0.03434    0.077422      1.0755     0.51449    0.047824
0.10077    0.030394    0.038616     0.07808      0.9305     0.77824    0.062952
0.10242    0.047495    0.045851    0.080711      0.4987     0.96635    0.082355
0.1011    0.061307     0.04881    0.084657   -0.046232      1.0693     0.10176
0.097812    0.068871    0.048153    0.090248    -0.49678      1.0979     0.11886
0.090905    0.070845    0.048482    0.099785     -0.6622      1.0752     0.12938
0.079066    0.071173    0.046837     0.11261    -0.41687      1.0223     0.12938
0.061307    0.067227    0.041575     0.11985     0.22443     0.95912     0.11721
0.040918    0.055388     0.02579     0.11393      1.0525     0.90189    0.096167
0.024474    0.033683   0.0001381    0.094194       1.729     0.87262    0.068214
0.013622   0.0030979   -0.029789    0.059992      1.9671     0.87986    0.040918
0.0070443   -0.027487   -0.057414    0.013951      1.6478     0.92031    0.021514
0.0034268    -0.04689    -0.07879   -0.040313      0.8838     0.98707   0.0093464
0.00079584   -0.049521   -0.089643   -0.097536    -0.04097      1.0588   0.0030979
-0.0024928    -0.04097   -0.094905    -0.14489    -0.81052      1.0943   0.0001381
-0.0047949   -0.031762   -0.099509    -0.17482     -1.2558      1.0459  -0.0038083
-0.0084125   -0.027487    -0.10313    -0.17877     -1.3874     0.87624    -0.01203
-0.014332   -0.026829    -0.10477    -0.15706     -1.3288     0.58256   -0.025185
-0.022225   -0.025514   -0.099838    -0.11628     -1.2216     0.21127   -0.042615
-0.030447   -0.019923    -0.08471   -0.060045     -1.1443    -0.16528   -0.061689
-0.035708   -0.013017   -0.068266  -0.0018351     -1.1081     -0.4856    -0.08175
-0.036695  -0.0051238   -0.055769    0.040918     -1.1072    -0.71745    -0.10181
-0.03538   0.0034268   -0.046232    0.057361     -1.1341    -0.85788    -0.12089
-0.032091    0.015266    -0.04097     0.04881       -1.17    -0.91938    -0.13174
-0.029789    0.027763   -0.041628    0.017568     -1.2015     -0.9299    -0.12911
-0.028144    0.033683   -0.045903    -0.02946     -1.2196    -0.92168    -0.11825
-0.027158    0.027105   -0.053467    -0.07879     -1.2272    -0.92135    -0.10806
-0.029131    0.012635   -0.060702     -0.1097     -1.2167    -0.94207    -0.10576
-0.032749  -0.0018351    -0.06432     -0.1028     -1.1815    -0.98646    -0.11365
-0.042615  -0.0093991   -0.058729   -0.050507     -1.1279     -1.0578    -0.13338
-0.060373   -0.010386   -0.042615    0.039273     -1.0897     -1.1578    -0.16035
-0.082408  -0.0038083   -0.013674     0.15306     -1.1299     -1.2782    -0.18501
-0.10017   0.0090175    0.023817     0.27606     -1.2903     -1.3989    -0.19784
-0.10477    0.028092    0.065912     0.38787      -1.533     -1.4827    -0.18666
-0.088327     0.05177     0.10768     0.46285      -1.781     -1.4962    -0.14818
-0.050179    0.077751     0.14352     0.47535      -1.979     -1.4268   -0.087012
-0.0038083     0.10143     0.16786     0.41188     -2.1007     -1.2884   -0.018278
0.043877     0.11985     0.17904     0.28066     -2.1194     -1.1295    0.043877
0.081697     0.12905     0.18036     0.11097     -2.0132     -1.0016    0.083342
0.099456     0.12313     0.17082   -0.061031      -1.782    -0.93187    0.083013
0.092879      0.1034     0.15339    -0.19685     -1.4344    -0.91576    0.047495
0.069858    0.076764     0.13267    -0.26493    -0.99732     -0.9276   -0.002164
0.042562    0.052757     0.11491    -0.25506     -0.5369    -0.94207   -0.044588
0.021186    0.037958     0.10209    -0.17679    -0.10576    -0.94437   -0.059058
0.015266    0.030723    0.097483    -0.04985     0.26093    -0.91609   -0.038668
0.025132    0.027763    0.099785     0.09255     0.50199    -0.84143   0.0090175
0.039602    0.026119     0.10209     0.20338     0.56316    -0.70956    0.071831
0.048153    0.023488    0.096496     0.24482     0.46417    -0.51816     0.12544
0.049139    0.021514    0.083342     0.21324      0.2777    -0.27808     0.16326
0.049468    0.021186    0.068543     0.13136     0.12313   -0.012688     0.19022
0.055388    0.026447    0.058676    0.035656     0.10702     0.25172     0.21456
0.061636    0.033025    0.056046   -0.044917     0.24613     0.48719     0.24021
0.060979    0.035656    0.056703   -0.095233       0.575     0.67793     0.26849
0.055059    0.032038    0.055717     -0.1074       1.167     0.82757      0.2925
0.042233    0.020857    0.049797   -0.091616      1.9483      0.9305     0.29809
0.026447   0.0030979    0.041247   -0.071555      2.6304     0.95385     0.27507
0.0063866   -0.018278    0.034998   -0.069253      2.8942     0.86013     0.22377
-0.013674   -0.041299    0.026447   -0.094905       2.611     0.64472     0.15405
-0.033406    -0.06136    0.014279    -0.14226       1.898     0.36091    0.081697
-0.053796   -0.071226  -0.0011774    -0.19521      1.0157    0.099127     0.01691
-0.073857   -0.071555   -0.022225    -0.24191     0.22278   -0.085696   -0.031762
-0.094247   -0.067609    -0.04689    -0.28137    -0.33629    -0.21067   -0.066293
-0.11332   -0.063991   -0.074186    -0.31196    -0.65793    -0.33169   -0.096878
-0.13174   -0.063662    -0.10313    -0.33235    -0.81282    -0.47376    -0.12976
-0.14358   -0.067609    -0.12944    -0.34419    -0.87662    -0.61024    -0.17022
-0.15015   -0.074186    -0.15015    -0.34978    -0.90458     -0.6793    -0.21198
-0.14851    -0.08175    -0.16265    -0.34846    -0.93746    -0.62701    -0.24388
-0.14062   -0.091945    -0.17022    -0.34221     -1.0217    -0.42936    -0.25506
-0.1324     -0.1074    -0.18107    -0.33695     -1.1818    -0.10247    -0.24257
-0.1268    -0.12384    -0.19554    -0.33958     -1.3732     0.32243    -0.20902
-0.12549    -0.13207    -0.21297     -0.3478     -1.4834      0.8256     -0.1643
-0.12483    -0.12779    -0.22579    -0.35405     -1.4038      1.3738    -0.11529
-0.11825    -0.11332    -0.22415    -0.34978     -1.0697      1.8836   -0.069911
-0.10378   -0.098522    -0.20277     -0.3284     -0.4902      2.2331   -0.031433
-0.07879   -0.083394    -0.16561    -0.28861     0.23265       2.342   0.0057288
-0.049192    -0.06136    -0.11628    -0.22283     0.92097      2.2285    0.046837
-0.019594   -0.031104   -0.061031    -0.12648       1.388       1.999    0.090248
0.0080309   0.0040845  -0.0064392  -0.0064392      1.4761      1.7865     0.12609
0.034998    0.038287    0.042233     0.12149      1.1048      1.6853     0.14517
0.064596    0.068871    0.089261     0.24186     0.34676       1.701     0.15701
0.099785     0.10143     0.13958     0.34282    -0.54973      1.7596     0.17312
0.13826      0.1353     0.18858     0.42175     -1.2522      1.7579     0.19976
0.17838     0.16523     0.23265     0.48686     -1.4722      1.6369     0.23363
0.2162     0.18397     0.26817     0.54573     -1.0203      1.4133     0.27178
0.25106     0.18661     0.29119     0.59703    0.090905      1.1541     0.30631
0.28132     0.17838     0.29974     0.64768      1.6244      0.9407     0.32835
0.30467     0.16852      0.3027      0.7072      3.2105     0.83776     0.33723
0.32473     0.16326     0.30434      0.7687      4.4744     0.86341     0.33887
0.33394     0.16457     0.29908     0.80981      4.9588     0.98773      0.3415
0.32802     0.16687        0.28     0.80422      4.9598      1.1439     0.35071
0.30697      0.1649     0.24942     0.73845      4.1248      1.2577     0.35827
0.2777      0.1524     0.21061     0.62992      2.9248      1.2752     0.35696
0.24514     0.13333      0.1695     0.50988      1.7487      1.1883     0.33953
0.21259     0.11426     0.13464     0.40925     0.90847      1.0137      0.3096
0.182    0.098469     0.11097      0.3494      0.5329     0.76081     0.27014
0.15175    0.084657    0.095181     0.32045     0.57335     0.43095     0.21851
0.12215     0.07216    0.084986     0.30171     0.85256    0.024474     0.14846
0.09551    0.060979    0.072818     0.27474       1.136    -0.44318    0.065912
0.074462    0.053086    0.058676     0.23429      1.2419    -0.92694    -0.01499
0.05769    0.051441     0.04322      0.1843      1.0861     -1.3699   -0.074186
0.041575    0.050455    0.027763     0.12807     0.68648      -1.705     -0.1005
0.021514     0.04618   0.0060577    0.064596     0.14418     -1.8935    -0.10017
-0.0047949    0.034998   -0.021567  -0.0087413    -0.38168     -1.9366   -0.083723
-0.036366    0.015266   -0.051165   -0.088656    -0.73718     -1.8626    -0.06728
-0.068266   -0.010715   -0.078132    -0.16989    -0.82894     -1.7369   -0.062347
-0.10214   -0.038011    -0.10115     -0.2452    -0.64707     -1.6271   -0.074515
-0.13864   -0.063991     -0.1199    -0.31064    -0.31163     -1.5488    -0.10115
-0.17548   -0.082736    -0.13667    -0.36622   -0.024527     -1.4479    -0.13799
-0.20902   -0.092603     -0.1541    -0.40996    0.052757     -1.2292    -0.17186
-0.23566   -0.097864    -0.17186     -0.4435    -0.11825    -0.82795    -0.19356
-0.2498    -0.10148    -0.18534    -0.46258    -0.43923    -0.28631    -0.20014
-0.2498    -0.10313     -0.1906    -0.46554    -0.74804     0.23528    -0.20343
-0.23599    -0.10214    -0.19028    -0.44942    -0.89011     0.54836    -0.21099
-0.21297    -0.09622    -0.18205    -0.41029    -0.76547     0.55987    -0.22218
-0.18732   -0.086354     -0.1689    -0.35339    -0.45633     0.30862    -0.22382
-0.16495   -0.074186    -0.15081    -0.28367    -0.16956   -0.071555    -0.21034
-0.14555   -0.061689    -0.13042    -0.20902   -0.089643    -0.42575      -0.186
-0.12878   -0.046232    -0.11562    -0.13634    -0.26427    -0.65332    -0.15673
-0.11168   -0.025842    -0.10641    -0.06432    -0.61879    -0.72995    -0.12911
-0.094905  -0.0051238   -0.098522    0.015595     -1.0177    -0.69509     -0.1074
-0.080434    0.012306   -0.088985     0.12116     -1.3587    -0.60925   -0.088656
-0.073528    0.024803   -0.072542      0.2583     -1.5883    -0.51026    -0.06432
-0.068266     0.03434   -0.046561       0.403     -1.6613    -0.41226   -0.031433
-0.061031    0.037629   -0.018278     0.50988     -1.5383    -0.31557   0.0044134
-0.051494     0.03434   0.0034268     0.53817     -1.2302    -0.21593    0.033354
-0.04097    0.027434    0.010662     0.48292     -0.8069     -0.1097    0.050455
-0.033406    0.021514   0.0067154     0.36814    -0.36392   -0.002164    0.050126
-0.030775    0.017568  -0.0051238     0.23232    0.014608    0.084986    0.031709
-0.034722    0.014937   -0.018936     0.10636     0.25402     0.12511   0.0044134
-0.041957    0.010662    -0.02946   0.0073732     0.31815     0.10636   -0.019265
-0.04689      0.0054    -0.03242   -0.062018     0.21522    0.039602   -0.032749
-0.048534   0.0001381     -0.0265    -0.10641    -0.02354    -0.06136   -0.036037
-0.048534  -0.0011774   -0.020581    -0.13437    -0.35964    -0.18271    -0.03242
-0.045903   0.0030979   -0.016305     -0.1587    -0.77402    -0.30834   -0.024856
-0.040313    0.011648   -0.017292    -0.18666     -1.2466    -0.41062   -0.016634
-0.034393    0.016581   -0.020909    -0.21889     -1.7402    -0.48034   -0.011043
-0.033078    0.011977   -0.025842    -0.25408     -2.1783     -0.5346   -0.011043
-0.04097  -0.0028217   -0.031104    -0.28598     -2.4509    -0.60004   -0.012359
-0.049521   -0.020581   -0.039984     -0.3113      -2.466    -0.68785   -0.017621
-0.053796   -0.035051   -0.053467    -0.32577     -2.2309    -0.79638   -0.025842
-0.049192   -0.043601   -0.062347    -0.32182     -1.8468    -0.91247    -0.03538
-0.036037   -0.043272   -0.060373    -0.30012     -1.4508     -1.0263   -0.045246
-0.019594   -0.031433   -0.046561    -0.26263     -1.1443     -1.1229   -0.050836
-0.0015062  -0.0097279    -0.02354    -0.21231    -0.95687     -1.1815   -0.048205
0.01691    0.017239   0.0014536    -0.15739    -0.84045     -1.1825   -0.039655
0.0373    0.043549     0.02579    -0.10905    -0.71909     -1.1085   -0.028473
0.059992    0.067227    0.043549   -0.074186    -0.50829    -0.94536   -0.015648
0.084986    0.086959    0.053743   -0.048534     -0.1324    -0.70331   0.0021113
0.10899    0.098469    0.058348   -0.019594     0.49541    -0.40437    0.029407
0.13464     0.10176     0.06624    0.029078      1.4271   -0.071884    0.065583
0.16227    0.099127    0.079724     0.10242      2.5387     0.27672     0.10669
0.18792    0.096496     0.09551     0.18891      3.5124     0.63485     0.14056
0.20568    0.090905      0.1034     0.26225      3.9827     0.98542     0.15536
0.20798     0.07808    0.097154      0.2948      3.7377      1.2975     0.14944
0.19055     0.05769    0.076764     0.26948       2.835      1.5317     0.12346
0.15438    0.032367    0.050126     0.19055      1.5813      1.6603    0.085644
0.10406   0.0073732    0.021514    0.081039     0.37669       1.677    0.048482
0.049797   -0.014003  -0.0054526   -0.020252    -0.47277      1.5919    0.015924
0.0063866   -0.027158   -0.025185   -0.083723     -0.9197      1.4324  -0.0087413
-0.016963   -0.030118   -0.034064   -0.098851     -1.1058      1.2327   -0.019923
-0.01795   -0.024527   -0.030775   -0.083723     -1.1729      1.0183   -0.017621
-0.0061104   -0.013674    -0.01795   -0.062018     -1.2068       0.796   -0.007097
0.0067154  -0.0008485  0.00079584   -0.047548     -1.2285     0.56086   0.0037556
0.014608    0.015924    0.015924   -0.043601     -1.1851     0.33657    0.014937
0.021186    0.031709    0.023817   -0.048534    -0.98383     0.15734    0.027434
0.027434    0.045193    0.024474   -0.054783    -0.55795    0.029736    0.038616
0.028092    0.051441    0.021843   -0.062018    0.070187    -0.07879    0.044864
0.017568    0.049468    0.020199   -0.064649     0.74765    -0.19455    0.042562
-0.0054526    0.037629    0.022501   -0.063991      1.2659    -0.29913    0.035656
-0.030775    0.018884    0.027763   -0.064649      1.4373    -0.34715     0.02579
-0.048863  -0.0018351    0.035327   -0.072213      1.1453    -0.33662    0.019212
-0.053138   -0.019923    0.042233   -0.084381     0.43786    -0.30505    0.018884
-0.04689   -0.025185    0.045851    -0.09326    -0.45633    -0.29749    0.023817
-0.036366   -0.019594    0.044535   -0.098193     -1.2719    -0.33695     0.02875
-0.026171  -0.0061104    0.038616    -0.10477     -1.8573    -0.42279    0.028092
-0.016305    0.010333    0.031052     -0.1176     -2.1954    -0.54282    0.023159
-0.010386    0.023817    0.020199    -0.14391     -2.3634    -0.67634     0.01691
-0.0084125    0.030065   0.0040845    -0.18633     -2.4611    -0.80953      0.0054
-0.0047949    0.027105   -0.014332    -0.23467     -2.5331    -0.93516   -0.011043
0.0037556    0.014608   -0.029789    -0.27447     -2.5456     -1.0506   -0.024198
0.01691 -0.00019077   -0.040641    -0.29025     -2.3986     -1.1496   -0.030447
0.027434   -0.011372   -0.045246    -0.26953     -1.9645     -1.2206   -0.028802
0.030723   -0.016305   -0.043272    -0.21001     -1.1983     -1.2496   -0.032749
0.025461    -0.01203   -0.039984    -0.12779    -0.20573     -1.2223    -0.04689
0.013951  -0.0018351   -0.038997   -0.041299     0.80751     -1.1345   -0.071226
0.0030979    0.011977   -0.036366     0.04026      1.6109    -0.98679   -0.092931
0.002769     0.02283   -0.024856      0.1376      2.0704    -0.76612   -0.098193
0.018555    0.030065  0.00046697     0.27737      2.1736    -0.44646   -0.077803
0.046508     0.04026    0.037629     0.46647      1.9993   -0.024527   -0.033078
0.077751    0.053415     0.07808     0.67267      1.6899     0.45134     0.02579
0.10143    0.065583     0.10866     0.83119      1.4481     0.90091    0.076764
0.10538    0.074133     0.12116     0.88117      1.4643      1.2502     0.10801
0.093536    0.077751     0.11656     0.80225      1.8697      1.4518     0.11557
0.076435    0.079395     0.10011     0.63255      2.7084      1.5106     0.10834
0.06361    0.079066    0.082026     0.45134      3.9028      1.4797    0.098141
0.06361    0.079066    0.072489     0.32572      4.9598      1.4251    0.092879
0.074462    0.080711    0.077093     0.27737      4.9594      1.3883    0.087946
0.092879    0.085315    0.094194      0.2902      4.9594      1.3682    0.076435
0.11623    0.091234     0.11294     0.32802      4.9594      1.3449    0.061965
0.13925    0.098141     0.12445     0.35597      4.1465      1.2936     0.05769
0.15832     0.10472     0.12741     0.35334      2.5245      1.2081      0.0692
0.17181     0.10932     0.12313     0.31881      1.0371      1.0926    0.091892
0.17871     0.11031     0.11458     0.25929   -0.062347     0.95254     0.12182
0.18102      0.1034      0.1034     0.18529    -0.68292     0.79402     0.15438
0.17838    0.087617    0.091892     0.10998    -0.91576     0.62795     0.18167
0.17115    0.065912    0.080053    0.039602    -0.92529     0.46483     0.19154
0.15799    0.044864    0.069529   -0.024198    -0.88254     0.30796     0.17542
0.13333    0.025461    0.055717   -0.086683    -0.91872     0.15273     0.13728
0.099127   0.0090175    0.031052    -0.14884     -1.0966   -0.013345    0.094852
0.062294  -0.0047949   -0.004466    -0.21198     -1.3956    -0.19291    0.061307
0.030065   -0.019265   -0.043601    -0.27348     -1.7337    -0.36885    0.043877
0.0014536   -0.033735    -0.07879    -0.32445      -2.006    -0.50829    0.038944
-0.022883   -0.045246   -0.099509    -0.35142      -2.123      -0.579    0.042233
-0.04097   -0.052481     -0.1028    -0.35043     -2.0444    -0.57209    0.053415
-0.05544   -0.053796   -0.094576    -0.31985     -1.8024    -0.50434    0.070187
-0.066293   -0.051165   -0.077475    -0.27151     -1.4798    -0.41423    0.084328
-0.07287   -0.050179   -0.061031     -0.2179     -1.1828     -0.3386    0.086959
-0.079119   -0.052152   -0.048863    -0.17679    -0.98548    -0.31163    0.070187
-0.086025   -0.048205   -0.044259     -0.1587    -0.92266    -0.34484    0.037629
-0.09326   -0.036366   -0.047548    -0.16397    -0.98778    -0.41621   0.0001381
-0.09918   -0.020581   -0.051494    -0.18074     -1.1193    -0.49448   -0.031762
-0.099509  -0.0093991   -0.051165    -0.19389     -1.2538    -0.55663    -0.04985
-0.093918  -0.0024928   -0.043272    -0.19126     -1.3535    -0.58886   -0.054125
-0.082408  -0.0038083   -0.029789    -0.16989     -1.4002    -0.60498   -0.052152
-0.073857   -0.010715   -0.012688    -0.13503     -1.3995      -0.628   -0.053796
-0.076488    -0.01795 -0.00019077     -0.1005     -1.3653    -0.65694   -0.063004
-0.089643   -0.024527   0.0040845   -0.078132     -1.3127    -0.66253   -0.079448
-0.11102   -0.029789  -0.0041372   -0.075501     -1.2769    -0.62043    -0.10082
-0.13404   -0.037024   -0.019923   -0.089972     -1.3058    -0.52276    -0.11858
-0.15048   -0.048534   -0.036366    -0.11694     -1.4416    -0.38595    -0.12746
-0.1541   -0.059058   -0.050179    -0.14851     -1.6741    -0.23961    -0.12352
-0.14259   -0.061689   -0.058729     -0.1814     -1.9415     -0.1097    -0.10674
-0.11727    -0.04985   -0.060373    -0.21001     -2.1572   -0.004466    -0.07583
-0.085367   -0.024856   -0.051823    -0.22678     -2.2493    0.090905   -0.036037
-0.053467   0.0040845   -0.034393    -0.22678     -2.1724     0.19121   0.0057288
-0.026829    0.031052   -0.013017    -0.20606     -1.9336     0.28757     0.04026
-0.0090702    0.047824   0.0080309    -0.16956     -1.5603     0.36025    0.060979
-0.0031506     0.05473    0.021514     -0.1222     -1.0371     0.39313     0.06361
-0.004466    0.055388    0.029407    -0.07583     -0.3136     0.38097    0.050784
-0.004466    0.052099    0.033354   -0.039326      0.5921     0.32901    0.029078
0.0077021    0.044206    0.036642  -0.0093991      1.5317     0.25041  -0.0011774
0.030394    0.038287    0.042562    0.027105      2.3045     0.16589   -0.038997
0.05473    0.037629    0.056046    0.080382      2.7393     0.10307   -0.082408
0.075449     0.04618    0.076764     0.15405      2.7705    0.096825    -0.11595
0.091892    0.059334     0.10044     0.24416      2.4551     0.17477    -0.12352
0.10538    0.070516     0.12083      0.3415       1.949     0.32769   -0.097207
0.11754    0.074462       0.133      0.4372       1.431     0.50955   -0.041628
0.12313    0.071502     0.13892      0.5181      1.0305     0.65656    0.027434
0.12083    0.066569     0.13826     0.56579      0.8006     0.72398    0.086301
0.10735    0.060979     0.12609     0.56316     0.72661      0.7003     0.11623
0.083342    0.052428    0.099785       0.501     0.75653     0.59177     0.11327
0.050455     0.04026    0.064925     0.39248     0.81869     0.41681    0.088932
0.015266    0.023817    0.031709     0.25863     0.85026     0.21324    0.057032
-0.014661   0.0077021   0.0017824     0.12708     0.81869    0.036314    0.027434
-0.035708   -0.004466   -0.023211    0.019541     0.73943   -0.052152   0.0047422
-0.048863   -0.016634   -0.041299   -0.051823     0.65195   -0.024856  -0.0077547
-0.0584   -0.030447   -0.052152   -0.092274     0.57533    0.086959   -0.013674
-0.065635   -0.043272   -0.053138    -0.11135     0.49541     0.21818    -0.01795
-0.070897   -0.049521   -0.045903    -0.11233     0.38294     0.29809   -0.021567
-0.071555   -0.047877   -0.038011     -0.1005     0.22344     0.28066   -0.025185
-0.066293   -0.035708   -0.033078    -0.08175    0.021186      0.1603   -0.028144
-0.056756   -0.012688   -0.031104   -0.060373    -0.20639   -0.041628   -0.032091
-0.041957    0.013951   -0.031104   -0.035051     -0.4241    -0.27545    -0.03538
-0.021567     0.04026   -0.030118  -0.0064392    -0.57308    -0.48363   -0.032091
0.0047422    0.058676     -0.0265    0.021186    -0.62668    -0.61649    -0.02354
0.035327    0.067227   -0.014332    0.038616    -0.62011    -0.64839   -0.010386
0.061307    0.068214   0.0017824    0.039602    -0.62964    -0.59248   0.0093464
0.080382    0.067556    0.018555    0.031381    -0.68489     -0.4856    0.037958
0.096825     0.06624    0.030723    0.022501      -0.775     -0.3774     0.07512
0.11327    0.064925    0.033025     0.01132    -0.89734    -0.30571     0.10965
0.12478    0.061307    0.023159  -0.0047949     -1.0499    -0.27282     0.12281
0.12544    0.054072   0.0057288   -0.027816     -1.2019    -0.25572     0.10603
0.11689    0.042891   -0.013674   -0.056756     -1.2986    -0.21823    0.074133
0.1057    0.033025    -0.02946    -0.09622     -1.2815    -0.11201    0.049139
0.093865    0.026447    -0.04097    -0.13963     -1.1042     0.11195    0.044864
0.082026    0.019212   -0.050836    -0.17712    -0.75165      0.4816    0.063281
0.068214   0.0040845   -0.059058    -0.20343    -0.25309     0.95616    0.097154
0.048482   -0.015648    -0.06136    -0.22119     0.29941      1.3886     0.12905
0.019212   -0.032749   -0.059058    -0.23829     0.80652      1.5948     0.13958
-0.017621   -0.044588   -0.051823    -0.25704      1.2252      1.4629     0.11853
-0.056098   -0.050836   -0.036695    -0.26263      1.5241       1.017     0.07512
-0.084052   -0.051823   -0.015976    -0.23533      1.6612     0.40695    0.031381
-0.093589   -0.046561   0.0096753    -0.16528      1.5955     -0.1643   0.0077021
-0.08471   -0.035708    0.034011   -0.064649      1.3498    -0.54841    0.010662
-0.062347   -0.021896    0.055717    0.038287      1.0384    -0.70824    0.033683
-0.037682  -0.0093991    0.072489      0.1182     0.79797    -0.69213    0.062952
-0.023211  -0.0041372    0.083013     0.16523     0.66083    -0.58722    0.081697
-0.024856  -0.0074258    0.085972     0.18628      0.5431     -0.4879    0.073804
-0.040641   -0.015976     0.08367      0.1922      0.3346     -0.4708    0.039273
-0.059716    -0.02354    0.081697     0.19187   -0.062018    -0.56157   -0.013017
-0.074844   -0.026829    0.087288     0.19779    -0.70035    -0.72567    -0.07287
-0.082408   -0.026829     0.10176     0.21719     -1.4577    -0.89833    -0.13075
-0.086683   -0.024856      0.1205     0.24383      -2.055     -1.0325    -0.17219
-0.091287    -0.01795     0.13432      0.2583      -2.272     -1.1249    -0.19324
-0.1005  -0.0084125     0.12873      0.2412     -2.0908       -1.19     -0.1985
-0.11431 -0.00051963     0.10242     0.18233      -1.681     -1.2315     -0.1985
-0.12746   0.0001381    0.062294    0.083342     -1.2568      -1.244    -0.20244
-0.13305   -0.011043    0.018555    -0.03538    -0.96509      -1.216    -0.21363
-0.12779   -0.030447    -0.01795    -0.14029    -0.81907     -1.1358    -0.22185
-0.11168   -0.047877   -0.036366    -0.20442    -0.72337    -0.99633    -0.21955
-0.084052   -0.051494   -0.034722    -0.21363     -0.5175     -0.7875     -0.1962
-0.040313   -0.036695   -0.013345    -0.16594   -0.020252    -0.49382    -0.15147
0.018884  -0.0087413    0.023488   -0.066622     0.81014    -0.11628   -0.092274
0.082355    0.021843    0.069858    0.065583      1.7119     0.32933   -0.034064
0.13662    0.050784     0.11985     0.21226      2.3305     0.80784     0.01691
0.17411    0.074791     0.16326     0.35104      2.4699       1.285    0.059663
0.19253    0.087946     0.19121      0.4622       2.197      1.7303     0.10899
0.1968    0.087617     0.20173     0.53817      1.7421      2.1322     0.17444
0.1945    0.079395     0.19614     0.57697      1.3077      2.4712     0.25698
0.19285    0.074133     0.17904     0.58059     0.98575      2.6926     0.34183
0.19285    0.076435     0.15602      0.5477     0.78021      2.7143     0.40399
0.18924    0.084986      0.1284     0.47535     0.63058      2.4953     0.42503
0.17575    0.094194    0.093536     0.36847     0.46154       2.073     0.40333
0.14977     0.09255    0.055388     0.24087     0.25008      1.5596     0.34479
0.11195    0.077093    0.018226     0.11261     0.02283      1.0923     0.26553
0.070187    0.049468   -0.016305   0.0021113    -0.17909       0.747     0.18562
0.032696    0.018555   -0.045903   -0.085039    -0.33136     0.51054     0.11491
0.0021113  -0.0087413    -0.07024    -0.14719    -0.41522     0.32276    0.057032
-0.019923   -0.028802   -0.087012    -0.18765    -0.37017     0.13136   0.0080309
-0.032091   -0.037682   -0.095562    -0.20738     -0.1245   -0.061689   -0.029789
-0.038011   -0.036366    -0.09918    -0.20212     0.30566    -0.23303   -0.057743
-0.039655   -0.029131    -0.09622    -0.17844     0.79994      -0.358   -0.071555
-0.036037   -0.018936   -0.090629    -0.15048      1.1778    -0.42081    -0.07024
-0.030775   -0.013017   -0.084381    -0.13305      1.2673    -0.41818   -0.064978
-0.025514   -0.016963   -0.082408    -0.13799     0.99726    -0.37214   -0.063991
-0.025514   -0.022883   -0.090629    -0.16068     0.44148    -0.33629   -0.065635
-0.031433   -0.025185    -0.10313    -0.18238    -0.19948    -0.37082   -0.062676
-0.041628   -0.021896    -0.11332    -0.18699    -0.68588    -0.51158   -0.048534
-0.048205  -0.0097279    -0.11694    -0.16561    -0.86643    -0.73948   -0.027487
-0.044259     0.01132    -0.10905    -0.11924    -0.74573    -0.98482  -0.0051238
-0.028802    0.038616   -0.091287   -0.057085    -0.44877     -1.1739    0.015595
-0.0054526    0.060979   -0.074844    0.015595   -0.097207     -1.2696    0.036971
0.021186    0.071831   -0.065635    0.097154     0.26455     -1.2815    0.061307
0.04618     0.07512   -0.065307     0.18036     0.63913     -1.2325    0.088275
0.062294    0.070516   -0.066951     0.25961     0.95583      -1.141     0.11952
0.070187    0.063938   -0.062347     0.33821      1.0772     -1.0134     0.15076
0.076106    0.061636   -0.048863     0.40925     0.87525    -0.83025      0.1797
0.084986     0.06361   -0.028473     0.45299      0.2902    -0.55729     0.20206
0.093865    0.066569  -0.0064392     0.44575    -0.62175    -0.19685     0.20963
0.10077    0.069858   0.0093464     0.36551     -1.6902     0.20634      0.1968
0.10176      0.0692    0.018226     0.20371      -2.693     0.58486     0.16457
0.096167    0.063938    0.020199   -0.012359     -3.3931     0.86769     0.12248
0.083999    0.052757    0.015266    -0.23204     -3.5839     0.99398    0.085315
0.064596    0.036314   0.0040845    -0.40075     -3.0968     0.94925    0.060979
0.041904    0.018226   -0.010715     -0.4902     -1.9349     0.78153    0.054072
0.020857   0.0037556   -0.024198    -0.49547    -0.32445     0.58519    0.063938
0.0040845  -0.0031506   -0.036037    -0.43134      1.3472     0.44641    0.081697
-0.011372  -0.0047949   -0.045246     -0.3238      2.7087     0.42635    0.090905
-0.026171  -0.0034794   -0.050836    -0.21593      3.5924     0.53784    0.077751
-0.036366   0.0030979   -0.047219    -0.14752      3.9081     0.74732     0.04881
-0.041628    0.015266   -0.033406    -0.13404      3.6519     0.99134    0.014937
-0.042944    0.028092  -0.0087413    -0.15575      2.9363      1.1979  -0.0077547
-0.037682    0.035985    0.023488    -0.18534      1.9622      1.2959   -0.017292
-0.029789    0.042233    0.050784    -0.20475     0.92623      1.2229    -0.01795
-0.021238    0.045193    0.067227    -0.21001    0.032367     0.94892   -0.016963
-0.016963    0.044206    0.067227    -0.20442     -0.4879     0.48555   -0.021238
-0.015648      0.0373    0.055717    -0.18995    -0.51816    -0.12023   -0.031104
-0.015648    0.029407    0.040918    -0.16397    -0.11365     -0.7829   -0.042286
-0.012359    0.022501    0.028421    -0.12089     0.50922     -1.4048   -0.053467
-0.0041372     0.02283    0.026119   -0.051165      1.0959     -1.8984    -0.06432
0.012306    0.031052    0.036971    0.049797      1.4975     -2.1921   -0.063662
0.0373    0.045851    0.055388     0.17345      1.6639     -2.2362   -0.042944
0.062623     0.05769    0.074791     0.30138      1.6178     -2.0418  -0.0008485
0.078737    0.061965    0.086301     0.40859      1.4172     -1.6889    0.049468
0.079066    0.059992    0.086301     0.47075      1.1038     -1.2923     0.09255
0.064267    0.055388    0.074133     0.47075     0.69503    -0.93582     0.12478
0.036642    0.051113     0.05473     0.40793     0.22541    -0.65168     0.14583
0.0054    0.050455    0.032696     0.29974    -0.23862    -0.43824     0.15043
-0.019265    0.050126     0.01132     0.17181    -0.63819    -0.27512     0.13333
-0.03242    0.048482  -0.0054526    0.057361    -0.93582    -0.10937    0.093865
-0.031104     0.04881   -0.015648   -0.016305     -1.1203     0.11393    0.043877
-0.019923    0.053415   -0.016963   -0.048205     -1.2226     0.39708  -0.0011774
-0.0067681    0.061307   -0.013017    -0.04985     -1.2992     0.67826   -0.029131
0.0030979    0.068871  -0.0047949   -0.034064     -1.4074     0.86802   -0.044259
0.0096753    0.067885   0.0034268    -0.01499     -1.5603     0.90419   -0.054783
0.012964    0.058019   0.0050711  -0.0034794     -1.7175     0.78153   -0.062347
0.010004    0.041575  -0.0015062   -0.013345     -1.8132      0.5556   -0.065635
-0.0018351    0.024803   -0.014332   -0.052481      -1.803     0.30796   -0.063004
-0.027158   0.0073732   -0.030118     -0.1199     -1.6925      0.1113   -0.058729
-0.060373   -0.010057   -0.048205    -0.20244     -1.5232   0.0080309   -0.057085
-0.092603   -0.025842    -0.06728    -0.27973       -1.34  0.00079584   -0.057743
-0.11694   -0.035051   -0.086354    -0.33498     -1.1831    0.058019   -0.057085
-0.12845   -0.036695   -0.098851     -0.3626     -1.0677     0.12905    -0.05281
-0.12976   -0.033078    -0.10082    -0.35964    -0.98745     0.16983   -0.044917
-0.12023    -0.02946   -0.094576    -0.32708    -0.91938     0.15471   -0.040313
-0.10411   -0.029789   -0.085367    -0.27447    -0.83847    0.076435   -0.041957
-0.087669   -0.032091   -0.074515    -0.21198    -0.73521   -0.060702   -0.051823
-0.078132   -0.034393   -0.061689     -0.1495    -0.62339    -0.24191   -0.070568
-0.078132   -0.036366   -0.053796   -0.098193    -0.53394    -0.45534   -0.097207
-0.084381   -0.038997   -0.053467   -0.065635    -0.49086     -0.6793    -0.13009
-0.095891   -0.038997   -0.062018   -0.051823    -0.49185    -0.88188    -0.16923
-0.11332   -0.034393   -0.073528   -0.053467    -0.50698     -1.0411    -0.21395
-0.13667   -0.029789   -0.085039   -0.067609    -0.49185     -1.1654     -0.2623
-0.16265   -0.031433   -0.095233     -0.1005    -0.41785     -1.2818    -0.30604
-0.186   -0.039326    -0.10543    -0.15246    -0.26493     -1.3949    -0.33925
-0.1985   -0.048534    -0.11266    -0.21363    -0.03242     -1.4791    -0.35997
-0.19291   -0.053138    -0.11727    -0.27249     0.27112     -1.4903    -0.36227
-0.17219   -0.053796    -0.12089    -0.32215      0.6115     -1.3949    -0.34649
-0.14391   -0.049521    -0.12417    -0.35701     0.91307     -1.2022    -0.31985
-0.12319   -0.042286    -0.13042     -0.3751      1.0801    -0.94799    -0.28828
-0.11036   -0.038011    -0.13371    -0.37477      1.0374    -0.66976    -0.25737
-0.1005   -0.038997    -0.13141    -0.35635     0.73812    -0.39154    -0.22448
-0.086354   -0.044259    -0.12023    -0.31623      0.1843    -0.13207    -0.18271
-0.063333   -0.047548    -0.10115    -0.23994    -0.54447     0.10011    -0.12746
-0.027158   -0.045574   -0.069253    -0.11332     -1.2515      0.3175   -0.061689
0.019541   -0.031104   -0.021896    0.066569     -1.7504     0.53751     0.01132
0.067556  -0.0038083    0.039273     0.28362     -1.9987     0.75884    0.077093
0.10538    0.026119     0.10143     0.50035     -2.1046     0.94267     0.12511
0.12873     0.04618     0.15076     0.67695     -2.1421      1.0298     0.14944
0.14221    0.051441     0.18102     0.78251     -2.0379     0.97885     0.14912
0.15503    0.047495     0.19318     0.81639     -1.6504     0.79369     0.13432
0.17148     0.04618      0.1968     0.80027    -0.94371     0.52501     0.11689
0.19351    0.055059      0.2014     0.75916   -0.066622     0.24087     0.10768
0.2116    0.071173     0.21094     0.70786     0.75292   -0.012688     0.11228
0.21752    0.086301     0.21785     0.65524      1.3811    -0.21889     0.12445
0.20601    0.093865     0.21949     0.60361      1.7977    -0.36984     0.13793
0.18102    0.091563     0.21588     0.54935      1.9993    -0.43594     0.14879
0.15734    0.081697     0.20305     0.48851      1.9391    -0.36622     0.16063
0.14155    0.064925     0.18102     0.41451        1.56     -0.1347     0.17444
0.13136    0.043549     0.15273     0.32868     0.90123     0.23265     0.18792
0.11853     0.01987     0.12149     0.23232    0.087617     0.64965     0.19384
0.092879  -0.0034794    0.090577     0.12445    -0.68522      1.0229     0.18726
0.051113   -0.025842    0.060979   0.0086887     -1.1976      1.3077     0.16556
-0.0011774   -0.042286     0.03434    -0.10477     -1.3285      1.4942     0.13136
-0.050836   -0.052152   0.0057288    -0.20639     -1.1114      1.5731    0.089261
-0.085039   -0.056427   -0.025842    -0.29288    -0.73159      1.5169    0.046508
-0.098193   -0.055769   -0.059058    -0.36622    -0.42048      1.3278    0.012635
-0.097207    -0.05281     -0.0903    -0.43232    -0.31755       1.063   -0.007097
-0.091945   -0.050179    -0.11497    -0.49349    -0.35504     0.79961   -0.010386
-0.087341   -0.048863    -0.13075    -0.54545    -0.29025     0.58223   -0.002164
-0.082736   -0.045574    -0.14029    -0.57209    0.083013     0.42832   0.0073732
-0.078461   -0.039326    -0.14489    -0.56979     0.68681     0.31092   0.0030979
-0.075173    -0.03538    -0.14489    -0.54216       1.212     0.16293   -0.023869
-0.073528   -0.034064    -0.14029    -0.49415      1.3778   -0.080434   -0.064649
-0.06728    -0.03242    -0.12483    -0.41818      1.0887     -0.4024    -0.10247
-0.051165   -0.024527   -0.098193    -0.30176     0.51547    -0.71909     -0.1199
-0.022883  -0.0047949   -0.060702    -0.13371   -0.036037    -0.94404    -0.10937
0.016253    0.026447   -0.016305    0.077093    -0.31788     -1.0174   -0.073199
0.064267    0.067556    0.035656     0.30335       -0.26    -0.92069   -0.020581
0.1113     0.10735    0.087946     0.50002   0.0080309    -0.67207    0.034669
0.14451     0.13366     0.13103     0.62268     0.26455    -0.31623    0.079066
0.15964     0.14221     0.15964      0.6536     0.31519    0.086301     0.10834
0.16095      0.1353     0.17115     0.60854    0.084657     0.46549     0.12313
0.15668     0.11985     0.17016     0.52896    -0.31261      0.7687     0.13037
0.16063     0.10439     0.16589     0.46581    -0.59445     0.98082     0.13958
0.1774    0.098469     0.16819     0.45595    -0.50073      1.1209     0.15438
0.20535     0.10406     0.18003     0.51087    0.024474      1.2255     0.17411
0.23758     0.11952     0.20239     0.60657      0.8108      1.3274     0.19516
0.26586     0.13826      0.2287     0.69602      1.5593       1.434     0.21522
0.28329     0.15602     0.24942     0.73845      2.0529      1.5195     0.23462
0.29119      0.1672     0.25435     0.71542      2.2986      1.5603     0.25534
0.29151     0.16687     0.24284     0.63551      2.4262      1.5606     0.27935
0.28165     0.15306     0.21456     0.52205       2.513      1.5475     0.30598
0.25929     0.12971      0.1751     0.39609      2.5031      1.5205     0.32276
0.2241    0.098798       0.133     0.27211      2.2673      1.4301     0.31717
0.18003    0.066569     0.09551     0.15569      1.7254      1.2179     0.28329
0.13234    0.035985    0.065583    0.043549     0.95254     0.86901      0.2241
0.088603    0.010662    0.039602   -0.060045     0.17082     0.44181     0.15142
0.049139  -0.0087413    0.014937    -0.15377    -0.40864    0.056703    0.079395
0.0086887   -0.025185   -0.011043    -0.24257    -0.69838    -0.19192    0.013622
-0.031762   -0.038997   -0.040313    -0.33662    -0.72962    -0.30209   -0.042286
-0.069911   -0.047219   -0.073528    -0.43232    -0.57012    -0.37017   -0.087012
-0.11036   -0.049192    -0.10346    -0.51618    -0.30176    -0.52605    -0.12286
-0.15114   -0.047877    -0.12417    -0.56847   -0.031433    -0.83847    -0.15476
-0.18896   -0.049521    -0.13338    -0.58064     0.11754     -1.2943    -0.18567
-0.21659   -0.054125    -0.13601    -0.56913    0.026776     -1.8205    -0.21659
-0.23073   -0.060045    -0.13864    -0.55039    -0.38858     -2.3197    -0.24651
-0.23336   -0.061689     -0.1495     -0.5392     -1.0795     -2.7038    -0.27282
-0.22678   -0.059716    -0.16956    -0.53624     -1.8596     -2.9057    -0.28466
-0.21231     -0.0584    -0.18896    -0.53361     -2.5098       -2.91    -0.28104
-0.19389   -0.059387    -0.19488    -0.52079     -2.8538     -2.7577    -0.26592
-0.17285   -0.059058    -0.17942    -0.48987     -2.7985     -2.5118    -0.24816
-0.14588   -0.055769    -0.14588    -0.43824     -2.3503     -2.2283    -0.22908
-0.11497   -0.049192    -0.10543    -0.36622      -1.587     -1.9185    -0.20573
-0.080763   -0.038011   -0.064649    -0.27677     -0.5859     -1.5469    -0.16857
-0.043272   -0.022225   -0.026171    -0.17778     0.62466      -1.073    -0.11398
-0.0064392   -0.007097   0.0063866   -0.073857      2.0414    -0.46948   -0.045246
0.02579   0.0050711    0.034011    0.033354      3.6127     0.23035    0.032696
0.057032    0.012635     0.06361     0.14648      4.9594     0.94333     0.11754
0.092221    0.021843     0.10077     0.26619      4.9598      1.5761     0.20798
0.1376    0.041904     0.14681     0.38656      4.9598       2.069     0.30434
0.19746     0.07808     0.19943     0.50396      4.9594      2.4173     0.40399
0.2629     0.12971     0.25534     0.61117      4.9598      2.6722     0.49706
0.3221     0.18463     0.30533     0.69997      4.4474      2.8882     0.56974
0.36321       0.231     0.34479     0.76245      2.8468       3.077     0.61512
0.37505     0.25698     0.36847     0.79731       1.192      3.1921     0.62203
0.35499     0.25961     0.37373     0.79172    -0.28269      3.1569     0.58848
0.30829     0.24218     0.35827     0.73779      -1.363      2.9178     0.51843
0.24514      0.2093     0.32013     0.62597       -1.98      2.4739     0.43128
0.17575     0.16753     0.26192     0.45069     -2.1694      1.8859     0.34545
0.10801     0.12116     0.18463     0.22212     -2.0421       1.239     0.26849
0.04881    0.074791    0.099785   -0.022225     -1.7715      0.6092     0.19713
0.002769    0.035656    0.021843    -0.22546       -1.51    0.064267     0.12675
-0.030118   0.0090175   -0.034722    -0.34682     -1.3443     -0.3478    0.055717
