-0.018088    0.044275    0.079354    -0.11358   -0.096042     0.44184     0.11736
-0.0096434    0.034855    0.088773   -0.097666    0.098193     0.28268     0.10339
-0.0050961    0.016341    0.076755   -0.089871      0.2083   0.0056225    0.054019
-0.010618   -0.007045    0.043625   -0.081426     0.23331    -0.34614   -0.024909
-0.029132   -0.027833   0.0010752    -0.06681     0.19823    -0.70018    -0.10741
-0.053168   -0.045047   -0.045697   -0.044723     0.13457    -0.97724    -0.15938
-0.070058   -0.057065   -0.098965   -0.020362    0.063763     -1.1166    -0.16555
-0.07428   -0.068758    -0.15938  -0.0054209  -0.0041217        -1.1    -0.13827
-0.064536   -0.081426    -0.22304  -0.0060706   -0.067134    -0.95029    -0.10546
-0.04862    -0.10026    -0.28508   -0.022311    -0.11813    -0.71805   -0.085973
-0.032055    -0.12073    -0.33867   -0.043423    -0.14606    -0.46405   -0.089546
-0.024585    -0.14054      -0.377   -0.062912    -0.15288    -0.22142    -0.11683
-0.029457    -0.15581    -0.39649   -0.078827    -0.16035   0.0091954    -0.14801
-0.039851    -0.16165    -0.39811   -0.089221    -0.19186     0.24695    -0.15776
-0.044073    -0.15451    -0.37927   -0.090521    -0.26689     0.49088    -0.13307
-0.042774    -0.13404     -0.3416   -0.080451    -0.38804     0.70753   -0.085973
-0.039201    -0.10254    -0.28865   -0.062912    -0.53193      0.8498   -0.044073
-0.035628   -0.067784    -0.22402   -0.043748    -0.64789     0.89819   -0.022636
-0.030106   -0.030106    -0.14964   -0.026858     -0.6807     0.86376   -0.022961
-0.020037    0.013093   -0.067459   -0.019388    -0.59819     0.78516   -0.033354
-0.0057458    0.061489    0.016991   -0.022636    -0.41793     0.70006   -0.046347
0.0095202     0.11151     0.09462   -0.038227    -0.18504     0.62373   -0.060313
0.01894     0.15731     0.15698   -0.063561    0.040377     0.54253    -0.07428
0.020564     0.19434     0.19628   -0.096692     0.20311     0.44054   -0.084674
0.01764     0.21837     0.21805    -0.13599     0.27326     0.30704   -0.082725
0.01764     0.23136     0.23526    -0.17984     0.25865     0.14399   -0.068758
0.02706     0.23364     0.26742    -0.22661     0.18687   -0.038227   -0.049595
0.04395     0.22779     0.32491    -0.27631    0.089423    -0.22239    -0.03173
0.059865     0.21577     0.40903    -0.32536   -0.023285     -0.3835   -0.016464
0.06896     0.20505     0.51297    -0.36238    -0.15516    -0.49556  -0.0034721
0.06831     0.20311     0.62276     -0.3796    -0.30619    -0.53811   0.0062721
0.056292     0.21123     0.72247    -0.37733    -0.46665     -0.5118   0.0026992
0.039402     0.22682     0.79458    -0.36206    -0.60956    -0.44229   -0.018738
0.028034      0.2463     0.82771    -0.32925    -0.70278    -0.36856   -0.054142
0.029333     0.26612     0.81699    -0.26819    -0.71448    -0.32666   -0.093119
0.042975     0.28073     0.76697    -0.17432    -0.63262    -0.33218    -0.12398
0.064413     0.28756     0.68739   -0.052843    -0.45788    -0.38577    -0.13599
0.0865     0.28561      0.5893     0.07708    -0.20031    -0.47282     -0.1243
0.10501     0.27911     0.47464     0.19239     0.10924    -0.56084   -0.092794
0.11898     0.26709     0.33887     0.27554     0.43437    -0.62158    -0.04927
0.12515     0.24371     0.17777     0.32816     0.74651    -0.64367   -0.011592
0.12255     0.20603   0.0043233     0.36161      1.0044    -0.64302 -0.00054884
0.10047     0.15211    -0.16263       0.385      1.1587    -0.64562   -0.025884
0.056292    0.089098    -0.30002     0.41066      1.1681    -0.66673   -0.080776
0.00010078    0.024137    -0.39389     0.44834      1.0353    -0.69726    -0.14509
-0.052843   -0.033354    -0.44131      0.5029     0.79913    -0.71123    -0.19803
-0.09117   -0.073631    -0.44976     0.57436     0.52304    -0.68037    -0.22402
-0.10838   -0.092469    -0.43352     0.65589     0.26482    -0.58715    -0.21525
-0.10644   -0.094418    -0.40883     0.73644    0.058566    -0.44196     -0.1753
-0.092469   -0.090845    -0.38285     0.79945   -0.087272    -0.27696      -0.123
-0.075904   -0.089871    -0.35784     0.83291    -0.17854    -0.13502   -0.078503
-0.062587   -0.097017     -0.3338     0.83973    -0.22239   -0.047971   -0.057065
-0.052518    -0.11488    -0.30717     0.82186    -0.23116    -0.02426   -0.056416
-0.047971    -0.13859    -0.27241     0.78581    -0.21785   -0.056091   -0.060313
-0.046996    -0.16003    -0.23181     0.72864    -0.19803    -0.12138   -0.051868
-0.048296    -0.17172    -0.18959     0.64484    -0.17952    -0.18471   -0.022636
-0.050894    -0.17172    -0.15288     0.54058    -0.16133    -0.21362    0.025436
-0.053492     -0.1662    -0.12398     0.43437    -0.13632    -0.19283    0.076431
-0.055766    -0.16198    -0.10254     0.33693   -0.085324    -0.13307     0.11768
-0.059339     -0.1623   -0.078178     0.24858     0.01017   -0.052843     0.14042
-0.061288    -0.16425    -0.04927     0.16738     0.14496    0.027385     0.14464
-0.05739    -0.16295   -0.020037    0.094295     0.29568     0.10436     0.13749
-0.046022    -0.15483   0.0078962    0.031282     0.42462     0.18589     0.12937
-0.030756    -0.13762    0.032906   -0.013541     0.50485     0.28203     0.13165
-0.014191    -0.11163    0.056292   -0.024909     0.52856     0.39344     0.14367
0.0033489   -0.071682    0.083251    0.012443     0.49998     0.50518     0.16218
0.019589   -0.017764     0.11866     0.10761     0.43307     0.59742     0.17582
0.030633    0.040702     0.16153     0.25053      0.3444     0.65199     0.17192
0.03518      0.0865     0.19856     0.39961     0.24403     0.66141     0.14464
0.03583     0.10826     0.21252     0.50745     0.14302     0.63542     0.10079
0.030633     0.11054     0.19109     0.53766    0.049147     0.59515    0.054993
0.01829     0.10112     0.14237     0.49446   -0.028482      0.5565    0.022837
-0.0018481    0.089423    0.079679     0.40351   -0.081426     0.52109   0.0075714
-0.026533    0.081952    0.015692     0.28658    -0.10091     0.47822   0.0039985
-0.044723    0.076755   -0.038876     0.15958   -0.085648     0.41066   0.0088706
-0.04992    0.069285   -0.079802    0.031932   -0.039201     0.31094    0.021863
-0.0405    0.054344    -0.10709   -0.087597    0.024461     0.18589    0.038428
-0.024585    0.028684    -0.12235    -0.19283    0.083901    0.049796    0.051745
-0.010618  -0.0015233    -0.13015    -0.27631     0.11573   -0.088896    0.055643
-0.0021729   -0.025559    -0.13015    -0.33153     0.11151    -0.21979    0.047847
0.0010752   -0.039201     -0.1295    -0.36563    0.089423    -0.32601    0.033881
-0.00022403   -0.045372     -0.1334    -0.39649    0.070909    -0.39649    0.017965
-0.0067202   -0.055441    -0.14736    -0.43124    0.057592    -0.43189    0.003024
-0.019388   -0.078503     -0.1714    -0.46405    0.027385    -0.44001  -0.0096434
-0.039851    -0.11651    -0.19966    -0.47996   -0.039526    -0.43579   -0.024585
-0.059664    -0.16263    -0.22921    -0.47119    -0.14574    -0.43417   -0.039526
-0.073955    -0.20518     -0.2526    -0.44131    -0.26657    -0.44521    -0.04927
-0.078178    -0.22986    -0.26462    -0.39974    -0.36758    -0.46015   -0.046671
-0.069083    -0.22532    -0.25585    -0.35167    -0.41435    -0.45755   -0.030106
-0.046671    -0.19381    -0.22142    -0.29353     -0.3848    -0.41988  -0.0011985
-0.015165    -0.14346    -0.16068    -0.22142    -0.27761    -0.34095    0.039078
0.017965   -0.088247     -0.0824    -0.12885    -0.11261    -0.23376    0.081627
0.046548   -0.042774    0.003024   -0.020687    0.071558    -0.12333     0.11736
0.068635   -0.013216    0.082927    0.092346     0.23234   -0.034978     0.13749
0.082927   0.0020496     0.14496     0.18914     0.34472    0.021863     0.14204
0.090397    0.009845     0.18297     0.24338     0.40351    0.045899     0.14107
0.097218    0.015692     0.19791     0.24013     0.41975     0.05207     0.14172
0.10404    0.021863     0.19596     0.17615     0.40643    0.061165     0.14496
0.10534    0.025436     0.17777    0.059865     0.36259    0.087474     0.15471
0.096893    0.021538     0.13912   -0.085324     0.28398     0.13002     0.16575
0.077405    0.009845    0.082277    -0.22239     0.17972     0.18037     0.16933
0.050121  -0.0054209    0.019264    -0.32243    0.073507     0.22584     0.16023
0.024137   -0.020362   -0.036602    -0.36823   -0.010293     0.24988      0.1362
0.0075714   -0.031081   -0.077528    -0.35361   -0.054467     0.23916    0.099492
0.0014   -0.031406   -0.097991    -0.29125   -0.053168     0.18979    0.054344
0.0046481   -0.017114   -0.098316    -0.20031   -0.016789     0.10761   0.0078962
0.015692    0.012443   -0.081101   -0.098965    0.028684    0.012119   -0.029457
0.033231    0.047847   -0.053168  -0.0037969    0.059216   -0.069083   -0.050569
0.055968    0.079679   -0.019063    0.079029     0.06084    -0.10481    -0.04862
0.081952     0.10371    0.017316     0.15828    0.035505   -0.075255   -0.026533
0.10989      0.1206    0.051745     0.24663  -0.0015233    0.010495    0.011469
0.13587     0.13132    0.080653     0.34635   -0.031081     0.11866     0.05207
0.15568     0.13814    0.098193     0.44574   -0.038876     0.20538    0.077405
0.16478     0.13977    0.096893     0.50972   -0.027833     0.23916     0.07708
0.15893     0.12872    0.078055     0.51102  -0.0060706     0.21675     0.05142
0.13717     0.10826    0.044924     0.44898    0.020239      0.1625    0.010495
0.11021    0.083901   0.0088706     0.34829    0.044599     0.10826   -0.034004
0.080978    0.063763   -0.015165     0.23916    0.061814    0.077405   -0.072006
0.053044     0.05142   -0.022311     0.13944    0.062464    0.072533   -0.092794
0.029658    0.043625  -0.0089938    0.066362    0.042975    0.086175   -0.089546
0.011794    0.037778    0.020564    0.025111    0.009845     0.11346   -0.060963
-0.00054884    0.035505    0.058566    0.010495   -0.020687     0.15568   -0.013216
-0.0073698    0.042326     0.09462   0.0065969   -0.039201      0.2109    0.044275
-0.0067202    0.059541     0.12353  -0.0018481   -0.044723     0.26742    0.099492
0.00010078     0.08585     0.14204   -0.027833   -0.059014     0.30282     0.13977
0.011144     0.11476     0.14496   -0.078827    -0.11001     0.30282     0.16088
0.022837     0.13652     0.13847     -0.1636    -0.20518     0.26255      0.1742
0.036154     0.14399     0.12775    -0.29417    -0.32633     0.17192     0.19141
0.048822     0.13912     0.11638    -0.46502    -0.44131    0.017316     0.20928
0.059216      0.1258     0.10404     -0.6375    -0.51407    -0.18277     0.21935
0.064413     0.10989    0.093645    -0.75345    -0.52057    -0.37635     0.21252
0.063113     0.09397    0.083251    -0.77489    -0.46405    -0.50627     0.18816
0.056942    0.078379     0.06831    -0.70538    -0.36141     -0.5394     0.15081
0.042651    0.057917    0.044924    -0.57351    -0.23538    -0.47542     0.10566
0.024461    0.032582    0.011794    -0.41923    -0.10774    -0.33283    0.062789
0.0049729   0.0043233   -0.027833    -0.27111   0.0033489    -0.14769    0.024461
-0.018088   -0.023935   -0.070707    -0.15061    0.078704     0.03518   -0.017114
-0.04992   -0.054792    -0.11391   -0.090196    0.091047     0.17257   -0.076554
-0.091495   -0.093444     -0.1623    -0.11326    0.029333     0.23721    -0.16328
-0.13957    -0.14346    -0.21817    -0.21362   -0.086298     0.22974    -0.27534
-0.18569    -0.19543    -0.27111    -0.35426    -0.20648     0.17874    -0.39162
-0.21817    -0.23441    -0.30684    -0.48191    -0.28021     0.13717    -0.48614
-0.22824    -0.24935    -0.31204    -0.55175    -0.27988     0.14594    -0.53973
-0.21882    -0.23311    -0.27696    -0.54103    -0.20875     0.21642    -0.53973
-0.19316    -0.19316     -0.2055    -0.45171   -0.091495     0.31906    -0.49036
-0.161    -0.14087    -0.11098    -0.30554    0.038428     0.41391    -0.40396
-0.12722   -0.085324   -0.011917     -0.1334     0.14464     0.47464    -0.30457
-0.094093   -0.033354    0.070584    0.030957     0.21545     0.49478    -0.21167
-0.065835   0.0062721     0.11898     0.15731     0.26027     0.48114    -0.14087
-0.046671    0.023487     0.12743     0.23689      0.2908     0.44411    -0.10156
-0.041799    0.013743    0.095594     0.27554     0.30867     0.39312   -0.095393
-0.052843   -0.019388    0.032582      0.2908     0.32231     0.33335    -0.11586
-0.073955   -0.062912   -0.045697     0.30282      0.3353     0.26352    -0.14639
-0.093769   -0.097017    -0.11326     0.32036     0.34472     0.18297    -0.16653
-0.09929   -0.097991    -0.14671     0.34797     0.34635     0.10436    -0.16165
-0.081101   -0.059664    -0.13762     0.38305     0.33303    0.044599    -0.12917
-0.040825   0.0039985   -0.096042     0.40351     0.28723     0.01894   -0.075255
0.011144    0.072533   -0.042774     0.38695     0.20895    0.031607  -0.0083442
0.060515       0.131  0.00042559     0.34017     0.12645    0.073507    0.063438
0.098517     0.16998    0.024461     0.29373    0.053044     0.12385       0.131
0.12223     0.18784    0.032582     0.27034   -0.022311     0.16413     0.17972
0.13035     0.18849    0.034855     0.27456    -0.10481     0.18492     0.19856
0.1245     0.18297    0.040377     0.29535    -0.17984     0.18654     0.18264
0.11021      0.1781    0.059541     0.31874    -0.22044     0.18264     0.13814
0.099492     0.17712    0.095269      0.3327    -0.21102     0.19823    0.086824
0.099167     0.17745     0.14399     0.33075    -0.16003     0.25572    0.056617
0.10696     0.17355     0.20246     0.31192   -0.095393     0.35089    0.064413
0.11736      0.1625     0.26742     0.27391   -0.045697     0.46035     0.10664
0.1206     0.15244     0.32848     0.22357   -0.020037     0.54708     0.16348
0.11508     0.14626     0.37753     0.17452   -0.014516     0.58865     0.20603
0.10112     0.14074     0.40449     0.13782  -0.0076946     0.57209     0.21058
0.078704     0.13652     0.41196     0.11573    0.029009     0.49803     0.16673
0.049147     0.13717     0.41098     0.11151     0.11768     0.38207      0.0865
0.018615     0.13749     0.40838     0.11638     0.22844     0.24728   0.0033489
-0.0047713      0.1323     0.39539     0.10274     0.27846     0.11768   -0.051219
-0.02426     0.12158     0.35479      0.0433     0.20733  -0.0063954   -0.065835
-0.041475     0.10274     0.27879   -0.068109    0.021538    -0.14834    -0.04862
-0.056091    0.080978      0.1742     -0.2107    -0.21914    -0.33153    -0.01549
-0.061288    0.065387    0.070259    -0.34614    -0.45041    -0.55922    0.026085
-0.051544    0.069934  -0.0044465    -0.44424    -0.62515    -0.79178    0.070259
-0.017764    0.096569   -0.030756    -0.49458    -0.72779    -0.96783     0.11411
0.033231     0.13782   -0.012567     -0.5066    -0.76255     -1.0458     0.14919
0.080328     0.17192    0.026085    -0.50043    -0.74111     -1.0182      0.1625
0.10209      0.1781    0.054668    -0.49945    -0.68459    -0.91813     0.14367
0.094295     0.14496    0.050446     -0.5105    -0.61443     -0.7973     0.09397
0.062139    0.081952   0.0069217    -0.52901    -0.54103    -0.68687    0.031932
0.020888    0.009845   -0.065186     -0.5459    -0.46535     -0.5839   -0.026209
-0.017114   -0.058365    -0.14834     -0.5511    -0.38122    -0.46632   -0.071682
-0.048296    -0.11163    -0.22921    -0.53388    -0.26916     -0.3325    -0.10026
-0.068758    -0.14411    -0.29515    -0.48646    -0.10384    -0.19576    -0.11228
-0.075255    -0.15548    -0.34225    -0.41013     0.11768   -0.072006    -0.11033
-0.064536    -0.14769    -0.36953    -0.31756     0.36194    0.033556   -0.096042
-0.038876    -0.12787    -0.38285    -0.21297     0.57176     0.11833   -0.069733
-0.0067202    -0.10774    -0.38382    -0.10416     0.69616     0.18589   -0.036927
0.019264   -0.091495     -0.3731  -0.0067202     0.71793     0.23851  -0.0047713
0.031932   -0.077528    -0.34972    0.076106     0.66336     0.28333    0.017316
0.034206   -0.060638    -0.30944     0.15016     0.58313       0.334    0.029658
0.036479   -0.034978    -0.24513     0.22227     0.51947     0.40351    0.042001
0.046223  -0.0021729    -0.16068     0.28593     0.48439     0.48991    0.066037
0.056617    0.026735   -0.069083     0.33433     0.44769     0.56884     0.10664
0.059865    0.037129   0.0065969     0.36389     0.37201     0.61269     0.16023
0.051096    0.024461    0.051096     0.37298      0.2463     0.60976      0.2122
0.034206  -0.0063954    0.061814     0.36551    0.082602     0.56559     0.24955
0.015692   -0.046671    0.045574     0.34277   -0.090845     0.49446     0.27002
-0.00087364   -0.082725    0.016341     0.31029    -0.24123     0.40773     0.27716
-0.014191    -0.10741   -0.018738     0.27229     -0.3338     0.31744     0.27651
-0.022961    -0.11715   -0.052843     0.23104    -0.35491     0.23721     0.27521
-0.026533    -0.11358    -0.07493     0.18784    -0.30912     0.17972     0.27456
-0.020687   -0.098965    -0.07493     0.14691    -0.21687     0.14854     0.27034
-0.0024977   -0.076229   -0.051544     0.11736    -0.10871      0.1284     0.25507
0.018615   -0.051219   -0.014191     0.10859  -0.0054209     0.09397     0.21772
0.029658    -0.03303    0.029658     0.12483    0.096569    0.019914     0.14951
0.021213   -0.024585    0.069934     0.16315      0.2083    -0.10124     0.05272
-0.0060706   -0.024585    0.096244     0.22259     0.32263    -0.25162   -0.052193
-0.039201   -0.028807     0.10534     0.29633     0.41585    -0.40656    -0.13989
-0.062587   -0.027508     0.10696     0.37915       0.461    -0.54817    -0.19251
-0.064861   -0.017114     0.11638     0.46133     0.44281    -0.66998    -0.20843
-0.046347 -0.00022403     0.14399     0.52694     0.37103    -0.77067    -0.19348
-0.01614    0.016666     0.18329     0.56429     0.26547    -0.85739    -0.16198
0.014717    0.032906     0.22389     0.56721     0.14724    -0.95711    -0.13534
0.037129    0.046223     0.25475      0.5435    0.028684     -1.0981    -0.12203
0.052395     0.05207     0.26547     0.51005   -0.078178     -1.2728    -0.12008
0.063438    0.050771      0.2541     0.48471    -0.17497     -1.4346    -0.11358
0.070259      0.0433     0.22422     0.47464    -0.26559       -1.52   -0.089546
0.073832    0.032582     0.18427     0.47789    -0.35102     -1.4921   -0.044723
0.078055    0.023487     0.14042     0.48017     -0.4189      -1.341    0.014068
0.08585    0.019264    0.095919     0.46328    -0.45788       -1.09    0.072858
0.092671    0.016991    0.055643     0.41163    -0.46535    -0.78398     0.11216
0.087799     0.01894    0.021863     0.31874    -0.45398    -0.46957     0.12125
0.070259    0.019264  -0.0057458     0.19856    -0.43969    -0.18082     0.10112
0.044924    0.016341   -0.024909    0.071234    -0.43482    0.065062    0.070584
0.021538   0.0069217   -0.030431   -0.044723    -0.43579     0.26742    0.046873
0.0039985  -0.0080194   -0.021337    -0.13924    -0.43157     0.43404    0.036804
-0.0067202   -0.026858  -0.0044465     -0.2029    -0.41598     0.57696    0.033881
-0.01484   -0.048945    0.009845    -0.23701    -0.39064     0.69162    0.028684
-0.02426   -0.073955   0.0091954    -0.24513    -0.36011     0.76697    0.016016
-0.03238    -0.10156    -0.01549    -0.23668    -0.32828     0.79685   0.0023744
-0.034329    -0.13567    -0.06681    -0.21947    -0.28378     0.78256  -0.0047713
-0.029457     -0.1701    -0.13469    -0.19998     -0.2042     0.72637   0.0033489
-0.019063    -0.19576    -0.19868    -0.18342   -0.078827      0.6403    0.027709
-0.0054209    -0.20485     -0.2461    -0.17107    0.078704      0.5435    0.063438
0.0069217    -0.19738    -0.26981    -0.16165     0.22779     0.45028    0.095919
0.015367    -0.18179    -0.26657    -0.15548     0.31971     0.35934     0.11054
0.014068     -0.1636    -0.24091    -0.14834     0.32166     0.26774    0.099492
-0.0021729    -0.14184    -0.20648    -0.13567     0.23266     0.18134    0.065062
-0.027833    -0.11228    -0.17465     -0.1217    0.088448     0.10469    0.017965
-0.053168   -0.077203    -0.15353    -0.12787   -0.064211    0.037129    -0.03238
-0.073955   -0.047321    -0.14346    -0.16523    -0.19024   -0.019063   -0.081426
-0.090845   -0.029132    -0.13469    -0.22207    -0.26364   -0.055441    -0.12852
-0.10189   -0.022311    -0.11553    -0.26397    -0.27404   -0.059989    -0.17075
-0.10351   -0.018738   -0.084999    -0.27339    -0.24545   -0.023285    -0.20615
-0.097017   -0.010618   -0.047646    -0.25942    -0.21102    0.049796    -0.23701
-0.088247   0.0072465  -0.0096434    -0.24253    -0.19024     0.14529    -0.25975
-0.078503     0.03583    0.026735    -0.22142    -0.17659     0.24078    -0.26787
-0.067784    0.072533    0.065387     -0.1727    -0.14184     0.32198    -0.25292
-0.052518     0.11086     0.11054   -0.078503   -0.063237     0.38305     -0.2107
-0.029457     0.14139     0.15179    0.038428    0.054668     0.41878    -0.14931
-0.00087364     0.16023     0.17972     0.13879     0.17355     0.42917   -0.081101
0.025111     0.16933     0.18979     0.19174     0.25248     0.41488   -0.026858
0.039727      0.1703     0.18199     0.18069     0.27294      0.3811   0.0056225
0.0433      0.1638     0.15861     0.10989     0.27586     0.33205    0.019914
0.045899     0.15536     0.12613   0.0017248      0.3353     0.27359    0.023162
0.05272     0.14951     0.09462    -0.10936     0.49868     0.20993    0.020564
0.061814     0.14367    0.068635    -0.19413     0.74716     0.13944    0.015367
0.066037     0.13425    0.044924    -0.23798      1.0112    0.063438   0.0078962
0.062789     0.11833    0.020564    -0.24643      1.2094   -0.010943  -0.0021729
0.053044     0.10177  -0.0011985    -0.23441       1.288   -0.070382   -0.010618
0.0433    0.092996   -0.016464    -0.21655      1.2373    -0.10449   -0.011917
0.041676    0.091047   -0.032705     -0.2016      1.0775    -0.11098  -0.0018481
0.044275     0.09397   -0.051219    -0.18894     0.84525   -0.098641    0.017316
0.048497    0.097868   -0.069083    -0.17692      0.5932   -0.079802    0.038753
0.046223    0.099167   -0.079152    -0.17205      0.3746    -0.06616    0.052395
0.033231     0.09397   -0.079477    -0.17302      0.2148   -0.069083    0.048822
0.010495    0.079354   -0.071357    -0.17594     0.10177    -0.09182    0.028359
-0.01549    0.055643   -0.056416    -0.17107   0.0072465    -0.13177   0.0010752
-0.0405    0.029658   -0.036927    -0.14866    -0.08305    -0.17822   -0.018413
-0.059664   0.0072465   -0.014191    -0.10806    -0.16263    -0.22337   -0.029132
-0.066485   -0.008669   0.0091954   -0.050894    -0.21947    -0.26462   -0.027508
-0.062587   -0.017439    0.032582     0.01829    -0.25065    -0.30457    -0.01549
-0.050894   -0.016464     0.05207     0.08585    -0.26494    -0.34777   0.0052977
-0.03303  -0.0044465    0.059865     0.13912    -0.27501    -0.39227    0.027709
-0.012242    0.015367    0.056292     0.17907    -0.29742    -0.43059    0.049796
0.008221    0.036479    0.040377     0.20798     -0.3429    -0.45073    0.067986
0.024786    0.053369    0.015367     0.22552     -0.4124    -0.43904      0.0852
0.034855    0.063763    -0.01614     0.23169    -0.49556    -0.39746     0.10144
0.041351    0.064088   -0.048296     0.24501    -0.56994    -0.33543     0.11313
0.046223    0.058891   -0.072331     0.28626    -0.61508    -0.26722     0.11703
0.048822    0.050121   -0.076229     0.35966    -0.62093    -0.20972     0.11443
0.046873    0.038428   -0.054792     0.44574    -0.59007    -0.16912     0.10696
0.042001    0.028684   -0.017764     0.51719    -0.52316    -0.13697    0.099817
0.032906    0.024137    0.020888     0.55357    -0.42345    -0.09182    0.096244
0.025111    0.022512    0.049472     0.54513    -0.28768   -0.014516    0.097868
0.019589    0.026735    0.062789     0.49413    -0.10709     0.10469     0.10534
0.020888    0.037778    0.064088     0.41163     0.10859     0.25345     0.11931
0.027385    0.045249    0.057267     0.31419     0.32296     0.39377     0.13522
0.033881    0.039727    0.042326     0.21382     0.47594     0.49121     0.14854
0.034855    0.022837    0.018615     0.12255     0.52726     0.52402     0.15536
0.028359    0.003024   -0.012242    0.049147      0.4727     0.49965     0.15503
0.015042   -0.013866   -0.040175 -0.00022403     0.33985     0.43924     0.15081
0.00010078   -0.025884   -0.056741   -0.028157     0.17517     0.35576     0.14334
-0.01614   -0.034654   -0.056416   -0.037577    0.024461     0.23559     0.12775
-0.032705   -0.044723   -0.044398   -0.030756    -0.09117    0.047523     0.10014
-0.050894   -0.059014   -0.025234  -0.0041217    -0.17594    -0.21655    0.058241
-0.064861    -0.07493   0.0020496    0.041351    -0.25227    -0.51667   0.0075714
-0.071032   -0.088572    0.032257    0.095594    -0.34095    -0.77749   -0.038551
-0.071032   -0.098316    0.063438     0.13879    -0.43904    -0.93047   -0.071682
-0.06616    -0.10124    0.087474     0.14594    -0.52414    -0.94736   -0.095717
-0.061937   -0.099615     0.10469     0.10469    -0.57221    -0.84732    -0.11261
-0.065186   -0.094093     0.11866    0.024137    -0.56734    -0.67712    -0.12982
-0.076554     -0.0837      0.1349   -0.073306    -0.51894    -0.47932    -0.14671
-0.089871   -0.066485     0.15406    -0.17302    -0.45625    -0.28898    -0.15613
-0.095393   -0.041799     0.17192    -0.27079    -0.40753    -0.13794    -0.15776
-0.085324   -0.012242     0.18167    -0.35459     -0.3809   -0.045047    -0.15678
-0.058689    0.021538     0.17745    -0.40201    -0.37083  -0.0080194    -0.15418
-0.019712    0.058566     0.16413    -0.39357    -0.36109  -0.0028225    -0.14216
0.025436    0.096893     0.14756    -0.32373     -0.3299   0.0010752    -0.11521
0.077405     0.13587     0.13197    -0.20225    -0.25033    0.023487   -0.075579
0.13295     0.16738     0.11931   -0.048296   -0.098641    0.067986   -0.035303
0.18232     0.18784     0.10664     0.10566     0.11248      0.1284  -0.0034721
0.2174     0.19596    0.096244     0.22097     0.32881     0.18946    0.020888
0.23494     0.19791    0.092346     0.26742     0.48504     0.23169    0.041676
0.24143     0.19628    0.095594     0.23461     0.54318     0.23071    0.062789
0.24371     0.18946     0.10047     0.14269     0.49706     0.18687    0.079354
0.24013     0.17647     0.10274     0.02706      0.3798     0.12678    0.074157
0.22909     0.15763     0.10047   -0.067459     0.24825    0.083576    0.042001
0.207     0.13392    0.090722    -0.11553     0.15049    0.076755   -0.016464
0.169    0.099817    0.070259    -0.12235     0.10047    0.099492    -0.09182
0.11573    0.055318    0.037454    -0.10449    0.076755     0.12678    -0.17757
0.056292   0.0069217  0.00010078   -0.080127    0.052395     0.15211    -0.25715
0.003024   -0.034654   -0.030106   -0.059014    0.020564     0.19758    -0.30782
-0.034654   -0.060313   -0.046347   -0.046022  -0.0024977     0.29438    -0.31821
-0.053817   -0.067134   -0.050569   -0.043423   0.0010752     0.45093    -0.28735
-0.055116   -0.055116   -0.053168   -0.053168    0.025761     0.64289    -0.23051
-0.044723    -0.03238   -0.069408   -0.079802    0.053694     0.82154     -0.1688
-0.028807  -0.0057458    -0.10124    -0.12657    0.070909     0.94237     -0.1243
-0.013866     0.01829    -0.14346    -0.18504    0.079029      0.9703    -0.10871
-0.0024977    0.031932    -0.18569    -0.23961    0.083901     0.90534    -0.11943
0.0039985    0.028034    -0.21979    -0.27696    0.090072     0.78289    -0.13729
0.0039985   0.0049729    -0.24415    -0.28605    0.089098     0.64972    -0.14249
-0.0015233    -0.03173    -0.25715    -0.26559    0.061165     0.53441      -0.123
-0.013216    -0.07493    -0.25292    -0.22434  -0.0031473     0.45191   -0.075904
-0.028157    -0.11326    -0.23214    -0.18114   -0.089221     0.40124  -0.0057458
-0.047971    -0.14087    -0.19219    -0.15418      -0.174     0.36518    0.074482
-0.072656    -0.15321    -0.13567    -0.15743    -0.23311     0.32004     0.14854
-0.094093    -0.15581   -0.071032    -0.19868     -0.2487     0.23526     0.20246
-0.10741     -0.1623   -0.010943    -0.27534     -0.2159      0.0865     0.22552
-0.11066    -0.17367    0.034206    -0.37148    -0.14899     -0.1295     0.20798
-0.11131    -0.18407    0.058891      -0.466   -0.080776    -0.39616     0.14334
-0.11586    -0.18601    0.062139    -0.53843   -0.044723    -0.68589    0.041027
-0.12203     -0.1753    0.042975    -0.57448   -0.043748    -0.95841   -0.067459
-0.11975    -0.15288   0.0056225    -0.56864   -0.063237     -1.1682    -0.13957
-0.10026    -0.11943   -0.042774    -0.52349   -0.079477     -1.2816    -0.14931
-0.063561   -0.082076   -0.096692    -0.44911   -0.076879     -1.2832    -0.10384
-0.020037   -0.045697    -0.14476    -0.35881   -0.048945     -1.1777   -0.025884
0.020888   -0.010943    -0.17887    -0.26429  -0.0031473    -0.99478    0.049147
0.055643    0.020564    -0.19511    -0.17205     0.04395    -0.77879    0.096569
0.075456     0.05272    -0.19673   -0.084024    0.069285    -0.55694     0.10989
0.07708    0.083576    -0.18244  -0.0021729    0.067986    -0.33607    0.097543
0.065712     0.10631    -0.14834    0.071234    0.048822    -0.10676    0.071883
0.047198     0.11476   -0.093769     0.13392    0.027385     0.13879    0.042001
0.026735     0.10404   -0.022961     0.18557    0.016016     0.39474    0.017316
0.0033489     0.07773    0.047847     0.22129    0.012768     0.64289  0.00075039
-0.023285    0.039727    0.099817     0.23494   0.0065969     0.85889   -0.008669
-0.051219 -0.00022403     0.11931     0.22487  -0.0047713      1.0294   -0.010293
-0.072331    -0.03303     0.10079     0.19401    -0.01614      1.1522  -0.0054209
-0.0824   -0.051868    0.050446     0.15341   -0.015165      1.2318   0.0020496
-0.087597   -0.060963   -0.015815     0.11638   0.0046481      1.2711   0.0039985
-0.089871   -0.072331   -0.078827    0.093321     0.04395      1.2831  -0.0054209
-0.091495   -0.085648     -0.1204    0.099817     0.09462      1.2876   -0.023285
-0.087922   -0.097991    -0.13437     0.15179     0.15146      1.2899    -0.03173
-0.081426    -0.10611    -0.12917     0.25183     0.21252      1.2818   -0.017764
-0.072656    -0.11066    -0.12333     0.37753     0.27326      1.2366    0.013418
-0.068109    -0.11261    -0.12722     0.48114     0.32134      1.1204      0.0433
-0.070707    -0.11456    -0.14281     0.51427     0.34342     0.91898    0.058241
-0.077203    -0.11553    -0.16718      0.4584     0.33303     0.66011     0.06084
-0.080776    -0.11456    -0.19348     0.33205     0.29957     0.39539    0.070909
-0.071682    -0.10611      -0.212     0.18362     0.26644     0.17257     0.10144
-0.044398   -0.081751     -0.2107    0.066362     0.24858   0.0056225     0.15244
0.003024   -0.042124    -0.18569   0.0088706     0.26027     -0.1217     0.21447
0.064088   0.0085458    -0.14054  0.00010078     0.28885    -0.23636     0.27164
0.12255    0.056942   -0.084999    0.016016     0.29503    -0.36303     0.30834
0.16413    0.096893   -0.030756    0.037778     0.24501    -0.50887     0.31744
0.18459     0.13197    0.016341    0.071234     0.13879    -0.65731     0.30769
0.18914     0.16543    0.063763     0.13717   0.0085458    -0.77944     0.29015
0.18394     0.19434     0.11801     0.25897   -0.098641    -0.85512     0.27099
0.17062     0.22065     0.18264     0.43209    -0.14606     -0.8759     0.24501
0.15049     0.23948      0.2528     0.61788     -0.1269    -0.84732      0.2122
0.13067     0.25313     0.31451     0.76437   -0.069083    -0.78853     0.17842
0.11638     0.26222     0.35674     0.82771   -0.022961    -0.72227     0.15114
0.10599     0.26547      0.3746     0.79036    -0.03238    -0.66283     0.13327
0.10177     0.26417     0.37168     0.67083    -0.11293    -0.60599     0.12775
0.10371     0.26287     0.36226     0.51297    -0.24675    -0.54363     0.12872
0.11054     0.26547     0.36129     0.37363    -0.38187    -0.47769     0.13165
0.11313     0.27261     0.38207     0.29145     -0.4699    -0.42605      0.1284
0.10631     0.28528     0.42755     0.27294    -0.49101    -0.40883     0.11313
0.088773     0.29697     0.48894     0.30087    -0.46145     -0.4267    0.084551
0.067011      0.2986     0.54513     0.33498    -0.41663    -0.46665    0.045574
0.047523     0.28561     0.57533     0.33465    -0.38057    -0.51309  0.00010078
0.032257     0.25962     0.56721     0.27586    -0.34549     -0.5511   -0.041799
0.022512     0.22649     0.52466     0.16673    -0.28378    -0.56539   -0.072981
0.016016     0.19239     0.45613    0.049147    -0.17854    -0.54233   -0.089546
0.0088706     0.15861     0.37038   -0.024909   -0.055116    -0.48224   -0.092469
-0.0047713     0.11931     0.27359   -0.028807    0.030633    -0.39876   -0.082725
-0.028807    0.063113     0.16835    0.038753    0.038103    -0.31334   -0.062587
-0.059014  -0.0050961    0.061489     0.15309   -0.030431    -0.23798   -0.038227
-0.089221   -0.075579   -0.045697     0.26449    -0.13924    -0.16912    -0.01614
-0.11131    -0.13697    -0.14671     0.32198    -0.23993   -0.093119  0.00010078
-0.12333    -0.17919    -0.23279     0.30055    -0.29125   0.0039985    0.017316
-0.12657    -0.19836     -0.2958      0.2057    -0.27339      0.1271    0.037778
-0.11845    -0.19966    -0.33055    0.073182    -0.19511     0.26384    0.062139
-0.10221    -0.18926     -0.3364   -0.055766   -0.083375     0.39182    0.084551
-0.085648    -0.17594    -0.32146    -0.15321    0.036804     0.49186     0.10144
-0.073631    -0.16977    -0.29807    -0.21557     0.15081      0.5552     0.11086
-0.067459    -0.16945    -0.27306    -0.25877     0.25962     0.58865     0.11021
-0.06681    -0.16588    -0.24805    -0.30327     0.36421     0.60619     0.10209
-0.072656    -0.15483    -0.22142    -0.36238     0.45808     0.61041     0.08585
-0.08305    -0.13827    -0.19154    -0.43449     0.52889     0.58833    0.061814
-0.095068     -0.1191    -0.15483    -0.50368     0.55585     0.52694    0.038428
-0.10189   -0.097991    -0.10871     -0.5511     0.52174     0.43145    0.021538
-0.094418    -0.07428   -0.057715    -0.56701     0.43697     0.32458    0.016666
-0.069083   -0.050244   -0.010943    -0.54525     0.33368     0.23136    0.028684
-0.029782   -0.029132    0.024137    -0.49036     0.24468     0.15406    0.052395
0.01017   -0.014516    0.047847     -0.4176     0.17582    0.079354     0.06961
0.041676  -0.0073698    0.065712     -0.3429     0.10696   -0.007045    0.061814
0.055643      0.0014      0.0852    -0.28086    0.021538    -0.11033    0.025761
0.053694    0.016666     0.10956    -0.23993   -0.085973    -0.22564   -0.031081
0.042651    0.039727     0.13522    -0.21297    -0.20843    -0.33932   -0.097341
0.030633    0.063763     0.15471    -0.18439    -0.32795    -0.43839    -0.16035
0.024461    0.081303     0.15828    -0.14314    -0.41858    -0.50952    -0.21135
0.024786     0.08585     0.14107   -0.084999    -0.45723    -0.54525    -0.23928
0.02641    0.082277     0.10501   -0.018413    -0.44001    -0.54623    -0.24221
0.023487    0.075131    0.060515    0.042001    -0.38317    -0.52251    -0.22597
0.01764    0.069285    0.016016    0.082277    -0.31724    -0.49848    -0.19738
0.013418    0.066037   -0.020037    0.089098    -0.26429    -0.51472    -0.16165
0.016991    0.064088   -0.043423     0.06084    -0.23409     -0.5943    -0.11683
0.032906    0.066362   -0.052193    0.012119    -0.21785    -0.71837   -0.060638
0.058241    0.079354   -0.047971   -0.038876    -0.18959    -0.83855   0.0095202
0.08585    0.098842   -0.038551     -0.0837    -0.13242    -0.90579    0.079679
0.10729     0.11411   -0.032705    -0.12852   -0.055766    -0.89442     0.13262
0.11606     0.11443   -0.033679    -0.17757    0.021863    -0.80802     0.15341
0.11151    0.096244   -0.041799    -0.23051      0.0865    -0.67745     0.13522
0.095269    0.062789   -0.058365    -0.27469     0.11995     -0.5394    0.083251
0.073832     0.02641   -0.085324    -0.29677     0.11281    -0.41338     0.01017
0.050446  -0.0018481    -0.12138     -0.2906    0.068635    -0.30522   -0.060313
0.030957   -0.018413     -0.1597    -0.25877    0.008221    -0.20615    -0.10838
0.016341   -0.026858    -0.19771    -0.21102   -0.041799    -0.10059    -0.12657
0.00042559   -0.031081    -0.22889    -0.15321   -0.058689     0.02641    -0.12268
-0.01614   -0.036927    -0.24578   -0.094093   -0.034329     0.17517    -0.10774
-0.031081   -0.047971    -0.24838   -0.036278    0.027385     0.33011   -0.093119
-0.047646   -0.063237    -0.23831    0.021538     0.11281     0.47172   -0.086623
-0.067134   -0.082725    -0.22304    0.070584     0.19531      0.5945    -0.09182
-0.084999    -0.10676    -0.20875     0.10761     0.24306     0.70428    -0.10579
-0.093444     -0.1295    -0.19901      0.1297     0.24663     0.81407     -0.1178
-0.089546    -0.14444    -0.19348     0.12515     0.21642      0.9323     -0.1191
-0.077203    -0.14996    -0.19381    0.072208     0.16543      1.0509    -0.10611
-0.065835    -0.15126    -0.20583   -0.043748     0.10177      1.1463     -0.0824
-0.064211    -0.15873    -0.22986      -0.212     0.03583      1.1938    -0.05804
-0.071357    -0.17724    -0.25682    -0.40201   -0.021012      1.1759   -0.034004
-0.081751    -0.19868    -0.27728    -0.57124   -0.059664      1.0882   -0.012892
-0.087597    -0.21427    -0.28411    -0.68427   -0.073955     0.92645   0.0049729
-0.086298    -0.21622    -0.27176    -0.72552   -0.058365     0.69584    0.012768
-0.078503    -0.20453    -0.24643    -0.70181   -0.019388     0.41131   0.0043233
-0.065835    -0.18374    -0.21395     -0.6258    0.027709     0.10501   -0.018738
-0.051868    -0.15938    -0.18114    -0.51407    0.065062    -0.18342   -0.050569
-0.039851    -0.13599    -0.15678    -0.38577    0.085525    -0.42085   -0.080451
-0.032055    -0.11488    -0.14736    -0.26559    0.089748    -0.59072   -0.098965
-0.028157    -0.10091    -0.14801    -0.16555    0.079354    -0.69953    -0.10156
-0.02426   -0.093769    -0.14866   -0.082076    0.049147    -0.76742   -0.090845
-0.019388   -0.090521    -0.13957  0.00010078  0.00010078    -0.81679   -0.086948
-0.017764     -0.0824    -0.11618    0.088124   -0.056741    -0.86454    -0.10903
-0.021012    -0.06616   -0.077528     0.17127    -0.10644    -0.91456    -0.15905
-0.025884   -0.043423   -0.029782     0.23396    -0.14281    -0.94769    -0.21817
-0.027833   -0.026209    0.019589     0.26255    -0.16263    -0.93372    -0.26039
-0.024585   -0.023935    0.061814     0.24208    -0.16393    -0.84602    -0.26234
-0.014516   -0.032705    0.089748     0.16738    -0.14639     -0.6781    -0.21102
0.0046481   -0.044723     0.10859    0.063113    -0.10481    -0.45301     -0.1178
0.030633   -0.046022     0.12905   -0.022636   -0.031406    -0.21914  -0.0080194
0.058566   -0.028157     0.15763    -0.03303    0.075456   -0.029457    0.086824
0.083251   0.0075714     0.18914    0.068635      0.2083    0.080653     0.14561
0.10242    0.050771      0.2174     0.27034     0.33758     0.10599     0.15698
0.11313    0.089748     0.23689     0.50777     0.43307    0.073832     0.12807
0.11346     0.11638      0.2489     0.71565     0.46685    0.024786    0.080653
0.10242     0.12548     0.25637     0.85369     0.43145    -0.01484    0.033556
0.087149     0.12255     0.25832     0.92288     0.34472   -0.039851  0.00010078
0.076755     0.11801     0.25897     0.94756     0.24728   -0.055766   -0.014516
0.073832      0.1206     0.26287     0.95568     0.18037   -0.060638   -0.013216
0.078704     0.13132     0.27846     0.96348     0.16283   -0.045372   0.0033489
0.0865     0.14821     0.31516     0.96998     0.19271  -0.0011985    0.033556
0.094945     0.17452     0.37265      0.9755     0.25443     0.06831    0.079029
0.10501     0.20928     0.44054     0.98297     0.34147     0.15146     0.13165
0.11866     0.24663     0.50225     0.99206     0.45126     0.23039     0.17939
0.13555     0.27456     0.53831     0.99953     0.57858      0.2895     0.21545
0.15503     0.28138     0.52466     0.99888     0.69454     0.32198     0.23786
0.17127     0.26709      0.4584     0.97322     0.76048     0.32134     0.24566
0.17907     0.24598     0.35804     0.90047     0.75398      0.2947     0.24436
0.17874     0.23169      0.2489     0.76957     0.67473      0.2567     0.23818
0.17647     0.23494     0.14984     0.59352     0.53993     0.22292     0.23006
0.1742     0.25085    0.075456     0.39637     0.37103     0.20246      0.2135
0.1677     0.27261    0.031282     0.20408     0.18849     0.18881     0.18232
0.15536     0.28528     0.01017    0.040702   0.0095202     0.17582     0.13425
0.13555     0.28398      0.0014   -0.077528    -0.15386     0.15991    0.077405
0.11054     0.27002   0.0026992    -0.15548    -0.29255     0.14821    0.023487
0.082277     0.24923    0.013418    -0.20193    -0.39422     0.14464   -0.015165
0.054993     0.22259    0.028359    -0.23279    -0.45593     0.15049   -0.034654
0.030957     0.19401      0.0433    -0.26267    -0.48484     0.16348   -0.042449
0.01017     0.17225    0.063438    -0.30294    -0.49263     0.17647   -0.048296
-0.0073698      0.1625    0.087474    -0.34809    -0.49393     0.18654   -0.059989
-0.021986     0.15991     0.11248    -0.38545    -0.49426     0.19141   -0.077203
-0.03238     0.15406     0.13327    -0.40331    -0.49296     0.18816   -0.091495
-0.035303     0.14042     0.14951    -0.40331    -0.48386     0.17517   -0.094093
-0.032055     0.11995     0.15471    -0.39259    -0.46665     0.15536   -0.084999
-0.028482    0.093321     0.13944    -0.37668    -0.44229     0.13425   -0.068434
-0.027508    0.060515     0.10436    -0.35621    -0.41046     0.11313   -0.046022
-0.03173    0.023812    0.056617     -0.3312    -0.36921    0.092346   -0.025884
-0.0405    -0.01484   0.0065969    -0.30814    -0.31626    0.067986  -0.0083442
-0.04992   -0.051219   -0.039201    -0.28995    -0.26234    0.041351    0.008221
-0.053817   -0.083375   -0.075904    -0.27534    -0.22369    0.016016    0.023487
-0.049595    -0.10741    -0.10026    -0.26429    -0.21005 -0.00022403    0.038428
-0.044398    -0.12527    -0.11715    -0.26072    -0.21817  -0.0015233    0.054019
-0.043748    -0.14314    -0.13372    -0.26624    -0.23766     0.01829    0.067986
-0.047321    -0.16263    -0.15678    -0.28118     -0.2526    0.057917    0.081952
-0.051868    -0.17984    -0.18439    -0.29937    -0.24838     0.10599    0.096569
-0.058365    -0.19251     -0.2146    -0.31659    -0.21655     0.14529     0.11378
-0.069408    -0.20518    -0.24221    -0.33315      -0.161     0.16315     0.11931
-0.086623    -0.21817    -0.26397    -0.34744   -0.097991     0.15731     0.11086
-0.10579    -0.23149    -0.28118    -0.35784   -0.050569      0.1362    0.090072
-0.12235     -0.2448    -0.29807    -0.36531   -0.035953     0.12093    0.065387
-0.13177    -0.25682    -0.31529    -0.36856   -0.059664     0.12093    0.049147
-0.1321    -0.26429     -0.3325    -0.36953    -0.10221     0.12483    0.049796
-0.13015    -0.26592    -0.34874    -0.37148    -0.13404    0.095594    0.061165
-0.13242    -0.26332    -0.36433     -0.3757    -0.14509  -0.0044465    0.072208
-0.13957     -0.2578    -0.37375    -0.38187    -0.14704    -0.17984    0.076431
-0.14509    -0.25033     -0.3783    -0.38772    -0.16523    -0.38804    0.073832
-0.14087    -0.23571    -0.37343    -0.38447    -0.21785    -0.56344    0.063763
-0.123    -0.21687    -0.35719    -0.36109    -0.30035    -0.65016    0.047847
-0.094743    -0.19706     -0.3312    -0.31139    -0.38545    -0.63815    0.029983
-0.063237    -0.17919     -0.2958    -0.24058    -0.44456    -0.55954    0.012443
-0.035953    -0.15873     -0.2565     -0.1636    -0.45495    -0.46567  -0.0054209
-0.017764    -0.13599    -0.22337   -0.093444    -0.40883    -0.40039   -0.026533
-0.0096434    -0.11878     -0.2068     -0.0405    -0.31626     -0.3757   -0.054142
-0.011267    -0.11456     -0.2159   -0.012892    -0.20096    -0.36823   -0.084674
-0.02426    -0.12495    -0.24643   -0.012892   -0.079477    -0.33997    -0.11001
-0.042124    -0.14314    -0.28476   -0.032055    0.048822    -0.26202     -0.1178
-0.054467    -0.16165    -0.31204   -0.054142      0.1664    -0.11975   -0.097017
-0.053817    -0.16912    -0.30977   -0.058365     0.23754    0.074482   -0.051219
-0.039851    -0.16035    -0.26949   -0.034654     0.22194     0.28626   0.0072465
-0.023285    -0.13697    -0.19251    0.011144     0.10989     0.46782    0.055968
-0.012567    -0.10936   -0.088572    0.056292   -0.070382     0.58118    0.072208
-0.013541   -0.086623    0.019264    0.082277    -0.26104     0.61756    0.042651
-0.025234   -0.073306     0.11703    0.083901    -0.40688     0.60522   -0.024909
-0.045047    -0.06551     0.20116     0.06896    -0.47964      0.5932    -0.10514
-0.065835   -0.057065     0.27846    0.048822    -0.47119     0.61269    -0.17432
-0.077853   -0.039851     0.35349    0.039402    -0.40623     0.66531    -0.22304
-0.077528  -0.0076946     0.42657    0.050446    -0.32146     0.73254    -0.24675
-0.067134    0.044275     0.48926     0.07773    -0.24513     0.79426     -0.2474
-0.04927     0.11118     0.52921     0.10242    -0.19413     0.83875    -0.22337
-0.021986     0.18167     0.54253     0.11021    -0.18114     0.86896    -0.17562
0.015042     0.24273     0.52986     0.10794     -0.2016       0.893    -0.10579
0.06084     0.28918     0.50225     0.11086    -0.22597     0.91313   -0.025559
0.11021     0.32036      0.4636     0.12158     -0.2159     0.92223    0.047847
0.14951     0.33855     0.41553     0.12743    -0.16588     0.91281    0.095919
0.16803      0.3431     0.36291     0.11508    -0.09994     0.87903     0.11508
0.169     0.33887     0.31646    0.086175   -0.049595     0.81439     0.11054
0.15666     0.32978     0.28691    0.047847   -0.023285     0.71922    0.090397
0.13814     0.31711     0.27619  -0.0044465  -0.0031473     0.60522    0.055968
0.11833      0.3038     0.27944   -0.078178    0.049472     0.48471   0.0036737
0.10079      0.2934     0.28171    -0.16945     0.17355     0.36616   -0.066485
0.086175     0.28723     0.27261    -0.25552     0.38142     0.25767    -0.14152
0.076431     0.28106     0.24403    -0.31366     0.64452     0.16088    -0.20485
0.072208     0.26774     0.19336     -0.3299     0.90891    0.075456    -0.24026
0.076106      0.2476     0.12093    -0.29353      1.1106   0.0043233    -0.23603
0.090722     0.22519    0.036479    -0.19868      1.2055   -0.048296    -0.18926
0.11248       0.207   -0.047646   -0.035628      1.1866   -0.079477    -0.11001
0.1362     0.19239    -0.11845     0.19174      1.0778    -0.09929   -0.022311
0.15309      0.1716    -0.16685     0.45158     0.91249    -0.12138     0.05207
0.15406     0.13847    -0.18894     0.68577     0.71175    -0.15581    0.096569
0.14107    0.092996    -0.19543     0.83745     0.49316    -0.19413     0.11118
0.12288    0.045249    -0.19316     0.87026     0.27489    -0.22012     0.10956
0.11216   0.0075714    -0.18926     0.78451    0.083576    -0.22824     0.10729
0.11313    -0.01549    -0.18374     0.62438   -0.062587    -0.22921     0.11703
0.11963   -0.027183    -0.17562      0.4571    -0.15743     -0.2526     0.13425
0.11963   -0.033679     -0.1636     0.34082    -0.20778    -0.32341     0.14789
0.10534   -0.034004    -0.14346     0.29957    -0.22044    -0.45398     0.15114
0.082927   -0.024909    -0.10579     0.32426    -0.19576    -0.63132     0.14529
0.061814  -0.0011985   -0.038551      0.3863    -0.11586    -0.82913     0.13717
0.050771    0.038753    0.054019     0.45386    0.034855     -1.0149      0.1297
0.050121    0.081627     0.15276     0.50063     0.23786     -1.1494     0.13002
0.054668     0.11216     0.23591     0.50972     0.44639     -1.2079     0.14009
0.056617     0.12385     0.29405     0.48439     0.60814     -1.1984     0.15406
0.053044     0.11963     0.32881     0.44801     0.69974     -1.1695      0.1638
0.046548     0.10144      0.3431     0.43599     0.73449     -1.1877     0.16153
0.03583    0.075456     0.34212      0.4584     0.73189     -1.2806     0.14334
0.017965    0.045249     0.32913     0.49673     0.70526       -1.42     0.11378
-0.0060706    0.020239     0.30964     0.51687     0.65037     -1.5444     0.07708
-0.027183   0.0078962     0.28885     0.49608      0.5578     -1.5947    0.040702
-0.034978     0.01017     0.26839     0.42527     0.42722     -1.5401   0.0088706
-0.033354    0.021863     0.24371     0.31419     0.27229     -1.3781   -0.019063
-0.027508    0.039727     0.20538     0.18362     0.11346     -1.1299   -0.042774
-0.02426    0.057917     0.15276    0.058891   -0.021012    -0.83953   -0.061937
-0.021986    0.073182    0.097218    -0.03238    -0.10579    -0.56799   -0.073955
-0.025559    0.083251    0.052395     -0.0837    -0.13599    -0.35556   -0.075904
-0.035953    0.081627    0.024461    -0.10319    -0.12722     -0.2029   -0.069733
-0.055766    0.063763    0.016016    -0.10611    -0.10546   -0.076879   -0.058689
-0.082725    0.030633    0.016341    -0.11586    -0.10838    0.066037   -0.045697
-0.11131   -0.010293   0.0069217    -0.14899    -0.17594     0.24923   -0.036602
-0.13599   -0.053817   -0.021012    -0.20453    -0.31106      0.4649   -0.035953
-0.15158   -0.096042   -0.063237    -0.26299    -0.47119     0.68707   -0.040825
-0.15743    -0.12982    -0.10968    -0.31366    -0.59462      0.8878   -0.045697
-0.15256    -0.14769    -0.14736    -0.34809    -0.64367      1.0473   -0.041799
-0.13502    -0.14379    -0.16847    -0.36368    -0.61314       1.158   -0.026209
-0.10481    -0.11943    -0.16718    -0.35751    -0.52316      1.2295  0.00042559
-0.06681   -0.085324    -0.14606     -0.3338    -0.40396      1.2795    0.040377
-0.031406   -0.056416    -0.11683    -0.30489    -0.27988      1.3149    0.093321
-0.0063954    -0.04862    -0.10481    -0.28833     -0.1701      1.3328     0.15049
0.0062721   -0.069083     -0.1295    -0.29677   -0.092145      1.3338     0.20246
0.013093    -0.10644    -0.19641    -0.32731   -0.064536      1.3198     0.24695
0.022837    -0.13989    -0.29288    -0.37862    -0.09182      1.2928     0.28268
0.040377    -0.15776    -0.39649    -0.45463    -0.16653       1.249     0.31257
0.063113    -0.15873    -0.48581    -0.55272    -0.27144      1.1772     0.33693
0.086175    -0.14964    -0.54298    -0.65958    -0.38317      1.0632       0.347
0.10242    -0.13404    -0.56019     -0.7541    -0.47509     0.90177     0.33075
0.10566    -0.11813    -0.53681    -0.81776    -0.52901     0.70363     0.28788
0.096569    -0.10806    -0.48581    -0.83855     -0.5459     0.49024     0.22877
0.076755    -0.10644    -0.42085    -0.81776    -0.54395     0.28626     0.16413
0.048822    -0.10676    -0.35361    -0.76612    -0.53973     0.11021     0.10371
0.022837    -0.10351     -0.2919    -0.69726    -0.54395   -0.030106    0.058241
0.0052977   -0.099615    -0.24383    -0.62483    -0.56409    -0.14119    0.030957
-0.0047713    -0.10026    -0.21167    -0.55727    -0.58813    -0.23409    0.017965
-0.010943    -0.10124    -0.19543    -0.49815     -0.5878    -0.31756    0.013743
-0.020037    -0.10579    -0.19478     -0.4556    -0.53843    -0.39909   0.0056225
-0.035303    -0.11586    -0.20908    -0.44034    -0.43417    -0.48873   -0.021661
-0.058365    -0.13177    -0.22791    -0.44489     -0.2893    -0.60047    -0.07428
-0.090521    -0.14736    -0.23701    -0.44554    -0.13437    -0.73721    -0.15029
-0.1204    -0.15451    -0.23051    -0.41825   -0.012567    -0.88565    -0.23344
-0.13372    -0.14866    -0.21492    -0.35459    0.045899     -1.0172    -0.31106
-0.123    -0.13145    -0.19283    -0.26397    0.048822     -1.0893    -0.36856
-0.089546    -0.10546    -0.16555    -0.15613    0.030633     -1.0643    -0.38967
-0.047321   -0.075904    -0.13404    -0.03238    0.039402    -0.93275    -0.36044
-0.0089938   -0.046671    -0.09994     0.10761     0.10566    -0.72454    -0.28216
0.021863   -0.018413   -0.064211     0.26384        0.22    -0.49783    -0.17205
0.045249   0.0052977   -0.028157     0.43209      0.3431    -0.31171   -0.060963
0.059541    0.022837   0.0075714     0.60749     0.43794    -0.20908    0.021538
0.063438    0.029983    0.038428     0.78321     0.48179    -0.19024    0.061165
0.055968    0.022188    0.054993     0.95341     0.47205    -0.22726    0.059541
0.039078  -0.0011985    0.052395      1.1132     0.42852    -0.27501    0.028034
0.014068   -0.035303    0.032582      1.2552      0.3811    -0.30619   -0.013866
-0.014191   -0.068434   0.0049729      1.3698     0.34992    -0.30782   -0.051868
-0.034004   -0.085973  -0.0093186      1.4374     0.34407    -0.28378   -0.080776
-0.039851   -0.075904   0.0075714      1.4358     0.35869    -0.24513   -0.097341
-0.029782   -0.036927    0.068635      1.3497     0.38175    -0.19576    -0.09994
-0.0096434    0.019589       0.169      1.1847     0.39929    -0.13762   -0.082076
0.016991    0.080328     0.29048      0.9703     0.39864   -0.070382   -0.038876
0.050121     0.13392     0.39961     0.73579     0.37071   0.0017248     0.01829
0.0852     0.16705     0.47172     0.50063     0.32004    0.071883     0.06961
0.11378     0.17517     0.49153     0.28106     0.25215     0.13522     0.10404
0.12937      0.1677     0.46652    0.095269     0.18037     0.19011      0.1206
0.13067     0.16056      0.4178   -0.038551     0.11508     0.22974     0.12613
0.12385     0.16575     0.36908    -0.11618    0.063438     0.24143     0.12937
0.11606      0.1781     0.33693    -0.15061    0.020239     0.21512     0.13652
0.10859     0.18751     0.32263    -0.14606   -0.022311     0.15341     0.14334
0.099492     0.18589     0.31581    -0.10384   -0.072331    0.072208     0.13879
0.088773     0.18362     0.30704   -0.032055    -0.12982  -0.0083442     0.11801
0.076755     0.18784      0.2921    0.044924    -0.18829    -0.07428    0.091047
0.067336     0.19726     0.27229     0.10404    -0.24253    -0.12333    0.067986
0.063113     0.20181     0.24793       0.131    -0.28248    -0.16458    0.053369
0.065712     0.20018     0.22097     0.13327    -0.28735    -0.20778    0.047198
0.074806     0.19011     0.19304     0.12678    -0.25227    -0.25682    0.037129
0.081627     0.17257     0.16023     0.11801    -0.18699    -0.30912    0.016016
0.079679     0.14659     0.11898    0.096569    -0.11033    -0.35589   -0.020362
0.062139     0.11411    0.065062    0.047198   -0.035953    -0.39941   -0.072981
0.032582    0.079354   0.0023744   -0.036927     0.01829    -0.43871    -0.12755
-0.00054884    0.051096   -0.060638    -0.14476    0.036154    -0.46567    -0.17075
-0.026533    0.029333    -0.11456     -0.2565    0.014717     -0.4621    -0.18764
-0.042774   0.0078962    -0.15516    -0.35849   -0.030756    -0.41793    -0.17887
-0.047646   -0.011917    -0.18439    -0.43644     -0.0824    -0.33802    -0.14964
-0.046996   -0.030431    -0.20485    -0.47867    -0.13957    -0.24545    -0.11293
-0.047646   -0.046347    -0.21557    -0.48289    -0.20355    -0.16912   -0.076879
-0.055116   -0.058365    -0.21655    -0.45918    -0.26494    -0.13437   -0.050244
-0.069408   -0.064861    -0.20583     -0.4241    -0.30944    -0.16198   -0.035628
-0.084349   -0.067134    -0.18634    -0.39357    -0.32731    -0.26007   -0.032055
-0.095393   -0.066485    -0.16328    -0.37408    -0.31724    -0.40916   -0.025234
-0.09182    -0.06616    -0.14444    -0.36173    -0.29125    -0.55824  -0.0041217
-0.070058   -0.065835    -0.13502    -0.35232    -0.26169    -0.64562    0.031607
-0.0405   -0.063237    -0.12982    -0.33965    -0.22304     -0.6271    0.078704
-0.018088   -0.059664     -0.1217    -0.32341    -0.16653    -0.49815      0.1297
-0.010618    -0.05739    -0.11293    -0.31594    -0.10449     -0.2893     0.17485
-0.015815   -0.062262    -0.10611    -0.33185   -0.059014   -0.060638     0.20376
-0.032055   -0.073306   -0.095717    -0.37603   -0.053492     0.13814      0.2122
-0.04927   -0.089546     -0.0837    -0.43839   -0.090521     0.27749      0.2044
-0.058365    -0.10384   -0.078503    -0.49718    -0.15938     0.34894     0.18914
-0.056741    -0.10838     -0.0824    -0.52966    -0.23701     0.35512     0.16803
-0.053168    -0.09994   -0.085648    -0.52641    -0.30294     0.31386     0.14269
-0.052518    -0.08305   -0.076879    -0.49458    -0.34809     0.24793     0.11346
-0.059339   -0.060963   -0.051219    -0.45138    -0.37083     0.18687    0.081952
-0.069083   -0.035628   -0.015815    -0.40753    -0.36888     0.15438     0.05142
-0.075904  -0.0093186    0.019914    -0.36823     -0.3351     0.15536    0.021538
-0.077203    0.013093    0.050446     -0.3351    -0.26202     0.18004  -0.0050961
-0.076229    0.026085    0.071558    -0.30749    -0.14964      0.2135   -0.024585
-0.076879    0.028359      0.0852    -0.28443  -0.0024977     0.23656   -0.033354
-0.076879    0.023812    0.099817    -0.26039     0.16705     0.22941   -0.035303
-0.07428    0.019589     0.12158    -0.23571     0.34147     0.18134   -0.037252
-0.071357    0.020888     0.14789    -0.20453     0.49803     0.10209   -0.051219
-0.068434    0.029658     0.17095    -0.16912     0.62665    0.028034   -0.084349
-0.065186    0.041351     0.18167    -0.13372     0.73027  -0.0018481    -0.13534
-0.060963    0.047198     0.17972    -0.10221     0.81927      0.0433    -0.19803
-0.055116    0.046873     0.17257    -0.07493     0.88228     0.15926    -0.26299
-0.048945    0.041027     0.16998   -0.047321     0.89462     0.31224    -0.31561
-0.042124    0.032582     0.17192   -0.016789     0.83323     0.45678    -0.34549
-0.033679    0.024461     0.17582    0.017316     0.69779     0.57436    -0.34225
-0.020687    0.019264     0.17939    0.051096     0.51914     0.67862    -0.30522
-0.0015233     0.01829     0.17582    0.079354     0.35024     0.79685    -0.24188
0.015042    0.019264     0.15991     0.10079     0.23299     0.93879    -0.17172
0.024461    0.019914     0.13262     0.12255     0.18427      1.0869    -0.11715
0.02641    0.020888    0.096244     0.14464     0.19563      1.2029   -0.098641
0.023487    0.019914    0.055318      0.1625     0.22909      1.2532     -0.1243
0.01894    0.015042    0.010495      0.1755     0.23624      1.2233    -0.18569
0.010819   0.0062721   -0.038227     0.18167     0.17874      1.1246     -0.2578
-0.0034721  -0.0057458   -0.087272     0.17972    0.059865     0.98622    -0.31399
-0.020037   -0.021661    -0.13177     0.17647   -0.085648     0.84947    -0.33153
-0.036278   -0.040175    -0.16782     0.17615      -0.212     0.74716    -0.30489
-0.04992    -0.05804    -0.18894     0.18232    -0.28605     0.68609    -0.24448
-0.061613   -0.070058    -0.18926     0.18979     -0.2984     0.64517     -0.1714
-0.071032   -0.074605    -0.18082     0.19726    -0.26072      0.5919    -0.10611
-0.07428   -0.073955    -0.17367     0.20148    -0.19738      0.5133    -0.05804
-0.067784   -0.072656     -0.1753     0.20148    -0.13892     0.40903   -0.023285
-0.053168   -0.069408    -0.18374     0.19693   -0.095717     0.28561   0.0039985
-0.026858   -0.056741    -0.18959     0.19661   -0.050894     0.15406    0.032257
0.009845   -0.033679    -0.18244     0.21285    0.011794    0.028684    0.067661
0.053044  -0.0018481    -0.15678     0.25345     0.07773   -0.075904     0.11411
0.095269    0.036804    -0.11261     0.31419     0.10339    -0.15386     0.16868
0.13165    0.075781   -0.054467     0.38695    0.054344    -0.20583     0.22422
0.15244     0.10371    0.011469     0.46945   -0.068109    -0.24545     0.27294
0.15536     0.11346    0.074482     0.55617    -0.21947    -0.30489     0.30607
0.14432     0.10566     0.12515     0.64127    -0.33932    -0.41435     0.32004
0.12937    0.095269     0.15926     0.70883    -0.38837    -0.56344     0.32036
0.12483    0.095594     0.18004     0.74099    -0.35296    -0.70473     0.31581
0.13652     0.11054     0.19271     0.72507    -0.23766    -0.78171     0.31419
0.16023     0.13262     0.19921     0.65946   -0.074605    -0.75767     0.31841
0.18232     0.15049     0.19856     0.54838    0.079029    -0.62938     0.32653
0.18914     0.15211     0.18394     0.40514     0.16413    -0.43741     0.32913
0.1781      0.1349     0.15503     0.25507     0.15406    -0.24091     0.30899
0.14951     0.10534     0.11411      0.1232    0.070259   -0.096367     0.25832
0.11216    0.076431    0.071234    0.028684   -0.034004   -0.033354     0.18784
0.078379    0.057267    0.036804   -0.020037    -0.10968    -0.04992     0.11898
0.056292    0.051745    0.022188   -0.028482    -0.14541    -0.11326     0.06896
0.048497    0.054993    0.031607   -0.011917     -0.1727    -0.18796    0.041351
0.050121    0.058241    0.063113   0.0043233    -0.23993     -0.2578    0.022837
0.054344    0.051745     0.11378 -0.00022403    -0.37538    -0.31918  -0.0060706
0.053369    0.032906     0.17647   -0.034654    -0.55824    -0.35914   -0.047646
0.044599   0.0091954     0.24566   -0.098316    -0.73137    -0.36466   -0.089221
0.029658   -0.014191     0.30964    -0.17919    -0.82913    -0.33445     -0.1178
0.011469   -0.027183     0.35349    -0.26007    -0.80997    -0.27209      -0.123
-0.0015233   -0.026858     0.35609    -0.32666    -0.67615    -0.17984    -0.10221
-0.0063954   -0.013216     0.31029    -0.37862    -0.47119   -0.052843   -0.059664
-0.0031473   0.0072465     0.22584     -0.4215    -0.25098     0.10664  -0.0028225
0.0059473    0.028359     0.12158    -0.45853   -0.056091     0.27164    0.056617
0.014392    0.048822    0.020888    -0.48191     0.10242     0.40026     0.10664
0.021538    0.065062   -0.055766    -0.47737     0.23916     0.46523     0.14042
0.024137    0.075456    -0.09994    -0.43319     0.36389     0.46263     0.15536
0.025111    0.079029    -0.11813    -0.33802     0.46458     0.40871     0.15991
0.023487    0.075456    -0.12073    -0.19576     0.52661     0.32296     0.15471
0.019589    0.070909    -0.11618   -0.033354     0.54026     0.22552     0.13782
0.014392    0.068635    -0.11456     0.10924     0.50583       0.131     0.10631
0.008221    0.065712    -0.11748     0.19693     0.43242    0.054668    0.069934
0.0010752    0.058241     -0.1282     0.20635     0.33303   0.0088706    0.042001
-0.0057458    0.048497    -0.14541     0.13652     0.22779  0.00042559    0.030957
-0.012892    0.038428    -0.16328    0.015692     0.13814    0.026735    0.037129
-0.018738    0.029658    -0.16653    -0.11651    0.071883    0.072858     0.05142
-0.018413    0.023487    -0.14444    -0.21979    0.023487     0.11638    0.061489
-0.011592    0.024786   -0.093119    -0.26624   -0.015165     0.13587    0.055643
0.00042559    0.032582   -0.023285    -0.24545   -0.038876     0.12613    0.029333
0.015367    0.043625    0.045574     -0.1688   -0.023285    0.096569   -0.012567
0.026735    0.053369    0.093645   -0.059664    0.054668    0.063438   -0.058689
0.032582    0.059216     0.11151    0.055643     0.18914    0.042001    -0.09994
0.026735    0.062464    0.093321      0.1638     0.35674    0.047198    -0.11943
0.009845    0.064413    0.044924     0.26287     0.51622    0.084876    -0.11228
-0.012892    0.066362   -0.010943     0.34959     0.62211     0.15568   -0.076229
-0.029132    0.066362   -0.055766     0.41683     0.64484     0.25215   -0.020362
-0.032705    0.062464   -0.081101     0.46263     0.58346     0.35739    0.045574
-0.025234    0.050771   -0.087272     0.49543     0.46685     0.44736     0.10306
-0.014191    0.033556   -0.080127     0.52142     0.33498     0.49316     0.13944
-0.0089938    0.011469   -0.072006     0.54773     0.21577     0.47237     0.14821
-0.01549   -0.011592   -0.071357     0.56884     0.11606     0.37623     0.13327
-0.034329   -0.031406   -0.077853      0.5841    0.034206      0.2096     0.10956
-0.055441   -0.047646   -0.088896     0.60652   -0.039526 -0.00022403    0.093321
-0.068758   -0.058689    -0.10026     0.65719     -0.1204    -0.21947    0.088448
-0.063561   -0.061613    -0.10384     0.74553    -0.22142    -0.41565    0.091696
-0.042774   -0.054467   -0.093444     0.84103     -0.3442    -0.57124    0.094945
-0.014516   -0.037902   -0.071682     0.89592    -0.47087    -0.68654    0.091047
0.011794   -0.013216   -0.046671     0.87741    -0.58163    -0.77099     0.07708
0.031932     0.01017   -0.022636     0.79068    -0.66413    -0.83823    0.054993
0.044924    0.024137  -0.0015233      0.6718    -0.71545    -0.90351    0.031607
0.054019    0.027385    0.016341     0.55357    -0.73981    -0.99154    0.015042
0.061489    0.022512    0.028684     0.46133    -0.74306     -1.1198   0.0046481
0.067661    0.011144     0.03583     0.40514    -0.73429     -1.2741  -0.0080194
0.067661  -0.0044465    0.034855     0.38207    -0.72227     -1.4118   -0.031406
0.05272   -0.024585    0.029983      0.3785    -0.71448      -1.483   -0.063886
0.021538   -0.047646    0.013418     0.35706    -0.70668     -1.4554   -0.098316
-0.022636   -0.075255   -0.021661     0.27619    -0.67777     -1.3365    -0.13177
-0.071357    -0.10968   -0.074605     0.12353    -0.59072     -1.1601    -0.16133
-0.11098    -0.14801    -0.13827   -0.087922     -0.4241     -0.9662    -0.18601
-0.13404    -0.18439    -0.19966    -0.31724    -0.19998    -0.78918    -0.20972
-0.14119     -0.2107    -0.25065    -0.51894    0.041676    -0.64107    -0.23279
-0.13567    -0.22142    -0.28703    -0.66056     0.27619    -0.51212    -0.24643
-0.11943    -0.21265    -0.30782    -0.73364     0.49024     -0.3822    -0.23701
-0.094093    -0.18829    -0.31236    -0.74111     0.66661    -0.24286    -0.20355
-0.065835    -0.15711    -0.30327    -0.70733     0.77574   -0.093444    -0.15646
-0.041475    -0.12398    -0.28151    -0.65634     0.80725    0.061814    -0.10806
-0.024585   -0.090845    -0.24383    -0.60079     0.77152     0.21642   -0.068109
-0.01614   -0.057065    -0.18666    -0.54817     0.68869     0.36389   -0.034978
-0.01484   -0.023285    -0.11228    -0.50595     0.57436     0.50258   -0.007045
-0.01484   0.0069217   -0.034004    -0.48126     0.44346      0.6364     0.01764
-0.010618    0.033231    0.032906    -0.47412     0.31679       0.753     0.03518
-0.0015233    0.051096    0.080653    -0.47899     0.20895     0.84103    0.042975
0.013093    0.059541     0.10534    -0.49263     0.12872      0.8917    0.031282
0.024137    0.055643     0.10371    -0.51829    0.072208     0.89657  -0.0073698
0.02641    0.039727    0.081627    -0.55889    0.038103      0.8485   -0.071357
0.017316    0.020239    0.046223    -0.60696     0.02706     0.74748    -0.14346
0.0023744   0.0046481   0.0069217    -0.64562    0.045574     0.61821    -0.19706
-0.0076946  -0.0050961   -0.028482    -0.65276     0.10047     0.49836    -0.21622
-0.0096434  -0.0041217   -0.046022    -0.61216     0.18719      0.4152    -0.19673
-0.0011985    0.010495   -0.043099    -0.51472     0.27976     0.38078    -0.14801
0.016666    0.036154   -0.030106    -0.36953     0.34797     0.38922   -0.084024
0.038103    0.063438   -0.016789    -0.19836     0.37298     0.42397   -0.018088
0.056292    0.084551  -0.0073698   -0.026533     0.36291     0.45873    0.040702
0.066686    0.096893   0.0036737     0.12093     0.33855     0.46523    0.084226
0.069285     0.10371    0.021863     0.23396     0.31159      0.4165     0.11054
0.067986     0.10534    0.052395     0.32978     0.28041     0.31192     0.12418
0.072208     0.10339    0.095919     0.44151     0.24306     0.17387     0.13197
0.0852     0.10404     0.14724      0.5945     0.21058    0.031932     0.14139
0.10924     0.11248     0.19661      0.7673     0.19499   -0.087272     0.15276
0.13944     0.12385     0.23851     0.89982     0.19174    -0.17757      0.1651
0.16088     0.13425     0.26872     0.93457     0.19628    -0.25195     0.17452
0.1625     0.13684     0.28301     0.85532     0.20408    -0.33932     0.17745
0.14269      0.1258     0.28333     0.68512     0.21707    -0.45983     0.17907
0.11183     0.10599     0.26709      0.4636     0.23266    -0.59884     0.18199
0.082927    0.087149     0.23396     0.23656     0.23494    -0.71772     0.18524
0.063438    0.078704     0.18914    0.036804     0.19856    -0.78463      0.1768
0.052395    0.081303     0.14074    -0.12625     0.11118    -0.78918     0.14139
0.0433    0.087474    0.095269    -0.25162   -0.026858    -0.75995    0.076431
0.027709    0.087799    0.058566    -0.34484     -0.2029    -0.75638  -0.0054209
0.0046481    0.072858    0.031607    -0.41013    -0.39357    -0.80737   -0.090845
-0.023935    0.044599    0.011144    -0.45106    -0.57481     -0.8837    -0.16295
-0.052518    0.011144 -0.00022403    -0.46957     -0.7226    -0.91748     -0.2055
-0.078827   -0.014191    0.003024     -0.4621    -0.81127    -0.83855    -0.20583
-0.090521   -0.025234    0.021213    -0.43449    -0.82036    -0.61249     -0.1649
-0.080127   -0.019712    0.050771    -0.39649    -0.74371    -0.25812   -0.093769
-0.047321  -0.0024977    0.088124    -0.36271    -0.59722     0.15406   -0.010943
-0.0047713    0.017965     0.12548    -0.33802    -0.42702     0.53506    0.058566
0.03453    0.033231     0.14594    -0.31789    -0.29158     0.82089    0.094945
0.059216    0.041676     0.14367    -0.29255    -0.23409     0.99109    0.092346
0.063763    0.049472     0.11508    -0.26137    -0.26007      1.0625    0.062789
0.049472    0.057592    0.061814    -0.23279    -0.33867      1.0801    0.025761
0.026085    0.059541   -0.008669    -0.21817    -0.42117      1.1031   0.0072465
0.003024    0.053044   -0.081101    -0.22272    -0.46178      1.1714    0.021538
-0.011267    0.036804    -0.14314    -0.23993    -0.44554      1.2834    0.056292
-0.011917    0.017316    -0.18666    -0.25812    -0.38512      1.4033    0.087799
-0.0015233   0.0017248    -0.20745    -0.27469    -0.30457      1.4877     0.10371
0.014717  -0.0073698    -0.20615     -0.2932    -0.22856      1.5007     0.10956
0.027385    -0.01549    -0.18764    -0.31821    -0.17562      1.4208     0.11346
0.022188   -0.026209    -0.16425    -0.35621    -0.15808      1.2461     0.11638
-0.0028225   -0.044398    -0.14704     -0.4124    -0.17659     0.99629     0.10664
-0.039526   -0.068434    -0.14152    -0.47672     -0.2146     0.70396    0.074806
-0.07493   -0.090845    -0.14509    -0.52511    -0.25325      0.4152    0.028359
-0.10384    -0.10189    -0.15321    -0.53908    -0.28281      0.1664   -0.013866
-0.12365   -0.096367    -0.16035    -0.51245    -0.30619    -0.02426     -0.0405
-0.12982   -0.082725    -0.16328    -0.44976    -0.32893    -0.15483   -0.044398
-0.12398   -0.071032    -0.16328    -0.36531    -0.35654    -0.24123   -0.028482
-0.11391   -0.067134    -0.16165    -0.27436    -0.38674    -0.30132   -0.007045
-0.10741   -0.069733    -0.15938    -0.19219    -0.40526    -0.35524  -0.0031473
-0.10644    -0.07428    -0.15321     -0.1256    -0.38804    -0.42312   -0.029457
-0.10774   -0.073955    -0.13437   -0.076229    -0.33315    -0.51959   -0.082725
-0.10903   -0.067784   -0.097341   -0.046022    -0.25195    -0.64984    -0.14931
-0.10936   -0.054792   -0.046347   -0.031406    -0.17335    -0.80997    -0.21655
-0.10611   -0.036602   0.0069217   -0.032055    -0.11683    -0.98277    -0.28183
-0.097341    -0.01549    0.046223   -0.045372   -0.084999     -1.1348     -0.3403
-0.0837  0.00042559    0.058891   -0.060963   -0.060638     -1.2322     -0.3731
-0.068434   0.0036737    0.044599   -0.078827   -0.029132      -1.241    -0.35946
-0.059339  -0.0034721    0.013093   -0.094093    0.012443     -1.1468    -0.30262
-0.060638   -0.012892    -0.01484   -0.096692    0.054019    -0.96133    -0.22434
-0.072331   -0.020687   -0.027508   -0.086623    0.086824    -0.72454    -0.15256
-0.091495   -0.024585   -0.013541   -0.069408     0.11573    -0.48646    -0.10644
-0.11618   -0.027183    0.028684   -0.046347     0.15828    -0.28865   -0.085324
-0.13794   -0.027508    0.091696   -0.010293     0.23948    -0.15256   -0.084024
-0.15223   -0.018738      0.1638    0.041027     0.35349   -0.079802   -0.092145
-0.15126  -0.0024977     0.22097    0.082927     0.44996   -0.063886    -0.10091
-0.13242   0.0085458     0.24208    0.090722     0.47562   -0.084349   -0.099615
-0.097666   0.0043233     0.21967    0.058241     0.42527    -0.12105   -0.078178
-0.053817  -0.0099683     0.16835   0.0072465     0.34115    -0.14964   -0.039851
-0.010618   -0.021337     0.11411   -0.030106     0.27359    -0.16035   0.0046481
0.02706   -0.020362    0.074157   -0.019388     0.24598    -0.14931    0.049796
0.056942  -0.0057458    0.055968    0.062464      0.2619    -0.11066     0.09397
0.083576    0.013093    0.055318     0.22162     0.31224   -0.050244     0.13749
0.10859    0.029009    0.061489      0.4308     0.35641    0.016991      0.1729
0.1284    0.036154    0.061814      0.6403      0.3353    0.069934     0.19044
0.13522    0.030633    0.056942      0.8079     0.22032    0.088773     0.18946
0.12483     0.01894    0.050446     0.92061    0.039727    0.072858     0.17322
0.099817    0.017316     0.05207     0.99109    -0.13697    0.032906     0.14951
0.070259    0.032906    0.071234      1.0392    -0.23961   -0.012892      0.1232
0.045899    0.063113     0.10436      1.0677    -0.22824    -0.04927     0.10209
0.036479    0.098517     0.14107      1.0655    -0.11066   -0.068434    0.091047
0.042651      0.1323     0.18232       1.019     0.07708   -0.069083    0.092346
0.061489     0.16348     0.22974     0.94009     0.28918   -0.051868     0.10242
0.089748     0.19304     0.28983     0.85759     0.48374   -0.013541     0.12223
0.11963     0.22227     0.36291     0.78224     0.62503    0.042651     0.15146
0.15049      0.2463     0.43145     0.70493     0.69292     0.11054     0.18427
0.18004     0.25767     0.47172     0.60911     0.68512     0.17745     0.21772
0.20181     0.25378     0.46847     0.48439     0.61691     0.23266     0.24598
0.2135     0.23689     0.42462      0.3327     0.51492     0.27359     0.26092
0.21317      0.2109     0.35154     0.16575     0.40546     0.29665      0.2528
0.19921     0.18102     0.26287   0.0065969     0.30997     0.30282     0.22032
0.17712     0.15438      0.1729    -0.12365     0.23591     0.30022     0.17095
0.15666     0.13684     0.08585    -0.21785     0.18654     0.29665     0.11833
0.14529     0.13002    0.010819    -0.27404     0.16185      0.2947    0.078704
0.14074     0.12223   -0.043748    -0.29677     0.16705     0.28821     0.06084
0.13522     0.10501   -0.075255     -0.2997      0.2083     0.26644    0.057917
0.12678    0.076106   -0.088896    -0.30424     0.28008     0.22389    0.058891
0.11086    0.040052   -0.096367    -0.31951     0.35349     0.17322    0.059865
0.087799   0.0023744    -0.11196    -0.33965     0.38954     0.13425    0.066362
0.063113   -0.034654    -0.14509    -0.34842     0.36194     0.11054    0.087149
0.042975   -0.067459    -0.19446    -0.33445     0.26644    0.070909      0.1219
0.029333   -0.096692    -0.24968    -0.30652     0.11443   -0.025884     0.16315
0.014068    -0.12073    -0.29807    -0.27793   -0.068434    -0.17724     0.19693
-0.0050961    -0.13762    -0.33478    -0.25747    -0.23506    -0.34062     0.21415
-0.026858    -0.14639    -0.35979     -0.2435     -0.3377    -0.46307      0.2122
-0.044073    -0.14736    -0.37083    -0.22597    -0.35426    -0.50173     0.19596
-0.052193    -0.14509    -0.37083    -0.19998    -0.31431    -0.44554      0.1742
-0.052518    -0.14152    -0.36498    -0.16977    -0.27696    -0.31431     0.14951
-0.047971    -0.13372    -0.35329    -0.13664    -0.29417    -0.15743     0.11573
-0.044398     -0.1204    -0.33315    -0.09182      -0.377   -0.035953    0.068635
-0.042124    -0.10059    -0.30165   -0.024909    -0.51699    0.015367     0.01017
-0.037577   -0.077203     -0.2552    0.070909    -0.67875    0.012768   -0.048296
-0.035953   -0.054467    -0.19738     0.17745    -0.81354   -0.010618   -0.095068
-0.038876   -0.041799    -0.13632     0.26352    -0.87558   -0.025234     -0.1256
-0.048945   -0.043423   -0.073306     0.31711    -0.84667   -0.015815    -0.14444
-0.062262   -0.052193  -0.0073698     0.34764    -0.73559   0.0026992    -0.15873
-0.077203    -0.05804    0.059865     0.37883    -0.57513   0.0056225     -0.1753
-0.089546   -0.055766     0.11736     0.43372    -0.40558   -0.022961    -0.19641
-0.095393   -0.046347     0.15341     0.52304    -0.27046   -0.077203    -0.22304
-0.095393   -0.028482      0.1638     0.64095    -0.20778    -0.13372     -0.2526
-0.092469  -0.0024977     0.15763     0.76372    -0.22272    -0.15158    -0.27664
-0.085324    0.025111     0.14626     0.85207    -0.28735   -0.095717    -0.27923
-0.075904    0.048497     0.13977     0.87156    -0.35037    0.048172     -0.2526
-0.06681    0.066686     0.14756     0.81179    -0.36498     0.26222    -0.20323
-0.055116    0.080003     0.17095     0.69032    -0.29905     0.51005    -0.14379
-0.037577     0.09462      0.2096      0.5448    -0.14866     0.74911   -0.084674
-0.013216     0.11476     0.25475     0.40481    0.058241     0.94627   -0.027833
0.016991     0.14269     0.29048     0.28138     0.27099      1.0807     0.02641
0.054668     0.17647     0.30477     0.16965     0.44704      1.1506    0.070259
0.096244     0.20895     0.28983    0.064088     0.58703      1.1717    0.096893
0.13197     0.23234      0.2515   -0.034654      0.7241      1.1616     0.11216
0.15731     0.24598     0.20408    -0.11131     0.88033      1.1265     0.12678
0.1729     0.25085     0.16673    -0.15029      1.0453      1.0586     0.14172
0.1781     0.24695     0.14724    -0.15678      1.1856     0.95633     0.15373
0.17127     0.23559     0.14821    -0.15288      1.2669     0.83843     0.15601
0.15438     0.21545     0.16153     -0.1662      1.2652     0.73611     0.14886
0.13067     0.18784     0.17452    -0.20972      1.1746      0.6744     0.13457
0.10014     0.15666     0.17355    -0.27404     0.99401     0.64517     0.11118
0.064737     0.12288     0.14594    -0.33413     0.74326     0.62048    0.080653
0.032257    0.088773    0.095594    -0.36498     0.46782     0.57793    0.047847
0.0078962    0.058891    0.033881    -0.35426     0.21642     0.52012    0.026085
-0.00022403    0.044599   -0.025884    -0.30847    0.014717     0.46945     0.02706
0.0069217    0.049796   -0.070707    -0.24708    -0.14216     0.43859    0.052395
0.021863    0.064413   -0.095393    -0.18536    -0.26429      0.4178    0.090072
0.034855    0.073507    -0.10351    -0.14379    -0.34095      0.3837     0.12093
0.038428    0.063763    -0.10514    -0.14574    -0.34062     0.32198     0.13262
0.033881    0.036479    -0.11066    -0.19771    -0.24708     0.23266     0.11768
0.029658   0.0065969     -0.1282    -0.28833   -0.078827     0.13262     0.07773
0.026085   -0.020362    -0.16263    -0.38739     0.11151    0.034855    0.020564
0.021213   -0.046996     -0.2172    -0.46178     0.25832   -0.052518   -0.031406
0.012768   -0.080127    -0.28508    -0.49068     0.30347    -0.12008   -0.056416
-0.00087364    -0.12235    -0.35491    -0.47217     0.23461    -0.15288   -0.040175
-0.01614    -0.16685    -0.41143    -0.42345    0.099817    -0.15093    0.015042
-0.025884    -0.19933    -0.44359    -0.36368   -0.030106    -0.13892    0.093645
-0.024585    -0.21265    -0.44261    -0.30327    -0.10319    -0.15451      0.1768
-0.011917    -0.20388    -0.41208    -0.24221    -0.11553    -0.21525     0.24208
0.011144    -0.17692    -0.35816    -0.18114   -0.099615    -0.32276     0.28301
0.040377    -0.14541     -0.2958    -0.13242   -0.098316    -0.45658     0.30087
0.071234    -0.12235    -0.23961    -0.11391    -0.14216     -0.5891     0.30022
0.095594    -0.11456     -0.2016    -0.13145    -0.24156    -0.69921     0.28203
0.10144    -0.12365    -0.18407    -0.17692    -0.37635    -0.78269      0.2476
0.084876    -0.14899    -0.17952    -0.23181    -0.50595     -0.8418     0.19986
0.046223    -0.18796    -0.18569    -0.27469     -0.5943    -0.87655     0.14237
-0.0028225    -0.22954    -0.19316    -0.29612    -0.62808    -0.89215    0.082277
-0.045697    -0.26007    -0.19316     -0.2997    -0.61151    -0.90027    0.034206
-0.071357    -0.27079    -0.18212    -0.29093    -0.57611    -0.91423   0.0046481
-0.079152    -0.25812    -0.15841    -0.26722    -0.55564    -0.96263   -0.013541
-0.07428    -0.22661     -0.1269    -0.22791    -0.56604      -1.064   -0.044073
-0.064536    -0.18569   -0.095068    -0.18861    -0.60177     -1.2046    -0.10968
-0.065186    -0.14736   -0.075904    -0.17984    -0.64367     -1.3615    -0.22499
-0.087922    -0.12495   -0.077528    -0.22369    -0.65926     -1.5047    -0.39584
-0.13892    -0.12398    -0.10059    -0.31042    -0.63262     -1.6096    -0.60859
-0.2081    -0.14119     -0.1308    -0.40493    -0.58001     -1.6574    -0.82653
-0.27274    -0.15776    -0.15256     -0.4621    -0.53583     -1.6334     -1.0036
-0.31334    -0.15353    -0.14866    -0.43709    -0.51504     -1.5372     -1.1091
-0.32308     -0.1191    -0.10968    -0.30749    -0.49653     -1.3777     -1.1332
-0.29872   -0.057065   -0.036602   -0.085973    -0.42442     -1.1647     -1.0796
-0.24156    0.022512    0.055968     0.18557    -0.24026    -0.90189    -0.95613
-0.15711     0.10501     0.14919     0.45386    0.065387    -0.59625    -0.77651
-0.062587     0.17777     0.22617     0.66985     0.42852    -0.26299    -0.56636
0.025436     0.23234     0.27326      0.8027     0.74586    0.069934    -0.35361
0.10144     0.26417     0.28983     0.84233     0.93522     0.36616    -0.16588
0.15926     0.27294     0.28561     0.80173     0.97063     0.60229  -0.0096434
0.20083     0.26384     0.27261     0.69974     0.87351     0.78061     0.11054
0.22097     0.24371     0.25832     0.55682      0.6822     0.92028     0.19758
0.22      0.2187     0.23786     0.39312     0.44379      1.0317      0.2567
0.20278     0.19466     0.20765     0.23299     0.21285      1.1148     0.29145
0.17485     0.16933     0.16868    0.095594    0.029333      1.1584     0.30347
0.14204     0.14269      0.1271  -0.0080194   -0.088572      1.1499     0.29762
0.11313     0.12028    0.091047    -0.07428    -0.13794      1.0846     0.28366
0.092671     0.10274     0.06896    -0.10968    -0.11943     0.96738     0.27294
0.079354    0.089748    0.058241     -0.1269   -0.043748     0.80887     0.27034
0.073832     0.07773     0.05207    -0.13404    0.055968      0.6273     0.27554
0.074482    0.060515    0.043625    -0.13762     0.13717     0.43697     0.28008
0.075456    0.032906    0.031607    -0.14249     0.16868      0.2528     0.27554
0.072533  -0.0015233    0.017316    -0.14476     0.14074    0.087474      0.2606
0.064088   -0.031406   0.0020496    -0.14541     0.06084   -0.045697     0.24111
0.048822   -0.053492   -0.012892    -0.14899   -0.053817    -0.14022     0.22682
0.029333   -0.067459   -0.026209     -0.1597    -0.19381    -0.20355     0.22259
0.0075714    -0.07428   -0.037577    -0.18277    -0.34744    -0.25292     0.22259
-0.01484   -0.078503   -0.046671    -0.21622    -0.48776    -0.29677     0.22292
-0.03303     -0.0837   -0.052518    -0.25325    -0.57871    -0.33478        0.22
-0.045372   -0.089871   -0.054467     -0.2867    -0.58878    -0.36044     0.21512
-0.053817   -0.095393   -0.046671    -0.30944    -0.50043    -0.36661      0.2057
-0.057715   -0.096042    -0.03238    -0.32146    -0.30489    -0.35329     0.19109
-0.060638   -0.086623   -0.016789    -0.32113   -0.012242    -0.33543     0.17452
-0.063886   -0.072006  -0.0028225    -0.30294     0.31776    -0.33413     0.16315
-0.066485   -0.058365   0.0091954    -0.26267      0.5945    -0.36498     0.15828
-0.063561   -0.049595    0.014068    -0.20258     0.74488    -0.42605     0.16153
-0.052843   -0.045372   0.0088706    -0.13307     0.74456     -0.4988      0.1703
-0.038227   -0.038876  -0.0031473   -0.060638     0.63023    -0.55727     0.17647
-0.024585   -0.026533   -0.018088    0.011144     0.46587    -0.57318     0.17615
-0.013866   -0.010618   -0.034654    0.078704     0.30704    -0.52966      0.1703
-0.0089938   0.0052977   -0.054467     0.13749      0.1716    -0.43254     0.16445
-0.011592     0.01894   -0.072981     0.18427    0.054668    -0.29937      0.1638
-0.01484    0.029658   -0.085973     0.21577   -0.052193    -0.16003     0.16608
-0.013866     0.03583   -0.085648     0.22292    -0.14574   -0.034978     0.16738
-0.0080194    0.039402   -0.072981     0.20018    -0.21752    0.065387     0.16348
0.00010078    0.038428   -0.051868     0.15309    -0.26494     0.13555     0.15211
0.0036737    0.033231   -0.029132    0.096893    -0.28995      0.1716      0.1336
0.0033489    0.029333   -0.011917    0.050121    -0.30197     0.16445     0.11346
-0.0018481    0.025761  -0.0018481     0.01894    -0.31431    0.094945    0.091372
-0.0073698    0.021538   0.0049729 -0.00087364    -0.33348   -0.037902    0.066037
-0.01484    0.015692    0.017316   -0.011592    -0.36238    -0.20355    0.040377
-0.027508   0.0065969    0.039727   -0.016789    -0.39941    -0.34679    0.017965
-0.044723  -0.0073698    0.075131   -0.014191    -0.43839    -0.41078   0.0036737
-0.069083   -0.028807     0.12353   -0.008669    -0.46113    -0.36368  -0.0031473
-0.097341   -0.055441     0.17485  -0.0044465    -0.45008     -0.2159  -0.0063954
-0.12463   -0.082076      0.2161  -0.0054209    -0.39649   -0.013216   -0.012892
-0.14509    -0.10286     0.23948  -0.0050961    -0.31009     0.18427   -0.027183
-0.15613    -0.11098     0.24208   0.0052977      -0.212     0.33205   -0.050894
-0.15678    -0.10968     0.22779    0.028684     -0.1243     0.42268   -0.076879
-0.15093    -0.10416      0.2057     0.06084   -0.060963     0.47757   -0.097666
-0.13989   -0.094093     0.18069    0.092346   -0.024585     0.52921    -0.10254
-0.12463   -0.075904     0.15731     0.11703  -0.0076946     0.59937   -0.085324
-0.10124   -0.048945     0.14204     0.13847   -0.013216     0.68967   -0.045697
-0.070707    -0.01484      0.1323     0.17355   -0.040825     0.77866   0.0056225
-0.038227    0.017316      0.1258     0.23559   -0.084674     0.83875     0.05207
-0.012567    0.040052     0.12028     0.32166    -0.13437     0.84947     0.07773
0.0010752    0.047198     0.11606      0.4204    -0.18049     0.81504    0.073182
0.0017248    0.038103     0.11443     0.50842    -0.22207     0.74586    0.039402
-0.008669     0.01829     0.10761     0.55747    -0.25065     0.66628   -0.017114
-0.02426  -0.0034721    0.095269     0.55487    -0.26039      0.5971    -0.07493
-0.0405   -0.013541    0.081303      0.5003    -0.24838     0.55065    -0.11131
-0.046022  -0.0099683    0.073182     0.41261     -0.2146     0.52986     -0.1191
-0.037902  0.00075039    0.076431     0.31679     -0.1688     0.52077    -0.10546
-0.019063    0.012443    0.091047     0.23136    -0.11553      0.5094   -0.081101
0.0069217    0.021863     0.11898     0.16413    -0.04862     0.48471   -0.057065
0.035505    0.033231     0.15861     0.11606    0.032257     0.43859   -0.042449
0.066686     0.05207     0.20473    0.086824     0.11313     0.36031   -0.042124
0.099492    0.078704     0.24988    0.073832     0.17777     0.24728   -0.055766
0.12678     0.11443     0.28528    0.079354      0.2109     0.10859    -0.08305
0.14302     0.15633     0.30834    0.096893     0.21415   -0.036927    -0.11943
0.14854     0.20083     0.31386     0.11118     0.19758    -0.17757    -0.15548
0.15016     0.24111      0.3051     0.10924      0.1716    -0.29807    -0.18244
0.15211     0.26904     0.28171    0.085525     0.14139     -0.3822    -0.19089
0.15503     0.28171     0.23818    0.041351     0.11281    -0.41565    -0.17822
0.15503     0.27814      0.1781   -0.019388    0.091047    -0.40786    -0.14964
0.15276     0.26644     0.10924   -0.086948    0.080653    -0.37505    -0.11651
0.15244     0.25605    0.039402    -0.15548    0.092996     -0.3299   -0.086298
0.1625     0.25443   -0.019063    -0.21525     0.12807    -0.27566   -0.057065
0.18167     0.26092   -0.059989    -0.24968     0.16933    -0.21817   -0.020037
0.20311     0.27164   -0.080451    -0.24123     0.19563    -0.17075    0.027385
0.21545     0.27586   -0.090196    -0.18147     0.19693    -0.14736    0.075781
0.20993     0.27099   -0.098965   -0.079152     0.17647    -0.15711     0.10631
0.18524     0.25345    -0.11423    0.048822     0.14854    -0.19673     0.10534
0.14691     0.22097    -0.13859      0.1742      0.1323    -0.25682     0.06961
0.10274     0.17452    -0.16945     0.27294     0.13717    -0.32568   0.0062721
0.06019     0.12158    -0.20225     0.33011     0.15568    -0.38837   -0.070707
0.022837     0.06896    -0.22986     0.34342      0.1677    -0.43124    -0.13794
-0.00087364    0.024461    -0.24708     0.32361     0.15276    -0.44131    -0.17237
-0.010618  -0.0089938    -0.25195     0.28073     0.10599    -0.41273    -0.16912
-0.013541   -0.030106     -0.2461      0.2174    0.037778    -0.35102    -0.14801
-0.022636   -0.045697    -0.23571     0.12385   -0.037577    -0.27793    -0.13437
-0.044723   -0.060638    -0.23116  -0.0080194    -0.10709    -0.21882    -0.14476
-0.072656   -0.077853    -0.23668    -0.16815    -0.16425    -0.18829    -0.17919
-0.09929    -0.09994       -0.25    -0.33023    -0.20485    -0.18049    -0.22369
-0.11715    -0.12398    -0.26072      -0.466    -0.23668    -0.18634    -0.25715
-0.12982    -0.14704    -0.26364     -0.5498    -0.26364    -0.19381    -0.26657
-0.13827     -0.1662    -0.26624    -0.57481    -0.28281    -0.19966    -0.25227
-0.14444    -0.18179    -0.26981    -0.54687    -0.28508    -0.20778    -0.21785
-0.14671    -0.19219    -0.27046    -0.49101    -0.26072    -0.21525    -0.16295
-0.14281    -0.19641     -0.2565    -0.43449    -0.20225    -0.21687   -0.086948
-0.12917    -0.18991    -0.22012    -0.39162    -0.11683    -0.21005   0.0052977
-0.10774    -0.17107    -0.16393    -0.35037   -0.025234     -0.2081    0.098193
-0.08305    -0.14444   -0.089221    -0.29937    0.044275    -0.23084     0.17582
-0.058365    -0.11651  -0.0057458    -0.23636    0.072858    -0.28833     0.22617
-0.033354   -0.086298    0.078379     -0.1688    0.058566    -0.37213     0.24533
-0.012242   -0.056416     0.15958    -0.10676    0.014717     -0.4556     0.23754
0.0039985   -0.029457     0.23494   -0.053492   -0.034004     -0.5066     0.21447
0.016991  -0.0063954      0.3012  -0.0057458   -0.061937    -0.50497     0.19239
0.027709    0.016666     0.34894    0.042975   -0.059339    -0.46243     0.18004
0.032582    0.039727     0.37201    0.091047   -0.041799    -0.40721      0.1755
0.032257    0.058891     0.37038     0.12548   -0.039201    -0.34874     0.17582
0.029009    0.076431     0.34375     0.13197   -0.071682    -0.27209     0.17745
0.026085    0.092996      0.3025     0.12515    -0.12333     -0.1662     0.17355
0.031282     0.11118     0.26157     0.15309    -0.13632   -0.044073     0.16088
0.048172     0.13067     0.23266     0.25962   -0.043099    0.072208     0.14074
0.071558     0.14367     0.21382     0.45158     0.17582     0.16835     0.11703
0.090722     0.14139     0.18914     0.69616     0.47172      0.2463    0.092671
0.090722     0.11248     0.13977      0.9349     0.75106     0.30964    0.063438
0.071234    0.059541    0.059216      1.1148      0.9284     0.35999    0.021213
0.044924  -0.0021729   -0.037252      1.2061     0.97257     0.40481   -0.029132
0.01894   -0.051219     -0.1256      1.2055     0.90696     0.45126   -0.068434
0.0017248   -0.079802    -0.19056      1.1259     0.77639     0.49901   -0.079152
-0.0047713   -0.088572    -0.23084     0.99726     0.60911     0.54935   -0.050569
0.003024   -0.082725    -0.25162     0.85077     0.42885     0.60457    0.014068
0.023162   -0.067784    -0.26007     0.69519     0.25865     0.66563    0.098517
0.05207   -0.050244    -0.26884     0.50972     0.12483     0.73611     0.18264
0.080978   -0.033354    -0.27793     0.27781    0.075456     0.81179      0.2502
0.10436   -0.021337    -0.27891    0.016016     0.14237     0.88812     0.29438
0.12028   -0.016789    -0.26169    -0.22791     0.28723     0.95211     0.31224
0.1271   -0.018413    -0.22434    -0.39746     0.43372     0.99856     0.30185
0.12255   -0.026533     -0.1714     -0.4595     0.51914      1.0372     0.26514
0.10436   -0.036927    -0.10221    -0.41825     0.51817      1.0846     0.21317
0.079679   -0.047646   -0.014516    -0.30522     0.44086       1.148     0.16185
0.055968   -0.058689    0.089748    -0.16035     0.31679      1.2149     0.12418
0.033881   -0.071032     0.19661   -0.012567     0.18654      1.2431     0.10859
0.011469   -0.079477     0.28496    0.099817    0.070909       1.174     0.11054
-0.011267   -0.083375     0.33043     0.14334   -0.027833     0.97647     0.11866
-0.026209    -0.08305     0.32036     0.10436    -0.11488     0.68512     0.12288
-0.026209   -0.073955     0.26157 -0.00022403    -0.18569     0.39117     0.12158
-0.010943   -0.055441     0.17874     -0.1334    -0.22434     0.18492     0.11833
0.011469   -0.025884    0.094945    -0.25845    -0.21525     0.11313     0.11248
0.03453    0.015042    0.032582    -0.35621    -0.15743     0.15828    0.095919
0.044924    0.059865  0.00010078    -0.42637    -0.06551      0.2606    0.063763
0.038753    0.097543  -0.0060706    -0.47867    0.033881     0.34797    0.015367
0.019589      0.1219  0.00075039    -0.51797     0.11151     0.36583   -0.034329
-0.0011985     0.13295   0.0065969    -0.54525     0.14399     0.29892   -0.070707
-0.015165      0.1336   0.0033489    -0.56247     0.12158       0.169   -0.086948
-0.018088      0.1271   -0.008669    -0.58228    0.043625    0.017316     -0.0824
-0.011267     0.11833   -0.023285    -0.61054   -0.081101     -0.1204   -0.059989
0.0023744     0.11411   -0.025884    -0.64042    -0.23506    -0.21817   -0.032705
0.021538     0.11963    -0.01484    -0.64464    -0.38902    -0.27436    -0.01549
0.045899     0.13067   0.0010752    -0.60567    -0.51504    -0.30392   -0.021337
0.064737     0.14074    0.013743    -0.53421    -0.59527    -0.32763   -0.050569
0.070584     0.14367    0.022188    -0.45593    -0.63165    -0.36206    -0.10319
0.055318     0.13522    0.028684    -0.39616     -0.6375    -0.41533    -0.17659
0.019589     0.11411    0.032257    -0.36271    -0.63197    -0.48126    -0.26559
-0.027508    0.084226    0.031932    -0.34679    -0.62418    -0.53258    -0.35264
-0.073631    0.056617    0.027709     -0.3299    -0.59754    -0.54428    -0.41533
-0.10709    0.036804    0.015692    -0.30359    -0.50433    -0.49913    -0.44326
-0.12463    0.023812  -0.0050961    -0.26819    -0.32373    -0.40461    -0.43287
-0.12852    0.012119   -0.037577    -0.22921   -0.092794    -0.30522    -0.39551
-0.12787  -0.0054209    -0.08305    -0.20096     0.12775    -0.24968    -0.34874
-0.12592   -0.032705    -0.14022    -0.19478     0.29308    -0.26429    -0.30912
-0.12398   -0.068434    -0.20258    -0.21687     0.39052     -0.3351    -0.28086
-0.12073    -0.10838    -0.26559    -0.26039     0.41878    -0.42897    -0.25942
-0.11813    -0.14249    -0.31464    -0.29937     0.39279    -0.51342    -0.23538
-0.11423    -0.16263    -0.34355    -0.30814     0.34115    -0.56247     -0.2029
-0.10611    -0.16782    -0.35004    -0.28118     0.29633    -0.56896     -0.1636
-0.09117    -0.16068    -0.34257    -0.23084     0.27456    -0.53778    -0.11651
-0.065835    -0.15093    -0.32795    -0.17854     0.27846    -0.47964   -0.063237
-0.032705    -0.14509    -0.31236    -0.14022     0.29827    -0.40883  -0.0063954
-0.0034721    -0.14801    -0.29937    -0.11521     0.31646    -0.34257    0.048822
0.012443    -0.15678    -0.29093   -0.096692     0.31192     -0.2997    0.097868
0.012443    -0.16523    -0.28605    -0.07493     0.27132    -0.29223     0.13002
0.0052977     -0.1636    -0.28216   -0.036278     0.20668    -0.32373     0.13814
-0.00022403    -0.14834    -0.27371    0.026735     0.15049    -0.38382     0.12678
0.0065969    -0.12495    -0.25195     0.11736     0.12645    -0.45138     0.10924
0.02706    -0.10026     -0.2107     0.23396     0.12937    -0.50368    0.096893
0.05142   -0.079802    -0.16165     0.35447     0.12385    -0.52414    0.098517
0.067661   -0.068434     -0.1217     0.43892    0.075131    -0.50725     0.11118
0.06831   -0.068434    -0.10709     0.45061   -0.032705    -0.45463     0.12353
0.050121   -0.081426    -0.12105     0.37688    -0.18082    -0.38155     0.12645
0.018615    -0.10124    -0.15483     0.23461    -0.33023    -0.31009     0.11313
-0.012892     -0.1217    -0.18829    0.063438    -0.45008    -0.25487    0.090397
-0.036602    -0.13372    -0.20485   -0.084349    -0.52869    -0.22142    0.070259
-0.046996    -0.13567    -0.19608    -0.16653    -0.57189    -0.19706    0.061814
-0.04927     -0.1308    -0.16653    -0.16847    -0.58748    -0.16945     0.06896
-0.048945    -0.11943    -0.13145    -0.11553    -0.58001    -0.12982    0.087799
-0.045372    -0.10254    -0.10124   -0.046671    -0.54882   -0.081101     0.10826
-0.036278   -0.085648    -0.07493    0.012443    -0.49198   -0.040175     0.12483
-0.024909   -0.073306   -0.046996    0.055318    -0.41955   -0.029457     0.13457
-0.016789    -0.06616   -0.010943    0.087799    -0.34647   -0.062262     0.13522
-0.013541    -0.06551    0.029658     0.11703    -0.29093    -0.13404     0.12385
-0.017764   -0.071357    0.067011      0.1362     -0.2591    -0.22889     0.10501
-0.025559   -0.084024    0.095269     0.13717    -0.25098    -0.33153    0.082277
-0.035303    -0.10026      0.1206     0.12418    -0.25975    -0.43741    0.065062
-0.044723    -0.11261     0.15568     0.11151    -0.27761    -0.55142    0.056942
-0.051868    -0.11943     0.19921     0.11346    -0.29547    -0.67387    0.057917
-0.053817    -0.11813     0.24663      0.1362     -0.2997    -0.79795    0.066362
-0.050244    -0.10416     0.28788     0.18849    -0.28183    -0.92203    0.075131
-0.039526   -0.074605     0.31159     0.27034    -0.24448      -1.039    0.078379
-0.020687   -0.033679     0.30964     0.37136    -0.19511     -1.1309    0.076431
0.00075039   0.0091954     0.28496      0.4714    -0.14931     -1.1741    0.074806
0.022188    0.045899      0.2502     0.55357    -0.12105     -1.1452    0.080978
0.042001    0.074157     0.22129     0.60587    -0.11553     -1.0367     0.10209
0.059216    0.097218     0.21447     0.62113    -0.11748    -0.86454     0.13749
0.079354     0.11931     0.24078     0.60294   -0.098965    -0.65471     0.17517
0.10566     0.14204     0.29113     0.56364   -0.046996    -0.43287     0.20473
0.13392     0.15893     0.34472     0.51849     0.02706    -0.21687     0.22519
0.15796      0.1651     0.37623     0.47724     0.09462   -0.021986     0.24176
0.17257      0.1651     0.37298     0.43957     0.12775     0.13977     0.25507
0.17907     0.16575     0.33595     0.39994     0.10956     0.24501     0.25832
0.17907     0.17225     0.27684     0.35219    0.046548     0.27261      0.2463
0.17127     0.18524     0.21252     0.29665   -0.041799     0.23591      0.2135
0.15601     0.20343     0.15796      0.2463    -0.12755     0.18557     0.16445
0.13652     0.22844     0.12125      0.2148    -0.19219     0.17842    0.098842
0.11833      0.2606     0.11054      0.2096    -0.23279      0.2515    0.019589
0.10696     0.29827     0.12645     0.22714    -0.25227     0.40773   -0.060638
0.10209       0.334     0.16023     0.25702    -0.24903     0.61951    -0.13145
0.10274     0.35674     0.19563     0.29697    -0.21395     0.83648    -0.18407
0.10631     0.35901     0.22065     0.34797    -0.14346      1.0151    -0.21135
0.11118     0.34245     0.22812     0.40059   -0.052843      1.1265    -0.20972
0.11476     0.31192     0.21675     0.43697    0.021213      1.1746    -0.18244
0.11118     0.27294     0.18751     0.43989    0.056617      1.1824    -0.13534
0.095919     0.22682     0.14399     0.40319    0.051745      1.1805   -0.087597
0.070259     0.17777    0.090072     0.33952    0.028359      1.1843   -0.060963
0.039727     0.13035    0.032257     0.26904    0.018615      1.1876   -0.062912
0.011144    0.090722   -0.020687     0.19953    0.043625      1.1558   -0.086298
-0.010618    0.062789   -0.058365     0.12515    0.099492      1.0479    -0.11521
-0.022961    0.049472   -0.076554    0.031607     0.16478     0.85142    -0.13892
-0.022636    0.051096   -0.077528   -0.085324     0.21967     0.60002    -0.14671
-0.012892    0.059216   -0.072006    -0.21492     0.24923     0.36031    -0.13567
-0.0037969    0.064413   -0.071357    -0.34062     0.25345     0.19531    -0.10774
-0.0067202    0.057917   -0.082725    -0.44846     0.23754     0.15016   -0.070058
-0.021986     0.03583    -0.10416    -0.53291       0.207     0.22584   -0.027833
-0.043423   0.0023744    -0.12592    -0.59495     0.17355     0.38565    0.013743
-0.063237   -0.032055    -0.13729     -0.6362     0.15698     0.56332    0.048822
-0.07493   -0.053168    -0.13047    -0.65958     0.17517     0.69649    0.075131
-0.079152   -0.057715    -0.10611    -0.66835     0.22584     0.74488    0.092671
-0.080127   -0.049595   -0.076229    -0.66673     0.28268     0.69941     0.10047
-0.081751   -0.038227   -0.055766    -0.65698     0.32751     0.56624     0.09462
-0.086623   -0.028807   -0.050894    -0.63685     0.37298     0.37201    0.078704
-0.094743   -0.028157   -0.059989    -0.60826     0.43534     0.16673    0.061814
-0.097341   -0.033679   -0.069408    -0.58715     0.49706   0.0072465     0.05142
-0.096042   -0.039851   -0.070707    -0.59819     0.51784     -0.0824    0.047198
-0.094093   -0.049595   -0.061937    -0.65081     0.45873    -0.11845    0.044275
-0.10059   -0.061937   -0.042124    -0.72519     0.30867    -0.13664    0.029333
-0.11748   -0.074605   -0.013216    -0.77944    0.089098    -0.16782  -0.0057458
-0.14087   -0.085973    0.018615    -0.77164    -0.14736     -0.2133   -0.059339
-0.16393   -0.091495    0.054993    -0.67128    -0.32666    -0.25098     -0.1269
-0.17627   -0.081751     0.10014    -0.47184    -0.38187    -0.24578    -0.19608
-0.17335   -0.053817     0.14984    -0.20485    -0.29028    -0.17854     -0.2552
-0.14899   -0.012567     0.19271    0.079679   -0.095393   -0.057065     -0.2932
-0.10384    0.035505     0.21415     0.33433     0.11346    0.090072    -0.30035
-0.043099    0.083901     0.20863     0.52564      0.2489     0.23461    -0.27566
0.025111     0.13392     0.18459     0.62178     0.28041       0.347    -0.22791
0.091696     0.18816     0.15828     0.60035     0.22941     0.40643    -0.17367
0.15081     0.24176     0.13782     0.47562     0.14107     0.39442    -0.13567
0.19693     0.28528     0.12807      0.2934    0.055643     0.31679     -0.1243
0.23039     0.30867      0.1258     0.10696  -0.0044465     0.20603    -0.13437
0.2502     0.31289     0.12775   -0.035953   -0.048945     0.11411    -0.15223
0.25572     0.30834      0.1323   -0.096692   -0.098641    0.080003     -0.1675
0.2489     0.30022     0.14334   -0.061613    -0.16782     0.11411    -0.17789
0.23266     0.28626     0.16608    0.054019    -0.26364     0.18687    -0.17757
0.20538     0.26255     0.19921      0.2109    -0.37862     0.25118     -0.1662
0.1664     0.22552     0.23299     0.35966    -0.47867     0.27261    -0.13892
0.12353     0.18232     0.25735     0.46458    -0.51634      0.2476   -0.095393
0.086824     0.14399     0.27716     0.51005     -0.4621     0.19206   -0.039201
0.06019     0.11638     0.30022     0.51102    -0.32503     0.12613    0.021213
0.044924    0.098193     0.33238     0.49641    -0.14314    0.062464    0.078704
0.039078    0.086175     0.36129     0.48991    0.054019  -0.0015233     0.12288
0.040052    0.075781      0.3798     0.50615     0.24468   -0.070707     0.15276
0.048497    0.067336     0.38272      0.5448     0.42203    -0.14346     0.17257
0.060515    0.061489     0.36226     0.58898     0.58053    -0.21362     0.18557
0.069934    0.058241     0.30834     0.61594     0.70981    -0.27761     0.19206
0.072858    0.054668     0.22292     0.60424      0.8001    -0.33413     0.19369
0.067661    0.047198     0.11476     0.54643      0.8524    -0.38252     0.19076
0.05142    0.031607   0.0017248     0.45386      0.8498    -0.42572     0.18881
0.025111   0.0052977    -0.10124     0.34115     0.75495    -0.47347     0.19206
-0.007045    -0.03303    -0.18796     0.22422     0.54805    -0.53063     0.19628
-0.039201   -0.079152    -0.25812     0.12613     0.26287    -0.59527     0.19076
-0.06681    -0.12333    -0.31691    0.057592   -0.025234    -0.66348     0.17257
-0.087272    -0.16263    -0.36823    0.010819    -0.23474    -0.73299     0.14789
-0.10416    -0.19933    -0.41078   -0.027833    -0.32081    -0.79763      0.1297
-0.12073    -0.23441    -0.44001   -0.072006    -0.28963    -0.84992     0.12158
-0.13794    -0.26689    -0.45301    -0.13112    -0.18699    -0.87883     0.11995
-0.15386    -0.29223    -0.44976    -0.19966   -0.076879    -0.88045     0.11768
-0.16035    -0.30977    -0.43449    -0.26462   -0.013541    -0.85512     0.10924
-0.15483    -0.31691    -0.40981    -0.32178   -0.012892    -0.79828    0.092671
-0.13567    -0.31594    -0.38772    -0.36856   -0.059014    -0.70571    0.078055
-0.10319    -0.30684    -0.37375    -0.40331    -0.11586    -0.57936    0.074157
-0.062587    -0.29125    -0.36628    -0.42735    -0.15353    -0.42832    0.089748
-0.021986    -0.27371    -0.35589    -0.44261     -0.1636    -0.26819     0.12093
0.010819    -0.25357    -0.33737    -0.45106     -0.1597    -0.12268     0.15244
0.030633    -0.23279    -0.31561    -0.45625     -0.1636   -0.011592     0.16868
0.039727    -0.21849    -0.30067    -0.45528    -0.17984    0.054993     0.16478
0.03583    -0.21947     -0.2997    -0.44846    -0.18634    0.086175     0.14367
0.013093    -0.23766    -0.31789    -0.43254    -0.16653     0.10339     0.11378
-0.025884    -0.26657    -0.34972    -0.40656    -0.12625     0.12125    0.082602
-0.069733    -0.29677    -0.38187    -0.37213   -0.092794     0.14367    0.056292
-0.10871    -0.31983    -0.40201    -0.33575   -0.077203     0.15666    0.037778
-0.13404    -0.33023    -0.40071    -0.30554   -0.073955     0.14951    0.030957
-0.14346    -0.32536    -0.37733    -0.29255   -0.060638     0.13165    0.043625
-0.13469    -0.30587    -0.33478    -0.29645   -0.033354      0.1284    0.079354
-0.11293    -0.27339    -0.27891    -0.30587  -0.0057458     0.15828     0.13067
-0.081751    -0.22824     -0.2159    -0.30717 -0.00022403     0.20765     0.18622
-0.042449    -0.17724    -0.15029    -0.29775   -0.033679     0.24825     0.23526
-0.0018481    -0.12527   -0.086623    -0.28573    -0.10838     0.24695     0.26417
0.031932   -0.078503   -0.033354    -0.27631    -0.21265     0.19011     0.26709
0.05272   -0.041799   0.0026992    -0.26916    -0.32795    0.086175     0.23948
0.055968   -0.016789    0.016991    -0.25812    -0.43677    -0.04927     0.19011
0.044924  -0.0050961   0.0085458    -0.23896    -0.53323    -0.20745     0.13425
0.020239  -0.0031473   -0.018738    -0.21135    -0.62093    -0.36888    0.081952
-0.0093186  -0.0050961   -0.059339    -0.17692      -0.707    -0.49361     0.03583
-0.03303  -0.0060706    -0.10124    -0.14184    -0.78756     -0.5446  -0.0041217
-0.041799  -0.0018481    -0.13729     -0.1204    -0.83076    -0.50725   -0.043748
-0.036602    0.009845    -0.15743    -0.11553    -0.78496     -0.3848   -0.081751
-0.022961    0.024786    -0.15353    -0.11098    -0.59657    -0.19803    -0.11651
-0.0054209    0.041351    -0.12008   -0.078503     -0.2591    0.016666    -0.14834
0.0095202    0.054668   -0.056416 -0.00054884     0.15893     0.21025    -0.18017
0.014717    0.064413    0.026085     0.12125     0.54285     0.34959    -0.21849
0.013418    0.074482     0.11541     0.27164     0.79198     0.42462    -0.26234
0.011794    0.088448     0.19921     0.42495     0.86571     0.44444    -0.30327
0.014392     0.11086     0.26449     0.55162     0.79231     0.42917    -0.33283
0.022188     0.14237     0.31192     0.62893     0.65134     0.39799    -0.35004
0.033231     0.17972     0.34212     0.65556     0.51752     0.35836    -0.36238
0.046223     0.21577     0.36291     0.64517     0.43664     0.29762    -0.37733
0.057917     0.24533      0.3811     0.61561     0.41488     0.20635    -0.39811
0.062464     0.26384     0.40514     0.58183     0.43339     0.11054    -0.41663
0.057267     0.27229     0.43145     0.55325     0.46815     0.06019    -0.42052
0.048497     0.26937     0.44704     0.53733      0.5081     0.10339    -0.39746
0.040377     0.25767     0.43957     0.53701     0.55097     0.25183    -0.33867
0.037454     0.24403     0.40676     0.55162     0.59677     0.47464    -0.24805
0.045249     0.22877     0.35999     0.57404     0.64484     0.71143    -0.14054
0.062789     0.21252     0.30802      0.5958      0.6822     0.89884   -0.036602
0.081952     0.19466     0.25443     0.60652     0.68577     0.99239    0.049796
0.098517     0.17192     0.19791      0.5984     0.64582      0.9755     0.11508
0.10859     0.14334     0.13879     0.56429     0.56721     0.86246     0.15666
0.11021     0.10729    0.081952     0.51167     0.46165     0.69292     0.18134
0.10112    0.069285     0.03518     0.45191     0.33335     0.51005     0.19336
0.0865    0.042001   0.0062721     0.39539     0.18881     0.34245     0.19499
0.073507    0.032582  -0.0028225     0.34082     0.03583     0.19239     0.18816
0.067336    0.039402   0.0059473     0.28171    -0.11163    0.054993       0.169
0.064413    0.055643    0.024461     0.22292    -0.24091   -0.077853     0.13879
0.058891    0.073182      0.0433      0.1781    -0.34192    -0.20908     0.10794
0.047523    0.081627    0.060515     0.15601     -0.4176    -0.33185    0.091696
0.032582    0.081952    0.076431     0.15081    -0.48354    -0.43514    0.086824
0.01764    0.076755    0.091047     0.15146     -0.5537    -0.50692    0.089748
0.01017    0.074806     0.10371     0.15536    -0.61703    -0.54623    0.095919
0.012443     0.07773     0.10891      0.1625    -0.64172    -0.57124     0.10371
0.016991    0.078379    0.098842     0.15633     -0.5956    -0.61443     0.10859
0.015692    0.067986    0.066686     0.10534    -0.47249    -0.70083     0.10404
0.0033489    0.042651    0.013743   -0.011592    -0.29255    -0.82329    0.091372
-0.020687   0.0036737    -0.04992    -0.17887    -0.10286    -0.94087    0.073507
-0.050244   -0.045047    -0.11001    -0.35621     0.03518     -1.0023    0.056617
-0.076229   -0.095717    -0.15516    -0.49815    0.065387     -0.9688    0.044924
-0.092145    -0.13859    -0.17594    -0.57221   -0.022311      -0.834    0.044599
-0.095068    -0.16263    -0.17432     -0.5826    -0.17952    -0.62938    0.056617
-0.082076     -0.1649    -0.16035    -0.55694    -0.33543    -0.39941    0.075781
-0.052843    -0.14509    -0.14476    -0.52057    -0.44326    -0.18407    0.096244
-0.017439    -0.11033     -0.1334    -0.49133    -0.49491   -0.017764     0.10761
0.011469   -0.071357    -0.12787    -0.47704    -0.51342    0.079679    0.096893
0.022188     -0.0405    -0.12495    -0.47704    -0.52674     0.10274    0.056617
0.012443    -0.02426    -0.12527    -0.48679    -0.54298    0.067661  -0.0096434
-0.012242   -0.027183    -0.12885     -0.5053    -0.54947  0.00042559   -0.092469
-0.04862    -0.04862    -0.14022    -0.53518    -0.52609   -0.077528    -0.17822
-0.089221   -0.079152    -0.16165    -0.57936    -0.46307    -0.15711    -0.25357
-0.1256    -0.10481    -0.18991     -0.6297    -0.36661    -0.22856    -0.30652
-0.15288    -0.11683    -0.21362    -0.67615    -0.24773    -0.27404    -0.32795
-0.1662    -0.11553    -0.22304    -0.70083    -0.12008    -0.27339    -0.31496
-0.1636    -0.10968    -0.21947    -0.69564  -0.0047713    -0.20583    -0.26851
-0.14866    -0.10579    -0.21102    -0.65893    0.071558   -0.070707    -0.19706
-0.13015    -0.10546     -0.2029    -0.58813     0.10112     0.10306    -0.12073
-0.11196    -0.10319    -0.19738    -0.47672    0.099817     0.26319   -0.066485
-0.095068   -0.095068    -0.19381    -0.32081    0.086824     0.35966   -0.043423
-0.074605    -0.08305    -0.18894    -0.12852     0.06961     0.36973   -0.039851
-0.053817    -0.06616    -0.17822    0.073832    0.046548     0.30315   -0.034654
-0.037577   -0.047646    -0.15483     0.26839    0.015042     0.18589    -0.01549
-0.027183   -0.027833    -0.11131     0.44834   -0.024585    0.061165    0.021213
-0.020687  -0.0050961   -0.043748     0.61529    -0.05739   -0.035953    0.067011
-0.010618    0.023487    0.044599      0.7634   -0.061288   -0.080776     0.11703
0.008221    0.058891     0.14756     0.88163   -0.027183   -0.070058     0.17127
0.034855    0.098842     0.25345     0.96121    0.022837   -0.021012     0.22389
0.066037     0.13522     0.34537      1.0054    0.044599    0.044924     0.26612
0.093321     0.16575     0.41033      1.0314    0.013093     0.10924     0.28658
0.11216     0.18622     0.44963      1.0544   -0.067459     0.15991     0.27456
0.12223     0.19693     0.46555      1.0619    -0.17302     0.18784     0.23169
0.11931     0.19628     0.45451      1.0249    -0.27339     0.19921     0.17355
0.10631     0.18589      0.4152     0.91898    -0.34679       0.207     0.11573
0.091696      0.1703     0.34829     0.73969    -0.38252     0.21707     0.06084
0.079354     0.15503     0.26222     0.50355    -0.38999     0.22747   0.0072465
0.069285     0.14302     0.17095     0.24436    -0.38772     0.23689    -0.04927
0.059865     0.13684    0.087474   0.0078962     -0.3822     0.24273    -0.09994
0.05272     0.13587    0.021863     -0.1662    -0.36401     0.24468    -0.12917
0.049796     0.13814   -0.021337    -0.26657    -0.31691     0.23916     -0.1308
0.047523     0.14204   -0.045372    -0.31204    -0.23279     0.22617    -0.11456
0.046548     0.14204   -0.056416     -0.3286    -0.12105     0.20993   -0.096367
0.048822     0.13749   -0.058365    -0.33088  -0.0037969     0.19466   -0.087597
0.059865       0.131   -0.053817    -0.31918    0.098517     0.18751   -0.088572
0.079679     0.12645   -0.045372    -0.29547     0.17647     0.18881   -0.088572
0.10144     0.12743   -0.028157    -0.27079     0.22682     0.19336   -0.076879
0.11736      0.1297  -0.0057458    -0.25357       0.258     0.19304   -0.044723
0.12483     0.13067    0.016991    -0.24968     0.27716     0.17615   0.0072465
0.12353     0.12678    0.041676     -0.2565     0.28885     0.14237     0.06831
0.11638     0.11768    0.075456    -0.26884     0.29633     0.10274     0.12418
0.10826     0.10826     0.12028    -0.27891      0.3038    0.065712     0.16673
0.10112     0.10436       0.169    -0.28216     0.31744    0.037454     0.19628
0.095594     0.11248     0.21707    -0.27599     0.33758    0.021538     0.21642
0.092996     0.13457     0.25475    -0.26722     0.35739    0.022512     0.22227
0.093645     0.16673     0.27846    -0.26851     0.35966    0.042001      0.2109
0.09462     0.19791      0.2895    -0.28313     0.33563    0.074482     0.18459
0.092346     0.21772     0.28561    -0.30554     0.28528     0.10826     0.15049
0.084876     0.21935     0.26157     -0.3325     0.22162     0.13197      0.1206
0.073182     0.20278     0.21577    -0.36044      0.1664     0.14432     0.10371
0.056942     0.17355     0.14756    -0.38967     0.13197     0.14756     0.10144
0.037454     0.13425    0.065062    -0.41858     0.12353     0.14951     0.10891
0.01764    0.092671   -0.020687    -0.43936     0.12905     0.14756     0.11346
-0.0021729    0.051745   -0.093444    -0.43871     0.13197     0.13847     0.10436
-0.017439    0.016341    -0.13827    -0.39389     0.11995     0.12158    0.081952
-0.029132   -0.010618    -0.15061     -0.2893    0.087799     0.10664    0.055643
-0.037902   -0.029132    -0.13632    -0.13794    0.042975     0.10339    0.035505
-0.04927   -0.041799    -0.10676     0.01764  -0.0028225     0.11281    0.027709
-0.06616   -0.053168   -0.072656     0.13457   -0.042774      0.1258    0.032906
-0.089221   -0.072331   -0.045697     0.18622   -0.072331       0.131    0.046548
-0.11131    -0.10156   -0.035303     0.16088   -0.084349     0.11671    0.062789
-0.12495    -0.13112   -0.041799    0.071234   -0.075255    0.075131    0.073182
-0.12463    -0.14834   -0.052193   -0.052518   -0.047646   0.0020496    0.075131
-0.11033    -0.14152   -0.056416     -0.1636  -0.0037969    -0.11391    0.064413
-0.086948    -0.11553    -0.04992    -0.22791    0.050771     -0.2893    0.039727
-0.063237   -0.079152   -0.043748    -0.22661     0.10566    -0.51927   0.0023744
-0.045697   -0.040825   -0.050244    -0.16815     0.15049     -0.7606   -0.041799
-0.035628  -0.0073698   -0.073955   -0.073631     0.18134    -0.94639   -0.080776
-0.030431    0.013093    -0.11163    0.021213     0.19336     -1.0279    -0.10189
-0.022961    0.014392    -0.14996    0.083576     0.17842    -0.99608    -0.10091
-0.008669  -0.0063954    -0.17562     0.10014     0.13425    -0.88175   -0.085324
0.01017     -0.0405    -0.17984    0.076755    0.070584    -0.72487   -0.062587
0.024461   -0.071032    -0.16003    0.038103   0.0072465    -0.55824   -0.040825
0.028684   -0.086948    -0.11131    0.011794   -0.039851    -0.39811   -0.025559
0.021863   -0.085324   -0.036602    0.012443   -0.065186     -0.2448    -0.01549
0.008221   -0.068109    0.056292    0.041027   -0.078827    -0.10059  -0.0083442
-0.0076946   -0.041799     0.15406    0.081952    -0.10026    0.023487  -0.0021729
-0.019388   -0.015815     0.23559     0.11378    -0.14054     0.12255    0.003024
-0.021986   0.0062721     0.28008     0.11606    -0.19219      0.2083    0.012443
-0.012567    0.027385     0.27619    0.072533    -0.23019     0.29178    0.030308
0.0085458    0.053044     0.22617   -0.018088    -0.22824     0.37493    0.055643
0.039078    0.076755     0.15049    -0.12787    -0.16555     0.46003    0.082602
0.068635    0.092346     0.06961     -0.2094   -0.051219      0.5435    0.097543
0.090722    0.093645  0.00075039    -0.23506    0.065062     0.61724    0.093321
0.098193    0.078379    -0.04862    -0.21037      0.1232     0.66076    0.072858
0.090397    0.055318   -0.079802    -0.15905    0.089098     0.65881    0.044924
0.073832    0.037129   -0.096042   -0.097341   -0.019388     0.60392    0.016016
0.06019    0.029983    -0.09929   -0.030756    -0.14119     0.51102   -0.007045
0.052395    0.032257   -0.096692    0.045249     -0.2107     0.40286   -0.023285
0.046873    0.033556   -0.096692     0.13684    -0.19413     0.28073   -0.039851
0.037778     0.02706    -0.10351     0.24046    -0.10124     0.12028   -0.068109
0.023162   0.0075714    -0.10871     0.33563     0.02706    -0.11845    -0.11196
0.0049729   -0.021661    -0.10351     0.40026     0.13522    -0.44683     -0.1597
-0.0093186   -0.056091   -0.090845     0.41423     0.18037    -0.82166    -0.19348
-0.017764   -0.085973    -0.08305     0.37785     0.15601     -1.1604    -0.20713
-0.022636    -0.11358   -0.089546     0.31094    0.088124     -1.3742    -0.20355
-0.029457    -0.13924    -0.11391     0.23754    0.011469     -1.4024    -0.18796
-0.04115    -0.16165    -0.14931     0.17127   -0.055441     -1.2423    -0.16555
-0.05739    -0.18049    -0.18926     0.11638    -0.11261    -0.94801    -0.14899
-0.075255    -0.19673    -0.22597    0.068635    -0.16263    -0.59982    -0.14801
-0.091495    -0.21427    -0.25098    0.020888    -0.20453    -0.27469    -0.15548
-0.10449    -0.23571    -0.26137   -0.024585    -0.23246   -0.010293    -0.15743
-0.10741    -0.25747    -0.26332   -0.055116    -0.24318     0.19499    -0.14444
-0.097666    -0.27111    -0.26299    -0.05804    -0.23928     0.35674     -0.1191
-0.072656    -0.27241    -0.26364   -0.031406    -0.21947     0.48439   -0.084674
-0.040825    -0.26624    -0.26299     0.01894    -0.17367     0.59028   -0.042449
-0.013866    -0.25845    -0.26072    0.086175   -0.084349     0.69259   0.0052977
0.0017248    -0.25195    -0.25715     0.15763    0.037454     0.81082    0.056617
0.0078962     -0.2474    -0.25552      0.2187     0.16185     0.94691    0.099492
0.0085458    -0.24286    -0.25617     0.25215     0.24955      1.0687     0.11411
