-0.01484    0.025436   0.0078962    0.040052    -0.35556   -0.018088     0.15049
-0.0099683    0.050771    0.013093    0.033881    -0.29612   -0.041799     0.14432
-0.0028225    0.070909    0.022188    0.028359    -0.26527   -0.097341      0.1323
0.0056225    0.082277    0.028684    0.021213     -0.2513    -0.17887     0.11476
0.015042    0.083251    0.025111    0.014392     -0.2448    -0.26462    0.098193
0.023162    0.075131    0.010819     0.01017    -0.23798     -0.3351      0.0852
0.028034    0.063763   -0.010293    0.012768    -0.22304    -0.38415    0.076431
0.030957    0.054344   -0.027833    0.020888    -0.18926    -0.41305    0.072533
0.031282    0.050121    -0.03303    0.031607    -0.12982    -0.43319    0.072858
0.029333    0.054344   -0.031406    0.037454   -0.047971    -0.45008    0.072208
0.026085    0.065062   -0.028157    0.033231    0.047198    -0.46632    0.067011
0.022837    0.077405   -0.025234    0.013093     0.13912    -0.48159    0.059216
0.021213    0.084876   -0.025559   -0.026209     0.20018    -0.49945    0.050121
0.023487    0.081952   -0.028157   -0.075904     0.20505    -0.52186    0.038428
0.031607    0.070259   -0.030756    -0.12105     0.15666    -0.54428    0.021538
0.038428    0.059541    -0.03173    -0.15158    0.078379    -0.56019   0.0049729
0.040052    0.055318    -0.03173    -0.16458    0.013418    -0.56084  -0.0073698
0.038428    0.056292   -0.032055    -0.16295  -0.0044465    -0.53291   -0.016464
0.038103    0.062464   -0.029782    -0.14541    0.045574    -0.46892   -0.022311
0.040377    0.072533   -0.023285    -0.10936     0.15763    -0.38025    -0.02361
0.050121    0.086175   -0.010943   -0.056091     0.29957    -0.30035   -0.019063
0.071558     0.10209   0.0052977   0.0069217     0.43567    -0.25682   -0.013541
0.098193     0.11768    0.024137    0.067011     0.54383    -0.26754  -0.0093186
0.12158       0.131    0.041351     0.11606     0.61139    -0.32276   -0.012242
0.13684     0.13555    0.055318     0.14951     0.63965    -0.39454   -0.021337
0.14042      0.1258    0.063113     0.16803     0.62308    -0.45138   -0.036602
0.12905     0.10566    0.066686     0.17485     0.53831    -0.47347   -0.058365
0.10891    0.079679    0.064088     0.17322     0.36746    -0.44716   -0.083375
0.0865    0.050121    0.055968     0.16478     0.12678    -0.36953    -0.10481
0.069934    0.020239    0.048822     0.15341    -0.12755    -0.24935    -0.11456
0.059216 -0.00087364      0.0433     0.14269    -0.33867    -0.10774    -0.10709
0.054019  -0.0050961    0.041676     0.13555    -0.47932    0.032582   -0.087922
0.05272   0.0056225    0.043625     0.13197     -0.5433     0.14496   -0.070707
0.051745     0.02641    0.049147     0.13392    -0.53811     0.20668   -0.058689
0.048497    0.047847    0.056942     0.14204    -0.47249      0.2122   -0.053168
0.045249    0.060515    0.062789     0.15536    -0.36011     0.17939   -0.056741
0.044599    0.066362    0.061814     0.16835    -0.22044     0.14302   -0.062262
0.047847    0.069934    0.049796      0.1742   -0.078503     0.14042   -0.067134
0.054019    0.076106    0.028359     0.16445    0.045249     0.18914   -0.065835
0.062789    0.082602   0.0036737     0.14204     0.13652     0.27846   -0.057065
0.06961    0.086175   -0.018088     0.11443     0.19174     0.37818   -0.042774
0.07708      0.0865   -0.033679    0.090072     0.21935     0.45678   -0.025884
0.086175    0.084876   -0.041799    0.072858     0.22812     0.48894   -0.011917
0.092346      0.0852   -0.040825    0.064413     0.22844     0.46458  -0.0057458
0.093645    0.090397   -0.028482     0.06019     0.22292     0.37233  -0.0083442
0.090397    0.097543  -0.0083442    0.054993     0.21025     0.21252   -0.017439
0.079354     0.10371    0.012119    0.042326     0.18881  0.00042559   -0.030756
0.062464     0.10404    0.031607    0.026735     0.15926    -0.23961   -0.044073
0.044599    0.094945    0.049796    0.011144     0.11541    -0.48419   -0.056416
0.029658    0.075456    0.065062  -0.0011985    0.056292    -0.71513   -0.068758
0.015367    0.053694    0.078055   -0.011592  -0.0060706    -0.91586   -0.086948
0.0020496    0.036154    0.085525   -0.018088   -0.054792     -1.0744    -0.10903
-0.0089938    0.024786    0.083576   -0.022311   -0.084349     -1.1884     -0.1256
-0.017439    0.023812     0.07708   -0.018738   -0.093119     -1.2507     -0.1256
-0.019712    0.033556    0.075781  -0.0067202   -0.091495     -1.2566    -0.10709
-0.017439    0.047847    0.091696   0.0091954    -0.10579     -1.2043   -0.075255
-0.016789     0.06019     0.12548    0.015692    -0.15905     -1.1098   -0.038551
-0.019712     0.06896     0.16543   0.0052977    -0.25682    -0.99738  -0.0080194
-0.028157    0.073182     0.19369   -0.020687    -0.37343    -0.89897    0.012119
-0.037252    0.073507     0.19109   -0.047971     -0.4699    -0.85252    0.020564
-0.044073    0.069934     0.15276   -0.059989    -0.51569     -0.8824    0.021538
-0.046347     0.06961    0.090072    -0.04862    -0.50433     -0.9636    0.022837
-0.0405    0.076431     0.02706   -0.017114    -0.44586      -1.036    0.032582
-0.030431     0.08585   -0.011592    0.020888    -0.36076     -1.0412    0.054019
-0.019712    0.091372   -0.011267    0.046548    -0.27469    -0.94314    0.082277
-0.014191    0.089748     0.02641    0.048172    -0.20193    -0.74111     0.10859
-0.017114    0.076431    0.080328    0.030957    -0.14639    -0.46437     0.12483
-0.025884    0.051096      0.1206   0.0010752    -0.10644    -0.14314     0.13067
-0.034978    0.019914     0.13035   -0.034004   -0.075904     0.20603     0.12807
-0.041799   -0.011917     0.11086   -0.067459   -0.053168     0.56916      0.1258
-0.045047   -0.037252    0.079679    -0.09117   -0.039526     0.92613       0.131
-0.044073   -0.053817    0.058241    -0.10286   -0.035628      1.2353     0.14529
-0.038876   -0.060963    0.062464    -0.10806   -0.034004      1.4526     0.16738
-0.030431   -0.059989    0.086824    -0.11066   -0.018413      1.5501     0.18589
-0.020687   -0.052843     0.10989    -0.11228     0.01829      1.5351     0.19174
-0.0080194   -0.041475     0.10729    -0.11586    0.073182      1.4481     0.18232
0.0059473   -0.030431     0.06961    -0.12268     0.13555      1.3409     0.16315
0.01829    -0.02361   0.0020496    -0.12885     0.19791       1.248     0.14789
0.028684   -0.018738   -0.077203    -0.13242     0.25572      1.1733     0.14107
0.036804   -0.016789    -0.14931    -0.13534     0.30445      1.1012     0.14269
0.039078   -0.017764    -0.19933    -0.13924      0.3431       1.018     0.15016
0.03518   -0.019388    -0.22369    -0.14379     0.37623     0.91508     0.15828
0.025436   -0.021986    -0.22012    -0.13632     0.41261     0.77704     0.15698
0.015367   -0.024909    -0.19543    -0.11228     0.45061     0.58768     0.14367
0.0036737   -0.026209    -0.15841   -0.077528     0.47887     0.34602     0.12353
-0.0067202   -0.018738    -0.11683   -0.042774     0.48244    0.073182     0.10664
-0.010293  -0.0050961    -0.07428    -0.01484     0.46068    -0.18601    0.099167
-0.0028225    0.012768   -0.031081   0.0062721     0.42105    -0.38025    0.094945
0.016341    0.031282   0.0095202    0.021538     0.37428     -0.4962    0.086175
0.040052    0.047523    0.040377    0.031282     0.32328    -0.55922     0.06961
0.061489    0.065062    0.056942    0.037454     0.27132    -0.61411     0.04395
0.075131    0.083901    0.061489    0.040052     0.21902    -0.68817    0.011469
0.078055    0.099817     0.06084    0.041351     0.17095    -0.77392   -0.021012
0.070909     0.11054    0.061814      0.0433     0.13392    -0.83336   -0.046347
0.055318     0.11183    0.064737    0.045899     0.11183    -0.82491   -0.062262
0.040377     0.10112     0.06896    0.049796     0.10534    -0.73526   -0.070058
0.033881    0.080653    0.072208    0.055318     0.10566     -0.5878   -0.068758
0.03583    0.055968    0.071883    0.059216     0.10534    -0.43254   -0.060963
0.04395    0.030633    0.065062    0.057267    0.094295    -0.31431   -0.054142
0.055318    0.010495    0.049147    0.054344    0.073507    -0.25552   -0.057065
0.067661   0.0062721    0.027385    0.051745    0.044924    -0.25162   -0.070707
0.07773    0.027709   0.0039985      0.0433    0.012768    -0.27793   -0.090521
0.07773    0.077405  -0.0099683    0.024137   -0.019388    -0.30977    -0.10871
0.067336     0.14334   -0.011917  -0.0041217   -0.048945    -0.32731    -0.11845
0.051745     0.20181   -0.007045   -0.031081   -0.075579    -0.31626    -0.12268
0.039727     0.23689  -0.0050961   -0.051868    -0.10124    -0.27534    -0.11845
0.037454     0.23916  -0.0096434   -0.063886    -0.12527    -0.21395    -0.10709
0.045574     0.21902   -0.014516   -0.063886    -0.14119    -0.14379   -0.090196
0.064088     0.18914  -0.0073698   -0.044073    -0.14152   -0.075904   -0.071682
0.087149     0.16121    0.016666   0.0023744    -0.12495   -0.014516   -0.047321
0.11021     0.14009    0.057267     0.07773   -0.097991    0.042001   -0.024909
0.1258     0.12125    0.098842     0.16673   -0.066485    0.092671   -0.016789
0.13132     0.10274     0.12093     0.24306   -0.037577       0.131    -0.03238
0.1284    0.080328     0.11248     0.27944   -0.018088     0.14399   -0.067459
0.12158    0.050771    0.076431     0.26125   -0.016464      0.1206    -0.11261
0.10306    0.010819    0.027709     0.19888   -0.036278    0.059541    -0.15711
0.074806   -0.035628   -0.018413     0.11606   -0.070382   -0.021012    -0.18796
0.044924   -0.081101   -0.048296    0.040052    -0.10741    -0.10384    -0.19901
0.024461     -0.1191    -0.05804  -0.0096434    -0.13989    -0.16912    -0.18959
0.019264    -0.14216   -0.053168   -0.029132    -0.16035    -0.20128    -0.16458
0.024137    -0.15191   -0.047971   -0.027183    -0.16588    -0.19641    -0.13275
0.030957    -0.15646   -0.052843   -0.018088    -0.16263    -0.16555    -0.10644
0.034206     -0.1636   -0.071682   -0.011917    -0.15386    -0.12235   -0.087922
0.034206    -0.17789    -0.10286   -0.011267    -0.14411   -0.085648   -0.075255
0.03453    -0.19868    -0.13827   -0.013216    -0.13502   -0.067459   -0.063561
0.03583    -0.22337     -0.1701  -0.0083442     -0.1243   -0.065835    -0.04992
0.032582    -0.24026    -0.19283   0.0065969    -0.10903   -0.063886   -0.035628
0.023812    -0.23961    -0.20128    0.031932    -0.08305   -0.051868   -0.025234
0.010495    -0.21979    -0.19089    0.063113   -0.047971   -0.030756   -0.020362
-0.0028225    -0.18666    -0.16328    0.093645   -0.018088  -0.0063954   -0.017114
-0.013541    -0.14574     -0.1243     0.11736 -0.00087364    0.023487  -0.0096434
-0.020362    -0.10416   -0.085324     0.13197  0.00042559    0.059865   0.0062721
-0.025559   -0.063886   -0.051219     0.13847   -0.010943     0.10826    0.034206
-0.03173   -0.034004   -0.026209     0.14009   -0.027508     0.16868    0.075456
-0.037577   -0.018738  -0.0096434     0.13847   -0.044723     0.22292     0.12255
-0.04115   -0.019063   0.0017248     0.13814   -0.059339     0.23786     0.16153
-0.0405   -0.032705    0.013418     0.14561   -0.067784     0.19271     0.18524
-0.04115   -0.055116    0.024786     0.16478   -0.073306     0.10664     0.19304
-0.041475   -0.079477    0.036804     0.19823   -0.077853    0.020888     0.19076
-0.039526   -0.095717    0.055643     0.23916   -0.082076   -0.023285     0.18784
-0.034004   -0.099615    0.081627     0.27781   -0.084024  -0.0031473     0.18459
-0.026533   -0.090196     0.10761      0.3051   -0.087597      0.0865     0.18069
-0.018413   -0.076879     0.12288     0.31484   -0.094418     0.23071     0.18004
-0.013216   -0.067784      0.1206     0.31192    -0.10189     0.40026     0.18589
-0.0096434    -0.06681     0.10566     0.29925    -0.09929     0.57209     0.19726
-0.0083442   -0.072006    0.087149     0.28171   -0.082076     0.72637     0.20603
-0.010618   -0.081751    0.072858     0.26092   -0.051219      0.8485     0.20765
-0.017439    -0.09117    0.063763     0.23559   -0.013216      0.9349     0.19369
-0.026533   -0.095068    0.057917      0.2096    0.023162     0.99076     0.16543
-0.03238   -0.088896    0.050771     0.18297    0.049147      1.0203     0.13522
-0.03238   -0.072006    0.042975     0.15373    0.054993      1.0258     0.10826
-0.026858   -0.043748     0.03453      0.1219    0.040377      1.0151    0.089748
-0.020362  -0.0099683    0.030308    0.093321   0.0091954     0.99856    0.080003
-0.01549    0.023162    0.033231    0.068635   -0.032705     0.98329    0.077405
-0.014191    0.049472    0.038428    0.050446   -0.074605     0.97225     0.07773
-0.015165     0.06831    0.038103    0.036479    -0.10806     0.96543    0.078055
-0.017114    0.082602    0.025436    0.025111    -0.12527     0.95568    0.073182
-0.015815     0.10079  0.00010078     0.01017    -0.11975     0.93587    0.062789
-0.0096434     0.12678   -0.036927   -0.013866   -0.097017     0.89624     0.05142
-0.0024977     0.15471   -0.079477   -0.046996   -0.067784     0.83291    0.037778
0.0046481     0.17517    -0.12235   -0.084024   -0.036278     0.75138    0.028034
0.0095202     0.18167    -0.15938    -0.11358  -0.0011985     0.66401    0.027709
0.0095202      0.1729    -0.18666    -0.13047    0.043625     0.57111    0.036154
0.0049729     0.15309    -0.20258    -0.13275     0.10501     0.46003    0.050446
-0.0031473     0.13132     -0.2042    -0.12657     0.18459     0.32004    0.065712
-0.011592     0.11833    -0.18471    -0.11943     0.27067     0.15179    0.074806
-0.01614     0.11671    -0.14346    -0.11423       0.347   -0.032705    0.074482
-0.013866     0.12125    -0.09117    -0.10838     0.39799    -0.21655    0.065387
-0.0044465     0.12645   -0.038876    -0.10579     0.41066    -0.39064    0.048172
0.008221     0.13002   0.0075714    -0.10709     0.38825    -0.55597    0.024137
0.020564     0.13132    0.044599    -0.11163      0.3431    -0.70473  -0.0015233
0.033881     0.13262    0.069934    -0.11423      0.2947    -0.81841   -0.022961
0.048172      0.1362    0.083901    -0.11456      0.2541    -0.87103   -0.033354
0.06019     0.13944    0.095269    -0.11001     0.21967    -0.85609   -0.033679
0.065387     0.13977     0.11086    -0.10026     0.18037    -0.78951   -0.033354
0.064413      0.1362     0.12807    -0.08305     0.12613    -0.70311   -0.035303
0.062139       0.131     0.14139   -0.059664    0.054668    -0.61703   -0.038551
0.061165     0.12548     0.15049   -0.038227   -0.015165    -0.52966   -0.037902
0.063113     0.12483     0.16218   -0.022961   -0.064861    -0.42865   -0.033679
0.072208       0.131     0.18264   -0.010293   -0.087922    -0.31042   -0.026209
0.084551     0.14334     0.21545   0.0033489   -0.085324    -0.18959   -0.019388
0.098193     0.15601      0.2515    0.016666   -0.063561   -0.088896   -0.016789
0.10599     0.16283     0.27326    0.022188    -0.03303   -0.012892   -0.019712
0.10859     0.15958     0.26872    0.017316  -0.0037969    0.055643   -0.027183
0.10696     0.14789     0.23624   0.0046481    0.019264      0.1323   -0.035303
0.10729     0.13002     0.18914   -0.008669     0.03583     0.21123   -0.040175
0.10664     0.10729     0.14659   -0.015165    0.046223      0.2606   -0.041475
0.099492    0.083251     0.11703   -0.015815    0.042975     0.25962   -0.040825
0.0852    0.061489     0.10209   -0.017114    0.024461     0.21252   -0.042124
0.065387    0.047523     0.10079   -0.019712  -0.0054209     0.13879   -0.043099
0.045574    0.042001     0.10891   -0.021661   -0.037577    0.067661   -0.041799
0.030957    0.039402     0.12385   -0.024909    -0.06551    0.023162    -0.03238
0.02706     0.03518     0.14237   -0.027833   -0.086298   0.0065969   -0.017114
0.032582    0.029009     0.15763   -0.031081    -0.10416  -0.0057458  -0.0031473
0.039078    0.021863     0.15958   -0.040825    -0.11163   -0.034654   0.0010752
0.03583    0.015692     0.14204   -0.061288    -0.10416   -0.079802  -0.0047713
0.024461    0.013743     0.11086   -0.089871   -0.075255    -0.12463   -0.018738
0.0088706    0.017316    0.070259    -0.11813   -0.025884    -0.15386   -0.033679
-0.008669    0.024786    0.031932    -0.13989    0.029983    -0.16393   -0.041799
-0.024909    0.032582  0.00075039    -0.15223    0.075456     -0.1662   -0.043099
-0.038876    0.038753   -0.016789    -0.15158    0.096893    -0.16847   -0.039851
-0.047646    0.041676   -0.023285    -0.13957    0.097868    -0.17724   -0.034004
-0.049595    0.040377   -0.022636      -0.123    0.091696     -0.2029   -0.024909
-0.042449    0.036479   -0.018088    -0.10546    0.089423    -0.24773   -0.013866
-0.027183    0.028684   -0.015815    -0.08305    0.089098    -0.30424  -0.0021729
-0.007045    0.014392   -0.017439    -0.05804    0.088773    -0.35686   0.0085458
0.014717  -0.0024977   -0.020362    -0.03303     0.08585     -0.3757    0.021213
0.031607   -0.017764   -0.021986  -0.0099683    0.080978    -0.32893    0.036479
0.038428   -0.026209   -0.018738    0.012443    0.079679    -0.21492    0.051745
0.033231   -0.026533  -0.0089938    0.034855    0.087474   -0.073306    0.060515
0.016341   -0.019712   0.0036737     0.06084     0.10177    0.032257    0.061165
-0.0037969   -0.013216    0.016666    0.090072     0.11443    0.059216    0.053369
-0.021337  -0.0096434    0.026085     0.11736     0.11021   0.0095202    0.039078
-0.032055  -0.0096434    0.030633     0.13652    0.080003   -0.076879    0.023812
-0.031406   -0.010293    0.033556     0.14529     0.02706    -0.15353    0.012443
-0.023285  -0.0073698      0.0433     0.14854   -0.035953    -0.19089   0.0043233
-0.016789  -0.0041217    0.063113     0.16575   -0.094093    -0.18374   0.0023744
-0.016789  0.00042559    0.095269     0.20993    -0.13957    -0.14216   0.0075714
-0.026858  0.00042559     0.13847     0.28041    -0.17335   -0.076554    0.015692
-0.043748  -0.0073698     0.18069     0.35479    -0.19186   0.0010752    0.024461
-0.058689   -0.021012     0.21025     0.40156    -0.19576      0.0865    0.040052
-0.062587   -0.036278      0.2161     0.39507    -0.19348      0.1742    0.063113
-0.057065   -0.046996     0.20213       0.334    -0.19413     0.26092    0.087799
-0.045697   -0.052518     0.17355     0.24111    -0.19966     0.33887     0.10631
-0.036927   -0.051868     0.14009     0.14464    -0.20453     0.39182     0.11573
-0.034004   -0.043748     0.10826    0.070909    -0.20778     0.40936      0.1206
-0.037252   -0.030431    0.083251    0.033231    -0.20583     0.40156     0.12158
-0.044073   -0.016464    0.070259    0.025761    -0.19511     0.38402     0.11801
-0.052518  -0.0031473    0.071558    0.033881    -0.17302     0.36973     0.11118
-0.060313   0.0078962    0.076106    0.044275    -0.14087     0.36031     0.10729
-0.06551   0.0088706    0.071234    0.054993   -0.095068     0.33952     0.10339
-0.067134 -0.00054884    0.053044    0.059541   -0.037577     0.28593    0.099167
-0.067134   -0.012567    0.027709    0.057917    0.029658     0.19239    0.094945
-0.067784   -0.022311   0.0017248    0.054019     0.10436      0.0852    0.092346
-0.062587    -0.02361   -0.018738    0.050446     0.18492  0.00010078    0.093321
-0.04992    -0.01614    -0.03173    0.049147     0.25637   -0.046347    0.097868
-0.035303  -0.0076946   -0.035953    0.048822      0.2973   -0.056091     0.10306
-0.023935 -0.00022403    -0.03238    0.049796      0.2921   -0.048296     0.10404
-0.021337   0.0065969   -0.027183    0.046223     0.24825   -0.045697    0.098517
-0.022311   0.0091954   -0.025884      0.0433     0.19076   -0.071032    0.086824
-0.020362   0.0059473    -0.03238    0.045574     0.13717    -0.12755    0.071558
-0.01614  -0.0037969   -0.050244    0.054019    0.096569    -0.20908    0.054344
-0.010293   -0.015815   -0.076879    0.064413     0.06831    -0.30294    0.031607
-0.0041217   -0.028807    -0.11066    0.073182    0.047523    -0.40104   0.0049729
0.003024   -0.040825    -0.14671    0.075456    0.023812    -0.49978   -0.019063
0.013093   -0.049595    -0.18049    0.070259  -0.0034721    -0.60177   -0.035303
0.026735   -0.048945     -0.2055    0.054344   -0.028482    -0.71935   -0.045697
0.040052   -0.039851    -0.21817    0.031932   -0.046671    -0.85317   -0.052843
0.044924   -0.026533    -0.21914   0.0049729   -0.058365    -0.99154   -0.059339
0.041676   -0.017114     -0.2133   -0.022961    -0.06551     -1.1169   -0.070382
0.029983   -0.020037     -0.2081   -0.053817   -0.073955     -1.2092   -0.088572
0.013743   -0.034329    -0.20355   -0.087922   -0.088247     -1.2475    -0.11066
-0.0060706   -0.049595    -0.19543    -0.12365    -0.10709     -1.2199    -0.13275
-0.023285   -0.056741    -0.17919    -0.15451    -0.12138     -1.1215    -0.15126
-0.030756   -0.042774    -0.14509    -0.16653    -0.12398    -0.95483    -0.16328
-0.020037  0.00042559   -0.090845    -0.14964    -0.11553    -0.73916    -0.16198
0.0088706    0.073507   -0.018088   -0.095393    -0.10319    -0.50822    -0.14087
0.050771     0.16575    0.064088  -0.0060706   -0.092469    -0.29612    -0.10091
0.094945     0.26125     0.13749    0.099492   -0.092145    -0.13015   -0.052518
0.13035     0.33952     0.18622     0.18881    -0.10579   -0.027833  -0.0060706
0.14951     0.38402     0.20246     0.23689    -0.12755   0.0059473    0.029983
0.15958     0.39149     0.18979     0.23786    -0.15191   -0.011592    0.054019
0.16283     0.37038     0.15926     0.20408    -0.16588   -0.053817    0.068635
0.15991     0.33011     0.12093     0.15633    -0.16198   -0.097666    0.070259
0.14626     0.27879    0.083251     0.10859    -0.14379    -0.13827    0.058566
0.12028     0.22292    0.051745    0.071558     -0.1217    -0.17627     0.03453
0.087799     0.16965    0.029658    0.049472    -0.10189     -0.2055   0.0062721
0.058241      0.1206    0.012768    0.037778   -0.084674    -0.20583   -0.013541
0.038753    0.076755  -0.0024977     0.02641   -0.072006     -0.1636   -0.015815
0.029333    0.032582   -0.021661   0.0052977   -0.065835   -0.087922  -0.0031473
0.022837   -0.016789    -0.04115    -0.03303   -0.069408  -0.0054209    0.013418
0.016341   -0.071357   -0.054467   -0.087597   -0.080127    0.053044    0.028684
0.015042     -0.1217   -0.059014    -0.14639    -0.09182    0.067986    0.041027
0.024786    -0.15873   -0.059014    -0.18861   -0.097341    0.042651    0.056292
0.043625    -0.18049   -0.056741    -0.19933   -0.091495  -0.0057458    0.076431
0.06896    -0.19413   -0.054467    -0.17659   -0.077853   -0.065835    0.096244
0.095269    -0.20615   -0.051868    -0.12722   -0.061288     -0.1295     0.10566
0.11313    -0.22272   -0.050244   -0.065835   -0.042449    -0.18147    0.095919
0.11898    -0.23993   -0.053168  -0.0041217   -0.019712     -0.2029    0.071883
0.11346    -0.25585   -0.059989    0.050771    0.010495    -0.18244      0.0433
0.10079    -0.26494   -0.064861    0.092021    0.059865    -0.10611    0.021538
0.083901    -0.25487   -0.059989     0.11606     0.14302    0.028684    0.013743
0.067661    -0.21785   -0.038227     0.12093     0.26157     0.20408    0.019914
0.05142      -0.161   -0.007045     0.11476     0.39312     0.37363     0.03583
0.035505   -0.097666    0.025111     0.10859     0.49738     0.49901    0.051745
0.020564   -0.040175    0.049472     0.10501     0.54026     0.56851    0.054668
0.0091954   0.0046481    0.064088     0.10274      0.5081      0.5997    0.044924
0.0049729    0.031932    0.071883    0.096893      0.4165     0.62925    0.031932
0.0069217    0.047847    0.076755    0.088448     0.30022     0.68642     0.02641
0.009845    0.059216    0.080003    0.075456     0.19336     0.77282    0.031607
0.0075714     0.06831    0.080328    0.054993     0.11703     0.87351    0.041676
0.00042559    0.072208    0.078379    0.030308    0.080003      0.9677    0.044275
-0.0067202     0.06961    0.075781   0.0039985    0.085525      1.0385    0.039078
-0.012892    0.061165    0.073182   -0.021012      0.1284      1.0762     0.02641
-0.015815    0.046873    0.065387   -0.046347     0.19499      1.0772   0.0065969
-0.015165    0.029333    0.049796   -0.068109     0.25995      1.0473   -0.013541
-0.011592    0.012443     0.02706   -0.087597     0.29633     0.99694   -0.026209
-0.0067202  -0.0041217   0.0023744    -0.10221     0.28885     0.94497    -0.02426
-0.0011985   -0.018413    -0.01614    -0.11358     0.24533     0.91151  -0.0031473
0.0072465    -0.03238   -0.020687    -0.11878     0.18524     0.90144    0.034855
0.017965   -0.044398   -0.013541    -0.11358     0.12937     0.91086    0.080978
0.027709    -0.04927  -0.0024977   -0.097341    0.089748      0.9245     0.12937
0.037454    -0.04115   0.0091954   -0.072331    0.071558      0.9284     0.17127
0.044599   -0.020037    0.022512   -0.038551    0.069934     0.91411     0.20116
0.050771    0.008221    0.040702 -0.00087364    0.078379     0.87513     0.22065
0.062139     0.03453    0.062464    0.035505    0.090072     0.80985     0.22909
0.074482    0.049796    0.079679    0.064413    0.099492     0.73157     0.22779
0.081303    0.050121    0.087149    0.080978     0.10696     0.65102     0.22227
0.079354    0.039727    0.087474    0.084226     0.10794     0.56397     0.21707
0.073182    0.025436    0.088448    0.079029     0.10014     0.45808      0.2096
0.06896    0.014717    0.095919    0.070584    0.087149     0.31971     0.19499
0.062789   0.0095202     0.10469    0.064737    0.070259     0.15081     0.17062
0.049472    0.009845     0.11086    0.061165    0.041027   -0.037577     0.14367
0.030308    0.013093     0.10761     0.06084 -0.00087364    -0.22304      0.1206
0.011469    0.016341     0.09397    0.057267   -0.043423     -0.3757     0.10534
0.00042559    0.019264    0.072208    0.044924   -0.073955    -0.46307     0.10047
0.003024    0.019914    0.050121    0.026085   -0.087597    -0.46762     0.10242
0.016341    0.019914    0.031932   0.0088706   -0.088572    -0.39551     0.11151
0.036479    0.023162    0.024137  -0.0011985   -0.083375    -0.27566     0.12288
0.058566    0.029983    0.025436  -0.0054209   -0.078178    -0.13729     0.13197
0.077405    0.039727    0.028034  -0.0041217   -0.075255  -0.0080194       0.131
0.088773    0.055318    0.027385  -0.0034721   -0.073631    0.075131     0.12028
0.092996    0.072208    0.013093  -0.0041217   -0.069083      0.0852     0.10404
0.094295    0.084876   -0.020362  -0.0073698   -0.063237    0.026085    0.084876
0.097218    0.089423   -0.068434  -0.0089938   -0.061288   -0.069733    0.066362
0.097543    0.090072    -0.11618   -0.011267   -0.065835    -0.17335    0.050121
0.094295    0.094295    -0.14964   -0.015815   -0.077528    -0.26169    0.035505
0.087799     0.10404    -0.16945   -0.024909   -0.095068    -0.32731    0.022188
0.076755     0.11346    -0.18342   -0.037252    -0.11748    -0.36856    0.010495
0.062464     0.11671    -0.19024   -0.047321    -0.14054    -0.38934  -0.0034721
0.048822     0.11151    -0.18926   -0.053168    -0.16068    -0.39746   -0.018088
0.042975    0.098517    -0.17919   -0.054792    -0.17952    -0.39422   -0.030756
0.043625      0.0852     -0.1623   -0.053168    -0.19836    -0.37927     -0.0405
0.053694    0.084226    -0.13372   -0.046022    -0.21232    -0.34549   -0.050569
0.067336    0.099167   -0.090845   -0.031081    -0.21265    -0.27761   -0.062587
0.083576     0.12548    -0.04115   -0.013541    -0.19186    -0.17107   -0.080776
0.096893     0.14821   0.0065969  -0.0015233    -0.15516   -0.029782    -0.10384
0.10014      0.1638    0.047847      0.0014    -0.11618     0.10794    -0.12592
0.088124     0.17062    0.082602  -0.0011985   -0.089221     0.18459    -0.13957
0.067986     0.17355     0.11378  -0.0041217   -0.081426     0.16348    -0.14281
0.048172     0.18004     0.14237  -0.0018481   -0.084999    0.050446    -0.13404
0.036154     0.19499      0.1742   0.0052977   -0.087272    -0.11488    -0.11748
0.032906     0.21545     0.21285     0.01829   -0.073631    -0.27696   -0.099615
0.034855     0.23559     0.25248    0.035505   -0.028807    -0.39974   -0.086298
0.040052     0.25475     0.28821    0.053369    0.044924    -0.47055   -0.081426
0.048497     0.27359     0.31614    0.070584     0.13165    -0.50465   -0.085648
0.063763     0.28918      0.3327    0.089098     0.20635    -0.51894   -0.089546
0.081303     0.29568     0.33335     0.10664      0.2528    -0.53291   -0.089221
0.090397      0.2908     0.31874     0.12418     0.26319     -0.5472   -0.080127
0.0865     0.27716     0.28788     0.14009     0.24046    -0.54785   -0.067134
0.06831     0.26157     0.24598     0.15049      0.1755    -0.52836   -0.055116
0.042975     0.24923     0.20148     0.14107    0.049472    -0.49101   -0.048296
0.020564     0.23948     0.15633     0.11346    -0.14314    -0.44521   -0.049595
0.0072465     0.22877     0.11118    0.072533    -0.35621    -0.39681   -0.057065
-0.0031473     0.21415    0.064088    0.027709    -0.52381     -0.3416   -0.066485
-0.014516     0.19011     0.01764   -0.011267    -0.59852    -0.27144   -0.077528
-0.028157     0.15796   -0.019712   -0.041475    -0.57253    -0.18634   -0.089871
-0.038876      0.1219   -0.042124   -0.063237    -0.47899   -0.087597   -0.097341
-0.040825    0.089748    -0.04927   -0.081426    -0.36011     0.01764   -0.099615
-0.038876    0.062464   -0.047971   -0.097991    -0.24838     0.12223   -0.096692
-0.0405    0.042001   -0.045372    -0.10838    -0.15808     0.21058   -0.086948
-0.04927    0.023162   -0.046347    -0.10546   -0.091495     0.27034   -0.072981
-0.064536   0.0036737   -0.051544   -0.085648   -0.038227     0.30607   -0.056416
-0.079802   -0.014191   -0.062912   -0.053817    0.016016     0.33303   -0.042124
-0.089546    -0.03238   -0.080776   -0.018413     0.08585     0.36811   -0.032705
-0.090521   -0.051544    -0.10416    0.012768      0.1716      0.4152   -0.022636
-0.0824   -0.071032    -0.12917    0.036804     0.24793      0.4597   -0.007045
-0.069083   -0.087272    -0.14834     0.05272     0.28626     0.48796    0.011144
-0.055441    -0.10156    -0.15711    0.067011     0.27489     0.48147    0.022837
-0.046347    -0.11715    -0.15678    0.080978     0.22584     0.43112    0.020564
-0.044723    -0.13372    -0.15093    0.096244     0.16965     0.33725   0.0085458
-0.050569    -0.14639    -0.14119     0.11313     0.13327     0.20895   -0.008669
-0.056416    -0.15353    -0.13047     0.11703     0.12905    0.065387   -0.023935
-0.057715    -0.15905    -0.12495    0.099492     0.14626   -0.070707   -0.032055
-0.052843    -0.16945    -0.12657    0.063438     0.16803    -0.18277   -0.033679
-0.044723    -0.17952     -0.1321    0.030308     0.18264    -0.26592   -0.028482
-0.035303    -0.18601    -0.13534    0.021863     0.18849    -0.31854   -0.018738
-0.025234    -0.18601    -0.13632    0.046873     0.19076    -0.34679   -0.012242
-0.013866    -0.17854    -0.13177     0.09397     0.19921    -0.35589   -0.011267
-0.0037969     -0.1662    -0.12365     0.14042        0.22    -0.35719    -0.01614
-0.00022403    -0.15321    -0.11651     0.16705       0.258    -0.35621   -0.022961
-0.0057458    -0.14411    -0.10903     0.17095      0.3051    -0.35751   -0.022311
-0.01614    -0.13827   -0.095068     0.15828     0.34342    -0.36044   -0.007045
-0.02361    -0.13275   -0.071357     0.13652     0.35544    -0.36109    0.023162
-0.022636    -0.12333   -0.040175     0.11086      0.3366    -0.35361    0.059541
-0.015815    -0.11163   -0.008669    0.088448     0.29827    -0.34095    0.094945
-0.008669   -0.098641    0.015367    0.074157      0.2567     -0.3286      0.1245
-0.0089938   -0.082725    0.031932    0.072208     0.22129    -0.31366     0.14139
-0.018413   -0.063237    0.043625     0.07773     0.18622    -0.27469     0.14107
-0.03303   -0.045047      0.0433    0.083901     0.13425    -0.18536     0.12613
-0.045047   -0.035303    0.030308    0.084876    0.053369   -0.040175     0.10501
-0.04992   -0.033679    0.009845    0.072208   -0.046022     0.13717    0.083576
-0.047971   -0.033354   -0.010943    0.049147    -0.13957      0.3012    0.067661
-0.042124   -0.032055   -0.027833    0.020564    -0.21005     0.41358    0.056292
-0.033679   -0.030431   -0.039526  -0.0063954    -0.24935     0.46912    0.042326
-0.028157   -0.029782   -0.047971   -0.029782    -0.25845     0.48341    0.019914
-0.028807   -0.024909   -0.054792   -0.047321    -0.23961     0.47822  -0.0080194
-0.030431   -0.012567   -0.060963    -0.05739    -0.19771     0.47887   -0.034004
-0.022636   0.0010752    -0.06551   -0.059014    -0.14184     0.49088   -0.047971
-0.0021729    0.011469   -0.063561   -0.051219   -0.075255      0.5094   -0.043099
0.024461    0.020239   -0.050244   -0.027183  -0.0063954      0.5159   -0.025559
0.044924    0.031282    -0.02426    0.014392    0.048822     0.48309  -0.0047713
0.053369      0.0433   0.0056225    0.070584    0.080328     0.39052    0.012119
0.047523     0.05272    0.023487     0.13067    0.087149     0.23786    0.016666
0.036804    0.056942    0.023487      0.1755    0.075781    0.042326   0.0091954
0.026085     0.06019    0.008221     0.18687    0.055318    -0.15905   -0.011592
0.017316    0.062789   -0.010293     0.15731     0.03453     -0.3312   -0.037577
0.012443    0.072208   -0.023935    0.093645    0.017316    -0.44683   -0.059339
0.0091954     0.10079   -0.028807    0.018615  0.00010078    -0.49913   -0.061937
0.009845     0.15081   -0.027183    -0.04992    -0.02361    -0.49945   -0.047646
0.014068     0.21058   -0.021012   -0.098316   -0.050894    -0.47152    -0.02426
0.01894     0.26319  -0.0099683    -0.12235   -0.072656    -0.44196  -0.0044465
0.024786     0.29243   0.0085458    -0.12235   -0.071032    -0.42507   0.0088706
0.033881      0.2921    0.037778    -0.10384   -0.019063    -0.41955    0.015692
0.046873     0.26774    0.080653   -0.072331    0.090722    -0.41825    0.015692
0.057917     0.22682     0.12872   -0.036927     0.22974    -0.41565   0.0088706
0.062464     0.17452      0.1703  -0.0067202     0.35447    -0.40493  -0.0028225
0.061489     0.11151     0.19174    0.012443     0.42755    -0.38382   -0.012242
0.055643    0.045249     0.19141     0.01829      0.4282    -0.34777   -0.010943
0.045899   -0.010293     0.17355    0.014068     0.36681    -0.28021   0.0033489
0.038753    -0.04992     0.14561   0.0046481     0.27196    -0.15321    0.027709
0.039402   -0.069408     0.11118 -0.00087364     0.16088    0.043625     0.05207
0.050771   -0.075579    0.075781 -0.00054884     0.01894     0.27684    0.072533
0.06084   -0.077528    0.047523   0.0020496    -0.18536     0.47822    0.080653
0.066362     -0.0837    0.029658   0.0052977    -0.44424      0.5867    0.070259
0.063438    -0.10026    0.019264    0.015367    -0.69012     0.58605    0.041027
0.053694     -0.1204    0.016016    0.032906    -0.84667     0.50063   0.0046481
0.041027    -0.13729    0.019914    0.050446    -0.86519     0.37785   -0.028482
0.033231    -0.14606    0.034206    0.061165    -0.75638     0.26352   -0.047971
0.030633    -0.14931    0.051745    0.062464    -0.57318     0.18849   -0.047321
0.028684    -0.15158    0.064088    0.057267    -0.37668      0.1664   -0.028157
0.025436    -0.15451    0.064088    0.049147      -0.212     0.18979  -0.0021729
0.01764    -0.16035    0.050771    0.039727   -0.094418     0.24468    0.017965
0.0062721     -0.1662    0.027385    0.033231   -0.017764     0.31776    0.029983
-0.0015233    -0.16653   0.0036737    0.031282    0.037778     0.40579    0.037454
-0.0011985    -0.15776   -0.012892     0.03518    0.091372     0.51849      0.0433
0.0033489    -0.14379   -0.017114    0.044924     0.15373     0.66238     0.05207
0.0049729    -0.12885   -0.012242    0.062789     0.22454     0.82544    0.065062
-0.00087364    -0.11651 -0.00022403    0.087474     0.30087     0.98492    0.079354
-0.011592    -0.10124    0.016991     0.11378     0.36973      1.1165    0.090722
-0.019712   -0.074605    0.036154     0.13717      0.4152      1.2051     0.10047
-0.020687   -0.037252    0.056942     0.15211     0.42462      1.2509     0.10924
-0.013866   0.0043233    0.080653     0.15958     0.39637      1.2681     0.11736
-0.0044465    0.041027     0.10794     0.16283     0.34277       1.273     0.12775
0.00010078     0.06831     0.13912     0.16608     0.27651      1.2662     0.14269
-0.00022403    0.085525     0.16933     0.16933     0.20603      1.2318     0.16056
-0.0057458    0.097543     0.19823     0.17127     0.14074      1.1561     0.17387
-0.0093186     0.10794     0.22682      0.1729    0.088773      1.0314     0.17647
-0.0041217     0.12158      0.2554      0.1716    0.056292     0.85272      0.1703
0.011144     0.14042     0.27846     0.16998     0.05142     0.62243     0.15991
0.029333     0.16056     0.28788     0.16868    0.078055     0.35544     0.14789
0.042975     0.17712     0.28203     0.16998     0.13067    0.079029     0.13879
0.044924     0.18394     0.26222     0.17322     0.19076    -0.17497     0.12905
0.039727     0.18167     0.23656     0.17355     0.23624    -0.38674     0.12548
0.03583     0.16933     0.20668      0.1703      0.2476    -0.54752      0.1336
0.038428     0.14984     0.16998     0.16088        0.22    -0.67063     0.15114
0.044275     0.12418     0.12678     0.14821     0.16218    -0.78853      0.1703
0.046223    0.097218    0.080003      0.1323    0.088124    -0.93015     0.18004
0.039727    0.072533    0.030633     0.11508    0.012119     -1.1075      0.1742
0.029333    0.050771   -0.015815     0.10079   -0.057065     -1.3043     0.15341
0.019589     0.03518   -0.053492    0.093321    -0.12105     -1.4943     0.12158
0.014717    0.023162   -0.078503    0.092021    -0.17627      -1.659    0.081952
0.013418    0.011144   -0.087922    0.092671     -0.2159     -1.7941    0.040052
0.011794  -0.0021729     -0.0837    0.092671    -0.23376     -1.9016   0.0043233
0.0072465   -0.012567   -0.071682    0.093321    -0.22726     -1.9854   -0.021337
-0.00054884   -0.022636    -0.04992    0.092346    -0.19933     -2.0429   -0.034978
-0.0041217   -0.036602   -0.020037    0.088773    -0.16003     -2.0689   -0.034329
0.0014   -0.051868    0.012768    0.082927    -0.12398     -2.0533   -0.024585
0.014068    -0.06616    0.042001    0.076431    -0.10514       -1.99  -0.0089938
0.024786   -0.084024    0.071883    0.070909    -0.10384     -1.8796   0.0059473
0.02641    -0.10514     0.11086    0.065387    -0.11358     -1.7311     0.01764
0.018615    -0.12495     0.16478    0.059541    -0.12398     -1.5548    0.028034
0.0056225    -0.13892     0.22747    0.050771    -0.12917     -1.3524    0.040377
-0.0083442    -0.13827     0.28885    0.039402    -0.12885     -1.1377    0.052395
-0.01549    -0.12138     0.34017    0.026735    -0.12527     -0.9295    0.061814
-0.013866   -0.090196     0.38337    0.015042    -0.12073    -0.72422     0.06961
-0.0047713    -0.04992     0.42365   0.0039985    -0.11715     -0.5118    0.075131
0.012443  -0.0024977     0.46263  -0.0060706    -0.11293    -0.28508    0.076755
0.037129    0.049796     0.49348    -0.01614    -0.10319   -0.047321    0.077405
0.065062     0.10404     0.51167   -0.028807   -0.090845     0.19434    0.080003
0.089098     0.15568     0.51135   -0.046996   -0.077528     0.42657    0.086175
0.10924     0.20148     0.48536   -0.064861   -0.061613      0.6299    0.097218
0.12613     0.23591     0.42495   -0.075904   -0.037902     0.78029     0.10924
0.13814      0.2554     0.32263   -0.082076  -0.0050961     0.88065     0.11476
0.14432     0.25702     0.18687   -0.089546    0.031932     0.95016     0.11021
0.14367     0.24695    0.044275    -0.10644    0.067661      1.0096    0.097218
0.13587     0.23234    -0.07493    -0.13275    0.098842      1.0759    0.082602
0.12158     0.22097    -0.14996     -0.1675     0.12937      1.1613    0.072533
0.10859     0.21123    -0.18017    -0.20583     0.15601      1.2649    0.067986
0.10339     0.19693    -0.18666    -0.24578      0.1768      1.3805    0.071234
0.10631     0.17615    -0.19348     -0.2867     0.19076      1.5017    0.084876
0.11606     0.15049     -0.2133    -0.32666     0.20603      1.6251     0.11021
0.12905     0.12613    -0.24545    -0.35654     0.22877      1.7378     0.14172
0.13944     0.10826    -0.28443    -0.37245      0.2554      1.8174     0.16998
0.14367    0.093645    -0.32373    -0.37473     0.27099      1.8216     0.18134
0.14074     0.07773    -0.35459    -0.36498     0.26417      1.7089      0.1742
0.12645    0.058891    -0.37375    -0.34842     0.23169      1.4669     0.14626
0.10242    0.037454    -0.38025    -0.32795     0.17745      1.1269     0.10112
0.070259    0.011469     -0.3783    -0.31106     0.10956     0.74586      0.0433
0.038753    -0.01614    -0.37668    -0.30327    0.036804      0.3863   -0.018088
0.016991   -0.045697    -0.37765     -0.2971   -0.034654     0.08585   -0.073955
0.0085458   -0.071032    -0.37798    -0.28248   -0.095068    -0.14509    -0.11878
0.012119   -0.082725    -0.37343    -0.25617    -0.13469    -0.31529    -0.14964
0.01829   -0.075255    -0.35426    -0.21979    -0.14866    -0.43644    -0.17205
0.020564   -0.053817    -0.32276    -0.17822    -0.14736    -0.51862    -0.19154
0.015367   -0.025884    -0.28605    -0.13372    -0.14379    -0.56441     -0.2094
0.0049729    0.003024    -0.24805   -0.090521    -0.15418    -0.57124    -0.21817
-0.0060706    0.032906    -0.21102   -0.053817    -0.18731    -0.53875     -0.2146
-0.015815    0.063438    -0.17919   -0.024909    -0.24383    -0.47639     -0.2029
-0.022636    0.090397    -0.15613 -0.00087364    -0.31204    -0.40039    -0.19413
-0.029457     0.10436    -0.13762    0.026085    -0.36921    -0.32633    -0.18991
-0.037252     0.10469    -0.11423    0.066362    -0.40006    -0.25617    -0.18569
-0.045047     0.10014   -0.075255     0.12872    -0.40266    -0.18114    -0.17789
-0.048296    0.096893   -0.019388     0.21252    -0.37895   -0.091495    -0.16555
-0.046022    0.097218    0.039402     0.30574    -0.33023    0.026085    -0.15191
-0.041475     0.10014    0.083901     0.38142    -0.25747     0.17225    -0.13892
-0.041799     0.10112     0.10274     0.42203    -0.16815     0.31776    -0.12787
-0.051868    0.097543    0.092346     0.42235   -0.068434      0.4243    -0.11553
-0.066485    0.088448    0.063113     0.38402     0.03453     0.47335    -0.10351
-0.076554    0.076106    0.028034     0.31874     0.12613     0.46685   -0.090845
-0.072656    0.062789  -0.0015233      0.2463     0.18946     0.42332   -0.079477
-0.054467    0.051745   -0.021337     0.18069      0.2174     0.37168   -0.067134
-0.028482    0.041676   -0.033354       0.131     0.21447      0.3353   -0.054792
-0.0063954    0.030308     -0.0405    0.096893     0.18751     0.33303    -0.04115
0.0056225     0.01894   -0.046347    0.078055     0.15049     0.36713   -0.026533
0.0059473    0.013418   -0.052518    0.069934     0.11671      0.4217   -0.012892
-0.0028225    0.013418   -0.058689    0.067986     0.10014     0.47724  0.00075039
-0.013541    0.010495   -0.059339    0.065387     0.10404     0.52596    0.016341
-0.020687   0.0046481   -0.056741    0.058891      0.1219     0.56299    0.034855
-0.020037   0.0026992   -0.053817    0.051096     0.14529       0.588    0.055318
-0.010293   0.0059473   -0.052843      0.0433     0.16413     0.59807    0.073182
0.00075039    0.013093   -0.056416    0.033231     0.16868     0.58898     0.08585
0.0069217    0.020564   -0.063561    0.021538     0.15568     0.56721    0.092671
0.0075714    0.028034    -0.07428    0.013093     0.12678      0.5487    0.090722
0.0065969    0.030633   -0.091495   0.0095202    0.093645     0.54545    0.083251
0.008221    0.029333    -0.11553    0.014717    0.070584     0.55812    0.076755
0.013743    0.027385    -0.14054    0.027385    0.066037     0.58638    0.073832
0.023812    0.023487    -0.15808    0.039727    0.088124     0.62308    0.074482
0.033231    0.016666    -0.16458     0.05142     0.13912     0.65329     0.07773
0.032582   0.0033489      -0.161    0.062139      0.2148     0.66791    0.083901
0.024461   -0.017439    -0.14606    0.073832     0.30282     0.66433    0.093321
0.012443   -0.041799     -0.1243    0.084876     0.38142     0.64095     0.10274
0.0020496   -0.061613    -0.10254    0.094295     0.43274     0.58021     0.10339
0.00042559   -0.072656    -0.08305     0.10177     0.45418      0.4636    0.090072
0.0039985   -0.073955   -0.064536     0.10534     0.44931     0.28203     0.06831
0.0059473   -0.065835   -0.045372     0.10339      0.4178    0.047523    0.044599
0.00042559   -0.051868   -0.028157     0.10177     0.35609    -0.20745    0.024786
-0.012242   -0.038876   -0.010293     0.10859     0.26579    -0.45463   0.0095202
-0.029457   -0.027508   0.0095202     0.12418     0.15536    -0.68199  -0.0018481
-0.045372   -0.013541    0.025436     0.14204      0.0433    -0.89085   -0.010618
-0.051868   0.0043233    0.032257     0.14951   -0.053492     -1.0857   -0.016464
-0.050244    0.025761    0.031282     0.14074    -0.12917     -1.2738   -0.022311
-0.04927      0.0433    0.030308     0.11573    -0.18471     -1.4521   -0.036927
-0.052193    0.047847    0.033231     0.07773    -0.23181     -1.6038   -0.061937
-0.057715    0.037454    0.042975    0.033556    -0.27046     -1.7139   -0.095393
-0.060313     0.01894    0.061165  -0.0057458    -0.29677     -1.7672    -0.12527
-0.054142   0.0036737    0.087474   -0.025234    -0.29742     -1.7571    -0.14314
-0.041475  -0.0024977     0.12288   -0.018738    -0.27306     -1.6879    -0.13892
-0.023285  -0.0018481     0.16413    0.022188    -0.22434      -1.582    -0.12138
-0.007045 -0.00087364     0.20863    0.092996    -0.16425     -1.4732    -0.10546
0.0072465   0.0010752     0.24955      0.1703    -0.10838     -1.3868   -0.096692
0.01894   0.0010752     0.27879     0.22324    -0.07428     -1.3274   -0.092469
0.028684  -0.0028225     0.28626     0.22714   -0.065835      -1.277   -0.089871
0.037129   -0.010293     0.26904     0.17842   -0.075904     -1.2192   -0.079152
0.045574   -0.017439     0.23461    0.095269   -0.085973     -1.1429   -0.057715
0.054668   -0.020362     0.19044   0.0069217   -0.082725     -1.0468   -0.032055
0.064088   -0.018088     0.14269   -0.058689   -0.069733    -0.94022   -0.008669
0.072533  -0.0096434    0.096893   -0.086298   -0.054792    -0.83303    0.012119
0.077405  -0.0021729    0.059541   -0.076879    -0.04927    -0.73007    0.029658
0.080653  -0.0034721    0.029658   -0.047971   -0.060313    -0.62905    0.041676
0.078704    -0.01614   0.0075714   -0.018738     -0.0824    -0.52674    0.045899
0.073182   -0.032705  -0.0096434  -0.0044465    -0.10709    -0.42312    0.045899
0.06831   -0.043748   -0.021986  -0.0083442    -0.12852    -0.32308    0.048497
0.070584   -0.045047   -0.029782   -0.026533    -0.14769    -0.23409    0.056942
0.080653   -0.039526   -0.034654   -0.051219    -0.16328    -0.15646    0.066362
0.090072   -0.032055   -0.035628    -0.07428    -0.17302   -0.085324     0.06831
0.089423   -0.023285   -0.027508   -0.081426    -0.17497   -0.012567    0.065712
0.079354   -0.015165   -0.010618   -0.068434    -0.16555    0.065062    0.062789
0.066037  -0.0034721    0.012443   -0.039526    -0.13892     0.15081    0.061814
0.058566    0.014068    0.036804  -0.0021729   -0.089221      0.2476    0.062139
0.059865    0.032906    0.056292     0.03583   -0.018088     0.36096    0.062464
0.064088    0.051096    0.067986    0.068635    0.061489     0.48861    0.058891
0.069934    0.066037    0.071883    0.095594     0.13392     0.62406    0.051745
0.078055    0.076106    0.070584     0.11768     0.18979     0.75268    0.044599
0.084876    0.081303    0.066362     0.12807     0.23201     0.86084    0.039727
0.087149    0.084876    0.064413     0.12515     0.27261     0.93814    0.037454
0.082277    0.093645    0.064088     0.11248     0.32556     0.97907    0.038753
0.069934     0.10664    0.066037    0.098517     0.38467     0.99369    0.044275
0.055968     0.11833    0.070584     0.08585     0.42852     0.99466    0.054993
0.050121      0.1258    0.079029    0.074482     0.43827     0.99076    0.067986
0.054668     0.12483    0.091047    0.065387     0.40838     0.98979    0.075781
0.063763     0.11476     0.10566    0.061489     0.33725     0.98979    0.069934
0.070259    0.098193     0.11963    0.063113     0.23006     0.98297     0.05142
0.068635    0.078055     0.12937    0.067661     0.08585     0.96023    0.025111
0.058241    0.056617     0.13002     0.06831   -0.096692     0.91508  -0.0024977
0.041027    0.035505     0.11963    0.061165    -0.30944     0.84395   -0.027508
0.022837    0.012443     0.10112    0.048822    -0.52316     0.75106   -0.050569
0.013418   -0.012567    0.081952    0.037129    -0.68264     0.64939   -0.073306
0.013093    -0.03303    0.063763    0.028684    -0.73916     0.55487   -0.090521
0.015692   -0.046996    0.053044    0.028684    -0.67485     0.47529   -0.096692
0.013418   -0.050244    0.054019    0.040052    -0.51374     0.40773   -0.086298
0.0049729   -0.046671    0.061489    0.062139    -0.30489     0.34959   -0.058365
-0.007045   -0.040825    0.070259    0.089098    -0.10124     0.30152   -0.018738
-0.019063   -0.030756    0.075456     0.11118    0.065062     0.26937    0.021538
-0.029132   -0.011592    0.079354      0.1232      0.1755     0.26027     0.05207
-0.034329    0.016666    0.088448      0.1258     0.23201     0.28041    0.070909
-0.034978    0.051745     0.10794     0.12223     0.24598     0.32946    0.084226
-0.03173      0.0852     0.13457     0.11801     0.23559     0.39572    0.098193
-0.027833     0.11281     0.16218     0.11541     0.21772     0.44801     0.11411
-0.02426      0.1349     0.18492     0.11313     0.20311     0.45873     0.12905
-0.024585     0.14854     0.19693     0.11151     0.19434     0.41813     0.13814
-0.030106     0.15471     0.19823     0.10891     0.18589     0.33595     0.14302
-0.040175     0.15179     0.19369     0.10534     0.18167     0.23104     0.14886
-0.050894     0.13847     0.18297    0.099167     0.17907     0.13132     0.15861
-0.055766     0.11086      0.1638    0.089748     0.17615     0.06084      0.1716
-0.057065    0.071558     0.13717    0.078379     0.17615    0.033231     0.18654
-0.057715    0.027385     0.10794    0.067011     0.19304    0.042975     0.19791
-0.056741   -0.013541    0.079029    0.054019     0.23754    0.073182     0.20018
-0.055766   -0.048296    0.057267    0.037129     0.31127     0.10989     0.19044
-0.053168   -0.076229    0.048497    0.013093     0.38954     0.14854     0.17517
-0.048945   -0.098965     0.05272   -0.012242     0.43762     0.18881      0.1651
-0.039526    -0.11423    0.063438   -0.036927     0.43372     0.22194      0.1625
-0.026209      -0.123    0.070584   -0.062262     0.38078     0.23721     0.16705
-0.015815     -0.1256     0.06896   -0.084999     0.30477     0.23006     0.17452
-0.0067202     -0.1256    0.053694    -0.10644     0.22877     0.20895     0.18199
0.0023744    -0.12982    0.029009     -0.1321     0.16803     0.18394     0.18199
0.010819    -0.13989   0.0056225     -0.1675      0.1232     0.16608     0.17095
0.014717    -0.15126  -0.0096434    -0.21232    0.090072     0.15926     0.15373
0.012119    -0.15678   -0.013866    -0.25942    0.063763     0.15373     0.13457
0.0078962    -0.15223   -0.011592    -0.30035    0.042001     0.14496     0.11573
0.0036737    -0.13859  -0.0024977    -0.31756    0.020888     0.13392    0.097543
0.003024    -0.12333    0.013093    -0.29905  -0.0057458     0.11638    0.084551
0.0056225    -0.10741    0.036154    -0.24903   -0.044073    0.091696    0.079354
0.0078962   -0.090521    0.065387    -0.18082   -0.089221    0.054668    0.084226
0.0020496   -0.070382    0.095269    -0.11358    -0.13469      0.0014    0.092346
-0.011267   -0.052518     0.11866   -0.059664     -0.1753   -0.067134    0.097543
-0.027183   -0.039201     0.13002   -0.020687    -0.20745    -0.14087    0.097543
-0.038227   -0.028157     0.12743   0.0036737    -0.22694    -0.19998    0.093321
-0.042124   -0.017439     0.11671    0.018615    -0.23149    -0.22109    0.081952
-0.037902  -0.0067202     0.10242    0.027709    -0.22077    -0.18731    0.061489
-0.024585   0.0062721    0.089098    0.035505    -0.19348    -0.10644    0.042651
-0.0031473    0.022188    0.077405    0.045574    -0.15321    -0.01549    0.032257
0.020239    0.040052    0.065712     0.05272    -0.11358    0.032906    0.031932
0.039402    0.055643    0.050771     0.05142   -0.089546   0.0039985    0.036479
0.054019     0.06961    0.032582    0.043625   -0.093769    -0.10709    0.040052
0.064088    0.078055    0.016016    0.036154    -0.11975    -0.27079    0.038103
0.070909    0.080328   0.0036737    0.029983    -0.15581    -0.44716    0.032257
0.074482    0.075781  0.00042559    0.024786    -0.19024    -0.59235    0.020239
0.081303    0.071234 -0.00022403    0.019914    -0.20908    -0.67517   0.0039985
0.092346    0.070259  -0.0031473    0.021538     -0.2068    -0.68394   -0.012567
0.10566    0.070584  -0.0073698    0.040702    -0.17822    -0.62288   -0.021012
0.11736     0.06831   -0.014191    0.086175    -0.12398    -0.51829   -0.025234
0.12418    0.065062   -0.020362     0.15633   -0.052518    -0.40331   -0.027508
0.1245    0.065062   -0.024909     0.23526    0.019589    -0.31171   -0.027508
0.11963    0.072533   -0.028807     0.29762    0.078055    -0.27176   -0.027183
0.11378    0.086175   -0.035953     0.32783     0.11281    -0.28605   -0.029782
0.11086    0.098517   -0.042449     0.32328     0.11833    -0.33575   -0.038551
0.11021     0.10794   -0.045047     0.29503    0.098517    -0.38447   -0.052193
0.10989     0.11638   -0.046671     0.25767     0.06831    -0.40234   -0.067134
0.10566     0.12483   -0.050244     0.22519    0.041027      -0.377   -0.079802
0.10047     0.13392   -0.054792     0.20278    0.021213    -0.31529   -0.090196
0.095594     0.14399   -0.057065     0.18816    0.011794    -0.22726   -0.097666
0.092021     0.15373   -0.056741     0.17842    0.013418    -0.12657    -0.10514
0.087799     0.16413   -0.055116     0.17062    0.024786    -0.03303    -0.11391
0.080003      0.1729   -0.057715     0.16153    0.042975    0.028684    -0.12268
0.070909     0.18004   -0.061613     0.14919    0.057917    0.049147    -0.12722
0.063763     0.18719   -0.062262     0.13587    0.065387    0.032906      -0.123
0.065712     0.19499   -0.054142     0.12385    0.058891   0.0033489    -0.11261
0.075781     0.20895   -0.037902     0.11703    0.042001   -0.012892   -0.097666
0.086824     0.23721   -0.015815     0.11638    0.021213  -0.0041217   -0.085648
0.088124     0.28073   0.0062721     0.11866   0.0036737    0.024461   -0.075255
0.078379      0.3314    0.020239     0.12353  -0.0047713    0.070259   -0.063237
0.060515     0.37558    0.021538      0.1297  -0.0031473     0.14009   -0.047971
0.045574     0.39929    0.011794      0.1284   0.0052977     0.23624    -0.03303
0.038103     0.39117  -0.0034721     0.11183    0.015692     0.35057   -0.020362
0.040052     0.35479   -0.019063    0.076431    0.020239     0.46815   -0.014516
0.042651     0.30217   -0.034978    0.031282    0.015367     0.57696   -0.015815
0.039727      0.2476   -0.049595   -0.011917 -0.00022403     0.66661   -0.018738
0.033231     0.19986   -0.061613   -0.046022   -0.031081     0.72962    -0.01614
0.025436     0.15991   -0.071682   -0.064861   -0.073306     0.75658   -0.010293
0.017316      0.1232   -0.081101    -0.06616    -0.11683     0.73936 -0.00054884
0.0062721    0.092021   -0.088247   -0.046347    -0.15191      0.6718    0.011144
-0.0083442    0.063113   -0.096042  -0.0028225    -0.16653     0.56039    0.024461
-0.022636    0.033556    -0.10676    0.050771    -0.15873     0.41748    0.036154
-0.031406   0.0017248    -0.11975    0.086175    -0.13664     0.25345    0.042326
-0.033679   -0.034329    -0.13275    0.083576    -0.11196    0.083251    0.043625
-0.03173   -0.075904    -0.13989    0.040377   -0.089871   -0.069083    0.040702
-0.027183    -0.12495    -0.14314   -0.030756   -0.078178    -0.18569    0.037129
-0.023285    -0.17887    -0.15061    -0.11066   -0.076879    -0.26169    0.033231
-0.025884    -0.23116    -0.16815    -0.18049   -0.075255    -0.30782    0.025436
-0.033354    -0.26819    -0.19283    -0.22597   -0.061613    -0.35654    0.010495
-0.039201    -0.28281    -0.21297    -0.24415   -0.025559    -0.43741  -0.0060706
-0.037252    -0.27306    -0.22207     -0.2435     0.03453    -0.56279   -0.015165
-0.029132    -0.24253    -0.21947    -0.23051     0.11833    -0.71545   -0.019388
-0.016464    -0.20225    -0.20843     -0.2133      0.2135    -0.87266   -0.028157
-0.0060706    -0.16425    -0.19316    -0.19413     0.29373     -1.0075    -0.04927
-0.0050961    -0.13177    -0.17367    -0.17075     0.33108     -1.1029   -0.081751
-0.018413   -0.099615    -0.14866    -0.14087     0.31679     -1.1517    -0.11813
-0.035303   -0.063237    -0.11456    -0.10968     0.26417     -1.1403    -0.14736
-0.043423   -0.025234   -0.070707   -0.079802     0.20051     -1.0558    -0.15646
-0.039851   0.0075714   -0.017439   -0.054792     0.15471    -0.90059    -0.13437
-0.028157     0.03583    0.041351   -0.034978     0.13197    -0.69661   -0.085648
-0.018413    0.057592    0.099492   -0.014191      0.1206    -0.48224   -0.020687
-0.012567    0.070259     0.14821   0.0065969     0.10534    -0.28703    0.040377
-0.0080194    0.071558     0.18134    0.019264    0.077405     -0.1243    0.080653
-0.0018481    0.063113     0.19336    0.015367    0.035505   0.0046481    0.092996
0.0043233    0.049472     0.18654 -0.00087364   -0.018088     0.10079    0.086175
0.0069217    0.033881     0.16868   -0.022636   -0.071682      0.1742    0.075456
0.0075714    0.016991     0.14951   -0.042449    -0.11066      0.2476    0.070909
0.011469      0.0014     0.13002   -0.056741    -0.12268     0.33693    0.078704
0.021863   -0.010618     0.11313    -0.06681    -0.10319     0.42462    0.096893
0.038103   -0.021337    0.095594   -0.073955   -0.063237     0.47107     0.11606
0.053694    -0.03238    0.078379   -0.073306   -0.020687     0.45288     0.12775
0.066362   -0.045047    0.067986   -0.064861    0.012443     0.37915      0.1284
0.071558   -0.057715    0.064413   -0.051219    0.029983     0.27944     0.12223
0.072858   -0.069733    0.059865   -0.039526    0.030633     0.18589     0.11443
0.074806   -0.079152    0.044599   -0.033354    0.019589     0.12678     0.11118
0.076755     -0.0837    0.020239   -0.037577   0.0010752     0.11443     0.11898
0.078379   -0.080127  -0.0054209   -0.046996   -0.023285     0.13944     0.13652
0.078055   -0.068434   -0.022961   -0.053168   -0.053817     0.18524     0.15503
0.075131   -0.052518   -0.027508   -0.053817   -0.089221     0.23136      0.1703
0.071883   -0.038227   -0.021337   -0.047971    -0.12527     0.26904      0.1755
0.067986   -0.028157   -0.015815   -0.036927    -0.15353     0.30152     0.17062
0.064413   -0.025559   -0.018738   -0.023285     -0.1623     0.33952     0.16445
0.058241   -0.029132   -0.030106   -0.011917    -0.15288     0.39182     0.16023
0.049147   -0.035628   -0.044073  -0.0067202     -0.1321      0.4597     0.15568
0.037778   -0.040175   -0.056091  -0.0054209    -0.10319     0.54253     0.14886
0.02706   -0.041799   -0.064861  -0.0034721   -0.071682     0.62958     0.13912
0.017965     -0.0405   -0.071682   0.0056225   -0.042124     0.70136      0.1245
0.0095202   -0.032705   -0.075579    0.024137   -0.015815     0.73514     0.10501
0.0043233   -0.017114   -0.070382    0.048172   0.0088706     0.71533    0.079679
0.0033489   0.0075714   -0.055116    0.065712    0.041027     0.64322    0.053694
0.0072465    0.034206   -0.036278    0.070259    0.086175     0.53571    0.039078
0.015367    0.056617    -0.01549     0.06019     0.14269     0.41261    0.041027
0.026735    0.074157   0.0052977    0.041351     0.20116      0.2908    0.053044
0.042975    0.089423     0.02706    0.018615     0.24988     0.18232    0.061814
0.062139     0.10242    0.050771  -0.0050961     0.27944    0.091372    0.061165
0.081627     0.11281    0.075131   -0.021661     0.27781   0.0069217    0.050771
0.095919     0.11931    0.095919   -0.021986     0.24663   -0.084349    0.038428
0.10079      0.1245     0.10826  -0.0021729     0.20538    -0.18796    0.025761
0.09397     0.12905     0.11183    0.030633     0.18069    -0.29937    0.010819
0.077405      0.1336     0.11054    0.063763     0.18784    -0.39649  -0.0080194
0.058891     0.13847     0.10696    0.088773     0.22422    -0.45788   -0.027183
0.045574     0.14464    0.099817    0.099817     0.28008    -0.47672   -0.046347
0.03453     0.14951    0.086175    0.095919     0.34212    -0.47639   -0.068434
0.020888     0.14886    0.070259    0.081627     0.40189    -0.48744   -0.093769
0.0023744     0.14626    0.056942    0.063438     0.44866    -0.53193    -0.12105
-0.019388     0.14172     0.04395    0.049147     0.44671    -0.60956    -0.14834
-0.038551     0.12937    0.030308    0.040702       0.347    -0.69434      -0.174
-0.051219     0.10566    0.013093    0.036479     0.13587    -0.75183    -0.19478
-0.055116    0.079679  -0.0057458     0.03453     -0.1321    -0.75085    -0.20258
-0.053817    0.059216   -0.019063    0.027709    -0.36303    -0.68687    -0.19803
-0.050894    0.049147   -0.019388    0.014392    -0.48354    -0.56766    -0.18471
-0.046671    0.045574  -0.0060706  0.00042559    -0.47347    -0.40396    -0.16977
-0.0405    0.044275    0.016341  -0.0067202    -0.36531    -0.21297    -0.15808
-0.034978    0.044275    0.039078  -0.0047713    -0.22467   -0.022311    -0.15353
-0.03173      0.0433    0.046873   0.0039985    -0.12008     0.14367    -0.15353
-0.031406    0.042001    0.028034    0.011794   -0.094418     0.27554    -0.15483
-0.034978    0.038428   -0.016464    0.013093    -0.14509     0.37265    -0.15158
-0.033679    0.033231   -0.069083    0.010819    -0.23181     0.43989    -0.13859
-0.028157    0.036479    -0.10741   0.0072465    -0.30132     0.48212     -0.1191
-0.023285    0.058241    -0.11553   0.0023744    -0.31496     0.50583   -0.098641
-0.020037    0.093645   -0.092145  -0.0037969    -0.27306     0.51979   -0.080776
-0.018088     0.13165   -0.050244   -0.011592    -0.20583     0.52824    -0.06616
-0.018413     0.15536  -0.0047713   -0.019063    -0.14281     0.53343   -0.053817
-0.018738     0.15698    0.029333   -0.023935    -0.10286     0.53928   -0.042774
-0.01549     0.14139    0.044599   -0.025884   -0.082725     0.55552   -0.029457
-0.0073698     0.11118    0.046548    -0.02361   -0.069408      0.5867  -0.0089938
-0.00022403    0.073507    0.049796   -0.018088   -0.056416     0.61853     0.01764
0.0039985    0.032582    0.066037   -0.010618     -0.0405     0.62568    0.046223
0.0033489  -0.0057458    0.092996  -0.0057458   -0.022961     0.58216    0.075781
0.00075039   -0.039526     0.12028  -0.0057458  -0.0099683     0.48082     0.10242
0.00075039   -0.064536     0.14042  -0.0099683  -0.0024977     0.33075     0.12125
0.0026992   -0.081101     0.15698    -0.01549   0.0020496     0.15861     0.13132
0.0049729   -0.090196     0.17387   -0.019063   0.0023744 -0.00087364     0.13295
0.0039985   -0.093444     0.19271    -0.01549  -0.0031473    -0.11943     0.12807
-0.0018481   -0.092794     0.21025  -0.0057458   -0.021986    -0.18342     0.12028
-0.0096434   -0.089871     0.22259     0.01017   -0.053168     -0.2029     0.11411
-0.016464   -0.089546     0.22194    0.031607   -0.093119    -0.20031     0.10599
-0.018738   -0.090196      0.2109    0.060515     -0.1295    -0.18536    0.097543
-0.021012   -0.092145     0.20051    0.099817    -0.14899    -0.15483    0.087149
-0.026533    -0.10026     0.20051     0.14594    -0.14964    -0.10579    0.074157
-0.034654    -0.12008     0.20993     0.19011    -0.13599   -0.046347    0.055968
-0.043748    -0.15093     0.22129        0.22    -0.11748    0.011469    0.037454
-0.053817    -0.18569     0.22292     0.23136    -0.10124    0.051745    0.023162
-0.061613    -0.21362     0.20278     0.22844   -0.087597     0.06961    0.016341
-0.06551    -0.22921     0.15698     0.21902   -0.070707    0.070259    0.020564
-0.061937    -0.22369    0.091696     0.21025   -0.042124    0.062464    0.035505
-0.052518    -0.19738    0.027385     0.20733  -0.0011985     0.05207    0.056617
-0.042449    -0.15743   -0.021986     0.21025    0.051745    0.042001    0.078379
-0.03238    -0.11488   -0.046996     0.21252     0.11541    0.036154    0.098193
-0.022961   -0.079152   -0.047321     0.21058     0.18199    0.032582     0.11313
-0.016464   -0.051868   -0.029782     0.20018     0.23364    0.019589     0.12483
-0.013866   -0.036602  -0.0099683     0.18102     0.25248   -0.010618      0.1323
-0.01614   -0.028157   0.0026992     0.15601     0.23201   -0.058689     0.13035
-0.013216   -0.019063   0.0052977     0.13035     0.18492    -0.11001     0.11995
-0.0011985  -0.0050961  -0.0018481     0.10729     0.12807    -0.15483     0.10761
0.016666     0.01017   -0.010618    0.091372    0.079679    -0.19186    0.094945
0.032906    0.019914   -0.014516     0.08585    0.051096    -0.22174    0.086175
0.039078    0.022837   -0.010943    0.086175    0.043625     -0.2487    0.081627
0.038428    0.021863  -0.0067202    0.084876    0.053044    -0.27599    0.074157
0.037129    0.022837  -0.0060706    0.079679    0.072858    -0.30619    0.059541
0.039727    0.026735   -0.010618    0.073507    0.090397    -0.34647     0.03453
0.044924    0.032582   -0.021012    0.070909    0.098842    -0.39551   0.0039985
0.046548    0.042975   -0.034978    0.072208    0.098842    -0.44943   -0.016464
0.0433    0.057917   -0.046996    0.071234    0.092346    -0.49718   -0.020037
0.041027    0.075131   -0.050894    0.064737    0.083901    -0.52511  -0.0089938
0.044275    0.093645   -0.048296    0.058566    0.075456    -0.53258   0.0091954
0.051096     0.11183   -0.046347    0.057267    0.067986    -0.52739    0.024137
0.058566     0.12548    -0.04927    0.059541    0.057592    -0.51829    0.030633
0.067336     0.13165   -0.055116    0.063113    0.040377    -0.50595    0.025436
0.078379      0.1336   -0.056416    0.070909    0.019589    -0.48711    0.015692
0.091696     0.13652   -0.056091    0.084551  0.00075039    -0.45885   0.0033489
0.10534     0.13717   -0.055766     0.10242  -0.0073698    -0.41793  -0.0093186
0.11378     0.13457    -0.04927     0.11736  -0.0050961    -0.36498   -0.018413
0.10729     0.13002   -0.038551     0.12678   0.0026992    -0.30035   -0.018738
0.0865     0.12775   -0.028157      0.1336    0.012443    -0.22694   -0.010943
0.064413     0.12807   -0.017114     0.14139    0.023487    -0.14996  0.00042559
0.048172      0.1336  -0.0028225     0.14951    0.038103   -0.075579    0.010819
0.042326     0.14334     0.01894     0.15666    0.061489   0.0020496    0.019914
0.047523     0.15244    0.046223     0.16056    0.092021     0.07773    0.023162
0.059865     0.15698    0.073182     0.15796     0.12418     0.14334    0.016666
0.06961     0.15406    0.090397     0.15016     0.15406     0.19174 -0.00087364
0.068635     0.14626    0.096893     0.13684     0.18232     0.22292   -0.025884
0.058566     0.13782     0.09462     0.12385     0.20116     0.23981   -0.045697
0.048822     0.13035    0.090722     0.11768     0.20083     0.25053   -0.052843
0.045574     0.12223    0.090722     0.11216     0.17485     0.26287   -0.046347
0.054993     0.10956    0.099167     0.10566     0.12515     0.28106   -0.032705
0.073507    0.087474     0.10891    0.097218    0.059541     0.31159   -0.020687
0.087149     0.06019     0.11606    0.084551  -0.0073698     0.35479   -0.012567
0.089748    0.032257     0.11671    0.068635   -0.055116     0.41456  -0.0076946
0.083576   0.0091954     0.10501     0.05272    -0.06681     0.49608  0.00075039
0.073182  -0.0063954    0.083251    0.041351   -0.047321     0.60944    0.017965
0.065387   -0.012242    0.055643    0.034206   -0.015165     0.75398    0.043625
0.058566   -0.013216    0.030308    0.029658    0.015042     0.90761     0.07708
0.05142    -0.01484    0.010819    0.019589    0.033881      1.0356     0.11476
0.044275   -0.019063  -0.0073698 -0.00022403    0.043625      1.1103     0.15763
0.039402   -0.028482   -0.029782   -0.031081    0.045574      1.1191     0.20181
0.037778   -0.040175   -0.056416    -0.06616    0.044924      1.0668     0.23656
0.039727   -0.050244   -0.085973    -0.10156    0.042651     0.96868     0.25248
0.045899   -0.060313    -0.11488    -0.13502    0.042001     0.84622     0.24825
0.055318   -0.070707    -0.14054    -0.16718    0.037129     0.71533     0.22974
0.064737   -0.082076    -0.16588    -0.19576     0.02706     0.58183     0.20116
0.069285   -0.090845    -0.18634     -0.2146    0.015692     0.45808     0.17322
0.065387   -0.094418    -0.19576    -0.21947   0.0072465     0.35609     0.15341
0.053369   -0.090521    -0.19413    -0.21427   0.0062721     0.28528     0.14302
0.032257   -0.079152    -0.18212    -0.20128    0.011794     0.24371     0.13912
0.0085458   -0.063886    -0.16328    -0.18309    0.026085     0.21415     0.13977
-0.010618    -0.04927    -0.13989    -0.15841    0.048822     0.16608     0.14334
-0.020687   -0.034978    -0.11488    -0.12527    0.075456    0.073182     0.14302
-0.02426   -0.022311   -0.090196   -0.089221    0.094945   -0.069408     0.13165
-0.027833  -0.0089938   -0.071357   -0.059664    0.095269    -0.24123     0.10761
-0.032055   0.0078962   -0.054792   -0.039201    0.073832    -0.40981    0.072533
-0.035303    0.027709   -0.037577   -0.031081    0.039078    -0.53551    0.031607
-0.036927    0.053044   -0.017439   -0.036602   0.0046481    -0.58065  -0.0080194
-0.036278    0.078379   0.0039985   -0.050244   -0.020687    -0.53518   -0.037252
-0.034004    0.098842    0.022512    -0.06551   -0.034004    -0.43969   -0.050894
-0.029132     0.10794    0.036804   -0.073955   -0.042124    -0.35946   -0.055441
-0.020362     0.10534    0.049147   -0.076879   -0.049595    -0.33185   -0.061288
-0.0093186    0.094295    0.058241   -0.076554   -0.055441    -0.35037    -0.07493
-0.00054884    0.078379    0.062464   -0.077853   -0.057065    -0.37375   -0.090521
0.00075039    0.058891     0.06084     -0.0837   -0.054142    -0.35816    -0.10319
-0.0050961    0.041676    0.050446   -0.097666   -0.046022     -0.2919    -0.11196
-0.012242    0.034855     0.03453    -0.12073   -0.036278    -0.18277    -0.11586
-0.015165    0.038428    0.014068    -0.14736    -0.02426   -0.045372    -0.11131
-0.0083442    0.049472  -0.0047713    -0.16782    -0.01549     0.10047   -0.096367
0.0078962    0.061489   -0.015815    -0.17465    -0.01484     0.23039   -0.077528
0.02641    0.072208    -0.01549     -0.1662   -0.029457     0.32036   -0.060313
0.041027    0.080003  -0.0021729    -0.14541   -0.057715     0.36746   -0.050244
0.049796    0.092996    0.025436    -0.11391   -0.088572     0.39507   -0.046022
0.053694     0.11021    0.061165   -0.082725    -0.10968     0.45288     -0.0405
0.054344     0.12937    0.092346   -0.059989    -0.11423     0.56299   -0.031406
0.05207     0.14724     0.11054   -0.044398    -0.11261     0.69259   -0.026209
0.047523     0.16088     0.11541   -0.032055    -0.11553     0.76957   -0.027833
0.042975     0.16218     0.11443   -0.017114    -0.12333     0.73352   -0.033354
0.039402     0.14464     0.11216   0.0052977    -0.12495     0.56949   -0.032705
0.040377     0.11216     0.11248    0.037454    -0.11196     0.31062   -0.016464
0.046548    0.072858     0.11671     0.07708   -0.082076    0.015367    0.020888
0.054019    0.037129     0.12288     0.12028   -0.044398    -0.25942    0.067986
0.058891    0.013093     0.12905     0.16088   -0.012567    -0.49263     0.11021
0.061165   0.0023744     0.13425     0.19044   0.0085458    -0.69044     0.13165
0.059216   0.0017248     0.13944     0.21155    0.016991    -0.86908     0.12678
0.055968   0.0085458     0.14984     0.23786    0.013743     -1.0373     0.10079
0.049796    0.020564     0.17257     0.28593  -0.0011985     -1.1926    0.067336
0.043625    0.036804     0.21058     0.35479   -0.019063     -1.3134    0.042975
0.0433    0.055968     0.25313     0.42527   -0.030431     -1.3722    0.035505
0.05142     0.07773     0.28723     0.47627   -0.027833     -1.3517    0.041676
0.063113    0.098193     0.29892     0.49413   -0.011267     -1.2488    0.053369
0.071234     0.11346     0.28268     0.46847    0.016991     -1.0734    0.062464
0.073507     0.11866     0.24176     0.40838    0.051745    -0.85057    0.064737
0.06831     0.11898     0.18816     0.33465    0.084551    -0.62126    0.064088
0.061489     0.11508     0.13912     0.26319     0.10794    -0.42572    0.062139
0.058891     0.10891     0.10631     0.20246     0.11703     -0.2932     0.06019
0.061165    0.099167    0.089748     0.15179     0.11086    -0.22564    0.055643
0.065712    0.083576    0.081627     0.10469    0.098517    -0.20225     0.04395
0.066686    0.064737     0.07773    0.055968    0.088773    -0.19186    0.025111
0.060515    0.043625    0.079029   0.0072465    0.082277    -0.16068   0.0036737
0.047198    0.020888    0.081627   -0.032705     0.07773   -0.095068   -0.016789
0.027709   0.0036737    0.083901   -0.051219     0.06961  -0.0054209   -0.034978
0.008221  -0.0060706    0.082602   -0.044398    0.054668    0.082277    -0.04992
-0.0047713  -0.0099683    0.079679    -0.01549    0.034855     0.14432   -0.062587
-0.0099683   -0.011917    0.075456     0.02706    0.016016     0.17485   -0.077528
-0.0073698    -0.01549    0.072208    0.064413   0.0056225     0.17647   -0.097991
0.00075039   -0.016464    0.064737    0.080328   0.0062721     0.15828    -0.12073
0.0065969  -0.0099683    0.048172    0.067661    0.016991     0.12937    -0.13859
0.0075714    0.003024    0.025436    0.037454    0.032906    0.099167    -0.14769
0.0017248    0.020564   0.0020496   0.0010752    0.046873    0.072533    -0.15158
-0.0047713    0.039727   -0.018088   -0.029132    0.058566    0.053694    -0.15418
-0.010293    0.055968   -0.029782   -0.052518    0.066686    0.046548    -0.15483
-0.013216    0.062464   -0.036602   -0.071357    0.073182    0.051745    -0.14996
-0.011917    0.057917   -0.046347   -0.084999    0.079679    0.070259    -0.13047
-0.0057458    0.044924   -0.062912    -0.09182    0.087799     0.10729    -0.09929
0.0049729    0.036479     -0.0837   -0.095717     0.10501     0.16998   -0.063886
0.01894    0.040702    -0.11098   -0.099615     0.13327     0.25637   -0.033354
0.033881     0.06019    -0.14216    -0.10579     0.16413     0.36681  -0.0093186
0.044275    0.090722    -0.17367    -0.11228     0.17615     0.50095    0.013093
0.049147     0.12645    -0.19641    -0.11521     0.15503     0.65491    0.041027
0.047198      0.1625    -0.20323    -0.10838     0.10501     0.81277    0.072533
0.042326     0.19369    -0.19576   -0.093119    0.040052     0.93977     0.10339
0.038103     0.21252    -0.17822   -0.069733   -0.021012      1.0005      0.1271
0.036804     0.21772    -0.15386   -0.040175   -0.058689     0.98849     0.13977
0.036804     0.21252    -0.12592  -0.0089938   -0.065186     0.91573     0.14042
0.034855     0.20343    -0.10156     0.01764   -0.048296      0.8053     0.13002
0.031282     0.19011   -0.084024    0.038753   -0.023935     0.67895     0.11573
0.027385     0.16803   -0.073631    0.054668  -0.0044465     0.55877     0.11054
0.024786     0.13587   -0.069083    0.063113   0.0033489      0.4662     0.11898
0.028034    0.099817   -0.068434    0.064088   -0.013866     0.41228     0.14107
0.036154    0.066686    -0.06681    0.064088    -0.05739     0.39377     0.16543
0.043625    0.044924   -0.061937    0.070259    -0.11553     0.38954     0.18102
0.050446    0.031607    -0.05739    0.080003    -0.17724     0.38954     0.18362
0.054668    0.019589   -0.062912    0.092671    -0.23279     0.39539     0.17582
0.054344   0.0010752     -0.0824     0.10242    -0.27241     0.40903     0.16348
0.051096   -0.027833    -0.10871     0.10209    -0.29482     0.43145     0.15244
0.047847   -0.063237    -0.12852    0.091372     -0.2971     0.45646     0.14432
0.046873    -0.10254     -0.1321     0.07708    -0.26624     0.47075     0.13847
0.042651    -0.14379    -0.12235    0.064413    -0.20128     0.46328     0.13132
0.033231    -0.18666    -0.10741    0.053044    -0.10968     0.43827     0.12093
0.01894    -0.23116   -0.092145    0.044275  -0.0041217     0.40059     0.10469
-0.0034721    -0.27339   -0.078503    0.038103     0.10599     0.34927    0.083901
-0.037577    -0.30749   -0.063886    0.032906     0.21642     0.28008    0.064413
-0.072981     -0.3299   -0.046671    0.023487     0.31744     0.18946    0.048497
-0.095717    -0.34225   -0.020362   0.0010752     0.39637     0.07708    0.035505
-0.10189    -0.35037    0.015367   -0.037577     0.44963   -0.052843    0.024137
-0.092469    -0.35686    0.061489   -0.085648     0.48666    -0.19901    0.011469
-0.077853    -0.36141     0.11054     -0.1321     0.51882    -0.35719  -0.0011985
-0.067784    -0.35589     0.15438     -0.1688     0.54513    -0.51764   -0.012567
-0.064211      -0.339     0.18394    -0.18114     0.54968    -0.66316   -0.022636
-0.061288    -0.31106     0.19141    -0.16035     0.51232    -0.78756   -0.030431
-0.052843    -0.27664     0.17452   -0.098641      0.4256    -0.89507   -0.035953
-0.039201    -0.24221     0.14561  -0.0047713     0.30932    -0.99576   -0.038876
-0.025559    -0.21492      0.1245    0.093321     0.19271     -1.0968   -0.039526
-0.017439    -0.19803      0.1219     0.16803    0.095594     -1.1971    -0.04115
-0.013866    -0.18829     0.13749     0.21188    0.023162     -1.2829   -0.046347
-0.013866    -0.17594      0.1664     0.22844   -0.024585     -1.3349   -0.058689
-0.020687    -0.15386     0.19076     0.23006   -0.053168     -1.3436   -0.075904
-0.030106    -0.12073     0.18719     0.21577   -0.068758     -1.3163   -0.095068
-0.033679   -0.081101     0.14659     0.16965   -0.074605      -1.264    -0.10579
-0.027508   -0.038227    0.072208    0.072208   -0.083375     -1.1962    -0.10611
-0.017439   0.0023744   -0.019063   -0.087272    -0.10286     -1.1198   -0.096042
-0.0093186    0.036804    -0.10644    -0.28346     -0.1334     -1.0377   -0.076554
-0.0047713    0.061489    -0.17237    -0.47022    -0.16653    -0.95418   -0.051868
-0.0060706    0.075131    -0.20778    -0.60242    -0.19803     -0.8785   -0.033679
-0.012892    0.078704    -0.21492    -0.65016    -0.22337    -0.81354   -0.026858
-0.02426    0.076106    -0.19771    -0.61086    -0.24221    -0.75378   -0.026533
-0.036602    0.075131    -0.16068     -0.5092    -0.25227    -0.69206   -0.025559
-0.046671    0.079029    -0.11163    -0.38155    -0.25357    -0.61086   -0.026533
-0.053168    0.088124    -0.05739    -0.26364    -0.25065    -0.48549    -0.03238
-0.056416     0.10144  -0.0054209    -0.17367    -0.25195    -0.30132   -0.039851
-0.060963     0.11768     0.03453    -0.11391    -0.25942   -0.076879   -0.048296
-0.067459     0.13392    0.056292   -0.072006    -0.27209     0.14107    -0.05804
-0.072006     0.14464    0.057592   -0.039526    -0.28378     0.30932   -0.067784
-0.072006     0.14789      0.0433   -0.012567    -0.28638     0.41326    -0.07428
-0.064536     0.14821     0.01764   0.0056225    -0.27728      0.4727   -0.079802
-0.056741     0.14886    -0.01484    0.017316    -0.25682     0.51947   -0.084349
-0.051219     0.15309   -0.051868    0.025436    -0.23538     0.57923   -0.085648
-0.046022     0.16088   -0.084999    0.030633    -0.22272     0.65719     -0.0824
-0.040175     0.16998    -0.10676    0.029658    -0.22044     0.74326   -0.073631
-0.030431     0.17907    -0.11163    0.022837    -0.22142     0.81927   -0.060638
-0.011592     0.18816   -0.094418    0.017965    -0.21492     0.87838   -0.043748
0.014717     0.19628   -0.064861    0.020888    -0.18991     0.92061   -0.025559
0.04395     0.19888   -0.035628    0.032257    -0.14606     0.95146  -0.0060706
0.067661     0.19628   -0.010943    0.049147   -0.090196     0.96738    0.008221
0.080328     0.18784   0.0052977    0.061165   -0.036927     0.96608    0.009845
0.07773     0.17387    0.012443    0.063763  -0.0015233     0.94269  -0.0050961
0.059865     0.15211    0.011144    0.055643    0.014392     0.89235   -0.031406
0.03583      0.1258   0.0046481    0.046548    0.019914     0.82154   -0.054792
0.017316     0.09462  -0.0037969    0.039078    0.023162     0.74553   -0.070707
0.010495     0.06019   -0.016464    0.036154    0.024137     0.67603   -0.077528
0.013418    0.022837   -0.036927    0.039727    0.020564     0.61431   -0.077528
0.019264   -0.010293   -0.062912    0.046223    0.016666     0.55357   -0.068434
0.024137   -0.027183   -0.087272    0.055643    0.016666     0.49478   -0.050894
0.028684   -0.023935    -0.09929    0.067011    0.021213     0.44086   -0.025559
0.034206  -0.0031473   -0.092469    0.084226    0.028359     0.40514   0.0052977
0.042651    0.025761   -0.071032     0.10826    0.038753     0.39831    0.033881
0.05272    0.056942   -0.042124     0.13717    0.054019     0.41391    0.051096
0.065387    0.082927   -0.011917      0.1651    0.078055     0.43437     0.05207
0.07773     0.10306    0.016016     0.18946     0.11021     0.43957    0.040377
0.088124     0.12288    0.044924      0.2109     0.14691     0.41683    0.021213
0.093321     0.14724    0.076431     0.22812     0.18037     0.36518   0.0039985
0.090072     0.17907     0.11281     0.23721     0.19888     0.28983  -0.0073698
0.079029      0.2161     0.15244     0.23754     0.19174     0.18979   -0.012567
0.065387      0.2541     0.18751     0.23689     0.16056    0.063438   -0.011267
0.051745     0.29015      0.2096     0.23818     0.11378    -0.08305  -0.0057458
0.03583     0.32198     0.21447     0.24371    0.060515    -0.23214   0.0039985
0.01829     0.33887     0.20473     0.24598    0.010495    -0.35784    0.013743
0.0075714      0.3353     0.18784     0.24013   -0.023935    -0.43579    0.023162
0.0078962     0.31192     0.16965     0.22941   -0.038227    -0.46048    0.033231
0.016666     0.27456     0.15666     0.22097   -0.028157    -0.44034    0.046548
0.028034     0.23364     0.15179     0.21902  0.00042559    -0.39032    0.067661
0.039402     0.19434     0.15081     0.22324    0.036804    -0.32373    0.095919
0.047523     0.15958     0.15114     0.22552    0.070909    -0.25195     0.12613
0.054344      0.1219     0.14821     0.22747    0.099817    -0.17887     0.15114
0.060515    0.079679     0.13977     0.23364     0.13002    -0.09994     0.16868
0.063763     0.03583     0.12353      0.2463     0.16998   -0.013216     0.17874
0.067336  -0.0031473     0.10014     0.26287     0.22519    0.082602     0.18134
0.070259   -0.035953    0.070584     0.27456     0.28788     0.17615     0.18069
0.071558   -0.063561    0.039727     0.27326     0.34147     0.24728     0.18167
0.071234   -0.087597   0.0072465     0.25183     0.37006     0.27976     0.18427
0.072533    -0.11456    -0.02426     0.21545     0.36421     0.27554     0.18589
0.076755    -0.14736   -0.055441     0.16673     0.31874      0.2515     0.18459
0.083576    -0.18959   -0.090845     0.11736     0.24306     0.22844     0.18037
0.087474    -0.23961    -0.13047    0.071883     0.15698     0.21772     0.17647
0.086824    -0.29417     -0.1688    0.035505    0.079029     0.21837     0.17582
0.083576    -0.34484    -0.19738    0.013093    0.018615     0.22292     0.17874
0.081952    -0.38155    -0.20875   0.0033489   -0.024585     0.22422     0.18329
0.080653    -0.39389     -0.2016 -0.00054884    -0.04992      0.2187     0.18524
0.074157    -0.37473    -0.17822  -0.0063954   -0.059014      0.2057     0.18589
0.062464     -0.3286    -0.14379   -0.013216   -0.050244     0.18751     0.18264
0.044599    -0.26851    -0.10449   -0.019388   -0.030756     0.16673      0.1768
0.025436     -0.2094   -0.061288   -0.022636  -0.0080194     0.13944     0.17225
0.013743    -0.15451    -0.01614   -0.021012    0.016991     0.10534      0.1703
0.011144    -0.10059    0.030633   -0.010293    0.050771    0.065387     0.16478
0.014068   -0.047321    0.079679    0.011794     0.10079    0.020239     0.15503
0.019914      0.0014     0.13067    0.039078     0.16478   -0.035628     0.14302
0.02641    0.042975     0.18264    0.066362     0.22584    -0.10579     0.12678
0.028359    0.070259     0.23006    0.082927     0.25313    -0.18049     0.10989
0.024786    0.079679     0.26579    0.082602     0.22617    -0.24675    0.092021
0.021863    0.075131     0.28691     0.06961     0.15438    -0.29288    0.073182
0.021863    0.064413      0.2986    0.059541    0.065712    -0.31399    0.054668
0.027709     0.05272     0.30769    0.059216   -0.012567    -0.31756    0.038103
0.040377    0.043625     0.32101    0.071883   -0.065186    -0.31366    0.026085
0.059541    0.035505     0.33693    0.097543   -0.092469      -0.301    0.019914
0.080003    0.027709     0.34829     0.13165    -0.10384    -0.26981     0.01829
0.097218    0.023487     0.35089     0.16608    -0.11228    -0.21005    0.019914
0.10696     0.02641     0.34407     0.19563    -0.12138    -0.12463    0.020564
0.10696    0.037454     0.32848      0.2187    -0.13469   -0.029132    0.019264
0.096569    0.058241     0.30639     0.23754    -0.14671    0.057592    0.018615
0.083576    0.090397     0.28626     0.24988    -0.14834     0.13132    0.019589
0.078379      0.1271     0.27456     0.25053    -0.13697     0.19174    0.019589
0.0865     0.16185     0.27034     0.23364    -0.11586     0.24078    0.017316
0.10501     0.18589     0.26482     0.19953   -0.090196     0.28203    0.015042
0.12385     0.19499     0.24403     0.15698   -0.061937     0.32036    0.014717
0.13652     0.19239     0.19953     0.11541   -0.030431     0.35154    0.017965
0.1362     0.18622     0.13522    0.080328   0.0049729     0.36161    0.022837
0.1245     0.18232    0.067661    0.055318    0.042326     0.33498    0.024137
0.11183     0.18329    0.015042    0.040052    0.077405     0.26222     0.01894
0.099817     0.18687   -0.012242    0.027385     0.10079     0.15666   0.0069217
0.08585     0.19044   -0.017114    0.009845     0.10729    0.040052  -0.0083442
0.067986     0.18589  -0.0099683    -0.01484     0.10112    -0.06551   -0.022961
0.048172       0.169  -0.0057458    -0.04115    0.081303    -0.14119   -0.035953
0.032257     0.14626    -0.01484   -0.064211    0.051745     -0.1662   -0.050894
0.020888     0.12483   -0.038876   -0.079152    0.023162    -0.14087   -0.069408
0.01764     0.11021   -0.072981   -0.084349   0.0062721    -0.10449   -0.088572
0.01764     0.10242    -0.10514   -0.084349  0.00075039    -0.11196    -0.10351
0.01829    0.097868    -0.12787     -0.0824  -0.0018481    -0.19901    -0.11845
0.014392    0.093645    -0.14087   -0.083375  -0.0083442    -0.35816    -0.13567
0.0056225    0.090397    -0.14736    -0.08305    -0.02426    -0.53713    -0.15516
-0.0054209    0.090722    -0.14736   -0.081426   -0.052518     -0.6794     -0.1675
-0.013216    0.095269    -0.14379   -0.073955   -0.085324    -0.75605    -0.16718
-0.020037    0.097543    -0.13989   -0.061288    -0.11521    -0.76677    -0.15158
-0.026858    0.091696    -0.14249   -0.047321    -0.13567    -0.73689    -0.13112
-0.03303    0.078704    -0.14931   -0.039526    -0.14184    -0.70408    -0.11228
-0.033679    0.065387    -0.15548   -0.042774     -0.1321    -0.68654    -0.10221
-0.032055    0.058891    -0.15516   -0.051868    -0.11358    -0.69239    -0.10221
-0.030756    0.059865    -0.14736   -0.062262   -0.095717     -0.7096    -0.10806
-0.029782    0.062789    -0.13924   -0.066485   -0.086623    -0.71772    -0.11066
-0.027183    0.064737    -0.13177   -0.061613   -0.090196    -0.70636    -0.10838
-0.022961    0.062464    -0.12398   -0.053168    -0.10514    -0.67485    -0.10319
-0.015815    0.055968    -0.11521    -0.04992    -0.13015    -0.61898   -0.098316
-0.0083442    0.044924    -0.10091   -0.053492    -0.15938    -0.53161   -0.093119
-0.00054884    0.033556   -0.081101   -0.063237    -0.18407    -0.40526   -0.081751
0.0049729    0.025761   -0.061613   -0.076554    -0.19706    -0.23441   -0.061937
0.0069217    0.023812   -0.047646   -0.089546    -0.19348   -0.032055   -0.036278
0.003024    0.026085   -0.038227    -0.10416     -0.1753     0.18362   -0.017114
-0.0063954    0.029983   -0.029457    -0.11845    -0.14866     0.39344  -0.0096434
-0.022961     0.03453   -0.019388    -0.12852    -0.12138     0.57826   -0.011917
-0.043099     0.03453   -0.014516    -0.13177   -0.096692     0.73611   -0.017114
-0.060963    0.028359   -0.016789    -0.12982   -0.070707     0.87383   -0.012567
-0.072331    0.020564   -0.024909    -0.12592   -0.036278     0.98134    0.010495
-0.075255    0.017316   -0.033354    -0.11943    0.015042      1.0385    0.051096
-0.069408    0.022188   -0.036278    -0.10968    0.082927      1.0307    0.093645
-0.052843    0.024786   -0.037577   -0.093769     0.15601     0.96478     0.13067
-0.033354    0.015692   -0.042774   -0.077528     0.21577     0.86019     0.15763
-0.019063  -0.0031473   -0.051868   -0.067459     0.24306     0.74326      0.1729
-0.012242   -0.024909   -0.063886   -0.065186     0.22747     0.63315      0.1742
-0.016464     -0.0405    -0.07428   -0.069083     0.17452     0.53376     0.16185
-0.031406   -0.051544   -0.085324    -0.07428     0.10177     0.43242     0.14172
-0.053817   -0.062587   -0.093769   -0.077203    0.034855      0.3051     0.11313
-0.071682   -0.077853   -0.095068   -0.079152    -0.01549     0.12548    0.079354
-0.076229    -0.10091   -0.088247   -0.077853   -0.047971    -0.11488     0.05142
-0.066485    -0.13242   -0.082076   -0.073306   -0.065835    -0.40201    0.037778
-0.048945    -0.16782   -0.081101   -0.066485   -0.073631    -0.70181    0.042001
-0.034329    -0.19933   -0.082076   -0.059014    -0.07428    -0.96133    0.061489
-0.026533    -0.22012   -0.080776   -0.050244   -0.072656     -1.1377    0.089748
-0.021986    -0.22337   -0.075579   -0.042124    -0.06681     -1.2085     0.11768
-0.017114    -0.20745   -0.069083   -0.036278   -0.055116     -1.1747     0.13749
-0.0099683     -0.1701   -0.061937   -0.034654   -0.040825     -1.0474     0.14691
0.00042559    -0.11943   -0.056091   -0.039526   -0.027183    -0.83953     0.15049
0.014717   -0.069733   -0.050894   -0.047321   -0.020362    -0.58488     0.15731
0.030308    -0.03303   -0.048296   -0.050894    -0.01549    -0.33575     0.16933
0.044599   -0.010943   -0.046347   -0.045372  -0.0063954    -0.13989     0.17972
0.055318  0.00042559   -0.045372   -0.029132   0.0062721   -0.020687     0.17517
0.061165   0.0091954   -0.040825  -0.0080194    0.019589    0.020888     0.15211
0.061814     0.01829   -0.029132    0.013093    0.031932    0.009845      0.1206
0.063438    0.031282   -0.010293    0.031932    0.045249   -0.019712    0.091696
0.062789    0.046873    0.014068    0.047523    0.057917   -0.038227    0.074482
0.058241    0.065062    0.038753    0.055643    0.071558   -0.035628     0.06896
0.048172    0.081952    0.053369    0.050121    0.083251   -0.016464    0.073507
0.038103    0.095594    0.051745     0.03518    0.093321    0.010819    0.083901
0.031282     0.10242    0.033556     0.01764     0.10631    0.042975     0.09397
0.02706     0.10371  0.00042559   0.0010752     0.12807    0.091047     0.10014
0.019914    0.098193   -0.039526   -0.013866     0.15796     0.17452    0.099492
0.0085458    0.084226   -0.076554   -0.028157     0.18622     0.30282    0.091372
-0.007045    0.062139    -0.10611   -0.039526     0.20538     0.45418    0.079029
-0.021661    0.039078      -0.123   -0.043748     0.20018     0.58443    0.064413
-0.031406    0.019264    -0.12495   -0.042774     0.16738     0.64419    0.053044
-0.031081   0.0062721    -0.11228   -0.040175     0.11638     0.61074    0.049796
-0.019063  -0.0041217   -0.086623   -0.039201    0.064737     0.50745    0.054344
-0.0011985  -0.0083442   -0.052843   -0.040825    0.033231      0.3837    0.061165
0.012443  -0.0018481   -0.021337   -0.046996    0.031607     0.28853    0.061814
0.016341    0.012443   0.0052977   -0.056091    0.051096     0.24988    0.054668
0.012119    0.027709    0.020239   -0.071032    0.076431     0.26612    0.037778
0.0075714    0.035505    0.024137   -0.090196    0.095269     0.31386    0.011469
0.0095202    0.031932    0.020239    -0.11131    0.099492     0.36291   -0.018738
0.01894    0.022512    0.017965    -0.13307    0.089748     0.39702   -0.040175
0.028359    0.013093    0.022188    -0.15451    0.072858     0.40838   -0.050894
0.031282   0.0091954    0.036804    -0.17302    0.059541     0.40156   -0.052518
0.031932    0.014392    0.063438    -0.18601    0.056942     0.38662   -0.046996
0.036804    0.028034    0.099817    -0.19186    0.064413     0.36551   -0.039851
0.049472    0.044924     0.13749    -0.18894    0.073507     0.32621   -0.033679
0.067336     0.06019     0.16965    -0.17692    0.079354     0.25507   -0.031081
0.087799    0.067986     0.19011    -0.15808    0.078379     0.15049   -0.034004
0.10339    0.062789     0.19856    -0.13827    0.070259    0.026735   -0.041799
0.11151    0.050771     0.19921    -0.12527    0.057917   -0.084674   -0.052193
0.11021    0.037778     0.19174     -0.1178    0.048497    -0.14964   -0.061937
0.10112    0.021538     0.18427    -0.10189    0.053694    -0.14281   -0.068109
0.088124   0.0039985     0.18037   -0.061937    0.071558   -0.065835   -0.068434
0.072208  -0.0093186     0.17842   0.0062721    0.089098    0.057267   -0.068434
0.054344   -0.014191      0.1729    0.098842    0.089423     0.18654   -0.069733
0.038103   -0.014191     0.16185     0.19693    0.060515     0.28301   -0.072331
0.023487  -0.0093186     0.14594     0.27489    0.003024     0.33303   -0.075579
0.011469  0.00010078      0.1336     0.31549   -0.065186     0.34635   -0.081751
0.0043233    0.011469     0.13002     0.31874    -0.11813     0.34342   -0.094743
0.0049729    0.026735     0.13717     0.29925    -0.13892      0.3405    -0.11423
0.010495    0.047523     0.15276     0.27944     -0.1295     0.34992    -0.13242
0.020239    0.073507     0.18004     0.28528   -0.099615     0.37395    -0.14379
0.027385    0.097543     0.21902     0.33238   -0.056091     0.40936    -0.14834
0.024786     0.11313     0.26449     0.40676   -0.017114     0.44411    -0.14606
0.015367     0.11898     0.30055     0.47562   0.0065969     0.46425    -0.13957
0.0036737     0.11833     0.31386     0.51167    0.011144     0.46198    -0.13437
-0.0044465     0.11151     0.30217     0.50193 -0.00087364     0.43729    -0.13145
-0.0057458    0.098842     0.27229     0.45256   -0.022311     0.39279      -0.123
-0.00022403    0.081952     0.23591      0.3824   -0.042124     0.33075    -0.10481
0.0088706    0.064088     0.20343     0.31094   -0.053492     0.25345   -0.078827
0.015692     0.05207     0.17647      0.2515   -0.059989     0.15666   -0.052193
0.013093    0.049796     0.15438     0.20603   -0.064536    0.046873   -0.030106
-0.0021729    0.055968      0.1349      0.1755    -0.06551    -0.06551   -0.017439
-0.023935    0.062789     0.11411     0.15211   -0.061937    -0.16977   -0.012567
-0.045697    0.069285    0.090072     0.12905   -0.051544    -0.26104   -0.013216
-0.05804    0.074482    0.064413     0.10989   -0.036278    -0.34484   -0.014516
-0.054792     0.07708    0.041676    0.094945   -0.018413    -0.43254   -0.012242
-0.039526     0.07773    0.023162    0.082277  -0.0041217    -0.52934  -0.0021729
-0.021661    0.078379   0.0072465    0.069285  0.00075039    -0.63652    0.014392
-0.010943    0.074806   -0.010618    0.058241  -0.0093186    -0.74891    0.029333
-0.010618    0.061165   -0.032705    0.047198   -0.034978    -0.85089    0.037129
-0.017439    0.038428   -0.051544    0.038753    -0.06681     -0.9243    0.040052
-0.027508     0.01017   -0.062587     0.03453   -0.088572    -0.95418    0.039078
-0.035953   -0.013866   -0.067134    0.033881   -0.089546    -0.93729    0.037454
-0.041475   -0.030756   -0.072331    0.040052   -0.077528    -0.87623    0.042326
-0.046671   -0.043748   -0.081101     0.05207   -0.061613    -0.78009    0.057592
-0.055441   -0.051868   -0.095068    0.064413   -0.044723    -0.66446    0.075456
-0.068758    -0.05739    -0.11293    0.069285   -0.026533    -0.54947    0.080328
-0.080451   -0.060313    -0.12885    0.066037  -0.0089938    -0.44424    0.065712
-0.0837   -0.063237    -0.13762    0.058891   0.0085458    -0.34387    0.038103
-0.078503    -0.06551    -0.13632    0.054344    0.025761    -0.22564    0.011794
-0.063886   -0.065835     -0.1269     0.05207    0.046873   -0.064861   0.0052977
-0.041799   -0.063561    -0.11358     0.05272    0.070909     0.14659    0.029009
-0.018088   -0.058365   -0.098316    0.054019    0.093645     0.38565     0.07773
0.0052977   -0.054142   -0.080451    0.050771     0.10761     0.60652     0.13522
0.021538   -0.050894   -0.059014    0.040702     0.10859     0.76697     0.18069
0.029009   -0.050569   -0.034654    0.027709     0.10177      0.8511      0.2057
0.032906   -0.057715   -0.010618    0.012768      0.0865     0.86182     0.21058
0.033881   -0.072006   0.0039985  -0.0063954    0.065387     0.81732     0.20213
0.032906   -0.087272    0.008221   -0.027183    0.045249     0.74066     0.18394
0.029658   -0.099615   0.0036737   -0.045047    0.036479     0.65004      0.1651
0.026735    -0.10579  -0.0060706   -0.055116    0.047198     0.55227     0.15081
0.022837    -0.10416   -0.015165    -0.05804    0.075781     0.45353     0.13749
0.024461   -0.094418   -0.023285   -0.053492     0.11411     0.35609      0.1245
0.033556   -0.076879   -0.030756   -0.043423     0.14886     0.26417     0.11573
0.049472   -0.053817   -0.038876   -0.031081     0.17095     0.17355     0.11703
0.06961   -0.031081   -0.042774   -0.017114     0.17907    0.087149     0.12678
0.088773   -0.011917   -0.040175  -0.0080194     0.17192     0.01017     0.14009
0.10242    0.008221   -0.035303  -0.0018481     0.14691   -0.046996     0.14756
0.10631    0.033556   -0.030756   0.0033489     0.10436   -0.081101     0.14821
0.10144    0.064737   -0.026209   0.0091954    0.047198   -0.097341     0.14009
0.087799     0.09462    -0.02426    0.016991   -0.020687    -0.10579     0.11866
0.071883     0.11573   -0.026533    0.022837   -0.086298    -0.11813    0.082927
0.057267     0.12905    -0.03238    0.022188    -0.13697    -0.14152    0.037454
0.047523     0.13847     -0.0405    0.016341     -0.1649     -0.1662   -0.010293
0.041676     0.14042   -0.050569   0.0095202      -0.174    -0.18049   -0.050569
0.038103     0.13717   -0.061288   0.0052977    -0.16945    -0.17659   -0.077853
0.037454      0.1336   -0.067134   0.0026992    -0.16165    -0.15061   -0.093769
0.038753     0.13295   -0.068434  0.00010078    -0.15386    -0.11066   -0.097341
0.041027     0.13457   -0.067134  -0.0024977    -0.14281   -0.063886   -0.090196
0.045574     0.14237   -0.068434  -0.0057458    -0.12235   -0.015165   -0.077203
0.053369     0.15406   -0.071357  -0.0080194   -0.096692    0.036154   -0.063561
0.064737     0.16965   -0.068109  -0.0057458   -0.068109    0.089423   -0.051219
0.080978     0.18589   -0.054142 -0.00054884    -0.03173     0.13847   -0.034654
0.09462     0.20116   -0.035303 -0.00054884    0.013093      0.1781   -0.017114
0.10696      0.2161   -0.021661   -0.012892    0.061489     0.21577  -0.0021729
0.12255     0.22877   -0.019712   -0.035303     0.10989     0.26125   0.0085458
0.14302     0.23201   -0.030756   -0.064211     0.15211     0.32491    0.015367
0.16121     0.22487   -0.051868   -0.091495     0.17777     0.40676    0.021863
0.16868     0.21058   -0.073955    -0.11001     0.18297     0.49121    0.031932
0.16121     0.19271   -0.090196    -0.11521     0.17225     0.56397    0.042001
0.13587       0.169   -0.094743    -0.10774     0.15828     0.61366    0.048822
0.10177     0.14432   -0.089546   -0.089871     0.15341      0.6351    0.048172
0.072858     0.12353   -0.070382   -0.055766     0.15503     0.62633    0.046548
0.055643     0.10794    -0.04115  -0.0041217     0.14886     0.59547    0.048822
0.048172    0.096569   -0.007045    0.057267     0.12158     0.55065    0.058566
0.0433    0.086824    0.022837     0.11281     0.06896     0.49316    0.066686
0.038103     0.07773    0.042651     0.14334  0.00075039      0.4256    0.064737
0.030633    0.070584    0.048822     0.13944   -0.065186     0.35024    0.046548
0.026085    0.063763    0.047198     0.10599    -0.11715     0.26644     0.01764
0.021863    0.056617    0.044275    0.061489    -0.14671     0.16803   -0.015165
0.017965    0.048497    0.041676    0.024461    -0.15483    0.048822   -0.046671
0.015367    0.035505    0.040052   0.0023744    -0.15029   -0.097017   -0.077528
0.014068     0.01829    0.042326   -0.010293    -0.14216    -0.26754    -0.10546
0.011794 -0.00054884    0.050446   -0.020037    -0.13664     -0.4543    -0.12625
0.01017   -0.017439    0.061489   -0.026858    -0.13502    -0.64269    -0.13599
0.0065969   -0.024909    0.074482   -0.026533    -0.12982    -0.81874    -0.13404
0.0043233   -0.019712    0.091696   -0.019712    -0.12008    -0.96977    -0.12722
0.0026992  -0.0034721     0.11216  -0.0050961    -0.10221      -1.075     -0.1178
0.0023744    0.024461      0.1284    0.010495   -0.074605     -1.1218    -0.10903
0.0072465    0.062139     0.12937    0.022837   -0.044723     -1.1234    -0.10286
0.013743     0.10177     0.11541    0.029658   -0.018088      -1.126    -0.10189
0.020239     0.13392    0.094945    0.036154    0.011144     -1.1734    -0.10741
0.027709     0.15016    0.079354    0.044275    0.045899     -1.2722    -0.11586
0.035505     0.14659    0.075781    0.056617    0.081952     -1.3975    -0.12138
0.042326     0.11963    0.083251    0.067661     0.11638     -1.5129    -0.11131
0.045574    0.074806    0.093645     0.06831     0.14302     -1.5846   -0.083375
0.040052    0.023812     0.10144    0.049796     0.15861     -1.6012   -0.046347
0.02706   -0.028157     0.10891    0.019914     0.16218     -1.5707   -0.010943
0.010819   -0.076229     0.11866  -0.0011985     0.16023      -1.507    0.013093
0.0020496    -0.11553     0.13977   0.0056225     0.16413     -1.4148    0.028359
0.0075714    -0.14476     0.17192    0.048822     0.18167     -1.2871    0.041676
0.024461     -0.1649      0.2122     0.11313      0.2187     -1.1094    0.061489
0.040702    -0.17984     0.25507     0.17615     0.27684    -0.87136    0.086824
0.050121    -0.19089     0.28756      0.2174     0.34407    -0.58455     0.11443
0.053369    -0.20388     0.29795     0.22422     0.39312     -0.2867     0.13749
0.05142    -0.22044     0.27716     0.19596     0.40091   -0.028482     0.14789
0.048822    -0.23831     0.23234     0.14496     0.35934     0.14756     0.14204
0.043625    -0.24935     0.18134    0.092021     0.27196     0.22812      0.1258
0.039727    -0.24708     0.13944    0.049796     0.15568     0.24013     0.11086
0.033556    -0.23084     0.11638    0.016991    0.042326     0.22877     0.10436
0.030308    -0.20713     0.11508   -0.011267   -0.042124     0.23169     0.10924
0.029658    -0.18504     0.12418   -0.035953   -0.089221     0.26547     0.11995
0.029658    -0.17042     0.12418   -0.055766    -0.11715     0.32751      0.1271
0.025761     -0.1636    0.091696   -0.067784    -0.13957     0.41131      0.1297
0.014392    -0.16458    0.021538   -0.070382    -0.15905     0.51622     0.13165
0.00075039     -0.1649   -0.067784   -0.062587    -0.17432     0.64192     0.13977
-0.011917    -0.15711    -0.14606   -0.048296    -0.18407     0.77866     0.15536
-0.021661    -0.13697    -0.18699   -0.030756    -0.19089     0.91508     0.17615
-0.025884    -0.10676    -0.18342   -0.008669     -0.2029      1.0408     0.19693
-0.024909    -0.07493    -0.14509    0.013743    -0.22986      1.1551      0.2096
-0.020037   -0.044398   -0.091495    0.029658    -0.27144       1.263     0.21155
-0.020037   -0.015165   -0.043099     0.03583    -0.31561      1.3669     0.20278
-0.027183    0.010819   -0.012242    0.033556    -0.34582      1.4539     0.18719
-0.035953    0.030633   0.0010752    0.016016    -0.35134       1.502      0.1703
-0.040175    0.042651  -0.0015233   -0.024909    -0.33348      1.4975     0.15276
-0.036927    0.048497   -0.015815   -0.088572    -0.29385      1.4429     0.13392
-0.027508    0.052395   -0.037902    -0.16003    -0.24286      1.3584     0.11801
-0.017114    0.055643   -0.060963    -0.21622    -0.18374      1.2604     0.10696
-0.0073698    0.054668     -0.0824    -0.23961    -0.11878      1.1571    0.099492
0.00010078    0.047847    -0.10091    -0.22109   -0.046022      1.0531    0.091372
0.0033489    0.037778    -0.11228     -0.1662    0.027709     0.95114    0.082277
0.0039985    0.031932    -0.11326   -0.088247    0.087799     0.85305    0.072208
0.0039985    0.032257    -0.10026  -0.0057458      0.1232      0.7569    0.063113
0.0043233    0.040052   -0.078178    0.066037     0.14009     0.65491    0.061489
0.0049729    0.051096   -0.051544     0.11411     0.16056     0.54643    0.066362
0.0056225    0.062139   -0.027833     0.13197     0.19953     0.43664    0.069934
0.0056225    0.076431   -0.011592     0.12385     0.25702     0.33595    0.064737
-0.0015233    0.094945  -0.0011985     0.10339     0.32393     0.25735    0.048172
-0.010293     0.11118   0.0095202    0.080003     0.38825      0.2122    0.024137
-0.020687      0.1232    0.025111    0.064413     0.44379     0.19856  -0.0018481
-0.029457     0.13262    0.045249    0.062464     0.48536     0.19693    -0.02426
-0.035628     0.13717    0.064737    0.067986     0.50323     0.17647   -0.035303
-0.035628      0.1336    0.079029    0.075781     0.47594     0.11963   -0.037577
-0.030431     0.11801    0.081303    0.083901     0.36616     0.02706   -0.039851
-0.023935    0.092996    0.071234    0.090072      0.1742    -0.09182   -0.045697
-0.021661    0.067986    0.054993    0.090397   -0.042449    -0.20843   -0.055441
-0.027183    0.048172    0.038753    0.083576    -0.20713    -0.29937    -0.06616
-0.036278    0.038428    0.023487    0.075781    -0.27599    -0.36076    -0.06681
-0.039201    0.042326   0.0065969    0.072858    -0.24448    -0.39162   -0.051219
-0.02426    0.058241   -0.018088    0.082602    -0.14249    -0.39129   -0.023935
0.0085458    0.083576   -0.054792     0.10209   -0.017439    -0.35816   0.0095202
0.048497     0.11021   -0.093119     0.11866    0.087149     -0.2997    0.042975
0.078379     0.13197     -0.1178     0.12483     0.14886    -0.23474    0.059541
0.089423     0.14204    -0.12073     0.11638      0.1638    -0.19089    0.053694
0.081627     0.14302    -0.10449    0.098842     0.13977    -0.18439    0.025761
0.06019     0.13522   -0.078178    0.081303    0.088124     -0.2081   -0.013866
0.033881     0.12483   -0.054792    0.069934    0.020564    -0.24058   -0.058689
0.011144     0.11833   -0.044073    0.059865   -0.047971     -0.2552   -0.098641
-0.0041217      0.1206   -0.048945    0.048822   -0.097991    -0.21914    -0.12138
-0.011917     0.12807   -0.068434    0.038103    -0.11651   -0.099615    -0.11878
-0.014191     0.13847   -0.090845    0.031282    -0.10449     0.11248   -0.096042
-0.012242     0.14432    -0.10481    0.036154   -0.072006     0.36778   -0.061288
-0.0076946     0.14367    -0.10156    0.049147   -0.036602     0.57501   -0.027183
-0.00087364     0.13847    -0.08305    0.063763   -0.011267     0.65751  -0.0024977
0.0056225      0.1284   -0.057065    0.066686 -0.00087364     0.58378   0.0062721
0.0095202     0.11573   -0.039526    0.058241  -0.0063954     0.38337   0.0017248
0.011794     0.10014   -0.032705      0.0433   -0.022961     0.12353   -0.007045
0.013743    0.087474   -0.034978    0.033231   -0.041799     -0.1217   -0.010943
0.017965    0.079029   -0.033679    0.033556   -0.054142    -0.30782  -0.0060706
0.025761     0.07708   -0.020362    0.038753   -0.054142    -0.41793   0.0026992
0.033556    0.083576    0.003024    0.044599   -0.036602    -0.45983    0.011144
0.039078    0.096569    0.028359     0.05142  -0.0067202    -0.45398    0.013418
0.038428     0.11248    0.051745    0.055643     0.02641    -0.42735    0.009845
0.034855     0.12905     0.06961    0.058566    0.047198    -0.40169   0.0062721
0.03453     0.14464    0.082602    0.060515    0.053369    -0.39064   0.0046481
0.040052     0.15568    0.092996    0.059541    0.046548    -0.39779   0.0026992
0.046223     0.15698     0.10534    0.057267    0.031282    -0.41825  -0.0076946
0.051745     0.15471     0.11963    0.055968      0.0014    -0.44326   -0.027508
0.055968     0.14951     0.13749    0.054993    -0.04115    -0.45918   -0.050244
0.060515     0.14172     0.15601     0.05207   -0.090521    -0.45625   -0.071032
0.066037     0.12645     0.17452    0.052395    -0.13242    -0.43189     -0.0824
0.066362     0.10729     0.18816     0.06084    -0.15093    -0.39681   -0.078178
0.06019    0.090397     0.19369     0.06896    -0.14411    -0.36693   -0.061288
0.045899    0.072208     0.18816    0.066686    -0.11943    -0.35264   -0.040175
0.029009    0.042001     0.16608    0.048172   -0.091495    -0.35134   -0.022636
0.01017  -0.0018481     0.12353    0.016016   -0.072006    -0.34842   -0.010618
-0.0096434   -0.057715    0.064413   -0.017439   -0.068434     -0.3286  -0.0034721
-0.029457     -0.1178  -0.0024977   -0.043423   -0.077853    -0.28995   0.0010752
-0.045372    -0.16847   -0.064861   -0.056416   -0.089546    -0.24123   0.0069217
-0.052193    -0.19933    -0.11066   -0.056416   -0.090196    -0.20096    0.015042
-0.047971    -0.20778    -0.13567   -0.048945   -0.080776    -0.18764    0.022188
-0.030756    -0.19608    -0.14249   -0.039526   -0.067784    -0.20193    0.026085
-0.00087364     -0.1688    -0.13372   -0.030106   -0.052843    -0.23474    0.026735
0.028684    -0.13664    -0.11683   -0.020362   -0.034004    -0.25975    0.027709
0.049147    -0.10644   -0.099615   -0.010293   -0.011267    -0.25877    0.030633
0.060515   -0.082725   -0.091495  0.00075039    0.012443    -0.23668    0.039078
0.067661   -0.068758   -0.093119    0.011469    0.027709    -0.20843    0.052395
0.06961   -0.063561    -0.10059    0.022837    0.035505    -0.18309    0.065712
0.067986   -0.061613    -0.10644    0.036804    0.039078    -0.16035    0.073507
0.065712   -0.054142    -0.10351    0.054344    0.042326     -0.1282    0.079029
0.065387   -0.038876   -0.088247    0.073507    0.043625   -0.069408    0.083901
0.065062   -0.025559   -0.059339    0.095919    0.041027    0.022512    0.089748
0.062789   -0.018738    -0.02426     0.12255    0.033881     0.14432    0.099492
0.058566   -0.015165   0.0075714     0.14854    0.030633     0.28236     0.10989
0.050121  -0.0073698    0.031932     0.17095    0.033231     0.42268     0.11963
0.040377  0.00075039    0.048822     0.18881    0.039727     0.54643     0.12255
0.032582   0.0039985    0.058566     0.20148      0.0433     0.63965     0.11931
0.029333      0.0014    0.064088     0.20603    0.041676     0.69876     0.11541
0.027385  -0.0028225    0.069934     0.20148    0.031932      0.7228     0.11346
0.026735  -0.0034721     0.07708     0.19109    0.022512     0.71208     0.10826
0.030308   0.0072465    0.079679     0.17745     0.01764      0.6692    0.098193
0.033556    0.026085    0.078055     0.15893    0.018615     0.60327    0.081303
0.035505    0.044275    0.069285      0.1362    0.023812     0.52596    0.062139
0.036154    0.054019    0.054019     0.10761    0.031607     0.44801      0.0433
0.036479    0.053694    0.033231     0.07773    0.035505     0.37655     0.02641
0.035505    0.047523    0.009845    0.049796    0.031607     0.32166    0.012443
0.029658    0.043625   -0.010293     0.02706    0.024461     0.28528 -0.00054884
0.022188      0.0433   -0.019388    0.010495    0.016666      0.2567   -0.012567
0.016016    0.045249   -0.016789  -0.0037969    0.009845     0.22454   -0.024585
0.012443    0.046223  -0.0089938   -0.018738   0.0017248     0.17874   -0.036927
0.013093    0.043625  -0.0018481   -0.034978  -0.0099683     0.11541   -0.052193
0.015692     0.03518  0.00010078   -0.056416   -0.019712    0.037129   -0.071032
0.021538    0.023812  -0.0054209   -0.087272    -0.02361   -0.048296   -0.089546
0.027385    0.016991   -0.015165    -0.12333   -0.027508    -0.12885    -0.09929
0.029658    0.016991   -0.025234    -0.15841   -0.036278    -0.19738   -0.097341
0.029983    0.023487   -0.027508    -0.18536   -0.052518       -0.25   -0.084999
0.028034     0.03518   -0.017439    -0.19316   -0.078178    -0.28573   -0.069733
0.023812    0.049472   0.0023744    -0.17789    -0.11456    -0.30197   -0.062587
0.020888    0.064088    0.021538    -0.14574    -0.15678      -0.301    -0.06551
0.019914    0.078379     0.03583    -0.10709    -0.18634    -0.29028   -0.072981
0.018615    0.088448    0.046223   -0.071682    -0.18439    -0.27631   -0.078827
0.013743    0.091696    0.054019   -0.044723    -0.13502    -0.26299   -0.073631
0.0046481    0.090072    0.059541   -0.028807   -0.040825     -0.2474   -0.058365
-0.0028225    0.088448    0.058891   -0.018738    0.074806    -0.23246   -0.042124
-0.0063954    0.087149     0.05207  -0.0067202       0.169    -0.22759   -0.034329
-0.008669     0.08585    0.042651    0.012768     0.20311    -0.23831   -0.035953
-0.010943    0.082927    0.032906    0.031607      0.1625    -0.26104   -0.038227
-0.011592    0.078704    0.023162    0.041676     0.06019    -0.29093   -0.042124
-0.011592    0.074157    0.016991    0.042975   -0.066485    -0.32763   -0.050569
-0.011917    0.070259   0.0078962    0.042975    -0.17497    -0.37018   -0.062912
-0.017439    0.064737  -0.0099683    0.044924    -0.24188    -0.41143   -0.072656
-0.026209    0.059865   -0.038227    0.048497    -0.26592    -0.44359   -0.076879
-0.034654    0.054993   -0.072331    0.047198    -0.26039    -0.45983   -0.078178
-0.037577    0.053369    -0.10514    0.038103    -0.23961    -0.45463   -0.077203
-0.036927    0.053694    -0.12722    0.021538     -0.2107     -0.4241   -0.070707
-0.027183    0.053369    -0.13664  -0.0015233    -0.16977    -0.37245   -0.053168
-0.0083442    0.050771    -0.13307   -0.030106    -0.10741    -0.30684   -0.021661
0.014717    0.045574    -0.12105   -0.062912   -0.020037    -0.23474    0.015692
0.029983    0.035505    -0.10221   -0.096367    0.083251     -0.1623     0.05142
0.03518    0.020888   -0.071357    -0.12787     0.18557   -0.098641    0.077405
0.03518   0.0046481   -0.028482    -0.15873     0.27196   -0.056741    0.087149
0.035505  -0.0073698    0.022837    -0.19673     0.32913   -0.049595     0.08585
0.038428   -0.010618    0.075131     -0.2461     0.35771   -0.080127    0.082602
0.041676   -0.007045     0.11833    -0.29872     0.36421    -0.14346    0.084876
0.042651 -0.00054884     0.15016      -0.339     0.35836    -0.23376    0.090397
0.043625   0.0049729     0.16803    -0.35004     0.34667    -0.34095    0.092021
0.042975    0.011794     0.17842    -0.32341     0.32458    -0.45398    0.083251
0.037129    0.015692     0.18881    -0.26397     0.28885    -0.55694    0.066037
0.032582    0.012119     0.20083    -0.18342     0.23916    -0.62678    0.046223
0.033881  -0.0054209     0.21577   -0.097991     0.18589    -0.64334    0.031607
0.039727   -0.029782     0.22682   -0.022636     0.14367    -0.59365    0.023162
0.047523   -0.052843     0.23299    0.037129     0.11541    -0.48711    0.018615
0.056617   -0.070382     0.23754    0.088124     0.10436    -0.34842    0.012119
0.065387   -0.082076     0.24695     0.14302     0.10794    -0.20518   0.0065969
0.067661   -0.087597     0.26969     0.20733     0.12093   -0.075579    0.011469
0.058891    -0.08305     0.30899     0.28561     0.12905    0.031282    0.029009
0.042001   -0.068109     0.36161     0.37201      0.1206     0.11703    0.054019
0.021863   -0.042774     0.41715     0.45126    0.094295     0.18134    0.074482
0.0078962   -0.017764      0.4584     0.50063    0.061814     0.21545    0.080328
0.00042559  -0.0018481     0.46717     0.50713    0.037778     0.21707    0.074806
-0.0018481   0.0039985     0.43437     0.47529    0.033231     0.20505    0.063763
-0.00054884      0.0014     0.36746     0.42203    0.049472     0.20213    0.054668
-0.00022403  -0.0080194     0.28496     0.36324    0.079679     0.22487    0.054668
-0.0024977   -0.022636      0.2044     0.31159     0.11118     0.27261    0.063763
-0.0067202   -0.039526     0.13814     0.26222     0.13847     0.32816    0.079029
-0.014191   -0.059339    0.087149      0.2057     0.15179     0.37558    0.093321
-0.020362   -0.082725    0.047847     0.14269     0.14172     0.41358     0.10079
-0.021986    -0.10579    0.015692     0.07708     0.10339     0.44963     0.10079
-0.017114    -0.12105   -0.012567    0.014392    0.042001     0.48569    0.093645
-0.0080194    -0.12722   -0.033679   -0.045372   -0.027833     0.51752    0.085525
0.0036737    -0.11975   -0.045047    -0.10481   -0.086623     0.53896    0.079679
0.012119    -0.09994   -0.050244    -0.15418    -0.12138     0.54513    0.074806
0.018615   -0.069733    -0.04927    -0.17984    -0.12625     0.53116    0.067986
0.022512   -0.034004    -0.04115     -0.1688    -0.10319     0.49868    0.064088
0.024461   0.0017248   -0.027508     -0.1217   -0.064861     0.45516     0.06831
0.024461    0.032257   -0.017114   -0.052193   -0.025884     0.40319    0.079029
0.023487    0.055318   -0.017114    0.016991   0.0046481     0.34959    0.090397
0.025436    0.068635    -0.03303    0.065062    0.028034     0.30477    0.097218
0.033231    0.074157   -0.055441    0.076755    0.050771     0.27424    0.099492
0.043625    0.072858    -0.08305     0.05272    0.075131     0.25345    0.094945
0.05272    0.067986    -0.11358   0.0069217    0.092021     0.23396    0.088448
0.059865    0.059216    -0.14444   -0.043099    0.096569     0.20798    0.080978
0.064413    0.049472     -0.1753   -0.085648    0.086175     0.17452    0.073182
0.063438    0.036479     -0.2016    -0.11651    0.065712     0.13944    0.066686
0.058566    0.023812     -0.2172    -0.14119    0.039402     0.10501    0.061814
0.049472    0.016666    -0.22142     -0.1623    0.016016    0.058891    0.054019
0.040702    0.020239    -0.21492    -0.18277  0.00042559   -0.019063    0.048822
0.032582    0.031932    -0.20063    -0.19771  -0.0080194    -0.13762    0.044275
0.022837    0.045574    -0.18536    -0.20096   -0.015815    -0.28183     0.03453
0.010819    0.052395    -0.17432    -0.19478   -0.028157    -0.41988    0.017316
-0.0024977    0.054993    -0.16912    -0.18569   -0.049595    -0.53128  -0.0024977
-0.012242    0.055318     -0.1688    -0.17465   -0.078178    -0.59722   -0.018088
-0.01484    0.055643    -0.16815    -0.16165    -0.11261    -0.60209   -0.022311
-0.0083442    0.058891    -0.16068    -0.14476    -0.14281     -0.5394   -0.014191
0.0059473    0.064088    -0.14346    -0.12527    -0.16003    -0.41208 -0.00022403
0.019589    0.067661    -0.11651    -0.10546     -0.1636    -0.23409   0.0078962
0.029658    0.072208   -0.082076   -0.078827    -0.15873   -0.026533   0.0046481
0.036154    0.078379   -0.039526   -0.031406    -0.15158     0.18427  -0.0089938
0.040702    0.087149   0.0056225    0.046548    -0.14541      0.3798   -0.024909
0.041351     0.10014    0.049147     0.14594    -0.14281     0.54903   -0.035303
0.037778      0.1232    0.080653     0.24013    -0.14022     0.68967   -0.037577
0.032906     0.15893    0.090072     0.29795    -0.13989       0.804    -0.03173
0.030957      0.2057    0.078055      0.3038    -0.14054     0.89007   -0.018088
0.027385     0.25118    0.054668     0.25962    -0.13827     0.94074  -0.0011985
0.019914     0.28398    0.033556     0.18914     -0.1282     0.96056    0.015367
0.011144     0.29308    0.024786     0.12158    -0.11618     0.96088    0.028359
0.0033489     0.27619    0.029333    0.069934    -0.10611     0.94724    0.035505
-0.0011985     0.23981    0.037129     0.03518    -0.10741     0.91411    0.034855
-0.00022403     0.19693    0.039727    0.015367    -0.11456     0.85532    0.028034
