-0.0057458   -0.047971    -0.08305    -0.05804     0.32848     -1.4268    -0.27728
0.0065969   -0.043099   -0.092145   -0.039526     0.37753      -1.507    -0.25585
0.020888    -0.02426    -0.10481   -0.014191     0.35414     -1.5401    -0.23441
0.03583      0.0014    -0.11196    0.010819     0.27261     -1.4677    -0.22337
0.0433    0.028684    -0.10741    0.030957     0.15991     -1.2286    -0.23181
0.037454     0.05142   -0.094743    0.044275    0.054993    -0.81776    -0.26364
0.01829    0.062464   -0.080451    0.052395   0.0065969    -0.34777    -0.31691
-0.0054209    0.056617   -0.075579    0.053369     0.05272     0.02641    -0.37765
-0.026209    0.039078   -0.084024    0.046548     0.18816     0.23786    -0.42929
-0.039526    0.017316   -0.099615    0.032906     0.35024     0.32426     -0.4543
-0.046996  -0.0044465    -0.11553    0.015692     0.46523     0.33887    -0.44586
-0.052843   -0.020687    -0.12657  -0.0047713     0.47854     0.27359    -0.41143
-0.062262   -0.028807     -0.1334   -0.022636     0.37265    0.062139    -0.36823
-0.075255   -0.029782    -0.13599   -0.030756       0.169    -0.33283    -0.33867
-0.093444   -0.026858    -0.13567   -0.030106   -0.090845    -0.87818     -0.3403
-0.11618   -0.027833    -0.13404   -0.025884    -0.36076     -1.4989     -0.3822
-0.14119   -0.034654    -0.13275   -0.022311    -0.60534     -2.0644     -0.4556
-0.16003   -0.042124     -0.1243   -0.020362    -0.80997     -2.3993    -0.52674
-0.16555   -0.045047    -0.10774   -0.014516    -0.95841     -2.3307    -0.55694
-0.15418   -0.041475   -0.085648  -0.0037969      -1.039      -1.798    -0.52446
-0.13242   -0.030431   -0.061937   0.0095202      -1.049    -0.95646    -0.43124
-0.10968   -0.013541   -0.039851    0.022512     -1.0016     -0.1623    -0.30489
-0.095068   0.0062721   -0.020687    0.028034    -0.91553     0.20051    -0.17822
-0.09182    0.023487  -0.0050961    0.024461    -0.80964    0.046873   -0.070707
-0.093769    0.030957   0.0072465    0.019589    -0.68037    -0.21557    0.018615
-0.090845    0.032906    0.015042    0.023812    -0.52446    0.039727     0.11411
-0.075579    0.031932    0.016991    0.044275    -0.35004      1.0226     0.24111
-0.044398    0.030308    0.019264    0.078055    -0.18601      2.2988     0.39702
-0.00087364    0.034855    0.030633     0.11931   -0.067784       3.218     0.55715
0.045899    0.046548     0.05272      0.1638   -0.008669       3.333     0.68967
0.090072    0.066362    0.077405     0.20765  -0.0028225      2.5554     0.77769
0.12483     0.08585    0.096893     0.24566   -0.035628      1.1616     0.82446
0.14464    0.095594     0.10729     0.26839   -0.089546    -0.34095     0.83063
0.14854    0.090072     0.10696     0.27261    -0.15158     -1.4381     0.79653
0.13425    0.071883    0.097218     0.26125    -0.21037     -1.9182     0.73157
0.10794    0.048822    0.082277     0.24176    -0.25715     -1.8383     0.64972
0.080003    0.030633    0.067986     0.22324    -0.28183     -1.4099     0.56332
0.062464    0.024137     0.06084      0.2109    -0.29158    -0.89897     0.47887
0.059541    0.027709    0.061489     0.20505    -0.31009    -0.51927     0.38987
0.067661    0.033556    0.070584     0.19888    -0.36206    -0.38122     0.28008
0.079354    0.030957    0.078704     0.18524    -0.45755    -0.48679     0.14237
0.084226    0.016341    0.080328     0.16153    -0.57351    -0.76839   -0.011917
0.073832  -0.0076946    0.070259      0.1297    -0.65504     -1.1319    -0.15646
0.050771   -0.033679    0.051096    0.094945    -0.62191     -1.4885    -0.25682
0.023487   -0.057715     0.02641    0.062464    -0.39551     -1.7526    -0.29223
0.00075039   -0.075904  0.00042559     0.03518     0.04395     -1.8088    -0.26559
-0.016464   -0.083375   -0.022636    0.017316     0.60132     -1.5375    -0.19706
-0.024909   -0.072331   -0.038227    0.012443      1.0924    -0.96458    -0.10709
-0.023285   -0.042774    -0.04115    0.019264      1.3568    -0.31366   -0.016464
-0.010943  -0.0037969   -0.031406    0.029009      1.3279     0.11963    0.054668
0.0033489    0.029658    -0.01484    0.029658      1.0388     0.15471    0.091696
0.014068    0.044599  -0.0015233    0.019914     0.60619    -0.15905    0.089423
0.014392    0.044599   0.0072465    0.011794     0.17972     -0.5878    0.058241
0.0056225    0.037778    0.013418    0.019589    -0.13534    -0.86778     0.01894
-0.0093186    0.030308    0.016016    0.040702    -0.30457     -0.8431  0.00075039
-0.026858    0.021538    0.018615    0.066362    -0.33315    -0.53583    0.012768
-0.040175   0.0091954    0.020564    0.087474    -0.22532    -0.09182    0.044599
-0.041799  -0.0031473    0.021538    0.092996 -0.00022403     0.29957    0.078704
-0.026858   -0.011917    0.020239    0.082927     0.28106     0.48601     0.10891
-0.0018481   -0.013216    0.015692    0.059541     0.53116     0.44216     0.13912
0.024137   -0.010293   0.0088706    0.029983     0.70039     0.28821     0.16965
0.038753   -0.011917    0.003024  0.00010078     0.77964      0.1755     0.18979
0.037778   -0.022636  -0.0018481   -0.025559     0.76957     0.15601     0.19011
0.022837   -0.042774  -0.0031473   -0.043748     0.67603     0.13457     0.16965
0.0017248   -0.071032  0.00042559   -0.054792     0.51525    0.023162     0.12872
-0.017764    -0.10059   0.0033489   -0.062912     0.30574    -0.15126    0.072208
-0.026209    -0.12268   0.0033489   -0.075255    0.074157    -0.29905    0.013093
-0.018738    -0.13177   0.0059473   -0.094093    -0.14834    -0.36109   -0.034654
0.00042559    -0.12917    0.014392    -0.11586    -0.34322     -0.3403   -0.072656
0.020888    -0.11423    0.027709    -0.12852    -0.49815    -0.26494    -0.11261
0.036479   -0.090845      0.0433    -0.12592     -0.5917    -0.13892    -0.16328
0.044924    -0.06551    0.061165    -0.10806    -0.59722     0.10599    -0.21817
0.050446   -0.044723    0.079354   -0.082725     -0.4975     0.60522    -0.25552
0.056617    -0.03303    0.096244   -0.058365    -0.30879      1.4513    -0.24675
0.066686   -0.026858     0.11054   -0.035628   -0.080776      2.5729      -0.174
0.082927   -0.022961     0.11995   -0.016789     0.13035      3.7455   -0.039201
0.10112   -0.021012     0.12515  -0.0047713     0.27099       4.689     0.12937
0.11476   -0.020362     0.12678  -0.0037969     0.29503      4.9589     0.28788
0.11508   -0.016789      0.1232   -0.013866     0.19563      4.9589     0.39442
0.10436  -0.0093186     0.11833   -0.028807    0.027385      4.4048     0.43242
0.093321   0.0085458     0.12125   -0.035628    -0.11228      3.4944     0.40936
0.092996    0.038753     0.13425   -0.020037     -0.1256      2.5963     0.35154
0.10436    0.075131     0.15244    0.020564    0.025111      1.9236     0.29015
0.13002     0.11054     0.16835    0.075456     0.29113      1.5176     0.24338
0.15471     0.14074     0.17485     0.12678     0.55877      1.2448     0.21188
0.169     0.16348     0.17192     0.15763     0.72117     0.90209     0.18979
0.16738      0.1781     0.16413     0.15958     0.73222     0.38078      0.1651
0.15341     0.18427     0.15309     0.14042     0.62016    -0.25455     0.13327
0.13392     0.18816     0.14139     0.11541     0.45743    -0.82296    0.097543
0.11638     0.19044     0.13035    0.099492     0.32263     -1.2001    0.062789
0.10306     0.19044      0.1232    0.092346       0.258     -1.3988    0.030957
0.092671     0.18751     0.11768    0.087149     0.24468      -1.519 -0.00054884
0.07708     0.18069     0.10631    0.072533     0.22454      -1.648   -0.034654
0.056292      0.1651    0.080978    0.041351     0.13782     -1.8062   -0.079152
0.031607     0.14464     0.04395  -0.0028225   -0.032055     -1.9458    -0.14054
0.0059473     0.12483   0.0069217   -0.048945    -0.25292     -1.9825    -0.22207
-0.020362     0.10956   -0.024585   -0.090521     -0.4699     -1.8399    -0.31724
-0.047321    0.097543   -0.046022     -0.1204    -0.63132     -1.5073    -0.40526
-0.069408    0.088124   -0.056091    -0.14087    -0.71513     -1.0594    -0.46178
-0.08305    0.078379   -0.062262    -0.15386    -0.71383    -0.60859    -0.47574
-0.085973    0.065062   -0.070058    -0.16328    -0.63068    -0.27436    -0.44976
-0.083375    0.047523   -0.084349    -0.16718    -0.48484    -0.16718    -0.41013
-0.084999    0.028034    -0.10091    -0.16458    -0.30814    -0.32373     -0.3861
-0.10091   0.0085458    -0.11618    -0.15126    -0.14022    -0.64172    -0.39876
-0.12982  -0.0060706     -0.1269    -0.13112  -0.0044465    -0.90351    -0.44618
-0.16555   -0.016464    -0.12982    -0.10968    0.098193    -0.96977    -0.49945
-0.19478   -0.027508    -0.12592   -0.093444     0.18881    -0.87298    -0.51147
-0.20355   -0.035953    -0.11683   -0.084024     0.29243    -0.70538    -0.44229
-0.18764   -0.035628    -0.10351   -0.077203      0.4178    -0.55629    -0.28313
-0.15158   -0.020687   -0.089546   -0.069733     0.54091     -0.5407   -0.060963
-0.10319   0.0075714   -0.077528    -0.05739     0.61788    -0.75475     0.17322
-0.052518    0.037778   -0.071357   -0.038227     0.62308     -1.1455     0.36518
-0.010293    0.057917   -0.072006   -0.015165     0.55844     -1.4859     0.47529
0.01764    0.066362   -0.077528   0.0091954     0.44963     -1.4989     0.49543
0.031282    0.063763     -0.0824    0.033231     0.32296     -1.0169     0.45158
0.033231    0.059541   -0.080127    0.053044     0.18719   -0.098965     0.38305
0.031282    0.061489   -0.070382    0.072533    0.051096     0.94951     0.31322
0.030633    0.071883   -0.056741    0.089748   -0.062912      1.7599     0.25183
0.033881      0.0865   -0.045697    0.097543    -0.14509      2.1289     0.21155
0.042326     0.10209   -0.038876    0.097868      -0.212      2.0626     0.21675
0.056617     0.11411   -0.037902    0.094295    -0.28118      1.7304     0.27879
0.070909     0.11638   -0.044398    0.093645    -0.36044      1.3243      0.3733
0.080003     0.10859   -0.059014    0.094945    -0.44359     0.95374     0.44866
0.082602    0.092346   -0.077203    0.099492    -0.52251     0.61171     0.45548
0.077405    0.071234   -0.093769     0.10274    -0.58845     0.22941      0.3837
0.070909    0.046873   -0.099615     0.10436    -0.63685    -0.23311     0.26352
0.065712    0.028359   -0.093119     0.10534    -0.67063    -0.74826     0.14172
0.068635    0.021538   -0.075255     0.10761    -0.68947     -1.2533    0.050446
0.079354    0.023812   -0.052518     0.11151    -0.68687     -1.6704  -0.0028225
0.090397    0.030957   -0.035303     0.11573    -0.64627     -1.9218   -0.031081
0.093645    0.037454   -0.031406     0.11573    -0.55435     -1.9569   -0.041799
0.087149    0.036804   -0.038551     0.10859    -0.41111     -1.7844   -0.039526
0.072208    0.024461   -0.051544    0.093645    -0.23603     -1.4706    -0.03238
0.054019   0.0046481   -0.062912    0.070909   -0.047971     -1.1218   -0.028807
0.038103   -0.015815   -0.064861    0.043625       0.131    -0.83498   -0.036602
0.020888   -0.026858   -0.054792    0.017965     0.27359    -0.65114   -0.053492
0.0033489   -0.025559   -0.039201      0.0014     0.34797    -0.56312   -0.075904
-0.014516   -0.013216   -0.026533  -0.0054209     0.32816    -0.54785   -0.092794
-0.028482   0.0026992   -0.022961  -0.0067202     0.21285     -0.5813    -0.10026
-0.037252    0.018615   -0.026858  -0.0080194    0.029333    -0.64237   -0.097017
-0.037252     0.03453   -0.030431  -0.0067202    -0.17335    -0.71253   -0.082725
-0.030431    0.049147   -0.028807   0.0039985    -0.34127    -0.78691    -0.06616
-0.021337    0.057592   -0.020687    0.024786    -0.43644    -0.85804   -0.054792
-0.010943    0.059216  -0.0076946    0.051096    -0.44196    -0.90579   -0.042774
-0.0015233    0.058241    0.009845    0.074482    -0.37668    -0.89442   -0.018088
0.0049729    0.056292    0.028684    0.091372    -0.28151    -0.77229    0.019914
0.0075714    0.053694    0.044275    0.098193    -0.19706     -0.4647    0.056617
0.0033489    0.051096    0.050446    0.092996    -0.13469    0.041676    0.074157
-0.0021729    0.053694     0.05272    0.079029   -0.073955     0.62503    0.071558
-0.0037969     0.06019    0.055643    0.063438    0.025761      1.0986    0.049147
0.0023744    0.067011    0.062464    0.050771     0.19206      1.3562    0.019914
0.016016    0.071234    0.070259    0.043625     0.40546      1.4273  -0.0011985
0.02706    0.071558    0.075781    0.041676     0.60879      1.4621   -0.013866
0.027385     0.06831    0.074806    0.042651     0.74488      1.6219   -0.018088
0.015042    0.064413    0.069934    0.044275     0.78776      1.9454   -0.017439
-0.0047713    0.058891    0.067336      0.0433     0.72864      2.3017    -0.01484
-0.02426    0.051096    0.070909    0.030957     0.57793      2.4959    -0.01549
-0.037577    0.039727    0.080003   0.0052977      0.3746      2.4147   -0.029132
-0.044398    0.021863     0.09462   -0.025884     0.17062      2.0873   -0.058365
-0.047646   0.0033489     0.10989   -0.055116   0.0056225      1.5962    -0.10351
-0.052843   -0.011917     0.11833   -0.078503      -0.123      0.9768    -0.16068
-0.064211   -0.027508     0.11703    -0.10254     -0.2461     0.22292    -0.22304
-0.0824    -0.04927     0.11054    -0.13307    -0.37992    -0.63327    -0.27664
-0.10319   -0.077203    0.099492    -0.16847    -0.52122     -1.4755    -0.30977
-0.1217    -0.10611     0.08585     -0.2029    -0.64919     -2.1479    -0.31951
-0.1308     -0.1295    0.074482    -0.22889    -0.73591     -2.5545    -0.31529
-0.12852    -0.14541    0.066037     -0.2448     -0.7541     -2.6987    -0.30944
-0.11488    -0.15321    0.063763    -0.24935    -0.68005     -2.6357    -0.31399
-0.095717    -0.15548    0.067986    -0.23928     -0.4988     -2.4109    -0.32731
-0.073631    -0.14996    0.075131    -0.21037    -0.20518     -2.0183    -0.32763
-0.042774    -0.13307    0.081952    -0.15029     0.19109     -1.4216     -0.2867
0.003024    -0.10481    0.091696   -0.059664     0.64679     -0.6742    -0.20063
0.06019   -0.070382     0.10924    0.045899      1.0697  -0.0047713   -0.096042
0.11021   -0.043423     0.13035     0.13555      1.3516     0.31451   -0.016464
0.13587    -0.03173     0.14367     0.18297      1.4182     0.27359    0.019589
0.13327   -0.034329     0.14269     0.17972      1.2824     0.21675    0.030308
0.11346   -0.044398      0.1284     0.14009      1.0294     0.47854    0.053369
0.089098   -0.052193     0.10599    0.086175     0.76275      1.0492     0.11054
0.069285   -0.055116    0.082602    0.037129     0.55032      1.6469     0.18037
0.056292   -0.055441     0.06084   0.0052977     0.40319      2.0314     0.23006
0.048822   -0.057065    0.038753   -0.012242     0.29308      2.1919     0.23721
0.042001    -0.05739    0.016016   -0.021986     0.17842      2.2682     0.19401
0.036479   -0.056416  -0.0041217   -0.028482    0.032582      2.3774     0.11833
0.031932   -0.059014   -0.016464   -0.034329    -0.14444      2.5209    0.041351
0.027709    -0.06551   -0.022311   -0.036927    -0.32048      2.6138   -0.013216
0.024786   -0.072006   -0.020362   -0.028482    -0.44521      2.5485   -0.047321
0.030308   -0.071682  -0.0060706  -0.0063954    -0.47249      2.2764   -0.067784
0.042651   -0.061937    0.019589    0.027385    -0.39259      1.8512   -0.078178
0.063113   -0.041475    0.050771    0.067661    -0.23344      1.4013   -0.075904
0.089098   -0.008669    0.080978     0.11118   -0.045047      1.0382   -0.063886
0.11833    0.031932     0.10177     0.14886     0.12125     0.78159   -0.047321
0.14594    0.066362     0.11151     0.17582      0.2476     0.64225   -0.022636
0.16868    0.084226     0.11346     0.18719     0.35122     0.73904    0.019589
0.18362    0.089748     0.10956     0.18784     0.47887      1.2227     0.10306
0.18719    0.092346     0.10404     0.18264     0.66888      2.1029     0.24663
0.18037    0.095594    0.099492     0.17939     0.90696      3.2186     0.45516
0.16348    0.098193    0.095269     0.18297      1.1291      4.3334     0.70233
0.14237     0.09462    0.092021     0.19791      1.2623      4.9589     0.93912
0.12255    0.082277    0.090072     0.21967      1.2558      4.9589      1.1174
0.11411    0.066362    0.094295     0.23916      1.0947      4.3035      1.2162
0.12255    0.061489     0.10404     0.24858     0.80822      2.4427      1.2318
0.14237    0.071883     0.11541     0.24728     0.46847     0.11183      1.1652
0.16965    0.091047     0.12125     0.24046     0.15114     -2.0069      1.0216
0.19239     0.11476     0.11866     0.23136   -0.086948     -3.4217     0.81212
0.20213     0.13197     0.11573     0.22097    -0.22467     -4.0376     0.56299
0.19434     0.13555     0.11443     0.20635    -0.28151     -3.9944     0.31386
0.16868     0.12872     0.11638     0.18329     -0.2984     -3.5767    0.097543
0.13035     0.11768     0.11443     0.14984    -0.31659     -3.0888   -0.069083
0.083576     0.10599     0.10306     0.10371    -0.36011     -2.7413    -0.18829
0.038103    0.093645    0.083576    0.049796    -0.43254     -2.5997    -0.26981
0.0010752     0.07708    0.058891  -0.0034721    -0.51602     -2.6146    -0.32341
-0.02426    0.057592    0.033231   -0.045047    -0.59332     -2.6874    -0.36011
-0.037252    0.037454   0.0088706   -0.064536    -0.65991     -2.7133    -0.38155
-0.040825    0.016666   -0.014516   -0.070058     -0.7161      -2.637    -0.38902
-0.043423  -0.0063954   -0.037902   -0.078503    -0.76709     -2.4749    -0.38869
-0.04992   -0.030106   -0.056741   -0.097666    -0.81322     -2.2846     -0.3835
-0.059339   -0.052843   -0.071682    -0.12333    -0.84472     -2.1098    -0.36953
-0.069083    -0.07428   -0.084024    -0.14541    -0.84505     -1.9634     -0.3403
-0.079152   -0.089546   -0.098641    -0.15808     -0.8077     -1.8503    -0.29645
-0.092145   -0.095393    -0.11456    -0.15776    -0.73786     -1.7636    -0.25357
-0.11001   -0.095393    -0.12657    -0.14509    -0.64627     -1.6467    -0.22499
-0.13437   -0.088247    -0.13177     -0.1269    -0.54623     -1.4161    -0.21849
-0.161   -0.076879    -0.12625    -0.11261    -0.45495     -1.0328    -0.23474
-0.18796    -0.06551    -0.11423    -0.10676    -0.39032    -0.58942    -0.27956
-0.21005   -0.053817    -0.10124    -0.11228    -0.36044     -0.2565    -0.35264
-0.22402   -0.039851   -0.090521    -0.12203    -0.35654    -0.13892    -0.44001
-0.23084    -0.02361   -0.084674    -0.12787    -0.35426      -0.212    -0.51764
-0.23149  -0.0096434     -0.0824    -0.12073     -0.3325    -0.36758    -0.56409
-0.22207   0.0033489   -0.082725    -0.09929    -0.28411    -0.51147    -0.56604
-0.20193    0.014068   -0.088896   -0.070382    -0.22044    -0.60859    -0.51569
-0.17302    0.024461   -0.097991   -0.045372    -0.16815    -0.65179    -0.41565
-0.14216    0.032582    -0.10903   -0.032055    -0.14152    -0.61249    -0.27988
-0.11586    0.037454     -0.1191   -0.034329    -0.13664    -0.47477    -0.13469
-0.094418     0.03453    -0.12203   -0.050569    -0.14346    -0.29093   -0.013216
-0.078503    0.022837    -0.11748   -0.073306    -0.14152    -0.16555    0.057592
-0.063886   0.0062721    -0.10579   -0.087272    -0.10774    -0.14281    0.073832
-0.049595  -0.0037969   -0.088247   -0.081751   -0.026209    -0.17075     0.06019
-0.037577  -0.0031473   -0.068758   -0.059989    0.094295    -0.15743    0.053694
-0.02426   0.0059473   -0.053492   -0.034329     0.21025     -0.0405      0.0865
-0.0096434    0.016991   -0.046022   -0.020687      0.2515     0.21155      0.1664
0.00075039    0.021213    -0.04992   -0.027508     0.16608      0.5854     0.27911
0.0062721    0.013418   -0.065186   -0.051219   -0.040175      1.0119     0.38597
0.008221  -0.0021729   -0.085648   -0.078503    -0.30782      1.4065     0.44801
0.016991   -0.015815    -0.10676   -0.096042    -0.55045      1.7027     0.44184
0.033231   -0.019063     -0.1178   -0.094418    -0.70863      1.8655     0.37233
0.051096  -0.0096434    -0.11586   -0.075579    -0.77359      1.8859     0.25313
0.058891    0.011144    -0.10481    -0.04862    -0.76839       1.771    0.096569
0.05142    0.036479   -0.084349   -0.021337    -0.71837      1.5381    -0.07428
0.033231    0.063113   -0.061937   0.0052977    -0.64237      1.2181    -0.22921
0.020888    0.088773     -0.0405    0.031932    -0.54817      0.8014    -0.33835
0.022512     0.11118   -0.021661    0.054993     -0.4215     0.19401    -0.39292
0.041351     0.13132  -0.0037969     0.06831    -0.23084    -0.68297    -0.39129
0.071234     0.14984    0.010495    0.076755    0.042001      -1.734    -0.34484
0.10177      0.1651    0.024137    0.087799     0.36486     -2.7224    -0.26949
0.12548     0.17192    0.035505     0.10436     0.65556     -3.3971    -0.18504
0.13684     0.16868      0.0433     0.12093      0.8368     -3.5819    -0.10254
0.13555     0.15828     0.04395     0.13555     0.88488     -3.1905   -0.033354
0.1271     0.14139    0.042975     0.15114     0.84687     -2.2073     0.02706
0.11638      0.1232    0.042001     0.16445     0.79783    -0.74501     0.08585
0.10956     0.10664     0.04395     0.16965     0.77152     0.84363     0.14529
0.10501     0.09462    0.045249      0.1625     0.75528      2.0308     0.18589
0.096244    0.081627    0.041676     0.14691     0.71143      2.4985     0.18622
0.081952    0.066686    0.034206     0.13035     0.61139      2.2283     0.14302
0.067011    0.050121    0.025761     0.11963     0.45483      1.4718    0.066686
0.055968     0.03583    0.020888     0.11898     0.28691     0.57274   -0.017114
0.051745    0.028684    0.024461      0.1258     0.18459    -0.15061   -0.079477
0.057917     0.02641    0.036804     0.13912     0.22065    -0.44001   -0.095717
0.075131    0.027709    0.048497     0.15373     0.40481    -0.18342   -0.047971
0.094945    0.029983    0.052395     0.16868     0.67343     0.54026    0.049796
0.10371    0.036479     0.05207     0.17972     0.91054        1.44     0.16121
0.10047    0.046223    0.049147     0.18102      1.0057      2.1429     0.24566
0.086824    0.054019     0.04395     0.17192     0.92028      2.3679     0.27814
0.069285    0.054993    0.040052     0.15276     0.68772      2.0461     0.25897
0.048822    0.044924    0.038103      0.1297     0.39084       1.362     0.20765
0.03518    0.025111    0.036154     0.11216     0.11151     0.60067     0.15049
0.031607   0.0049729     0.03583     0.10014    -0.10254   -0.019712     0.10989
0.036154   -0.015165    0.034206    0.085525    -0.24708     -0.3809    0.094945
0.038753    -0.03238    0.026735    0.064737    -0.34907    -0.44651     0.10144
0.03453   -0.044723    0.012768    0.036154    -0.43612    -0.26624     0.11118
0.025436   -0.052518  -0.0015233   0.0026992    -0.51959   0.0075714     0.10177
0.017965   -0.054792   -0.011267   -0.030431    -0.58293     0.19011    0.061165
0.011469    -0.04862   -0.017439   -0.060313    -0.60014     0.16835  -0.0044465
0.0026992   -0.033679   -0.020037   -0.080776    -0.56441   -0.048296   -0.082076
-0.0089938   -0.016464   -0.021012   -0.090521    -0.49296    -0.33965     -0.1623
-0.022636  -0.0063954   -0.021337   -0.092794    -0.41013    -0.55564    -0.23344
-0.035303  -0.0080194   -0.020037   -0.091495    -0.33055    -0.60859     -0.2932
-0.04862   -0.022636   -0.017439   -0.086298    -0.26007    -0.52381     -0.3364
-0.064211    -0.04927   -0.015815    -0.08305    -0.19933    -0.39811    -0.35881
-0.080776   -0.081426   -0.018088   -0.084349    -0.14866    -0.22532    -0.35686
-0.086948    -0.10774   -0.024909     -0.0837    -0.10059     0.20473    -0.32081
-0.073631    -0.11391   -0.034004   -0.072656   -0.039201       1.109    -0.23571
-0.043099   -0.096042   -0.038876   -0.046996    0.055968      2.3631   -0.089871
-0.0034721   -0.061937   -0.035628   -0.010943     0.18004      3.4434     0.10047
0.03453   -0.023285   -0.027508    0.021863     0.28528      3.7425     0.28983
0.055968   0.0036737   -0.018413    0.037454      0.3051      2.9533     0.42722
0.056292    0.009845   -0.014516    0.027385     0.21285      1.2899     0.48082
0.035505  -0.0024977    -0.01549  -0.0044465    0.046873    -0.65244     0.45288
0.0026992   -0.023285   -0.017439   -0.046671    -0.11261     -2.1823     0.37136
-0.031081   -0.038551   -0.013541     -0.0824    -0.18536     -2.9712     0.27814
-0.053168   -0.042124  -0.0011985    -0.10254     -0.1269     -2.9485     0.20765
-0.056741   -0.028807     0.01894    -0.10026    0.071883     -2.1988     0.17907
-0.042449  -0.0083442    0.044275   -0.076554     0.37883    -0.87655     0.19401
-0.018413   0.0088706    0.069285   -0.039526     0.71793     0.74813     0.24013
0.0026992    0.012443    0.090722 -0.00022403      1.0012      2.1909     0.29535
0.011469   0.0026992     0.10436    0.032906      1.1727      3.0432     0.32978
0.008221   -0.013216     0.10729    0.050121      1.2386      3.1088     0.32491
0.00010078   -0.027508     0.10144     0.05142      1.2318      2.4943     0.28528
-0.0067202   -0.035303     0.09462     0.04395      1.1619      1.5368     0.22941
-0.0050961   -0.034329    0.095269    0.037129      1.0135     0.59937     0.17485
0.0043233   -0.026533     0.10079    0.038428     0.76924   -0.089546      0.1258
0.022188   -0.013541     0.10631    0.048172     0.43924    -0.50497    0.073832
0.044924   0.0036737     0.11378    0.067011    0.070259     -0.7502    0.015367
0.067336    0.022837      0.1245    0.090722    -0.26494     -0.9217   -0.052843
0.077405    0.042001     0.13879     0.11346    -0.51245     -1.0373    -0.12203
0.074806    0.056942     0.15341      0.1271    -0.66088     -1.0867    -0.18374
0.064088     0.06831     0.16413      0.1258    -0.73884      -1.074    -0.23311
0.05272    0.080328     0.17062     0.11476    -0.77359     -1.0266    -0.26657
0.042651     0.09397     0.17322     0.10371    -0.77002    -0.97854    -0.27858
0.040377     0.11021     0.17712     0.10047    -0.72292    -0.94899    -0.26787
0.05272     0.13067     0.18362     0.10436    -0.64204    -0.96977    -0.24253
0.075131     0.15536     0.19336     0.10891    -0.56279     -1.0841    -0.21557
0.098842     0.17939     0.20213     0.11248    -0.52186     -1.2988    -0.19641
0.11378     0.19434     0.20473     0.11378    -0.53031     -1.5479    -0.18471
0.11411     0.19434     0.19921     0.10566    -0.57124     -1.7133    -0.17692
0.10112     0.18329     0.18622    0.088773    -0.61411     -1.7025    -0.16295
0.078704     0.17062       0.169    0.066037    -0.63392     -1.4989    -0.14216
0.054993     0.15893     0.15016    0.046223    -0.62028     -1.1442    -0.11261
0.037778     0.14399     0.13392    0.030308    -0.57513    -0.68817   -0.071357
0.030308     0.12353      0.1219    0.015367    -0.50562    -0.18504   -0.022961
0.027709    0.099817     0.10631      0.0014     -0.4215     0.29275    0.017316
0.021538    0.077405    0.078704  -0.0073698    -0.33575      0.6809    0.034855
0.012768    0.056617    0.039078   -0.012242    -0.25357     0.94204    0.035505
0.0065969    0.039078 -0.00022403   -0.014516    -0.17984      1.0612    0.039402
0.0036737    0.024786   -0.031081   -0.013541    -0.10806      1.0557    0.066686
0.0065969     0.01829    -0.04927  -0.0057458   -0.028807     0.98817     0.11963
0.016016    0.014068   -0.055766   0.0088706    0.053369     0.93392     0.18232
0.028359    0.012443   -0.053492    0.024137     0.11931     0.91801     0.22552
0.039727    0.016341   -0.046022    0.035505     0.14951     0.89235     0.23201
0.046873    0.027385   -0.041799    0.037778     0.13392     0.77737     0.20278
0.048822    0.042001   -0.042124    0.030633    0.073832     0.52694     0.14496
0.044275    0.054344   -0.048296    0.015367   -0.020362      0.1651     0.06896
0.034206    0.059541   -0.059989  -0.0067202    -0.12755    -0.23376  -0.0083442
0.020239    0.055643   -0.074605   -0.030431    -0.22142    -0.58618   -0.078178
0.0072465    0.047847   -0.090196   -0.049595    -0.28183     -0.8431    -0.13827
-0.0063954    0.040377    -0.10514   -0.060638    -0.29807    -0.98764    -0.19283
-0.022636    0.038753    -0.11878   -0.064536    -0.27404     -1.0247    -0.23961
-0.042449    0.042975    -0.13177   -0.061937    -0.22337    -0.96653    -0.27079
-0.060963    0.050446    -0.14249   -0.052843    -0.16003    -0.83693    -0.27631
-0.073955     0.06084    -0.14736   -0.038876   -0.098641    -0.68167    -0.25552
-0.079152    0.065387    -0.14379   -0.021661   -0.043423    -0.54428     -0.2159
-0.075904    0.062464    -0.13632  -0.0073698    0.010495      -0.428    -0.16945
-0.067459    0.054668    -0.12852   0.0049729    0.068635     -0.2997     -0.1178
-0.060313     0.05207     -0.1204    0.016991      0.1336    -0.13989   -0.063886
-0.060313     0.06019    -0.11228    0.029658     0.21188    0.046548  -0.0083442
-0.064861    0.076431    -0.10481    0.040377     0.29925     0.22649    0.045574
-0.06681    0.090072    -0.10286    0.048497     0.37103     0.35414    0.095594
-0.057065    0.092996    -0.10968    0.053044     0.39929     0.39052     0.13977
-0.038876    0.081627    -0.12268    0.054344     0.36648      0.3327     0.17615
-0.018413    0.059865    -0.13664     0.05142     0.27489     0.19563     0.19531
-0.0031473    0.036479    -0.14346    0.039402     0.15146     0.01764     0.19499
-0.0011985    0.017316    -0.13989    0.020888    0.032257    -0.13275     0.18979
-0.010618   0.0056225    -0.12755   0.0069217    -0.05804    -0.19966     0.20311
-0.019388 -0.00022403    -0.10838    0.003024    -0.10871    -0.17919     0.23883
-0.018088  -0.0031473   -0.088247   0.0046481    -0.12592    -0.11391     0.27716
-0.0050961  -0.0044465   -0.070382    0.011144    -0.11651   -0.046996     0.29697
0.015042  -0.0093186   -0.051544    0.020888   -0.089546    0.011144     0.28593
0.030308   -0.016789   -0.033679    0.025111   -0.054792     0.12223     0.24598
0.03453   -0.024585   -0.019712    0.021213   -0.023935     0.40806     0.18816
0.024461   -0.033679   -0.015165    0.010819  -0.0021729     0.90079     0.13132
0.008221   -0.045047   -0.021012  0.00010078   0.0049729      1.4396    0.093645
-0.0060706    -0.05739   -0.029132  -0.0054209  -0.0067202      1.7437    0.080653
-0.012242   -0.069408   -0.033679  -0.0015233   -0.039851      1.5907    0.084876
-0.0083442   -0.080451   -0.032705   0.0065969   -0.096042     0.97128    0.095594
-0.0015233   -0.088896   -0.029457    0.011469    -0.16685    0.079029     0.10599
0.0026992   -0.092469   -0.027508     0.01017    -0.22986    -0.83173     0.11021
0.0010752   -0.092145   -0.030106 -0.00022403    -0.26981     -1.5499     0.10306
-0.0028225   -0.089546   -0.036602   -0.019388    -0.28151     -1.9887    0.094945
-0.008669   -0.090196   -0.043423   -0.044723    -0.27209     -2.1865    0.088773
-0.017114   -0.097017    -0.04992   -0.069408       -0.25     -2.2157    0.089423
-0.028482    -0.10481   -0.052843     -0.0837    -0.21395      -2.028    0.099817
-0.037577    -0.10546   -0.052193    -0.08305    -0.15321     -1.4872      0.1232
-0.037902   -0.094743   -0.047646   -0.065186    -0.06616    -0.59267     0.15341
-0.029132    -0.07428   -0.039851   -0.034329    0.020888     0.43729     0.17582
-0.016464   -0.050569   -0.028482  -0.0024977    0.078704      1.3146     0.17874
-0.0041217   -0.028482   -0.020037    0.020888     0.10501      1.8885     0.15763
0.0036737   -0.012567    -0.01549     0.03583     0.11801      2.1581     0.11703
0.0043233  -0.0024977   -0.015815     0.05272     0.15211      2.2176    0.064088
0.0043233   0.0056225   -0.014516    0.082277     0.24111       2.201    0.013418
0.014068    0.012119  -0.0041217      0.1284     0.40579      2.2608  -0.0060706
0.039402    0.017316    0.021538     0.18816     0.63705      2.4394     0.02641
0.081303    0.021538    0.059865     0.25248     0.89495      2.5839     0.10436
0.13392    0.027709     0.10566     0.31029      1.1366      2.5148     0.19401
0.18297     0.03583     0.15081     0.35024       1.326      2.1841     0.25865
0.22097    0.046223     0.18881     0.36811      1.4358      1.6771     0.28756
0.24663    0.056292        0.22     0.36713      1.4474      1.1184      0.2934
0.26157    0.070259     0.24403     0.35284      1.3513     0.60911      0.2934
0.26774    0.087474     0.25897     0.32556      1.1496     0.18816     0.29405
0.26579    0.099492       0.258     0.28561     0.85369    -0.17042     0.28431
0.25378    0.095919     0.23786     0.23429     0.49186    -0.50985      0.2463
0.22909    0.079354     0.20343      0.1768     0.11118    -0.81289      0.1781
0.19434    0.060515     0.16608     0.12125    -0.22791      -0.974    0.094295
0.15991    0.050121     0.13782     0.07773    -0.47087    -0.86876    0.012768
0.13262    0.051745     0.12255    0.047198    -0.58845    -0.48321   -0.052843
0.10826    0.055643     0.11411    0.028359    -0.57676    0.020888    -0.10351
0.0852     0.05272     0.10664    0.015042     -0.4543     0.39539    -0.14866
0.062139    0.036479     0.10014  0.00010078    -0.26722     0.47237    -0.19121
0.040052     0.01017    0.091047   -0.020037   -0.078503     0.24176    -0.23376
0.01764    -0.01614     0.07708   -0.043423     0.06084    -0.18277    -0.27696
-0.0044465   -0.034329    0.061165   -0.064536     0.12093    -0.64627    -0.31042
-0.02426    -0.04115    0.047847   -0.076879    0.095919      -1.051    -0.32958
-0.039526   -0.040175    0.039078   -0.083375   0.0072465     -1.3686    -0.33088
-0.048296   -0.032055    0.033231   -0.087922    -0.10644     -1.5892    -0.31399
-0.050569   -0.022961    0.029983   -0.089546     -0.2107     -1.6921    -0.28151
-0.045697   -0.019063    0.032257   -0.090196    -0.30619     -1.6658     -0.2487
-0.042124   -0.022311    0.038753   -0.097666    -0.40591     -1.5245    -0.22824
-0.048296   -0.033354    0.043625    -0.11488    -0.50725     -1.3147    -0.23246
-0.064211   -0.047971     0.04395    -0.13599    -0.58683     -1.0913    -0.25812
-0.085973   -0.057065    0.037129    -0.15743    -0.62905    -0.91975    -0.29223
-0.10481   -0.059664    0.024137    -0.17237    -0.64074    -0.86681    -0.32081
-0.12398   -0.056741    0.011144    -0.17854     -0.6349    -0.94671     -0.3403
-0.14022    -0.04862   0.0023744     -0.1714    -0.61541     -1.1036    -0.36011
-0.14964   -0.035953  -0.0031473    -0.15418    -0.57513     -1.2348    -0.38577
-0.15223   -0.019712  -0.0031473    -0.12755    -0.49815     -1.1718    -0.40656
-0.14184   0.0039985   0.0069217   -0.087272    -0.35329    -0.67582    -0.39422
-0.11456    0.037454    0.032582   -0.031081    -0.10546     0.39377    -0.32048
-0.070707    0.076106    0.070259    0.045249     0.25897      1.8444    -0.18374
-0.019388     0.11118     0.11606     0.13035     0.67732      3.2056   -0.021661
0.029333     0.13522     0.15828     0.20668      1.0401      3.9878     0.11248
0.063113     0.14594     0.18329      0.2567      1.2526      3.9056     0.19693
0.073832     0.14302     0.18557     0.26839      1.2717      2.9835     0.23039
0.064413     0.12743     0.16445     0.24241      1.1061      1.5332     0.22454
0.042001     0.10339     0.12418     0.18589     0.81797    0.013743     0.19141
0.016016     0.07708    0.074157     0.11671     0.49478     -1.0977     0.14432
-0.0063954    0.057592    0.032257    0.054668     0.22129     -1.5561    0.098193
-0.020362    0.053369   0.0052977    0.017965    0.050446     -1.4541    0.074157
-0.025234    0.061814  -0.0054209    0.010495  -0.0080194     -1.1159    0.089748
-0.022636    0.074157  -0.0063954    0.025111    0.014717    -0.87396     0.14237
-0.018088    0.083576  -0.0041217    0.045249    0.069934     -0.8824      0.2057
-0.013216    0.087474  -0.0034721    0.056617     0.13977     -1.0734     0.25053
-0.0073698    0.090072  -0.0028225    0.057592      0.2541     -1.2511     0.26255
0.0036737    0.094295  0.00010078    0.053044     0.43339     -1.2498     0.25053
0.017965     0.10079   0.0078962     0.05272      0.6325     -1.0279     0.22877
0.037129     0.10729     0.01764    0.065062     0.75365    -0.65861     0.20505
0.057267     0.11183    0.021213    0.091372     0.71305    -0.28995     0.17939
0.074482     0.10989    0.009845     0.11898     0.48504    -0.11033     0.14496
0.080328    0.099492   -0.020037      0.1323     0.12223    -0.26754     0.09462
0.071883    0.080328   -0.059014     0.12385    -0.27793    -0.71902    0.033556
0.054019    0.056942   -0.091495    0.095594    -0.61801     -1.2335   -0.021337
0.038428    0.037129    -0.10968    0.055968     -0.8496     -1.5759   -0.051868
0.031932    0.022188    -0.11358    0.012119    -0.97789     -1.6746    -0.04992
0.035505    0.011469    -0.11326   -0.027183     -1.0328     -1.5677   -0.025884
0.03453 -0.00022403    -0.11618   -0.060963     -1.0435     -1.3186  -0.0031473
0.021863   -0.014191     -0.1243   -0.086298      -1.013     -1.0078  -0.0037969
-0.0034721   -0.031081    -0.13989    -0.10091    -0.90774    -0.67972   -0.029132
-0.036278   -0.050894    -0.15646    -0.10156    -0.69044    -0.27306   -0.058689
-0.062912   -0.071032    -0.16425   -0.089221    -0.37018      0.3444   -0.062587
-0.072981   -0.088896    -0.15711   -0.068434  -0.0057458      1.1921   -0.029132
-0.061937    -0.10351    -0.13534   -0.046347     0.32686      2.0808    0.028684
-0.036278    -0.11488    -0.10644   -0.030756     0.56884      2.7441    0.083901
-0.0076946    -0.12105   -0.077528   -0.018738     0.69162      3.0101     0.11898
0.014068    -0.12268   -0.055441  -0.0063954      0.7176      2.8958     0.13522
0.02706    -0.11358   -0.040175    0.011144     0.69974       2.545     0.15146
0.029333   -0.094093   -0.027183    0.030633     0.68252      2.1097     0.18264
0.024786   -0.070382   -0.015165    0.049796     0.66855      1.6511     0.22422
0.017965    -0.04927  -0.0031473    0.062139      0.6273       1.197     0.26352
0.014068   -0.032055   0.0033489    0.063438     0.49511     0.71078     0.28853
0.015367    -0.01614    0.003024    0.053694     0.21155    0.050446     0.29438
0.016991  -0.0011985  -0.0050961    0.037129    -0.22434    -0.85609     0.27261
0.009845   0.0069217   -0.021012    0.017316    -0.73461     -1.8643     0.21577
-0.0054209   0.0043233   -0.037902  -0.0073698     -1.2105     -2.7153      0.1258
-0.023285  -0.0047713   -0.055116   -0.036278     -1.5768     -3.2087    0.012768
-0.040175   -0.013541   -0.069083   -0.068109      -1.813     -3.2665    -0.11131
-0.054792   -0.017764   -0.076879   -0.097341     -1.9393     -2.9391    -0.23636
-0.072331   -0.023935   -0.076879    -0.12203     -1.9799     -2.3707    -0.34907
-0.092145    -0.03303   -0.073306    -0.14249     -1.9387     -1.7211    -0.43449
-0.11423   -0.044398   -0.069733    -0.16523     -1.8071     -1.1163    -0.48776
-0.13469   -0.055116   -0.067784    -0.19186     -1.5781     -0.6336     -0.5092
-0.15191   -0.062912   -0.065186    -0.21817     -1.2728      -0.288      -0.504
-0.16003   -0.068109   -0.059014    -0.23181    -0.94152   -0.071682    -0.48224
-0.15841   -0.069733   -0.044398    -0.22272    -0.63652    0.015367     -0.4556
-0.14671   -0.062912   -0.021337    -0.19154    -0.38415  -0.0041217    -0.43189
-0.12365   -0.046022   0.0091954    -0.14574    -0.17984   -0.073955    -0.40266
-0.094418   -0.020687      0.0433   -0.096692   0.0017248   -0.092469    -0.35199
-0.068109   0.0043233    0.078379   -0.051544     0.18654    0.013418    -0.26332
-0.044398    0.024461     0.10664   -0.012242     0.38695     0.23559    -0.13242
-0.020362    0.038428     0.12353    0.023487     0.60132     0.47594    0.023812
0.0046481    0.046223     0.12548    0.051745     0.82219     0.60197     0.16835
0.027709     0.05142     0.11768    0.068635      1.0476      0.5539     0.25605
0.041027    0.051745     0.11021    0.072533       1.274     0.37493     0.27002
0.045574    0.043625     0.11021    0.065062      1.4686     0.14237     0.22162
0.042651    0.023812     0.11183    0.050121      1.5595   -0.077528      0.1336
0.031607  -0.0050961     0.10989    0.030957      1.4806    -0.21395    0.038103
0.013743   -0.035303    0.096244   0.0062721      1.2211    -0.19413   -0.039851
-0.0067202   -0.062262    0.070584   -0.027508     0.83973    0.022188   -0.086298
-0.025884    -0.07428    0.038103   -0.065186     0.43469     0.41943    -0.10838
-0.040825   -0.068109   0.0049729   -0.096367    0.089748     0.92093     -0.1217
-0.048296   -0.050569   -0.022311    -0.10676    -0.14899      1.4208    -0.13729
-0.046996   -0.029457   -0.034654   -0.087922    -0.27111      1.8395    -0.15126
-0.034654  -0.0067202    -0.03238     -0.0405    -0.29353      2.1698    -0.14541
-0.0089938    0.019914   -0.016464    0.023812    -0.25162       2.429    -0.10774
0.024137    0.051745    0.011794    0.087799    -0.19056      2.6255   -0.044398
0.056292    0.091047    0.045899     0.14172    -0.13567      2.7603    0.027385
0.084551      0.1349    0.079679     0.18362   -0.094418      2.8191    0.090722
0.10956     0.17517     0.11054      0.2161   -0.054467      2.8084     0.15179
0.13717     0.20635     0.13067     0.24825   0.0091954      2.7223     0.23331
0.16965     0.22617     0.14074     0.28463     0.12353      2.4842     0.35317
0.20408     0.23526     0.14432     0.31776     0.29015      1.9798     0.49381
0.23429     0.22909     0.14302     0.33433     0.45158      1.1571     0.60911
0.25215     0.20863     0.13425     0.31971     0.50777     0.10177     0.65654
0.25572      0.1781     0.11801     0.26742     0.37558    -0.95321      0.6273
0.24468     0.14626    0.097543     0.18719    0.049796     -1.7516      0.5422
0.22519     0.11736    0.077405     0.09397    -0.38772     -2.1582     0.43827
0.20376    0.096244    0.055968   0.0049729    -0.81354     -2.1855     0.34602
0.18069    0.084551    0.037454   -0.062587     -1.1299     -1.9556     0.27489
0.15796    0.082277    0.025436   -0.098316     -1.2813     -1.6239     0.22129
0.13684    0.083901     0.01894    -0.10903     -1.2618     -1.3202      0.1729
0.11833    0.084876    0.011144    -0.10611     -1.0994     -1.1072     0.12515
0.10014    0.079029  -0.0034721   -0.098641    -0.84472    -0.98991    0.080653
0.082602    0.067986   -0.026209   -0.093769    -0.56084    -0.93957    0.042326
0.065712    0.052395   -0.049595   -0.092145    -0.30132    -0.91553    0.016991
0.053369    0.034855   -0.060963   -0.092145   -0.088247    -0.88338   0.0091954
0.046548     0.01829   -0.055441   -0.092145    0.085525    -0.83433    0.023487
0.042326   0.0069217   -0.040175    -0.09182     0.22617    -0.76092    0.054344
0.032582  0.00042559   -0.024585   -0.091495     0.33693     -0.6362    0.080003
0.01764  -0.0034721   -0.011267   -0.092794     0.41293    -0.45008    0.068635
-0.00054884  -0.0063954 -0.00022403    -0.10059     0.45646    -0.24188   0.0091954
-0.015165  -0.0076946    0.011144    -0.11326     0.47757    -0.06681   -0.081101
-0.020362  -0.0089938    0.023487    -0.12657     0.47919    0.023162    -0.16653
-0.018738   -0.010618    0.036154    -0.13599     0.45775  -0.0028225    -0.21362
-0.011267   -0.011592    0.046548    -0.14444     0.41228    -0.14379    -0.21395
0.00075039   -0.010943    0.050771    -0.15126     0.35382    -0.36531    -0.17952
0.014392  -0.0044465    0.047198    -0.15483      0.2986    -0.60404    -0.13469
0.028359    0.008221    0.040702    -0.15418     0.26417    -0.78106    -0.10124
0.039078    0.025111    0.032257    -0.14671     0.26255    -0.82523   -0.086298
0.045249     0.04395    0.022837    -0.12917     0.29925    -0.68102   -0.085648
0.045249     0.06019    0.013418    -0.10579     0.36421    -0.30782   -0.088572
0.037454    0.067336   0.0062721     -0.0837     0.42527     0.22779   -0.085324
0.027385    0.065387   0.0020496   -0.067459     0.44769     0.73124   -0.064861
0.018615    0.056942  0.00010078   -0.055116     0.41456      1.0336   -0.027508
0.015692    0.050771   0.0052977   -0.043748     0.34537      1.1077    0.022512
0.022512    0.053694    0.012443   -0.031406     0.26969      1.0528    0.084551
0.042326    0.064413    0.013093   -0.015165     0.21188      1.0252     0.16608
0.070584    0.079679   0.0036737   0.0039985     0.18329      1.1525     0.26872
0.092021     0.08585   -0.016464     0.01764     0.18362      1.4916      0.3798
0.09462    0.076755   -0.042774    0.022837      0.2096      2.0103     0.47205
0.076106     0.05142    -0.06616    0.020888     0.24825       2.543     0.51297
0.041676     0.01764   -0.078827   0.0095202     0.27294      2.8266     0.47822
0.00042559   -0.013866   -0.077528   -0.008669     0.26157      2.6466     0.37136
-0.039526   -0.035303    -0.06681   -0.027833        0.22      1.9642     0.22129
-0.072656   -0.042774   -0.052193    -0.04115     0.17322     0.95244    0.066037
-0.089871   -0.036278   -0.037902   -0.044723     0.14821    -0.11001   -0.054467
-0.091495   -0.022636   -0.025884   -0.034978     0.15471     -0.9662    -0.11196
-0.080776  -0.0067202   -0.016789   -0.012567     0.18719     -1.5145    -0.10449
-0.063886   0.0095202  -0.0063954    0.021213     0.24663     -1.7938   -0.059339
-0.046347    0.021213   0.0069217    0.054019     0.33108     -1.9101   -0.018738
-0.03238    0.029658    0.021213    0.080003     0.43567     -1.9562   -0.015815
-0.025559    0.032257     0.03583     0.10177     0.53181     -1.9556   -0.059014
-0.026533    0.030308    0.047847      0.1232     0.57339     -1.8792    -0.12917
-0.034654    0.022837    0.057267     0.14269     0.52402     -1.6915    -0.20388
-0.046022    0.011469    0.066037     0.15991      0.3811     -1.3836    -0.25975
-0.057065  0.00042559    0.072533     0.17387     0.18362    -0.97724    -0.28768
-0.062262   -0.011592    0.078055     0.18102   -0.020687    -0.51634     -0.2893
-0.05804   -0.023285    0.079679     0.17745    -0.19089   -0.053492    -0.27534
-0.043748   -0.033679    0.080653     0.16283    -0.29125     0.37298     -0.2565
-0.025559   -0.043748    0.082927     0.14496    -0.29028     0.73546    -0.22986
-0.0073698   -0.050894    0.087149     0.13847    -0.18114     0.99401    -0.18796
0.0078962   -0.053168    0.088773     0.14691  0.00010078       1.095    -0.13469
0.021863   -0.043423     0.08585     0.16673     0.18264     0.99758   -0.084349
0.036804   -0.021661    0.079029     0.18102     0.29373     0.69194   -0.047971
0.047198   0.0075714    0.072533     0.17647     0.28821     0.19239   -0.033354
0.048822     0.03583    0.066686     0.14886     0.17257    -0.42637   -0.042774
0.040377    0.053369    0.063438     0.11021  -0.0011985     -1.0126   -0.069408
0.028684    0.057917    0.055318    0.073832    -0.17107     -1.3716   -0.097017
0.018615    0.054344    0.041027    0.049147    -0.29417     -1.3686    -0.10611
0.014717    0.046873    0.022837    0.042651    -0.36141     -1.0107   -0.089546
0.022512    0.040702   0.0091954    0.049472    -0.38187    -0.44261   -0.058689
0.037778    0.038103    0.003024    0.061165    -0.37505     0.12385   -0.029782
0.05272    0.037778    0.003024    0.070259    -0.35361     0.48764    -0.01614
0.059865    0.040377   0.0043233    0.072858     -0.3338     0.52434   -0.021012
0.056292    0.044924   0.0059473    0.067336    -0.32828     0.20798   -0.041475
0.04395    0.053694   0.0065969    0.058891    -0.33218    -0.35979   -0.067459
0.032582    0.066686   0.0052977    0.054668    -0.32146    -0.95548   -0.080127
0.025761    0.079679   0.0043233    0.061814    -0.26916     -1.3284   -0.064211
0.024137    0.088448   0.0026992    0.077405      -0.161     -1.3264   -0.020687
0.024786    0.093321   0.0017248    0.097218    -0.01614    -0.96263    0.037129
0.022512    0.096244  -0.0018481     0.11573     0.13814    -0.36563    0.098193
0.019589    0.097543  -0.0080194     0.12937     0.26774      0.2606     0.15341
0.014717    0.096244   -0.018413     0.13814     0.35544     0.70331     0.19304
0.011469    0.089748   -0.027183     0.14334     0.39312     0.85727     0.21155
0.012768    0.080328   -0.028807     0.14854      0.3837     0.74683     0.21025
0.019914    0.074806   -0.021337     0.15633     0.33368      0.4636     0.19693
0.026085    0.071234  -0.0054209     0.16413     0.25118     0.11118     0.16965
0.022512    0.063438    0.010819     0.16803     0.14074    -0.23019      0.1297
0.0052977    0.045574    0.015692     0.16315    0.012119    -0.51212    0.071558
-0.021986    0.017965   0.0039985     0.14724    -0.12398     -0.7135  -0.0041217
-0.051544   -0.011917   -0.022311     0.12418     -0.2448      -0.796    -0.09182
-0.083375   -0.039526   -0.052193    0.095269    -0.31854    -0.69206    -0.17919
-0.11391   -0.064536   -0.077528    0.065387    -0.31756    -0.34257       -0.25
-0.13989    -0.08305   -0.096367    0.040377    -0.23149     0.26157    -0.29125
-0.15386   -0.090196    -0.10319    0.026085   -0.069083      1.0733    -0.28833
-0.15029   -0.087597   -0.098965    0.026735     0.14626      1.9788    -0.23571
-0.1295   -0.078827   -0.086948    0.041027     0.38175      2.8113    -0.14476
-0.10124   -0.068434   -0.066485     0.06831     0.60002      3.4411   -0.030106
-0.070382    -0.05804   -0.045047     0.10566     0.76827      3.7692     0.10566
-0.039526    -0.04862   -0.027508     0.14594     0.86376      3.7416     0.26417
-0.010618   -0.035303   -0.013866     0.17972     0.87611      3.4135     0.42073
0.019264    -0.01549   0.0046481     0.19888     0.80465      2.9003     0.53863
0.046548   0.0049729     0.02641     0.20181     0.65459      2.2611     0.58573
0.065712    0.023162    0.049796     0.18946     0.44184      1.5231      0.5487
0.076755    0.037454    0.067336     0.16315     0.18881     0.74586     0.43859
0.082277    0.047198     0.06961     0.12743   -0.070058    0.034855     0.28301
0.079029    0.048172    0.056617    0.089098    -0.29807    -0.51862     0.11898
0.066037    0.045899     0.03583    0.055318    -0.47347    -0.87623   -0.017764
0.049147      0.0433    0.019914    0.033231     -0.5878     -1.0578    -0.10514
0.037129    0.044599    0.012768    0.021863    -0.65211      -1.102    -0.13437
0.036804    0.048822   0.0095202    0.017965    -0.68589     -1.0484    -0.10741
0.048822    0.054019   0.0049729    0.014717    -0.70636     -0.9295   -0.044398
0.064413    0.054993  -0.0034721   0.0072465    -0.72097    -0.78366    0.021863
0.073832    0.050121   -0.018088  -0.0057458    -0.72747     -0.6651    0.054993
0.06961    0.040052    -0.03303   -0.021337    -0.72162    -0.62808    0.042001
0.050121    0.030308     -0.0405   -0.034978    -0.69206    -0.70571  -0.0044465
0.024461    0.029983   -0.034654   -0.038551    -0.61314    -0.88695    -0.05739
0.0072465    0.041027   -0.022961   -0.029132    -0.44618     -1.1163   -0.089221
0.0091954    0.057267  -0.0067202  -0.0083442    -0.17562     -1.3163   -0.082076
0.026085    0.074157    0.012119     0.01894     0.15373     -1.4297   -0.042774
0.044599    0.088773    0.031607    0.044924     0.44151     -1.4378   0.0072465
0.057917    0.097868    0.049472    0.061814     0.59287     -1.3527    0.042001
0.058241     0.10144    0.060515    0.065712     0.56819     -1.2001    0.047847
0.041351    0.094945    0.061489    0.056292     0.40059     -1.0113    0.021213
0.015692    0.083251    0.050121    0.038428     0.16965    -0.81809   -0.027183
-0.0093186    0.067986    0.031607    0.014717   -0.045047    -0.64204   -0.081426
-0.023935    0.052395    0.011469   -0.010618    -0.20031    -0.48484    -0.12917
-0.027833    0.038103  -0.0034721   -0.039201    -0.28508    -0.34614    -0.16198
-0.022961    0.023487  -0.0050961   -0.064211    -0.31529    -0.23733    -0.17692
-0.010293    0.010819   0.0046481     -0.0824    -0.31691    -0.17205    -0.17822
0.0033489 -0.00022403    0.020239   -0.092145    -0.31399    -0.15191    -0.18017
0.016666   -0.010943    0.033231   -0.094418    -0.31594    -0.17335    -0.18829
0.029333   -0.021661    0.039727    -0.09117    -0.32406    -0.23733    -0.20128
0.036804   -0.030106    0.041676   -0.082076    -0.33543    -0.38447    -0.21817
0.032582   -0.037902    0.040702   -0.067784    -0.35069    -0.67452    -0.24156
0.017316   -0.045697     0.03518   -0.048296    -0.36823     -1.0955    -0.26819
-0.0073698   -0.056091    0.029009   -0.029782    -0.38057     -1.5086     -0.2906
-0.030756   -0.070058     0.02706   -0.017439     -0.3705     -1.7217    -0.29093
-0.046022   -0.080451    0.029658  -0.0099683    -0.32568     -1.6489     -0.2513
-0.04862   -0.082076     0.03518  -0.0011985     -0.2513     -1.3673    -0.17562
-0.038876   -0.072006    0.040377    0.009845    -0.16847     -1.0279   -0.084999
-0.021986   -0.055441    0.042651    0.017316    -0.10384    -0.75962  -0.0054209
-0.0041217   -0.042449    0.039078    0.020239   -0.086623    -0.63068    0.038428
0.0085458   -0.038551    0.031282    0.016341    -0.12592    -0.65016    0.044599
0.009845   -0.044723    0.025111   0.0062721    -0.19933    -0.76872    0.023487
0.0059473   -0.050569    0.018615  -0.0083442    -0.26787    -0.88565  -0.0099683
0.0065969   -0.050894    0.012443   -0.025884    -0.30327    -0.89215   -0.043748
0.011144   -0.047321   0.0069217   -0.040825    -0.29742    -0.71415   -0.070058
0.015042   -0.044723   0.0059473   -0.047971    -0.26559    -0.36173   -0.084024
0.016016    -0.04862    0.009845   -0.051219    -0.23766    0.047523   -0.082076
0.012768   -0.065186    0.014068   -0.056741    -0.23603     0.35999   -0.061613
0.0075714   -0.090521     0.01017   -0.068758     -0.2578     0.51167   -0.011267
-0.0011985    -0.11618  -0.0011985   -0.084674    -0.28411      0.5958    0.074157
-0.013866     -0.1321   -0.019388    -0.10254      -0.301     0.77282     0.18589
-0.030756    -0.13664   -0.041475    -0.12008    -0.31074      1.0918     0.29178
-0.04992    -0.13404   -0.064211    -0.13989    -0.33055      1.4387     0.35382
-0.071032    -0.13437   -0.082725    -0.16003    -0.36921      1.6274     0.34732
-0.091495    -0.14119   -0.091495    -0.17854    -0.41598      1.5345     0.27229
-0.10156    -0.14899   -0.087272    -0.18829    -0.43059      1.1766     0.15763
-0.091495    -0.15223   -0.072981    -0.18471    -0.36856      0.6848     0.04395
-0.059664    -0.14444   -0.050244     -0.1649    -0.19543     0.28463   -0.028157
-0.0096434    -0.12268   -0.018088     -0.1269     0.10274     0.25767   -0.034978
0.053044   -0.084349    0.021213   -0.063237      0.5133     0.83096    0.036804
0.12158   -0.031081    0.067336    0.026735     0.98427      1.9574     0.18394
0.18784    0.032257     0.11541     0.13132      1.4224      3.2225     0.38435
0.24598    0.093645     0.15828     0.22714      1.7131      4.0521     0.58833
0.28853     0.14042     0.19109     0.29015      1.7736      3.9852     0.74131
0.30932     0.16478      0.2083     0.30574      1.5907      2.9191      0.8066
0.30412       0.169      0.2096     0.27781      1.2295      1.1811     0.77931
0.27521     0.16121     0.19693     0.22227     0.80465     -0.6677     0.68577
0.22941     0.14886      0.1781     0.15893     0.42527     -2.0725     0.56267
0.18232     0.13944     0.15893     0.10436     0.15471     -2.8202     0.43502
0.14399     0.13262     0.13879    0.066686  0.00010078     -2.9462     0.31224
0.11963     0.12613     0.11801    0.045574   -0.070058     -2.6276     0.18914
0.10047     0.11703    0.098193    0.036804   -0.098641     -2.0728    0.057917
0.077405     0.10112    0.081627    0.033231    -0.11326     -1.4511   -0.078827
0.044275    0.078055    0.065712    0.031932    -0.12852     -0.8811    -0.20518
0.0059473    0.055643     0.05272    0.029983    -0.14736     -0.4189    -0.30197
-0.021986    0.046548    0.042975    0.028684     -0.1636   -0.044723    -0.34679
-0.031406     0.05272    0.034206    0.028034    -0.17335     0.29795     -0.3286
-0.02426    0.066037    0.022837    0.023812     -0.1753     0.63705    -0.25455
-0.0099683    0.073507     0.01017    0.012768     -0.1701     0.96738    -0.14379
0.0043233    0.067336  -0.0024977  -0.0057458    -0.15841      1.2659   -0.013866
0.015042    0.053694   -0.015815   -0.028482    -0.15158      1.4971     0.11638
0.023162    0.039078   -0.032705   -0.051544    -0.15158      1.6183      0.2187
0.028684    0.022837   -0.059664   -0.074605    -0.16133      1.5803     0.25767
0.029009   0.0017248   -0.092469   -0.099615    -0.18536      1.3529      0.2122
0.01829   -0.022311    -0.12495    -0.12268    -0.22532     0.96413    0.090397
-0.0018481   -0.043099    -0.14996    -0.14022    -0.26851     0.49478    -0.06616
-0.025559   -0.059014    -0.16198    -0.14866    -0.28411    0.033881    -0.20875
-0.045697   -0.069408    -0.15678    -0.14964    -0.24708    -0.35004    -0.30002
-0.057715   -0.072656    -0.13762    -0.14606    -0.15646    -0.63035     -0.3286
-0.059014   -0.069733    -0.11391    -0.13827   -0.034004    -0.81582    -0.31009
-0.057065   -0.063237   -0.095068     -0.1282    0.089098    -0.92885    -0.27209
-0.053817   -0.053492   -0.084674    -0.11098     0.18654    -0.98504    -0.23863
-0.047321   -0.040825   -0.078178   -0.082725     0.25832    -0.97724    -0.21427
-0.036278   -0.024585   -0.068109   -0.044723     0.32686    -0.87136    -0.18829
-0.01484  0.00075039   -0.048296  -0.0037969     0.41261    -0.65406    -0.14866
0.016341    0.036479   -0.014191    0.034855     0.51557    -0.38252   -0.093444
0.053369    0.076431    0.028684    0.062789     0.61626    -0.13567   -0.032055
0.087799     0.10956    0.069934    0.075456     0.68057    0.065712    0.024461
0.11313     0.13035    0.095269    0.071234     0.67732     0.28561    0.058891
0.12548     0.13912     0.10047     0.05272     0.58865     0.59807     0.06019
0.11671     0.13587    0.087149     0.02641      0.4191     0.98297     0.01829
0.091372     0.12385    0.062139   0.0026992     0.19531      1.3165   -0.052193
0.054993     0.10501    0.036154   -0.015815   -0.044073      1.4231    -0.12463
0.021213    0.086175     0.01894   -0.028157    -0.26397      1.2081    -0.16847
0.0017248    0.072533     0.01764    -0.03303    -0.43839     0.72702    -0.16555
0.0039985    0.067661    0.032257   -0.028157    -0.55402      0.1323    -0.12365
0.020239    0.071883    0.056942   -0.015165    -0.61151    -0.42994   -0.064211
0.037778    0.078704    0.079679 -0.00054884    -0.60534    -0.86421   -0.014191
0.045249      0.0865    0.092671    0.014068    -0.51764     -1.1146    0.010819
0.039402    0.092996     0.09397    0.021863    -0.34484     -1.1669    0.012119
0.019589     0.10112     0.08585     0.01894    -0.13599     -1.0532  -0.0050961
-0.010943     0.11183    0.066037   0.0023744    0.014717    -0.85089   -0.030756
-0.043099     0.12125    0.038103   -0.023285    0.040377    -0.68914   -0.061937
-0.072331     0.12125    0.011469   -0.056416   -0.046671    -0.70148   -0.093769
-0.096367     0.11151  -0.0099683   -0.088896    -0.17789     -0.9308    -0.12787
-0.11098    0.097218   -0.028482    -0.11098     -0.2867     -1.2835    -0.16133
-0.11423    0.083251   -0.045372    -0.11748    -0.34452     -1.6015    -0.19024
-0.10741    0.080003   -0.057065    -0.10644    -0.35102     -1.7513    -0.21849
-0.092794    0.087149   -0.053817   -0.081426    -0.32178     -1.6636     -0.2474
-0.075255    0.097868   -0.034329   -0.050569    -0.26754      -1.354    -0.27209
-0.056741     0.11054  -0.0044465   -0.018413    -0.20258    -0.90839    -0.28248
-0.04115     0.12093    0.020888   0.0075714    -0.13762    -0.45171    -0.27631
-0.03238     0.12385    0.032906    0.019914    -0.06551    -0.06681    -0.25877
-0.03303     0.11768    0.031932    0.019264    0.040702     0.23559    -0.23116
-0.04115     0.10404    0.021538    0.015367     0.19239     0.51037    -0.19186
-0.048296    0.088448    0.009845    0.019589      0.3772     0.90501    -0.13729
-0.047971     0.07708   0.0043233    0.041676     0.57014       1.565   -0.059664
-0.038876    0.068635   0.0078962    0.075131     0.75106       2.418    0.046548
-0.021337    0.065712    0.014068     0.10956     0.90794      3.1783     0.17777
0.0033489    0.067986    0.016016     0.13814      1.0307      3.5707     0.32848
0.029009    0.075131    0.015042     0.16121      1.0957      3.4603     0.48049
0.051096    0.082277    0.016016     0.17257      1.0668      2.8431     0.60619
0.061165    0.081303    0.016666     0.16868     0.92515      1.8184     0.67505
0.054019    0.069285    0.014068     0.14659     0.69194     0.61464     0.66855
0.033881    0.050121   0.0069217     0.11508      0.4204    -0.44976     0.59417
0.011144    0.026085   0.0026992    0.087474      0.1742     -1.1107     0.48309
-0.0047713   0.0043233   0.0039985    0.076431    0.003024     -1.3001     0.37136
-0.0073698  -0.0057458   0.0065969    0.084876   -0.079477     -1.0835     0.28496
0.0020496  -0.0011985   0.0069217     0.10631   -0.094093    -0.60177     0.23234
0.017316    0.012119   0.0056225     0.13262   -0.073631   -0.032705       0.207
0.033231    0.027709   0.0065969     0.15828   -0.034978     0.45256     0.19563
0.044599    0.040377    0.012768     0.18232    0.021213     0.73319     0.17972
0.050771    0.053369    0.022512     0.20018     0.10501     0.76177     0.14821
0.052395    0.067986     0.03583      0.2083     0.20668     0.55909     0.10404
0.047198    0.080978    0.048497     0.20343      0.2947     0.19076    0.057267
0.031932     0.08585    0.055643     0.18979     0.33335    -0.27988     0.01017
0.0085458    0.081952    0.056292     0.16608     0.30607    -0.80737   -0.039851
-0.012567    0.069934    0.054344     0.13717     0.22292     -1.3167   -0.089546
-0.022636    0.053369    0.053694     0.10826     0.10664     -1.6986    -0.12885
-0.016464    0.036479    0.050446    0.086175    -0.02426     -1.8714    -0.15126
0.00075039     0.01829    0.037129    0.071883    -0.16068      -1.836    -0.16003
0.019264  -0.0073698    0.013743    0.059216    -0.30035      -1.686     -0.1636
0.031607   -0.038551   -0.014516    0.046223    -0.43449     -1.5372    -0.16523
0.037129   -0.068758   -0.039526    0.031932    -0.54947     -1.4401    -0.15808
0.036154   -0.092794   -0.050894    0.019914     -0.6232     -1.3647    -0.13924
0.030633    -0.10449   -0.049595    0.012119     -0.6349     -1.2254    -0.10968
0.021538    -0.10579   -0.038551    0.011144    -0.57741     -0.8798   -0.077528
0.012443   -0.097341   -0.023285    0.021213    -0.47087    -0.21947    -0.04927
0.0072465   -0.082076  -0.0083442    0.039078    -0.35946      0.7176   -0.018738
0.0062721   -0.061613   0.0052977    0.063763    -0.28735      1.7304    0.017965
0.0095202   -0.038227    0.020564    0.092021    -0.27696      2.6145    0.058566
0.013743   -0.018413    0.041351     0.11671    -0.31886      3.2102    0.094945
0.01829  -0.0034721    0.063438     0.13132    -0.38772      3.3943     0.11573
0.022837   0.0069217    0.080978      0.1362    -0.46113      3.1296     0.12775
0.025111    0.011469    0.086824     0.13327    -0.52316      2.5122     0.14399
0.025436    0.012119    0.081303     0.12255    -0.56701      1.7375     0.17582
0.026735    0.008221    0.067011     0.10566    -0.58033      1.0116      0.2187
0.029009   0.0026992    0.050446    0.084551    -0.54687     0.46393     0.25832
0.032906   0.0026992    0.040377    0.065387     -0.4582     0.11216     0.28138
0.038103    0.011469     0.03583    0.051096    -0.32601   -0.096367     0.28691
0.041351    0.026735    0.032257    0.042975    -0.17042    -0.24026     0.27586
0.038103    0.043625    0.023162     0.03518  -0.0060706    -0.37603      0.2476
0.031282    0.059216    0.012119    0.023812     0.16705    -0.51309     0.20343
0.025761     0.06896  0.00042559   0.0052977     0.35252    -0.63003     0.14951
0.024461    0.066362    -0.01549  -0.0089938     0.53798    -0.70376    0.090072
0.02641     0.05207   -0.036927   -0.011267     0.68674    -0.73137    0.032257
0.027709    0.030957   -0.065186  -0.0031473     0.74423    -0.72682   -0.020362
0.025436    0.012443   -0.098641   0.0049729     0.68609    -0.71415    -0.06681
0.020239   0.0020496     -0.1269   0.0033489     0.52174     -0.7122    -0.10449
0.012768   0.0072465    -0.14411  -0.0073698     0.29405    -0.71967    -0.13112
0.0085458    0.025111    -0.15061   -0.019388    0.048497    -0.71642    -0.14444
0.0078962    0.042651    -0.15093   -0.025884    -0.19933    -0.69759    -0.13924
0.0069217    0.046873    -0.14736   -0.030106    -0.48321    -0.68557    -0.11553
0.003024    0.034206    -0.14022   -0.035303    -0.84895    -0.68297   -0.079802
-0.0067202   0.0088706    -0.13372   -0.046671     -1.2884    -0.65861   -0.043099
-0.019388    -0.01614     -0.1308   -0.058689     -1.7107     -0.5956   -0.013216
-0.032055   -0.029782     -0.1334   -0.069408     -2.0059    -0.50595   0.0023744
-0.042774   -0.029782    -0.13859   -0.075579     -2.0985     -0.4124   0.0010752
-0.046671   -0.027508    -0.13924   -0.075579     -1.9715    -0.33055   -0.010293
-0.044073   -0.021661    -0.12917    -0.06551     -1.6655     -0.2591   -0.018738
-0.032705  -0.0089938    -0.10774     -0.0405     -1.2491    -0.19738   -0.017439
-0.012242    0.009845    -0.08305  -0.0076946    -0.80705     -0.1623   -0.012567
0.012119    0.033231   -0.061288    0.019914     -0.4124    -0.18049   -0.018738
0.029009    0.052395   -0.045372    0.031932    -0.10676    -0.26559   -0.048945
0.029333    0.057592   -0.036602    0.024137     0.10566    -0.40786    -0.10059
0.0088706    0.045899   -0.037577  -0.0021729     0.23851    -0.57741    -0.16425
-0.031406    0.022837   -0.047971   -0.043099     0.30185    -0.73331    -0.23084
-0.082076   0.0010752   -0.060963   -0.085973     0.30867    -0.84018    -0.28963
-0.12268  -0.0096434   -0.068109    -0.11845     0.27651    -0.88857    -0.32828
-0.14054   -0.010293   -0.064211    -0.13177     0.22584    -0.90027    -0.33672
-0.13567   -0.007045   -0.050569     -0.1282     0.17777    -0.89344     -0.3286
-0.11813  -0.0021729   -0.036602    -0.11748     0.14334    -0.86519    -0.31724
-0.095393   0.0017248   -0.024909    -0.10936     0.12385    -0.80152    -0.30847
-0.071357   0.0036737   -0.016789    -0.10741     0.11346    -0.70928    -0.30165
-0.046022   0.0056225  -0.0067202    -0.10936     0.11541    -0.59495    -0.29417
-0.017439    0.011144   0.0059473    -0.10903     0.14432    -0.44001    -0.27566
0.0062721    0.014392    0.023812    -0.10189      0.2161    -0.19056    -0.23766
0.021213    0.011794    0.042001   -0.085324     0.34245     0.19596    -0.17757
0.031932  0.00042559    0.057592   -0.059014     0.52304     0.68187   -0.097017
0.040377   -0.012892    0.071234   -0.023935     0.74521      1.1181  -0.0093186
0.045574   -0.019712    0.086824    0.021863     0.97095      1.3201    0.067986
0.05142   -0.017114     0.10794    0.073182        1.16      1.2123     0.12255
0.062139  -0.0041217     0.13457     0.12418      1.2834      0.9232     0.15698
0.07773    0.016341     0.16185      0.1664      1.3338     0.68642     0.18134
0.090072    0.035505     0.18232     0.19239      1.3208     0.61301     0.20408
0.09397    0.042001     0.18979     0.19628      1.2422     0.61139     0.22324
0.082602    0.029333     0.17745     0.18004      1.0817     0.52239     0.21772
0.054019  0.00010078     0.14984     0.14367     0.83518     0.28528     0.16965
0.016341   -0.037577     0.11768    0.094295     0.52564   -0.029782    0.080003
-0.02426   -0.073955    0.093645    0.040377     0.21772    -0.30554    -0.03303
-0.058365    -0.10254    0.081627  -0.0080194   -0.013541    -0.46665    -0.13404
-0.075579     -0.1217    0.079029   -0.042124    -0.11715    -0.51115    -0.18894
-0.073306     -0.1321    0.083251   -0.054792   -0.081426     -0.4673    -0.17562
-0.052193    -0.13599    0.090072   -0.042449    0.060515    -0.36433    -0.09929
-0.022961    -0.13047    0.099167   -0.010618     0.25345    -0.22921   0.0072465
0.0052977    -0.11618     0.11021    0.030308     0.45126   -0.085324     0.10761
0.028684   -0.096042     0.12223     0.06961     0.61691   0.0075714     0.18232
0.046873   -0.070707     0.13262    0.096244     0.71078   -0.019388     0.23201
0.056942    -0.04992     0.13944     0.10274     0.69811    -0.19154     0.26612
0.058566   -0.044398     0.13814    0.086824     0.56786    -0.48646     0.29665
0.052395   -0.057065     0.12872    0.054993     0.34732    -0.85252     0.32361
0.041351   -0.077203     0.11411     0.01829    0.091047     -1.2186      0.3418
0.029009   -0.093119    0.096244   -0.014516    -0.13859     -1.4846     0.34115
0.017316   -0.094418    0.084551   -0.032705    -0.30229     -1.5297     0.31939
0.0072465   -0.084024    0.088448    -0.03238    -0.39032     -1.2946     0.27619
0.00010078   -0.068434     0.10404   -0.022961    -0.41338    -0.82816     0.21058
-0.0044465   -0.055116     0.12223   -0.010618    -0.39422    -0.24448     0.12548
-0.0057458   -0.046996     0.13262   0.0017248    -0.35426     0.36941    0.033556
-0.0024977   -0.039201     0.13684    0.016991    -0.29028     0.98817   -0.044398
0.0065969    -0.02361     0.14367    0.040052    -0.18861      1.6238   -0.085324
0.023812   0.0072465      0.1625    0.074482   -0.033354      2.2864   -0.069733
0.048822    0.054344     0.18946     0.11736     0.16543      2.9445 -0.00054884
0.07708     0.10729     0.21805     0.16218     0.35739      3.4801     0.10371
0.10274     0.15276     0.24306     0.19628     0.47822       3.713     0.21155
0.11703     0.18329      0.2528     0.21123     0.49186      3.4898      0.2934
0.11638     0.19563     0.24533      0.2044     0.43567      2.7798     0.33043
0.10566     0.19271     0.22454      0.1781     0.39507      1.7206     0.32751
0.094295     0.17939     0.19921     0.14561     0.43209     0.56884     0.30412
0.088448     0.16218     0.17387     0.11995     0.52856    -0.40721     0.27521
0.088124     0.14626     0.15146     0.10371     0.60976      -1.039     0.24566
0.093645     0.13522       0.131    0.094295     0.60164     -1.3189      0.2096
0.10144      0.1258     0.10989    0.088124     0.49478     -1.3261     0.16543
0.11086     0.11736    0.089098    0.081952      0.3353     -1.1731     0.11281
0.11508     0.10891     0.06896    0.075456     0.18167    -0.97075    0.056292
0.10826     0.10047     0.05142    0.067336    0.063113     -0.8077   0.0046481
0.090072    0.089098    0.039727     0.05142   -0.022311    -0.73624   -0.035303
0.063113    0.075456    0.032582     0.02706   -0.086298    -0.76287   -0.065835
0.033231    0.059216    0.026085  -0.0018481     -0.1295    -0.85966   -0.097666
0.0039985    0.042975    0.017965   -0.033679    -0.14379    -0.99901    -0.13502
-0.023285    0.031607    0.008221   -0.062262    -0.11521     -1.1458    -0.17757
-0.050894    0.021538   0.0017248   -0.081426    -0.05739     -1.2426    -0.21979
-0.078178    0.013418  -0.0037969   -0.092469   -0.016789     -1.2436     -0.2552
-0.10351   0.0062721   -0.011917    -0.10124   -0.037577     -1.1351    -0.27599
-0.1178  -0.0034721   -0.025559    -0.11131    -0.13762    -0.93567    -0.27858
-0.11878   -0.019063   -0.040825    -0.11943    -0.30587    -0.67128    -0.26689
-0.11033   -0.040175   -0.054142    -0.12105    -0.50855    -0.36726    -0.24643
-0.098641   -0.060963   -0.063886    -0.11423    -0.70018   -0.065186    -0.22434
-0.081751    -0.07428   -0.069733   -0.096367    -0.83628     0.18492    -0.19998
-0.057065   -0.075255   -0.070058    -0.06551    -0.88143     0.35122     -0.1714
-0.027183   -0.067459   -0.059989   -0.021661    -0.82394      0.4295    -0.14509
0.0033489   -0.054142   -0.036278    0.029333    -0.67128     0.45451    -0.12268
0.034855   -0.036278  -0.0080194    0.081303    -0.44683     0.47594    -0.10514
0.065712   -0.011267    0.017316     0.12905    -0.19024     0.49348   -0.095717
0.10014    0.021213    0.034855     0.16445    0.048172     0.44476   -0.095068
0.13587    0.055968    0.044275     0.18167     0.22487     0.23039    -0.09929
0.16543    0.087149    0.045899     0.18102     0.31744    -0.20388   -0.096692
0.17874     0.10956    0.036479      0.1677     0.31809    -0.77944   -0.084349
0.1742     0.11866    0.015042     0.14594     0.24241     -1.2712   -0.061937
0.15601     0.11638   -0.013866     0.11768     0.12288      -1.442   -0.029132
0.13197     0.10891   -0.039851    0.081952   -0.007045     -1.2426   0.0065969
0.10794     0.10177   -0.062262    0.041027    -0.12982    -0.87298    0.036479
0.087799    0.095919     -0.0824 -0.00022403    -0.23344    -0.64367     0.05207
0.072533    0.091372    -0.10611    -0.03303    -0.30652    -0.72909    0.051745
0.063438    0.089423    -0.13664   -0.053168    -0.33348     -1.0032    0.041676
0.061165    0.082927    -0.17335   -0.054467    -0.30879      -1.052    0.029983
0.064737    0.072858    -0.20778   -0.039851    -0.23214     -0.5118    0.028034
0.070909    0.061165    -0.23181   -0.020362    -0.11943     0.55032    0.038753
0.074806    0.051745    -0.24448  -0.0057458  -0.0031473      1.6764    0.047847
0.069934    0.045249     -0.2474  -0.0018481    0.079029      2.4391    0.039727
0.054019    0.040702    -0.24318  -0.0037969     0.11151      2.6671    0.012119
0.030633    0.038428    -0.23214   -0.007045    0.094945      2.4219   -0.029457
0.0062721    0.040377    -0.21785   -0.012242    0.052395      1.8863   -0.073955
-0.010943    0.048822     -0.2029   -0.016789    0.010495      1.2717    -0.10936
-0.016789    0.059216    -0.18731   -0.016789  -0.0047713     0.78711    -0.13015
-0.012892    0.067336    -0.17237  -0.0073698     0.01764     0.59807    -0.13632
-0.0060706    0.068635    -0.16068   0.0069217    0.068635     0.69097     -0.1282
-0.0034721    0.061814    -0.15613    0.016991     0.11638     0.86929    -0.11001
-0.0047713    0.044599     -0.1597    0.018615     0.12678     0.97712   -0.086623
-0.010618     0.01764     -0.1662   0.0091954    0.090397      1.0041   -0.058689
-0.014191   -0.010293    -0.16977  -0.0054209    0.019589     0.99823   -0.019388
-0.012242   -0.027833    -0.16782   -0.021986   -0.058689      0.9781    0.036804
-0.0067202   -0.034654    -0.15873   -0.035953    -0.12592     0.92678     0.10047
0.0010752   -0.028807    -0.14216   -0.041475    -0.17237     0.85954     0.16023
0.010819   -0.012242    -0.12073   -0.036927    -0.19771     0.83973     0.20083
0.01829    0.010819    -0.09929   -0.029457    -0.21005     0.90274     0.21058
0.022512    0.027709   -0.081426   -0.027508    -0.22369      1.0096     0.19141
0.023812    0.029658   -0.069083   -0.029782     -0.2539      1.0879     0.16218
0.027709    0.014717   -0.059989   -0.034329    -0.30554      1.0885     0.13684
0.032257  -0.0099683   -0.051219   -0.038876    -0.36433      1.0041     0.13295
0.035505   -0.033679   -0.038551   -0.043423    -0.39519     0.86571     0.15926
0.038103   -0.052518   -0.021337   -0.045047    -0.36888     0.71435      0.2096
0.044599   -0.064211  -0.0054209   -0.046347    -0.27858     0.57923     0.26709
0.055968   -0.067134   0.0085458   -0.048296    -0.15158     0.46133     0.31354
0.065712   -0.063237    0.019589   -0.047971    -0.03238     0.34212     0.33465
0.069285    -0.05739    0.031282   -0.045372    0.034206     0.19563     0.31874
0.06831   -0.054142      0.0433   -0.040825    0.034855 -0.00022403     0.26872
0.064737   -0.051219    0.055643   -0.032055  -0.0067202     -0.2591     0.20083
0.063113   -0.044073    0.067986   -0.018413   -0.047321    -0.57059     0.13684
0.061165    -0.03303    0.078704  0.00010078   -0.049595    -0.89117    0.091372
0.058891   -0.019388    0.092346    0.024461  -0.0057458     -1.1513    0.067011
0.053694  -0.0031473     0.11216    0.048172    0.060515     -1.2894    0.063438
0.048497    0.011144      0.1323    0.062464     0.11638     -1.2907    0.073182
0.046223     0.01764     0.14302    0.064413     0.13587     -1.1848    0.085525
0.044599     0.01764     0.13847    0.053044     0.11606     -1.0295    0.090722
0.043625    0.009845     0.11963     0.03453    0.071558    -0.87526     0.07708
0.0433  -0.0018481    0.097543    0.016016     0.02641    -0.75703    0.040702
0.042975   -0.012567    0.081627    0.003024  -0.0044465    -0.69694   -0.013541
0.039078   -0.016789    0.073507    0.003024   -0.013541    -0.70213   -0.078503
0.026735   -0.016464    0.067011    0.016991   -0.007045    -0.76839    -0.14444
0.008221   -0.017439     0.06084    0.042326   0.0039985    -0.87396    -0.19576
-0.0099683   -0.019388    0.055968    0.066037   0.0059473     -0.9753    -0.22239
-0.024909   -0.022311    0.056292    0.080653  -0.0037969     -1.0458    -0.22044
-0.038227   -0.019063    0.054019    0.082602   -0.024909     -1.0789    -0.19641
-0.04992   -0.007045      0.0433    0.077405   -0.055766     -1.0883    -0.16198
-0.059339    0.010819    0.024786    0.069285   -0.096042     -1.0997    -0.13534
-0.062587    0.027385   0.0059473    0.062464    -0.14899     -1.1289    -0.13275
-0.061613     0.03583  -0.0093186    0.053369    -0.21947     -1.1679    -0.15093
-0.061288    0.034855   -0.021986    0.041351    -0.31334     -1.1997    -0.17205
-0.063886    0.028684   -0.029782    0.019914     -0.4241      -1.202    -0.18049
-0.06551    0.023487    -0.03303  -0.0083442    -0.53031     -1.1504    -0.17789
-0.061937    0.020239   -0.034329   -0.036602    -0.58618     -1.0133     -0.1714
-0.053817    0.017316   -0.034329   -0.050569      -0.542    -0.79763    -0.16847
-0.047646    0.015692   -0.030106    -0.04927    -0.37895    -0.56084    -0.16912
-0.045372    0.014392   -0.018413   -0.035953    -0.12917    -0.37278    -0.16685
-0.044398    0.016016  -0.0024977   -0.019388     0.12775    -0.27501    -0.15581
-0.046671    0.015042    0.010819   -0.011592      0.2986     -0.2578    -0.14119
-0.051544    0.015042    0.017965   -0.017764     0.33725    -0.22661      -0.123
-0.058689    0.014392    0.019914   -0.030431     0.26742      0.0014    -0.10449
-0.064536    0.012768     0.01894   -0.036278     0.15309      0.5461   -0.087922
-0.065835    0.016016     0.01764   -0.030431    0.066037      1.3075    -0.06551
-0.062262    0.029983    0.019589    -0.01484    0.051745      2.0503   -0.027833
-0.04992    0.054993    0.028684   0.0088706     0.11086      2.5635    0.026735
-0.029782    0.084551    0.046223    0.035505     0.20538      2.7129    0.094295
-0.0076946     0.11054    0.069285    0.062464     0.28236      2.4069      0.1677
0.017316      0.1232    0.093645    0.086175      0.2921      1.6469     0.23526
0.0433     0.12288     0.11313     0.10306     0.22909     0.59872     0.29568
0.067011     0.11313     0.12418     0.11054     0.13262     -0.4962     0.34797
0.076106     0.10079      0.1271     0.10826     0.05272     -1.4729     0.39182
0.06896    0.088773     0.12385    0.092996    0.009845     -2.2791     0.41196
0.048497    0.078379     0.11833    0.067986   -0.008669     -2.8761     0.39279
0.017965    0.072858     0.11411    0.042001   -0.036602     -3.2632     0.32881
-0.016789    0.067986     0.11021     0.01764    -0.10644     -3.4922     0.22259
-0.04862    0.063763     0.10242   -0.007045    -0.23019     -3.6033    0.084551
-0.074605    0.058891    0.091696   -0.031081    -0.39032      -3.603   -0.070382
-0.092794    0.049796    0.082602   -0.050894      -0.542      -3.487    -0.22304
-0.10709    0.034206    0.073507   -0.063561    -0.64367     -3.2746    -0.35881
-0.1204   0.0095202    0.061814   -0.073631    -0.68427     -2.9722    -0.47184
-0.13697   -0.014516    0.045249   -0.079152    -0.68135     -2.5126    -0.55759
-0.15711   -0.030431    0.028359   -0.079802    -0.65439     -1.7743    -0.61476
-0.17659   -0.036927    0.014392   -0.069083    -0.60631    -0.70798    -0.64432
-0.18861   -0.028157     0.01017   -0.042774    -0.52544     0.52564    -0.63197
-0.18374  -0.0044465    0.017965   0.0049729    -0.39032       1.604    -0.56734
-0.16068    0.030957    0.034855    0.070909    -0.18114      2.3582    -0.44976
-0.12917    0.072858    0.054668     0.14074     0.10696      2.9123    -0.29255
-0.09182     0.11508    0.076106      0.2044     0.46945      3.5831    -0.10644
-0.043748     0.15276     0.10242     0.25183     0.88163      4.5594     0.10242
0.016991     0.17972     0.13262     0.28203      1.2743      4.9589     0.31971
0.081303     0.19596     0.16803      0.2999      1.5676      4.9593     0.52142
0.14302      0.2057     0.20311     0.31419      1.7203      4.9589     0.68837
0.20148     0.21675     0.23559     0.33498       1.771      4.9589     0.81991
0.25995     0.23689     0.26384     0.37006      1.8171      4.9589     0.93197
0.31776     0.26482     0.28788     0.41683      1.9502      4.4224      1.0418
0.36908     0.29275      0.3038     0.45808      2.1571       3.852      1.1554
0.40546     0.30769     0.30834     0.47497      2.3062      3.1196      1.2535
0.41618      0.3025     0.29633     0.45775      2.2435      2.1175      1.2967
0.40221     0.27976     0.26807     0.40579      1.8872     0.99336      1.2548
0.36616     0.24111     0.22649     0.32816      1.2932     0.01017      1.1178
0.31581     0.19271     0.17582     0.24176     0.63705    -0.65146     0.90729
0.25345     0.14139     0.12353     0.15991     0.12872    -0.99284     0.66206
0.18459    0.091696    0.071558    0.088773   -0.097991     -1.1296     0.41683
0.11931    0.042326    0.024461    0.032257   -0.045697      -1.188     0.20181
0.064737  -0.0041217   -0.011592  -0.0080194     0.15893     -1.2488    0.032906
0.025761   -0.042774   -0.034654   -0.037577     0.34667     -1.3336   -0.088247
0.0014   -0.064211   -0.050569   -0.059989     0.40254     -1.4193    -0.16782
-0.010618   -0.070058   -0.060963   -0.073955     0.30737     -1.4648     -0.2146
-0.011592   -0.063886   -0.067784   -0.075904     0.11736     -1.4417    -0.23149
-0.0054209   -0.055116   -0.072006   -0.072981   -0.088247      -1.353    -0.22791
0.00042559   -0.052193   -0.078178   -0.069083    -0.25227     -1.2228     -0.2133
-0.0028225   -0.053492   -0.089221   -0.069408    -0.35524     -1.0799    -0.19803
-0.017114   -0.059339    -0.10124   -0.076229    -0.40786    -0.94931    -0.19283
-0.040175   -0.069408    -0.11748   -0.084999    -0.44066      -0.834    -0.20096
-0.066485   -0.081751    -0.13469   -0.097017    -0.47867    -0.71577    -0.22109
-0.09117    -0.09117    -0.15158    -0.10806    -0.54265    -0.59592    -0.25033
-0.11098   -0.094418    -0.16328    -0.11845    -0.64562    -0.49523    -0.28638
-0.1243   -0.094418    -0.16653     -0.1308    -0.78496    -0.44878    -0.32795
-0.13469   -0.093769    -0.16328    -0.14801    -0.94022     -0.4686    -0.36791
-0.14509   -0.095393    -0.15711     -0.1649     -1.0796    -0.53746    -0.39811
-0.15516   -0.095717    -0.15223    -0.17302     -1.1764    -0.62126    -0.41305
-0.16555   -0.094093    -0.15223    -0.17042     -1.2127    -0.68752    -0.40818
-0.17302   -0.093444    -0.15711    -0.16295     -1.1835    -0.72422    -0.38804
-0.17042   -0.093769    -0.16458    -0.15548     -1.0948    -0.74014    -0.36173
-0.14866   -0.092794    -0.16782    -0.14281    -0.95678    -0.75053    -0.33088
-0.10936   -0.086298     -0.1636    -0.12268    -0.78593    -0.77229    -0.29645
-0.065186   -0.076554    -0.15386    -0.09929    -0.61801    -0.80964     -0.2513
-0.03173   -0.069083    -0.14216   -0.079477     -0.4962    -0.85187    -0.19966
-0.018413   -0.064861    -0.13372   -0.065835    -0.44781    -0.88045    -0.15288
-0.022311   -0.065835    -0.13404   -0.059989    -0.47249    -0.87948     -0.1178
-0.03173   -0.070058    -0.14249   -0.069083     -0.5498    -0.85122   -0.097341
-0.037577   -0.073955    -0.15256   -0.090521    -0.64659    -0.82264   -0.091495
-0.037577   -0.075579    -0.15776    -0.11813    -0.72195    -0.81647    -0.09182
-0.032705   -0.076229    -0.15581    -0.14346    -0.73072    -0.81159   -0.090521
-0.021337   -0.075255    -0.14574    -0.15743    -0.62808    -0.73754   -0.084999
-0.0044465   -0.072656     -0.1282    -0.15873    -0.40916    -0.51764   -0.074605
0.011794   -0.067459    -0.10774    -0.14834    -0.13047    -0.16653   -0.070382
0.019914   -0.063561   -0.090845    -0.13112     0.10761     0.15373   -0.089871
0.019264   -0.063237   -0.085648    -0.11586     0.22454     0.26904    -0.15516
0.0056225   -0.064536   -0.088572    -0.11261     0.20051     0.11476    -0.26202
-0.019388   -0.063237   -0.089871    -0.11845    0.078704     -0.2448    -0.38025
-0.046671   -0.057065    -0.08305    -0.12625   -0.070707    -0.68135    -0.47509
-0.063561   -0.050244   -0.064861    -0.12235    -0.18082     -1.0763    -0.52479
-0.064861   -0.043748   -0.037252   -0.098641    -0.20388     -1.3534    -0.53063
-0.050894   -0.037577  -0.0011985   -0.059014    -0.13112     -1.4849     -0.5027
-0.027833   -0.030106    0.034206   -0.012567   0.0023744     -1.4654    -0.45333
-0.0031473   -0.025559    0.063763    0.028684     0.14139     -1.2611    -0.39389
0.018615   -0.025884    0.084226    0.056617     0.24338    -0.83303    -0.32016
0.037778   -0.028482    0.097543    0.071558     0.28691    -0.24903    -0.21849
0.055968   -0.028157     0.10761    0.079029     0.27294     0.31549   -0.084999
0.074806   -0.024909     0.12028    0.081627     0.21577     0.68609    0.055318
0.092996   -0.022961     0.13587     0.07708      0.1349      0.7582     0.16315
0.10794   -0.022636     0.15081    0.065387    0.048172     0.53603     0.20895
0.11866   -0.025234     0.16608    0.054019   -0.038876     0.15276     0.19823
0.1219   -0.031406     0.18134    0.049147    -0.12755    -0.19283      0.1625
0.11703   -0.040825     0.18849    0.052395    -0.22012    -0.36173     0.13425
0.10631    -0.04927     0.18687    0.056942    -0.31269      -0.339     0.12515
0.093645   -0.050894      0.1768    0.060515    -0.38155    -0.21492      0.1323
0.075781    -0.04927     0.16478    0.059216    -0.38707    -0.10903     0.14009
0.053044   -0.046347     0.15471    0.051096    -0.31399    -0.11391     0.13425
0.023162   -0.037252     0.15049    0.039402    -0.18796    -0.24188     0.11573
-0.0063954   -0.016464     0.14886    0.032906   -0.067459    -0.39876    0.096569
-0.025559   0.0091954     0.14561    0.031282   -0.014191    -0.46892    0.087474
-0.030756    0.030633     0.13457    0.027385   -0.055766    -0.40071    0.098842
-0.022961      0.0433     0.11346    0.016016    -0.17042    -0.23636     0.13327
-0.010618    0.041351    0.089423  -0.0015233    -0.30652   -0.082076     0.18297
0.0017248    0.028359    0.071558   -0.021337     -0.4189   -0.039526     0.22779
0.0088706    0.013418    0.063763   -0.039201    -0.48646     -0.1636     0.25118
0.011469   0.0010752    0.063438   -0.053817    -0.50952    -0.43287      0.2463
0.0078962  -0.0047713    0.064737   -0.062587    -0.49556    -0.76644     0.21252
-0.00087364  -0.0050961    0.062464   -0.063561    -0.45463     -1.0861      0.1638
-0.0067202   0.0023744    0.055643    -0.05739    -0.39454     -1.3352     0.11898
-0.0050961    0.017316    0.047198   -0.046347    -0.31236     -1.4284    0.095594
0.0026992    0.037129    0.044599   -0.028807    -0.19381      -1.176    0.094945
0.013093    0.059865    0.054668  -0.0050961   -0.025234    -0.37473     0.10924
0.021538    0.082602    0.074482    0.021538     0.17777     0.86376     0.12905
0.025436     0.10014    0.093321    0.045899     0.37298      2.0785     0.13587
0.021213     0.10891    0.096569    0.063113     0.51752      2.8123     0.11118
0.011144     0.10794    0.082602    0.061489     0.58248      2.8276    0.051096
-0.0044465     0.10436    0.059216    0.040702     0.57046      2.2052   -0.027833
-0.025884    0.098517     0.03518    0.011469     0.51882       1.339   -0.099615
-0.04927    0.092671    0.018615   -0.013216     0.48959     0.76567    -0.13664
-0.06551    0.084551    0.014068   -0.021012     0.53408     0.87513    -0.12203
-0.069733    0.074157    0.019914   -0.010943     0.65264      1.6388   -0.062587
-0.058689    0.063763    0.031282    0.012119     0.79361      2.6989    0.024461
-0.033679    0.058566    0.040702    0.036804     0.89365      3.7013     0.11703
-0.0041217    0.060515     0.04395    0.062789     0.91281      4.4737     0.19044
0.024137    0.067986    0.038103    0.089748     0.85337      4.9304     0.22779
0.046223    0.078055    0.027385     0.11541     0.74911      4.9586     0.22454
0.059541    0.084551    0.017316     0.13555     0.64062      4.4487     0.18654
0.066362    0.087474    0.013093     0.15406        0.55      3.4073      0.1349
0.076431    0.089098    0.017316     0.17095     0.47952      1.9996    0.098193
0.089748    0.097218    0.028359     0.17907     0.40871     0.49316    0.087474
0.10242     0.10761    0.036479     0.17712     0.31549    -0.79665     0.09397
0.10729     0.11443    0.040702     0.16413     0.18979      -1.623     0.10534
0.098842     0.11638      0.0433     0.14172    0.053694     -1.9319     0.11378
0.076755     0.11476    0.047198     0.11573   -0.061937     -1.8081     0.12255
0.048497     0.11216    0.048172    0.093645    -0.13957       -1.43     0.13165
0.021538     0.10891    0.042651    0.074482    -0.18569    -0.98017     0.13847
-0.0031473     0.10144    0.028359    0.054993    -0.22012    -0.58455     0.14367
-0.027183    0.086824   0.0046481    0.031932    -0.24708    -0.29547     0.14626
-0.045372    0.065387   -0.025884    0.012119     -0.2487   -0.099615     0.15244
-0.053168    0.041351   -0.055441   0.0039985      -0.212    0.067986      0.1768
-0.047971    0.020888   -0.077528    0.013093    -0.13664     0.26774     0.22162
-0.030756   0.0078962   -0.088572     0.03518   -0.034978      0.4675     0.27034
-0.0083442   0.0059473   -0.089871    0.061814    0.083251     0.56332      0.2973
0.013418    0.013418    -0.08305    0.089423     0.20863     0.44151     0.28236
0.029983    0.024137   -0.070382     0.11118     0.32101    0.044924     0.22487
0.037778    0.037778   -0.054142     0.12613     0.39604    -0.57676     0.14529
0.047198    0.059216   -0.035628     0.13522     0.40903     -1.2692    0.066686
0.062464      0.0852   -0.013541     0.13814     0.35641     -1.8705   0.0088706
0.084551     0.10859   0.0091954     0.13684      0.2476     -2.2882   -0.021337
0.10989      0.1258    0.026085     0.13165     0.10696     -2.5074   -0.033354
0.1284     0.13327    0.032582     0.11995   -0.037252     -2.5464   -0.044723
0.13002     0.12807     0.02706     0.10274    -0.16165     -2.4252   -0.069733
0.11021     0.10989   0.0095202    0.083251    -0.24935     -2.1774    -0.11488
0.075131    0.084876   -0.012567    0.061489    -0.29872     -1.8516     -0.1753
0.038428     0.06019   -0.031081    0.039402    -0.32211     -1.5158    -0.23603
0.01017    0.041676   -0.043099    0.020888    -0.33607     -1.2507    -0.27664
-0.0028225    0.034206    -0.04992   0.0091954    -0.36303     -1.1091    -0.28216
-0.0028225    0.036804   -0.054792   0.0026992    -0.40981     -1.0451    -0.25585
0.0072465     0.04395   -0.059014  -0.0015233    -0.47022    -0.90936    -0.22142
0.01894    0.045574   -0.062262   -0.008669    -0.53388     -0.5839     -0.2042
0.024137    0.037778   -0.062587   -0.019388    -0.59527    -0.10806    -0.21655
0.019589    0.023487   -0.057715   -0.034329    -0.63945     0.34862    -0.24188
0.01017    0.010495   -0.050894    -0.04992    -0.65471      0.6273    -0.25975
0.0052977  -0.0018481   -0.046671   -0.064536    -0.63457     0.68122    -0.25715
0.0046481   -0.013866   -0.045697   -0.072981     -0.5839     0.56721    -0.23214
0.0052977    -0.02426   -0.046996   -0.072331    -0.50627     0.41033    -0.18666
0.0039985   -0.029132   -0.050244   -0.063886    -0.39259      0.3379    -0.12722
0.0033489   -0.027183    -0.04927   -0.046996    -0.23733     0.40351    -0.05739
0.0023744   -0.017439   -0.046022   -0.024585   -0.044723     0.56624    0.016991
-0.0028225  -0.0063954   -0.039851   0.0033489     0.16088     0.75755    0.084226
-0.011917   0.0010752   -0.030106    0.031282     0.35122     0.93132     0.13197
-0.019712    0.003024   -0.015165    0.050446     0.49706     0.96575     0.16023
-0.023285  -0.0037969      0.0014    0.056942     0.56981     0.63607     0.17355
-0.024909   -0.017764    0.015692    0.053694     0.54935    -0.18504     0.16413
-0.021337   -0.034978    0.021213    0.045249     0.44898      -1.342     0.12905
-0.0057458   -0.044398    0.020564    0.032582     0.31322     -2.4636    0.075781
0.01894   -0.042449     0.01829    0.019589     0.19304     -3.2103    0.013418
0.042326   -0.030756    0.017316     0.01017     0.11768      -3.423    -0.04862
0.054344    -0.01484    0.015692   0.0049729    0.079354     -3.1551    -0.10871
0.053694  0.00010078   0.0095202  0.00010078    0.048822     -2.5828    -0.17562
0.042326    0.012768  -0.0011985   -0.008669   0.0043233     -1.8945    -0.24188
0.024461    0.018615   -0.012892   -0.019712   -0.042774     -1.1725    -0.29482
0.013418    0.016341   -0.017114   -0.028157   -0.062587    -0.38772    -0.31691
0.021213    0.010819  -0.0093186   -0.026858    -0.02361     0.50225    -0.29028
0.047847    0.012119    0.015367  -0.0067202    0.082927      1.4588    -0.20745
0.084876    0.026085     0.05207    0.036154     0.22877      2.3796   -0.080776
0.12288    0.050121    0.091696    0.090722     0.36226      3.1407    0.066362
0.14789    0.070259     0.11931     0.13944     0.43274      3.6412     0.22129
0.15601    0.077405      0.1271      0.1651     0.42787        3.84      0.3863
0.15146     0.06961     0.11736      0.1664      0.3811      3.7559     0.56494
0.14107    0.054344    0.097543     0.15568      0.3379      3.4577     0.74034
0.13132    0.036154    0.075131     0.14464     0.33011      3.0345     0.87838
0.12548     0.01894    0.059541     0.13912     0.35349      2.5593     0.94594
0.12158   0.0039985    0.051096     0.14139     0.38305      2.0821     0.93132
0.10599   -0.013541    0.044924     0.14367     0.40286      1.6245     0.84655
0.072858   -0.036278    0.038428     0.13717     0.41033      1.1717     0.70916
0.022188   -0.059989    0.026085     0.11703     0.40643     0.69779     0.53408
-0.036602   -0.076229   0.0069217    0.082927     0.38825     0.21512     0.34537
-0.089546   -0.079152   -0.020362    0.042651     0.33563    -0.22597     0.17582
-0.12527   -0.076229   -0.050569  0.00042559     0.22357    -0.56376    0.051096
-0.14379   -0.079152   -0.079802   -0.045047    0.047523    -0.78074   -0.025559
-0.15418   -0.093444    -0.10644   -0.085648    -0.14639    -0.92625   -0.067459
-0.1597    -0.11261    -0.12722    -0.11586    -0.27436     -1.0549    -0.09182
-0.1623    -0.12203    -0.13924    -0.13275    -0.26462     -1.1835    -0.10838
-0.16523    -0.11683    -0.13989    -0.13437    -0.10189     -1.3124    -0.12625
-0.16555   -0.095717     -0.1308    -0.12625     0.14724      -1.444    -0.15061
-0.15548   -0.064861    -0.11748    -0.11358     0.36778     -1.5723    -0.19024
-0.13469   -0.033679    -0.10091   -0.099615     0.45905     -1.7006    -0.25487
-0.10806  -0.0096434   -0.080451   -0.085973     0.38857     -1.8139    -0.33185
-0.077203   0.0056225   -0.059989   -0.063561      0.2174     -1.8178    -0.39064
-0.043423    0.017965   -0.039851   -0.024585    0.054993     -1.5807    -0.39909
-0.0080194    0.032257    -0.01614    0.033231   -0.013866     -1.0516    -0.35264
0.024461    0.054344    0.012119    0.098517     0.01017    -0.26689    -0.27371
0.049147    0.075781    0.038753     0.15568    0.045574     0.72864    -0.18471
0.067336    0.088773    0.054668     0.19304   0.0017248      1.8612   -0.093119
0.08585    0.091372    0.054019     0.20376    -0.13599      3.0198   0.0072465
0.10826    0.083251    0.038428     0.19239    -0.30327      3.9965     0.11931
0.1349    0.072533    0.016016       0.169    -0.41825      4.5234     0.23656
0.16283    0.064737  -0.0057458     0.14529    -0.43806      4.3879     0.34602
0.18362    0.059541   -0.026858     0.12158    -0.36466      3.5639     0.43989
0.18979     0.05207   -0.046347    0.097218    -0.24156      2.2734     0.51752
0.18459    0.042001   -0.067784    0.072208    -0.11943     0.85792     0.57436
0.1742    0.032582   -0.088247    0.045899   -0.027833     -0.3809     0.60035
0.15991    0.025761    -0.10286    0.019914    0.025436     -1.2364     0.58378
0.14042    0.022837    -0.10774  -0.0044465    0.048497     -1.6483     0.51979
0.11638    0.017316    -0.10514   -0.027833    0.049472     -1.6717     0.41618
0.092021   0.0059473    -0.09929   -0.049595    0.029009      -1.469     0.28658
0.071234  -0.0067202   -0.094093   -0.070382    -0.01549     -1.2332     0.15179
0.053044    -0.01484   -0.084349   -0.088247    -0.08305     -1.0812    0.029009
0.037454   -0.019712   -0.069408    -0.10124    -0.15743     -1.0214   -0.069408
0.023812   -0.024909   -0.051219    -0.10611    -0.21817    -0.99413    -0.14022
0.011469   -0.031081   -0.032705    -0.10611    -0.26104    -0.93242    -0.19478
-0.0018481   -0.038227   -0.013216    -0.10319    -0.28638    -0.80705    -0.25065
-0.015165   -0.039526   0.0091954   -0.097666     -0.2984    -0.63425    -0.31399
-0.029782    -0.03173    0.030957   -0.092469    -0.30165    -0.45918    -0.37927
-0.040175    -0.01614    0.044275   -0.086623    -0.29937     -0.3429    -0.43969
-0.047321   0.0023744    0.047847   -0.083375    -0.30165    -0.34062    -0.49458
-0.055766    0.016341     0.04395   -0.084349    -0.31236     -0.4686    -0.54525
-0.06551    0.023487    0.041351   -0.087597    -0.32925    -0.67842    -0.58715
-0.068434    0.023162    0.044924   -0.087597    -0.34517    -0.89799    -0.60826
-0.058689     0.01829    0.056617   -0.077203    -0.34972      -1.076    -0.59819
-0.037902    0.011469    0.068635   -0.056416    -0.33348     -1.1965    -0.55142
-0.013216   0.0059473    0.073507   -0.033679    -0.30067      -1.277    -0.47639
0.0062721     0.01017    0.071883    -0.01549    -0.26851     -1.3508    -0.38934
0.012119    0.025761    0.066362   -0.007045    -0.25065     -1.4401    -0.30847
0.0056225    0.047198    0.059216  -0.0096434     -0.2526     -1.5447    -0.24545
-0.0096434    0.067011    0.053369   -0.022636    -0.27079     -1.6548     -0.2068
-0.025884    0.078379    0.050446     -0.0405     -0.2984      -1.761    -0.19576
-0.040175    0.073832    0.051096   -0.062262    -0.32568      -1.861    -0.20583
-0.053492    0.057267    0.056292   -0.084349    -0.34842     -1.9273    -0.22304
-0.065186    0.039402    0.067661    -0.10254    -0.36303     -1.8974    -0.23116
-0.073631    0.025111    0.081627    -0.11326    -0.36856     -1.7412    -0.21785
-0.076879    0.016341    0.090072    -0.11553    -0.36109     -1.5021    -0.18699
-0.07493    0.013418    0.090397    -0.10709    -0.34225     -1.2829    -0.15256
-0.070058    0.014068      0.0852    -0.09182    -0.32113     -1.1627     -0.1282
-0.067784    0.012768    0.080003   -0.078503    -0.30879     -1.1231     -0.1243
-0.071032   0.0095202    0.077405   -0.072331    -0.30652     -1.0623    -0.13892
-0.077528   0.0052977    0.074482   -0.069733    -0.30977    -0.86194    -0.16782
-0.086623      0.0014    0.069285   -0.070382    -0.31431    -0.46372     -0.2042
-0.096042   0.0020496    0.064088   -0.069083    -0.32276    0.088773    -0.23733
-0.10124   0.0095202    0.065387   -0.059014    -0.32568     0.67505       -0.25
-0.09182    0.024786    0.082602   -0.032055    -0.29125      1.1759    -0.22597
-0.059989    0.044924     0.11346    0.018615    -0.17887      1.5387    -0.16003
-0.013541     0.06896     0.14984    0.091696    0.037129      1.7687   -0.063561
0.034855    0.095594     0.18199       0.169     0.33043      1.9009    0.041676
0.076755     0.11898     0.20018     0.22941      0.6273      1.9561     0.13262
0.10404     0.13327     0.20116     0.26384      0.8433      1.9256     0.19011
0.11671     0.13977     0.18622     0.27196     0.92613        1.77     0.20798
0.11671     0.14464     0.16218     0.26287     0.87773      1.4299     0.19531
0.11248     0.15471     0.13879     0.24501     0.75495     0.84395     0.17745
0.10989     0.17225     0.12288     0.22779     0.62406   0.0017248      0.1768
0.11573     0.19466     0.11638     0.21805     0.52661    -0.98407     0.20408
0.1284      0.2174     0.12028     0.22032     0.46685     -1.9068     0.25507
0.14561     0.23136     0.12515     0.23234      0.4282      -2.574     0.31257
0.15828     0.23071      0.1258     0.24663     0.39961     -2.8897     0.35284
0.15991     0.21545     0.12093     0.25053     0.39734     -2.8718     0.35869
0.15081     0.19174     0.11118     0.23721     0.45158     -2.6084     0.32556
0.13522     0.16478     0.09462     0.20928     0.56981     -2.2144     0.26482
0.11833     0.13684    0.073182     0.17517      0.7111     -1.7776     0.19661
0.10209     0.11151    0.049147     0.13977      0.8014     -1.3362     0.13977
0.081952    0.091047    0.028684     0.10826     0.78159    -0.86324     0.10566
0.06019    0.076106    0.016991    0.086175     0.65978    -0.26169     0.10177
0.045249     0.06961     0.01829    0.074806      0.5081     0.57209     0.12418
0.042651    0.070584    0.030633    0.078379     0.40968      1.6056     0.16153
0.053044    0.076431     0.04395    0.095269     0.39994       2.621     0.20018
0.070909    0.080978    0.050446     0.11086     0.44963      3.3141     0.22422
0.086175     0.07708    0.044924     0.11541     0.49836      3.4898     0.22324
0.089748    0.062139    0.027709     0.10079     0.49218      3.1621     0.19369
0.080328    0.039078   0.0033489    0.071234     0.41228      2.5414     0.14432
0.061814    0.014717   -0.022311    0.039402     0.28008      1.9083    0.088448
0.034206  -0.0083442   -0.046347    0.016666     0.13165      1.4653    0.042326
0.0033489   -0.031406   -0.067134   0.0085458   -0.013541      1.2844    0.015367
-0.023285   -0.047321   -0.081101    0.011469     -0.1649       1.323    0.014717
-0.043748   -0.052843    -0.08305    0.016341    -0.34062      1.4601    0.033231
-0.056741   -0.048945   -0.072981     0.01829    -0.53096      1.5725    0.061489
-0.061288   -0.044073   -0.058365    0.014068    -0.70376      1.5793     0.08585
-0.063237   -0.044723   -0.047646   0.0059473    -0.82686       1.491    0.095269
-0.065835   -0.048945   -0.044073  -0.0073698    -0.88695       1.376    0.082927
-0.070058   -0.057065   -0.046022   -0.025559    -0.88662      1.2831    0.048497
-0.072006    -0.06616   -0.048945   -0.047971    -0.83336      1.2084   0.0049729
-0.071357   -0.076554   -0.052193   -0.072981    -0.73104      1.1116   -0.034978
-0.071682   -0.087597   -0.055441   -0.099615    -0.60437     0.94854   -0.058689
-0.076229    -0.10026   -0.061288    -0.11813    -0.49263     0.71078   -0.072006
-0.085973    -0.10936    -0.06551    -0.12333    -0.42865      0.4178   -0.082725
-0.097017    -0.10903   -0.064536    -0.11488    -0.42377    0.089748   -0.092145
-0.10871    -0.10319   -0.056091    -0.09929    -0.45138    -0.28346   -0.096042
-0.11618   -0.096367   -0.042124   -0.083375    -0.46048    -0.65763   -0.088247
-0.11845   -0.087922   -0.025234   -0.064536    -0.38967    -0.89572   -0.060963
-0.11488   -0.077203  -0.0093186   -0.045372    -0.21005    -0.90189   -0.015165
-0.10156   -0.066485   0.0039985   -0.032055    0.052395    -0.76677    0.036154
-0.081426   -0.056416    0.013743   -0.029457     0.31581    -0.68135    0.073832
-0.064861   -0.052193    0.016341   -0.042124     0.48731    -0.75118    0.081303
-0.059339   -0.052843   0.0088706    -0.06681     0.52499    -0.88208     0.06019
-0.061288   -0.054792  -0.0034721   -0.092794     0.45288    -0.76969    0.034206
-0.065835   -0.051868   -0.016464    -0.11163     0.32426    -0.10449    0.023162
-0.064536   -0.044398    -0.02361    -0.11521     0.17777      1.0599    0.029658
-0.055441   -0.037902    -0.02361    -0.11001    0.025761      2.2715    0.029658
-0.047646   -0.039851   -0.022636    -0.10741     -0.1295      3.0439  -0.0031473
-0.04927   -0.051544   -0.025559    -0.11163    -0.27891      3.1423   -0.077853
-0.061613   -0.068758   -0.031406    -0.11683    -0.39714      2.6622     -0.1701
-0.075904   -0.080127   -0.036927    -0.10968    -0.46178      1.9223    -0.24253
-0.080127   -0.071357    -0.03303   -0.076229    -0.46275      1.2386    -0.25975
-0.065186   -0.036602   -0.008669  -0.0080194    -0.39357     0.80887    -0.20453
-0.022311    0.016991    0.036154    0.096244    -0.25682     0.68967     -0.0837
0.050771    0.083251     0.09462     0.22227   -0.075255     0.76762    0.068635
0.14139     0.14984     0.15114      0.3392     0.11346     0.80335      0.2083
0.22779     0.20213     0.19401      0.4243     0.27554     0.57111      0.3012
0.28821     0.23169      0.2174     0.46165     0.40189  -0.0096434      0.3314
0.31322     0.24078     0.21967     0.45093     0.51492    -0.82491     0.31354
0.30152     0.23169     0.20505     0.41033     0.64972     -1.6168     0.27586
0.26222       0.207     0.18329     0.35641     0.80887     -2.1303      0.2489
0.21188      0.1716     0.15828      0.3038     0.95926     -2.2297      0.2489
0.16153      0.1284      0.1323     0.25735      1.0476     -1.9422     0.26774
0.11801    0.084876     0.10826     0.22097      1.0427     -1.4183     0.28236
0.07773    0.042975    0.090072     0.19076     0.95991     -0.8405     0.27684
0.036804   0.0059473    0.075781     0.15861      0.8368     -0.3848      0.2489
-0.011267   -0.028157    0.060515     0.11995     0.70493    -0.16977     0.20863
-0.064861   -0.059989    0.042326    0.072858     0.57793    -0.19543     0.16088
-0.1178   -0.087272    0.020564    0.018615     0.45093    -0.35167     0.10631
-0.15743    -0.11261  -0.0021729   -0.038876     0.31127    -0.51147    0.039402
-0.17984    -0.13859   -0.026533   -0.096042     0.15309    -0.60859   -0.038876
-0.18634    -0.16003    -0.04862    -0.15061   -0.016464    -0.66186    -0.12592
-0.18212    -0.17302    -0.06551    -0.19836    -0.17822    -0.71188    -0.21265
-0.17432    -0.17367   -0.074605    -0.23311    -0.31594    -0.77034    -0.28865
-0.16458     -0.1623   -0.073631    -0.25195    -0.41988    -0.80997     -0.3416
-0.15256    -0.14411   -0.065186     -0.2526    -0.49263    -0.80055    -0.36401
-0.14411    -0.12495   -0.058689    -0.23993     -0.5485    -0.76385    -0.36498
-0.13957    -0.10514   -0.057715    -0.22077    -0.60047    -0.76222    -0.35979
-0.13275   -0.086298   -0.059664     -0.2042    -0.64074    -0.81127    -0.35751
-0.11878   -0.072331   -0.065835    -0.19089    -0.65016    -0.89799    -0.35491
-0.093119   -0.064536   -0.069083    -0.17594    -0.60664     -1.0152    -0.33705
-0.055766   -0.058365   -0.069733    -0.15191    -0.51017     -1.1335    -0.28476
-0.010943    -0.04992   -0.063561    -0.11423     -0.3835     -1.1673    -0.18731
0.041027   -0.038227   -0.043423   -0.063237    -0.25033     -1.0006   -0.051544
0.096244   -0.020362   -0.008669  -0.0073698    -0.12625    -0.57773     0.10599
0.14951      0.0014    0.033556    0.038753   -0.034654    0.035505     0.26319
0.18816    0.020239    0.071234    0.066037   -0.022961     0.64484     0.39734
0.20635    0.029658    0.093645     0.06831    -0.12722       1.046     0.48926
0.20473    0.026735    0.097868    0.047847    -0.33737      1.1236     0.53506
0.18881    0.015042    0.091372     0.01017    -0.59137     0.89624     0.54123
0.16608   0.0036737      0.0865   -0.028807     -0.8064     0.47172     0.52661
0.14496 -0.00022403    0.093645   -0.051219    -0.92365   -0.073306     0.50355
0.13165   0.0069217     0.10761   -0.046347    -0.91586    -0.69271     0.47205
0.1245     0.02641     0.11963   -0.017114      -0.796      -1.318     0.42365
0.12385    0.051096     0.11931    0.017316    -0.60437      -1.799     0.35609
0.12775    0.067011     0.10534    0.039078    -0.39064     -1.9478     0.28106
0.12807    0.064088    0.085525    0.042326    -0.18374     -1.6808     0.21772
0.12385    0.044924     0.06961    0.032582    0.020888     -1.1374     0.18134
0.11801    0.020239    0.061489    0.019264     0.24923    -0.57318     0.17582
0.10989  0.00042559    0.059541   0.0062721     0.50842    -0.15158     0.19304
0.099167  -0.0076946    0.060515  -0.0060706       0.766     0.12937     0.21902
0.085525  -0.0063954    0.057917   -0.014516     0.96835     0.40579     0.23851
0.071234  0.00042559    0.047198   -0.020687      1.0635      0.8027     0.23591
0.06084   0.0095202    0.025436   -0.030431      1.0262      1.2977     0.19986
0.054344    0.016016  -0.0073698   -0.044073     0.87643      1.7693     0.12288
0.049472    0.016991   -0.046022   -0.060963     0.66791      2.1152     0.01894
0.050121    0.016016   -0.082725   -0.076229     0.46035      2.2854   -0.075255
0.057917    0.019589    -0.10709   -0.086298     0.29438      2.3004    -0.12463
0.065712    0.031282    -0.11586   -0.088572     0.18167      2.2211    -0.12268
0.070584    0.047523    -0.11163   -0.086298     0.10242       2.111   -0.086623
0.070259    0.065062   -0.098316     -0.0824    0.024137      1.9639   -0.043423
0.069934    0.083576    -0.08305   -0.076229   -0.073306      1.7027    -0.01484
0.072858    0.098842   -0.074605   -0.065186    -0.18861      1.2496   -0.018088
0.076106     0.11281   -0.076879   -0.050894    -0.31106     0.61399   -0.054467
0.073182     0.12548   -0.085973    -0.04115    -0.42345   -0.083375    -0.11683
0.056292     0.13879   -0.094093   -0.043748    -0.52057    -0.68817    -0.19024
0.029333     0.14951   -0.098965   -0.061288    -0.60664     -1.1517    -0.26299
-0.0034721     0.15211    -0.10676    -0.09182    -0.69596     -1.5453    -0.33218
-0.04115     0.14009    -0.12235    -0.12787    -0.79081     -1.9367    -0.40266
-0.082725     0.11313    -0.13827    -0.15938    -0.87103     -2.2726    -0.47217
-0.12268    0.080653    -0.14704    -0.18049    -0.90351     -2.4103    -0.52836
-0.15483    0.049472    -0.14671    -0.18504    -0.86486     -2.2391    -0.54882
-0.17172    0.021213    -0.13827    -0.16912    -0.75443     -1.7272    -0.51732
-0.16945 -0.00022403     -0.1282     -0.1321    -0.59625    -0.91163    -0.43254
-0.15321   -0.013216    -0.12235     -0.0837    -0.42312    0.022512    -0.31074
-0.1256   -0.021337    -0.12463   -0.038876    -0.26494     0.75235    -0.18277
-0.087922   -0.026858    -0.12917  -0.0060706    -0.13242      1.0232   -0.070707
-0.042774   -0.025559    -0.12982    0.018615   -0.018088     0.76989    0.020239
0.0062721   -0.015815    -0.11683    0.041027    0.089423     0.13197    0.092346
0.052395   0.0046481   -0.089871    0.067986     0.19823    -0.61346     0.14724
0.089423    0.033231   -0.058365    0.097868     0.31029     -1.1874     0.18719
0.11541    0.067011    -0.03173     0.13165     0.41358     -1.4645     0.20798
0.12775    0.099167    -0.01484     0.16868     0.48991     -1.5077     0.20018
0.12548     0.11866  -0.0057458     0.20311     0.51232     -1.4485     0.16478
0.11151     0.11833  -0.0031473     0.22682     0.47237     -1.3404     0.12028
0.0852     0.10112 -0.00087364     0.23754     0.38727     -1.1549    0.089098
0.05142    0.079354   0.0056225     0.24046     0.29113    -0.86421     0.07708
0.019264    0.065712    0.017965     0.23786     0.21415    -0.48484    0.072858
-0.0018481    0.064737    0.030957     0.22974     0.17615   -0.063237    0.062464
-0.011267    0.072533    0.042326     0.22129     0.18329     0.35122    0.040702
-0.0047713    0.085525    0.050446     0.21545     0.22487     0.72052    0.017316
0.010495    0.096569    0.057592     0.21188     0.28301      1.0184   0.0062721
0.029333     0.10469    0.058566     0.20798     0.33725      1.2555    0.016341
0.042326     0.11054     0.05272     0.20213     0.37753      1.4796    0.048172
0.046223     0.10956    0.042326     0.19499     0.39929       1.757    0.087474
0.044599     0.10177    0.029658     0.18687     0.40091      2.1088     0.11703
0.036154    0.089098    0.016991      0.1768     0.38305      2.4745     0.12385
0.022837    0.073182   0.0049729     0.15991     0.34602      2.7486     0.10534
0.0059473    0.054993  -0.0024977      0.1362     0.29275      2.8175    0.067011
-0.010943    0.034206  -0.0083442     0.10989     0.21447      2.6132    0.015692
-0.028807   0.0088706   -0.016789    0.081952     0.10306      2.1549   -0.048945
-0.047971   -0.025559   -0.034329    0.049147   -0.045047      1.5332     -0.1204
-0.071032   -0.067134   -0.058689   0.0059473    -0.23019     0.83031    -0.19089
-0.096692    -0.10838   -0.082725   -0.047971    -0.43936     0.12678    -0.25033
-0.12625    -0.13827    -0.10059    -0.10156    -0.64269    -0.48419    -0.29223
-0.15223    -0.15451    -0.10546    -0.14022    -0.79763    -0.90351    -0.31431
-0.16458    -0.15451   -0.098965    -0.15256    -0.86649     -1.0773    -0.31594
-0.15483    -0.14281   -0.084999    -0.14346    -0.83855     -1.0383    -0.30132
-0.12625     -0.1243   -0.063237    -0.12008    -0.72227    -0.90806    -0.27728
-0.086298    -0.10189   -0.030106     -0.0837    -0.53681    -0.82231    -0.24156
-0.042124   -0.077203    0.013093    -0.03303    -0.29742    -0.83498    -0.18861
-0.00087364   -0.049595    0.056292    0.028359   -0.025559    -0.91943    -0.11813
0.03518    -0.02426    0.090722    0.098517     0.25897     -1.0451   -0.025234
0.067661   0.0039985     0.11183     0.17355     0.53636      -1.177    0.086824
0.10274    0.041027      0.1284     0.25345     0.79328     -1.2371     0.21642
0.14172    0.091047     0.14854     0.33498      1.0223     -1.1539     0.34667
0.18199     0.14626     0.17647     0.41033      1.2045    -0.94866     0.44736
0.21415     0.19369      0.2057     0.45905      1.2925    -0.73007     0.48699
0.22487     0.22454     0.22617     0.46717      1.2454    -0.60826     0.45483
0.207     0.23104     0.22357      0.4295      1.0629    -0.62158     0.35999
0.16315     0.21285     0.19239     0.35349     0.78938    -0.73689     0.23136
0.10177      0.1742     0.14074      0.2593     0.48471    -0.87071     0.10209
0.038428     0.12125    0.083251     0.16283     0.20051    -0.93664  0.00075039
-0.013866    0.069285    0.033556     0.07773   -0.021661    -0.88435   -0.054142
-0.051544    0.027709 -0.00087364    0.012443    -0.16523    -0.74241   -0.055766
-0.075255  0.00042559   -0.017114   -0.027508    -0.23636    -0.62288   -0.012567
-0.082076   -0.011267   -0.015165   -0.038876    -0.26039    -0.65276    0.049796
-0.070382  -0.0099683  -0.0015233   -0.026858    -0.27534    -0.86226     0.10047
-0.040175 -0.00022403    0.013418  -0.0041217    -0.31204     -1.1695     0.11995
0.00042559    0.013418    0.023162    0.014717    -0.38837      -1.431     0.11248
0.036804    0.023487    0.021538    0.021213    -0.49945     -1.5398    0.087799
0.051745    0.025761    0.009845    0.011469    -0.60859      -1.469    0.057917
0.038428    0.017965  -0.0089938   -0.016464    -0.65569     -1.2413    0.021213
0.0020496   0.0017248   -0.029457   -0.060638     -0.5917    -0.85544   -0.028482
-0.044723    -0.01484   -0.046347    -0.11326    -0.43189    -0.32893   -0.094418
-0.089871   -0.027183   -0.056416     -0.1623    -0.25292     0.23754     -0.1675
-0.12527   -0.036278   -0.058689    -0.19706    -0.15288     0.71273    -0.23311
-0.14931   -0.044398   -0.054792    -0.21427    -0.18731      1.0366    -0.27371
-0.161    -0.04992   -0.046671    -0.21687    -0.32698      1.2146    -0.28248
-0.15841   -0.050244   -0.035628    -0.20908    -0.47607      1.2681    -0.26332
-0.14184   -0.042774    -0.01614    -0.19056    -0.53063      1.2133    -0.22304
-0.11261   -0.027833    0.011794    -0.15808     -0.4241       1.072    -0.16555
-0.073306  -0.0063954    0.045899    -0.10774    -0.15256     0.89267   -0.095717
-0.030756    0.021213    0.083576   -0.038876      0.2476     0.78029   -0.026209
0.011144    0.051745     0.11963    0.041676     0.72345     0.82674    0.023162
0.05272    0.080978     0.14821     0.12288      1.2152       1.057    0.046223
0.09397     0.10469     0.16673     0.18687       1.644      1.4189    0.041676
0.13132     0.12158     0.17615     0.22129      1.9116       1.821    0.029009
0.15958     0.13132     0.17582     0.22747      1.9298      2.1584    0.022837
0.1742     0.13425      0.1703     0.21512      1.6683      2.3738     0.03453
0.17647     0.13392      0.1625     0.19563      1.1824      2.4362    0.062789
0.17322     0.13067     0.15828     0.17517     0.59547      2.2913    0.099817
0.1716     0.12158     0.15731     0.15828    0.041676       1.844     0.13912
0.17485     0.10696     0.15503     0.14529    -0.38772      1.0372      0.1703
0.17777    0.088448     0.14594      0.1323     -0.6755   -0.074605     0.18979
0.17517    0.073507     0.12613     0.11443    -0.84927     -1.2761     0.18524
0.1703    0.064737     0.10177    0.090397    -0.95061     -2.2891     0.15698
0.16673    0.059216     0.07708    0.063113     -1.0117     -2.9323     0.11378
0.16185    0.051096    0.054344    0.032906     -1.0419     -3.1541    0.066686
0.15146    0.036479    0.030633 -0.00022403     -1.0393     -3.0161    0.023487
0.13425    0.017316   0.0072465   -0.038551     -1.0049     -2.6685   -0.018413
0.11573  -0.0041217   -0.013216   -0.080127    -0.94509     -2.2671   -0.058365
0.096569   -0.022636   -0.029132    -0.12105    -0.87168     -1.8679   -0.092794
0.07708   -0.035628   -0.042774    -0.15678    -0.78951      -1.455    -0.11261
0.057917   -0.044398   -0.056416    -0.18634    -0.69434     -1.0571    -0.11358
0.039727   -0.053168   -0.069083    -0.21005    -0.57578    -0.78951   -0.099615
0.025436    -0.06616   -0.080127    -0.21914    -0.43449     -0.7658   -0.081751
0.015042   -0.079152   -0.085648    -0.21297      -0.288    -0.94184   -0.070707
0.011144   -0.084024   -0.082725    -0.19478     -0.1675     -1.0308   -0.062262
0.010495   -0.077203    -0.07428     -0.1753   -0.099615    -0.77034   -0.046996
0.0043233   -0.063561   -0.067134    -0.16198   -0.089546    -0.20778   -0.022961
-0.008669    -0.04862   -0.067459    -0.15808    -0.12657     0.38142 -0.00054884
-0.023285   -0.039201   -0.073955    -0.16555    -0.17887     0.73189    0.013418
-0.031081   -0.037252   -0.087272    -0.17984    -0.20355     0.80205    0.021213
-0.025559   -0.037577   -0.097017    -0.18504    -0.16555     0.81472    0.032257
-0.0080194    -0.03238   -0.094743    -0.17367   -0.061613      1.0814    0.048172
0.014392   -0.017114    -0.07493    -0.14476    0.079029      1.7183    0.067986
0.037129   0.0026992   -0.042774    -0.10871     0.21058      2.5567     0.08585
0.054019    0.023162  -0.0076946   -0.070382     0.31029      3.2979    0.097868
0.063763    0.044599    0.023812   -0.029457     0.39052      3.7058     0.10794
0.067661    0.063113     0.05207    0.010495     0.48764      3.7006      0.1232
0.059541    0.075131    0.074157    0.042326     0.62146      3.3167     0.13555
0.038428    0.078055    0.084876    0.057267      0.7569      2.6694     0.12613
0.0056225    0.071558    0.082602    0.054344     0.83356      1.9694    0.078055
-0.028807    0.063438    0.072208    0.045574     0.81342      1.4767  0.00042559
-0.062912    0.055318     0.06084    0.045249      0.7137      1.3926   -0.071032
-0.087922    0.043625     0.05207    0.062789     0.58833      1.7619   -0.097666
-0.096367    0.028359    0.052395     0.09462     0.49641      2.4485   -0.061613
-0.084999    0.014392    0.063763      0.1284     0.46425      3.1556    0.025111
-0.066485   0.0059473    0.079679     0.14854     0.48439      3.5451     0.13717
-0.052843 -0.00054884    0.092996     0.15179     0.52174      3.3638     0.24468
-0.048296  -0.0080194     0.10014     0.14334     0.54838      2.5508     0.33498
-0.045697    -0.01484     0.10501     0.12872     0.55325      1.2685     0.40351
-0.034329   -0.022636     0.10729     0.11216     0.53506    -0.17562     0.45646
-0.017439    -0.02426     0.10534    0.095919     0.49348      -1.444     0.49024
-0.0067202   -0.018738    0.098193    0.078055     0.42917     -2.3369     0.49186
-0.0080194   -0.010293    0.087149    0.055968     0.34212     -2.7916      0.4571
-0.022636  -0.0037969    0.074482    0.030633     0.23461     -2.8105     0.39149
-0.046996  -0.0047713    0.061165   0.0039985     0.11638     -2.4418     0.30217
