-0.031081    0.049147  -0.0034721  -0.0089938    -0.17562    -0.01549  -0.0073698
-0.017439    0.067661 -0.00054884   -0.010293    -0.15483  -0.0089938   -0.012242
-0.0060706    0.070259   0.0085458  -0.0083442    -0.13794    0.014717   -0.022636
0.00010078    0.045899    0.023162  -0.0028225    -0.12365    0.047847   -0.034978
0.0046481   0.0095202    0.039727    0.010495    -0.10384    0.083251    -0.04992
0.0095202 -0.00054884    0.056292    0.030633   -0.070058     0.11736    -0.06616
0.012443    0.039727     0.06961    0.054019  -0.0093186     0.14886   -0.076229
0.011794     0.11931    0.078055    0.076755    0.087474      0.1742   -0.078503
0.0056225      0.2044    0.080653    0.092996     0.21058     0.19271   -0.078503
-0.0054209     0.26222    0.077405    0.098517     0.34245     0.20408   -0.080776
-0.019388     0.27489    0.071558    0.094945     0.46587     0.20635   -0.085324
-0.036927     0.23656    0.064737    0.086824     0.56786     0.19531   -0.086623
-0.052843     0.14984    0.060515    0.078704     0.63705     0.16738   -0.079802
-0.060638     0.02706    0.061489    0.072208     0.66433     0.12613    -0.06551
-0.058689    -0.11293    0.064088     0.06831     0.64972    0.078379   -0.043748
-0.052193    -0.24773    0.067661    0.067336     0.60652    0.033881   -0.017114
-0.041475    -0.36109    0.073182    0.072208     0.54968 -0.00054884   0.0059473
-0.024909     -0.4543    0.076755    0.079679     0.49088   -0.021012    0.019914
-0.0067202    -0.53486    0.078379    0.084876     0.44184    -0.03173    0.025761
0.008221    -0.60696     0.07708    0.085525     0.40773   -0.036602     0.02706
0.018615    -0.66803     0.07773    0.077405     0.38435   -0.038876    0.027709
0.027709    -0.71415    0.078379    0.059865     0.35901   -0.038227    0.029983
0.039402    -0.73364    0.078704    0.032582     0.31549   -0.038227    0.030957
0.050771    -0.71675    0.070584  0.00075039     0.25053   -0.042449    0.029333
0.060515    -0.66186    0.047847   -0.029132     0.18134   -0.049595    0.027385
0.070259    -0.57513    0.011794    -0.04862      0.1245   -0.055766    0.021213
0.079354     -0.4543   -0.021337   -0.047646    0.080653   -0.063886    0.014068
0.0852    -0.28443   -0.031081   -0.020362    0.041676   -0.075255   0.0069217
0.088773   -0.053168  -0.0057458    0.024786  -0.0034721   -0.089871    0.003024
0.091047     0.23201    0.050771     0.07708   -0.053168    -0.10676   0.0036737
0.092996     0.52694     0.12255     0.12288   -0.098316    -0.12008   0.0069217
0.096893     0.77217     0.19401     0.15471    -0.12365      -0.123    0.009845
0.10274     0.92645     0.25507     0.17095    -0.12105    -0.11001    0.011469
0.10891     0.97355     0.30152     0.17777   -0.092794    -0.08305    0.016341
0.11183     0.92645     0.32946     0.18069   -0.051868   -0.051219    0.028034
0.11021     0.82284     0.33595     0.18589   -0.007045   -0.028807    0.046548
0.10404     0.69909     0.33011     0.19141    0.033556   -0.026533    0.064413
0.092671     0.57209     0.32328     0.19596    0.078704   -0.047321    0.081303
0.080978     0.43242     0.31581     0.18914     0.15114   -0.082076    0.097543
0.075456     0.24598     0.29633     0.16413      0.2619    -0.11586     0.10891
0.079354  -0.0037969      0.2489     0.11768     0.39117    -0.13859     0.11606
0.087799     -0.2932     0.16933    0.057917     0.50258    -0.14249     0.11541
0.098842    -0.56961     0.06961 -0.00022403     0.56072    -0.12625     0.10371
0.10631    -0.78106   -0.029457   -0.043748     0.55617   -0.097991    0.078379
0.11118    -0.90092    -0.10026    -0.06616     0.50095   -0.067784    0.048822
0.11313    -0.92495    -0.12787   -0.065186     0.41618   -0.042774    0.025436
0.11313    -0.86519    -0.11456   -0.041475     0.31224   -0.021337    0.014392
0.10989    -0.74078   -0.076554 -0.00054884     0.16088  -0.0031473    0.016991
0.10274    -0.57351   -0.036927    0.042975   -0.082725    0.011469    0.028359
0.095919    -0.39129   -0.013866    0.071883    -0.41111    0.016666    0.039727
0.089748    -0.22629  -0.0050961    0.080328    -0.73819    0.014392    0.043625
0.083251   -0.095393   0.0036737    0.075456    -0.95288    0.009845    0.039078
0.080328   0.0069217    0.023162     0.06961    -0.99349   0.0056225    0.031932
0.080328     0.10177    0.044924    0.072208    -0.86908   0.0065969    0.029983
0.074806     0.20538    0.062464    0.084226     -0.6388    0.017965    0.036804
0.058566     0.32101    0.073507     0.10144    -0.37862    0.035505    0.046548
0.030957      0.4282    0.083576     0.12125    -0.16263    0.053369    0.054019
-0.0041217     0.48764     0.09397     0.14204   -0.034329    0.062789    0.055643
-0.04115     0.45548    0.088124     0.15503      0.0014    0.060515     0.05272
-0.078827     0.30055    0.050771     0.15666   -0.019063    0.054019    0.047523
-0.11163      0.0433   -0.020362     0.14854   -0.058365    0.057267    0.039727
-0.13177    -0.24708    -0.10936     0.13555   -0.087272    0.078055    0.029009
-0.13632    -0.49491    -0.19478     0.12223   -0.093444     0.11703     0.01894
-0.12625    -0.65081    -0.25552     0.11411   -0.077203     0.16413     0.01017
-0.10059    -0.69726    -0.27566     0.11151     -0.0405     0.20993   0.0039985
-0.063561    -0.63262     -0.2526     0.11411   0.0091954      0.2489 -0.00054884
-0.023935    -0.48191    -0.18277     0.12093    0.062789     0.27586  -0.0037969
0.0091954    -0.27371   -0.061613      0.1297     0.10436     0.28885  -0.0093186
0.030957   -0.027833     0.10371     0.13002     0.12223     0.28626   -0.017439
0.039727     0.22779     0.27976     0.11541     0.10761     0.26839    -0.03238
0.041351      0.4623      0.4204    0.084226    0.067661     0.24208   -0.048945
0.048172     0.64354     0.48569    0.034855    0.022837     0.21415   -0.058365
0.062464     0.75365     0.46685   -0.021986  -0.0096434     0.19596   -0.055116
0.080328     0.79328     0.38825   -0.069733   -0.021012     0.19856   -0.038876
0.09397     0.77769      0.3038   -0.092145   -0.016464     0.23104   -0.017764
0.098193      0.7228      0.2593   -0.089221  -0.0063954      0.2986  -0.0024977
0.096893     0.63802      0.2606   -0.070707  -0.0031473     0.38987  -0.0015233
0.092996     0.53441     0.27391   -0.055441   -0.012892     0.47627   -0.015815
0.088773     0.41845      0.2619   -0.055441   -0.032705     0.53116   -0.038551
0.081627     0.29535     0.20635   -0.075579   -0.060638     0.53961   -0.061937
0.068635      0.1768     0.11476    -0.10903   -0.086298     0.50193   -0.078503
0.050771    0.076106    0.010819    -0.14281    -0.10124     0.42657   -0.086298
0.029983   0.0091954    -0.07428     -0.1662   -0.097666      0.3327   -0.084674
0.0088706   -0.020362    -0.12463    -0.17335   -0.080127     0.23883   -0.078503
-0.010618   -0.019712    -0.13827    -0.15776   -0.055116     0.15828   -0.070058
-0.021661  -0.0028225    -0.12495    -0.12625   -0.027833    0.092346    -0.05804
-0.021661    0.022188    -0.10481   -0.096042      0.0014    0.039727   -0.043423
-0.013541    0.057592   -0.097666   -0.079477    0.029333  -0.0063954   -0.026209
-0.0028225    0.094945    -0.11098   -0.081426    0.050121   -0.048945   -0.010293
0.0091954     0.11898    -0.13697   -0.097991    0.055318   -0.089871 -0.00087364
0.022837     0.11573    -0.16685    -0.12138    0.041027    -0.13372  -0.0018481
0.038428    0.083251    -0.18634    -0.13892    0.014717    -0.17465  -0.0096434
0.051096    0.029009    -0.18731    -0.14152   -0.013866    -0.20648   -0.021012
0.052395   -0.040825    -0.16393    -0.13112   -0.034329    -0.22921    -0.03303
0.036479    -0.11813    -0.12008    -0.11456   -0.042449    -0.24221   -0.041799
-0.00022403    -0.18342   -0.064211    -0.09182   -0.039201    -0.25325   -0.045372
-0.047971    -0.21135 -0.00087364   -0.058689   -0.030756    -0.26819   -0.043748
-0.088572    -0.18666    0.063438  -0.0099683   -0.020687    -0.28865   -0.036278
-0.10644    -0.10254     0.11866    0.045899  -0.0099683    -0.31236   -0.027508
-0.092794    0.041027     0.15536    0.099817    0.003024    -0.33283   -0.019712
-0.053492     0.23331      0.1716     0.14594    0.017316    -0.34647  -0.0073698
-0.0063954     0.45386      0.1638     0.18979    0.032257    -0.35134    0.013093
0.032257      0.6705     0.13197     0.23526    0.042975    -0.34744    0.037778
0.050771      0.8459    0.082602     0.27586    0.050446    -0.33932    0.059216
0.047198     0.94789    0.021538     0.30022    0.055643     -0.3286    0.069934
0.029009     0.96218   -0.040175       0.296    0.064088    -0.31529    0.074806
0.0059473     0.90079   -0.091495     0.26612    0.075781     -0.2958    0.084876
-0.017439     0.79263    -0.11553     0.22389    0.089423    -0.26722     0.10274
-0.03238     0.66791    -0.10644     0.18914     0.10047    -0.22402     0.11866
-0.03303     0.53473   -0.076879     0.17582     0.10501    -0.16425     0.12483
-0.022961     0.38207    -0.04992     0.18264     0.10242   -0.094743     0.11898
-0.014516     0.19661   -0.037577     0.19921    0.092671   -0.016789     0.10729
-0.02361   -0.026858   -0.038876      0.2096    0.080978    0.064413    0.098842
-0.054792    -0.26787   -0.045047      0.2083    0.064737     0.13977    0.096893
-0.10449    -0.48971   -0.046022     0.19466    0.044924     0.20538    0.093645
-0.15905    -0.65374   -0.035628      0.1755    0.022837     0.25605    0.087149
-0.20778    -0.73591   -0.017764     0.15763   0.0023744     0.29568    0.078704
-0.23993    -0.74403   0.0017248     0.14367   -0.013541     0.32848    0.070909
-0.2526    -0.70733    0.012443     0.12905   -0.026533     0.35447    0.067986
-0.2487    -0.66348   0.0059473     0.10826   -0.038551     0.36811    0.068635
-0.23051    -0.62613   -0.018088    0.080653   -0.046347     0.36551    0.070584
-0.20713    -0.58358   -0.050569    0.052395   -0.044723     0.34635    0.070909
-0.18439    -0.51472   -0.080127    0.030308   -0.028807     0.31679    0.065712
-0.1636    -0.41046   -0.091495    0.019914 -0.00022403     0.28171    0.059216
-0.14054    -0.27923   -0.076554    0.019914     0.02706     0.23883    0.057592
-0.11261    -0.14346   -0.044073    0.026735    0.042975     0.18492    0.063438
-0.081751   -0.026209   -0.011917    0.030308    0.045249     0.11963    0.074157
-0.046996    0.051745   0.0069217     0.02706    0.038103    0.036804    0.087799
-0.015815    0.084876    0.011469    0.014068     0.01894   -0.061288    0.098193
0.014392    0.079029   0.0049729  0.00042559  -0.0041217     -0.1636     0.10112
0.046223    0.048172  -0.0076946   -0.011267   -0.021661     -0.2526    0.097868
0.07708   0.0075714   -0.023285   -0.019063   -0.029132    -0.30977    0.089748
0.10079   -0.036602    -0.04115   -0.025234   -0.025559     -0.3299    0.080978
0.11216   -0.084999   -0.065835    -0.03173   -0.017114    -0.31659    0.074482
0.11021    -0.13534   -0.094418     -0.0405   -0.010293    -0.27891    0.070259
0.096893    -0.17497    -0.11651   -0.054467  -0.0044465    -0.22889     0.06961
0.07773    -0.19154     -0.1256   -0.069408 -0.00054884    -0.17724    0.071883
0.063438    -0.18114    -0.12138   -0.077203   0.0059473    -0.12982    0.079354
0.062139    -0.14866    -0.10319   -0.070382    0.017965   -0.088247    0.096244
0.071234    -0.10254   -0.075904   -0.051544    0.035505   -0.051219     0.11606
0.082602   -0.059014   -0.044723   -0.034329    0.054344   -0.018413     0.13327
0.084551   -0.028807   -0.012892   -0.026533    0.074157    0.012768     0.14886
0.077405    -0.01549    0.012119   -0.025884    0.098517    0.044599     0.16185
0.062789   -0.016464    0.031282   -0.027508     0.12775     0.07708     0.16868
0.051096   -0.022311    0.045574   -0.024909     0.15698    0.099817     0.16933
0.048822    -0.02426    0.059865   -0.017764     0.17225     0.10989      0.1638
0.053369   -0.016789    0.070584   -0.012892     0.16348     0.10371     0.15244
0.066362   0.0036737     0.06831   -0.011267      0.1323    0.084226     0.14042
0.084876    0.032582    0.050771    -0.01549    0.088124    0.055968      0.1284
0.10112    0.061814    0.017965   -0.021661    0.041676     0.02641     0.11703
0.11021    0.088448   -0.028157   -0.029457 -0.00022403  -0.0031473     0.10794
0.10956     0.11054   -0.078503   -0.039526   -0.035953   -0.028807     0.10501
0.10371     0.12613    -0.11326   -0.052193   -0.062587    -0.04992     0.10177
0.098842     0.13847    -0.12463   -0.061937   -0.076229   -0.060963    0.093321
0.097543     0.14464    -0.11066   -0.060638   -0.079152   -0.060313    0.076106
0.095269     0.14951   -0.076879   -0.045697   -0.081426   -0.050569    0.053044
0.087799     0.15893    -0.03173   -0.021012   -0.089221   -0.039526    0.030633
0.077405     0.17322    0.012443  -0.0018481   -0.098641   -0.033679    0.013418
0.067336     0.19141    0.046223  -0.0034721    -0.10286   -0.038227  0.00075039
0.057917     0.21025    0.067336   -0.027508    -0.10026   -0.052843  -0.0060706
0.05272     0.22649    0.081303   -0.060638   -0.092145    -0.07493   -0.007045
0.051745     0.23786     0.10891   -0.084024   -0.083375   -0.098965  -0.0057458
0.05207     0.24338     0.15731    -0.08305   -0.079802    -0.12073  -0.0037969
0.050121     0.24143     0.21317   -0.053492   -0.083375     -0.1334 -0.00087364
0.046223     0.22812     0.25605   -0.011267   -0.086623    -0.13534   0.0036737
0.039402     0.20473      0.2606    0.025436   -0.082076    -0.13242     0.01764
0.033231      0.1781        0.22    0.042975    -0.06551    -0.12917    0.037129
0.031932     0.15991     0.14496    0.038753   -0.035628    -0.13469     0.05142
0.03518     0.15601    0.064413    0.020888  -0.0021729    -0.14964     0.05272
0.041676     0.16445   0.0039985   0.0052977    0.024786     -0.1701    0.039078
0.048822     0.17517   -0.025884 -0.00087364    0.037454    -0.19024    0.018615
0.054668     0.17745   -0.027183   0.0036737    0.035505    -0.19933  -0.0024977
0.058241     0.16673  -0.0096434    0.013418    0.021538    -0.19186   -0.014191
0.06084     0.14854    0.016016    0.019264   0.0033489    -0.16912   -0.012567
0.063113     0.12807    0.037129    0.018615  -0.0080194    -0.13762  -0.0024977
0.066686     0.10339    0.048822    0.012119   -0.007045    -0.10968   0.0056225
0.073182    0.072208    0.049796   0.0052977     0.01017   -0.089546   0.0069217
0.07773     0.03518    0.039078  -0.0047713    0.033881   -0.077853   0.0023744
0.07773  -0.0024977    0.020564   -0.021337    0.051745   -0.060963  -0.0063954
0.07773   -0.033354  0.00075039   -0.045372    0.054668   -0.027508   -0.019388
0.0852   -0.055766    -0.01614   -0.069733    0.040377    0.032906   -0.038227
0.098842   -0.069408   -0.027508   -0.091495    0.016666     0.10696   -0.061288
0.10956   -0.067134   -0.030756    -0.10903   -0.011917       0.169   -0.082076
0.11151   -0.052518   -0.027508    -0.11975   -0.043423     0.19596   -0.098316
0.10144   -0.035953   -0.026858    -0.12138   -0.071032      0.1781    -0.11033
0.082277   -0.024909   -0.034329     -0.1178   -0.094418     0.12028      -0.123
0.058566   -0.021337   -0.051868    -0.11131    -0.11326     0.03518    -0.14087
0.040052   -0.024585   -0.072981   -0.099615     -0.1204   -0.055441    -0.15938
0.029009   -0.031406   -0.088896   -0.081426    -0.11456    -0.12722    -0.17107
0.023812   -0.039526   -0.090845   -0.053168   -0.095068     -0.1714    -0.17887
0.022188   -0.047321   -0.077853   -0.010293   -0.067134    -0.18699    -0.18504
0.018615   -0.046347   -0.053492    0.048497   -0.039201    -0.18147    -0.19024
0.0088706   -0.036278   -0.026858     0.11118   -0.019712    -0.16425    -0.19056
-0.0057458   -0.022636  -0.0021729     0.17192   -0.012892    -0.14476    -0.18569
-0.020037   -0.012892    0.019589     0.22552   -0.017764    -0.12268    -0.17822
-0.029457   -0.012892    0.038103     0.26774   -0.030431   -0.097017    -0.16847
-0.034978   -0.019712    0.052395     0.28788   -0.046347   -0.068434    -0.16165
-0.045697   -0.024909    0.060515     0.27684   -0.059664   -0.041799    -0.16003
-0.06616   -0.016789    0.057917     0.23461   -0.071682   -0.019063    -0.16523
-0.087597    0.016341    0.043625      0.1768   -0.087597  0.00075039    -0.16782
-0.10059    0.073507    0.021538     0.11963    -0.10741    0.016991     -0.1623
-0.10059     0.13684  -0.0050961    0.070259    -0.12722    0.027385    -0.15029
-0.084674     0.18492   -0.029457    0.030957    -0.14216    0.028359    -0.13697
-0.060638     0.19726   -0.048296  -0.0024977    -0.14834    0.025111    -0.12527
-0.045697     0.15861   -0.069408   -0.033679    -0.14346    0.024137    -0.11651
-0.04992    0.071234    -0.10676   -0.062912     -0.1243    0.026085    -0.10709
-0.070707   -0.044073    -0.16782   -0.083375   -0.098965    0.025111   -0.094418
-0.098965    -0.15905    -0.24383   -0.092469   -0.070707    0.019914   -0.073955
-0.12787    -0.25942    -0.32146   -0.093119   -0.039201    0.012768   -0.045372
-0.14476    -0.34972     -0.3809   -0.092145  -0.0011985    0.008221   -0.013216
-0.14087    -0.44586    -0.40786   -0.093444    0.038428    0.011794    0.011469
-0.11943    -0.54655    -0.39844   -0.097017     0.06961    0.023812    0.019264
-0.093444    -0.62678    -0.36368    -0.10319    0.084876    0.032906    0.013418
-0.069733    -0.65049    -0.31236    -0.10968    0.088773    0.032582   0.0020496
-0.047971    -0.59462    -0.24708    -0.11586    0.092671    0.024137  -0.0047713
-0.024585    -0.45788      -0.161     -0.1191     0.10209    0.015692  -0.0021729
0.00075039     -0.2578   -0.043748     -0.1191     0.11411   0.0078962    0.010819
0.023812   -0.029457     0.10079    -0.11586      0.1219   0.0036737    0.030633
0.037454     0.18979     0.25345    -0.10579     0.13132   0.0020496    0.050771
0.039727     0.36973     0.38954   -0.086948     0.15081   0.0085458    0.068635
0.035505     0.49218     0.49218   -0.056741     0.18719    0.039078      0.0852
0.034855     0.55747     0.55325   -0.023285     0.23786     0.11054     0.10047
0.046873     0.57501     0.56429   0.0026992     0.28821     0.22487     0.11606
0.071558     0.55357     0.52694    0.014717     0.31809     0.35836      0.1284
0.10112     0.50972     0.44963    0.016991     0.31516     0.46685     0.13749
0.1232     0.45808     0.35576    0.017316     0.27944     0.51525     0.14464
0.13197     0.40124     0.26774     0.01829     0.22324     0.48829     0.15309
0.12743      0.3353     0.20148    0.020239      0.1638     0.40091     0.15958
0.11638     0.24988     0.15568    0.025111     0.11411     0.28788     0.16153
0.10079     0.14756     0.12385     0.03583    0.078379     0.19271     0.16056
0.080003    0.040377    0.096569    0.051745    0.061165     0.15179     0.16315
0.055968   -0.056741    0.072208    0.072858    0.063438     0.17907     0.16608
0.032257    -0.13859    0.050121    0.094295    0.078379     0.25475      0.1677
0.016666    -0.20453    0.029333     0.11508    0.098517     0.33498      0.1638
0.012768    -0.25487    0.016666     0.14074     0.11443     0.37655     0.15471
0.019589    -0.28898    0.020239     0.17062      0.1219     0.35252     0.14594
0.031932    -0.30165    0.038103     0.19856     0.12483     0.26774     0.13977
0.044599    -0.29515    0.053044     0.21447     0.12353     0.15081       0.131
0.054993    -0.28638     0.05142     0.20635     0.10989    0.039078     0.11671
0.06084      -0.301    0.022837       0.169    0.078704   -0.041475    0.096893
0.059216    -0.35296   -0.032055     0.10469    0.037129   -0.084024    0.075131
0.047847    -0.44359    -0.10156    0.015042  0.00042559   -0.096042    0.055318
0.029333     -0.5524    -0.17562   -0.080127   -0.023285   -0.094093    0.038753
0.0088706    -0.65471    -0.24188    -0.15711   -0.034329    -0.09182    0.024461
-0.013541    -0.72097    -0.28735    -0.19803   -0.034654   -0.093119   0.0075714
-0.043748    -0.72942    -0.30717    -0.19868   -0.027508   -0.093769  -0.0096434
-0.077528     -0.6755    -0.31074    -0.17205   -0.012567   -0.090521   -0.023285
-0.10449    -0.57806    -0.31042    -0.13599    0.008221   -0.077853   -0.030431
-0.11261    -0.45788    -0.31854    -0.10774    0.034206   -0.046347   -0.033354
-0.097341    -0.33575    -0.33575   -0.092469    0.066037    0.011794    -0.03238
-0.068758    -0.22142    -0.34549   -0.086298    0.097543     0.10014   -0.028807
-0.037902    -0.11683    -0.33055   -0.081751     0.11313      0.2096   -0.021012
-0.012242    -0.02361    -0.28183   -0.073306     0.10696     0.31322   -0.007045
0.0033489     0.06019    -0.20875   -0.053817    0.088448     0.38662    0.012119
0.013743     0.13555    -0.11748   -0.026533    0.070259     0.41391    0.037778
0.016991     0.20083  -0.0073698   0.0062721    0.049796     0.39702    0.063438
0.019264     0.25572     0.11216    0.042326    0.020888     0.34342    0.081303
0.023162     0.29925     0.22422    0.074806   -0.016789     0.26384    0.087149
0.024786     0.32946     0.30445    0.095919   -0.052843     0.17225    0.084876
0.025111      0.3457     0.33465    0.099167   -0.079802    0.083901    0.076431
0.025436     0.35544     0.31354    0.083251   -0.096367   0.0072465    0.069285
0.029009     0.36973     0.26027    0.054993    -0.10384   -0.051868    0.065712
0.038103     0.39214     0.20148    0.031282    -0.10481   -0.092469    0.063438
0.052395     0.41813     0.15763    0.021863    -0.10709    -0.11521    0.059216
0.068635     0.43762     0.13392    0.028034    -0.11813     -0.1217     0.05272
0.080978     0.43989      0.1206    0.039727    -0.13567    -0.11358    0.045899
0.086175     0.42495     0.10761    0.047523    -0.15386   -0.098641    0.038753
0.0865     0.40286    0.088124    0.050446    -0.16847   -0.077528    0.027709
0.086175     0.38207    0.062139    0.050121    -0.17432   -0.047971    0.016666
0.08585     0.35706    0.029009    0.055318    -0.17172   -0.012892   0.0085458
0.082277     0.31646   -0.013541    0.067986    -0.15613    0.021213   0.0069217
0.074157      0.2593   -0.064861    0.081303    -0.12917    0.050121    0.009845
0.06019     0.19434     -0.1243    0.088448   -0.092145    0.076431    0.014068
0.046548     0.14042    -0.18407    0.089098   -0.050244     0.10274    0.019914
0.038753     0.11183    -0.23668    0.087149  -0.0060706     0.12515    0.026735
0.036804     0.10826    -0.26916    0.086824    0.039402     0.14496    0.028684
0.036479     0.11866    -0.27566    0.085525    0.089098     0.16543     0.02706
0.037129     0.13067    -0.27241    0.084226     0.14237     0.18622    0.019914
0.040052     0.13847    -0.27761    0.082277     0.19758     0.19888     0.01017
0.047198     0.13912      -0.288    0.082277      0.2463     0.19791   0.0020496
0.056942     0.12223    -0.28443    0.082927     0.27424     0.18264  -0.0018481
0.067661    0.084226    -0.24318    0.084876     0.27619     0.16315 -0.00022403
0.073507    0.037778    -0.15029    0.089423     0.25767     0.14399   0.0072465
0.072533  -0.0011985  -0.0028225     0.10469     0.22877      0.1271    0.021863
0.069934   -0.027833     0.18751      0.1297     0.19758    0.099817      0.0433
0.070584   -0.051219     0.38825     0.16315      0.1664    0.057267    0.066037
0.081303   -0.073955     0.55747     0.20083     0.13457   0.0043233     0.08585
0.099492   -0.096042     0.67148     0.23526    0.082277    -0.05804     0.10436
0.11573    -0.11521     0.73059     0.25118   -0.020687    -0.12495     0.11866
0.1258    -0.11423     0.74781     0.24046    -0.18147    -0.18699     0.12613
0.1336   -0.055766     0.74651      0.2122    -0.36726    -0.23831     0.12288
0.14496     0.10761     0.75918     0.18881    -0.52089    -0.27501     0.11118
0.16543     0.39637     0.80562     0.18979    -0.59722    -0.29417     0.09397
0.18946     0.74488     0.85629      0.2187    -0.58488    -0.28995    0.073507
0.20343      1.0268     0.86149     0.26352    -0.50433    -0.26429    0.055318
0.18881      1.1337     0.77834      0.2986    -0.39129    -0.23051     0.03583
0.131      1.0271     0.60749     0.30347    -0.27404    -0.20193    0.011144
0.033556     0.74651      0.3824     0.27261    -0.16945    -0.18504   -0.021986
-0.080127     0.39117     0.15731      0.2174   -0.088247    -0.18244   -0.062912
-0.17692    0.065387   -0.020362     0.15341   -0.038551    -0.19543    -0.10741
-0.23116    -0.16815     -0.1243    0.095919   -0.022961    -0.22304    -0.14541
-0.23896    -0.30067    -0.15678    0.048172   -0.034978     -0.2526    -0.16977
-0.212    -0.35881    -0.14444   0.0033489    -0.06551    -0.27534    -0.17854
-0.16945     -0.3809    -0.12105   -0.052193    -0.10676    -0.29125     -0.1753
-0.13015    -0.40266    -0.11098    -0.11715    -0.14541    -0.30522    -0.16458
-0.10254    -0.44813     -0.1217    -0.17302    -0.16523    -0.31399    -0.15029
-0.085648    -0.51245    -0.14769    -0.19478    -0.14996    -0.31171    -0.13275
-0.072981    -0.56961    -0.17627     -0.1714   -0.098641    -0.29937    -0.11098
-0.058365     -0.5904    -0.19933    -0.11358   -0.012242    -0.28378   -0.088572
-0.041799    -0.55792    -0.21232   -0.042449     0.10242    -0.26722   -0.066485
-0.022636    -0.47379    -0.21362    0.020888     0.23039    -0.25357   -0.045047
-0.0047713    -0.35491    -0.20453    0.062139     0.34537    -0.24286   -0.021337
0.01017    -0.22921    -0.19186    0.080003     0.40741    -0.23798   0.0043233
0.022188    -0.12398    -0.17952    0.078055     0.38142    -0.23831    0.024786
0.031607   -0.057715    -0.16912    0.062139     0.26514    -0.24026    0.033881
0.03453   -0.032705    -0.16425    0.037454    0.092671    -0.23506    0.036479
0.032257   -0.036602    -0.17205   0.0088706   -0.082076    -0.21849    0.039078
0.025111   -0.046671    -0.19576   -0.024909    -0.21557    -0.19121    0.044599
0.017316   -0.042774    -0.23019   -0.064211     -0.2932    -0.15776     0.05142
0.011144   -0.015165    -0.26234    -0.10968    -0.31139    -0.12008    0.056942
0.0069217    0.038753    -0.28118    -0.15418    -0.26949   -0.082725    0.057592
0.00010078     0.10534      -0.288    -0.18861    -0.18244   -0.053492    0.049472
-0.0099683       0.169    -0.28378    -0.20843   -0.075904   -0.036602     0.03583
-0.01614      0.2161    -0.27014     -0.2133    0.015692   -0.034329    0.017965
-0.016789     0.24695    -0.25065    -0.20583    0.065712   -0.041475  -0.0021729
-0.012242     0.27067    -0.22597    -0.19251    0.065387    -0.04992   -0.019063
-0.014516     0.28788    -0.19316    -0.17822     0.02706   -0.051868   -0.028482
-0.022961     0.29503    -0.14541    -0.15905   -0.029132   -0.044073   -0.032055
-0.033354      0.2934   -0.075579    -0.11651   -0.076879   -0.028482   -0.032705
-0.042124     0.28333    0.022837   -0.026858   -0.090845   -0.013216   -0.033354
-0.052518     0.26969     0.13912     0.11671   -0.060313  -0.0024977   -0.037902
-0.067134     0.25637     0.24403     0.28788   0.0069217   0.0017248   -0.043423
-0.079152     0.24436      0.3012     0.43827    0.083576  -0.0018481   -0.045697
-0.078178     0.23234     0.28918     0.53084     0.14042  -0.0076946   -0.039526
-0.06681     0.21285     0.21447     0.55357     0.16153  -0.0080194   -0.023285
-0.051544     0.18167     0.10826     0.52499     0.14951   0.0026992  -0.0031473
-0.04115     0.14237    0.003024     0.46815     0.11963    0.018615    0.018615
-0.037902     0.10274   -0.077528     0.39637    0.090397     0.03583    0.040702
-0.0405    0.072533    -0.12592     0.32036    0.073832    0.054019    0.058566
-0.045372    0.050121    -0.14346     0.24858    0.071558    0.076431    0.064737
-0.045697    0.038428    -0.13957     0.18751    0.079029     0.10014    0.059216
-0.034654    0.042001    -0.12365     0.14269    0.091047      0.1219    0.047523
-0.013541    0.066362    -0.10416     0.11086     0.10274     0.14204    0.037778
0.0085458     0.13035   -0.081426      0.0865     0.11638     0.16056    0.034206
0.020888     0.24468   -0.059014     0.06084     0.13555     0.18004    0.037129
0.026085     0.39539   -0.037577    0.022188     0.15601     0.19856    0.044275
0.028684     0.53928   -0.017114   -0.028482     0.17322     0.21447    0.053694
0.033556     0.63218  0.00010078   -0.084024     0.18394     0.21902    0.066037
0.038753     0.64225    0.012768    -0.13534     0.19206      0.2096    0.079029
0.042975     0.56234    0.019264    -0.17822      0.2057     0.19499      0.0865
0.044275     0.42138    0.023162    -0.20615     0.23006     0.18232    0.083576
0.04395     0.25702    0.031607    -0.20972     0.26384      0.1768     0.07708
0.044599     0.10826    0.048172    -0.18536     0.30087     0.18004    0.075131
0.050446   0.0010752    0.073832    -0.13794     0.34115     0.18881    0.080328
0.058241   -0.077528    0.095269   -0.081101     0.38695     0.19856    0.092671
0.063113    -0.16815    0.094945   -0.032055     0.43632     0.20181     0.10924
0.062464    -0.30457    0.064413  -0.0024977     0.47887     0.19434      0.1258
0.06019    -0.49523   0.0049729   0.0023744     0.49836     0.17712     0.13587
0.059865    -0.72065   -0.077853   -0.013866     0.48276     0.15471     0.14009
0.06084    -0.94411    -0.17107   -0.039526     0.43242     0.12905     0.14074
0.059865     -1.1137     -0.2591    -0.06681     0.34764     0.10631     0.13912
0.05207     -1.1809    -0.32471   -0.092469     0.24598    0.090722     0.13295
0.038428     -1.1241    -0.35037    -0.11553     0.15438    0.083901     0.11898
0.019914    -0.95483    -0.33413     -0.1295    0.091372     0.07708     0.10014
-0.0024977    -0.71642    -0.28378    -0.12917    0.056617    0.062139    0.080653
-0.028157    -0.46243    -0.21622    -0.11358    0.035505     0.03518    0.062139
-0.051544    -0.23961    -0.15256   -0.086948   0.0039985   0.0010752    0.047523
-0.064211   -0.077528    -0.10416   -0.060963   -0.054142   -0.034329    0.039402
-0.062912     0.01894   -0.067784   -0.043748    -0.13924   -0.062912    0.037129
-0.049595     0.06896   -0.027508   -0.034329    -0.22986   -0.075579    0.033881
-0.032055     0.10177    0.033881   -0.028157     -0.2971   -0.072656    0.025761
-0.011917     0.13587     0.12125   -0.021986    -0.32731   -0.054792    0.016341
0.0095202     0.17907     0.23071   -0.012892    -0.31366   -0.027833    0.010495
0.036479     0.23754     0.34732    0.003024    -0.26007 -0.00087364    0.012768
0.063763     0.31939     0.45223    0.031932    -0.17789    0.021863    0.022837
0.086824     0.43274     0.52694    0.076755   -0.093119    0.036479    0.035505
0.10599     0.56494     0.56851       0.131   -0.020037    0.045899    0.044924
0.12158     0.68674     0.57663     0.17777    0.040052    0.052395    0.045899
0.12678     0.75495     0.55195     0.20635    0.084876    0.061165    0.036154
0.11801     0.73839     0.49868     0.20928     0.10404    0.073832    0.022837
0.097543     0.63283     0.42462     0.18394    0.092021     0.09397    0.010495
0.070909     0.46035     0.34472       0.131    0.049147     0.12158  0.00075039
0.050446      0.2606     0.27164    0.062789   -0.016789     0.15341  -0.0096434
0.0433     0.06831      0.2135  -0.0018481   -0.091495     0.18069   -0.019388
0.044275   -0.098641     0.16868   -0.046347     -0.1636     0.19953   -0.029782
0.049147    -0.23863      0.1297    -0.06681    -0.22369     0.21577   -0.039526
0.056617    -0.35946    0.086824   -0.071357    -0.26787     0.23818   -0.044398
0.064088     -0.4621    0.035505   -0.068434     -0.2919     0.27099   -0.046671
0.069285    -0.54525   -0.026209   -0.068434    -0.28898     0.31322   -0.046996
0.069285    -0.60599   -0.095068   -0.079802    -0.26429     0.35382   -0.046347
0.062139    -0.64237    -0.16815    -0.11098    -0.22856     0.38565   -0.044073
0.050121    -0.65211    -0.24058    -0.16328    -0.19219     0.40546    -0.04115
0.038753    -0.62613    -0.29872    -0.23181    -0.16035     0.41326   -0.035953
0.031932    -0.56214    -0.32958     -0.2997    -0.13242     0.41261   -0.025884
0.02706    -0.46145    -0.32373    -0.34679    -0.10838     0.40806   -0.008669
0.027385     -0.3338    -0.28281    -0.35556   -0.085973     0.40221   0.0059473
0.032582    -0.19413    -0.21427    -0.32211   -0.063237     0.39734   0.0059473
0.039402   -0.058365    -0.13664    -0.25487   -0.038227     0.39539   -0.011917
0.042651    0.059865   -0.062912    -0.16815   -0.011267     0.39279   -0.042774
0.040377     0.14984  -0.0044465   -0.078503    0.017316     0.37655   -0.076229
0.03453     0.21317    0.031282  -0.0031473    0.044924     0.33498    -0.10189
0.029983      0.2567    0.047523    0.050771    0.064088     0.26872    -0.11001
0.030633     0.28983    0.050121    0.085525    0.071234     0.18784    -0.10156
0.037129     0.31451    0.047523     0.10242    0.065387     0.11086   -0.084024
0.046548     0.31971     0.03518     0.10729    0.048172    0.050446   -0.063237
0.055968     0.29438   0.0059473     0.10566    0.030308   0.0095202    -0.04927
0.059541     0.23883   -0.039526     0.10079    0.029009   -0.019063   -0.043099
0.049472     0.16056   -0.089546    0.096244    0.047847   -0.042449   -0.045372
0.026085    0.070909    -0.13469    0.090072    0.076755   -0.061288   -0.050244
-0.00022403  -0.0099683     -0.1688    0.082277     0.10079   -0.081751   -0.055441
-0.016789   -0.062912    -0.18666    0.076106     0.11118    -0.11228   -0.057715
-0.020687   -0.077203    -0.19121    0.073507     0.10566    -0.15451   -0.056091
-0.022636   -0.052518    -0.19154    0.076755    0.083251    -0.20323   -0.047321
-0.02426  -0.0011985    -0.20648    0.079679    0.045574    -0.25033   -0.033354
-0.024585    0.067986    -0.25715    0.068635   0.0020496    -0.29385   -0.013866
-0.016789     0.15179    -0.34192    0.030308   -0.038227    -0.33413    0.009845
0.0026992     0.25183    -0.42865   -0.032705   -0.063561    -0.36206    0.032257
0.029983     0.36551     -0.4621   -0.094418   -0.065835    -0.36823     0.05272
0.048822     0.47822    -0.39941    -0.11813   -0.048296    -0.34809    0.070909
0.050121     0.57176    -0.24903    -0.08305   -0.013866    -0.30782    0.088448
0.03583     0.62406   -0.084349   -0.008669    0.031932    -0.25877     0.10501
0.014717     0.61983   -0.012242    0.061489    0.076106    -0.21914     0.12093
-0.0037969     0.55812    -0.11261     0.08585     0.10209    -0.19608       0.131
-0.012242     0.45418    -0.38415    0.039727    0.095919    -0.19089     0.13587
-0.010618      0.3353    -0.73137    -0.08305    0.056617    -0.19998     0.13652
-0.00054884     0.23331     -1.0078     -0.2565  -0.0018481    -0.21882     0.13944
0.016341     0.16283     -1.0831    -0.42052   -0.053817    -0.24058     0.14367
0.033556     0.11248    -0.91975    -0.51277   -0.079802    -0.26007     0.14042
0.040377    0.054668    -0.58942    -0.50303   -0.071357    -0.27469      0.1245
0.030308   -0.028807    -0.22044    -0.40916   -0.040825      -0.288    0.099167
0.0075714    -0.13957    0.076431    -0.28703   -0.013866    -0.30554    0.073832
-0.018413    -0.26007     0.25832    -0.20031   -0.011917    -0.32373    0.055968
-0.038876     -0.3705     0.34829    -0.17237   -0.035628    -0.33932    0.046873
-0.054467    -0.45106     0.41391    -0.17887   -0.066485    -0.34939    0.041027
-0.06551    -0.48938     0.52694    -0.17594   -0.068758    -0.35232    0.036154
-0.071682    -0.47834     0.71468    -0.13437  -0.0083442    -0.34939    0.030308
-0.076554    -0.41533     0.96673   -0.045697     0.12483    -0.33737    0.028359
-0.075579    -0.30944      1.2483    0.078379     0.30315    -0.30814    0.029333
-0.072331    -0.18601      1.4984     0.20408     0.48049    -0.25975    0.033881
-0.067134   -0.082725      1.6423     0.28658     0.61236    -0.20843    0.038103
-0.059339   -0.029132       1.629     0.30282      0.6692    -0.17789    0.041351
-0.047971    -0.01614      1.4611     0.26774     0.64744    -0.18244    0.045249
-0.034978   -0.011592      1.2006     0.23071     0.56494    -0.22174    0.048497
-0.029132   0.0036737     0.93002     0.23883      0.4191    -0.27534    0.048822
-0.038876    0.022837     0.70461     0.29925       0.169    -0.32438    0.044599
-0.065186     0.01894     0.52661     0.37623    -0.20063    -0.36531    0.037778
-0.10936   -0.020687     0.36973     0.43437     -0.6245    -0.39649    0.028034
-0.1623   -0.093769      0.2161     0.46263     -0.9766    -0.41728    0.014717
-0.21037    -0.17919    0.059216     0.46652     -1.1572    -0.42832 -0.00054884
-0.24058    -0.24675   -0.082725     0.45743     -1.1322    -0.42702    -0.01614
-0.2474    -0.27599    -0.18991     0.43437    -0.94379    -0.41663   -0.026858
-0.23474    -0.26819    -0.25033     0.39702    -0.67875    -0.40331   -0.028807
-0.20713    -0.23603    -0.26787     0.34992     -0.4241    -0.39064   -0.023935
-0.16945    -0.18731    -0.26592     0.30639    -0.22921    -0.37115   -0.015815
-0.1243    -0.12138    -0.27501     0.27554    -0.11358    -0.33705   -0.010943
-0.074605    -0.03303    -0.30392     0.25865   -0.072006    -0.27599  -0.0089938
-0.02426    0.070909     -0.3338      0.2476   -0.079477    -0.18601  -0.0089938
0.020888     0.17907    -0.33835     0.23201    -0.10384   -0.068758  -0.0073698
0.056942     0.27489    -0.30749     0.20928    -0.12333    0.072208  -0.0089938
0.082602       0.347     -0.2474     0.17874    -0.12917     0.23689   -0.012567
0.099167     0.40059    -0.17237     0.14432     -0.1191      0.4217   -0.012242
0.11411     0.44216   -0.097341     0.11313   -0.089546     0.61399  -0.0063954
0.13262     0.48212   -0.033354    0.094945   -0.043423     0.79815   0.0039985
0.15601     0.51557    0.015042    0.092671    0.010495     0.95309    0.014068
0.17874     0.52856    0.049147     0.10079    0.057267      1.0548    0.024137
0.19466     0.50777    0.066037     0.10794     0.08585      1.0879    0.030633
0.20343     0.44736    0.065062     0.10436     0.09397      1.0551    0.033231
0.207     0.35869    0.050771     0.08585    0.089748     0.96868    0.029009
0.20473     0.25897    0.030957    0.056617     0.07708     0.84947    0.021538
0.19628     0.15828   0.0078962    0.020239    0.062139     0.71533    0.014717
0.17745    0.063438   -0.017764   -0.010943    0.050771     0.58248    0.012119
0.14302   -0.021012   -0.044073   -0.027508    0.044924     0.45646    0.011469
0.096244   -0.095068   -0.068758   -0.022636    0.051096     0.34115   0.0095202
0.044275    -0.16815   -0.087597 -0.00054884    0.072533     0.23883   0.0091954
-0.012892    -0.24545    -0.10124    0.021538     0.10177     0.14659   0.0091954
-0.07493    -0.32308    -0.11326    0.029983     0.12872    0.058891   0.0046481
-0.13015    -0.38739      -0.123    0.022837     0.14042   -0.027833  -0.0067202
-0.16133    -0.42247    -0.12982   0.0095202     0.12613    -0.11196   -0.022311
-0.15808    -0.41825    -0.13047 -0.00054884    0.089748    -0.19283   -0.037902
-0.12787    -0.37408    -0.12463  -0.0054209    0.046548    -0.26364   -0.047646
-0.084999    -0.30229    -0.11488  -0.0024977     0.01829    -0.31236   -0.047321
-0.040825    -0.22109    -0.10806    0.003024    0.016016     -0.3299   -0.038227
-0.0067202    -0.15191    -0.11001   0.0078962    0.041676    -0.31561   -0.027183
0.01829    -0.10644     -0.1191    0.010495    0.085525    -0.27664   -0.017439
0.03518     -0.0837     -0.1308   0.0091954     0.14204    -0.22661   -0.007045
0.047198   -0.075579    -0.13762      0.0014     0.19953    -0.17919   0.0020496
0.06019   -0.072006    -0.13924   -0.012892     0.24078    -0.14476   0.0095202
0.070259   -0.059339    -0.13534   -0.029132     0.25183    -0.12333    0.013093
0.06961    -0.03303     -0.1282   -0.043423     0.22974    -0.11098    0.015692
0.062464   0.0023744    -0.12105   -0.050244     0.18557    -0.10059    0.018615
0.057917    0.036479    -0.11261   -0.045372     0.13522   -0.087597    0.021863
0.062789    0.058891    -0.10319   -0.033354    0.090072   -0.071357    0.025761
0.076431    0.062789   -0.092469    -0.01614    0.056942    -0.05804     0.02641
0.091372    0.049472   -0.084024  0.00075039    0.037454    -0.04992     0.01894
0.10469    0.016666   -0.079802     0.01764    0.026085   -0.049595   0.0072465
0.11703   -0.037577   -0.077853    0.033881    0.019589   -0.050894  -0.0037969
0.1284    -0.10774   -0.074605    0.046223    0.014392   -0.047971   -0.012892
0.13295    -0.17562    -0.06681     0.05207    0.011144   -0.035953   -0.018738
0.12548    -0.22044   -0.053168    0.050446    0.011794   -0.015165   -0.021337
0.10534    -0.22921   -0.038227    0.041027    0.012119   0.0078962   -0.016789
0.081303    -0.19803   -0.028807    0.024461   0.0062721     0.02706  -0.0050961
0.061814    -0.13664   -0.029132 -0.00022403  -0.0047713    0.038103    0.010819
0.055643   -0.058365   -0.037577   -0.034654   -0.019712    0.045249    0.026085
0.062464     0.01829   -0.051544   -0.077528   -0.035953    0.048497    0.037454
0.081952     0.07773   -0.071357    -0.11748   -0.046671    0.048172    0.045574
0.10761     0.11573   -0.095393    -0.14769   -0.044398    0.047198    0.050771
0.13522     0.13977     -0.1191    -0.16685   -0.031406    0.048822    0.058891
0.15406     0.15601    -0.13599      -0.174    -0.01614    0.055318    0.073507
0.1651     0.16543    -0.14509     -0.1701   -0.011917    0.064413    0.090397
0.17225     0.16803    -0.14411    -0.16003    -0.02426    0.066686     0.10209
0.1729     0.16998    -0.13307    -0.14606   -0.044398     0.06019     0.10469
0.16608     0.16965    -0.11715     -0.1334   -0.060638    0.049796     0.10436
0.15698     0.16478   -0.097991     -0.1204   -0.064211    0.039078    0.098517
0.15309     0.15926   -0.080776    -0.10611   -0.053817    0.021538    0.080978
0.15309     0.15958   -0.065186    -0.09182   -0.033679  -0.0063954    0.053044
0.15406     0.17939   -0.051868   -0.084349  -0.0050961   -0.035953    0.020239
0.15601     0.24208   -0.039201   -0.084024    0.029333   -0.056091   -0.011592
0.15796     0.36031   -0.030106   -0.081751    0.065062   -0.061937   -0.032055
0.15568     0.52109   -0.027183   -0.072656     0.10242   -0.052518   -0.034329
0.14919     0.68674   -0.040175   -0.054792     0.14042   -0.032055   -0.021337
0.13879     0.81732   -0.073955   -0.033354     0.17582  -0.0093186  -0.0041217
0.12158      0.8865    -0.12138  -0.0099683     0.19791   0.0036737   0.0072465
0.098517     0.88325    -0.16555   0.0010752     0.19921  -0.0021729    0.008221
0.073507     0.80985    -0.19706 -0.00022403     0.17745   -0.024909   0.0059473
0.05272     0.68512     -0.2094   -0.013216     0.13977   -0.055116   0.0069217
0.03518     0.53408     -0.2029   -0.032055    0.095269   -0.085648    0.011469
0.023162      0.3746    -0.17984   -0.046671    0.053369    -0.11163    0.017316
0.011144     0.20246    -0.14704   -0.052193    0.023812    -0.12787    0.025436
-0.0054209 -0.00054884    -0.11391   -0.047971     0.01829     -0.1334    0.038428
-0.023935    -0.23246   -0.077853   -0.035303     0.03518     -0.1321     0.05272
-0.043423    -0.45528   -0.021337   -0.016789    0.066037      -0.123    0.061814
-0.060313    -0.62223    0.063763    0.003024     0.10144   -0.096367    0.064413
-0.072006    -0.70441     0.16998    0.017965      0.1349   -0.037577    0.065387
-0.078503    -0.70116     0.27781    0.032906     0.16153    0.053694    0.066037
-0.079477    -0.61963     0.36908    0.048497     0.17615     0.15146    0.065062
-0.077853    -0.47672     0.43762    0.066362     0.17452     0.22227     0.06896
-0.077203    -0.29872     0.47822    0.080003     0.15731     0.24371    0.076755
-0.078178    -0.13015     0.48179      0.0852      0.1297      0.2109      0.0852
-0.076554   -0.019712     0.44346    0.078704     0.10047     0.14009    0.092346
-0.06551   0.0017248     0.36941    0.063113    0.074806    0.050121    0.093321
-0.041799   -0.054792     0.28171      0.0433    0.055318   -0.034978    0.084551
-0.013541    -0.15321     0.20311    0.023487    0.039402    -0.10026    0.067011
0.0075714    -0.25162     0.14919   0.0075714    0.024786    -0.13859    0.048822
0.016016     -0.3286     0.12678   0.0036737    0.008221    -0.14931    0.040052
0.014392    -0.36953     0.12678    0.014392  -0.0099683    -0.14281    0.043625
0.0065969    -0.36823      0.1336    0.033881   -0.022311    -0.12787    0.051096
0.0023744    -0.32341     0.13392    0.053369   -0.027508    -0.11001    0.058566
0.0072465    -0.23798      0.1245    0.069285   -0.026209   -0.090521    0.060515
0.013743    -0.12495     0.10501    0.079029   -0.023285   -0.067784    0.056942
0.015692   -0.012892    0.076755    0.080328   -0.019712   -0.037252    0.046223
0.0014    0.053369    0.046223    0.075456   -0.016464    0.016991    0.029983
-0.028482    0.055643    0.022837    0.072858   -0.017764     0.11313    0.015042
-0.06551    0.011469     0.01017     0.07773    -0.02361      0.2528   0.0033489
-0.10091   -0.044398   0.0059473    0.091372   -0.033679     0.40514  -0.0063954
-0.12105   -0.072981   0.0036737     0.10599   -0.048945     0.52044   -0.013216
-0.11943   -0.043099  0.00010078     0.11541   -0.068434     0.56429   -0.014191
-0.098316    0.074806  -0.0047713     0.11606   -0.092794     0.53149   -0.010943
-0.067459     0.28041  -0.0047713     0.11054    -0.12235     0.44054  -0.0089938
-0.037577     0.53766   0.0023744     0.10371    -0.14639     0.32296  -0.0089938
-0.018413     0.80562    0.015042     0.10112    -0.15516     0.20928  -0.0099683
-0.0093186      1.0499    0.029009     0.10274    -0.13989     0.12645   -0.010293
-0.0037969      1.2552    0.041351     0.10696    -0.10286    0.088773   -0.010943
0.0075714      1.4224     0.05142     0.10794   -0.050894    0.089098   -0.013541
0.029983      1.5351    0.061165     0.10696  0.00010078     0.11443   -0.017439
0.055318      1.5462    0.066362     0.10339    0.036804     0.14691   -0.024585
0.070584       1.414    0.059865     0.10047    0.046548      0.1742   -0.035628
0.063113      1.1405    0.027385    0.097218    0.025761     0.18946   -0.050244
0.025761      0.7595   -0.042774    0.095919   -0.017764     0.18492   -0.062587
-0.033354     0.30704    -0.14671    0.095919   -0.065186     0.16803   -0.073955
-0.094743    -0.17724    -0.27306    0.099167    -0.10059     0.15114   -0.084999
-0.13534    -0.63782    -0.40948     0.10404    -0.11651     0.13977   -0.093119
-0.15061     -1.0217    -0.54395     0.10826    -0.11488     0.13425   -0.091495
-0.14931     -1.2933    -0.66218     0.10631    -0.10351     0.13197   -0.080127
-0.14931     -1.4583    -0.75378    0.099492     -0.0837     0.12613   -0.064861
-0.1597     -1.5463    -0.80542      0.0852   -0.061288     0.10956   -0.047971
-0.18049     -1.5762    -0.79016    0.064413   -0.035953    0.084876    -0.03173
-0.19771     -1.5424    -0.67517    0.040702   -0.011592    0.058241   -0.014516
-0.19803     -1.4151    -0.45723    0.016341    0.014068    0.030633 -0.00054884
-0.17692     -1.1666    -0.17042   -0.013866    0.041027   0.0059473   0.0062721
-0.13892    -0.81614     0.13814    -0.05804    0.062464   -0.015165   0.0052977
-0.090521    -0.42507     0.42462    -0.12008    0.071883   -0.035953 -0.00087364
-0.043748    -0.06616     0.65946    -0.19283    0.067011   -0.055441  -0.0080194
-0.0063954     0.21058     0.81439    -0.25357    0.053369    -0.07428   -0.013541
0.013093      0.3876     0.87286    -0.27534    0.042001   -0.094743    -0.01549
0.011144     0.47399     0.84233    -0.24675    0.045574    -0.11488   -0.012892
-0.0067202     0.49024     0.75268    -0.17594    0.068635    -0.13242   -0.011592
-0.03238     0.46035     0.64517   -0.087597     0.10696    -0.14346   -0.010293
-0.053168     0.39929     0.55227   -0.010618     0.14172    -0.14931  -0.0089938
-0.056416     0.31419     0.48861    0.037129     0.15373    -0.15743  -0.0096434
-0.039201     0.20343     0.44444    0.058566     0.14204    -0.17367    -0.01549
-0.0050961    0.067336     0.39831    0.067986     0.11573    -0.19478   -0.023935
0.028359   -0.078827     0.33887    0.076755    0.084551    -0.21297   -0.033679
0.051096    -0.20583     0.28008    0.096244    0.054993    -0.22239   -0.042449
0.062789    -0.28735     0.23299     0.12418    0.025111    -0.22109   -0.052193
0.064413    -0.31756     0.19856     0.14302  -0.0096434     -0.2107   -0.062912
0.057917    -0.30619     0.17192     0.13522   -0.055441    -0.19803   -0.070058
0.046873    -0.26916     0.14009     0.10242    -0.10903    -0.19121   -0.074605
0.031282    -0.21752    0.093321    0.057267    -0.15613    -0.19186   -0.079802
0.012768    -0.15581    0.041027    0.014392    -0.17952    -0.19154    -0.09117
-0.0044465    -0.08305  -0.0031473   -0.012567    -0.16328    -0.18601    -0.10286
-0.014516  0.00075039    -0.03238   -0.020362    -0.10351    -0.17594    -0.10644
-0.017114    0.089748   -0.053168   -0.017114   -0.013216     -0.1636    -0.10254
-0.013866     0.17192   -0.069408   -0.014191    0.081952    -0.14509   -0.092794
-0.007045     0.23656   -0.086948   -0.019712     0.15601    -0.11618   -0.076879
0.0017248     0.27944    -0.10319   -0.034978     0.19206     -0.0824   -0.055766
0.0088706      0.2999    -0.10741   -0.050569     0.18881   -0.054142   -0.033354
0.017965     0.30185   -0.092469   -0.056416     0.15796   -0.038876   -0.020687
0.032257     0.29015    -0.05739   -0.050569     0.11216   -0.039201   -0.017764
0.053694     0.27424  -0.0099683   -0.034329    0.063113   -0.048945   -0.014191
0.079354     0.26255    0.033556   -0.013541     0.01829   -0.054467  -0.0011985
0.10664     0.25475    0.056617   0.0091954   -0.023285   -0.038876    0.025436
0.12872      0.2489     0.05142    0.031932   -0.056416   0.0026992    0.059216
0.14139     0.23818    0.020888    0.053044   -0.077528     0.06019    0.088448
0.13977      0.2096   -0.021337    0.070259   -0.087597     0.11606     0.10371
0.12613     0.16185   -0.061937    0.080003    -0.09929     0.15406     0.10794
0.10501     0.10047   -0.093444    0.081303     -0.1269     0.16121     0.10404
0.084551    0.037129    -0.11586    0.073507    -0.17822     0.13814    0.092671
0.067986   -0.017114     -0.1256    0.059865    -0.24643    0.094295    0.079679
0.059216   -0.053168    -0.11975    0.046873    -0.31659    0.041027    0.070909
0.063438   -0.067134    -0.10319     0.04395    -0.37245   -0.013541    0.067661
0.070584    -0.05804   -0.082076    0.050771    -0.40169   -0.059664    0.067661
0.07708   -0.032705   -0.065186    0.058891    -0.39941   -0.089546    0.067661
0.083576  -0.0024977    -0.05804    0.059541    -0.36401    -0.10059    0.065712
0.089748    0.021863   -0.059989    0.050121    -0.30229   -0.097341    0.063438
0.093645    0.031282   -0.067459    0.030957    -0.22889   -0.087922    0.061165
0.09462    0.021213   -0.078178   0.0072465    -0.15321   -0.077203    0.060515
0.090072  -0.0015233    -0.09182   -0.019388   -0.080451   -0.064211    0.063438
0.082927   -0.025884    -0.10449   -0.054792   -0.011592   -0.050569    0.072858
0.07708   -0.041475    -0.11456   -0.097017     0.05207   -0.039851    0.083576
0.078055   -0.045047    -0.12138    -0.13989     0.10664   -0.034654    0.088448
0.089423   -0.033679    -0.12365    -0.16718     0.14269    -0.03238    0.092996
0.10566   -0.010943    -0.12073     -0.1753     0.15893   -0.026858     0.10047
0.11963    0.016016    -0.11521    -0.16523     0.16023   -0.021337     0.10664
0.1284    0.047198    -0.10968    -0.14119     0.15373   -0.021986     0.11021
0.13002      0.0865    -0.10221    -0.11553     0.14204   -0.028807     0.11183
0.1232     0.14009   -0.087597   -0.095717     0.12613   -0.034004     0.11411
0.11118     0.19953   -0.055441   -0.072981     0.11476   -0.022311     0.11801
0.092996     0.25118    0.011144   -0.026858     0.11151     0.01829     0.12678
0.064737     0.28593     0.11541     0.06961     0.11801    0.080003     0.14042
0.028359     0.30022     0.24273     0.22097     0.13197     0.14854     0.15958
-0.010293     0.29892     0.35512     0.39961     0.15244     0.21805     0.17907
-0.041799     0.28301     0.41293     0.55585     0.17355     0.28853     0.18816
-0.060313     0.24923     0.39604     0.65329     0.19109     0.36161     0.18297
-0.064861     0.19499     0.31549      0.6796     0.19726     0.43729     0.17322
-0.056416     0.12418     0.20278     0.64419     0.19401     0.51557      0.1677
-0.044398    0.046548    0.091696     0.56397     0.19239     0.59937     0.17095
-0.032705   -0.026858   0.0065969     0.46425     0.19466     0.69064     0.18167
-0.024585   -0.090521   -0.043748     0.36486     0.19369     0.77542     0.19109
-0.018088    -0.14346   -0.061937     0.27684     0.18524     0.82511     0.18979
-0.016789    -0.18309   -0.056416      0.2057     0.17647     0.81374     0.17712
-0.017764    -0.20648   -0.038551     0.15146     0.18069     0.73059     0.16023
-0.015165    -0.21362   -0.022636     0.11183      0.2096     0.59482     0.14464
-0.010293    -0.21005   -0.020037    0.083901     0.26027     0.44119     0.12872
0.00010078    -0.20096   -0.034329    0.061489     0.31776      0.3038     0.11281
0.013743    -0.17984   -0.056741    0.044275     0.36681     0.19499    0.094295
0.029983    -0.13762   -0.074605    0.030308     0.39084     0.10826    0.079354
0.044924    -0.06551   -0.078178    0.019589      0.3863    0.039727    0.071883
0.054668    0.029658    -0.06616   0.0052977     0.35057    -0.01614    0.073832
0.054344     0.13912   -0.042124   -0.019388     0.29405   -0.059014    0.075781
0.04395     0.25085   -0.021661   -0.052843     0.22812   -0.091495    0.073832
0.028684     0.35349   -0.028482   -0.087597     0.15666     -0.1243    0.067011
0.020239     0.43404   -0.070707    -0.11423    0.063438    -0.15938    0.056617
0.025436     0.49088    -0.13599     -0.1269   -0.064861    -0.19641    0.048497
0.040377     0.53701    -0.19219    -0.12527      -0.212    -0.23571    0.040702
0.055968     0.58898    -0.21979    -0.10936    -0.34095    -0.27436    0.032257
0.067661     0.65556    -0.21817   -0.084999    -0.42085    -0.30652    0.024786
0.071883      0.7241     -0.2055   -0.060313    -0.44521    -0.32666    0.015042
0.070259     0.77444    -0.20063   -0.045047    -0.43254    -0.33543   0.0010752
0.068635     0.79458    -0.20745   -0.045372    -0.39974     -0.3325   -0.013216
0.072533     0.78386    -0.20388   -0.055766    -0.36011    -0.32243   -0.019063
0.0852     0.75041    -0.16068   -0.068434    -0.31561    -0.31171   -0.016464
0.10144     0.69584   -0.052518   -0.073955    -0.26657    -0.30522   -0.013541
0.10859     0.60522     0.11183   -0.070058    -0.21687    -0.30294   -0.012567
0.098517     0.45743     0.29438   -0.053817    -0.17107    -0.30522   -0.015165
0.06831     0.25735     0.46198   -0.032055    -0.13729    -0.30457   -0.021661
0.024786    0.040702      0.5893   -0.014516    -0.12138    -0.29125   -0.032705
-0.020037    -0.15646     0.65231   -0.012892    -0.12463    -0.26624   -0.046996
-0.056741    -0.31399     0.62503   -0.031406    -0.13567    -0.23701   -0.061937
-0.080451    -0.43352     0.50355   -0.067784    -0.14216    -0.20843   -0.076229
-0.093119    -0.52706     0.32134    -0.11423    -0.13372    -0.18861   -0.091495
-0.098965    -0.60404       0.131    -0.15873    -0.10806    -0.18049    -0.10774
-0.098965    -0.66316   -0.015165    -0.18212   -0.070707    -0.17757     -0.1217
-0.097666    -0.69596   -0.094093    -0.17302   -0.034004     -0.1753     -0.1269
-0.089546    -0.70571    -0.11066    -0.13307  -0.0076946    -0.16588    -0.12527
-0.067134    -0.70311   -0.087597    -0.07493    0.008221    -0.14509    -0.11975
-0.031406    -0.69012   -0.054142   -0.015815    0.025436    -0.12008    -0.11358
0.0039985    -0.66186   -0.036278    0.023162    0.048172   -0.097341    -0.10384
0.025436    -0.61606   -0.048296    0.027385    0.071558   -0.086623   -0.088896
0.028684    -0.56604   -0.084999  -0.0037969     0.09397   -0.088896   -0.074605
0.016666    -0.53551    -0.13242   -0.056416      0.1232    -0.10254   -0.063886
-0.0044465    -0.53875    -0.18407    -0.11813     0.15666    -0.12073    -0.05739
-0.02361    -0.56929    -0.23603    -0.16977     0.17907    -0.13892   -0.055116
-0.030431    -0.60664    -0.27923    -0.20388     0.16965    -0.15126   -0.056741
-0.021012    -0.64139    -0.30912    -0.22402      0.1219    -0.15321   -0.056416
-0.007045    -0.67355    -0.33023    -0.22856    0.050446    -0.14509    -0.04927
-0.0011985    -0.70636    -0.34647    -0.21427   -0.019712    -0.12787   -0.037902
-0.0089938    -0.73981    -0.35199    -0.18309   -0.068109    -0.10481   -0.030106
-0.029132     -0.7658     -0.3312    -0.14639   -0.085973   -0.085973   -0.028157
-0.050569    -0.76969    -0.26559    -0.11813   -0.075904   -0.080451   -0.029782
-0.067134    -0.74241    -0.14931    -0.10903   -0.041475   -0.089546   -0.030106
-0.073631    -0.68199   0.0020496    -0.11066    0.014717    -0.10838   -0.027508
-0.069083    -0.59982     0.15438    -0.10156    0.082602     -0.1269   -0.022311
-0.062262    -0.51569     0.26839   -0.065835     0.15016    -0.13762   -0.014516
-0.059989    -0.45301     0.31581   -0.010618      0.2083    -0.13664   -0.007045
-0.06616    -0.41988      0.2895    0.044599     0.25605     -0.1243 -0.00087364
-0.076879    -0.40363      0.2057    0.090722     0.29633    -0.10676   0.0056225
-0.0824    -0.37992    0.097543     0.12872     0.32166   -0.092145   0.0088706
-0.072656    -0.32113  -0.0044465     0.15698     0.32101     -0.0824     0.01017
-0.040175    -0.20908   -0.086948     0.16445     0.29015   -0.078827   0.0072465
0.013093   -0.046996    -0.14866     0.14009     0.23396   -0.079477   0.0020496
0.074806     0.14691    -0.18699    0.091372      0.1664   -0.085324  -0.0011985
0.13067     0.35609    -0.19608    0.032582     0.10112    -0.09929  -0.0057458
0.169     0.58053    -0.17107   -0.021661    0.046873    -0.11975   -0.010293
0.19109     0.83128    -0.11163   -0.059014   0.0095202    -0.13989   -0.011917
0.19921      1.0989   -0.030431   -0.066485   -0.011267    -0.15256  -0.0067202
0.19726      1.3484     0.05142   -0.038551   -0.015165    -0.15158   0.0043233
0.19174      1.5329     0.11346    0.018615  0.00042559    -0.13664    0.016666
0.18524      1.6105     0.14302    0.087149    0.033231    -0.10936    0.025436
0.18069      1.5673     0.13587     0.14789    0.071558   -0.073306    0.029658
0.17712      1.4257     0.10242     0.18784     0.10242    -0.03303    0.030957
0.17322      1.2334    0.064413     0.19856     0.11281   0.0017248    0.025111
0.1677      1.0424    0.040052     0.18751    0.099492    0.025436    0.016666
0.16315     0.88585    0.039727      0.1729    0.063763    0.038428    0.015042
0.16121     0.76632    0.064413     0.17582    0.014392    0.044275     0.02641
0.15698     0.64907     0.10079     0.19888   -0.039851    0.050121    0.045249
0.14464     0.48764     0.12548     0.22974   -0.092794    0.057917    0.059216
0.1232     0.24566     0.11054     0.24501    -0.14281    0.062139     0.06084
0.090722   -0.073306    0.050771     0.23006    -0.18569    0.059541     0.05272
0.051096    -0.43287   -0.027508     0.18979    -0.21947    0.052395    0.044924
0.015042    -0.77944   -0.087272     0.14334    -0.24448    0.042975      0.0433
-0.008669     -1.0708    -0.10254    0.098842    -0.26039    0.031282    0.047198
-0.020037     -1.2829   -0.071682    0.046223    -0.26722    0.018615    0.053694
-0.024585     -1.4073   -0.030106   -0.025559    -0.26072    0.014717    0.056942
-0.027508     -1.4446   -0.034978    -0.11228    -0.23441    0.026735    0.057592
-0.035953      -1.405     -0.1269    -0.19186    -0.19121    0.058566    0.056942
-0.053492     -1.3069     -0.2984    -0.23961    -0.14152     0.10242    0.058241
-0.076879     -1.1682    -0.50043    -0.24708   -0.091495     0.14724     0.06084
-0.098641     -1.0052     -0.6729    -0.22174   -0.050244     0.18427    0.065387
-0.11358    -0.85414    -0.77262    -0.18049   -0.020362     0.21188    0.069285
-0.12008    -0.73689     -0.7973    -0.13762  -0.0037969     0.24143    0.072533
-0.12203    -0.64951    -0.76125    -0.10514   0.0017248      0.2908     0.07773
-0.12982    -0.56929    -0.68232   -0.082076   0.0017248     0.36486    0.082602
-0.14769    -0.47704    -0.58033   -0.067459   0.0033489     0.45191    0.082927
-0.17075    -0.36888    -0.47737   -0.064211     0.01017     0.53279     0.06896
-0.19121    -0.24383    -0.38837   -0.069733    0.022512     0.58605    0.041351
-0.19966    -0.09929    -0.30294    -0.07493    0.040052     0.60197    0.014717
-0.19283    0.066037    -0.20096   -0.072006    0.064088     0.57793  -0.0067202
-0.1714     0.25735   -0.068109   -0.055766    0.090397     0.51784   -0.021661
-0.13957     0.47887     0.10664   -0.025884     0.11183     0.43502   -0.034654
-0.10254     0.72605     0.32166    0.009845     0.12093     0.34472   -0.044398
-0.069083     0.96998     0.54026    0.037778     0.11995     0.26027   -0.051544
-0.042449      1.1613     0.69194    0.042001     0.11573     0.18102   -0.056416
-0.025559      1.2496      0.7137     0.01764     0.11118     0.10956   -0.061288
-0.01549      1.2175     0.61041   -0.029457     0.10306    0.046223   -0.068109
-0.010943       1.097      0.4675     -0.0824    0.083576  -0.0050961   -0.076879
-0.007045     0.95016     0.38305    -0.12268    0.054344   -0.041475   -0.083375
-0.00054884     0.82836     0.40351    -0.12917    0.021538   -0.058689   -0.084024
0.012443     0.76307     0.50388   -0.095393  -0.0076946   -0.057715   -0.076879
0.027709      0.7595     0.62438   -0.025559   -0.028807   -0.043748   -0.062912
0.044599      0.8001     0.71273     0.06019   -0.037577   -0.019712   -0.045372
0.061814      0.8485     0.73449     0.13165    -0.03303    0.008221   -0.025884
0.076755     0.86344     0.67538     0.16413   -0.017439     0.03453   -0.010943
0.081627     0.81894     0.54935     0.15179    0.003024    0.050446  -0.0044465
0.071234     0.71143     0.39182     0.10729    0.019914    0.054019   -0.008669
0.049472     0.56072     0.24695    0.055968    0.026735    0.049796   -0.017764
0.022512     0.40871     0.14919    0.016016     0.01894    0.039727   -0.029132
0.003024       0.296     0.11313  -0.0063954  -0.0015233     0.02706   -0.038227
-0.0011985     0.24208     0.12613   -0.020037   -0.031081    0.013743   -0.042124
0.0091954     0.24598     0.15958   -0.034004   -0.065186  0.00042559    -0.04115
0.023487     0.28691     0.19044   -0.055116   -0.096367   -0.013541    -0.04115
0.03518     0.33887     0.21285   -0.088572    -0.11715   -0.020362   -0.045047
0.042001      0.3798     0.23039    -0.12982     -0.1243  -0.0099683   -0.052518
0.045249     0.40481     0.24663     -0.1636     -0.1178     0.01829   -0.060313
0.042326     0.42592      0.2593    -0.17822    -0.10124    0.053369   -0.064536
0.03583     0.45451     0.26255    -0.16588   -0.069733    0.083901   -0.060638
0.028359     0.49283     0.25215    -0.13047  -0.0063954     0.10794    -0.04927
0.02706     0.52272     0.23266   -0.079477     0.10436     0.12158   -0.034004
0.032906     0.51297     0.20895   -0.020687     0.24728     0.11736   -0.018088
0.036479     0.43664     0.18816    0.038428     0.38337    0.094945  -0.0031473
0.030633     0.27944     0.16868      0.0865     0.47627    0.064088   0.0069217
0.019264    0.049472     0.14529     0.11801     0.50615    0.036479   0.0088706
0.010819    -0.22044     0.11801     0.13587     0.47887    0.019264   0.0026992
0.014392    -0.47932     0.09397     0.14594     0.41618    0.017965   0.0020496
0.030633    -0.68589    0.078055     0.15536     0.33075    0.030633    0.014717
0.051745    -0.83141    0.067336      0.1677     0.20311    0.050771    0.041027
0.064737    -0.92885    0.055643     0.18069   -0.015165    0.064088    0.069285
0.057917     -1.0032    0.029983     0.18914    -0.33705    0.054019    0.089098
0.028359     -1.0643    -0.01549     0.18914    -0.68687    0.020564    0.093645
-0.01549     -1.0929   -0.078503     0.17257    -0.94639   -0.022961    0.087799
-0.057065     -1.0679    -0.15386     0.13717     -1.0305   -0.063886    0.077405
-0.082076    -0.97984    -0.23116    0.082277     -0.9243   -0.095717    0.071558
-0.079152     -0.8379     -0.2984    0.017965    -0.67972    -0.12203    0.076106
-0.046996    -0.64432    -0.34322   -0.040825     -0.3835    -0.14152      0.0865
0.0095202    -0.39454    -0.35394   -0.081101    -0.11975    -0.15483    0.096893
0.080003    -0.10384    -0.32178    -0.09182    0.054993    -0.16198     0.10209
0.14529     0.18069    -0.25715   -0.073631      0.1232    -0.16393     0.10274
0.18427     0.39961    -0.18374   -0.037902     0.11021    -0.16425     0.10014
0.17874     0.51882    -0.12592  -0.0028225    0.055318    -0.16328    0.095594
0.12743     0.54318   -0.095068     0.01764  -0.0063954    -0.15516    0.087474
0.047198     0.51492    -0.08305    0.029983   -0.051544    -0.13827    0.075131
-0.033354     0.48731   -0.070382    0.047523   -0.062912    -0.11066     0.06084
-0.0824     0.49901   -0.045372    0.092671     -0.0405   -0.081101    0.048822
-0.085648     0.55552   -0.017114     0.18264    0.011794   -0.056091    0.042001
-0.046671     0.63023   -0.007045     0.31776    0.089748   -0.036602    0.042651
0.012443     0.67895   -0.043423      0.4675     0.18394   -0.020037    0.044924
0.072208     0.66466    -0.14509     0.59255     0.27424  -0.0096434    0.045574
0.11443     0.57306    -0.29677      0.6705     0.34277   -0.008669    0.046223
0.13295     0.41098    -0.46275     0.69551     0.38045    -0.01614    0.042001
0.12743     0.21252    -0.60664     0.67343     0.38825   -0.028482    0.033231
0.10469    0.023162    -0.70343     0.61041     0.37103   -0.045697    0.016991
0.077405    -0.12235    -0.74014      0.5081     0.33563   -0.065835  -0.0011985
0.050771    -0.21492    -0.71545     0.36486     0.28626   -0.087922   -0.011917
0.032582    -0.26007    -0.62158     0.18979     0.22779    -0.10871   -0.015815
0.023812    -0.27339    -0.45268    0.016991     0.16868    -0.12235    -0.01549
0.021213    -0.27404    -0.20648    -0.10774     0.11703    -0.12722   -0.012892
0.023812    -0.27176    0.097543    -0.15256    0.080653    -0.12592  -0.0076946
0.030308    -0.26657     0.42105    -0.11358    0.060515    -0.12235 -0.00087364
0.040052       -0.25     0.73124    -0.01614    0.048497     -0.1178     0.01017
0.056292    -0.21979       1.007     0.10177    0.039727    -0.10903    0.026735
0.078704    -0.18179      1.2133     0.20148    0.028359   -0.090845    0.042001
0.099492    -0.15061      1.2993     0.25085    0.011794   -0.067459    0.044275
0.10534    -0.13827      1.2282     0.23689  -0.0083442   -0.045372    0.027709
0.091047    -0.14281      1.0125       0.169   -0.028807   -0.027833  -0.0028225
0.06084    -0.13307     0.71403    0.071558   -0.045697   -0.013866   -0.033354
0.025111   -0.070382     0.41033   -0.019712   -0.057065  -0.0083442   -0.050569
-0.0060706    0.059541     0.16445   -0.081426   -0.066485   -0.017114   -0.054142
-0.02426     0.23201 -0.00022403    -0.11098   -0.072331   -0.042449    -0.04992
-0.031406     0.40026   -0.090845    -0.11456   -0.071682   -0.086298   -0.043099
-0.028157     0.51297    -0.13827    -0.10189   -0.066485    -0.13567   -0.035303
-0.017114     0.53343    -0.16847    -0.08305   -0.059989     -0.1753   -0.025234
-0.00054884     0.45451    -0.19673   -0.069083   -0.054142    -0.20128   -0.012567
0.016341      0.3025    -0.22532   -0.059989   -0.048296    -0.21492   0.0033489
0.030957     0.12548    -0.24221   -0.052518   -0.044398    -0.21947    0.021213
0.041676   -0.034654    -0.24318    -0.04115   -0.043748    -0.21557    0.039727
0.045899    -0.16425    -0.22986   -0.023285   -0.045047    -0.20583    0.054019
0.045899    -0.27469    -0.20908  -0.0057458   -0.046022    -0.19641    0.063438
0.042001    -0.38772    -0.19056   0.0039985   -0.047321    -0.18601    0.073182
0.033231    -0.51959    -0.18471   0.0078962   -0.047321    -0.17335    0.081952
0.019589    -0.65439    -0.19121    0.010819   -0.044073    -0.16393    0.091696
0.0056225    -0.75703    -0.19706    0.015692   -0.036602    -0.17075     0.10599
-0.0031473    -0.79795    -0.18991    0.024137   -0.027183    -0.19024     0.12255
-0.0018481    -0.75865    -0.16458    0.026735   -0.018088    -0.21167     0.13457
0.0065969    -0.64042    -0.13112    0.019914  -0.0096434    -0.22207     0.13749
0.015692    -0.47184    -0.10189    0.003024  -0.0028225    -0.21622     0.13262
0.016016     -0.2997   -0.084674   -0.020037 -0.00054884    -0.19089      0.1219
0.0078962    -0.16425   -0.084674   -0.038876  -0.0037969    -0.14574     0.10956
-0.0050961   -0.090196    -0.09929   -0.046671  -0.0073698   -0.084674    0.096569
-0.020362   -0.081426    -0.11975   -0.041799  -0.0076946   -0.013866     0.08585
-0.033354    -0.11878    -0.13794   -0.025884  -0.0024977    0.067661    0.080978
-0.044723     -0.1714    -0.15321  -0.0099683    0.009845     0.15926    0.079679
-0.055116    -0.20875     -0.1636  -0.0015233    0.024461     0.26222    0.082602
-0.064211    -0.21427    -0.16425    0.003024    0.031282      0.3733    0.083901
-0.070382    -0.19024    -0.15256   0.0065969    0.029658     0.48244    0.076755
-0.071357    -0.15158    -0.13015   0.0088706    0.016016     0.58151    0.063763
-0.064861    -0.10481   -0.098641    0.010819  -0.0054209     0.66011    0.053044
-0.04862   -0.054467    -0.06551     0.01017   -0.027183      0.7137    0.051096
-0.021661  -0.0011985     -0.0405   0.0078962   -0.043099     0.73774    0.056617
0.0065969    0.056292   -0.032055   0.0033489   -0.051868     0.73741    0.064737
0.027385     0.11671   -0.037252  -0.0034721    -0.05804     0.71987    0.072858
0.038103      0.1716   -0.045047   -0.014516   -0.060638     0.68772    0.079679
0.041027     0.20278   -0.050244   -0.025884   -0.061937     0.63997    0.082602
0.037454     0.20051   -0.053492   -0.034329   -0.060313     0.57144    0.081952
0.02706     0.16543   -0.056741   -0.036278    -0.04992     0.48309    0.076106
0.014068     0.11118   -0.061613   -0.026858   -0.025884     0.38045    0.067011
0.008221     0.05142   -0.069083  -0.0083442    0.008221     0.27424    0.058566
0.010819  -0.0057458   -0.079477    0.014392    0.044275     0.17257    0.055318
0.015367   -0.052843   -0.087272    0.031607    0.079354    0.089098    0.059216
0.019589   -0.087597   -0.093769    0.039727     0.11281    0.032257    0.065062
0.025761    -0.11845    -0.10059    0.037454     0.14269  -0.0011985    0.067986
0.03453    -0.14639    -0.10774     0.02706     0.16088   -0.017114    0.062789
0.046873      -0.161    -0.11358    0.016991     0.15991    -0.02426    0.047847
0.056942    -0.14216    -0.11618    0.009845     0.14399   -0.028807     0.02641
0.059865   -0.077528    -0.11293   0.0033489     0.12613   -0.033679   0.0017248
0.054019    0.014717    -0.10059  -0.0024977     0.11248   -0.039526   -0.015165
0.041027     0.11216   -0.077853  -0.0083442     0.10209    -0.04927   -0.021986
0.023162     0.19466   -0.054467   -0.008669     0.09462   -0.064211    -0.02361
0.0049729     0.25118   -0.039851  -0.0021729    0.091696   -0.085648   -0.026209
-0.011917     0.28138    -0.03303   0.0088706    0.090072    -0.11293   -0.029782
-0.030106     0.28918   -0.028482    0.015692    0.089098    -0.14411   -0.035303
-0.04927     0.27554   -0.024585    0.016991    0.089098    -0.17789   -0.043423
-0.062587     0.24241   -0.020687    0.013743    0.087474    -0.21005   -0.049595
-0.06616     0.19986   -0.013541    0.013418    0.078704    -0.23506   -0.052518
-0.057065     0.15698  -0.0021729    0.019914    0.062789    -0.24415   -0.055766
-0.037577     0.11378   0.0085458    0.034855      0.0433    -0.23538   -0.063561
-0.018413    0.070259    0.009845    0.049472    0.021863     -0.2146   -0.072981
-0.0067202    0.029658   0.0033489    0.055968  0.00075039    -0.18666   -0.084674
-0.0018481 -0.00054884  -0.0044465    0.049147   -0.017114    -0.15905   -0.094418
-0.00087364   -0.010293  -0.0067202    0.036804   -0.029782    -0.14119    -0.10351
0.00075039     0.01017      0.0014     0.02641    -0.03303    -0.13404    -0.10676
0.0095202    0.061489    0.021213    0.023487   -0.029457    -0.13437   -0.097991
0.030957     0.14042    0.047523    0.026085   -0.030431    -0.13502   -0.079477
0.06084     0.24436    0.077405    0.028684   -0.045372    -0.13437   -0.053817
0.09462     0.36941     0.10631    0.029009   -0.070382    -0.13632   -0.027183
0.12385     0.50648      0.1297    0.025111   -0.095393    -0.14281  -0.0067202
0.14334     0.64127     0.14204    0.019914    -0.11391    -0.15613    0.003024
0.15179     0.75723     0.14269    0.014717    -0.11586     -0.1688   0.0017248
0.14886     0.83421     0.12905    0.008221    -0.10059    -0.17107  -0.0080194
0.14107     0.85987     0.10274  -0.0024977   -0.071032    -0.16003    -0.01614
0.13067     0.83388    0.063763   -0.016464   -0.038227    -0.13794   -0.018088
0.12418     0.77509    0.019264   -0.029782   -0.011267    -0.11196   -0.012242
0.12678      0.7124   -0.015815   -0.036927   0.0091954   -0.087272  -0.0041217
0.13879     0.66238   -0.030756   -0.038551    0.026085   -0.062912  0.00075039
0.15406     0.61918   -0.025559   -0.035953    0.040377   -0.045697   0.0010752
0.16185     0.54968   -0.020362   -0.032055     0.05142   -0.040175  -0.0018481
0.15471     0.41228   -0.032705   -0.025884    0.054019   -0.045047  -0.0024977
0.12905     0.18459   -0.053168   -0.020362    0.047523   -0.054467   0.0010752
0.08585    -0.11618   -0.062587   -0.015165    0.032582   -0.065835    0.008221
0.028359    -0.43677   -0.059664  -0.0099683    0.012119   -0.076879    0.014717
-0.035628       -0.72    -0.05739   -0.014191  -0.0047713   -0.087597    0.016341
-0.097991    -0.92398   -0.067134   -0.034654   -0.011917   -0.097341   0.0052977
-0.15029     -1.0204   -0.085324   -0.068434  -0.0060706    -0.10611   -0.012242
-0.18569     -1.0068   -0.092794    -0.10709     0.01017    -0.11488   -0.026858
-0.2029    -0.91391   -0.063561    -0.13827    0.029009      -0.123    -0.03303
-0.20908    -0.79145    0.013743    -0.15093    0.038428    -0.12495   -0.029782
-0.20908     -0.6794      0.1362    -0.14574    0.033556    -0.11813   -0.019063
-0.20323    -0.60567     0.28333    -0.12852    0.023487   -0.095393  -0.0050961
-0.19543    -0.58001     0.43697    -0.10774    0.019264   -0.050569   0.0046481
-0.18731    -0.59787     0.58898   -0.087597    0.023812    0.016991    0.010819
-0.18017    -0.63912     0.72085   -0.071357    0.037454     0.10501    0.018615
-0.17075    -0.66933     0.80367   -0.056416    0.057267     0.19726    0.032257
-0.15288    -0.66283     0.80855   -0.043099    0.075781     0.27586    0.044599
-0.12625    -0.60729     0.73384   -0.033679    0.088448     0.32296     0.05142
-0.093444    -0.49783     0.60619   -0.029132    0.092346     0.32621    0.054668
-0.052843    -0.33737     0.46977   -0.029132    0.087149     0.28723    0.062464
-0.0031473    -0.15029     0.35057   -0.036278    0.073507      0.2109     0.07708
0.051096    0.029983     0.25605   -0.051868    0.048822     0.11054    0.092346
0.10047     0.18037     0.17939   -0.075904    0.014717   0.0052977    0.098193
0.13652     0.28885     0.11183    -0.11586   -0.017764    -0.08305    0.091372
0.15146     0.34472    0.048822    -0.17042   -0.040825    -0.14411    0.076106
0.14561     0.35122  -0.0080194    -0.22726    -0.04927    -0.17497    0.056942
0.1258     0.32816   -0.049595    -0.26949   -0.046022    -0.18861    0.042975
0.10014     0.30867   -0.075255    -0.28898    -0.03238    -0.19251    0.038753
0.07773     0.31127   -0.093119    -0.28833  -0.0099683    -0.19154    0.044599
0.065062     0.32783    -0.10936    -0.27988    0.016991    -0.18504    0.055643
0.065062     0.33205     -0.1217    -0.27599    0.034206    -0.16847    0.064088
0.071234      0.3025     -0.1269    -0.27566    0.032906    -0.14184     0.06831
0.081627     0.22714    -0.11683    -0.26657    0.013743    -0.11001    0.073182
0.090722     0.11703   -0.076229    -0.21817   -0.012242   -0.079802    0.083576
0.096244  -0.0024977   0.0039985    -0.10124   -0.034329   -0.055766    0.099492
0.094295    -0.11001     0.10664    0.087799   -0.046022   -0.035628     0.11995
0.083901    -0.19543     0.19011     0.30997   -0.047646   -0.016464     0.13392
0.068635     -0.2539     0.21707     0.49576   -0.039851   0.0056225     0.13847
0.053694    -0.27696      0.1781     0.59222    -0.02361     0.03453     0.13684
0.042651    -0.25585    0.090722     0.58151  -0.0031473    0.067011     0.13587
0.038428    -0.19056   -0.013216     0.49413    0.020888    0.099167     0.13425
0.038103   -0.095393    -0.09929     0.37428    0.037129     0.12483     0.12255
0.040052    0.011469    -0.13892     0.25767    0.030633     0.14432     0.10177
0.038753     0.11541    -0.12495     0.16705  -0.0037969     0.16153    0.079679
0.032906     0.20051   -0.073955     0.11118   -0.061613     0.18394    0.063113
0.02706     0.26157   -0.015165    0.085525    -0.12495        0.22    0.056942
0.025761     0.29535    0.022837    0.082277    -0.17205     0.27781    0.062789
0.028034     0.30445     0.02706    0.091372    -0.18179     0.36389    0.074482
0.031282     0.29438 -0.00022403     0.10306    -0.14444     0.47205      0.0852
0.030308     0.27002   -0.046671     0.11281   -0.070382     0.58216    0.090722
0.02706     0.23721   -0.097341     0.12028     0.01894     0.66596    0.084876
0.025436     0.20083    -0.13567      0.1232     0.09397     0.70396    0.067986
0.025436     0.16835      -0.161     0.11541     0.13782     0.68837    0.049796
0.030633     0.15081    -0.17789    0.096893     0.14302     0.63088    0.034855
0.037778     0.15049    -0.18829    0.069285     0.11898      0.5448    0.025111
0.044275     0.16023    -0.19576     0.03583    0.078055     0.44541    0.019914
0.044924     0.16965    -0.19901   0.0020496    0.033881     0.34764    0.016666
0.039078     0.17225    -0.19998   -0.027183 -0.00087364     0.25832    0.012768
0.030957     0.16803    -0.20388   -0.047971   -0.020362     0.18362   0.0052977
0.024786     0.16413    -0.21135   -0.056091   -0.022311     0.12483  -0.0044465
0.024137     0.16705    -0.21817   -0.054792  -0.0067202    0.083901   -0.010293
0.029333     0.17939    -0.21785   -0.047646    0.024137    0.056617  -0.0099683
0.038103     0.20181    -0.20745   -0.035953    0.054668    0.030957   -0.010293
0.047523     0.22584    -0.18569   -0.023285    0.064737  -0.0011985   -0.017114
0.051745      0.2476    -0.15223   -0.012892    0.036804   -0.036602   -0.032055
0.051745     0.26157    -0.11456   -0.008669   -0.026533   -0.070382   -0.055766
0.048172     0.26872   -0.084024   -0.011592    -0.10968   -0.098316   -0.081101
0.044275     0.26969   -0.068434   -0.023935    -0.19608    -0.11878    -0.10384
0.038753     0.26514   -0.069408   -0.043423    -0.26332    -0.13762    -0.12138
0.036479     0.25767    -0.08305   -0.061288    -0.28865    -0.15516    -0.13177
0.042001     0.24988   -0.096042   -0.075255    -0.26559    -0.16523    -0.13145
0.05142      0.2463    -0.10189   -0.083375    -0.20225    -0.16945    -0.11813
0.06084     0.24923    -0.10026   -0.084999    -0.11715    -0.16782   -0.096367
0.068635     0.25248   -0.088896   -0.075255   -0.029782    -0.16133   -0.071357
0.073507     0.24371   -0.075255   -0.055441    0.046223    -0.15548   -0.052843
0.072208     0.21447   -0.064861    -0.03173     0.10242    -0.14964   -0.044723
0.066362     0.16283   -0.059014  -0.0080194     0.13035    -0.14087   -0.046022
0.061814     0.10047   -0.057715   0.0091954       0.131    -0.13242   -0.052193
0.059541    0.045249   -0.063886    0.020564     0.11054     -0.1321   -0.061288
0.06084   0.0075714   -0.089871    0.032257    0.078379    -0.14346   -0.074605
0.065062  -0.0063954    -0.14054    0.047847    0.045249    -0.16295   -0.093119
0.072533     0.01017    -0.20225    0.067661    0.021213    -0.18569    -0.10838
0.082602    0.066686    -0.25292    0.091696    0.013418    -0.20875    -0.11456
0.090722     0.16023    -0.27728     0.11541    0.022512    -0.23409    -0.11033
0.086824     0.27456    -0.27534     0.13425    0.041676    -0.26007   -0.097341
0.064088     0.38532    -0.25682     0.14237    0.053369    -0.28216   -0.083375
0.026085      0.4662    -0.23311     0.13652    0.050446    -0.29223   -0.078178
-0.01614     0.50355    -0.21232     0.11898    0.039078    -0.28833   -0.079802
-0.049595     0.48926    -0.18926    0.099817    0.034855    -0.27176   -0.076879
-0.064211     0.42462    -0.13664    0.083901    0.037778    -0.25227   -0.069733
-0.056416     0.32653    -0.03173    0.074157    0.036479    -0.23376   -0.062262
-0.03238     0.22649     0.12385     0.07708    0.027385    -0.21655   -0.059014
-0.008669     0.15633     0.30574    0.093645    0.015367    -0.20193   -0.057715
0.0039985     0.13555     0.49348     0.12125   0.0026992    -0.19121    -0.05739
0.0056225     0.16088     0.66011     0.15114   -0.008669    -0.18114   -0.060313
0.0026992     0.21188     0.75723      0.1742   -0.023935     -0.1649   -0.062587
-0.0021729     0.25085     0.74326     0.18492   -0.042449    -0.14411   -0.058365
-0.010943     0.24663     0.61626     0.18394   -0.054467    -0.11813   -0.047971
-0.021012     0.21025     0.41683     0.17647   -0.044073   -0.089546   -0.038227
-0.021337     0.21123     0.21188      0.1742  -0.0011985   -0.065835   -0.032055
-0.0063954     0.31354    0.059541     0.17874    0.064088   -0.056741   -0.028807
0.019264     0.51037   -0.016464     0.18069     0.13457   -0.063561   -0.021986
0.043625     0.72215   -0.033679     0.16315     0.19758   -0.069733   -0.010943
0.054668     0.86084   -0.021337     0.11508     0.24728   -0.067134  0.00042559
0.046548     0.87676  -0.0024977    0.038103     0.27261   -0.063561     0.01017
0.015367     0.76892    0.014717   -0.049595     0.26807    -0.06616    0.015042
-0.039201     0.56721    0.019589    -0.12852     0.23526   -0.080776    0.014717
-0.10838     0.31679  -0.0044465    -0.18179     0.17615    -0.10514   0.0091954
-0.1753    0.059216   -0.069408    -0.19478     0.10436     -0.1269   0.0075714
-0.21882    -0.18601    -0.16815    -0.15808    0.037454    -0.12885    0.013418
-0.23279    -0.42865    -0.28053   -0.085648   -0.011267    -0.10903    0.025111
-0.21979    -0.69044    -0.38512   -0.010618   -0.038227   -0.079152    0.036804
-0.18991    -0.97205    -0.46795    0.039402   -0.048945   -0.053168    0.045249
-0.15288      -1.264    -0.51309    0.050771   -0.052843   -0.036927    0.053694
-0.11651     -1.5509    -0.51115    0.030633   -0.053492   -0.030106    0.064088
-0.086948     -1.8146    -0.46307  -0.0011985   -0.051544   -0.034978    0.073182
-0.072981     -2.0433     -0.3835    -0.02361   -0.045697   -0.048945    0.073832
-0.084024       -2.23    -0.28573   -0.029782     -0.0405   -0.069408    0.065387
-0.12463     -2.3518    -0.16588   -0.021012   -0.040175   -0.089546     0.05272
-0.18569     -2.3781   -0.014191  -0.0034721   -0.040175    -0.10416    0.048172
-0.24903     -2.2917      0.1664    0.021213    -0.03238    -0.10286    0.054344
-0.288     -2.0913     0.35447    0.059216   -0.008669   -0.085324    0.064088
-0.28508     -1.7779     0.52629     0.11476    0.031607   -0.052193    0.071234
-0.24123     -1.3595     0.64939      0.1781    0.084551   -0.010943    0.078379
-0.17172    -0.86291     0.70136     0.23883     0.13587    0.031607    0.087149
-0.094418    -0.34777     0.68415     0.28496     0.16478     0.06961    0.095919
-0.025884     0.10469     0.61659     0.31744     0.15763    0.094945     0.10014
0.021538     0.43047     0.52824     0.33433     0.11086    0.094295     0.09462
0.045574     0.60359     0.43892     0.32556    0.038103    0.061489    0.076755
0.053369     0.63023     0.35057     0.27521   -0.033354    0.008221    0.052395
0.057917      0.5448     0.24663     0.17517   -0.080776   -0.041475    0.033881
0.066686     0.40806     0.11736    0.041351   -0.095717   -0.067784    0.028034
0.082602     0.28301   -0.026533   -0.095717   -0.082725    -0.06551    0.033881
0.10274     0.20343    -0.16295    -0.19771   -0.053817   -0.042449    0.044924
0.12223     0.16705    -0.26689    -0.24123   -0.022961  -0.0060706    0.057917
0.13684     0.14886    -0.32731    -0.22759   0.0026992    0.036479     0.06961
0.14789     0.12872    -0.34712    -0.17335     0.01894    0.073832    0.078704
0.15471     0.10209     -0.3377    -0.10968    0.014392    0.095919    0.082602
0.15438    0.076431    -0.30749   -0.070058   -0.014191    0.099817    0.084876
0.14789    0.065062    -0.25552   -0.070382   -0.059989    0.091047    0.092996
0.13814     0.07708    -0.16815    -0.09994    -0.10903    0.080003     0.10436
0.12937      0.1206   -0.036278    -0.13437    -0.14411    0.083251     0.11313
0.1258     0.19823     0.13035    -0.14964    -0.14866     0.10826     0.11378
0.13132     0.30087     0.31257    -0.12755    -0.11748     0.15861     0.10631
0.14464     0.40741     0.48212   -0.065835   -0.057715     0.22519    0.099817
0.16543     0.49413     0.60944    0.017965    0.022512     0.29243     0.10339
0.18687      0.5461     0.66498    0.094295     0.11768     0.34764     0.11703
0.19888     0.56786     0.63542     0.13912      0.2148     0.37818     0.13587
0.19434     0.56916     0.52954     0.14237      0.2947     0.38175     0.14854
0.17192     0.56137     0.37558     0.11021     0.34147     0.36291     0.14821
0.13652     0.55227     0.21317     0.06019     0.35804     0.32686     0.13165
0.093645     0.53376    0.083576   0.0088706     0.35154     0.28171     0.10144
0.049796      0.5042    0.010819   -0.032705     0.32588     0.23656    0.067011
0.016016     0.46328  -0.0050961   -0.062587     0.29243     0.19856    0.037129
-0.0021729      0.4165    0.012119   -0.080776     0.25962     0.16705    0.021538
-0.0050961     0.37298    0.040377   -0.086298     0.21577     0.14107    0.018615
0.003024     0.34602    0.063763   -0.077203     0.13035     0.11801     0.01764
0.016666     0.33108    0.076106   -0.053817   -0.018413    0.092671   0.0072465
0.029009     0.30542    0.078055   -0.023935     -0.2146    0.064413    -0.01484
0.03453     0.24988    0.069934  -0.0011985    -0.40721    0.041027   -0.039201
0.036154     0.16445    0.054344  0.00010078    -0.54103    0.028359   -0.050894
0.039727    0.069285    0.030633   -0.021012    -0.59007    0.029333   -0.043748
0.047198   -0.010293  0.00075039    -0.05739    -0.56247    0.045249   -0.020037
0.056942   -0.053168   -0.031406   -0.085973    -0.48679    0.067661    0.011469
0.064413   -0.051219   -0.061288   -0.087597    -0.39519    0.084226    0.038428
0.070584  -0.0054209   -0.084349   -0.058365    -0.30294    0.092021    0.057592
0.073507    0.081627   -0.094743   -0.013541     -0.2172    0.090397     0.06019
0.072533     0.20213   -0.090521    0.029333    -0.14931    0.083576    0.048172
0.06961     0.33628   -0.078178     0.06019    -0.11196    0.071558    0.025436
0.065062     0.46035   -0.068109    0.074806    -0.10871    0.059216   0.0065969
0.060515     0.55195    -0.06551    0.078704     -0.1256    0.051096   0.0049729
0.055968     0.61561   -0.069408    0.079029    -0.14216    0.052395     0.01829
0.046223     0.66823   -0.073955    0.078704    -0.14216    0.061814    0.036479
0.03518     0.72345   -0.075904    0.081952     -0.1256     0.06961    0.048497
0.02706     0.77639   -0.071357    0.085525   -0.094743    0.067986     0.05272
0.023487     0.80822   -0.052518    0.091372   -0.050244    0.057917     0.05272
0.01829     0.80108   -0.016464    0.098842   0.0085458    0.045574    0.054344
0.0085458     0.74423    0.031282     0.10566    0.076431    0.034206    0.059216
-0.0089938     0.63705    0.073832     0.11183     0.14529    0.018615    0.064737
-0.035953     0.48439    0.098193     0.11703     0.21188  0.00010078    0.065712
-0.070382      0.2986     0.10209     0.12385     0.26839   -0.012892    0.059541
-0.10611    0.096244    0.088448      0.1323     0.30315   -0.018088    0.050121
-0.13437    -0.10351    0.056942     0.14009     0.30152   -0.017764    0.045574
-0.15191    -0.29093  0.00010078     0.14724     0.25572   -0.020037    0.049796
-0.15743    -0.44911   -0.088896     0.15146     0.17517   -0.028807    0.057917
-0.15386    -0.55077    -0.20193     0.15406    0.087474   -0.043099    0.067661
-0.14411    -0.56052    -0.32048     0.15471    0.017965   -0.059989    0.073832
-0.12625    -0.45853    -0.42117     0.15081   -0.018413   -0.079802    0.072858
-0.097341    -0.26884    -0.49036     0.14334   -0.023935    -0.10741    0.064413
-0.052843   -0.034654    -0.52349     0.13295  -0.0076946    -0.13924    0.053044
0.0010752     0.20863    -0.52446     0.12678    0.020888     -0.1675    0.039727
0.058891     0.43274    -0.49848     0.13035    0.055318    -0.18212    0.022837
0.11411     0.60911    -0.43741     0.14367    0.096893    -0.17692   0.0033489
0.1625     0.70591    -0.32698     0.15666     0.14756    -0.15418   -0.011592
0.19953      0.7124    -0.16425     0.15373     0.19791    -0.12008   -0.020362
0.22324     0.64549    0.016666     0.11801     0.23169   -0.085324   -0.023285
0.23364     0.52726     0.16348    0.050771     0.23461   -0.063886   -0.021012
0.22714     0.36648     0.23266   -0.040175     0.20505   -0.062587   -0.013866
0.20505     0.16543     0.20798    -0.14476     0.14399   -0.075255  -0.0018481
0.16965   -0.068109    0.098193       -0.25    0.060515   -0.095068    0.014392
0.1271    -0.32081   -0.067784    -0.34582    -0.03238    -0.11358    0.030308
0.083251    -0.56506    -0.24026    -0.41046    -0.12105    -0.12333    0.038428
0.041027    -0.76644    -0.36531    -0.42345    -0.18374     -0.1204    0.036804
0.0059473    -0.89052    -0.41338    -0.37895    -0.20778    -0.10449    0.031607
-0.018088    -0.91878    -0.37992    -0.29353    -0.19316   -0.075904    0.029009
-0.036602    -0.85739    -0.29028    -0.20225    -0.15256   -0.040175    0.027709
-0.055441    -0.73949    -0.18504    -0.13534    -0.10254   0.0049729    0.025436
-0.071357    -0.60696    -0.10806    -0.10968   -0.055766    0.060515    0.021863
-0.078503    -0.48744   -0.084999    -0.11975   -0.017114     0.13327     0.01764
-0.071682    -0.38025    -0.11228    -0.14281    0.015367      0.2135    0.011469
-0.054467    -0.28053    -0.16035    -0.16003    0.043625     0.29405   0.0026992
-0.039851    -0.19186    -0.19251    -0.16393    0.064088     0.37038   -0.010293
-0.035953    -0.12917    -0.17757    -0.15711    0.070259     0.43112   -0.026858
-0.042449   -0.098316    -0.10481    -0.14281    0.058241     0.46912   -0.046996
-0.053817   -0.096367    0.025111    -0.12008     0.03583     0.48666   -0.068434
-0.066485    -0.11163     0.20408   -0.086298     0.01017     0.49283   -0.082725
-0.077528    -0.12982     0.40579   -0.046022  -0.0076946     0.50095   -0.084349
-0.081426    -0.14087     0.58021  -0.0034721   -0.013541     0.51817   -0.070707
-0.073306    -0.13957     0.67343    0.031607   -0.010943     0.53343   -0.046022
-0.051219    -0.13047     0.65784    0.051096  -0.0060706     0.53408   -0.015165
-0.020362    -0.11943     0.54773    0.048822  -0.0044465     0.50128    0.012768
0.0056225    -0.11488     0.38565    0.029333  -0.0073698     0.42917    0.033881
0.021213    -0.12008     0.23006   0.0062721   -0.014191     0.32134    0.048822
0.023487    -0.13729     0.12483  -0.0080194    -0.02426     0.19141    0.061165
0.020888    -0.16068    0.076755  -0.0089938   -0.033679    0.057592    0.070584
0.022512    -0.18439    0.067011    0.003024   -0.038227   -0.063237     0.07708
0.033556    -0.19056    0.069934    0.022837    -0.03238    -0.15905    0.082277
0.050771     -0.1662    0.069285    0.044599   -0.017114    -0.23441    0.084551
0.063763    -0.10546    0.060515    0.060515  0.00042559    -0.29385    0.081627
0.067661   -0.022311    0.045899    0.071234    0.017965    -0.33867    0.070909
0.056617     0.06084    0.034206    0.081952    0.032582    -0.36076    0.050771
0.03583     0.12872     0.03453    0.099492    0.044599    -0.35914    0.027709
0.015692     0.17907    0.044924     0.12028    0.058891     -0.3364   0.0026992
0.0052977     0.22227    0.062139     0.14107    0.074157    -0.30197   -0.022636
0.0069217     0.26904    0.080653     0.15828    0.093321    -0.26169   -0.046671
0.01829     0.33433     0.10339     0.17062     0.11443    -0.22954    -0.06616
0.032257     0.42917      0.1349     0.18134      0.1349    -0.21655   -0.078178
0.045574     0.54578     0.17939     0.19109     0.14496    -0.22109   -0.090521
0.06084     0.65881     0.23006     0.19953     0.13555    -0.23896    -0.10514
0.07773     0.73482     0.27326     0.20635     0.10501    -0.26722    -0.11975
0.0852     0.75171     0.29405     0.21188    0.063438    -0.30392    -0.12657
0.079029      0.7124     0.28756     0.21642    0.020564    -0.34225    -0.12495
0.058891     0.63023      0.2554     0.21252    -0.01614     -0.3783    -0.11358
0.030633     0.51687     0.21188     0.19726   -0.036278    -0.40461   -0.095393
0.00010078     0.38662     0.17062     0.17874   -0.034978    -0.40526   -0.073306
-0.021012      0.2476     0.13814     0.16348    -0.01549    -0.36401   -0.051868
-0.027183     0.11054     0.11346     0.15016    0.014392    -0.27761   -0.035303
-0.015815   -0.023285    0.087474     0.13392    0.041676    -0.17172   -0.022961
0.0059473    -0.15678    0.052395     0.10826    0.059216   -0.080776   -0.013541
0.029009    -0.29093  -0.0044465     0.06896    0.061814    -0.03238  -0.0011985
0.049472    -0.41435    -0.09182    0.019264    0.050446   -0.037902    0.017965
0.06961    -0.52057     -0.2107    -0.03303    0.032257   -0.090196    0.046223
0.088773    -0.60469    -0.34257     -0.0837    0.013743    -0.16977    0.076106
0.10696    -0.65341    -0.45788    -0.12852   0.0010752     -0.2526    0.098517
0.12223    -0.65049    -0.52804    -0.16782  -0.0057458    -0.32146     0.10794
0.12807    -0.58813     -0.5407    -0.19673  -0.0067202    -0.36498    0.099492
0.11736    -0.47769    -0.50497     -0.2081  -0.0024977     -0.3809    0.076755
0.091696    -0.34744    -0.44651     -0.2029   0.0020496    -0.37505    0.048497
0.056617    -0.23279    -0.37895    -0.19056    0.003024    -0.35199    0.021863
0.025111      -0.161    -0.31301    -0.18244  -0.0034721    -0.31431   0.0091954
0.0062721    -0.12755    -0.25098    -0.18569   -0.019388    -0.26072    0.013093
0.0017248    -0.10611    -0.17692    -0.19316   -0.036602    -0.18439    0.030633
0.0046481   -0.068109    -0.06616    -0.17627   -0.046347   -0.076554    0.054019
0.010819 -0.00054884     0.09462    -0.10319   -0.045372    0.059541    0.080003
0.01894    0.092996      0.2973    0.045249   -0.039526     0.21675     0.10209
0.031607     0.19921      0.5081     0.24695   -0.032055     0.39052     0.12028
0.055318     0.30152     0.67895     0.44249    -0.02426     0.57176     0.13392
0.093321     0.39117     0.76827     0.57923   -0.016789     0.73579     0.14334
0.14204       0.461     0.75885     0.63283   -0.012242     0.84622     0.14464
0.18881     0.49836     0.66628     0.61626   -0.010618     0.87318     0.13684
0.21285     0.49478     0.54318     0.55844  -0.0044465     0.81309     0.11638
0.19141     0.44476     0.44639     0.48634    0.014068     0.68837    0.088448
0.12028     0.34732     0.40319     0.40871    0.056617     0.53733    0.061489
0.015692     0.21577     0.39831     0.32913     0.14269     0.40059    0.042975
-0.091495    0.081627     0.39279     0.24988     0.28041     0.31257    0.037778
-0.16847    -0.02361     0.35447      0.1768     0.45581     0.28561    0.041351
-0.19868   -0.088572     0.26904     0.11541     0.63997     0.30315    0.049147
-0.18082    -0.12105     0.14691    0.065062     0.79068     0.33075    0.054993
-0.13047    -0.14119     0.01017    0.014392     0.86896     0.33952    0.055318
-0.071357    -0.16198    -0.11975    -0.04115     0.86019     0.31386    0.048497
-0.030431    -0.19154    -0.22467   -0.096042     0.77249     0.25767    0.037129
-0.021661    -0.22726    -0.29612    -0.13567     0.61853     0.18199    0.028684
-0.047321    -0.26787     -0.3312    -0.15288     0.37688    0.097868    0.026735
-0.092794    -0.31236    -0.33445    -0.14639     0.01764     0.01017    0.027709
-0.13989    -0.35459    -0.31399    -0.12625    -0.43839   -0.077853    0.022837
-0.16847    -0.37765    -0.28118    -0.10221    -0.88857    -0.16165    0.011469
-0.16815    -0.36628     -0.2513   -0.081101     -1.2075    -0.22954  0.00042559
-0.14769    -0.32048    -0.25065    -0.06616      -1.318    -0.27664  -0.0067202
-0.1204    -0.25455    -0.28898   -0.059989     -1.2247    -0.29937   -0.010943
-0.096042    -0.18504    -0.36498    -0.06551    -0.99251    -0.30392   -0.015815
-0.076229    -0.11845     -0.4569   -0.087597    -0.70408    -0.30067   -0.020037
-0.055766   -0.062262    -0.54135     -0.1269    -0.42832    -0.29677   -0.021012
-0.030106   -0.022961    -0.59949    -0.17822    -0.20778    -0.29482   -0.023285
-0.0037969  -0.0018481    -0.62093    -0.23181   -0.054142    -0.29417   -0.027508
0.014392    0.013418    -0.60209    -0.27469    0.030308    -0.29385   -0.034654
0.025111    0.033881    -0.54882    -0.29742    0.055968    -0.28898   -0.043099
0.031282    0.071234    -0.46502    -0.30229    0.040052    -0.27501   -0.050569
0.03518      0.1206    -0.35004    -0.29158   0.0039985    -0.24838   -0.057065
0.037778     0.16673    -0.19511    -0.26722   -0.033679     -0.2094   -0.064536
0.039727     0.19661   0.0088706    -0.23311   -0.063561    -0.16393   -0.073955
0.039078     0.20765     0.25443    -0.18764   -0.078827    -0.12073   -0.083375
0.03518     0.20635     0.51167    -0.11715     -0.0824   -0.084349   -0.090521
0.02706     0.19921     0.75171  -0.0034721   -0.080776    -0.05804   -0.098316
0.016341     0.18394     0.94594     0.15828   -0.077528   -0.036278    -0.10384
0.003024     0.15438      1.0577     0.33465   -0.070058   -0.019063    -0.10903
-0.012567     0.11671      1.0551     0.46912   -0.055441  0.00042559    -0.11521
-0.022961    0.088124     0.93067     0.52044   -0.026209    0.028684    -0.11975
-0.020037    0.083251      0.7163     0.48861    0.013418    0.065387    -0.12235
-0.0021729    0.099817     0.46587     0.40773    0.055318    0.097868    -0.12625
0.022512     0.12678     0.23721     0.31614    0.084876     0.11313    -0.13145
0.042326     0.15179    0.063438     0.23624    0.089098     0.10469    -0.13827
0.054019     0.16575   -0.052843     0.17322     0.06084    0.075131    -0.14444
0.057917     0.17582    -0.12657     0.11736    0.008221    0.034855    -0.14834
0.058891     0.19758    -0.17757    0.064088   -0.055441   0.0023744    -0.14476
0.063113     0.23948    -0.21752    0.018615    -0.11488  -0.0060706     -0.1308
0.071558     0.29373    -0.24838   -0.016789     -0.1649    0.016016    -0.10774
0.082927      0.3431    -0.27046   -0.039851    -0.20713    0.066686   -0.080776
0.092021     0.37136    -0.28443   -0.054792    -0.23798      0.1336   -0.048945
0.090722     0.36453     -0.2893   -0.060963     -0.2591     0.19823   -0.014191
0.078379     0.32458    -0.28216   -0.059339    -0.27826     0.24533     0.01894
0.062139     0.25962    -0.27469   -0.050569     -0.2919     0.27196    0.042651
0.046873     0.17972    -0.28151   -0.032705    -0.28476     0.28171    0.049472
0.03453    0.099167    -0.30749  -0.0093186    -0.24286     0.27456    0.042975
0.025761    0.038103    -0.34355    0.020888    -0.16393     0.25378    0.031932
0.01829    0.015692    -0.36985    0.058891   -0.051219     0.22357    0.025436
0.0091954    0.032582    -0.37473    0.099167    0.083576     0.18589    0.025111
0.0017248    0.071883    -0.35654     0.12418      0.2187     0.14107    0.029658
0.0017248     0.11541    -0.32178     0.11801     0.33011    0.095919    0.036804
0.0091954     0.13392    -0.27696    0.081627     0.40254    0.058891    0.045899
0.015367     0.10436    -0.23214    0.025111     0.43924    0.031607    0.061489
0.01017    0.016991    -0.19348   -0.029782     0.45093    0.011144    0.083251
-0.0099683    -0.12527    -0.16815   -0.060313     0.44444   -0.014191     0.10696
-0.038227     -0.2984    -0.16133   -0.059014     0.42755   -0.050894     0.12775
-0.061613    -0.46827    -0.15613   -0.037252     0.40838   -0.098965     0.13944
-0.067134    -0.60567    -0.13372   -0.013541     0.38987    -0.14899     0.14399
-0.051868    -0.68654   -0.078178   0.0026992     0.36583    -0.18959     0.14269
-0.020687    -0.68687    0.019914   0.0065969     0.32881    -0.21362     0.13717
0.019914    -0.59592     0.15893 -0.00022403     0.27944    -0.22044     0.13425
0.058566     -0.4228     0.30607   -0.007045     0.23006    -0.20875     0.13295
0.086824    -0.20323     0.41163   -0.011267     0.19304    -0.18601     0.12905
0.10371     0.01764     0.43664   -0.012242     0.17777    -0.15743     0.12418
0.10989     0.20635     0.37623   -0.012567     0.18362    -0.12917     0.11508
0.10306     0.34764     0.25735   -0.015165     0.20246    -0.10546     0.10404
0.076755     0.43762     0.11736   -0.020362     0.21935   -0.089871    0.089423
0.029009     0.46555   -0.011917   -0.024909     0.22227   -0.077203    0.072858
-0.029132      0.4152    -0.11293   -0.027833     0.20213   -0.061288    0.059216
-0.084349     0.28983    -0.18017   -0.027183     0.15958    -0.04115    0.051745
-0.11943     0.13035    -0.21232   -0.027508     0.10144   -0.021661    0.048172
-0.12657  -0.0067202     -0.2172   -0.035628    0.043625   -0.010943    0.048172
-0.10481   -0.078827    -0.19868   -0.050894  -0.0024977   -0.018738    0.047523
-0.061288   -0.083375    -0.16718   -0.067784   -0.031081   -0.045697    0.037454
-0.011917   -0.055116    -0.13404   -0.079152   -0.046996    -0.08305    0.016016
0.025436   -0.039851    -0.10611   -0.082076   -0.056741    -0.12235   -0.007045
0.04395    -0.05804   -0.084024   -0.072006   -0.065186    -0.15418   -0.022636
0.045574   -0.097341   -0.063886   -0.049595   -0.081101    -0.17302   -0.029782
0.040702    -0.13145   -0.036927   -0.016789    -0.10416    -0.18017   -0.029782
0.040052    -0.13664 -0.00087364    0.021538    -0.12885    -0.18049   -0.029457
0.048172    -0.10936    0.042651    0.061165    -0.14379    -0.17919   -0.030756
0.061165   -0.059664    0.088773    0.099817    -0.14346    -0.17789   -0.033354
0.074806  -0.0099683     0.12613      0.1284    -0.12852    -0.17562   -0.029132
0.082927     0.01829     0.14367     0.13457    -0.10579     -0.1714   -0.018088
0.082927    0.013743     0.14074     0.12255   -0.081751    -0.16555  -0.0021729
0.079029   -0.016464      0.1258    0.098842   -0.064211    -0.15678    0.013743
0.07708   -0.061288     0.10566    0.071234   -0.058689    -0.14152    0.024461
0.07773    -0.11098    0.083251    0.044599   -0.067459    -0.12105    0.028684
0.078055    -0.15093    0.061489     0.01894   -0.082725    -0.09994    0.029658
0.070909    -0.17107    0.040702  -0.0060706   -0.094743   -0.084024    0.032906
0.050771    -0.16718    0.023812   -0.025884   -0.097341   -0.071682    0.040052
0.022837    -0.14346    0.012119   -0.038876    -0.09117   -0.056416    0.053044
0.0014    -0.10741    0.009845   -0.043423   -0.076229    -0.03173    0.070584
-0.0067202   -0.070058    0.012443     -0.0405   -0.054142   0.0017248    0.082277
-0.0015233    -0.04115    0.015367   -0.034004   -0.029457    0.037129      0.0852
0.0052977   -0.024585    0.019264   -0.029132  -0.0073698     0.06896    0.079354
0.0052977   -0.019388    0.025111   -0.027183   0.0078962    0.093321    0.072208
-0.0018481   -0.020037    0.038753   -0.026209    0.011144     0.10826    0.064737
-0.0083442   -0.021661    0.057592   -0.021012   0.0023744     0.11151    0.058891
-0.0031473   -0.020037    0.076755   -0.013216   -0.014516     0.10112     0.05207
0.014392   -0.015815    0.091372  -0.0024977   -0.025884      0.0852     0.04395
0.03583  -0.0080194    0.096893    0.012768   -0.011917    0.078379    0.032582
0.053694   0.0069217     0.09397    0.030308    0.037778    0.089423    0.016341
0.063113    0.031282    0.089423    0.048172     0.11378     0.11671   0.0043233
0.064737    0.062789    0.084551    0.060515     0.19401     0.14886  -0.0034721
0.063113    0.095919    0.081303    0.063438     0.25118     0.16998  -0.0083442
0.059865     0.12872    0.080003    0.057592     0.26547     0.16738   -0.012567
0.057592     0.16153    0.079679    0.054019     0.22909     0.14009   -0.012892
0.061489     0.19434    0.075456    0.056942     0.15373    0.096244  -0.0063954
0.067011     0.22747    0.069285    0.059216    0.067986     0.05272  -0.0015233
0.066686     0.25637    0.064088    0.056617  -0.0031473    0.023812  -0.0067202
0.053694     0.27067    0.062139    0.054019   -0.043099    0.015367   -0.022311
0.030957     0.26417    0.065387    0.051745   -0.052193    0.021863     -0.0405
0.0088706     0.23851    0.071234    0.049796   -0.045697    0.037454   -0.053168
-0.0050961     0.20733     0.07773    0.047198   -0.036278    0.051096    -0.05804
-0.010293     0.18134    0.085525      0.0433   -0.030756    0.056292   -0.054467
-0.0067202     0.16608    0.092346    0.041027    -0.03238     0.05142   -0.048945
-0.00022403     0.16088    0.097868    0.041351   -0.037902    0.036479     -0.0405
0.0049729     0.16218     0.10144    0.038103   -0.040825     0.01764   -0.028157
0.0043233     0.16348     0.10729    0.029983   -0.040175   0.0023744   -0.013541
0.00075039     0.15763     0.11281    0.016016   -0.035628 -0.00087364   0.0023744
-0.0015233     0.14172     0.11963   0.0010752   -0.031081   0.0085458     0.01829
-0.0018481     0.12483     0.12548   -0.010293   -0.026209     0.02641    0.032582
0.0010752     0.11703     0.13067   -0.018088   -0.018738     0.04395    0.040702
0.0014      0.1206     0.13295   -0.022961   -0.013541    0.060515    0.042326
-0.0015233     0.13035     0.13035   -0.026209   -0.011592    0.074157    0.038103
-0.0057458     0.14042     0.12288   -0.027508   -0.012242    0.088448    0.028684
-0.0067202     0.14659     0.11541   -0.024909   -0.017114     0.10989     0.01764
-0.0047713     0.14886     0.11508   -0.021337   -0.022636     0.14691    0.015042
-0.00022403     0.14821     0.12028   -0.020037   -0.024909     0.20408    0.024461
0.0046481     0.14691     0.12775    -0.01614    -0.02426     0.27067    0.042975
0.0088706     0.14594     0.13327  -0.0060706   -0.020687     0.33205    0.060515
0.016016     0.13749     0.13587   0.0056225    -0.01614      0.3772    0.073832
0.024137     0.11346     0.13879    0.016666    -0.01549     0.39831    0.081303
0.03453    0.074482     0.14009    0.023487   -0.023285     0.39474    0.083576
0.047198    0.032582     0.13912    0.027709   -0.034654     0.37136    0.085525
0.062139  -0.0050961      0.1336    0.029009   -0.035953     0.33595    0.093321
0.075781   -0.026533     0.12093    0.031282   -0.019063     0.30217     0.11021
0.084876   -0.028482     0.10177    0.038753    0.014392     0.28073     0.13165
0.091047   -0.016789    0.078055    0.047847     0.05207     0.27099     0.14399
0.09397   0.0046481    0.054993    0.052395    0.080328      0.2606     0.14139
0.093321    0.026735     0.03583     0.05207    0.084551     0.23169     0.12645
0.091372    0.046873    0.023162    0.051745    0.062464     0.17485     0.10729
0.086824    0.062139    0.016666    0.054668     0.02706    0.097218    0.089098
0.083576     0.06831    0.015367    0.059541  -0.0060706    0.016666     0.07773
0.080653    0.061489    0.018615    0.062789   -0.026858   -0.048945    0.074806
0.075131     0.05272    0.023487    0.061814   -0.033354   -0.091495    0.078379
0.067661    0.055318    0.029658    0.058566   -0.029457    -0.11033    0.087474
0.064413    0.074157     0.03583    0.056617   -0.025234    -0.11066     0.10014
0.070584     0.11118    0.041351    0.057592   -0.027833   -0.097991     0.10891
0.084226     0.17095    0.048822    0.060515   -0.036278    -0.08305     0.10956
0.098193     0.24858    0.057917    0.066686   -0.037252   -0.077203     0.10144
0.10534     0.31906    0.067336    0.073507   -0.019712   -0.088896    0.088124
0.10501     0.35479    0.073507    0.079679    0.017965    -0.11586    0.072208
0.097868     0.34082    0.074482     0.08585     0.06961    -0.14931    0.057917
0.083901     0.28561    0.066362    0.086175     0.12385    -0.18471    0.045574
0.061489      0.2135    0.047847    0.078379      0.1677    -0.21232    0.031282
0.033231     0.15731     0.01764    0.058241     0.18881    -0.23214    0.015692
0.0046481     0.13879   -0.025884    0.031932     0.18004    -0.23831   0.0010752
-0.021012     0.15633   -0.089871   0.0039985     0.14789    -0.22759   -0.012567
-0.038551     0.18427    -0.18309   -0.031406     0.10177    -0.19836   -0.025884
-0.044723     0.18751    -0.29547   -0.076554    0.053694    -0.15256   -0.036602
-0.040825     0.14724    -0.40396    -0.12657    0.016016   -0.096042    -0.04115
-0.029132    0.070909    -0.47802     -0.1714  -0.0015233   -0.034004    -0.04115
-0.021012   -0.011592     -0.4962    -0.20225  0.00075039    0.030633   -0.037902
-0.02426   -0.065186    -0.46113    -0.21525    0.015692     0.09397   -0.034978
-0.038551   -0.076554    -0.39584    -0.21362    0.030957     0.15049   -0.035953
-0.051219   -0.050244     -0.3377     -0.2094    0.042975     0.19661   -0.036278
-0.056091  -0.0024977    -0.30749    -0.21167    0.054668     0.23299   -0.033354
-0.053168    0.049796     -0.2919    -0.22109    0.062464     0.26417    -0.02426
-0.04862    0.088448    -0.24643    -0.23311    0.064088     0.30217   -0.010943
-0.045047    0.097218    -0.14152    -0.23084    0.061489     0.34732   0.0043233
-0.045047    0.066686    0.019264     -0.2016    0.054019     0.39247    0.021213
-0.043099  -0.0018481     0.21447    -0.14152    0.042975     0.43242    0.033231
-0.037252   -0.087922      0.4256   -0.045047    0.030957      0.4662    0.038428
-0.027508    -0.17432     0.62016    0.073832    0.022837      0.5016    0.040702
-0.017764     -0.2513     0.75138     0.18816    0.021538     0.54903    0.048497
-0.008669    -0.31626     0.78484     0.28041    0.028684     0.60359    0.060515
-0.00087364    -0.37733     0.72085     0.34245    0.042975     0.64354    0.073182
0.00042559    -0.44326      0.5945     0.37655    0.059865     0.63835    0.083901
-0.011917    -0.51829     0.45288     0.38532    0.070909     0.57014    0.089423
-0.04115    -0.61054      0.3314     0.36616    0.069934     0.44574    0.086824
-0.086948       -0.72     0.23818     0.32134    0.051745     0.28496    0.080653
-0.14476     -0.8379     0.16023     0.25605    0.015042     0.11866    0.071558
-0.20615    -0.94249    0.082927     0.18102    -0.03303   -0.024585    0.055318
-0.26592     -1.0117   0.0039985     0.10794   -0.079802     -0.1308    0.031282
-0.31951     -1.0315   -0.065186    0.044924    -0.11066    -0.20453   0.0023744
-0.35946    -0.99511    -0.11488  0.00042559    -0.12203     -0.2565   -0.029132
-0.37278    -0.90254    -0.15093   -0.026533    -0.12268    -0.29223   -0.053817
-0.35037    -0.76482    -0.18374   -0.039851    -0.12852    -0.31789   -0.063886
-0.29255    -0.60307    -0.22012   -0.045047    -0.14574    -0.33802   -0.062262
-0.21427    -0.43774    -0.25812   -0.042774    -0.16847    -0.35686   -0.051544
-0.13275     -0.2893    -0.29223   -0.036602    -0.18894    -0.37927   -0.037902
-0.06551    -0.16847    -0.31496   -0.027508    -0.20031    -0.40136    -0.02426
-0.021986    -0.07428    -0.31854   -0.011267    -0.19738    -0.42117   -0.016464
-0.0034721   0.0023744    -0.30327    0.014068    -0.18017    -0.43806    -0.01549
-0.0018481    0.067336    -0.27566    0.040702    -0.15646    -0.44943   -0.018738
-0.0021729     0.12125    -0.23831    0.058241    -0.13469    -0.45528   -0.025559
0.0088706     0.15991    -0.18569    0.061489    -0.12268     -0.4569   -0.033354
0.033556     0.18362    -0.10611    0.055643     -0.1217     -0.4543   -0.038876
0.064088     0.18881   0.0065969    0.050446    -0.12917    -0.44359   -0.039201
0.091372     0.18232     0.13717    0.052395    -0.13632    -0.42767   -0.037252
0.11118     0.17517     0.25767    0.062464    -0.14022    -0.41305   -0.033354
0.1219     0.17355     0.34505    0.079029    -0.13892    -0.40104   -0.030431
0.12548     0.18134     0.39442    0.097543    -0.13307    -0.39064   -0.025559
0.12613     0.19499     0.40156     0.10664    -0.12755    -0.37927   -0.016789
0.12678     0.20668     0.35836    0.097868     -0.1308    -0.36563  -0.0067202
0.12807     0.21447     0.26677    0.072533    -0.14346    -0.35264  -0.0024977
0.12743     0.21447     0.14691    0.037778    -0.15905    -0.34355  -0.0089938
0.1245     0.21025    0.030957  0.00042559    -0.16458     -0.3338   -0.023285
0.12613     0.21837   -0.054142   -0.033354    -0.15288    -0.32503   -0.037902
0.13879     0.25572   -0.092794   -0.055441     -0.1282    -0.32276   -0.046996
0.16023     0.32751    -0.09117   -0.062262    -0.10124    -0.32958    -0.04862
0.18134       0.423   -0.069733   -0.052843   -0.078503     -0.3416   -0.046347
0.19336     0.52109   -0.052843   -0.029132   -0.059664    -0.35426   -0.043423
0.19758     0.59937   -0.053168  0.00075039   -0.036278    -0.35784   -0.038227
0.19109     0.64095   -0.073955     0.03518  -0.0060706    -0.33672   -0.031081
0.17582     0.64062    -0.10611    0.066686    0.028684    -0.27111    -0.01549
0.15763     0.61464    -0.13729    0.092671    0.054993    -0.15711   0.0049729
0.14594     0.58573    -0.15711     0.10664    0.063438   -0.021337    0.022512
0.13782     0.56721    -0.16588     0.10696    0.051096    0.092021    0.031607
0.1349      0.5552    -0.16555    0.099167    0.029009     0.15211    0.029333
0.13457     0.54383     -0.1597    0.085525    0.016016     0.15276     0.01764
0.13944     0.53408    -0.15256    0.067986    0.026085     0.10534   0.0091954
0.14204     0.52499    -0.14964    0.047523    0.052395    0.029658    0.012119
0.13652      0.5068    -0.15548     0.02706    0.081303   -0.048945    0.024137
0.11833     0.46717    -0.16847    0.009845     0.10112    -0.10709    0.038753
0.089748     0.40579    -0.18147  -0.0050961     0.10989    -0.13112    0.044924
0.059865      0.3392    -0.18634   -0.021661     0.10761    -0.12073    0.039078
0.040052     0.28756    -0.17594   -0.044723    0.097543   -0.093769    0.025761
0.033556     0.24598    -0.14639   -0.073955    0.081303   -0.068109    0.011794
0.033556     0.19109    -0.10416    -0.10481    0.067011   -0.045372      0.0014
0.028684    0.094295   -0.059989    -0.13145    0.062789   -0.026209  -0.0028225
0.0091954   -0.056741   -0.027508    -0.14769    0.074806  -0.0067202  -0.0021729
-0.026209    -0.24935   -0.017114    -0.14314     0.10209    0.012768   0.0039985
-0.067134    -0.43969   -0.030106    -0.11358     0.13132    0.033881    0.012119
-0.09929    -0.57091   -0.061937   -0.065186     0.14464    0.050771    0.017965
-0.11358    -0.60209   -0.097017   -0.012567      0.1362    0.055968    0.020888
-0.10774    -0.52804    -0.11683    0.028684     0.10891    0.045574    0.019914
-0.092145     -0.3809    -0.10968     0.05142    0.076431    0.029009    0.016016
-0.080451    -0.21492   -0.080451    0.064413    0.051745    0.019914    0.010819
-0.079477     -0.0837   -0.041475    0.074482    0.039727    0.027709   0.0072465
-0.093769    -0.01484  -0.0041217    0.085525    0.039727    0.053694   0.0091954
-0.11878  -0.0031473    0.021538    0.094945    0.054344    0.092996    0.019589
-0.14152   -0.018413    0.036804     0.10047    0.075131     0.14074    0.034206
-0.15061   -0.027183    0.050121    0.098517    0.090722     0.19693    0.042001
-0.14022    -0.01549    0.067661    0.088124    0.099167     0.25832    0.041676
-0.11261   0.0056225    0.080653     0.06896     0.10404     0.31516    0.040377
-0.073631    0.015692    0.080653    0.044275     0.10956     0.36031    0.043625
-0.03238  -0.0076946    0.058566    0.016991     0.11021     0.38857    0.053694
0.0059473   -0.075579     0.01764   -0.015165    0.099817     0.40546    0.062464
0.038103    -0.18212   -0.031406   -0.054142    0.076106     0.41683    0.067661
0.061814    -0.29937   -0.076879   -0.092794    0.043625     0.42755    0.071234
0.073832     -0.3861    -0.10741    -0.11456   0.0065969     0.43729    0.070909
0.081303    -0.40396    -0.11326    -0.10644   -0.023935     0.43177    0.069934
0.084876    -0.34062   -0.097341   -0.070058   -0.042449     0.40156    0.071234
0.087474    -0.22012    -0.06681   -0.018738   -0.047321     0.34635    0.071883
0.093321   -0.080127   -0.033354    0.038103   -0.041799     0.27684    0.065712
0.10209    0.047523   -0.012242    0.093645   -0.035303     0.20635    0.051745
0.10631      0.1336   -0.013541     0.14009   -0.032705     0.14659    0.033556
0.10177     0.16738   -0.038227      0.1768   -0.028482     0.10469    0.017965
0.087799     0.15731    -0.08305     0.20765   -0.021337    0.080003   0.0088706
0.070909     0.13035    -0.13275     0.22877  -0.0041217     0.06961   0.0052977
0.053044     0.11866    -0.17367     0.23948    0.022512    0.064737   0.0039985
0.038428     0.14951    -0.19154     0.23786    0.050771    0.059216   0.0017248
0.029983     0.23299    -0.17887     0.22487    0.070909    0.056617  -0.0028225
0.027385     0.36161    -0.13729     0.20343     0.08585    0.061814   -0.010618
0.032906     0.50745   -0.067459     0.17907     0.10599    0.078055   -0.018413
0.040052     0.62925     0.03453     0.16218     0.13652     0.10534    -0.02426
0.046548     0.68837     0.15861     0.16056     0.16543     0.13944   -0.024585
0.049147     0.67083     0.27391     0.17355     0.18329     0.17095    -0.01484
0.043625      0.5893     0.34764     0.18946     0.18524     0.18881  -0.0037969
0.028034     0.46977     0.36486     0.19044     0.17387     0.18232  0.00042559
0.0052977      0.3327     0.33595     0.16315     0.15179     0.14854  -0.0060706
-0.021661     0.18751      0.2921     0.10989     0.12255    0.098842    -0.02361
-0.047971    0.031932      0.2567    0.042001    0.087799    0.045574    -0.04992
-0.069083    -0.14476     0.24046   -0.026858    0.050771  -0.0057458   -0.074605
-0.081101    -0.33965     0.24695   -0.089546    0.015367    -0.04992   -0.090196
-0.082076    -0.52641     0.27619    -0.13859   -0.014191   -0.078178   -0.091495
-0.077203    -0.65828     0.33465    -0.16263   -0.029782   -0.081101   -0.076229
-0.062912    -0.69564     0.43047    -0.14541   -0.021012   -0.055766   -0.047321
-0.036927    -0.63035     0.54545   -0.089221    0.020564   -0.011592   -0.016464
-0.0041217    -0.49231     0.63023   -0.025884    0.090397    0.036479   0.0039985
0.026735    -0.32146     0.62925  0.00075039      0.1677    0.073182    0.009845
0.047847    -0.15483     0.51654   -0.036602     0.22779    0.090722   0.0059473
0.062464   -0.018738     0.31841     -0.1321     0.25962    0.087149 -0.00054884
0.06896    0.072208    0.094295    -0.25065      0.2619    0.073182  -0.0050961
0.067336     0.11995   -0.094743    -0.34777      0.2476    0.055643  -0.0047713
0.065062      0.1362    -0.20778    -0.39227     0.22747    0.041351   0.0036737
0.066686      0.1349    -0.23474    -0.37668     0.20993     0.03453    0.020888
0.074482      0.1297    -0.19348    -0.31594     0.18557    0.033881    0.046548
0.086824     0.13132     -0.1178    -0.23636      0.1362    0.031607    0.076106
0.099817     0.15341   -0.044398    -0.16165    0.048497    0.024786     0.10079
0.11183     0.21512   0.0049729    -0.10254   -0.068758     0.01764     0.11606
0.12353     0.32231    0.024137   -0.062262    -0.18147    0.016341     0.12288
0.13587     0.45905    0.020888   -0.036927     -0.2526    0.017965     0.12515
0.14626     0.59645   0.0046481   -0.021012    -0.26689    0.015042     0.11995
0.15666     0.70006   -0.013216   -0.010293    -0.23538   0.0033489     0.11313
