0.012119      -2.687    -0.80185    -0.32568    0.016016     0.53376   -0.015165
0.15666     -2.6633    -0.68394    -0.22791     0.06084     0.64777   0.0023744
0.26514      -2.344    -0.54265    -0.14866     0.12288     0.72572    0.027709
0.34959     -1.7477    -0.37505   -0.077203     0.19856      0.7582    0.060515
0.42235    -0.99966    -0.15646     0.01764     0.28463     0.74911    0.095594
0.49056    -0.26559     0.13555     0.15244     0.37038     0.70688     0.13132
0.54026     0.31354     0.47367     0.29438     0.43339     0.63575     0.16088
0.5461     0.65491     0.77477      0.3824     0.45191     0.54091     0.17582
0.48179     0.76665     0.94854      0.3785     0.40481     0.41975     0.17322
0.33303     0.75203     0.94984     0.29243     0.28301     0.27326     0.14789
0.10177     0.73384     0.81797      0.1742    0.091696     0.10761     0.10047
-0.17659     0.78581     0.63477    0.080328    -0.13112   -0.054792    0.039727
-0.42929     0.92515     0.45678    0.042001    -0.32406    -0.18666   -0.014191
-0.58065      1.1233     0.29633    0.056617    -0.43644    -0.26137   -0.043748
-0.5865      1.3136     0.14139     0.09397    -0.45398    -0.27436   -0.045047
-0.4569      1.4435   -0.014191     0.11931    -0.40234    -0.23961   -0.026533
-0.24286      1.5053    -0.14541     0.11508    -0.32536    -0.17497  0.00010078
-0.0089938      1.5036    -0.21265     0.10339    -0.25715   -0.094093    0.022188
0.18784      1.4208    -0.19998      0.1232      -0.212   -0.011917    0.032582
0.31939      1.2233    -0.14216     0.18751    -0.19056    0.051096    0.030308
0.38337     0.88488    -0.10221     0.27261    -0.18959    0.066037     0.01829
0.39702     0.41001    -0.12722     0.33303     -0.2081    0.017316 -0.00054884
0.38695    -0.14671    -0.20875      0.3457    -0.23636   -0.078503   -0.020037
0.3798    -0.68914     -0.2893     0.32069     -0.2552    -0.18407   -0.035303
0.38922     -1.1247    -0.31171     0.28073     -0.2474    -0.25975   -0.042124
0.4191     -1.3488    -0.25715     0.23689    -0.21167     -0.2893   -0.043748
0.46263     -1.2709    -0.15418     0.18589     -0.1597    -0.27664   -0.039201
0.50485    -0.89637   -0.056416     0.11833    -0.10546    -0.23961   -0.031081
0.52337    -0.37798   -0.015165     0.03518   -0.061937    -0.19511   -0.022961
0.48634    0.033231   -0.045047   -0.059664   -0.035628    -0.15093   -0.020687
0.37915     0.16315    -0.12235    -0.15483   -0.025559    -0.10449   -0.029457
0.2187    0.026085    -0.19901    -0.23311   -0.024909    -0.04927   -0.049595
0.053044    -0.22791    -0.23603    -0.27891   -0.023935    0.016666   -0.070382
-0.06616    -0.44878    -0.21882    -0.28443    -0.01484    0.082277   -0.080776
-0.10936    -0.55922    -0.16523    -0.25098   0.0062721      0.1297   -0.079477
-0.084674    -0.56312    -0.10156    -0.18796    0.032906     0.15179   -0.071357
-0.020037     -0.4962   -0.045047    -0.10611     0.06019     0.15179   -0.060313
0.061814    -0.34517   0.0036737   -0.012242    0.084551     0.13814   -0.054467
0.14074   -0.069408    0.054344    0.097543    0.098517     0.11508   -0.058365
0.19174     0.32458     0.10924     0.22877    0.096893    0.079679   -0.075255
0.20278     0.73936     0.15373     0.37298    0.078704    0.034206    -0.09994
0.17387      1.0405     0.17095     0.50355    0.049147   -0.013216    -0.12755
0.12548      1.1528     0.16575       0.588    0.019914   -0.055766    -0.14964
0.077405      1.1038      0.1651     0.61788   0.0033489    -0.09182    -0.15451
0.048822     0.99011     0.19531     0.60976    0.011469     -0.1178    -0.13729
0.062139     0.91281     0.26644     0.58768    0.042001    -0.12885    -0.10091
0.13782     0.92385     0.35934     0.56884      0.0865     -0.1204   -0.050894
0.26222     0.97128     0.41845     0.56169     0.13295   -0.086948   0.0046481
0.35739     0.90664     0.37265        0.55     0.16965   -0.043099    0.056942
0.31516     0.59125      0.1664      0.5016     0.18459  -0.0083442    0.090397
0.070909    0.016341    -0.19413     0.39409      0.1742  -0.0018481    0.095269
-0.33218    -0.66088    -0.63587     0.23656     0.14691   -0.027508    0.070909
-0.7528     -1.2358     -1.0643     0.06019     0.10761   -0.076229    0.029658
-1.0455     -1.6103     -1.3982    -0.10903    0.065387    -0.12527  -0.0099683
-1.1309     -1.8065     -1.5872    -0.26397    0.029983    -0.15808   -0.034654
-1.0172     -1.8906     -1.6025    -0.41403   0.0088706     -0.1636     -0.0405
-0.78204     -1.8964      -1.445     -0.5826  -0.0018481    -0.13924   -0.031406
-0.52674     -1.7938     -1.1409    -0.79503  -0.0054209   -0.090196   -0.011917
-0.32211     -1.5473    -0.74014     -1.0455   -0.007045   -0.029782     0.01764
-0.19316     -1.1653    -0.28118     -1.2666  -0.0096434    0.022188    0.050771
-0.11293    -0.72422     0.20116     -1.3579   -0.022311    0.058241    0.080328
-0.045047    -0.33705     0.65102     -1.2569   -0.050244    0.080003     0.10436
0.036479   -0.072656     0.97875    -0.99706   -0.088247    0.094295     0.12353
0.13912     0.10306      1.0859    -0.69466    -0.12008     0.10469     0.13749
0.25507     0.27749     0.93035    -0.47996    -0.13112     0.10859     0.14691
0.36941     0.50095     0.58281     -0.4228     -0.1217    0.099492     0.15503
0.45613     0.71857     0.19596    -0.49068   -0.096042    0.072858     0.15861
0.49283     0.83193   -0.067459    -0.57351   -0.069408    0.029658     0.15731
0.46815     0.83843    -0.10286    -0.54298   -0.055441   -0.019063     0.15471
0.37623     0.81797    0.084551    -0.32503   -0.060313   -0.067459     0.15373
0.22714     0.82609     0.38175    0.036154   -0.078178    -0.11228     0.15081
0.049796     0.84038     0.62698     0.40838   -0.098316    -0.15191     0.13717
-0.1217     0.78354     0.70266     0.66238    -0.11586    -0.18731     0.10631
-0.25715     0.61399     0.58053     0.74391    -0.12527    -0.22109    0.059216
-0.33478     0.40286     0.31841      0.6796    -0.12203    -0.25162   0.0069217
-0.34972     0.29113    0.032257     0.53896    -0.10546    -0.27436   -0.036927
-0.31269     0.33075    -0.15841     0.39214   -0.079477    -0.28995    -0.06551
-0.2526     0.42625    -0.20648     0.27164   -0.045697    -0.29742   -0.077203
-0.19738     0.44281    -0.15938     0.18199  -0.0083442    -0.30262   -0.073955
-0.15548     0.35447   -0.098641     0.11151    0.024137    -0.31789   -0.064211
-0.12235     0.26319   -0.076879    0.053044    0.044275    -0.34972   -0.055441
-0.088247     0.29373    -0.06616    0.013418     0.05207    -0.38577   -0.048945
-0.047971     0.49771    0.019589   0.0091954    0.055968    -0.40396   -0.041799
0.00010078     0.83973     0.24501     0.05142    0.064088    -0.38739    -0.02426
0.05142      1.2392     0.57956     0.12158    0.076106    -0.32958   0.0056225
0.097543      1.5949     0.90242      0.1781      0.0852    -0.24188    0.043625
0.13684      1.8236      1.0811     0.19661    0.083576    -0.13827    0.080653
0.17777      1.8749      1.0642     0.18134    0.067661   -0.026533     0.11346
0.22877      1.7472     0.89267     0.15211    0.042326    0.087799     0.13977
0.29438      1.5118     0.65978      0.1297    0.021538      0.2109     0.15991
0.36194      1.2652     0.44281     0.12515     0.01829     0.35999     0.17355
0.41326      1.0492     0.27229     0.13392    0.036154     0.54253     0.18004
0.43469     0.83713     0.15016     0.14399    0.063113     0.74748     0.18329
0.44379     0.60359    0.081952     0.15179    0.092996     0.94854     0.18589
0.47724     0.36843    0.073507      0.1625     0.12353      1.1223     0.19401
0.56202     0.20246     0.10047     0.17712     0.15146      1.2652     0.20993
0.68285     0.19141     0.09397     0.18914     0.16965      1.3893     0.23331
0.77607     0.35739  -0.0057458     0.18362     0.16998      1.4991     0.25345
0.7556     0.54285    -0.21622     0.14789     0.15471      1.5845     0.25345
0.55974     0.44898    -0.50562    0.072533     0.12645      1.6293     0.21837
0.19888    -0.13892    -0.79958   -0.034654     0.09397      1.6121     0.14399
-0.23733     -1.1358     -1.0097    -0.14704    0.064413      1.5247    0.044924
-0.6258     -2.1972     -1.0792    -0.23603    0.042001      1.3734    -0.05739
-0.87526      -2.942     -1.0042    -0.28313    0.032257       1.172    -0.14184
-0.96198     -3.1369    -0.82653    -0.27826    0.031282     0.94269    -0.19868
-0.91683     -2.7757    -0.61119    -0.22629    0.039727     0.70851    -0.23474
-0.79178     -2.0299     -0.4137    -0.14314    0.057592     0.48731    -0.25422
-0.62418     -1.1413    -0.26039   -0.052193    0.086175     0.30217    -0.25552
-0.42637    -0.32341    -0.14509    0.031282     0.12158     0.16445    -0.23246
-0.20128     0.26839   -0.040175     0.10566     0.15666    0.070584    -0.18374
0.036479     0.54253    0.067011     0.17192     0.18622   0.0069217     -0.1204
0.23981     0.45613     0.15763     0.23818     0.21188   -0.034654   -0.055766
0.3431    0.059541     0.20311     0.31451     0.23331   -0.052518  -0.0041217
0.29243    -0.48289     0.19011     0.40124     0.24273    -0.04927    0.025436
0.089748    -0.94346     0.11541     0.49024     0.23948    -0.03238    0.033881
-0.19121     -1.1354  -0.0080194     0.56754     0.22584  -0.0083442    0.027709
-0.44099    -0.98342    -0.13372     0.62828     0.21123    0.017316     0.01764
-0.57513    -0.57578     -0.2055     0.68415     0.20181    0.020564   0.0085458
-0.56247    -0.09929    -0.18666     0.73741     0.19044   -0.027508   0.0033489
-0.43254     0.26157   -0.089546     0.77347     0.16738    -0.13599   0.0046481
-0.25455     0.39864    0.022188     0.76275     0.12937    -0.28963    0.013743
-0.097991     0.30477    0.089098     0.67765    0.076431    -0.45723    0.024786
-0.0093186    0.037129    0.086175     0.50972    0.010495    -0.60599    0.032257
0.0023744    -0.32016     0.02706     0.26514   -0.060313    -0.71675    0.029009
-0.036602    -0.69694   -0.071682   -0.054142    -0.12885    -0.78821    0.013093
-0.083375     -1.0494    -0.18504    -0.43677    -0.18829    -0.83011   -0.010293
-0.098641     -1.3417    -0.26722    -0.84602    -0.22661    -0.85642   -0.033679
-0.067134     -1.5206    -0.26754     -1.2072    -0.23603    -0.88013    -0.04862
0.0072465     -1.5203    -0.17042     -1.4268    -0.21914    -0.90514   -0.057715
0.098842     -1.2887   -0.017439     -1.4401    -0.18277    -0.92917   -0.065835
0.18394    -0.82588      0.1297     -1.2449    -0.13762    -0.94606   -0.073631
0.25183     -0.2055     0.23721    -0.90092   -0.092145    -0.95223   -0.077528
0.31224     0.44086     0.30704    -0.50627   -0.045372    -0.94249   -0.081426
0.37688     0.95861     0.35024    -0.14379   0.0010752    -0.90449    -0.08305
0.44898      1.2493     0.37103     0.15179    0.040377    -0.83628   -0.076879
0.50485      1.3198     0.35674     0.38337    0.054993    -0.75053    -0.06616
0.51037      1.2565     0.28398     0.56527    0.030308    -0.67193   -0.059339
0.44379       1.136      0.1664     0.70169   -0.037577    -0.61801   -0.064536
0.3038      0.9716    0.067986     0.77087    -0.13892      -0.593   -0.083375
0.11118     0.74748    0.040702     0.74748    -0.25422    -0.58423    -0.10709
-0.10091      0.4714    0.079029     0.62503    -0.35784    -0.58065     -0.1282
-0.2919     0.18102     0.14854      0.4295    -0.43124    -0.57318    -0.14346
-0.42994   -0.063886     0.23071      0.2109    -0.46405    -0.55759    -0.15256
-0.49556     -0.2159     0.33368    0.026085     -0.4582    -0.52966    -0.15516
-0.48451    -0.25585     0.46912   -0.085648    -0.42605    -0.49003    -0.14964
-0.41338    -0.19089     0.62633    -0.10936    -0.38122    -0.44066    -0.14054
-0.30814   -0.034654     0.76242    -0.05804    -0.32633     -0.3848    -0.12852
-0.19576     0.21058     0.83031    0.030308    -0.25942    -0.32763    -0.11586
-0.088572     0.52986     0.79783     0.10826    -0.18049    -0.28216    -0.10026
0.0052977     0.86799     0.66303     0.14367   -0.097666    -0.26364     -0.0837
0.079029      1.1593     0.45093     0.12515   -0.027508    -0.27241   -0.068434
0.13522      1.3364     0.19758    0.063113     0.02641    -0.28865   -0.060638
0.18037      1.3471   -0.058365   -0.019388    0.064088     -0.2945    -0.05804
0.21837      1.1632    -0.27599    -0.10579      0.0865    -0.28346   -0.061288
0.2502     0.76535     -0.4137    -0.18666    0.089748    -0.25617   -0.063237
0.28106     0.15244     -0.4543    -0.25812    0.080653     -0.2172   -0.061937
0.31257    -0.56961    -0.41533    -0.31496    0.067986    -0.16945   -0.052843
0.3353     -1.1945    -0.33575    -0.34907    0.042651    -0.11098   -0.034329
0.33465     -1.5645    -0.25975    -0.36173   -0.021986   -0.044723   -0.011917
0.29503     -1.6733    -0.22986    -0.36044    -0.14087    0.022512   0.0056225
0.20603     -1.6392    -0.27241    -0.35199    -0.29353    0.083901    0.010819
0.068635     -1.6083    -0.38545    -0.33705    -0.43871     0.13327   0.0069217
-0.098316     -1.6525    -0.53518    -0.30652    -0.53681      0.1664  -0.0063954
-0.2513     -1.7211    -0.66835     -0.2539    -0.56929     0.18427   -0.025234
-0.33575     -1.6665    -0.75703    -0.16847    -0.53875     0.19661    -0.04115
-0.31951     -1.3641    -0.80802   -0.044073    -0.46632     0.21512    -0.04862
-0.21362    -0.80477     -0.8405       0.131     -0.3718     0.24533   -0.050894
-0.065186   -0.093444    -0.86031     0.35447    -0.26104     0.28398   -0.056416
0.079354     0.61074    -0.85284     0.59125    -0.13469     0.32783   -0.061937
0.2057      1.1522    -0.79438     0.77119  0.00075039     0.37071   -0.059989
0.31679      1.4247    -0.66575     0.82284     0.13002     0.41326   -0.034654
0.41845      1.3981    -0.47055       0.715     0.23299     0.46133    0.014068
0.5107      1.1434    -0.22012     0.48731     0.29438     0.51654    0.073507
0.58053     0.78613    0.084226     0.23689     0.31062     0.57111     0.12645
0.60847     0.41391     0.43307    0.067011     0.29957     0.61366     0.15471
0.57339     0.11801     0.77801    0.033556     0.28788     0.63607     0.15731
0.47075  -0.0041217      1.0245     0.11736     0.30185     0.63315     0.14561
0.32686    0.078055      1.0749     0.23559     0.34927     0.59742     0.13749
0.169      0.3012     0.88845     0.30445     0.41715     0.52402     0.14042
0.012119     0.57176     0.50842      0.2934     0.47789      0.4217     0.14724
-0.14964     0.78906    0.045249     0.22389      0.5042     0.29697     0.14919
-0.31724      0.8485     -0.3718     0.14302     0.48374     0.16218     0.14529
-0.47672      0.6822    -0.65406    0.082277     0.42592    0.040052     0.14821
-0.59657     0.32686    -0.77099    0.044924     0.35252   -0.046022     0.15796
-0.65374    -0.10936    -0.73624     0.01894     0.28268   -0.077853     0.17485
-0.65763    -0.53226    -0.58975   0.0095202     0.23299   -0.056091     0.19271
-0.63587    -0.88403    -0.35199    0.039078      0.2109   0.0095202     0.20376
-0.60177     -1.1481   -0.021012     0.12678     0.21285     0.10209     0.20895
-0.54785      -1.341     0.36941     0.26287     0.22357     0.19304     0.21155
-0.45625     -1.4862     0.73157     0.40319     0.22552     0.25248        0.22
-0.32471     -1.5863     0.97842     0.48764     0.20246      0.2593     0.24176
-0.17237     -1.6145      1.0502     0.44476     0.14984     0.21382     0.27229
-0.026533     -1.5161     0.93067     0.23396    0.081627     0.13067       0.296
0.094945     -1.2407     0.66141     -0.1282    0.016991    0.032582     0.29892
0.18946    -0.78658     0.33823    -0.55175   -0.026533    -0.05739     0.28138
0.26352    -0.21037    0.065387    -0.91553   -0.038876    -0.11586     0.25085
0.32296     0.37948   -0.094418     -1.1228   -0.028157    -0.12657      0.2148
0.37038     0.86474     -0.1256     -1.1338  -0.0080194    -0.09117     0.18037
0.40481      1.1733    -0.04115    -0.97562    0.017316   -0.023935     0.14886
0.43209      1.3253     0.11183    -0.72454    0.051096    0.052395     0.12223
0.4571      1.4065     0.26125    -0.47184    0.087149     0.11541    0.096893
0.47854       1.466     0.32816    -0.28898     0.10826     0.14432     0.06896
0.48959      1.4764     0.26644    -0.19933     0.10209     0.13327    0.035505
0.46263      1.3516    0.092996    -0.18666    0.064413    0.089423  -0.0028225
0.35934       1.044    -0.14152    -0.20778 -0.00022403     0.02706   -0.044398
0.16868     0.64095    -0.36271    -0.22759   -0.073306   -0.037577   -0.082076
-0.050894     0.34017     -0.5066    -0.22791    -0.12917   -0.088247    -0.10611
-0.20518      0.3025    -0.53616     -0.2016    -0.15126    -0.10806    -0.10286
-0.22629     0.51492     -0.4686    -0.15483    -0.13729   -0.093444   -0.067459
-0.11358     0.83063    -0.36109    -0.10026    -0.10221   -0.059014   -0.012892
0.055318      1.0408    -0.28346   -0.042124   -0.066485   -0.030106    0.044924
0.14886     0.91801    -0.28151    0.018615   -0.054142   -0.028482    0.082927
0.059865     0.34927    -0.35686    0.067011   -0.071682   -0.064211    0.086175
-0.2042    -0.53681    -0.47542     0.06896    -0.10774    -0.12495    0.055968
-0.53258     -1.4203    -0.58878 -0.00022403    -0.14314    -0.19024   0.0043233
-0.77684     -2.0234    -0.66088    -0.13437    -0.16263    -0.24253   -0.048296
-0.83823     -2.1979    -0.65569    -0.28216    -0.15905    -0.27339   -0.084349
-0.71188     -1.9455    -0.52901    -0.36563     -0.1334    -0.28476   -0.097666
-0.47282     -1.3972    -0.26039    -0.32243    -0.10221    -0.28768   -0.092469
-0.23603    -0.74078     0.09462    -0.13697   -0.081426    -0.29125   -0.085973
-0.093444    -0.14216      0.4204     0.13912   -0.081426    -0.29742   -0.085973
-0.070382     0.32523     0.60522     0.39052   -0.091495    -0.30002   -0.095393
-0.11878     0.66791     0.59905     0.48634    -0.10059    -0.28443    -0.10611
-0.15743      0.9284     0.44606     0.37623    -0.10286    -0.23538    -0.10968
-0.1308      1.1213      0.2619     0.14172   -0.093769    -0.14801    -0.10221
-0.041799      1.2373     0.15276    -0.06616   -0.068758   -0.039526   -0.085973
0.070259      1.2756     0.15698    -0.14476   -0.027508    0.064413   -0.067459
0.16283      1.2467     0.25443   -0.069408    0.026735     0.13587   -0.052193
0.22194      1.1636     0.40579     0.11801    0.091696     0.15796    -0.04115
0.26319       1.031     0.58118     0.34212     0.15471     0.13262   -0.030106
0.30769     0.83973     0.74748     0.53311     0.21058    0.079679  -0.0099683
0.35836     0.59222     0.86344      0.6286     0.24858    0.023162    0.016666
0.3863     0.28756     0.88293      0.5932     0.25735   -0.021986    0.041351
0.34927   -0.073306     0.77054     0.43015     0.23396   -0.048296    0.054019
0.22941    -0.45138     0.53798     0.17615     0.18199   -0.057065    0.053694
0.049472    -0.76287     0.24176     -0.1269     0.10566   -0.054142    0.039727
-0.14184    -0.94282   -0.048945    -0.44001    0.013418   -0.048296    0.014717
-0.29417    -0.98926    -0.28053    -0.71058     -0.0824   -0.042124   -0.018413
-0.37278    -0.93145     -0.4267    -0.87948    -0.17172   -0.032055   -0.057065
-0.36368    -0.77521    -0.47769    -0.90481    -0.24513   -0.015815   -0.090521
-0.27371    -0.51082    -0.44261    -0.79568    -0.30457   0.0075714    -0.11033
-0.1334    -0.16458    -0.35296    -0.60924    -0.35524    0.034206    -0.10579
0.01829     0.17225     -0.2565    -0.41598    -0.38999    0.056617   -0.083375
0.15503     0.40741    -0.19348     -0.2591    -0.39616    0.072208   -0.054467
0.27521     0.55974    -0.17562    -0.13892    -0.36726    0.084876   -0.025234
0.3863     0.77022    -0.18017    -0.03238    -0.30327    0.096893  0.00042559
0.48017      1.1567    -0.17465    0.079679    -0.22077     0.10112     0.01829
0.52986      1.6488    -0.13145     0.20018    -0.14509    0.091047    0.024137
0.50842      2.0146   -0.045047     0.32426   -0.098641    0.061489    0.016666
0.41488      2.0503     0.06961     0.44801   -0.088247    0.022188   0.0017248
0.28723      1.7453     0.21642     0.57663   -0.094093  -0.0044465  -0.0099683
0.17387      1.2591     0.41098     0.70851   -0.093119  -0.0018481    -0.01549
0.10631     0.79815     0.64582     0.82024   -0.077203    0.027385   -0.015165
0.096569     0.52694     0.86929     0.87741   -0.059014    0.061489  -0.0089938
0.13977     0.54805      1.0213     0.85142   -0.046996     0.08585   0.0052977
0.21252     0.87611      1.0651     0.73709   -0.039851    0.097543    0.021213
0.28236      1.4049      1.0151     0.54318   -0.025559     0.10696    0.033556
0.32653      1.9587     0.91443     0.29015      0.0014     0.12937    0.041027
0.34407      2.4076     0.79848    0.017316    0.045249     0.18102    0.054993
0.3366      2.6655      0.6718    -0.22174     0.10501     0.26937    0.082602
0.2895      2.6671      0.5094    -0.39389      0.1729     0.37948     0.11801
0.17972      2.3832     0.28626     -0.5027     0.23039     0.47822     0.14854
-0.00087364      1.8034    0.003024    -0.56669     0.26774     0.53279     0.15731
-0.23344     0.92938    -0.32795    -0.59722     0.28431     0.52921      0.1349
-0.47184     -0.1714    -0.68654    -0.58683     0.28821     0.46425    0.084226
-0.65374     -1.3284     -1.0351    -0.52089     0.28171     0.35024    0.025436
-0.72877     -2.3788     -1.3349    -0.39551     0.26092     0.20863    -0.02426
-0.68817     -3.2463     -1.5554    -0.20778     0.22552    0.072533    -0.05804
-0.56149      -3.944     -1.6775    0.040702     0.18751   -0.025559   -0.080451
-0.40299     -4.5329     -1.6957     0.32231     0.15244   -0.063237   -0.095393
-0.27404     -4.9695     -1.6139     0.58086     0.12353   -0.045697    -0.10514
-0.21427     -4.9695     -1.4268     0.77834     0.10339   0.0036737    -0.10838
-0.21135     -4.9129     -1.1065      0.9323    0.095269    0.065387    -0.10384
-0.21914     -4.1366    -0.62483      1.0843     0.10404     0.13002   -0.088896
-0.19446     -3.0018   -0.018738      1.2526     0.13327     0.18946   -0.070058
-0.1217     -1.7798     0.58865      1.3909     0.17452     0.24533   -0.051219
-0.011592    -0.74826      1.0301      1.4091     0.20863     0.30055   -0.036602
0.10501   -0.073306      1.1918      1.2412     0.21545     0.35447   -0.025559
0.2083     0.26547      1.0616     0.89332     0.17452     0.39604   -0.020687
0.29243     0.41878      0.7241     0.44411    0.081627     0.40806   -0.017439
0.36324     0.55422     0.30802   -0.022961   -0.047321      0.3811   -0.019712
0.42625     0.76145   -0.068109    -0.44554    -0.18829     0.31289   -0.032705
0.48406      1.0434     -0.3299    -0.77456    -0.31691     0.21902   -0.055116
0.54318      1.3571    -0.45723    -0.97367    -0.41695     0.11768   -0.079802
0.60327      1.6706    -0.46178     -1.0295    -0.47672    0.029009    -0.10156
0.65426      1.9928    -0.38122    -0.95841    -0.48581   -0.030106    -0.11423
0.68512      2.3514    -0.25812     -0.7999    -0.43969   -0.043748    -0.10936
0.68902      2.7412    -0.12657    -0.59884     -0.3429   0.0069217   -0.083375
0.68609      3.0848   0.0020496    -0.39876    -0.19803     0.13912   -0.038551
0.7137      3.2417     0.12775    -0.23636  -0.0063954     0.33823    0.022837
0.78841      3.0884     0.25475    -0.12592     0.22617      0.5526    0.093645
0.87286      2.5986      0.3772   -0.059664      0.4727     0.70688     0.15861
0.87221       1.807     0.47042   -0.027508     0.67245     0.73676     0.19758
0.68512     0.72929      0.5016   -0.020687     0.75853     0.62471     0.19239
0.28106    -0.56636     0.44801   -0.033354     0.70104     0.41391     0.14237
-0.26169     -1.8152     0.31224   -0.058365     0.52304     0.18232    0.061165
-0.7947     -2.7215      0.1362     -0.0824     0.28853  -0.0031473   -0.024585
-1.1939     -3.1119   -0.029782    -0.10644    0.065062   -0.098641   -0.093769
-1.3862     -3.0053    -0.15483    -0.14866   -0.098316    -0.10903    -0.13015
-1.3644     -2.5782     -0.2068    -0.21232    -0.17854   -0.071357    -0.12885
-1.1809     -2.0325    -0.14801    -0.26462    -0.18342   -0.028482   -0.094418
-0.9295      -1.494    0.030308     -0.2435    -0.13502   -0.010943   -0.036927
-0.70928     -1.0188     0.25735    -0.11586   -0.068758   -0.032705    0.028359
-0.58293    -0.61833     0.42592    0.078704   -0.012242   -0.096042    0.086824
-0.5524    -0.27761      0.4571      0.2541    0.020239    -0.19251     0.12515
-0.56734    0.019264     0.33823     0.33628    0.037129    -0.31366     0.14074
-0.55792     0.26417     0.10761     0.30152     0.05142    -0.44878     0.14302
-0.47444     0.43242     -0.1623     0.18264    0.073507    -0.58488     0.14529
-0.31171     0.50907    -0.38317    0.042651     0.10436    -0.70148     0.15406
-0.10644     0.47042    -0.49978   -0.061937     0.13814    -0.77976      0.1638
0.083901     0.28918     -0.4962    -0.09994     0.16056    -0.81159      0.1703
0.207   -0.044398    -0.38545   -0.068109     0.15114    -0.80022     0.16998
0.24046    -0.48971    -0.18699    0.024786    0.097218    -0.75735     0.15828
0.19336    -0.97562    0.084876     0.17452   0.0056225    -0.70018     0.13587
0.099492     -1.4411     0.37298     0.36421    -0.10449    -0.64334     0.10631
-0.0015233     -1.8416     0.59645     0.55097    -0.20908    -0.58163    0.075781
-0.077853     -2.1355     0.68155     0.67635    -0.28346    -0.49003    0.050446
-0.11553      -2.282      0.5971     0.68544    -0.31691    -0.34192    0.036804
-0.11423     -2.2459     0.36421     0.55195    -0.31139    -0.14281    0.039078
-0.091495     -1.9968    0.045574     0.30022    -0.27501    0.054668    0.050121
-0.079152     -1.5349    -0.28346   -0.012567    -0.23571     0.18394    0.054019
-0.11423    -0.93015    -0.56149    -0.32601    -0.23181     0.20538    0.034855
-0.19771    -0.30944    -0.74761    -0.60112    -0.30619     0.12288  -0.0060706
-0.28443     0.21707    -0.82361    -0.81711    -0.47996   -0.029457   -0.056741
-0.31561     0.60749    -0.79145    -0.95288    -0.72584    -0.19868    -0.10579
-0.25617     0.87351    -0.65666    -0.98017    -0.96653    -0.33478    -0.13859
-0.11293      1.0359    -0.42442    -0.86389     -1.1114     -0.4124    -0.15223
0.074157      1.1028    -0.10286    -0.58001     -1.0883    -0.43287    -0.14996
0.26255      1.0885     0.27034    -0.14639     -0.8798    -0.42117    -0.14444
0.41618      1.0116     0.60002     0.32263    -0.54558    -0.40851    -0.14281
0.51265      0.8904     0.78029     0.66563    -0.19641    -0.40883    -0.14249
0.5513     0.73741     0.76892     0.77866    0.056942     -0.4241    -0.13599
0.55974     0.56072     0.59775     0.66466     0.15893    -0.44391    -0.11521
0.56851     0.39117     0.34115     0.41715      0.1206    -0.45983   -0.080776
0.58735     0.30867      0.0852     0.16185   0.0062721     -0.4699     -0.0405
0.60002     0.41585    -0.10741   -0.021986    -0.10774    -0.47834  -0.0037969
0.57371     0.72117     -0.2146    -0.12203     -0.1675    -0.49328    0.022512
0.48634      1.0723    -0.25487    -0.16458    -0.15288    -0.50822    0.035505
0.3327       1.263    -0.26592    -0.18699     -0.0824    -0.50855    0.039727
0.12223      1.1785    -0.28735    -0.20875    0.009845    -0.48776    0.030308
-0.12008     0.86149    -0.34614    -0.23474    0.096244    -0.45755   0.0059473
-0.35426     0.44541    -0.44976    -0.24708     0.16478    -0.43677   -0.033354
-0.53031    0.065062    -0.56961    -0.20453     0.22584    -0.43124   -0.080127
-0.60469    -0.19121    -0.64757   -0.069733     0.29957    -0.43254    -0.12105
-0.55792    -0.28313    -0.62483     0.14172      0.3824    -0.43222    -0.14119
-0.40201    -0.19608    -0.47769     0.35576     0.44866    -0.42767    -0.13924
-0.18471    0.061165    -0.24415      0.5016     0.47237     -0.4228      -0.123
0.029658     0.43015  -0.0018481        0.55     0.44704    -0.42475    -0.10644
0.18914     0.82706     0.17874     0.51167     0.37785    -0.43839    -0.09929
0.26612      1.1905     0.27002     0.41228     0.28301    -0.45593    -0.10968
0.27067      1.4864      0.2947     0.29145     0.18881     -0.4595    -0.13437
0.23916      1.6972     0.31192     0.19466      0.1219    -0.43449    -0.16393
0.22032        1.82     0.38597     0.15276    0.092021    -0.36985    -0.18407
0.25215      1.8642     0.53863     0.16705     0.10079    -0.27079    -0.18407
0.34959      1.8463     0.72962     0.22032     0.14496    -0.14801    -0.16003
0.49706      1.8236     0.89267     0.28853     0.21837   -0.019712    -0.11261
0.64452      1.8677      0.9755     0.34797     0.31289    0.095594   -0.052518
0.71987      1.9642     0.95503     0.38175     0.41423     0.18394   0.0065969
0.65784      1.9704     0.83161     0.37525     0.50518     0.23754    0.049472
0.44249      1.7112     0.62763       0.334     0.57176     0.25702    0.071558
0.13067      1.0976     0.37915     0.27651     0.61009     0.26255    0.071558
-0.18926     0.18362     0.13165     0.21967     0.61756     0.27326    0.053044
-0.45236    -0.82426   -0.095717     0.17874     0.58995     0.29925    0.026085
-0.6388     -1.6437    -0.30944     0.15503     0.52142      0.3405 -0.00022403
-0.75475     -2.0858    -0.51277     0.12678     0.41293     0.38825   -0.019388
-0.8038     -2.0897    -0.66381    0.066037     0.26677     0.43957   -0.027833
-0.78528     -1.7285    -0.71188   -0.034329    0.092996     0.49608   -0.026209
-0.70116     -1.1598     -0.6375    -0.15905    -0.09182     0.55747   -0.015165
-0.56636    -0.56279    -0.46697    -0.27956    -0.27046     0.61529   0.0046481
-0.40266   -0.077853    -0.25292    -0.37635    -0.42897     0.65199    0.031932
-0.23311     0.22259   -0.041475    -0.45366    -0.54785     0.65231    0.061814
-0.082725     0.30899     0.14367    -0.52024    -0.61021     0.60717    0.087149
0.021538     0.16738     0.29405    -0.57221    -0.61216     0.52239     0.10404
0.070584    -0.18536     0.40903    -0.59657    -0.56604     0.42397     0.11346
0.077405    -0.67842     0.48114    -0.58618     -0.4975     0.34277     0.12028
0.072858     -1.1725     0.48536     -0.5498    -0.43287     0.29957     0.12807
0.080003     -1.5012     0.38532    -0.50497     -0.3835     0.29568     0.13392
0.10339      -1.572     0.18069    -0.46275    -0.34972     0.31451     0.13652
0.12905      -1.404   -0.084999    -0.42215    -0.32276     0.33498     0.13197
0.14561     -1.1133    -0.35102      -0.377    -0.29547     0.34829     0.11768
0.15146     -0.8457    -0.55857    -0.31724    -0.25942     0.36096    0.099167
0.14984    -0.67712    -0.68167    -0.23181    -0.20778     0.39182    0.083901
0.15049     -0.5537    -0.71837    -0.12008    -0.13729     0.46198    0.073507
0.15893    -0.35946    -0.65634    0.011469   -0.059014     0.57793    0.069285
0.17322   -0.051868    -0.47639     0.14302    0.025111      0.7176    0.072858
0.1755     0.30997     -0.2042     0.24955     0.10631     0.84493    0.082602
0.15049     0.61204    0.074157     0.29568       0.169      0.9258    0.090397
0.086175     0.75365     0.26222     0.25767     0.19726     0.93262    0.089423
-0.017439     0.70753     0.30964     0.13782     0.18687      0.8459    0.076755
-0.14996     0.54253     0.23981   -0.025884     0.14302     0.66985    0.054993
-0.28703     0.37233     0.11833    -0.17919    0.081627     0.43177    0.030308
-0.40136     0.25897    0.014068    -0.28768    0.025436     0.17842    0.012768
-0.46795     0.19076   -0.042124    -0.35394   -0.010618   -0.037252   0.0091954
-0.47899     0.13197   -0.055766    -0.40266   -0.032705    -0.18179    0.019264
-0.43774    0.062139   -0.045372    -0.44911   -0.053168     -0.2487    0.033556
-0.36109   -0.020687   -0.028157    -0.49101   -0.081101    -0.25747    0.036154
-0.27014    -0.11748   -0.016789    -0.51212    -0.10936    -0.23668    0.019589
-0.17789    -0.23636   -0.018413    -0.49685    -0.13275    -0.20972  -0.0089938
-0.083375    -0.36303    -0.03238    -0.44748    -0.14541    -0.18569   -0.032705
0.012119    -0.43612   -0.057065    -0.37635    -0.14054    -0.15841   -0.039526
0.11346    -0.34744    -0.10059    -0.29612    -0.11456      -0.123   -0.021661
0.21837   -0.050569    -0.16295    -0.21232    -0.06551   -0.085324    0.019264
0.31874     0.38175    -0.24188     -0.1334   0.0026992   -0.055766    0.067336
0.40124     0.78776    -0.32211   -0.058365    0.087799   -0.050569     0.10144
0.45061      1.0148    -0.38415    0.019589     0.18784   -0.078503     0.10859
0.46198     0.98394    -0.40266    0.095594     0.28918    -0.13729    0.085525
0.44476     0.75203    -0.36661     0.16121     0.36648    -0.22239    0.039078
0.4178     0.49251    -0.29612     0.20246     0.39669    -0.31886   -0.020362
0.40189     0.35674    -0.22012     0.20765     0.37688    -0.40234   -0.079477
0.40611     0.38175    -0.15581     0.19986     0.32361    -0.44261    -0.12527
0.43242     0.48894    -0.10774     0.23331     0.26287    -0.41695    -0.14639
0.47757      0.5435   -0.088896     0.33855     0.21675    -0.32698    -0.14281
0.52239     0.43404    -0.11423     0.48504     0.19239    -0.19706    -0.12105
0.53149     0.16153    -0.17172     0.60587      0.1768   -0.053168   -0.094743
0.48049    -0.17465    -0.22207     0.64939     0.15503    0.078704   -0.072331
0.37785    -0.49361    -0.23116     0.60749      0.1206     0.19011   -0.055766
0.2567    -0.76677    -0.18699     0.50875    0.082602     0.27651   -0.043423
0.14529     -0.9753    -0.10546     0.39669    0.053694     0.33628   -0.029782
0.053694     -1.0913   -0.026209      0.3038    0.042651     0.37558   -0.013216
-0.032055     -1.0929    0.015367     0.25313    0.056617     0.39994   0.0036737
-0.13469     -1.0094    0.034855     0.25475    0.094945     0.41683    0.015042
-0.26397    -0.92528    0.074806     0.30477     0.15471     0.43242    0.020239
-0.39227    -0.92787     0.15763     0.37201     0.22974     0.44866    0.021863
-0.47769    -0.99641     0.26677     0.39994     0.31516     0.46587    0.027385
-0.49393     -1.0075     0.35024     0.34537     0.39247     0.47627    0.042326
-0.44683    -0.85479     0.36648     0.20473     0.43112     0.46717    0.065062
-0.37115    -0.53746     0.32491    0.022837     0.40806     0.42657    0.086175
-0.30944    -0.13469      0.2934    -0.12787     0.32134     0.35122    0.095594
-0.28248     0.26644      0.3314    -0.18439     0.19044     0.25085    0.089098
-0.27436     0.60749     0.45613    -0.12625     0.04395     0.13749    0.073832
-0.26364     0.83908     0.64192    0.022837   -0.090521    0.022512    0.055643
-0.23441     0.92808      0.8433       0.207    -0.19283   -0.092794    0.039402
-0.17952     0.90112      1.0167     0.37168    -0.25162     -0.2055    0.031282
-0.093769     0.83745      1.1197     0.46652    -0.26592    -0.30944    0.039402
0.011144     0.81179       1.098     0.43794    -0.25065    -0.40104    0.063438
0.11086     0.82479     0.88877     0.24825    -0.22272    -0.46795    0.094295
0.17257     0.79945     0.48666   -0.075255    -0.20063     -0.4975     0.11541
0.18134       0.639   -0.032705      -0.428    -0.19186    -0.48614     0.11606
0.14984     0.29015    -0.54168    -0.68817    -0.17854    -0.43871    0.098193
0.10631    -0.22694    -0.93242    -0.79178    -0.13924    -0.35329     0.06831
0.079029    -0.80217     -1.1549    -0.74533   -0.071357    -0.22856     0.03583
0.072858     -1.2683     -1.1971    -0.61054  -0.0031473   -0.083375    0.012443
0.066037     -1.4797     -1.0916    -0.46372    0.031607    0.052395   0.0023744
0.024786     -1.3699    -0.88695    -0.34225    0.011469     0.14237   0.0043233
-0.060963    -0.95938    -0.61606    -0.22759   -0.057065     0.17452   0.0091954
-0.1662    -0.35134    -0.28346   -0.076229    -0.14899     0.16445   0.0085458
-0.24415     0.29503    0.084551     0.13522    -0.23571     0.13782   0.0039985
-0.25877     0.81407     0.40514     0.37688    -0.29742     0.11313  -0.0054209
-0.19998      1.1113      0.5906     0.59222    -0.32536    0.090397   -0.015165
-0.090845      1.1876     0.60002     0.73514    -0.32568    0.056292   -0.023935
0.036804       1.133      0.4649     0.78873    -0.30652   0.0036737   -0.026533
0.15179       1.057     0.26482     0.74943    -0.26592    -0.05804   -0.022636
0.24501       1.021    0.076431     0.62308    -0.19966    -0.11033    -0.01614
0.32004      1.0174   -0.067784     0.41423    -0.10871    -0.13404   -0.010618
0.38078     0.98914    -0.18829     0.14042   0.0017248    -0.12398  -0.0034721
0.42495      0.8891    -0.31464    -0.15061     0.12125   -0.095717   0.0095202
0.4597     0.73904     -0.4595    -0.38934     0.23299   -0.068434    0.031607
0.49576      0.6338    -0.60826    -0.53388     0.31127   -0.053492    0.068635
0.53149     0.60132    -0.74273    -0.57578      0.3431   -0.053492     0.12158
0.54415     0.58378    -0.80964     -0.4975     0.33563   -0.067459     0.18492
0.50225     0.53214    -0.72584     -0.2591      0.3038   -0.097341     0.24501
0.38337     0.41456    -0.43482     0.15211       0.258    -0.14216     0.28626
0.20343     0.21252    0.039402     0.65426     0.20408    -0.18764     0.30217
0.022188    -0.04992     0.57306      1.0788     0.14789    -0.20843     0.29827
-0.10514    -0.32795     0.99726      1.2643    0.086824    -0.16815     0.28398
-0.16458    -0.62483      1.2042       1.158    0.021863   -0.047321     0.26742
-0.17594    -0.97237      1.1805     0.83583   -0.036927      0.1362     0.25118
-0.16718     -1.3758     0.98524     0.42203   -0.075579     0.32263     0.23916
-0.15938     -1.7691     0.70558    0.015692   -0.088572     0.44184     0.22487
-0.17107     -2.0556     0.41813    -0.32016   -0.084674     0.45873     0.19726
-0.22337     -2.1891     0.17322    -0.55824   -0.080127     0.39182     0.15016
-0.32308     -2.1703  -0.0034721    -0.70506   -0.086623      0.2908     0.08585
-0.44521     -2.0085    -0.10254    -0.79081    -0.10611     0.19856    0.014392
-0.5433     -1.7165    -0.12787    -0.85122    -0.13177     0.13035    -0.04862
-0.57318     -1.3258   -0.090521    -0.88825    -0.15646    0.073832   -0.090196
-0.51732    -0.89474  -0.0031473    -0.87103     -0.1701    0.015692    -0.10644
-0.39649    -0.50173     0.13035    -0.75703    -0.16393    -0.04992    -0.10741
-0.24708    -0.23051     0.28236    -0.52739    -0.13275    -0.12203    -0.10189
-0.097666    -0.10124     0.39214    -0.20745   -0.080776    -0.19641   -0.094418
0.031607   -0.071357     0.40156     0.12905   -0.029132    -0.26819   -0.090521
0.11995   -0.089546     0.28723     0.39831  -0.0034721    -0.33445   -0.088247
0.15309    -0.11358    0.081627     0.56397   -0.014191    -0.39194   -0.090196
0.14659   -0.094418    -0.12625     0.64777    -0.05804    -0.44099   -0.094743
0.13814    0.036479    -0.24773     0.68999    -0.11651    -0.47867   -0.098965
0.17387     0.33433    -0.24415     0.71143     -0.1662    -0.49523    -0.10091
0.27489     0.74781    -0.13664     0.70071    -0.19706    -0.48516   -0.095393
0.43827      1.1411    0.011794     0.63705    -0.20355    -0.44943   -0.079477
0.63088      1.3939     0.12743     0.51784    -0.18601    -0.39487   -0.053492
0.79718      1.4296     0.15731     0.36518    -0.15061    -0.33478   -0.019712
0.87903      1.2022    0.084876      0.2148    -0.10741    -0.27956     0.01017
0.84265     0.70753   -0.054467     0.11281   -0.064536    -0.23246    0.022188
0.70201    0.013093    -0.19543     0.08585   -0.022961    -0.19348   0.0085458
0.51135    -0.68005    -0.27696     0.11118    0.014717    -0.16458   -0.026533
0.3392     -1.0964    -0.28151     0.12807     0.05272    -0.15126    -0.06616
0.2083      -1.024    -0.23863    0.072858    0.095269    -0.15451   -0.098641
0.076431    -0.44976    -0.19283   -0.080127     0.14042    -0.17627    -0.12268
-0.1295     0.39702    -0.15808    -0.30489     0.17062    -0.21557    -0.14736
-0.45073       1.158    -0.09994    -0.52154     0.16803    -0.27176    -0.18342
-0.85187      1.5774    0.022837    -0.64172     0.12613     -0.3377    -0.23474
-1.227      1.5965     0.20148     -0.6323    0.053369    -0.40104    -0.28735
-1.4693      1.3422     0.38013    -0.52934   -0.031081    -0.45073    -0.32568
-1.5255      1.0375     0.49901    -0.39941    -0.10416    -0.48289      -0.339
-1.3949     0.90372     0.53571    -0.31594    -0.15061    -0.49913    -0.32243
-1.1166      1.0382     0.50063    -0.31951     -0.1662    -0.49815    -0.28053
-0.75378      1.3422     0.41683    -0.40234    -0.15711    -0.47412    -0.22142
-0.39324      1.6053     0.31516    -0.51342    -0.13567    -0.42312    -0.15808
-0.11131      1.6569     0.23071    -0.60014    -0.11878    -0.35589   -0.099615
0.050446      1.4526     0.19791    -0.63132    -0.11683    -0.28605   -0.050569
0.10404      1.0599     0.22097    -0.59722    -0.13242    -0.22337   -0.012567
0.099167     0.61334     0.26125    -0.49685    -0.15938    -0.17562    0.016991
0.0852     0.22487     0.25962    -0.33802    -0.18504    -0.13859    0.036479
0.087799   -0.087272     0.16608    -0.15256    -0.20096    -0.10286    0.044275
0.10826    -0.39357   -0.023935  0.00075039    -0.20063   -0.060963      0.0433
0.13197      -0.758     -0.2552    0.074482    -0.18504  -0.0083442    0.041027
0.13522     -1.1806    -0.43936    0.076755    -0.15646    0.047847      0.0433
0.092346     -1.5967    -0.50822    0.066362      -0.123    0.095269    0.043625
-0.0060706     -1.9289    -0.44521     0.10599   -0.093444     0.12223    0.035505
-0.13567      -2.106    -0.29223     0.21058   -0.070707     0.13197     0.01894
-0.24968     -2.0705     -0.1269     0.33985   -0.059014     0.12937  0.00010078
-0.30002     -1.8006   -0.018738     0.42365   -0.063237     0.11736   -0.018088
-0.26722     -1.3209  0.00042559     0.40871   -0.085973     0.10144   -0.037577
-0.16782    -0.70863   -0.052518     0.29113    -0.12235    0.084551   -0.055116
-0.045372    -0.10416    -0.12722     0.12255    -0.15808    0.062464   -0.072331
0.057917     0.33368    -0.17757   -0.019388    -0.17789      0.0433   -0.086298
0.11833      0.5133    -0.18601   -0.076554    -0.17919    0.036479   -0.097991
0.13522     0.45743    -0.14769   -0.040175    -0.16815    0.043625    -0.10416
0.12937     0.28431   -0.068109    0.054019    -0.14866    0.061814    -0.10026
0.13327     0.14042    0.029658     0.15373    -0.12235    0.086175   -0.087272
0.16705      0.1232    0.095269     0.21382   -0.087597     0.11151   -0.063886
0.23039     0.23591    0.081627     0.22227   -0.040825      0.1323   -0.032705
0.29957     0.41618   -0.013216     0.19466   0.0095202     0.14756  -0.0015233
0.347     0.59872    -0.13697     0.15731    0.055968     0.15568    0.020564
0.36096     0.75106    -0.22921     0.12937    0.087474     0.16185    0.029009
0.35154     0.86571     -0.2591     0.11768     0.10761     0.17582    0.024137
0.3366     0.95341    -0.24123     0.11703      0.1284     0.19856    0.016016
0.33043       1.044    -0.21135     0.11638     0.14984        0.22     0.01017
0.33563      1.1743    -0.19738     0.10761     0.16673     0.22941   0.0095202
0.34894      1.3484    -0.19738    0.092021     0.17907     0.22747    0.015692
0.36843       1.517    -0.19316    0.076106     0.19011      0.2187    0.032906
0.38792      1.5754    -0.17724    0.061814     0.20181      0.2109    0.061489
0.40351      1.4169    -0.16393    0.048497     0.21025     0.20928    0.097218
0.4165      1.0174    -0.17042     0.03453     0.21252     0.21415     0.13165
0.43762     0.48926    -0.20485    0.018615     0.20765     0.22552     0.16153
0.47432    0.011469    -0.25682  -0.0054209     0.19791     0.24013     0.18751
0.51395    -0.31074    -0.31399   -0.056416     0.18719      0.2541     0.20993
0.53051    -0.53063    -0.38122    -0.14769     0.17874     0.26937     0.22519
0.50842    -0.76904    -0.47542    -0.27306     0.17127      0.2986     0.23169
0.45223     -1.0812    -0.60761    -0.40461     0.16965     0.35187     0.22747
0.3837     -1.3969    -0.76092    -0.51017     0.17647     0.42917     0.21642
0.33108     -1.5703    -0.87428    -0.56084     0.19369     0.52629     0.20505
0.30639      -1.519    -0.87103     -0.5446     0.21675      0.6299     0.20213
0.29113     -1.2754    -0.71642     -0.4699     0.24046     0.73157     0.21058
0.23754     -0.9295    -0.45853    -0.35719      0.2528     0.82251     0.22454
0.11086    -0.53616    -0.19901    -0.23019     0.23818      0.8878     0.23006
-0.080776    -0.12268   -0.016789    -0.11131     0.18557     0.91151     0.21675
-0.2893     0.28821    0.061165   -0.018088     0.10047     0.87935     0.18264
-0.46762     0.68285    0.026085    0.044599  -0.0028225     0.78808     0.13587
-0.59235      1.0807    -0.11001    0.079029    -0.10741     0.64712    0.083251
-0.66283      1.4939    -0.29547    0.084226    -0.19771     0.47497    0.031282
-0.69369      1.8707    -0.43547    0.054668    -0.25877     0.29405   -0.012567
-0.69239      2.1097    -0.42897  -0.0050961    -0.28443     0.12613    -0.04115
-0.65114      2.1425    -0.22077   -0.063237    -0.27501   -0.011592   -0.050569
-0.56474      1.9853     0.15016   -0.058689    -0.23993    -0.10806   -0.047646
-0.44846       1.691      0.5971    0.070909    -0.18894     -0.1597   -0.037577
-0.3286      1.2678       1.058     0.34764    -0.12105     -0.1675   -0.021661
-0.2172     0.70104      1.4926     0.70363   -0.030106    -0.14152  -0.0024977
-0.11001   0.0065969      1.8294      1.0086    0.075131   -0.095068     0.01894
-0.0041217    -0.75248      1.9678      1.1405     0.17322   -0.045047      0.0433
0.10274      -1.521      1.8379      1.0457     0.23916  -0.0028225    0.066362
0.207     -2.2606      1.4669     0.76892     0.26027    0.023162    0.087474
0.30639     -2.9128     0.98557     0.42462     0.22909    0.030957     0.11118
0.39767     -3.3769     0.56721     0.12775     0.13684    0.026085     0.14009
0.4662     -3.5254     0.32198   -0.055116   -0.012892    0.015367      0.1729
0.47822     -3.2853     0.23364    -0.12657    -0.19511 -0.00054884     0.20246
0.40189     -2.7539     0.19206    -0.12592    -0.35199   -0.030106     0.21772
0.24403     -2.1722    0.081627   -0.098965    -0.41923   -0.085324     0.21123
0.026735     -1.7912    -0.14931   -0.075579    -0.36498    -0.17335     0.17647
-0.23603     -1.7058    -0.47509   -0.073955    -0.21167    -0.28768     0.11281
-0.52186     -1.7753     -0.8025   -0.098641   -0.017114    -0.41565    0.025761
-0.77814     -1.7461     -1.0191    -0.12917     0.14626    -0.54493   -0.068109
-0.93729     -1.4557     -1.0578    -0.13242     0.23461    -0.66153    -0.14899
-0.94964    -0.91131    -0.92722   -0.084999     0.24241    -0.74436    -0.19803
-0.81127     -0.2461    -0.69401    0.012119     0.20083    -0.77424    -0.21037
-0.56766     0.36486    -0.43287     0.16056     0.15081    -0.73526    -0.19478
-0.28605     0.79003    -0.18536     0.38078     0.12255    -0.62353    -0.16165
-0.024909     0.99888    0.047198      0.6783     0.12548    -0.46372    -0.11748
0.18037       1.033     0.26612      1.0031     0.14561    -0.30229   -0.069733
0.31906     0.97907     0.44541      1.2496     0.15211    -0.18829   -0.032705
0.39961     0.91054     0.53668       1.301     0.12385    -0.14541   -0.021012
0.44314     0.84265     0.50875      1.1109    0.061814    -0.17335   -0.030106
0.46328     0.72572      0.3772     0.74586   -0.019063    -0.23928   -0.049595
0.46555     0.49024     0.18589     0.33628   -0.098316    -0.30587   -0.067134
0.44086     0.10924   -0.013866 -0.00087364    -0.15451    -0.34387   -0.077528
0.3837    -0.34257    -0.18601    -0.21427      -0.174    -0.34127   -0.087922
0.29568    -0.68557    -0.31464    -0.31496    -0.15905    -0.30132    -0.10514
0.18849    -0.73007    -0.39162    -0.35037    -0.12495    -0.23376     -0.1282
0.089748    -0.40558     -0.4137    -0.36531   -0.089221    -0.15548    -0.14671
0.028684     0.19563    -0.38025    -0.38317   -0.064861   -0.078178    -0.15158
0.029009     0.87058    -0.30229    -0.40623   -0.055766   -0.010293    -0.14314
0.084226      1.4231    -0.20258    -0.43059   -0.054792    0.046548     -0.1282
0.14464      1.7278    -0.11131    -0.45236   -0.051868    0.089098    -0.11326
0.14919      1.7498   -0.046996    -0.46925   -0.044398     0.11833    -0.10481
0.071558      1.5433  -0.0060706    -0.47932    -0.03303     0.13749    -0.10416
-0.051219      1.2071    0.030633    -0.47574   -0.018413     0.15796    -0.10709
-0.14866      0.8433    0.076106    -0.45171 -0.00087364     0.19141    -0.10644
-0.1675     0.53214     0.10794    -0.40753    0.018615     0.24858   -0.090196
-0.097991     0.32101    0.084226    -0.35556    0.041027     0.32458   -0.055766
0.033231     0.20116   -0.018413    -0.31431     0.06831     0.40416   -0.013216
0.17452     0.10469    -0.18309    -0.29775     0.10144     0.46945    0.026085
0.27002   -0.058365     -0.3783    -0.30847     0.13555     0.51719    0.054993
0.27391    -0.31626    -0.57124    -0.34225     0.15958     0.55552    0.069285
0.17387    -0.59657    -0.72844    -0.38674     0.16543     0.57956     0.06831
0.0059473    -0.75897    -0.82069    -0.42994     0.15309     0.56429    0.054668
-0.16295    -0.68492    -0.83303    -0.46145     0.12548     0.48634     0.03518
-0.26787    -0.36044    -0.76352    -0.46502    0.087799     0.34017    0.016016
-0.27988     0.11508    -0.62028    -0.43449    0.049472     0.14659   0.0059473
-0.2107     0.59547    -0.42085    -0.36661    0.021213   -0.049595   0.0095202
-0.087922     0.98232    -0.18114    -0.25487    0.012768    -0.19738    0.025111
0.050771       1.248     0.10696   -0.090196     0.02641    -0.26592    0.047198
0.16543      1.3964     0.44801      0.1284    0.055968     -0.2487    0.065062
0.22617      1.4101      0.7975     0.37655     0.09462    -0.17172    0.068635
0.22552      1.2607      1.0593     0.61009     0.13814   -0.078178    0.057917
0.18362     0.95991      1.1577     0.78451     0.17615 -0.00022403     0.03453
0.13262     0.60814      1.0895     0.87708     0.20376    0.050771    0.013743
0.10112      0.3353     0.92158     0.89007     0.21512    0.083576   0.0095202
0.088773     0.20863     0.72637      0.8381      0.2083     0.11313    0.022188
0.063113      0.1742     0.54805     0.72994     0.18816     0.15828    0.042975
-0.010293    0.094295     0.40254     0.57079     0.17095     0.22065    0.057917
-0.13957    -0.14931     0.27294     0.37038     0.17062     0.28561    0.058566
-0.29547    -0.55337     0.14951     0.16056     0.17972       0.334    0.046548
-0.42702    -0.98309    0.051745   -0.015165     0.17387     0.34537    0.026085
-0.48256     -1.2355   0.0020496     -0.1295     0.12418     0.31289   0.0078962
-0.43222     -1.1452    -0.01549    -0.18861    0.024137     0.24663   0.0043233
-0.28735    -0.69694   -0.037902    -0.23701    -0.10741     0.16738    0.016341
-0.084349   -0.036602   -0.086298    -0.33997    -0.23116    0.098517    0.038428
0.14107     0.61626    -0.14769    -0.52771    -0.30262    0.051745    0.064413
0.35187      1.0824    -0.17107    -0.75508    -0.28995    0.027709    0.090397
0.52012      1.2779    -0.10221    -0.91813    -0.19673    0.017965     0.11151
0.63542      1.2048    0.059216    -0.92463   -0.057065    0.019589     0.12872
0.70688     0.92515     0.24955    -0.74014    0.079029    0.028034     0.14302
0.74911     0.57046     0.39669    -0.39032     0.17062    0.037129     0.15244
0.7608     0.31841     0.46133    0.033556     0.20343    0.041676     0.15471
0.73482     0.31549     0.43729     0.40449     0.18362    0.031932     0.14854
0.66173     0.57631      0.3431     0.62536     0.13425  0.00042559     0.12937
0.54578     0.94919     0.20083       0.677    0.076106   -0.053492    0.096244
0.38922      1.2353    0.025436     0.59775    0.020564     -0.1321    0.051096
0.17745      1.2828    -0.15646     0.43957   -0.037902    -0.22824  -0.0034721
-0.093769      1.0304    -0.31301     0.23494    -0.10254     -0.3312   -0.062587
-0.38512     0.56137    -0.40753   0.0052977    -0.16555    -0.42475    -0.12268
-0.61476    0.093645     -0.4124    -0.21687    -0.21492    -0.49458     -0.1753
-0.71188    -0.18244    -0.31236    -0.38739    -0.23928    -0.53356    -0.20745
-0.65081    -0.22077    -0.12463    -0.46892    -0.23831    -0.54428    -0.21492
-0.45853   -0.093119    0.089098    -0.44781    -0.21979    -0.53616    -0.20096
-0.19608    0.086175     0.26157    -0.32503    -0.19186    -0.51862    -0.17465
0.061165      0.2083     0.34667    -0.12365    -0.15613    -0.49036    -0.13924
0.25507      0.2135     0.34212     0.11443    -0.11098    -0.45073   -0.097666
0.35024    0.036804     0.25832     0.32426   -0.059664    -0.40396   -0.054142
0.31516    -0.40656    0.094945     0.44606  -0.0060706    -0.35751   -0.020687
0.13002     -1.0753    -0.15158     0.45126    0.041027    -0.32341  -0.0041217
-0.19154     -1.7824      -0.466     0.36129    0.067986    -0.31431  -0.0093186
-0.59917     -2.3258    -0.79113     0.22844    0.065712    -0.33835   -0.035628
-1.0101     -2.5919     -1.0383     0.10924    0.036479     -0.3861   -0.076229
-1.3254     -2.5769     -1.1182    0.034206   -0.007045    -0.43806    -0.11488
-1.4667     -2.3632    -0.98536   0.0046481   -0.047971    -0.47574    -0.13859
-1.4131     -2.0481     -0.6781    -0.01549   -0.075904    -0.49523    -0.13989
-1.1968     -1.6714    -0.29937   -0.075579   -0.087272    -0.50108     -0.1217
-0.88662     -1.2286     0.03453    -0.21752   -0.090521     -0.4962   -0.093119
-0.56182    -0.73494     0.24728    -0.42345   -0.089221    -0.48061    -0.06551
-0.28151    -0.25682     0.33335    -0.62515   -0.087922    -0.45203   -0.044723
-0.089871     0.10209     0.33887    -0.73819   -0.086948    -0.40656    -0.02426
0.0010752     0.26319     0.32134    -0.69953   -0.081751    -0.34679  -0.0037969
0.009845     0.22194     0.32621    -0.49978   -0.068109    -0.27956    0.014717
-0.027183    0.049147     0.36908    -0.20258   -0.056416    -0.21037    0.030957
-0.075904    -0.16718     0.43567    0.085525   -0.060963    -0.14866    0.045249
-0.11358    -0.35849     0.49576     0.28203   -0.083375    -0.10189    0.062139
-0.1256    -0.49198     0.52044     0.36713    -0.11651   -0.073955    0.079354
-0.10871    -0.55727     0.49641     0.37038    -0.14541   -0.061288    0.093321
-0.06616    -0.57578     0.41683      0.3379    -0.15353   -0.055766     0.10404
-0.0063954    -0.57838     0.28203     0.31094    -0.13112   -0.051868     0.11638
0.061489    -0.59137     0.10144      0.3051   -0.079477   -0.045372     0.13035
0.13002    -0.60567   -0.098641     0.31386   -0.011592   -0.029457     0.14854
0.19206    -0.58163    -0.29028     0.31062    0.057267    0.003024      0.1677
0.24176    -0.47932     -0.4569     0.26157     0.11443    0.054668     0.18784
0.27976    -0.29158    -0.58293     0.14724     0.15114     0.11736      0.2057
0.30834   -0.046022    -0.66543    -0.01484     0.16705     0.18297     0.22032
0.33173     0.21545    -0.71058    -0.18147      0.1651     0.24273     0.23006
0.35382     0.45223    -0.73494    -0.32016     0.15179     0.28853     0.22974
0.37753     0.63835    -0.75118    -0.43254      0.1284     0.31516     0.22162
0.39702     0.76372    -0.76157    -0.53453    0.094945     0.31549     0.21058
0.40059     0.82446    -0.75345    -0.63295    0.054344     0.28561     0.18979
0.38597     0.83323    -0.71155    -0.71025    0.011794     0.23039     0.15861
0.35804     0.81764    -0.62483    -0.72682   -0.023285     0.15991     0.11833
0.33368       0.804    -0.49945    -0.65016   -0.046022    0.087149    0.071558
0.32556     0.81569    -0.35654    -0.48419    -0.06616    0.016666    0.029983
0.3444     0.87058    -0.21817    -0.26722   -0.086298   -0.044398   0.0059473
0.38662     0.98362   -0.090845   -0.054142    -0.10546   -0.088572  -0.0011985
0.44379      1.1528     0.03583    0.096893    -0.11813    -0.11326   0.0026992
0.50258      1.3922     0.16738     0.14594    -0.12463    -0.12398    0.011794
0.55455       1.717     0.28593     0.09397    -0.12787     -0.1308    0.020564
0.59515      2.1208     0.36259   -0.017114    -0.13437    -0.14444    0.025111
0.62211       2.542     0.37688    -0.12755    -0.15158     -0.1649    0.023812
0.63997      2.8584     0.33628    -0.18504    -0.17822    -0.18894    0.020239
0.64322      2.9711     0.27067    -0.16782    -0.20875    -0.20518    0.017316
0.61074      2.8373     0.20635   -0.084349    -0.23701    -0.20615    0.014068
0.52272       2.444     0.15309    0.032257     -0.2474    -0.18439    0.012443
0.38467       1.809     0.12125     0.14529    -0.22921     -0.1334   0.0091954
0.22779      1.0041     0.13522     0.23494    -0.19316   -0.045697  0.00075039
0.084876     0.13555     0.21967      0.3038    -0.16068    0.090397   -0.013216
-0.020362    -0.71837      0.3733     0.37785    -0.14736     0.28756   -0.021661
-0.077203     -1.5064      0.5578     0.47627    -0.14574     0.53701   -0.019712
-0.09994     -2.1787     0.70851     0.57501    -0.14574     0.79523   -0.012567
-0.11845     -2.6568     0.78289     0.62503    -0.14346     0.99629  -0.0083442
-0.17107     -2.8585     0.78321     0.58703    -0.15743      1.0807   -0.011592
-0.27923     -2.7306     0.72182     0.45321    -0.20583      1.0284   -0.026533
-0.4202     -2.2836     0.60782     0.25053    -0.29223     0.86636   -0.055766
-0.54135     -1.5947     0.45191    0.033556    -0.39064     0.65686   -0.094093
-0.58293    -0.78691      0.2921    -0.13372     -0.4634     0.46977    -0.12852
-0.52122    -0.02361     0.18069    -0.20258    -0.47964     0.34667    -0.14639
-0.3783     0.49218     0.15601    -0.16425    -0.43027     0.29827    -0.13924
-0.20063      0.6299     0.21545   -0.039851    -0.32633     0.30834    -0.11131
-0.028807     0.43762     0.32361      0.1258    -0.19446     0.34992   -0.072981
0.11281    0.099817     0.43274     0.28821   -0.064536     0.38922   -0.033679
0.21382    -0.22142     0.49543     0.41456    0.039402     0.40806  -0.0015233
0.26839    -0.48614     0.47627     0.47919     0.10956     0.40026    0.014068
0.26937    -0.76092     0.36648     0.48179     0.15179     0.36941    0.009845
0.2057      -1.102     0.19628     0.46393     0.18069     0.32653   -0.012567
0.079354     -1.4839    0.022512     0.47854       0.207     0.29308    -0.04927
-0.080776     -1.8123   -0.095393     0.53701     0.23396     0.28626   -0.086298
-0.21785      -1.976    -0.12365     0.59287      0.2606      0.3051    -0.10579
-0.28443      -1.889   -0.061937     0.56689     0.28593       0.347   -0.097017
-0.26559     -1.5557    0.058566     0.41001     0.30185     0.41326   -0.064536
-0.18861     -1.0714      0.1755     0.14139     0.30282     0.49413   -0.021012
-0.10741    -0.55857     0.21902    -0.15386      0.2895     0.56072    0.020888
-0.073955    -0.10059     0.13684    -0.38447     0.26514      0.5854    0.051096
-0.12138     0.23169   -0.080451    -0.49685     0.23689     0.55065    0.063113
-0.25     0.38045    -0.38512    -0.48386      0.2083     0.46652    0.053369
-0.41793     0.35349    -0.69304    -0.39519     0.18037     0.35252    0.024137
-0.555     0.25507    -0.92398    -0.31269     0.15049     0.23201   -0.014516
-0.59852     0.22747      -1.038    -0.28768     0.11801     0.11963   -0.049595
-0.52381     0.35479     -1.0526    -0.30424    0.086824    0.021213   -0.066485
-0.34972     0.60619     -1.0016     -0.2945     0.06084   -0.066485   -0.057065
-0.1295     0.90307    -0.90644    -0.20031    0.046223    -0.15191   -0.025884
0.081303      1.1993    -0.76222   -0.020362    0.051745    -0.23798    0.012768
0.24371      1.4767    -0.53291     0.19141    0.077405    -0.31236    0.046873
0.34537       1.705    -0.17205     0.37883     0.11963    -0.35816    0.069934
0.39896      1.8362     0.31614      0.5094     0.17192    -0.36466    0.082602
0.43177      1.8548     0.82901     0.57306     0.22909    -0.33835    0.091372
0.46458      1.8112      1.2266     0.57533     0.28138    -0.29223     0.10242
0.49576      1.7576       1.389     0.52954     0.31549    -0.24318     0.11638
0.49121      1.6946      1.2883     0.45386     0.32004    -0.20193      0.1232
0.41423      1.6092     0.99921     0.36161     0.29243     -0.1753     0.11346
0.25702      1.5036     0.65361     0.25248     0.24078    -0.17075    0.082602
0.046223      1.3698     0.36291     0.12255     0.18394    -0.18666    0.033881
-0.17075      1.1454      0.1742   -0.022636     0.13165    -0.21427   -0.022636
-0.34257     0.75235    0.076431    -0.16035    0.088773    -0.24383   -0.075255
-0.42572     0.18816     0.03453    -0.26234    0.067011    -0.26267    -0.11066
-0.41111    -0.43871    0.012443    -0.30782    0.075456    -0.26202    -0.12592
-0.32178    -0.95906   -0.020362    -0.30002     0.11021     -0.2448     -0.1204
-0.20128      -1.267   -0.080451    -0.27664     0.15828    -0.21135   -0.096692
-0.079152     -1.3595    -0.16945    -0.28833     0.20505    -0.16685   -0.063886
0.024137     -1.3196    -0.28963    -0.36628     0.23818    -0.11553   -0.033354
0.10242     -1.2738    -0.45463    -0.49978     0.24988   -0.059664  -0.0096434
0.15146     -1.3326    -0.66186    -0.64269     0.23331 -0.00022403   0.0069217
0.17452     -1.5385     -0.8772    -0.73916     0.18524    0.057267    0.017316
0.17615     -1.8299     -1.0451    -0.74826     0.10501     0.10599    0.022188
0.15309     -2.0855     -1.1208    -0.65569      0.0014     0.13555    0.020239
0.10144     -2.1859     -1.0705    -0.48224    -0.11261     0.13165    0.013093
0.029983     -2.0446    -0.86551    -0.26494    -0.22077    0.091372 -0.00087364
-0.037252     -1.6298    -0.50985   -0.026858    -0.29905    0.021863   -0.018088
-0.062912    -0.97692   -0.064536     0.22324    -0.32666   -0.066485   -0.031081
-0.028157    -0.18049     0.36161     0.48017    -0.30132    -0.16133    -0.03173
0.0433     0.60132     0.66011     0.71468    -0.24123    -0.24708   -0.017764
0.091696      1.1837     0.76892     0.85922    -0.17724    -0.31464   0.0017248
0.075131      1.4526     0.69421     0.84915    -0.13664    -0.35979    0.017965
-0.0021729      1.3779     0.50193       0.677     -0.1217    -0.38902     0.02641
-0.092469      1.0284     0.27879     0.39344     -0.1191    -0.41208    0.030633
-0.14314     0.54903    0.090722    0.079679     -0.1204    -0.43612     0.03518
-0.12073     0.10599   -0.034329    -0.20096      -0.123    -0.46113    0.036154
-0.029132    -0.16653    -0.09182    -0.40396    -0.13015    -0.48224    0.033556
0.11021    -0.20875     -0.0837    -0.51634    -0.14476      -0.504    0.028684
0.27586   -0.067784   -0.021337    -0.53518    -0.15938    -0.53226    0.025436
0.45483      0.1362    0.077405    -0.45236     -0.1623    -0.56571    0.030957
0.62925     0.29697     0.19953    -0.25845    -0.14411    -0.59722    0.047198
0.766     0.42105     0.32491    0.027385    -0.11001    -0.61671    0.070909
0.83323     0.64225     0.41163     0.34017   -0.076554    -0.62191    0.093645
0.81504       1.085      0.4243     0.59775   -0.060963    -0.61216     0.10696
0.73936      1.7352     0.36551      0.7556    -0.06616     -0.5904     0.10794
0.65394      2.3962     0.27359     0.82446   -0.077528    -0.55564     0.09397
0.58833       2.786     0.18881      0.8381   -0.078503    -0.49068    0.070259
0.53084      2.6833     0.13425     0.81862   -0.061288    -0.37343    0.045574
0.43567      2.0366     0.10079     0.77964   -0.028807    -0.20778    0.020564
0.26774     0.98362    0.059541     0.73384    0.014392   -0.030431  -0.0063954
0.029009    -0.19933    -0.01484     0.69909    0.063763    0.099817   -0.039851
-0.23961     -1.1845    -0.12495     0.66596     0.11411     0.14464   -0.076879
-0.47119     -1.7581    -0.24058     0.60879     0.16218     0.11346    -0.10319
-0.59949     -1.8425    -0.31464     0.51005     0.21155     0.05142    -0.10124
-0.59722     -1.5132    -0.32146     0.36551     0.26157    0.013418   -0.065186
-0.5066    -0.98764    -0.27306     0.18589      0.3038    0.022188   -0.012892
-0.43677    -0.53486    -0.22499   -0.019712     0.32231    0.061489    0.026735
-0.5014    -0.36888    -0.23831    -0.23246     0.30574     0.09462    0.029009
-0.74208    -0.60534    -0.32893    -0.41663     0.25572    0.092671  -0.0083442
-1.1107     -1.1923    -0.44911    -0.52901     0.18816    0.045574   -0.072331
-1.4891     -1.8763    -0.52186    -0.54135     0.12125   -0.034329    -0.14346
-1.7399      -2.309    -0.48646    -0.44813    0.066686    -0.12398    -0.19933
-1.761     -2.2524    -0.33348    -0.26689    0.031282    -0.19641    -0.22564
-1.534      -1.698    -0.11748   -0.034978    0.017965    -0.23701    -0.21785
-1.1283    -0.86551     0.06084     0.20246    0.018615    -0.24675    -0.18829
-0.66088   -0.064861     0.11118     0.39214    0.017965    -0.23181    -0.14964
-0.24156      0.4636   0.0020496     0.48731  0.00075039    -0.19803    -0.11163
0.067011     0.64777    -0.20713     0.46717   -0.034329    -0.15451     -0.0824
0.25475     0.57696    -0.39357     0.35836     -0.0824    -0.11163   -0.060313
0.36096     0.43047    -0.42962     0.22194     -0.1321   -0.078178   -0.037577
0.44021     0.38727    -0.24838     0.09462    -0.17107   -0.050569   -0.008669
0.53116     0.52272     0.10989   -0.022636    -0.18601   -0.019063    0.028034
0.6286     0.76145     0.49673    -0.16003     -0.1701    0.029983    0.067986
0.6835     0.93685     0.76112    -0.32698     -0.1295     0.11216     0.10501
0.63932     0.90436      0.8433    -0.47834   -0.082725     0.24403     0.13132
0.47789     0.62373     0.78776     -0.5524   -0.045697     0.43534     0.14529
0.24695     0.15406     0.67992    -0.54005   -0.024585     0.66466     0.14821
0.044599      -0.339     0.58281    -0.48873   -0.011917     0.88358     0.14756
-0.038227    -0.62938     0.52174    -0.45008  0.00042559       1.032     0.14919
0.024461    -0.55175      0.5003    -0.44261    0.014392      1.0668     0.15081
0.1742    -0.11001     0.49576    -0.46243     0.02641     0.99044     0.15179
0.296     0.46035      0.4727    -0.50043    0.031932     0.83713     0.14821
0.28106     0.80335     0.37168    -0.55305    0.032582     0.65394     0.13587
0.10371     0.68837      0.1362    -0.62613    0.040702     0.48439     0.11703
-0.16035     0.14009    -0.23798    -0.73526    0.074806     0.35674     0.10047
-0.40234    -0.60144    -0.68687    -0.88143     0.13684     0.27554    0.090722
-0.53973     -1.2296     -1.1098     -1.0468     0.20246     0.22389    0.089098
-0.5433     -1.5431       -1.42     -1.1978     0.24208     0.18134    0.091047
-0.43157     -1.5236     -1.5827     -1.2985     0.23689     0.15438    0.095269
-0.2578     -1.3378     -1.6103     -1.3248     0.19466     0.15958     0.10599
-0.073631     -1.1828     -1.5395     -1.2731      0.1284     0.20343     0.12288
0.0852     -1.1198     -1.4099     -1.1604    0.050771     0.25767     0.14139
0.20635     -1.0711     -1.2358     -1.0075   -0.033679     0.28756     0.15373
0.29308    -0.92852     -1.0013    -0.81354    -0.11326     0.28463     0.15991
0.35674    -0.60177    -0.65049     -0.5407      -0.161     0.26319     0.16121
0.41585   -0.039526    -0.10546     -0.1321    -0.14346      0.2476      0.1625
0.46652     0.68869     0.65751     0.43307   -0.054792     0.26125     0.16608
0.49056      1.3906      1.5108      1.0726    0.070584     0.30932     0.16705
0.46458      1.8379      2.2114      1.6102     0.17517     0.38305     0.15893
0.38695      1.8651      2.5284      1.8814     0.21967      0.4727     0.14009
0.28496      1.4611      2.3722      1.8375     0.19174     0.57111     0.11411
0.19953     0.77639      1.8281      1.5494     0.10144     0.65654    0.084876
0.16803    0.045899      1.1015      1.1434    -0.02361     0.68837    0.059865
0.20376    -0.47672     0.40903      0.7267    -0.15191     0.63283    0.040377
0.28008      -0.593    -0.10189     0.36616    -0.25682     0.49088    0.023812
0.35284    -0.25877    -0.39097    0.096893    -0.32438     0.29438   0.0052977
0.38207     0.39247    -0.50335    -0.07493    -0.35329    0.091372   -0.016789
0.35771      1.1226    -0.50952    -0.16555    -0.34972   -0.075579   -0.041475
0.30639      1.7528    -0.46372    -0.19413    -0.32373    -0.18861    -0.06681
0.26807       2.212    -0.38707    -0.19511    -0.29028    -0.25422   -0.085973
0.27586      2.4982    -0.28346    -0.20096    -0.26007    -0.28638   -0.094093
0.32848      2.6103    -0.15126    -0.23311    -0.23181    -0.30522   -0.090845
0.40806      2.5138   -0.018413    -0.28833    -0.19998    -0.32081   -0.077853
0.49283      2.1591    0.074806    -0.33088    -0.16782    -0.33185   -0.053817
0.54675      1.5602     0.11995    -0.30359    -0.13892    -0.33705   -0.024909
0.52239     0.82446     0.14302    -0.16555    -0.11943    -0.34744  -0.0057458
0.3837     0.10014     0.17615    0.067011    -0.11261    -0.37538   -0.010293
0.14204    -0.50595     0.21155     0.32881    -0.12073    -0.43254   -0.044073
-0.14216    -0.99089     0.19921     0.54545    -0.13924    -0.51309    -0.10059
-0.39551      -1.432     0.09397     0.67473    -0.15873     -0.5904      -0.161
-0.56604     -1.8214   -0.090521     0.71987    -0.16328    -0.62645    -0.20713
-0.6284     -1.9656    -0.26624     0.70851    -0.13794    -0.57318    -0.22791
-0.58748      -1.645    -0.31139     0.66758    -0.08305    -0.39746    -0.22337
-0.46372     -0.7999    -0.14866     0.61366   -0.007045    -0.12073    -0.19771
-0.28508     0.43859     0.21155     0.55065    0.073182     0.17874    -0.15841
-0.085648      1.7921     0.67603     0.47464     0.14724     0.39896    -0.11358
0.091696      3.0127      1.1096     0.38435     0.20278     0.47237   -0.072656
0.20505      3.8945      1.3705     0.27391     0.23526     0.38565   -0.037252
0.21967      4.2755      1.3481     0.13782     0.24208     0.17225   -0.010943
0.11768      4.0729      1.0281  -0.0083442     0.21675    -0.11033  0.00042559
-0.08305      3.3235     0.51979     -0.1282     0.16705    -0.39324  -0.0073698
-0.32211      2.1961   0.0010752    -0.19251     0.10729    -0.61443   -0.031406
-0.52154     0.92093    -0.38122    -0.21297    0.051745    -0.73689   -0.059014
-0.62678    -0.32438    -0.57806    -0.21785   0.0059473    -0.76157   -0.077528
-0.62158     -1.4719    -0.63165    -0.22434   -0.031406    -0.71577   -0.084024
-0.52544     -2.5701      -0.631    -0.22726   -0.053492    -0.63457   -0.083375
-0.38415     -3.6358    -0.66056    -0.22791    -0.04862    -0.53875   -0.080451
-0.24026     -4.5953    -0.76352    -0.24318  -0.0076946    -0.42735   -0.079152
-0.1282     -4.9701    -0.92495    -0.29742    0.070259    -0.30067   -0.076229
-0.058365     -4.9698     -1.0864    -0.40071     0.16998    -0.17042   -0.069083
-0.020687     -4.9695     -1.1841    -0.53583     0.26319   -0.061288   -0.052843
-0.00022403     -4.9695     -1.1751    -0.66023     0.31744   0.0056225   -0.029132
0.019264     -4.4426     -1.0571    -0.72974     0.32426    0.023162  -0.0037969
0.045899     -3.7787    -0.86096    -0.71837      0.2934   0.0062721    0.011794
0.07773     -3.1281     -0.6362    -0.62905     0.24111   -0.027833    0.011144
0.10534     -2.4425    -0.42735    -0.48451     0.18134    -0.06551  -0.0011985
0.12483     -1.6964    -0.25877    -0.31106     0.11801   -0.098641   -0.018738
0.1336    -0.95451    -0.13307    -0.13599    0.054344     -0.1282   -0.032055
0.13749    -0.34907   -0.056741   0.0078962   -0.013866    -0.15321   -0.032705
0.14042   -0.010293   -0.034329    0.092021   -0.093119    -0.18114   -0.019388
0.14042    0.011794    -0.05804     0.10274    -0.18894    -0.21297      0.0014
0.14009    -0.20583    -0.11261    0.058566    -0.30619    -0.24091    0.026735
0.14561    -0.49263    -0.17562  -0.0044465    -0.44229    -0.25455    0.051745
0.16185    -0.68264    -0.24058   -0.039526    -0.57741    -0.25975    0.076106
0.18524    -0.69271    -0.30977   -0.025234    -0.67355    -0.26234    0.098842
0.20668     -0.5472    -0.38772    0.036154    -0.69953    -0.26949     0.11995
0.21772     -0.3442    -0.47574     0.11736    -0.64886    -0.27761     0.13457
0.21707    -0.18114    -0.55435     0.17972    -0.54103    -0.28281     0.14139
0.20863    -0.10416    -0.58358     0.19661    -0.40851    -0.28183     0.13977
0.19791   -0.072656    -0.51732     0.16121    -0.28768    -0.27891     0.12743
0.18654    0.014392    -0.34322    0.084226    -0.19966    -0.27436     0.10274
0.1768     0.23981   -0.096367  -0.0044465    -0.15093    -0.27014     0.06961
0.1716     0.62081     0.15276   -0.076879    -0.13469    -0.26657    0.032906
0.18199      1.1096     0.33595    -0.11586    -0.13729    -0.26072  0.00075039
0.21415      1.6248     0.41228    -0.12852    -0.14931    -0.24838   -0.021986
0.26287      2.0701     0.37948    -0.12625    -0.15711    -0.22986   -0.033679
0.31614      2.3559     0.27846    -0.11261    -0.14964    -0.20972   -0.034329
0.35317      2.4368      0.1729   -0.084674    -0.12235    -0.19348   -0.028482
0.36194      2.3319     0.11021   -0.043748    -0.07428    -0.18277   -0.019712
0.34505      2.1071    0.097868  -0.0057458   -0.013866    -0.17302  -0.0093186
0.31386      1.8307     0.11443   0.0085458    0.042326    -0.15905  0.00075039
0.27814      1.5712     0.13457   -0.012242    0.080328    -0.13924   0.0043233
0.24858      1.4367     0.15471   -0.059339     0.10501    -0.11358   0.0043233
0.23104       1.553     0.19011    -0.10579     0.12937   -0.084674   0.0039985
0.21447      1.9282     0.24955    -0.12625     0.16153   -0.058365    0.009845
0.17095      2.3917     0.33985    -0.10871     0.19596   -0.036602    0.024786
0.078704      2.6905      0.4701   -0.059989     0.22877   -0.012567    0.042651
-0.050244      2.6928     0.62665   0.0023744     0.26352     0.01764    0.055643
-0.17659      2.4641     0.74813    0.061489     0.30477    0.054344     0.06019
-0.26462      2.1861     0.75495     0.11151     0.35122    0.089423    0.056617
-0.30327       1.974     0.61691      0.1742     0.39344     0.11248    0.049796
-0.31561      1.7804      0.3733     0.27814     0.40611      0.1206    0.038428
-0.339      1.4832    0.096893     0.42657     0.35544     0.11183    0.023812
-0.38707      1.0262    -0.13762     0.59093     0.22097    0.094295   0.0059473
-0.44261     0.46652    -0.27631     0.72864    0.017965    0.072208  -0.0099683
-0.47314    -0.08305    -0.27728     0.81374    -0.20128    0.053369   -0.020037
-0.45788    -0.54752    -0.12235     0.83745    -0.37408    0.046223   -0.021012
-0.40656    -0.89864     0.15179     0.79426    -0.45885    0.057267   -0.012242
-0.34387     -1.1046     0.45126     0.69227    -0.45268    0.081952 -0.00054884
-0.2984     -1.1319      0.6744      0.5526     -0.3783     0.11118   0.0085458
-0.28313    -0.97984     0.76177     0.39864    -0.27144     0.13879    0.014068
-0.28151    -0.70018     0.72994     0.24695     -0.1636     0.16315    0.022837
-0.26689    -0.38252     0.63542     0.10631   -0.076554     0.18719    0.036804
-0.22239    -0.10611      0.5146   -0.024909   -0.019388     0.21805    0.054019
-0.15711     0.10112     0.37265    -0.15613   0.0062721     0.25507    0.069934
-0.097991     0.25215     0.20051    -0.28378   0.0010752     0.29275     0.07708
-0.075904     0.37298   0.0088706    -0.39844   -0.027833     0.32036    0.067661
-0.10059      0.4727    -0.15873    -0.47899   -0.067459      0.3314    0.042326
-0.15711     0.53149     -0.2539    -0.50562    -0.10741     0.32523   0.0095202
-0.2133     0.54935    -0.25325    -0.46827    -0.13762     0.30542    -0.02426
-0.24383     0.56202    -0.18082      -0.377    -0.16003     0.28431   -0.050894
-0.23149      0.6312   -0.090521    -0.26592    -0.17659     0.26839    -0.06681
-0.15711     0.83875   -0.042774    -0.17887    -0.19154      0.2606   -0.067459
-0.017114      1.2337    -0.06551    -0.15516     -0.2042     0.25735   -0.055441
0.16543      1.7628     -0.1282    -0.21005    -0.20583     0.25865   -0.036602
0.36031      2.2741    -0.16685    -0.32211    -0.18179     0.26742   -0.017764
0.53441      2.6067     -0.1256    -0.43482    -0.11943     0.28138  -0.0011985
0.66238      2.6551    0.021538    -0.47087   -0.020362     0.29503    0.010819
0.73546      2.4147     0.26969    -0.37505    0.096569     0.30672    0.020888
0.76275      1.9749     0.57696    -0.14931     0.20376     0.31809    0.032257
0.77737      1.4689      0.8813     0.15536     0.28138     0.33043    0.044599
0.82186      1.0262      1.1275     0.46717     0.33075     0.34407    0.057267
0.90404     0.69746      1.2759     0.73774     0.37168     0.35999    0.069285
0.94789     0.40936      1.3084     0.94302      0.4204     0.36778    0.074157
0.82251   -0.025559      1.2172       1.057     0.47562     0.35382    0.063438
0.40936    -0.81159     0.98264      1.0573     0.51427     0.31029    0.029983
-0.29158     -1.9536     0.60294     0.96543     0.52109     0.23429   -0.027508
-1.0844     -3.1837     0.14237      0.8511      0.5068     0.14139   -0.087922
-1.7087     -4.1198    -0.28281     0.79231     0.49511    0.055318     -0.1256
-1.9854     -4.4933    -0.57286     0.80822     0.50095   0.0026992     -0.1269
-1.8851     -4.2757    -0.70116     0.85824     0.52369  -0.0057458   -0.093769
-1.5073     -3.6468    -0.70408     0.87578      0.5474    0.017965   -0.037252
-1.0162     -2.8507    -0.64009     0.80985     0.55065    0.050771    0.023162
-0.56052      -2.092    -0.55889     0.65621     0.52207    0.079679    0.067011
-0.23733     -1.5213    -0.48614     0.44379     0.46003     0.09462    0.082277
-0.077203     -1.2163    -0.42702     0.21805     0.36973      0.0865     0.06896
-0.050894     -1.1309     -0.3718    0.015367      0.2593    0.041676    0.037454
-0.093769     -1.1224    -0.32276    -0.15158     0.14042   -0.048296   0.0043233
-0.14281     -1.0601     -0.2971    -0.28638    0.032906    -0.17335   -0.024909
-0.15516    -0.87201    -0.30652    -0.39616   -0.039201    -0.30587   -0.044723
-0.11553     -0.5472    -0.33737    -0.47867   -0.048296    -0.41858   -0.052518
-0.03173    -0.13242    -0.36498    -0.53063    0.013418    -0.49068   -0.049595
0.065712     0.28268     -0.3731    -0.54915     0.12905     -0.5079   -0.035953
0.15666     0.60359    -0.36206     -0.5394     0.26384    -0.46925   -0.017439
0.23689     0.75463     -0.3312    -0.51602     0.37558     -0.3809   0.0020496
0.30737     0.68967    -0.28346    -0.48873     0.42982    -0.25845    0.019914
0.35836     0.44216    -0.22337    -0.45723     0.41261    -0.11943    0.036154
0.38142     0.13035    -0.15256    -0.40071       0.334    0.020239    0.046223
0.38337    -0.11683    -0.07493    -0.30424     0.22032     0.14464    0.051745
0.3759    -0.26039   -0.012242    -0.17335     0.10306     0.23624    0.054668
0.36648    -0.34062    0.013093   -0.030756    0.013093     0.27716    0.058241
0.35317    -0.40591  -0.0060706     0.10177   -0.042449     0.26287    0.062139
0.3444    -0.48776   -0.052843     0.21285   -0.072656     0.20311    0.065062
0.35447    -0.56604   -0.093769      0.2921   -0.094743     0.11443    0.067661
0.39702      -0.555   -0.097991     0.32978    -0.12235    0.016341    0.071883
0.46295    -0.36563   -0.047646     0.31386    -0.15905    -0.07428    0.076106
0.5081   -0.015165    0.048822     0.24501    -0.19771    -0.14541    0.076431
0.49673     0.32751     0.14854     0.14074    -0.22532    -0.18504    0.068635
0.423     0.44541     0.19434    0.037454    -0.23409    -0.17854     0.05272
0.30282     0.22909     0.15536   -0.034329    -0.22467    -0.11163    0.036479
0.15536    -0.22207    0.058241   -0.067134    -0.20583    0.015042    0.024137
-0.0041217    -0.65309   -0.056416   -0.076879    -0.18471     0.18719    0.014068
-0.15905    -0.83758    -0.16945   -0.090196    -0.16523     0.37493   0.0072465
-0.29385    -0.70538    -0.27599    -0.13275    -0.15158        0.55   0.0075714
-0.40299     -0.3429    -0.36726    -0.22402    -0.15256     0.68772    0.012443
-0.49588    0.093321     -0.4215    -0.36661     -0.1675     0.76372    0.012119
-0.57091     0.47302    -0.43644    -0.53063    -0.18861     0.76112  -0.0011985
-0.61184     0.73709    -0.40493    -0.66348    -0.19966     0.68057   -0.020687
-0.58942     0.90339    -0.29288    -0.71642    -0.19348     0.55065   -0.030756
-0.48224      1.0148   -0.059989     -0.6729    -0.16425     0.41488   -0.028157
-0.29385       1.095     0.29568    -0.54168    -0.11066     0.32816   -0.011592
-0.053492      1.1285     0.69194    -0.36433     -0.0405     0.34212     0.01829
0.19141      1.0954     0.98687    -0.19998    0.036804     0.48666    0.061814
0.38695     0.98752      1.0496   -0.097341     0.10859     0.73936     0.11118
0.49413     0.79231     0.82479   -0.078503     0.16413      1.0239     0.15471
0.49511     0.49641     0.37168    -0.13664     0.19726      1.2539     0.18199
0.40611     0.10566    -0.16003    -0.24058     0.21188      1.3568     0.18654
0.28073    -0.30262    -0.59332    -0.34712     0.21642      1.3045     0.16478
0.19271    -0.62061    -0.81517    -0.42085      0.2187      1.1288     0.12613
0.19109     -0.7632    -0.79405    -0.44131     0.22519     0.90599    0.089748
0.26904    -0.70993     -0.5839    -0.40558     0.24306     0.71728    0.070909
0.37136    -0.49588    -0.30002    -0.32568     0.27261     0.61009    0.066037
0.42268    -0.20648   -0.062587    -0.22467     0.30737     0.57014    0.065062
0.3772    0.030633    0.065062    -0.13177     0.32848     0.54675    0.057592
0.23656     0.12937    0.081627   -0.072981     0.31906     0.49381    0.042326
0.047523    0.098842    0.030633   -0.058365     0.27554     0.41163    0.030633
-0.13015    0.032582   -0.051544   -0.084999     0.19693     0.33498    0.023812
-0.23993  -0.0060706    -0.13827     -0.1295    0.086824      0.2921    0.022837
-0.25715   -0.062587    -0.20388    -0.16165   -0.046347     0.27164    0.024137
-0.21265    -0.24968    -0.23701    -0.16165    -0.19024     0.23169    0.025761
-0.17627    -0.62385    -0.24253    -0.12722    -0.32828     0.12515    0.025436
-0.20063     -1.1195    -0.24513   -0.064211    -0.45073   -0.067459    0.017316
-0.2932     -1.6191    -0.26462    0.021213    -0.55954    -0.32925  0.00010078
-0.41208     -2.0244    -0.28053     0.11833    -0.65698    -0.61671    -0.02426
-0.49718     -2.2563    -0.23603     0.22065    -0.73299    -0.88143   -0.047971
-0.49913     -2.2368   -0.098316     0.31419    -0.76839     -1.0822   -0.064211
-0.40299     -1.9029     0.11118      0.3798    -0.74728     -1.1916   -0.072331
-0.23019     -1.2563     0.34115     0.40091     -0.6703     -1.2082   -0.067784
-0.023935    -0.38447     0.53279     0.36811    -0.56344     -1.1543   -0.050569
0.16543     0.52694     0.63737     0.28073    -0.45203     -1.0734   -0.021986
0.30802      1.2457     0.61691     0.15893    -0.34939     -1.0006    0.012119
0.39572      1.6235     0.45418     0.02706    -0.26624    -0.95613    0.044599
0.43957      1.6326     0.17582   -0.085324    -0.20128    -0.93989    0.072208
0.46035      1.3435    -0.13989    -0.14834    -0.14671    -0.94282    0.095919
0.47172     0.86864    -0.38285    -0.13307   -0.092794    -0.95223     0.11313
0.47627     0.32751    -0.46275   -0.021661   -0.035628    -0.95743     0.12158
0.46425    -0.14866    -0.34842     0.15666    0.017965    -0.94899     0.12418
0.43209    -0.41988   -0.095068     0.31711    0.053369     -0.9282     0.11866
0.37915    -0.41565     0.18427     0.36129    0.057267    -0.90189     0.10404
0.30477    -0.18471      0.3876     0.24858    0.025436    -0.87915    0.080653
0.19953     0.11118     0.45808    0.026085   -0.027508    -0.87428    0.046548
0.047847     0.24436     0.39442    -0.20908   -0.086948    -0.89604 -0.00087364
-0.14216    0.075456     0.24566    -0.36596    -0.14184    -0.93372   -0.055766
-0.32698    -0.31854    0.091372    -0.39649    -0.18082    -0.96847    -0.10221
-0.44943    -0.70051  -0.0080194    -0.30847    -0.19706    -0.98861    -0.12885
-0.47379    -0.84472   -0.034329    -0.15158    -0.18666    -0.98991    -0.13697
-0.39844    -0.65536  -0.0034721    0.011469    -0.15483    -0.97335    -0.12917
-0.25357    -0.19933    0.050771     0.13782    -0.11748    -0.93892    -0.11098
-0.081751     0.35089    0.080978     0.21025    -0.09117    -0.88273   -0.087922
0.067011      0.7975    0.054668     0.23234   -0.075904    -0.80705   -0.067459
0.15666     0.99888   -0.036602      0.2187   -0.067134    -0.71707   -0.051868
0.17127     0.92418      -0.174     0.18199   -0.061937    -0.62093    -0.04115
0.12613     0.65264    -0.31951      0.1349   -0.061613    -0.52089   -0.031406
0.061165     0.33108    -0.43417    0.092671   -0.067784    -0.42377    -0.02426
0.017965     0.10924    -0.49556    0.058891   -0.079152    -0.33543   -0.017114
0.026085    0.080653     -0.4962    0.033231   -0.092469    -0.25715   -0.012242
0.083901     0.24598    -0.43449    0.016341   -0.098641    -0.18504  -0.0080194
0.15958     0.53246    -0.32373    0.012119   -0.096042    -0.11586  -0.0076946
0.21447     0.81732    -0.19024    0.027709   -0.085648   -0.052518   -0.014191
0.22974     0.99076   -0.067134    0.059865   -0.072656   0.0049729   -0.030106
0.20603       1.006    0.023487    0.097543    -0.05804    0.058241   -0.053492
0.15698     0.88325    0.071883     0.12613   -0.045047     0.11086   -0.075255
0.10826     0.67115    0.092346     0.14399   -0.036278     0.16803   -0.085648
0.074157     0.41456     0.10631     0.15926   -0.024909     0.23169   -0.085648
0.055968     0.15536     0.12937     0.17777  -0.0015233      0.2973   -0.080127
0.048497   -0.060638     0.16023     0.20213    0.039727     0.35706   -0.077853
0.042975    -0.19738     0.17907     0.23559    0.092021     0.40416   -0.085324
0.029009    -0.25325     0.15341     0.27196     0.14269     0.43307    -0.10416
-0.0034721    -0.26429     0.06961     0.29827     0.18004     0.44769    -0.12917
-0.04992    -0.25942   -0.072331     0.30282     0.20051     0.45873    -0.15418
-0.10156    -0.22109     -0.2539     0.28236     0.20473     0.46652    -0.17205
-0.14671   -0.079152    -0.43547     0.23786     0.19271     0.45938    -0.18212
-0.17562     0.26352    -0.55629     0.17257     0.16315     0.42527    -0.19024
-0.17887     0.82479    -0.54882     0.10339     0.11736     0.36194    -0.19771
-0.15223      1.5062    -0.36661    0.053044    0.054993     0.27554     -0.2055
-0.097341      2.1325   -0.018413    0.039078   -0.012567     0.18167    -0.20745
-0.01484      2.5242     0.41975    0.054019   -0.067134    0.098517    -0.19933
0.092346      2.5674     0.82706    0.072533   -0.092469    0.038428    -0.17724
0.21382      2.2562      1.0807    0.062789   -0.082725  0.00075039    -0.14054
0.34342      1.6907      1.1155   0.0085458   -0.055766   -0.025234   -0.088572
0.47335     0.99726     0.94562   -0.091495   -0.042124   -0.053817   -0.027833
0.5971     0.25118     0.64387    -0.22694   -0.059989    -0.10091    0.031282
0.715     -0.4988     0.31386      -0.377    -0.10709    -0.15548    0.079354
0.82251     -1.1328    0.053369    -0.51439    -0.16035    -0.19089     0.11378
0.88747     -1.4862   -0.095068    -0.60989    -0.19413    -0.18764     0.13165
0.86019     -1.4593    -0.16263    -0.63555    -0.19478    -0.14704     0.13002
0.70006     -1.1169    -0.20875     -0.5943    -0.16133   -0.088572     0.10794
0.41098    -0.61086    -0.25162    -0.50985    -0.10351   -0.036927    0.068635
0.055643    -0.04115    -0.24415    -0.38707   -0.038227  -0.0080194    0.020888
-0.28216     0.56429    -0.13404    -0.21557     0.01894  -0.0015233   -0.026209
-0.54395       1.161    0.059865  -0.0083442    0.061165  -0.0044465   -0.062262
-0.71902       1.631      0.2593     0.20798    0.088124      0.0014   -0.079477
-0.81744      1.8291     0.38727     0.40611     0.10404    0.021538   -0.078503
-0.84148      1.6956      0.4191     0.57111     0.11476     0.06019   -0.062262
-0.78853       1.299      0.3772     0.68772     0.12255     0.12515   -0.029782
-0.65666     0.76242     0.28333     0.73871     0.13002     0.21837    0.015692
-0.47152     0.17972     0.13912     0.71533     0.13587     0.33011    0.072858
-0.28898     -0.4124   -0.058365     0.62665     0.14334     0.43892     0.12743
-0.18049     -1.0321    -0.30359     0.50095     0.15861     0.51102     0.16738
-0.20258     -1.7009    -0.57968     0.37363     0.18622     0.52369     0.18232
-0.35459     -2.3807     -0.8444     0.26937     0.22032     0.47562      0.1742
-0.56929     -2.9589     -1.0204     0.17745     0.24793      0.3863     0.15406
-0.74891     -3.3055     -1.0581    0.055318     0.25735     0.28171     0.13327
-0.82036     -3.3503    -0.99089    -0.14314     0.24403     0.18557     0.11833
-0.7632     -3.0917    -0.90189    -0.44391     0.20765     0.10826     0.11313
-0.61086     -2.5792    -0.83076    -0.81452     0.15731     0.05142     0.11573
-0.41695      -1.899    -0.74143     -1.1673     0.10501    0.016016     0.12288
-0.23441     -1.1608    -0.56636     -1.4079    0.065387   0.0020496     0.13132
-0.09182    -0.47737    -0.28476     -1.4674    0.047847   0.0062721     0.14529
0.0043233    0.071883    0.037778     -1.3157    0.053369    0.023487     0.16673
0.057592     0.44704     0.32816    -0.96815    0.081303    0.057267     0.18719
0.081627     0.65946     0.56104    -0.48126     0.11931     0.12028     0.19823
0.082277     0.75008     0.75755    0.071883     0.15309     0.21415     0.19336
0.068635     0.76827     0.93522     0.61269     0.17387     0.33173     0.17907
0.054668     0.75041      1.0635      1.0629     0.17907     0.46133     0.16478
0.045249     0.71403      1.0954      1.3487     0.17127      0.5958     0.15114
0.04395     0.66661      1.0171      1.4328     0.15211     0.72182      0.1336
0.048172     0.61074      0.8485       1.337     0.12645     0.81147     0.11248
0.060515      0.5487     0.62828      1.1236     0.10079     0.84525    0.093645
0.084551     0.49121     0.39214     0.87091    0.079354     0.81667    0.083901
0.12775     0.46165      0.1755     0.64062    0.063113     0.73774    0.081952
0.19271     0.47464   0.0059473     0.46295    0.042326     0.62665    0.081952
0.27099     0.52986    -0.10124     0.33563    0.012768     0.51232     0.07773
0.3431     0.61041    -0.14736     0.23461   -0.025234     0.41845    0.065062
0.39377     0.68934    -0.14411     0.14821   -0.066485     0.35674    0.048822
0.41488     0.73969    -0.10838    0.080978   -0.095393     0.32328    0.033231
0.40643     0.74846   -0.060963    0.041351   -0.096042      0.3051    0.019589
0.37363     0.72507   -0.018738    0.029983   -0.068109     0.29145    0.009845
0.32946     0.69194    0.009845    0.033881   -0.017764     0.27846    0.003024
0.29308     0.69454    0.032906    0.045574    0.036479     0.27554  0.00075039
0.28691     0.77087    0.064088    0.052395    0.072208     0.28528   0.0033489
0.31614      0.9297     0.10534    0.043625    0.078704     0.30542    0.008221
0.33985      1.1447     0.13944    0.012443    0.058566     0.32166   0.0056225
0.29145      1.3623     0.14691   -0.045697    0.019589     0.30607   -0.010293
0.14561      1.5355     0.12158    -0.12592   -0.025234     0.24241   -0.039201
-0.045372      1.6839    0.073832    -0.20908   -0.060313     0.13977   -0.072981
-0.19089      1.8492    0.026085    -0.26787   -0.070058    0.024786    -0.10189
-0.22791      2.0285   0.0075714    -0.28703   -0.048296   -0.081101     -0.1217
-0.15191      2.1507    0.027385    -0.26559   0.0023744    -0.16685    -0.12657
-0.0011985      2.1295    0.072208    -0.22694    0.071558    -0.22239     -0.1178
0.17745      1.9239     0.12353    -0.19901     0.14464    -0.24448    -0.10221
0.34212       1.527     0.17355    -0.19836     0.19206    -0.24318   -0.086298
0.46523     0.91606     0.22324    -0.21525     0.19693    -0.23279   -0.065835
0.54318     0.11508     0.27489    -0.22726     0.15861    -0.22532   -0.035628
0.58833    -0.70376     0.32783    -0.21102     0.09397    -0.22239  0.00075039
0.61724     -1.2998      0.3759    -0.15256     0.02706    -0.22499    0.036479
0.63932     -1.5574     0.41131   -0.057715   -0.021012    -0.23474    0.056617
0.64582     -1.5612     0.41196    0.044275   -0.041475     -0.2539    0.058891
0.60002     -1.5275     0.35154     0.10436   -0.035303    -0.28411    0.043625
0.45321     -1.6249     0.21545    0.088773   -0.025559    -0.32503   0.0085458
0.18946     -1.8468    0.027709   0.0078962   -0.030756    -0.37343   -0.037902
-0.14119     -2.0556    -0.15548   -0.081751    -0.05739    -0.42312    -0.08305
-0.44391     -2.1157    -0.30749    -0.13047    -0.10189     -0.4569    -0.11618
-0.63327     -1.9725    -0.43774    -0.13242    -0.14769     -0.4634    -0.13177
-0.67745     -1.6493    -0.57578    -0.12203    -0.18244    -0.44326    -0.13145
-0.61703     -1.2592    -0.74143    -0.14022    -0.19998    -0.40493    -0.11975
-0.54395    -0.97757    -0.93469    -0.20875     -0.2016    -0.35881    -0.10416
-0.55142    -0.96912     -1.1322    -0.31496    -0.20388    -0.31074   -0.095393
-0.68524     -1.2566     -1.2783     -0.4215    -0.21622    -0.26462   -0.099615
-0.91261     -1.6502     -1.2956    -0.47802    -0.23538    -0.21979    -0.10968
-1.1452     -1.8964     -1.1299    -0.44391    -0.25098      -0.174    -0.11878
-1.2848     -1.8533    -0.78886    -0.30067    -0.25357    -0.12625    -0.12365
-1.2686     -1.5434    -0.33705   -0.061613    -0.22986   -0.078503     -0.1217
-1.09      -1.114      0.1284     0.23754    -0.16295   -0.028807    -0.11001
-0.79665    -0.74533     0.51167     0.55292   -0.043748    0.033556   -0.092469
-0.4686    -0.55272     0.75041     0.84103     0.12483     0.11866   -0.068758
-0.17562    -0.53453     0.82966      1.0638     0.31451     0.22552   -0.037577
0.040702    -0.61573     0.77834      1.2035     0.46685     0.33465  0.00010078
0.1677    -0.70441     0.64582      1.2604     0.53408     0.41975    0.038753
0.21317    -0.74014      0.4662      1.2461     0.49901      0.4597    0.070584
0.19953     -0.7096     0.25085       1.173     0.38662     0.44834     0.08585
0.15503    -0.65958    0.015367      1.0453     0.24013     0.39604    0.078704
0.10599    -0.64594    -0.20388     0.85499     0.10047     0.32036    0.058241
0.069285    -0.68947    -0.36206     0.58865   -0.014191     0.23754    0.033881
0.056292    -0.78821    -0.44554     0.24695    -0.10709     0.15926    0.013418
0.067661    -0.94411    -0.47574    -0.14054    -0.18212    0.099167   0.0033489
0.098517     -1.1143    -0.48061    -0.50595    -0.24091     0.06019     0.01017
0.13684      -1.177    -0.47509    -0.77424    -0.27728    0.037129    0.029009
0.17485     -1.0162    -0.46372    -0.89604    -0.28508    0.024461    0.050121
0.20603    -0.61768    -0.44781    -0.87071    -0.26234    0.014392    0.062789
0.22747   -0.078503    -0.42312    -0.74923    -0.21557  -0.0073698    0.064737
0.23396     0.46198    -0.37343    -0.60404    -0.16847   -0.048296    0.063438
0.23006     0.90956    -0.27111    -0.49328    -0.13989    -0.10903    0.067661
0.23331      1.2461    -0.11586    -0.43612    -0.13307    -0.17562    0.082602
0.2554      1.4955     0.05142     -0.4228    -0.14054    -0.23733     0.10436
0.29827      1.6777     0.17257    -0.42117    -0.14639    -0.28638     0.12515
0.34375      1.7882     0.20733    -0.40201    -0.13924    -0.31951     0.13782
0.37006      1.8096     0.16348    -0.35296    -0.11261    -0.34225     0.14464
0.35901      1.7287     0.08585    -0.28021   -0.070382    -0.35816     0.14626
0.30022      1.5501    0.028684    -0.20031   -0.021012    -0.36758     0.14139
0.18946      1.2997    0.029333    -0.12787    0.036154    -0.36726     0.13002
0.053044      1.0002     0.09462   -0.074605     0.10826    -0.35232     0.11313
-0.065835     0.65881     0.19499   -0.037902     0.21935    -0.32341    0.099492
-0.12235     0.28333     0.27976   -0.014191     0.39831    -0.28703    0.098193
-0.10936    -0.10416     0.31581   0.0026992     0.65134    -0.25162     0.11086
-0.061937    -0.45625     0.29178    0.014068     0.93197    -0.22889     0.12937
-0.031081    -0.70116     0.19563    0.017965      1.1483    -0.22629     0.14464
-0.036278    -0.77521     0.03518    0.010819      1.2055    -0.23961     0.14724
-0.063237    -0.65276    -0.11943  -0.0063954       1.057    -0.25487       0.131
-0.078178    -0.36433    -0.18861    -0.04115     0.73189    -0.25942    0.098517
-0.060313    0.011469    -0.15418    -0.09929     0.31971    -0.24156    0.054344
-0.013216     0.36486   -0.065186    -0.17172   -0.069733    -0.19706   0.0088706
0.046548      0.5958    0.029009    -0.23896    -0.35069    -0.12722   -0.024585
0.096893     0.66791     0.10924    -0.28216    -0.49556   -0.032705     -0.0405
0.12515     0.62471     0.18622    -0.29125    -0.53226    0.090722    -0.04115
0.12872     0.53831     0.28593    -0.26364    -0.51277     0.24273    -0.03173
0.11281     0.46328     0.40514    -0.20128    -0.48646     0.40384    -0.02361
0.091047     0.41715     0.51037    -0.11586    -0.49101     0.54383   -0.021337
0.080328     0.41488      0.5578   -0.039851    -0.55337     0.63055   -0.025559
0.091047      0.4571     0.52402   -0.010943    -0.68914      0.6377    -0.03303
0.11866     0.52304      0.4191   -0.042774    -0.88435     0.56721   -0.039201
0.15211     0.58151     0.28073    -0.11098     -1.0906     0.44671   -0.041475
0.17452     0.60489     0.15633    -0.16003     -1.2413     0.31289   -0.041799
0.1781     0.58768      0.0852    -0.14834     -1.2738     0.19661   -0.046347
0.1651     0.54285     0.06896   -0.076554     -1.1754     0.11086   -0.054142
0.14302     0.49771    0.076755    0.013743    -0.98082    0.042651   -0.062262
0.11866      0.4701    0.064413    0.074157    -0.74891   -0.028807   -0.070382
0.096244     0.46165   0.0049729    0.076106    -0.53128    -0.12105   -0.073955
0.083901      0.4649   -0.097017    0.022512    -0.35719    -0.23376   -0.070707
0.087799     0.46847    -0.21005   -0.060638    -0.22986    -0.34874    -0.05804
0.10989     0.46685     -0.2945    -0.14346    -0.13307    -0.44976   -0.034654
0.14561     0.46815    -0.31594    -0.20518   -0.042449    -0.52576  -0.0083442
0.18751     0.47854    -0.25747    -0.23733    0.062464    -0.56604    0.010495
0.22422     0.49901    -0.11651    -0.24091     0.18784    -0.56604    0.014717
0.24728     0.51882    0.095919    -0.21914     0.31484    -0.53128   0.0069217
0.25443     0.52272     0.34375     -0.1649     0.40579    -0.47672  -0.0080194
0.25313     0.50583     0.57793   -0.067134     0.43502    -0.41338   -0.022961
0.25475     0.47789     0.74748    0.074806     0.40611    -0.34777   -0.030756
0.26612      0.4571     0.81699     0.23331      0.3444    -0.28281   -0.028807
0.28788     0.45028     0.77087     0.36389     0.28171    -0.21557   -0.017114
0.30899     0.44834     0.62341     0.43469     0.23624    -0.14834  -0.0021729
0.31711     0.45191     0.41585     0.44444      0.2096   -0.086298    0.012768
0.30055     0.47335     0.20376     0.41163     0.19791   -0.038551    0.024786
0.26547     0.52272    0.036479     0.35966     0.19791    -0.01484    0.031932
0.22487      0.5984   -0.052843     0.30607     0.20376   -0.017439    0.031607
0.19239     0.68512   -0.055116     0.26514     0.20668   -0.043423     0.02706
0.1781     0.75203   0.0075714     0.24403     0.19531   -0.082076    0.020239
0.18134     0.76535    0.092346     0.23526     0.15828    -0.11651    0.015367
0.18264     0.69227     0.14886     0.22227    0.094945    -0.13015   0.0091954
0.15049     0.51914     0.15244     0.19563    0.019914    -0.11715   0.0020496
0.071558     0.25995     0.10599     0.15601   -0.044723   -0.091495  -0.0076946
-0.04927   -0.035628    0.030308     0.11606   -0.082076   -0.077203   -0.020362
-0.18926    -0.30197   -0.053492    0.088124     -0.0824   -0.089221   -0.034004
-0.30944    -0.45983     -0.1256    0.078055   -0.044723    -0.12657     -0.0405
-0.37408     -0.4137    -0.16588    0.083901    0.025761    -0.18082   -0.035628
-0.36888    -0.11261    -0.16003    0.099492      0.1284    -0.23831   -0.021661
-0.30879     0.40124    -0.11066     0.11866     0.26157    -0.27826  -0.0093186
-0.22239      1.0106   -0.039526     0.13977     0.40221    -0.28313  -0.0047713
-0.13307      1.5962    0.028034     0.15926     0.51687    -0.25033   -0.013541
-0.051868      2.0526     0.07708     0.17745     0.57501    -0.19121   -0.028157
0.016016      2.3095    0.089423     0.19369     0.56429     -0.1178   -0.039526
0.075781      2.3348    0.062139     0.20603     0.49965   -0.034654    -0.04115
0.1297      2.1315    0.008221     0.21447     0.41423    0.054668   -0.032055
0.1781      1.7222   -0.062912     0.21252     0.33758     0.14464   -0.018413
0.21707      1.1476     -0.1597     0.18167     0.27619     0.22584  -0.0089938
0.24241     0.44216    -0.28605     0.10534     0.22649     0.28236  -0.0060706
0.25215    -0.37115    -0.43449    -0.01549     0.18394     0.29665  -0.0057458
0.23136     -1.2592      -0.593     -0.1597     0.14334     0.26255   -0.008669
0.15991     -2.1891    -0.75443     -0.2958     0.10144     0.19044   -0.017114
0.030308     -3.0787    -0.89767    -0.39324    0.058241     0.10924    -0.03238
-0.12333     -3.7946    -0.97854    -0.41923    0.021863    0.053369   -0.045697
-0.2474     -4.1844    -0.94184    -0.34322   0.0023744    0.041351   -0.054142
-0.32146     -4.1224    -0.74728    -0.16198  -0.0018481    0.071558   -0.058689
-0.36628     -3.5819     -0.4202    0.087149  -0.0054209     0.13197   -0.064536
-0.41176     -2.6666    -0.06616     0.32946   -0.019388      0.2187   -0.072006
-0.46243     -1.5551     0.18069     0.48894   -0.044398     0.33368   -0.082076
-0.49815    -0.45495     0.23169     0.51882   -0.070707     0.46035   -0.091495
-0.49491     0.42008      0.0865     0.42268     -0.0824     0.56104   -0.099615
-0.45268     0.89754    -0.17627     0.26384   -0.070382     0.60294    -0.10384
-0.39162     0.93977    -0.45171     0.12093   -0.033679     0.57404    -0.10091
-0.34127     0.61951    -0.63555    0.048497    0.022837     0.49153   -0.086948
-0.30554    0.076755     -0.6375    0.058566    0.090397     0.39344   -0.061288
-0.26819    -0.54298    -0.42637     0.12645     0.15861     0.30834   -0.021986
-0.20778     -1.1289   -0.055766     0.20993     0.20895      0.2567     0.02706
-0.123     -1.6171     0.35544     0.27879     0.22909     0.24468    0.081952
-0.035953      -1.964     0.69194     0.31581     0.21935     0.26287     0.13457
0.026735     -2.1102     0.88812     0.30607     0.18784      0.2921     0.17874
0.057267     -1.9884     0.94302     0.24468     0.14886     0.31711     0.20765
0.063438     -1.5635     0.90144     0.14724     0.11606     0.32556     0.22129
0.053044     -0.8824     0.80985    0.040702    0.095594     0.31354     0.22032
0.02641   -0.074605     0.69324   -0.065186    0.079029     0.29373     0.21058
-0.01484       0.677     0.54708    -0.18894    0.049472     0.29308     0.19271
-0.04992       1.224     0.36746    -0.35296 -0.00054884     0.33011      0.1703
-0.050244       1.527     0.18069    -0.54525   -0.060638     0.39799     0.15211
0.0036737      1.6251    0.046873    -0.71123    -0.11586     0.46328     0.14432
0.099167       1.567    0.013093    -0.77976    -0.15158     0.48406     0.14789
0.19369      1.3471    0.067986    -0.71642    -0.16815     0.42917     0.15503
0.23266     0.90566     0.13392    -0.55175    -0.17692     0.30087     0.15828
0.17192      0.2174     0.11118    -0.35134    -0.19673     0.12515     0.15114
0.0014    -0.63652    -0.04862    -0.18244    -0.23149   -0.061288     0.12515
-0.23993     -1.4784    -0.30814   -0.075579    -0.27793    -0.22889    0.083251
-0.46405     -2.1329    -0.56279   -0.019388    -0.31918    -0.35849    0.037454
-0.5813     -2.4999    -0.72195   0.0088706    -0.33478    -0.44424 -0.00087364
-0.56019     -2.5798    -0.76027    0.016991    -0.30847    -0.48873   -0.021337
-0.43222     -2.4324     -0.7213  -0.0089938    -0.24318    -0.50433   -0.025884
-0.26559     -2.1193    -0.66998   -0.072006    -0.15873    -0.50205   -0.017764
-0.11488     -1.6613    -0.64659    -0.13957   -0.073306    -0.48873  -0.0063954
-0.0044465     -1.0672    -0.64562    -0.15808  -0.0050961    -0.46015   0.0039985
0.067011    -0.38285    -0.62028   -0.088247    0.029658    -0.40201    0.011794
0.11573     0.29243    -0.51927    0.049472    0.029658    -0.30262     0.01894
0.16088     0.85142    -0.32601     0.17582    0.010819    -0.16588    0.028359
0.22032      1.2509   -0.085648     0.20311  -0.0067202  -0.0096434    0.042975
0.30704      1.5244     0.14204     0.10014   -0.012892     0.13977    0.060515
0.41845      1.7284     0.32231   -0.073631  -0.0067202      0.2567    0.073182
0.52077      1.8489     0.45126    -0.21395   0.0075714     0.31744    0.073507
0.55844      1.7658     0.53441    -0.24838    0.019914     0.30802    0.054344
0.48926      1.3688     0.56949    -0.18082    0.022837     0.23721    0.020239
0.31159     0.68317        0.55   -0.069733    0.016341      0.1349   -0.021337
0.076755   -0.086948     0.47107    0.024461 -0.00022403    0.038753   -0.062262
-0.13404    -0.63262     0.33887    0.069285   -0.022636    -0.03238   -0.096042
-0.24286    -0.71675     0.18622    0.070584    -0.04862   -0.075255    -0.11586
-0.20615    -0.31204    0.064737    0.068635   -0.071682   -0.098316    -0.12073
-0.044398     0.37883    0.009845    0.092996   -0.080127    -0.10221    -0.10709
0.16056      1.0317    0.016341     0.13749   -0.066485   -0.085973   -0.080776
0.3025      1.4088    0.054668     0.17062   -0.038551    -0.05804   -0.053492
0.30964      1.4263    0.092021     0.16153   -0.010618   -0.039201   -0.037252
0.18394      1.1041     0.11151     0.11054   0.0036737   -0.042124   -0.036602
0.00042559      0.5539     0.11151    0.050771   0.0046481   -0.062912   -0.041475
-0.14314   -0.036278     0.10404    0.022512   0.0026992   -0.085324   -0.041475
-0.17887    -0.47737     0.10274    0.044275   0.0069217    -0.09117   -0.029782
-0.10221    -0.68849     0.12288     0.10924    0.019914   -0.068109  -0.0031473
0.022512    -0.74078      0.1625     0.18427    0.030957   -0.011592    0.029009
0.090722    -0.76709     0.20148     0.22779    0.025761    0.067661    0.050446
0.048172    -0.79113     0.22292     0.20733 -0.00087364     0.14561    0.059216
-0.07428    -0.67517     0.22422     0.12613   -0.043748     0.19823    0.059216
-0.19836     -0.2854      0.2135    0.025761   -0.087272      0.2044    0.059865
-0.26559     0.30704     0.20018   -0.042124    -0.11488     0.14756    0.063113
-0.26364      0.8498     0.18719   -0.047646    -0.11651    0.027385    0.065712
-0.21947      1.1187     0.17387   0.0065969    -0.10156    -0.13697    0.064737
-0.17465      1.0603     0.15438    0.092671   -0.080776    -0.31301    0.057267
-0.16068     0.78061     0.11151     0.17647    -0.06616    -0.46892    0.042651
-0.19641     0.44054    0.032582     0.23006   -0.062912    -0.57871     0.01764
-0.29028     0.16413   -0.082076     0.24078   -0.069733     -0.6336   -0.016789
-0.42994   0.0026992    -0.20713     0.21123   -0.080776    -0.63977   -0.058365
-0.57189    -0.04862    -0.31042     0.16121   -0.085648    -0.61379    -0.10059
-0.65374   -0.014516    -0.36498     0.11151   -0.077853    -0.56831    -0.13242
-0.64204    0.079029    -0.35589    0.080653    -0.05804    -0.50757    -0.14541
-0.54005      0.2122    -0.29482    0.075131   -0.030106    -0.43547    -0.13404
-0.37927     0.38662    -0.20843    0.092996  0.00075039    -0.35621    -0.10351
-0.20615      0.5984    -0.12008      0.1258     0.02706    -0.27566   -0.063561
-0.060963     0.82446   -0.034978     0.15893    0.040377    -0.20063   -0.026533
0.038753      1.0249    0.053694     0.17095     0.03583     -0.1334  -0.0047713
0.09462      1.1665     0.14659     0.15276    0.020239   -0.075579  -0.0041217
0.12288      1.2412     0.21642     0.10631 -0.00087364   -0.028157   -0.017114
0.14172      1.2548     0.21577     0.03453   -0.017764    0.018615   -0.030106
0.16803      1.2211     0.13002    -0.06551   -0.033679    0.063438   -0.038227
0.20635      1.1515  -0.0063954    -0.18666   -0.055441     0.10534   -0.036602
0.25248      1.0749    -0.13307    -0.30457   -0.088247     0.13944   -0.031081
0.2986      1.0294    -0.19576    -0.38577    -0.12982      0.1638    -0.03303
0.33887      1.0427    -0.18277    -0.41046    -0.17205     0.17939   -0.041799
0.36843      1.1009    -0.11618     -0.3783     -0.2042     0.18914   -0.051219
0.38597      1.1457   -0.034654    -0.30424     -0.2159     0.20213   -0.062587
0.39052      1.0947    0.023812    -0.21135    -0.20485     0.22941   -0.076879
0.3824     0.89689    0.041676     -0.1269    -0.17594     0.27326   -0.094093
0.36031     0.60749    0.021213   -0.070707    -0.14379     0.32296    -0.11196
0.32978     0.38825   -0.018738   -0.044723    -0.12138     0.36486    -0.12917
0.30477      0.3811   -0.059339   -0.034978    -0.10903     0.38792    -0.14704
0.30217     0.58768   -0.084349   -0.017439    -0.09929     0.38857    -0.16198
0.33173     0.90826   -0.092469     0.01894    -0.08305     0.37915    -0.16458
0.39539      1.2139   -0.097991    0.067011   -0.050569     0.38305    -0.14119
0.48374      1.3835    -0.12073     0.10209  -0.0083442     0.41943   -0.089546
0.58248      1.3097     -0.1649     0.10274     0.03583     0.48179   -0.019063
0.67473     0.90729    -0.19316    0.087799    0.078704     0.54026    0.058566
0.74748     0.17062    -0.14996     0.10339      0.1219     0.56494       0.131
0.79718    -0.72747   -0.014516     0.18134     0.16705     0.54383     0.19304
0.82706      -1.518       0.169     0.30867     0.21058     0.48341     0.24241
0.83713     -2.0397     0.32198     0.44574      0.2463     0.40189     0.28073
0.80497     -2.3142     0.37103     0.54708     0.26612     0.31354     0.30022
0.68025     -2.4853     0.27229     0.57404      0.2593     0.21707     0.28853
0.41683     -2.6903    0.033231      0.5055     0.21935     0.10339     0.23851
0.022188     -2.9664    -0.27111     0.35317     0.14659   -0.033354     0.15016
-0.43319     -3.2444    -0.51537     0.16056     0.06084    -0.17335      0.0433
-0.84375     -3.3873    -0.57838   -0.011592   -0.017114     -0.2867   -0.059664
-1.1101     -3.2571    -0.41273    -0.11975   -0.072006    -0.35069    -0.14184
-1.1851     -2.7975   -0.075904    -0.14379   -0.092469    -0.36628    -0.19446
-1.0874     -2.0891     0.29275   -0.093444   -0.077528    -0.35751    -0.21785
-0.88597     -1.3124      0.5539  -0.0034721   -0.035953    -0.35037     -0.2159
-0.65926    -0.65276     0.64452    0.090397    0.010819    -0.36141    -0.19186
-0.46632    -0.21622     0.57469     0.16121    0.038753    -0.38577    -0.15353
-0.32731  -0.0073698     0.38078     0.19401    0.034206    -0.41111    -0.11618
-0.24188    0.034206    0.098517     0.18557   0.0017248    -0.42897   -0.087922
-0.19446   -0.013541    -0.22824     0.14561   -0.039201    -0.44586   -0.071357
-0.16328   -0.075904    -0.53486    0.093645   -0.070058     -0.4686   -0.063561
-0.13015   -0.097341    -0.75085     0.05207   -0.076554    -0.50075   -0.059664
-0.0837   -0.055116    -0.81387    0.040702    -0.04992    -0.53843   -0.051219
-0.027183    0.041676    -0.69953    0.070909    0.003024    -0.56929   -0.036602
0.030633      0.1703    -0.45106     0.13684    0.067661    -0.58001   -0.016464
0.078704     0.31127    -0.15776     0.19628     0.12093    -0.56117   0.0059473
0.11346     0.45743     0.10047     0.20246     0.14984    -0.51894    0.028034
0.1349     0.60294     0.28236      0.1336     0.15146    -0.46795    0.047198
0.14756     0.72572     0.37688   0.0095202     0.13197     -0.4176    0.062789
0.15763     0.80952     0.39961    -0.11975     0.10469    -0.36109    0.076106
0.16965      0.8459      0.3785     -0.2107    0.076755    -0.28216    0.087474
0.1781     0.84103     0.34537    -0.24545    0.048497    -0.17984    0.093645
0.17874     0.80692     0.32328    -0.22629    0.023487   -0.061613    0.093321
0.17062     0.75723     0.32653     -0.1714  0.00010078    0.061165      0.0865
0.15406     0.71013     0.36226    -0.10579   -0.021986      0.1768    0.073182
0.1323     0.68772     0.42527   -0.066485   -0.040175     0.27424    0.057267
0.11443     0.71565     0.49641   -0.076879    -0.04862     0.35122    0.047198
0.11086     0.80822     0.54155    -0.13892   -0.047971     0.40676    0.051096
0.12548     0.95016     0.53214    -0.22499   -0.039851     0.43827    0.070259
0.16023      1.0957     0.46133    -0.29223   -0.026858     0.44379     0.10144
0.20603      1.1785      0.3457    -0.30424   -0.013866      0.4282     0.13749
0.24988      1.1541     0.20863       -0.25  0.00075039     0.40254     0.16705
0.28073       1.034    0.074482    -0.15516    0.019264     0.37818     0.18427
0.29373     0.87773   -0.040825   -0.072006    0.037129     0.35447     0.18914
0.2921     0.74423    -0.13859    -0.05739    0.046223     0.32328     0.18459
0.28626     0.65719    -0.23506    -0.14184    0.039727     0.27424     0.17777
0.28593     0.60457    -0.34387    -0.30977     0.01894     0.20668     0.16738
0.29697     0.55974    -0.46307     -0.5027  -0.0076946     0.12613     0.15503
0.31419      0.5042    -0.57903    -0.65016   -0.030106    0.040052     0.14496
0.33368     0.41878    -0.68102    -0.69824    -0.03238   -0.041799     0.13749
0.34927     0.30737    -0.75735    -0.63068  -0.0031473    -0.11358      0.1284
0.35934     0.21317    -0.78139    -0.47607    0.050121    -0.17205     0.11118
0.37233     0.19921    -0.72357    -0.28346     0.11898    -0.21622    0.086824
0.39604     0.27944     -0.5943    -0.10254     0.19336    -0.24318    0.064737
0.42787      0.4178    -0.43352    0.042326     0.26482    -0.25098    0.054344
0.44996     0.54805    -0.28346     0.15244     0.32783    -0.23474    0.061165
0.44021       0.588    -0.16653     0.24955     0.37818    -0.19316    0.080978
0.38565     0.47367   -0.048296      0.3759     0.40968    -0.12495     0.10664
0.28366     0.19563     0.14172     0.57079     0.41585   -0.038551     0.13197
0.14561    -0.19576      0.4204     0.81439       0.385    0.049472     0.14626
-0.025234    -0.64659     0.69324      1.0077     0.29795     0.12385     0.14334
-0.24221     -1.1448     0.81115      1.0161     0.15438     0.17257     0.12353
-0.51992     -1.6697     0.68999      0.7543    -0.02361     0.20928    0.088124
-0.84797     -2.1345     0.36161       0.258    -0.19803     0.26125    0.042975
-1.1702     -2.4168   -0.035303    -0.31561    -0.34192     0.34212   -0.010943
-1.4086     -2.4564    -0.32211    -0.75638    -0.44456     0.43469   -0.068109
-1.4934     -2.2846    -0.37733    -0.92755    -0.49685     0.50713     -0.1217
-1.3953     -1.9689    -0.19316    -0.80217    -0.49588     0.52791    -0.16068
-1.1478     -1.5775     0.13684    -0.45041     -0.4569     0.48374    -0.17952
-0.83271     -1.1582      0.4688   0.0039985    -0.40461     0.38987    -0.17757
-0.53713    -0.75248     0.68869      0.4165    -0.35849     0.27554    -0.15711
-0.31171    -0.39551     0.74846      0.6718    -0.32146     0.16153    -0.12365
-0.1727    -0.10514      0.6705     0.72475    -0.28605    0.064413   -0.085648
-0.10676     0.11216     0.52142     0.60522     -0.2448  -0.0076946   -0.054467
-0.079477     0.26482     0.36486     0.39539    -0.19446    -0.04927   -0.035628
-0.064536     0.36713     0.23818     0.18719    -0.14054   -0.063561   -0.030431
-0.04862      0.4269     0.15016    0.056942   -0.089871   -0.062587   -0.031081
-0.031081     0.45093    0.096244    0.039402   -0.049595   -0.058365   -0.029132
-0.017114     0.45581    0.077405     0.12353   -0.021012   -0.066485   -0.019712
-0.0054209     0.45873    0.087474      0.2528  -0.0076946   -0.093769  -0.0096434
0.0039985     0.47335     0.11281     0.35771 -0.00054884    -0.13632  -0.0063954
0.016016     0.49771     0.13555     0.38435    0.011144    -0.18049   -0.012242
0.031932     0.52044     0.13977     0.31581    0.041351    -0.20778   -0.022636
0.05207     0.53408     0.11573     0.16933    0.096569    -0.20843   -0.030431
0.072858     0.53408    0.055318   -0.018088      0.1625    -0.18179   -0.035303
0.089748     0.52109   -0.038551     -0.2029     0.21188    -0.14249   -0.037252
0.10177     0.50063    -0.14834    -0.34127     0.21837    -0.10838   -0.039201
0.11541     0.48894    -0.24188    -0.40916     0.17225   -0.084024   -0.038876
0.13879     0.49511     -0.2945    -0.40721      0.0852   -0.064861   -0.035628
0.17842     0.51849    -0.30522    -0.36109   -0.013216   -0.054792    -0.03303
0.23201      0.5461     -0.2945    -0.30879   -0.097666   -0.055766   -0.031406
0.29048     0.55585    -0.28216    -0.27306    -0.15353   -0.058365   -0.029132
0.34797     0.54513    -0.26364    -0.24123    -0.18147    -0.06616    -0.02426
0.39929     0.54643    -0.21167    -0.17659    -0.19089     -0.0824   -0.017764
0.43729     0.60457    -0.10546   -0.052518    -0.19738    -0.10351  -0.0067202
0.45743     0.74034    0.044275     0.11606    -0.21362     -0.1204   0.0026992
0.46587     0.95049     0.20993     0.28138    -0.24091    -0.12592   0.0062721
0.48049      1.2204     0.35576     0.40026    -0.26657    -0.11715   0.0026992
0.50713      1.5027     0.45288     0.45288    -0.27501    -0.09994  -0.0054209
0.52694      1.7177     0.47627     0.44119    -0.26397   -0.079802    -0.01614
0.50648      1.7904     0.42852      0.3785    -0.23961   -0.063886   -0.026858
0.43112      1.6855     0.34537     0.28983    -0.20778   -0.056416   -0.035953
0.30445       1.402     0.25637     0.19953    -0.16815   -0.062912   -0.043099
0.13912     0.97095     0.16088      0.1232    -0.12657   -0.080127   -0.051868
-0.050244     0.44736    0.037129    0.059865   -0.092469   -0.098641   -0.064861
-0.24253    -0.10838    -0.12722   0.0091954   -0.068109    -0.10709   -0.089546
-0.40169    -0.64139    -0.31594   -0.035953   -0.045697   -0.096367    -0.11813
-0.4975      -1.128     -0.5014   -0.080127    -0.01484   -0.067459    -0.13924
-0.53063     -1.5586    -0.65049    -0.12203    0.036479   -0.037252    -0.14834
-0.52739     -1.8961    -0.72649    -0.15029     0.10566    -0.02361    -0.14314
-0.52316     -2.1176    -0.70311    -0.15646     0.18232   -0.022961    -0.12787
-0.53096     -2.2401    -0.58715     -0.1334      0.2567   -0.021012    -0.10903
-0.52836      -2.257    -0.42442   -0.078178     0.32426   -0.017114   -0.086948
-0.48419     -2.1215    -0.26884  -0.0021729      0.3811   -0.016464   -0.058689
-0.38739     -1.8045    -0.14216     0.07773       0.423   -0.028482   -0.019388
-0.25617     -1.3641   -0.030756     0.14334     0.44769   -0.062587    0.024786
-0.123    -0.91781     0.09462     0.18784     0.45321    -0.11683    0.062789
-0.021337    -0.55435     0.24046     0.21123     0.44379    -0.16685    0.087474
0.033881    -0.27761     0.37558     0.21415     0.43177     -0.1753     0.10404
0.046223   -0.032705      0.4597     0.20083     0.42495    -0.11261     0.11801
0.03583     0.21188     0.47984     0.17842     0.42657    0.017316     0.13165
0.025111     0.41456     0.44736     0.15568     0.42722     0.17777     0.14464
0.024786     0.50777     0.36973     0.13165     0.40579     0.31744     0.15438
0.029658     0.46328     0.23331     0.10306     0.34245     0.39214     0.15828
0.038753     0.32101    0.022188    0.071883     0.22974     0.38272     0.16023
0.057592     0.16218    -0.25098    0.030308    0.081952     0.30477     0.16705
