-0.1662   -0.098965   -0.037252   -0.069408    -0.14379   -0.043099      0.0865
-0.15386    -0.09117    -0.03173   -0.080451    -0.20745    -0.28476    0.049147
-0.14411   -0.088896   -0.031081   -0.086623    -0.14996    -0.49198   0.0023744
-0.14801   -0.093119   -0.037577   -0.090521   -0.051868    -0.58975   -0.040825
-0.16588   -0.097991   -0.046347   -0.097341    0.022188    -0.50952    -0.06616
-0.18634   -0.099615   -0.051868    -0.10806    0.053369    -0.22889   -0.068758
-0.19673   -0.097341   -0.051868     -0.1204    0.053044     0.19044   -0.051544
-0.19446   -0.092469    -0.04927    -0.12722     0.03453     0.61139   -0.027183
-0.18926   -0.085973    -0.04992     -0.1308   0.0036737     0.86799  -0.0063954
-0.19089   -0.079802   -0.060313    -0.12982   -0.033679     0.86539   0.0052977
-0.19901   -0.071032   -0.078503    -0.12657   -0.065186     0.64452   0.0046481
-0.2042   -0.060638   -0.094418    -0.11618   -0.053168     0.36713  -0.0063954
-0.19673   -0.051868   -0.098965   -0.092145    0.040377     0.22682   -0.018738
-0.1727   -0.043748    -0.09117   -0.053168     0.22259     0.36129   -0.013216
-0.1334   -0.033354   -0.071682  -0.0089938     0.45613     0.79555    0.022512
-0.087922   -0.018413   -0.048296    0.030633     0.69129      1.4273    0.095919
-0.049595  -0.0067202   -0.030756    0.054344     0.88488      2.0776     0.19206
-0.026858  -0.0034721   -0.023935    0.061814     0.99564       2.571     0.28431
-0.021986  -0.0063954   -0.026858    0.055968     0.99499      2.8103     0.34017
-0.025234   -0.014191   -0.032055    0.043625     0.88325      2.7883     0.34277
-0.027508   -0.024909   -0.036278    0.029658     0.68934      2.5654     0.29503
-0.025559   -0.034978   -0.039201    0.015692      0.4636      2.2166     0.21252
-0.019388   -0.039851   -0.040825   0.0010752     0.25475      1.8057     0.11833
-0.01549   -0.038876   -0.040175    -0.01549    0.090722      1.3977    0.028684
-0.018738   -0.032055   -0.036602   -0.025884   -0.019712      1.0807    -0.04115
-0.027508    -0.02361   -0.028482   -0.023935   -0.079802     0.96088   -0.080776
-0.031081   -0.012892   -0.019712   -0.011917    -0.10286      1.0856   -0.081751
-0.023935  -0.0024977   -0.012892   0.0026992   -0.094743      1.3964   -0.041475
-0.013216   0.0023744  -0.0099683    0.011469   -0.069408      1.7398    0.028034
-0.0080194  0.00075039  -0.0096434    0.009845   -0.039526      1.9541     0.10696
-0.0080194  -0.0044465   -0.011267   0.0017248   -0.015815      1.9418     0.16998
-0.0076946   -0.010293   -0.012567  -0.0067202   -0.010618      1.6787     0.20148
-0.007045   -0.015165   -0.012567   -0.010618    -0.03238      1.2064     0.18751
-0.0063954   -0.018738   -0.013216   -0.011267   -0.078827     0.61626      0.1271
-0.0057458   -0.019712    -0.01549   -0.010943    -0.13242   0.0069217    0.037778
-0.0054209   -0.015165   -0.019388   -0.014191    -0.17952    -0.55792   -0.053817
-0.0063954  -0.0076946   -0.024909   -0.024909    -0.21427      -1.051      -0.123
-0.010293  -0.0028225   -0.031081   -0.038227     -0.2448     -1.4385     -0.1597
-0.017439 -0.00054884   -0.034004   -0.051219    -0.27696     -1.6519    -0.16912
-0.023935  0.00075039   -0.035303   -0.058689    -0.30489     -1.6178     -0.1636
-0.017764   0.0046481   -0.037577   -0.062262    -0.30977     -1.3085    -0.15418
0.003024    0.013418   -0.041799   -0.060638    -0.27046    -0.78074    -0.14184
0.033231    0.029333   -0.043748   -0.052518    -0.19641    -0.17205    -0.11975
0.063438    0.047523   -0.041475   -0.041799    -0.12365     0.35414   -0.086298
0.089423    0.063113    -0.03303   -0.025884   -0.082076     0.67895    -0.04992
0.10989    0.071883   -0.021337  -0.0063954   -0.089871     0.77314   -0.021661
0.11703    0.074806  -0.0080194     0.01017    -0.13502     0.68025   -0.013866
0.10924    0.075456    0.003024    0.016991    -0.18634     0.48114   -0.021012
0.089098    0.074482    0.010819    0.011469    -0.21102     0.25053   -0.032705
0.065062    0.075456    0.013093   0.0017248    -0.18959    0.051096   -0.035303
0.050121     0.07708    0.012768  -0.0057458    -0.11456   -0.067134   -0.021337
0.046223    0.078379    0.014392  -0.0083442    0.010495   -0.076229    0.015042
0.048172    0.074806    0.017965   -0.010618     0.16088     0.01017    0.063438
0.050121    0.062139    0.019264   -0.016789     0.28333     0.13132     0.10079
0.045249    0.047847    0.017316    -0.03303      0.3405     0.20408     0.11118
0.033881    0.034206    0.013418   -0.059664     0.33595     0.17647     0.09397
0.020239     0.01829   0.0075714   -0.086298     0.30477    0.036804    0.059865
0.0056225  0.00075039   0.0036737    -0.10286     0.27067    -0.19089    0.016341
-0.0076946   -0.012567   0.0026992    -0.10871     0.22617     -0.4634   -0.033679
-0.020362   -0.018738   0.0046481    -0.10871     0.15146    -0.73299   -0.087272
-0.031081   -0.017114   0.0091954    -0.10709    0.040377    -0.95158    -0.13827
-0.039526   -0.013216    0.011794    -0.10351   -0.094743     -1.0874    -0.17984
-0.046347   -0.010943    0.011469    -0.10124    -0.23311     -1.1419    -0.20713
-0.050569   -0.014191   0.0091954    -0.10059    -0.35491      -1.137    -0.22044
-0.052843   -0.022961    0.003024    -0.10351    -0.44911     -1.1007    -0.22109
-0.054467   -0.032705  -0.0060706    -0.11001    -0.50952     -1.0526     -0.2146
-0.055116   -0.037902   -0.013216    -0.11326    -0.53908     -1.0097     -0.2094
-0.050569   -0.035953   -0.017764    -0.10481     -0.5511    -0.98601    -0.20615
-0.037577   -0.025559   -0.018738   -0.085973    -0.56052    -0.98926     -0.2055
-0.020362   -0.007045   -0.010293   -0.062912    -0.57253     -1.0013    -0.21037
-0.0018481    0.016991     0.01017   -0.042124    -0.58813    -0.95613    -0.22402
0.015692    0.041027    0.038103   -0.026533    -0.59332    -0.79568    -0.22824
0.034855     0.06019    0.067986  -0.0093186    -0.57773    -0.56279    -0.20128
0.054668    0.072208     0.09397    0.011469    -0.55337    -0.39811    -0.13794
0.073832    0.079679     0.11086    0.032582    -0.54655    -0.39941   -0.055441
0.093645    0.085525     0.11703    0.050771    -0.55922    -0.51245    0.021863
0.11508    0.090397     0.11086    0.067011    -0.56084    -0.56247    0.070259
0.1323    0.092021    0.095269     0.07773    -0.51667    -0.40169    0.083576
0.14237    0.088124    0.076755    0.088124    -0.42215   -0.055766    0.061814
0.14594    0.080978    0.062464    0.096244    -0.30619     0.25735    0.012443
0.14399    0.072533    0.054668     0.10339    -0.21395     0.27132   -0.045047
0.14204    0.066362    0.051745     0.10826    -0.17497     -0.1282   -0.084349
0.14172    0.063763    0.051096     0.10404    -0.17659    -0.80737   -0.098965
0.13652    0.064737    0.054019    0.086824    -0.17042     -1.4891   -0.095717
0.12483    0.066037    0.057917    0.063763    -0.10676     -1.9341   -0.080451
0.11054    0.063763    0.058241    0.045899    0.031607     -2.0283   -0.054792
0.096569    0.053369    0.054344    0.043625     0.21317     -1.8165   -0.020362
0.086824    0.037129    0.049472    0.059865     0.37363     -1.4596    0.016341
0.083251    0.021538    0.048172    0.089423     0.45873     -1.1351    0.049147
0.0865    0.012443    0.050121     0.12645     0.45353    -0.95808    0.070909
0.095919    0.012768    0.055643     0.16153      0.3837    -0.94249    0.087149
0.11021    0.019264    0.061489     0.18427     0.31257    -0.98731     0.11963
0.12743    0.023812    0.064737     0.19109     0.31614    -0.91748     0.17874
0.14334     0.01829    0.061814     0.18557      0.4269    -0.61671     0.25897
0.15081 -0.00087364     0.05207     0.17257     0.60749    -0.12982     0.33368
0.14854   -0.027183    0.036154     0.15309     0.76924     0.37265     0.38435
0.13717    -0.04862    0.015042     0.12548     0.82868     0.72507     0.40384
0.11541   -0.057065  -0.0054209    0.090072     0.75008     0.87481     0.39377
0.0865   -0.055766   -0.021661    0.053694     0.56039     0.88618     0.36681
0.057592    -0.04862   -0.031081    0.023162     0.32686     0.87318     0.33368
0.037454   -0.038876   -0.031406    0.009845     0.12515     0.89949      0.3025
0.030633   -0.027508   -0.021661    0.019589   0.0069217     0.94432     0.27944
0.032906   -0.014191  -0.0047713    0.046223   -0.021661     0.94562     0.25832
0.038753  -0.0018481    0.009845    0.078704   0.0069217     0.86571     0.22909
0.0433   0.0085458    0.012768     0.10371    0.040377     0.70948     0.18492
0.040702    0.014717  -0.0018481     0.11313     0.03453      0.5094     0.12905
0.02641   0.0091954   -0.026533     0.10209   -0.037252     0.30964    0.064088
0.0056225   -0.010943   -0.050894    0.071234    -0.18114     0.13587  -0.0076946
-0.017439   -0.037252   -0.068109    0.029658     -0.3718  -0.0063954   -0.085324
-0.039526   -0.063886   -0.079477   -0.016464    -0.56669    -0.13632    -0.16328
-0.06551     -0.0837   -0.085648   -0.059014    -0.72065    -0.26657    -0.23279
-0.092469   -0.096042   -0.092794   -0.094743    -0.80055     -0.3783    -0.28313
-0.11456   -0.097341    -0.10221     -0.1204    -0.78918    -0.43514    -0.30294
-0.12722   -0.086623    -0.11261    -0.13145    -0.68264    -0.40688    -0.28638
-0.1308   -0.068758    -0.11975    -0.12787    -0.51245    -0.29677    -0.24156
-0.12527   -0.050894    -0.12235    -0.12008    -0.32568    -0.14639    -0.18212
-0.11521   -0.035628     -0.1191    -0.11456    -0.17757   -0.016464    -0.13015
-0.10319   -0.023285    -0.11066    -0.10968    -0.10709    0.042651   -0.096367
-0.087272   -0.012567    -0.10416    -0.10286    -0.11456   -0.026533   -0.073955
-0.068109  0.00075039    -0.10221   -0.088572     -0.1623    -0.27176   -0.052193
-0.052518    0.015692   -0.098316   -0.065186    -0.18959     -0.6349    -0.03173
-0.04115    0.030308   -0.086948   -0.034329    -0.14476    -0.94476    -0.02426
-0.030431    0.042001   -0.064536  0.00075039  -0.0060706      -1.037   -0.030431
-0.019712    0.049147   -0.035628     0.03453     0.19628    -0.86681   -0.035953
-0.0050961    0.054668  -0.0050961    0.062464     0.40351    -0.51764   -0.018088
0.013418    0.059865    0.023162    0.081303     0.55422    -0.12592    0.032257
0.033556    0.064413    0.042975    0.089098     0.62211     0.22032     0.10924
0.047198     0.06961     0.05272    0.091372     0.63023     0.49478     0.18881
0.051096    0.073507    0.056292    0.088773     0.61724      0.6809     0.24468
0.045249    0.075456    0.056617    0.084551     0.60197     0.73352     0.26287
0.031282    0.067011    0.054019    0.074806     0.56592     0.61074     0.24208
0.016341    0.049796    0.047198    0.055968     0.48374     0.33043     0.19109
0.0043233    0.024137    0.039402    0.027709     0.35187   -0.027508     0.12743
-0.0034721 -0.00022403    0.031607  -0.0089938      0.2044    -0.36336    0.071558
-0.0096434   -0.014191    0.027385   -0.039851     0.10631    -0.57871    0.037454
-0.017439  -0.0096434    0.031282   -0.048296     0.11768    -0.60794    0.029333
-0.024909   0.0075714    0.040702   -0.024909     0.23429     -0.4686      0.0433
-0.030756     0.02641    0.051096    0.025111     0.37071    -0.23831    0.063763
-0.035953    0.030308    0.056617    0.081952     0.40903   0.0065969    0.072533
-0.047646    0.015367    0.054668      0.1219     0.27424     0.23689    0.065387
-0.061613   -0.012892    0.045899     0.12743   -0.010618     0.47107    0.054019
-0.069733     -0.0405    0.034855    0.099167     -0.3429     0.72215     0.05142
-0.065186   -0.057715    0.026085    0.053044    -0.59819     0.95796    0.065062
-0.046671   -0.061288    0.021538    0.012768    -0.68979      1.1132    0.090072
-0.019063   -0.052193    0.021538   -0.011592    -0.61119      1.1369     0.11898
0.01017   -0.039201    0.025436   -0.014516    -0.42475      1.0356     0.14172
0.032906   -0.029132    0.029983  -0.0011985    -0.22012     0.86539     0.14464
0.044275   -0.019388    0.029333    0.017965   -0.058365     0.69032     0.11866
0.048172   -0.007045    0.025436     0.03518    0.047847     0.55812    0.064088
0.047523   0.0088706    0.019589    0.046223     0.10859     0.48699  -0.0076946
0.042326    0.024461    0.015692    0.050771     0.11573     0.46458     -0.0837
0.031282    0.038753    0.011144    0.044275    0.044275     0.48536    -0.15223
0.014717    0.042975   0.0033489    0.021863    -0.10676     0.57728    -0.20485
-0.0063954    0.034855  -0.0099683   -0.013541    -0.31204     0.77022    -0.24448
-0.030106    0.013093   -0.032055   -0.057715    -0.53616      1.0236    -0.27469
-0.056741   -0.016464   -0.059339    -0.10189    -0.74436      1.2051    -0.30132
-0.079477   -0.047646   -0.084349    -0.14281    -0.91098      1.1775    -0.32601
-0.090845   -0.070058    -0.10091    -0.17367     -1.0091      0.8956    -0.34614
-0.089546   -0.075904    -0.10936    -0.18731      -1.025     0.43827    -0.35491
-0.084349   -0.067134    -0.11131    -0.18731    -0.96783   -0.046347    -0.35329
-0.083375    -0.04992    -0.10838    -0.17724    -0.86356    -0.41825    -0.34322
-0.088896   -0.034329    -0.10286    -0.16393    -0.74111    -0.61703    -0.32795
-0.097991   -0.021661   -0.095717    -0.14769    -0.61541    -0.65504    -0.30814
-0.10091   -0.012892   -0.086298     -0.1308    -0.48451    -0.58878    -0.28216
-0.09182  -0.0099683   -0.072981    -0.11098    -0.34614    -0.46178    -0.24156
-0.072331   -0.013216   -0.051219   -0.087272    -0.20128     -0.2945    -0.18277
-0.051544   -0.017439   -0.024585   -0.061613   -0.064861    -0.13534    -0.11228
-0.035303   -0.021986 -0.00087364     -0.0405    0.042975   -0.072006   -0.043099
-0.026858   -0.029457    0.014717   -0.027833     0.11313    -0.20063    0.020239
-0.024909   -0.036927    0.022837   -0.024909     0.15568     -0.5446     0.07708
-0.024909   -0.044073    0.024137    -0.02426     0.18557     -1.0049     0.12255
-0.026858   -0.046671    0.020888   -0.020037      0.2174     -1.3894     0.15633
-0.030106   -0.042124    0.018615  -0.0083442     0.26677     -1.5135     0.18167
-0.03238    -0.03303     0.01764   0.0036737     0.34862      -1.318     0.20018
-0.03303   -0.021661    0.021538    0.012443     0.45126    -0.89994     0.21155
-0.034004  -0.0096434    0.031282    0.016016     0.53831    -0.43871      0.2096
-0.031081   0.0023744    0.039078    0.020239     0.57696   -0.077203     0.19434
-0.022311    0.010495    0.041351     0.02706     0.56007     0.14496      0.1729
-0.011592    0.013418    0.037454     0.03518     0.51005     0.26937     0.15633
-0.0031473    0.013743    0.031932    0.048497      0.4623     0.34472     0.15016
0.0026992    0.015692    0.025436    0.063438     0.42625     0.37623     0.14821
0.011144    0.022188     0.01829    0.076755     0.39247     0.33043     0.14367
0.022512    0.033231    0.014068    0.083251     0.34537     0.19011      0.1323
0.031282    0.047198    0.015692    0.080653     0.27684   -0.020362     0.11671
0.032582    0.059541    0.019914    0.067011     0.18199     -0.2461    0.099817
0.024461    0.066686    0.021213    0.047847    0.072208    -0.43514    0.083901
0.016341    0.067986    0.016991    0.030633   -0.033354    -0.54817    0.074482
0.011144    0.066362    0.012119    0.019264    -0.10806    -0.56019    0.074482
0.012119    0.066686    0.015042     0.01894    -0.13437    -0.47477    0.086824
0.019264    0.071234    0.029983    0.031932    -0.11293    -0.32081     0.10729
0.030308     0.07708     0.05142    0.055643   -0.059339     -0.1295     0.12905
0.042001    0.080328    0.067661    0.083576    0.013743    0.063438     0.14886
0.054668    0.082602    0.074482     0.11183     0.11833     0.18849     0.16348
0.064088     0.08585    0.073182     0.13782     0.27911      0.1729     0.16835
0.066686    0.090072    0.066037     0.15926     0.50225   0.0056225     0.15503
0.057917    0.091047    0.057267      0.1729     0.76372    -0.23019     0.11606
0.039727    0.082927    0.045899     0.17355     0.99921    -0.38382    0.056617
0.018615    0.069285    0.029333     0.16088      1.1246    -0.31561  -0.0028225
-0.00054884    0.053044   0.0069217     0.13847      1.0856    0.013743   -0.045372
-0.013866    0.039078   -0.016789     0.10891      0.8917     0.48471   -0.067784
-0.018738    0.028684   -0.040175    0.076755     0.61691     0.87513     -0.0824
-0.020037    0.020888   -0.061613    0.046873     0.35349       1.006    -0.10611
-0.019712    0.015042   -0.075904    0.024461       0.169      0.8394    -0.14606
-0.018413   0.0095202   -0.081426    0.011144    0.085525     0.50648    -0.19738
-0.018738    0.003024   -0.075255   0.0046481    0.081303     0.22032    -0.24513
-0.025559  -0.0034721   -0.062912   0.0023744     0.10989     0.14626    -0.27923
-0.038876   -0.010618   -0.049595   0.0020496      0.1245     0.33238    -0.30197
-0.056741   -0.012892   -0.040175 -0.00087364     0.11476     0.73254    -0.31399
-0.071032    -0.01484   -0.038876  -0.0096434    0.095269      1.2561    -0.31431
-0.082076   -0.021012   -0.045697   -0.023285    0.089098      1.7891     -0.2958
-0.086298   -0.029132   -0.058365   -0.037902     0.10501      2.1965    -0.25715
-0.081751   -0.035628   -0.069733   -0.050569     0.13684      2.3426    -0.20128
-0.072981   -0.041475   -0.078178   -0.059664      0.1625      2.1545    -0.13372
-0.070058   -0.044073   -0.083375    -0.06616     0.16478      1.6962   -0.060313
-0.075579   -0.044398     -0.0837   -0.067134     0.14854      1.1408    0.012443
-0.081101   -0.042774   -0.079802   -0.062262     0.13814      0.6705    0.089423
-0.078827   -0.036927   -0.069733   -0.050569     0.15373     0.37525      0.1703
-0.068758   -0.030106   -0.054792   -0.034654     0.18362     0.23201     0.24533
-0.055766   -0.022311   -0.039201   -0.023285     0.18784     0.16413     0.29892
-0.042774   -0.015165   -0.028482   -0.017764     0.13782    0.097218     0.31646
-0.029457  -0.0089938   -0.024585   -0.012892    0.033231  -0.0018481      0.2986
-0.01549  -0.0021729    -0.02426  -0.0047713    -0.10611    -0.11261     0.25637
-0.0034721   0.0026992   -0.021986   0.0072465    -0.26397    -0.19024     0.20668
0.0039985   0.0078962   -0.018413    0.015692    -0.43579    -0.21037     0.15471
0.0062721    0.011144    -0.01484     0.01829    -0.61021    -0.17237     0.10534
0.009845    0.012443  -0.0083442    0.020564    -0.75345   -0.099615    0.063113
0.016666    0.008221   0.0026992     0.02706    -0.81874   -0.016464    0.032906
0.022512   0.0062721    0.017965    0.034206    -0.78041    0.032257    0.016016
0.026735    0.010819    0.032257    0.039402     -0.6651   0.0017248   0.0072465
0.026085    0.018615    0.041676    0.038103    -0.53746   -0.076879  -0.0034721
0.021213    0.026085    0.046223    0.035505     -0.4556    -0.10611   -0.019063
0.015042    0.031607    0.046873    0.034855    -0.43319  -0.0093186   -0.033679
0.010495     0.03453    0.048172    0.038103    -0.44359     0.19758   -0.038227
0.01017     0.03518    0.051745    0.042975    -0.43579     0.44704   -0.029132
0.015042    0.032582    0.055968    0.044924     -0.3835     0.65361  -0.0073698
0.027709    0.026735    0.059541    0.040702    -0.30814     0.72832    0.012119
0.045899    0.020239    0.065062     0.02706    -0.25195     0.60132    0.015692
0.066037    0.017316    0.072858   0.0091954    -0.23344     0.27294 -0.00054884
0.078055    0.016016    0.081627  -0.0067202    -0.23961    -0.15093   -0.028807
0.078379    0.016341    0.087474    -0.01484    -0.24415    -0.53291   -0.056741
0.065387    0.016991    0.086175   -0.016789    -0.22174    -0.78463   -0.075579
0.05142    0.016016    0.076431   -0.015815    -0.15646    -0.85901   -0.081426
0.044924    0.013743    0.061165   -0.012892   -0.051544    -0.75735   -0.072331
0.048497    0.011794    0.049472   -0.013866    0.063763    -0.56409    -0.04992
0.057592    0.012119    0.044275   -0.016789     0.15211    -0.42182   -0.019712
0.065387    0.014068    0.037778   -0.021012     0.18427    -0.44586    0.021863
0.069285    0.014717    0.027709   -0.024909     0.15731    -0.65504    0.076431
0.067986    0.012768    0.016666   -0.025559    0.089748    -0.96165     0.13652
0.059216   0.0065969   0.0065969   -0.020362   0.0072465     -1.2189     0.19239
0.044275  -0.0018481  -0.0021729  -0.0096434   -0.061613     -1.2965     0.23039
0.02706   -0.010293  -0.0083442   0.0072465   -0.097017     -1.1559      0.2476
0.015042   -0.014516  -0.0099683    0.025436    -0.09182    -0.87818     0.24695
0.014068   -0.010293  -0.0096434     0.03583   -0.063886    -0.61996     0.23136
0.016016  -0.0021729   -0.014516    0.037129   -0.036278    -0.51634     0.19499
0.013093   0.0091954   -0.025559    0.031607   -0.020037    -0.60209      0.1349
0.0017248    0.016016   -0.037577    0.021863    -0.01484    -0.81289    0.057592
-0.013866    0.012443   -0.044073    0.012443   -0.015165     -1.0425   -0.021661
-0.028482  0.00010078   -0.043748      0.0014   -0.025234     -1.2069   -0.089546
-0.0405   -0.015165   -0.038876  -0.0093186   -0.048945     -1.2631    -0.13307
-0.04992   -0.033354   -0.037902   -0.023935   -0.073955     -1.2001    -0.14216
-0.054142   -0.050569   -0.040825    -0.04115   -0.085324     -1.0334    -0.12138
-0.049595   -0.065186   -0.046671   -0.059339   -0.068434    -0.81679    -0.09117
-0.039526   -0.072331   -0.053492   -0.069083   -0.018738    -0.63815   -0.069733
-0.034654   -0.073306   -0.057715   -0.065835    0.053369    -0.58001   -0.067134
-0.04115   -0.073306   -0.058365    -0.04992     0.12158    -0.65926     -0.0824
-0.05739   -0.077203   -0.055116   -0.032055     0.15309    -0.81614    -0.10319
-0.07428   -0.084024   -0.051219   -0.019712     0.13262    -0.95971     -0.1191
-0.084024   -0.086623   -0.051868   -0.019063    0.074482     -1.0133    -0.12495
-0.086623     -0.0837   -0.056741   -0.026858   0.0075714    -0.96133    -0.12625
-0.087272   -0.076554   -0.062587   -0.035628   -0.042124    -0.85804     -0.1308
-0.089546   -0.070707   -0.064861   -0.036602   -0.057715    -0.75475    -0.14054
-0.097017   -0.067784   -0.058689   -0.026209    -0.03303    -0.64757    -0.14899
-0.10644   -0.064536   -0.043748  -0.0067202    0.021538    -0.49685    -0.14476
-0.11001   -0.055116   -0.022961    0.014392    0.087474    -0.28833    -0.11943
-0.10254   -0.042124 -0.00022403    0.034206     0.14107   -0.035303   -0.073955
-0.085648   -0.029457    0.021538    0.050771     0.16121      0.2174   -0.023285
-0.067134   -0.021661    0.042975    0.061489      0.1297     0.39117    0.012768
-0.052843   -0.018088    0.059216    0.059865    0.044599     0.41033    0.019589
-0.049595   -0.017114    0.062464    0.040377   -0.078827     0.23331   -0.010618
-0.056741   -0.018088    0.050121   0.0069217    -0.21557    -0.13145     -0.0824
-0.070707   -0.017439    0.029658   -0.032055     -0.3351    -0.61411    -0.18309
-0.0837   -0.018413   0.0069217    -0.06616    -0.42117     -1.1114    -0.28605
-0.087597   -0.021012   -0.010293   -0.089546    -0.47379      -1.544    -0.36596
-0.076879   -0.023285   -0.015815    -0.10254    -0.50043     -1.8705    -0.40883
-0.057715   -0.021337   -0.013541    -0.10774    -0.50627     -2.0731    -0.41695
-0.038227   -0.017764   -0.012567    -0.11033     -0.4975     -2.1556    -0.40753
-0.023285    -0.01484   -0.020687    -0.11001    -0.47834     -2.1501    -0.40006
-0.015165   -0.013216   -0.035628    -0.10189    -0.44683     -2.0995    -0.40461
-0.011592  -0.0083442   -0.047321   -0.082076    -0.39844     -2.0147      -0.415
-0.0031473 -0.00022403   -0.048945   -0.051868    -0.32406     -1.8412    -0.40721
0.01894    0.015692   -0.039851   -0.013866    -0.20128     -1.5044    -0.35751
0.058566    0.038753   -0.021986    0.032906   -0.016789     -1.0468    -0.24935
0.10696    0.062789   0.0046481    0.084226     0.20311    -0.65861   -0.090845
0.15114    0.083251    0.033881      0.1297     0.39896    -0.49653    0.083576
0.1781    0.097543    0.057917     0.15341     0.51784     -0.5001     0.22292
0.18264     0.10566    0.069934     0.15536     0.53766    -0.44131     0.28983
0.1651     0.10436     0.06961     0.14302     0.47302    -0.10546     0.27651
0.13652    0.097543    0.061165      0.1271     0.36226     0.60229     0.20343
0.10696    0.088773    0.052395     0.11801     0.24955       1.642     0.11573
0.087474    0.080003    0.044275     0.11183     0.15926      2.8613    0.053044
0.078055    0.072208    0.031607     0.10306    0.091696      3.9897    0.027709
0.075781    0.062789    0.011144    0.087799     0.03453      4.6946    0.026735
0.076106     0.05207   -0.010943    0.062139   -0.019063      4.7261    0.019589
0.077405    0.039402    -0.02361    0.028359   -0.076229      4.0589   -0.018088
0.079679    0.029333   -0.028157  -0.0076946    -0.13859      2.9101   -0.087597
0.080978     0.02641   -0.031081   -0.036278    -0.20388      1.6115    -0.17367
0.078055     0.03453   -0.034654   -0.052193    -0.26202     0.49088    -0.24968
0.071558    0.046548   -0.038551   -0.056091    -0.29775    -0.24188    -0.29417
0.065062    0.058891   -0.039851   -0.051544    -0.30587     -0.5537    -0.29905
0.065712    0.072858   -0.035303   -0.040825    -0.27664    -0.53973    -0.26722
0.076106      0.0852   -0.023935   -0.023935      -0.212    -0.38804    -0.20128
0.092671     0.09397   -0.010293  -0.0080194    -0.13697    -0.31983    -0.11131
0.10924    0.095919  0.00042559   0.0033489   -0.086623    -0.47249    -0.01549
0.12125    0.090072    0.010495    0.012119   -0.070707    -0.82653     0.06019
0.12645    0.079679    0.020239    0.022188   -0.060963     -1.2657     0.10079
0.12418    0.072533     0.03518     0.03518  -0.0096434      -1.672     0.10664
0.11768    0.069285    0.052395    0.051745     0.11606     -1.9751    0.092346
0.11151    0.069934    0.064413    0.066037     0.30607     -2.1748    0.067661
0.10306    0.067661    0.062464    0.073832      0.5055     -2.2778    0.048172
0.09462    0.059216    0.049147    0.073507     0.64582     -2.2342    0.045249
0.08585    0.044275    0.033231    0.068635      0.6848     -1.9322    0.073832
0.075456     0.02641    0.022188    0.062139      0.6325     -1.2553     0.13782
0.067336   0.0072465    0.020239    0.053694     0.52434    -0.14931     0.23039
0.06019   -0.010618    0.023487    0.049796     0.40741      1.2714     0.34472
0.054344    -0.02426     0.02706     0.05207     0.31127      2.7009     0.46328
0.046548   -0.035303    0.028684    0.062789     0.24208      3.8192     0.56202
0.03453   -0.047646    0.029658    0.073832     0.19336      4.4058     0.61431
0.017316   -0.058689    0.031282    0.078379     0.16348      4.4393     0.60554
-0.0021729   -0.067784     0.03453    0.074806     0.15438      4.0995     0.54513
-0.019712   -0.077203     0.03453    0.066037     0.17712       3.688     0.45353
-0.034004   -0.082725    0.030308    0.056292     0.24663      3.4603     0.35674
-0.043423   -0.079477    0.023487    0.046548     0.37136      3.4986     0.27749
-0.047971    -0.06616    0.015367    0.033231     0.52694      3.7117     0.22324
-0.046671   -0.048296    0.011144    0.018615     0.66173      3.9374     0.19044
-0.037902    -0.03238   0.0085458   0.0062721     0.72117       4.043     0.17615
-0.030106   -0.021986   0.0069217   -0.007045      0.6835      3.9751      0.1716
-0.034004   -0.014516   0.0023744   -0.027183     0.57111      3.7455     0.16705
-0.053817  -0.0096434  -0.0047713   -0.052843     0.42755      3.4203     0.15796
-0.081751  -0.0060706   -0.010943    -0.07493     0.28918      3.0397     0.14886
-0.10774  -0.0083442   -0.014516   -0.089871     0.16283      2.5498     0.14172
-0.1204   -0.018738   -0.015815   -0.098316    0.036154      1.8736     0.13457
-0.11878   -0.034004   -0.017764    -0.10384    -0.11358      1.0164     0.12385
-0.11033   -0.048296   -0.022636    -0.10514      -0.288     0.11508     0.11021
-0.10026   -0.055766   -0.025884    -0.10384     -0.4608     -0.6323    0.093321
-0.09182   -0.050569   -0.028807   -0.095717     -0.5917     -1.0812    0.080328
-0.084349   -0.032055   -0.026209   -0.083375    -0.65244     -1.2014    0.078379
-0.077203   -0.010943   -0.021337    -0.06681    -0.62775     -1.0649    0.091047
-0.070058   0.0075714    -0.01549   -0.043099    -0.51569    -0.82751     0.11443
-0.062262    0.017316  -0.0080194   -0.013541    -0.34387    -0.65211      0.1362
-0.058365    0.019589  -0.0011985    0.013093    -0.17789    -0.63652     0.14432
-0.060963    0.015367  0.00042559    0.027709   -0.086948    -0.78853     0.13295
-0.067459   0.0026992  -0.0021729    0.028034   -0.095393      -1.026     0.10599
-0.075255   -0.014191   -0.012567     0.01764    -0.17432     -1.2137    0.069934
-0.082076   -0.030431   -0.024909      0.0014    -0.27566     -1.2449    0.027385
-0.089871   -0.040175   -0.036278   -0.019712    -0.37538     -1.1036   -0.011917
-0.10059    -0.04115   -0.040825   -0.036602    -0.47574    -0.86616   -0.038876
-0.11228   -0.035953   -0.038227   -0.045697    -0.58325     -0.6323   -0.052193
-0.12268   -0.031406   -0.034654   -0.050894    -0.68427     -0.4569   -0.057065
-0.12398   -0.034329   -0.039526   -0.059989    -0.74955     -0.3377   -0.061613
-0.11943   -0.043423   -0.055441   -0.084999      -0.758    -0.25617   -0.072006
-0.11358   -0.053817   -0.074605    -0.12463    -0.71967    -0.23668   -0.087597
-0.11131   -0.056091   -0.087597     -0.1688    -0.65893    -0.35849    -0.11001
-0.11326   -0.052518   -0.087922    -0.20388    -0.59852     -0.7109    -0.13469
-0.11358    -0.04992   -0.076554    -0.21882     -0.5472     -1.3079    -0.15646
-0.10806   -0.050244   -0.059014    -0.21102    -0.49426     -2.0387     -0.1701
-0.093119   -0.051868   -0.043748    -0.18277    -0.41305     -2.7039    -0.16945
-0.071357    -0.04862   -0.034978    -0.13989    -0.27988     -3.0609    -0.14801
-0.043423   -0.036278   -0.029457   -0.084999   -0.094743     -2.9209   -0.093444
-0.0054209    -0.01549   -0.021337   -0.022636     0.10144     -2.2313   0.0020496
0.043625    0.014068  -0.0021729     0.04395     0.25475     -1.1468     0.12743
0.098193    0.048172    0.024137     0.10242     0.32004   -0.017114      0.2541
0.14691    0.080003    0.051745     0.14367     0.28171      0.7189     0.34732
0.18037     0.10014    0.072533     0.16835      0.1638     0.81537     0.38792
0.19791     0.11118      0.0865      0.1781    0.019264     0.31419     0.37883
0.20311     0.11443    0.094295     0.18167    -0.10611    -0.52609     0.33368
0.19596     0.10956    0.099492     0.18167    -0.18666     -1.3654     0.26807
0.18102    0.095594     0.10242     0.18037    -0.21297     -1.9562     0.19758
0.16348    0.077405     0.10274      0.1781    -0.18666     -2.2053     0.13457
0.14919    0.063113     0.10144      0.1729    -0.12917      -2.143    0.086175
0.13814    0.053694    0.098842     0.16673   -0.060313     -1.8451    0.055318
0.13002    0.048172    0.096569     0.15763    0.014068     -1.3768    0.044599
0.12255    0.046873    0.093321     0.15114    0.094295    -0.80152    0.053369
0.11703    0.053369    0.088773     0.14626     0.16088     -0.2055    0.076755
0.11248    0.059216    0.083576     0.14237       0.169     0.30607     0.10306
0.10891    0.064088    0.074806      0.1336    0.099167     0.64777     0.11703
0.10534     0.06896    0.057267     0.11508   -0.017114     0.77087     0.11118
0.10242    0.070584    0.030308      0.0865    -0.11066     0.66303    0.078704
0.10144    0.067336  -0.0044465    0.053369    -0.11651     0.35836    0.023812
0.10339    0.063763   -0.037902    0.024137  -0.0057458   -0.055441    -0.04115
0.10924    0.064088   -0.061613   0.0091954     0.20311      -0.466   -0.097017
0.11898     0.06961   -0.072656    0.010819     0.47237    -0.76839    -0.13307
0.12937    0.079679   -0.070058     0.02641     0.75463    -0.90774    -0.14476
0.1362    0.087799   -0.057065    0.045899     0.99336     -0.8902    -0.13729
0.13262    0.092996    -0.04115    0.064413      1.1236    -0.77976    -0.12105
0.11606    0.091696   -0.027833    0.075131      1.1087    -0.66543    -0.10838
0.090072    0.085525   -0.019712     0.07773     0.95698    -0.61703    -0.10903
0.061489    0.072858   -0.019388    0.066686     0.72734    -0.69109     -0.1295
0.034855    0.057592   -0.024909    0.040052     0.49543    -0.94119     -0.1662
0.009845      0.0433   -0.034654 -0.00054884     0.31776     -1.3683    -0.20972
-0.010293    0.026735   -0.045047   -0.044073     0.22292      -1.874    -0.25162
-0.027183   0.0078962   -0.053168   -0.075904     0.21707     -2.2901    -0.28476
-0.042124   -0.011267   -0.059014   -0.087597     0.26774     -2.4753    -0.30197
-0.059014   -0.029457   -0.069408   -0.081751     0.31744     -2.3746    -0.30165
-0.077528   -0.047971   -0.086298    -0.07493     0.30769     -2.0439     -0.2932
-0.09994   -0.067459    -0.11001   -0.080776     0.20538     -1.5918    -0.28833
-0.1256   -0.087272    -0.13534    -0.10156    0.030633     -1.1205     -0.2932
-0.15321    -0.10481    -0.15678    -0.13145     -0.1662    -0.69044    -0.31074
-0.17822    -0.11748    -0.17237     -0.1662     -0.3351    -0.31821    -0.33283
-0.19089    -0.12592    -0.18114    -0.19901    -0.45203    0.016016    -0.34874
-0.19219     -0.1321    -0.18374    -0.22304    -0.52284     0.34829    -0.35264
-0.18699    -0.13599    -0.17984    -0.22921    -0.56441     0.69649    -0.33965
-0.18407    -0.13794     -0.1714    -0.21752    -0.58033      1.0509    -0.30944
-0.18634    -0.13729    -0.15776    -0.18991    -0.55077      1.3763    -0.26332
-0.18764     -0.1295    -0.13469    -0.14314    -0.45236      1.6339    -0.20615
-0.17594    -0.10774    -0.10059   -0.078178    -0.27761      1.8167    -0.13827
-0.14249   -0.067459   -0.057065 -0.00087364   -0.043423       1.936   -0.059339
-0.090845   -0.014191  -0.0096434    0.082927     0.21415      1.9499    0.023162
-0.034329    0.040377    0.034855     0.16348     0.43794      1.7482    0.091047
0.0069217    0.081303    0.066686     0.22714     0.56267      1.2441     0.12775
0.020888    0.097218    0.083901     0.25832      0.5526     0.46912      0.1245
0.015367      0.0865    0.089098     0.25248     0.41618    -0.40591    0.089748
0.0010752    0.060515    0.085525      0.2174     0.20311     -1.1598    0.039078
-0.01549    0.033231    0.072858      0.1703   -0.020037     -1.6658   -0.018413
-0.031406    0.013743    0.054344     0.12515    -0.19706      -1.899   -0.074605
-0.045697   0.0043233    0.032906    0.087799    -0.30717     -1.9117      -0.123
-0.059989   0.0020496    0.015692    0.058891    -0.35914     -1.8058    -0.15873
-0.075904   0.0010752   0.0075714    0.036154    -0.37895     -1.6691    -0.18374
-0.085973 -0.00054884   0.0049729    0.019914    -0.37927     -1.5258    -0.19511
-0.084024  -0.0011985   0.0062721    0.011469    -0.36141     -1.3423    -0.18471
-0.068434 -0.00022403    0.010819    0.012119    -0.32471     -1.0698    -0.15321
-0.044723   0.0062721    0.016341    0.022837    -0.27436    -0.70571    -0.11131
-0.023935    0.014717    0.022512    0.039727    -0.22532    -0.30587   -0.076879
-0.0099683    0.026085     0.02706    0.057917    -0.18569     0.06831    -0.06551
-0.0034721    0.034855    0.026735    0.070259    -0.16328     0.39409   -0.074605
-0.0044465    0.036479    0.015692    0.074157    -0.15386     0.70169   -0.087272
-0.008669    0.029983  -0.0044465    0.065387    -0.15678      1.0236   -0.082076
-0.0089938     0.01829   -0.027183    0.045249     -0.1662      1.3302   -0.043423
-0.0050961   0.0020496   -0.046347    0.015692    -0.17952       1.527    0.023162
-0.0047713   -0.020687   -0.060638   -0.018738    -0.20193      1.5325    0.094295
-0.011267   -0.045372   -0.065835   -0.045697    -0.23506      1.3494     0.14334
-0.018088   -0.066485   -0.061613   -0.061937    -0.27469       1.047     0.16153
-0.018738   -0.075904    -0.04862   -0.069083    -0.31074     0.72799     0.15373
-0.014516    -0.07428    -0.03238   -0.071032    -0.33965     0.45451     0.12645
0.00075039   -0.063237   -0.018413   -0.072006    -0.36433     0.22714    0.090722
0.022512   -0.047646  -0.0096434   -0.071357    -0.38967     0.03453    0.051096
0.041676    -0.03173  -0.0041217   -0.067784    -0.41663   -0.098965    0.008221
0.044924   -0.018413  -0.0031473   -0.060963    -0.43871    -0.12657   -0.034654
0.035505  -0.0083442   -0.007045   -0.050569    -0.44554  -0.0080194   -0.069733
0.022188   0.0010752  -0.0073698   -0.030756     -0.4176     0.26937   -0.087272
0.014717    0.015692 -0.00022403 -0.00054884     -0.3442     0.66985   -0.078827
0.019914    0.031607     0.01829    0.031932    -0.22532      1.1424   -0.045047
0.037778    0.042975    0.044924    0.062139    -0.07493      1.6368   0.0065969
0.056942    0.048172    0.069934    0.080003     0.07708      2.0711    0.061165
0.068635    0.046548    0.086175    0.082277     0.19791      2.3472     0.10079
0.070909    0.040377    0.090722    0.066686     0.26482      2.3985     0.11378
0.067661    0.032582    0.082927     0.03453     0.26449      2.2039    0.094295
0.053694    0.022837    0.064088   -0.012567     0.19953      1.8077    0.048172
0.029658    0.015367    0.041027   -0.069408    0.084876      1.3253   -0.014516
-0.0018481    0.011794    0.022188    -0.12105   -0.037252     0.89202   -0.079152
-0.029132    0.012443    0.012443    -0.14964    -0.10968     0.58021    -0.12885
-0.046022     0.01894    0.011794    -0.14639   -0.086623     0.36616    -0.14996
-0.04862    0.031932    0.019589    -0.11651    0.042651     0.18037    -0.14054
-0.039526    0.044924    0.033231   -0.070382     0.25053   -0.017764    -0.11391
-0.026858    0.053694    0.046548   -0.024909     0.46912    -0.17854    -0.08305
-0.019063    0.055643    0.054019   0.0052977     0.62406    -0.20063   -0.058689
-0.018413    0.053044    0.049472    0.013418     0.66336   -0.022311   -0.046671
-0.020037    0.049472    0.031607  -0.0018481     0.58995     0.33433   -0.042774
-0.017114    0.045899    0.008221   -0.029782     0.45775     0.79003   -0.029132
-0.0028225    0.046873  -0.0057458   -0.054142     0.35057      1.2412    0.012119
0.025111    0.055643  -0.0028225    -0.05804     0.33433       1.555    0.090072
0.063113    0.069934    0.017316   -0.038227     0.41943      1.5962     0.19693
0.097543    0.081627    0.046548  -0.0011985     0.55585      1.3172     0.30867
0.12158    0.085525    0.074482    0.042326     0.67278     0.80757     0.39084
0.13002    0.081952    0.092671    0.079354     0.71175     0.22974     0.41943
0.12288    0.075131    0.097543     0.10144     0.64354    -0.27696     0.39474
0.10469    0.067336    0.089423     0.10242     0.47399    -0.63782     0.33952
0.084551    0.056942    0.076755    0.084551     0.23948    -0.83628     0.28593
0.065387    0.042651    0.065062    0.054993  -0.0024977    -0.88955      0.2554
0.05272    0.024786    0.057917    0.024461    -0.19998     -0.8392     0.25053
0.05272   0.0072465    0.054344 -0.00054884    -0.32958    -0.73007     0.26287
0.067336  -0.0060706    0.051096   -0.015165    -0.38707     -0.5891     0.28073
0.086824   -0.013866    0.047847   -0.019388    -0.38415    -0.43677      0.2947
0.095594   -0.015815    0.046223   -0.018413    -0.34257    -0.29482     0.29308
0.084226   -0.018413    0.046548   -0.014516    -0.27826    -0.17822     0.27132
0.054019   -0.027183    0.045249   -0.010293    -0.20128   -0.088247     0.23331
0.015692   -0.044073    0.040377  -0.0067202     -0.1191    -0.02361     0.18719
-0.020687   -0.063886     0.03518  -0.0028225     -0.0405    0.020888     0.14172
-0.051868   -0.082076    0.034206      0.0014    0.021213    0.043625    0.093645
-0.073631   -0.095393    0.038103   0.0065969    0.058241    0.041351    0.039078
-0.084024    -0.10059    0.045899    0.011144    0.069285    0.013093   -0.020362
-0.084999   -0.097017     0.05207    0.015042    0.059541   -0.036927    -0.07493
-0.084349   -0.089871    0.050121    0.016341    0.028684    -0.11196    -0.11748
-0.09117   -0.083375    0.041027    0.014392   -0.023285    -0.20485    -0.14574
-0.10546   -0.079802    0.026735    0.013093   -0.086623    -0.30327    -0.15841
-0.1204   -0.079477    0.010495    0.012768    -0.14704    -0.39681    -0.15548
-0.1308   -0.077203  -0.0060706    0.009845    -0.19673    -0.48419    -0.14639
-0.13437   -0.072656   -0.020037   0.0026992    -0.23603    -0.57676    -0.14022
-0.13275   -0.061288   -0.027508  -0.0018481    -0.26689    -0.68882    -0.13762
-0.13015   -0.044398   -0.027508  -0.0021729    -0.28898    -0.82134    -0.13892
-0.12722   -0.025234   -0.022961   0.0017248    -0.30229    -0.95971    -0.14249
-0.123   -0.013866   -0.020037   0.0075714    -0.31334     -1.0896    -0.14671
-0.11715    -0.01484   -0.025884    0.011469    -0.32666     -1.2033    -0.15288
-0.10838   -0.023935   -0.042774   0.0075714     -0.3429     -1.2861     -0.1597
-0.097017   -0.032055   -0.069408  -0.0067202    -0.36271     -1.3261    -0.16653
-0.0837   -0.032705   -0.094743   -0.027183    -0.38447     -1.3212    -0.16945
-0.068109   -0.024909    -0.11586    -0.04862    -0.39941     -1.2829    -0.16912
-0.054142   -0.013866    -0.12592   -0.062262    -0.39941     -1.2351    -0.16815
-0.041799  -0.0047713    -0.12235   -0.063886    -0.38317     -1.1919    -0.16847
-0.034329  -0.0024977    -0.10676   -0.053168    -0.35069     -1.1442     -0.1727
-0.031406  -0.0080194   -0.085324   -0.034329    -0.30457     -1.0549    -0.18309
-0.030756   -0.017439   -0.065186   -0.017439     -0.2435    -0.87298    -0.20128
-0.031081   -0.024585    -0.04927  -0.0041217      -0.174    -0.55012    -0.22337
-0.034329   -0.023935   -0.035953   0.0059473    -0.10059   -0.070707     -0.2448
-0.038227   -0.015165   -0.025559    0.016016    -0.02426      0.5094    -0.25585
-0.034978  -0.0018481   -0.013866    0.030633    0.047198      1.0648    -0.25487
-0.025234   0.0091954  -0.0031473    0.047198     0.10242      1.5127    -0.24708
-0.015165    0.012119   0.0056225     0.06019     0.13165      1.8476    -0.23831
-0.0099683   0.0072465    0.012119    0.069285     0.13652      2.0889    -0.22564
-0.0041217   0.0017248    0.015367     0.07708     0.12093      2.2348     -0.2055
0.008221  -0.0011985    0.020239    0.084226     0.08585      2.2585    -0.17367
0.029333   0.0017248    0.022188    0.091372    0.031932      2.1221    -0.13534
0.048822    0.008221    0.019589    0.092996    -0.03238      1.8226    -0.10124
0.059216    0.011144    0.013418      0.0865    -0.09182       1.402   -0.079152
0.057592   0.0078962   0.0046481    0.069934    -0.12625     0.92938    -0.06681
0.047198      0.0014  -0.0063954    0.050771    -0.11456     0.45353   -0.057065
0.032906  -0.0034721   -0.020362    0.038753    -0.04992    -0.02361   -0.051219
0.016666  -0.0050961   -0.033354    0.032257     0.06084    -0.49556   -0.052843
0.0026992  -0.0034721   -0.041475    0.025761     0.19531    -0.93437   -0.059989
-0.0054209  0.00010078   -0.044398    0.017316     0.31711     -1.2917   -0.066485
-0.0096434   0.0020496   -0.045372   0.0088706     0.38825     -1.5093   -0.063561
-0.011592   0.0033489   -0.047971   0.0020496     0.39117       -1.52   -0.043099
-0.007045   0.0046481   -0.053168  -0.0047713     0.33693     -1.2527   0.0010752
0.0039985   0.0091954   -0.057065  -0.0083442     0.26092    -0.67907    0.066686
0.023812    0.020239   -0.055116  -0.0047713     0.18914     0.10924     0.14432
0.052395    0.037454   -0.047646   0.0065969     0.13555     0.89852     0.21935
0.080653    0.057267   -0.037577    0.025111     0.10242      1.4676     0.28008
0.10144    0.078379   -0.026533    0.048822    0.090722      1.6992     0.32036
0.11118    0.099492   -0.012892    0.071234    0.092671      1.6085     0.33595
0.11054     0.11671   0.0017248    0.087149    0.092671      1.3049     0.32491
0.10014     0.12158    0.011794    0.091372    0.074482     0.91606      0.2895
0.086824     0.11183    0.013418    0.083576    0.026085     0.53279     0.23559
0.074482    0.090072   0.0072465    0.068635   -0.056091     0.18654      0.1703
0.066686    0.067011  0.00010078    0.050446    -0.14964    -0.12398     0.10404
0.061814     0.05207  -0.0024977    0.037454    -0.21882    -0.40396    0.048497
0.059541    0.046223    0.003024    0.033556    -0.23961    -0.64237    0.012119
0.058566    0.041676    0.011794    0.037129    -0.21752    -0.81647  -0.0041217
0.054668    0.032906     0.01894    0.045574    -0.17724    -0.91586  -0.0099683
0.045899    0.024461    0.022512    0.048822    -0.13729     -0.9334   -0.019712
0.036479    0.020888    0.023162    0.040052    -0.09182    -0.87266   -0.030431
0.03453    0.022837    0.020564    0.028684   -0.020362    -0.78658   -0.029457
0.041027    0.029333    0.015692    0.026085      0.0865    -0.74371  -0.0037969
0.053694    0.039402    0.013743    0.034206     0.23266    -0.77262    0.048497
0.06896    0.054668    0.017965    0.053694     0.41683    -0.84375     0.11281
0.080978    0.071234     0.02706    0.083901     0.62925    -0.89507      0.1729
0.090722    0.083901    0.039727     0.11995     0.82479     -0.8798     0.21837
0.096569    0.089423    0.049796     0.15114     0.94821    -0.79243      0.2515
0.10079    0.088773    0.051745     0.15991     0.95926     -0.6297     0.27391
0.10274    0.083576    0.042326     0.14042     0.85564    -0.36628     0.29275
0.096893    0.074482     0.02706     0.10339      0.6796    0.029983     0.31841
0.082277    0.059865    0.012768    0.069285     0.48926      0.5578     0.35609
0.066037    0.043625   0.0043233    0.053694     0.32588      1.1636     0.40091
0.054344    0.031607   0.0033489     0.06019     0.20538      1.7329     0.43794
0.050771    0.026735    0.009845    0.081303     0.11703      2.1253     0.45126
0.05207    0.023812    0.019264     0.10274    0.037129      2.2523     0.43209
0.052395    0.017965     0.02641     0.10826   -0.050569       2.125     0.39117
0.044924    0.009845    0.029658     0.09397    -0.14736      1.8245      0.3431
0.030633   0.0036737    0.027385    0.065387    -0.24058      1.4335       0.296
0.010819  0.00010078    0.015367    0.029658    -0.31561      1.0012     0.25215
-0.010943  -0.0024977  -0.0057458   -0.007045    -0.36856     0.54058      0.2122
-0.027508  -0.0060706   -0.027833   -0.037252    -0.40331    0.073832     0.17745
-0.036927   -0.011917   -0.046022   -0.054792    -0.42507    -0.35004     0.15016
-0.037902   -0.016789   -0.058365   -0.057715    -0.44196    -0.66868     0.13295
-0.034978   -0.019712   -0.064861   -0.055766     -0.4608     -0.8457      0.1219
-0.030756   -0.022311    -0.06681   -0.058689    -0.48094    -0.87298     0.11183
-0.028807   -0.028482   -0.065835   -0.067134    -0.49328    -0.78106    0.099817
-0.031081   -0.040175   -0.064536   -0.080776    -0.48873     -0.6258    0.089098
-0.03238   -0.051868   -0.065835   -0.096042    -0.46243    -0.46957      0.0852
-0.027833   -0.060313    -0.06551    -0.10481    -0.41338    -0.36076    0.090397
-0.020037   -0.063886   -0.063561    -0.10351    -0.34127    -0.31756    0.098842
-0.015815   -0.062262   -0.059339   -0.097017    -0.25682    -0.32893     0.10209
-0.023285    -0.05804   -0.055766   -0.090521    -0.18244     -0.3744    0.094945
-0.041799   -0.055116   -0.046996   -0.084999    -0.14152    -0.43384    0.075456
-0.065186   -0.054467   -0.034329   -0.079152    -0.14346    -0.49718    0.046548
-0.082076   -0.056416    -0.02361   -0.073631    -0.18342    -0.56506    0.011469
-0.088896   -0.059989   -0.019712   -0.070382    -0.23733    -0.64042   -0.024585
-0.084999   -0.064211   -0.019388   -0.073955    -0.27858    -0.73851   -0.058365
-0.076554   -0.063886   -0.017764   -0.081426    -0.28963    -0.86908   -0.088896
-0.067459   -0.056741    -0.01614   -0.087922    -0.26787     -1.0149    -0.11748
-0.062587   -0.047646    -0.01549   -0.091495    -0.22207     -1.1328    -0.14476
-0.063561   -0.040825   -0.016464   -0.094093    -0.16653     -1.1848    -0.16653
-0.068109   -0.038551   -0.020037   -0.098641    -0.11033      -1.177    -0.18049
-0.071682   -0.041475   -0.023285    -0.10189   -0.059989     -1.1828    -0.19154
-0.068758    -0.04862   -0.022311    -0.09929   -0.017764     -1.2926    -0.20355
-0.05739   -0.054792   -0.016464   -0.089546    0.011144     -1.5496    -0.22044
-0.038876   -0.055441  -0.0089938   -0.072981    0.009845     -1.9055     -0.2435
-0.019063   -0.043748  0.00010078   -0.056416   -0.030431      -2.257    -0.26689
-0.007045   -0.024585    0.008221   -0.046671    -0.10254     -2.5266     -0.2893
-0.010293   -0.012567    0.013743   -0.047971    -0.19089     -2.6987    -0.31074
-0.026533    -0.01484    0.011144   -0.059664    -0.27274     -2.7877     -0.3338
-0.048296   -0.032705  -0.0015233   -0.078503    -0.33185     -2.8043    -0.36661
-0.069733   -0.062262   -0.021661    -0.10156    -0.36011     -2.7422    -0.41143
-0.088896   -0.092145   -0.050569    -0.13015    -0.36401     -2.5798    -0.45625
-0.10351    -0.11293   -0.078827    -0.16393    -0.35914     -2.2995    -0.48386
-0.10838    -0.11813   -0.096692    -0.19673    -0.35751     -1.9052    -0.48419
-0.10449    -0.11033    -0.10286    -0.21817    -0.35589     -1.4031     -0.4543
-0.098641   -0.096042   -0.098641    -0.22239     -0.3429      -0.796    -0.40428
-0.096367   -0.079477   -0.092469     -0.2107    -0.29158   -0.063561    -0.34777
-0.10156   -0.064211   -0.084674    -0.18764    -0.17432      0.8053    -0.29417
-0.10514   -0.052843   -0.075255    -0.15223   0.0033489      1.7807    -0.24448
-0.098316   -0.041799   -0.064211    -0.11228     0.19109      2.7675    -0.18861
-0.076879   -0.027833   -0.050894   -0.070058     0.33823      3.6483    -0.12235
-0.042449   -0.013216    -0.03238    -0.02426      0.4217      4.3561   -0.043748
0.0014   0.0075714  -0.0031473     0.02641     0.44898      4.8563    0.047198
0.053369    0.040052     0.03583    0.089423     0.44639      4.9596     0.14854
0.10729    0.087474    0.079354     0.15796     0.43664      4.9589     0.25183
0.15796     0.14399      0.1219     0.21967     0.43274      4.8108     0.34245
0.19953     0.19888     0.16121     0.26287     0.43827      4.3236     0.40189
0.22357     0.23916     0.19109     0.28268     0.45256      3.6854     0.40416
0.22422     0.25702     0.20765     0.28073     0.47399      2.9364      0.3392
0.20376     0.25183      0.2109     0.26157     0.50907      2.1055     0.22162
0.17355     0.23201     0.20246     0.23396     0.56169      1.2185      0.0852
0.14464     0.20635     0.18654      0.2057     0.62276     0.29308   -0.035953
0.11801     0.18037       0.169     0.18069     0.68999    -0.62483    -0.12527
0.095269     0.15666     0.15406     0.16283     0.78971     -1.4226    -0.17627
0.080978     0.13587     0.14107     0.15438     0.95568     -2.0049    -0.18439
0.082277     0.12288     0.13392     0.16283      1.1882     -2.3548    -0.15061
0.097543      0.1219     0.13327     0.18751      1.4055     -2.5298   -0.084024
0.11768      0.1271     0.13587     0.21447      1.4393     -2.6114   -0.013866
0.1323     0.12872     0.13912     0.22324      1.1363     -2.6484    0.027385
0.13457     0.12125      0.1336     0.19726     0.48147     -2.6552    0.022188
0.1258     0.10664     0.11638     0.14334    -0.35524     -2.6146   -0.017114
0.10599    0.085525    0.090722    0.075781     -1.0838     -2.4749    -0.05804
0.07773     0.06019    0.062464    0.011794     -1.4904     -2.1816   -0.072331
0.048497    0.032257    0.040377   -0.037902     -1.5229     -1.7383   -0.054467
0.019264   0.0056225    0.023487   -0.070707     -1.2764      -1.217   -0.023935
-0.0093186   -0.015815   0.0088706   -0.086298    -0.91488    -0.71285  -0.0073698
-0.031406   -0.029782  -0.0067202   -0.088572    -0.58065    -0.30457   -0.025559
-0.047971   -0.036278   -0.015165   -0.082725    -0.35914    -0.02426   -0.076229
-0.061937   -0.039201   -0.015815   -0.072331    -0.26754     0.15049    -0.14054
-0.073631     -0.0405  -0.0099683   -0.064536    -0.26787     0.26255    -0.19868
-0.079802   -0.040825  -0.0015233   -0.058689    -0.30197     0.33173    -0.23961
-0.075904   -0.043748   0.0065969   -0.051868    -0.32211     0.36064    -0.25942
-0.067134   -0.051544   0.0095202   -0.043099    -0.31626     0.35317    -0.25747
-0.063237   -0.063561   0.0033489   -0.036927    -0.29515     0.32588    -0.23441
-0.069408   -0.075904   -0.013541   -0.035953    -0.27501     0.31809    -0.19251
-0.080776   -0.088247   -0.039851   -0.043423    -0.25552     0.38078    -0.13924
-0.090845    -0.10221   -0.068434   -0.053168    -0.23376     0.55974     -0.0824
-0.095717    -0.11748   -0.090196   -0.062262    -0.20583     0.85954   -0.030106
-0.094418    -0.13112    -0.10286   -0.073306     -0.1727      1.2204   0.0095202
-0.09117    -0.13664    -0.10709   -0.084349    -0.14216      1.5364    0.028359
-0.090196    -0.13275    -0.10579   -0.092469    -0.12073      1.7066    0.029658
-0.090196    -0.12268    -0.09994   -0.097666    -0.11293      1.6868    0.018615
-0.088247    -0.11261   -0.095068    -0.10351    -0.11618      1.4988   0.0026992
-0.082076    -0.10384   -0.093769    -0.10871    -0.12495      1.2162   -0.015815
-0.076554   -0.098316   -0.096367    -0.10903    -0.13177     0.90566   -0.032705
-0.074605   -0.094743    -0.10059    -0.10709    -0.13697     0.61139   -0.041799
-0.074605   -0.096692    -0.10514    -0.10871    -0.14769     0.35836   -0.037577
-0.072006    -0.10514    -0.11066    -0.11683    -0.16393     0.15991   -0.019388
-0.063237    -0.11293    -0.11878    -0.12852    -0.17757    0.014068   0.0043233
-0.04927    -0.11326    -0.12885    -0.14216    -0.17919   -0.093444    0.023162
-0.037252    -0.10676    -0.13924    -0.14996    -0.16977    -0.18082     0.02706
-0.030106   -0.094418    -0.14931    -0.15288    -0.16815    -0.25357    0.011794
-0.03173   -0.080451    -0.15873    -0.15841    -0.19803    -0.30782   -0.020687
-0.038876   -0.069408    -0.16718     -0.1714    -0.26267    -0.33218   -0.061613
-0.051544    -0.06551     -0.1753    -0.18959    -0.33802    -0.34127    -0.09994
-0.067134   -0.070707    -0.18342    -0.20485    -0.40526    -0.38285     -0.1295
-0.08305   -0.081751    -0.18796    -0.21427    -0.45398    -0.49101    -0.14964
-0.093769   -0.090196    -0.18861    -0.21427    -0.46437    -0.63425    -0.15808
-0.097991    -0.09182    -0.18212     -0.2055     -0.4176    -0.76027    -0.15126
-0.093119   -0.085648    -0.16718    -0.18666    -0.30944    -0.87461    -0.13372
-0.082076   -0.072981    -0.14249    -0.16653    -0.16328     -1.0558    -0.11261
-0.072006   -0.055766    -0.11391    -0.14476   -0.020037      -1.356   -0.094743
-0.066485   -0.036278   -0.089871    -0.12138    0.089748      -1.696   -0.079152
-0.062912   -0.018088   -0.078178   -0.089871     0.18199     -1.9211    -0.04992
-0.052518  -0.0080194   -0.073955   -0.054792      0.2973     -1.8997   0.0046481
-0.031081 -0.00054884   -0.071357   -0.021337     0.46652     -1.5765    0.077405
-0.0044465    0.010819   -0.061937    0.013743     0.68252    -0.95906     0.15179
0.024137    0.032257    -0.04115    0.056292     0.90307   -0.092145     0.22097
0.05272    0.062464   -0.014516     0.10469      1.0762     0.90534     0.28008
0.082927    0.097218    0.014717     0.15049      1.1749      1.8655     0.33173
0.11541     0.12775    0.042651     0.19011      1.1941       2.609      0.3772
0.15114     0.15049    0.066037      0.2174      1.1363      2.9861     0.41975
0.18297     0.16478    0.084876     0.22974      1.0103      2.9429     0.45418
0.20213     0.17322     0.10014     0.22877     0.83453      2.5755     0.47497
0.20993     0.18102     0.11573     0.22292     0.63445      2.0785     0.47367
0.20895     0.18914     0.13295        0.22     0.44021      1.6647     0.44931
0.20051     0.19563     0.14854     0.22129     0.27976      1.4916     0.40319
0.18524     0.19401     0.15731     0.22941     0.16478      1.5891       0.334
0.15958     0.18102     0.15666     0.24143     0.10209      1.8323     0.24501
0.12353     0.15471     0.14659     0.24988    0.089098      2.0327     0.15568
0.085525      0.1206     0.13132     0.24695     0.11476      2.0695    0.092996
0.053694      0.0865     0.11021     0.23591      0.1638      1.9356    0.075781
0.037129    0.061489    0.084551     0.22162     0.22454      1.6852    0.094295
0.03453    0.046548    0.059865       0.207      0.2934      1.3737     0.11768
0.032906    0.039727    0.039727     0.18979     0.34959      1.0314     0.10696
0.022512    0.035505    0.019914     0.16738     0.35706     0.67635    0.045249
0.00075039    0.026085  -0.0015233     0.13944      0.2895      0.3314   -0.048296
-0.025884    0.012443   -0.024909     0.10859     0.15244      0.0433     -0.1269
-0.050244 -0.00087364   -0.045697    0.083901  -0.0096434    -0.14866    -0.15321
-0.06681   -0.010293   -0.060963    0.064737    -0.14704    -0.29255    -0.12592
-0.073631   -0.019063   -0.068758    0.049472    -0.23181    -0.48744   -0.069733
-0.076229   -0.023285   -0.068758    0.036154    -0.26494    -0.74468   -0.012567
-0.07428   -0.020362   -0.064211    0.027709    -0.26234    -0.96165    0.029983
-0.067459  -0.0063954   -0.053168     0.02706    -0.24156     -1.0169    0.055968
-0.053168     0.01829   -0.033679    0.034206    -0.22109    -0.87136    0.073832
-0.035953    0.048822   -0.010943    0.048172    -0.22174    -0.59332    0.095919
-0.014191    0.071234   0.0088706    0.067661    -0.24578    -0.30522     0.12158
0.0072465    0.078379    0.019914    0.087799    -0.28248    -0.11131     0.13977
0.023812     0.06961    0.023812     0.10306    -0.31724   -0.046022     0.13879
0.031607    0.053369    0.028359     0.10826     -0.3377   -0.090521     0.11671
0.031282    0.040702    0.039078     0.10566    -0.33023    -0.19966    0.081952
0.023487    0.038103    0.055318     0.10339    -0.27956    -0.33185    0.047523
0.013743    0.044275    0.072858     0.10177    -0.19641    -0.47022    0.028034
0.0036737    0.053044    0.087474    0.098842    -0.12268     -0.6388    0.028034
-0.010293    0.059216    0.093321    0.089423    -0.11131    -0.88727    0.038428
-0.027183    0.056292    0.088773    0.067336    -0.18634     -1.2589    0.041676
-0.045047    0.040702    0.080003    0.036804    -0.32373     -1.7539    0.024786
-0.059664    0.014068    0.070584   0.0039985    -0.47022     -2.3245   -0.010943
-0.070382   -0.014516    0.056942   -0.023935    -0.57513     -2.8796    -0.05739
-0.074605   -0.037902    0.040052   -0.046671    -0.61638     -3.2967   -0.098641
-0.073631   -0.053817    0.027709   -0.059989    -0.60209     -3.4799    -0.12398
-0.069083   -0.059989    0.026085   -0.063237    -0.55824     -3.3938     -0.1334
-0.061613   -0.059014    0.035505    -0.05804    -0.51115     -3.0758    -0.13112
-0.053492   -0.053492    0.048172   -0.046022    -0.47802     -2.6107    -0.12657
-0.048945   -0.047971    0.054993   -0.035303    -0.45495     -2.0904     -0.1308
-0.050894   -0.048945    0.053369   -0.029782    -0.43319     -1.5671    -0.14834
-0.061613   -0.054142      0.0433   -0.031081    -0.39681     -1.0338    -0.17659
-0.080127   -0.062912    0.029333   -0.032705     -0.3364    -0.45203     -0.2068
-0.095068   -0.073955    0.020564   -0.029782    -0.25162     0.18394    -0.22272
-0.095717   -0.080127    0.020564   -0.017114    -0.14476     0.83161    -0.20972
-0.076879   -0.075255    0.029658   0.0065969  -0.0076946      1.4195     -0.1623
-0.042124   -0.056416    0.051096    0.037454     0.16868       1.858   -0.082725
0.00010078   -0.021661    0.078704    0.069934     0.37168      2.0662   0.0049729
0.033881    0.020888     0.10404    0.096244     0.54545      2.0012    0.075131
0.050771    0.055318     0.11833     0.10664     0.62178      1.6842     0.10826
0.051096    0.069285     0.11801     0.09397     0.56169      1.2077    0.098842
0.03518    0.059865     0.10404    0.059865     0.38922     0.69681    0.053369
0.0072465    0.033556    0.077405    0.012443     0.17322     0.26969   -0.011267
-0.027508  -0.0028225    0.044275   -0.036602   -0.012567    0.012119   -0.076229
-0.059664   -0.039201    0.013418   -0.078503    -0.12885    -0.04862     -0.1204
-0.076879   -0.066485  -0.0093186    -0.10774    -0.17465    0.055968    -0.13307
-0.080127   -0.078178    -0.02426      -0.123    -0.17724     0.26742    -0.11488
-0.075255   -0.078827   -0.035953    -0.12917    -0.16523     0.51914   -0.077203
-0.069408   -0.073306   -0.044723    -0.12333    -0.15288     0.74001   -0.034329
-0.064536   -0.064211    -0.04862    -0.10579    -0.13827     0.86376   0.0059473
-0.055441   -0.051544   -0.047646   -0.078503    -0.11586     0.85305     0.03453
-0.042774   -0.033679     -0.0405   -0.047321   -0.090196     0.72637    0.045574
-0.028807   -0.012892    -0.03303   -0.015165   -0.071682      0.5513    0.048497
-0.014191   0.0085458   -0.024585    0.012443   -0.063886     0.39084    0.059865
-0.00087364    0.029333   -0.018088    0.031932   -0.064536      0.2515    0.092346
0.013743    0.043625   -0.012242    0.042326   -0.068758    0.093321     0.13522
0.028034    0.046548  -0.0057458    0.041027   -0.076879    -0.12365     0.16608
0.041351    0.039078 -0.00022403     0.02706   -0.095068    -0.42832     0.16965
0.052395    0.025761   0.0017248   0.0091954    -0.12592    -0.81874     0.14756
0.06084    0.013743 -0.00087364   -0.008669     -0.1597     -1.2371     0.11313
0.065062   0.0075714  -0.0047713   -0.020687    -0.18796     -1.5785    0.082277
0.062789   0.0095202  -0.0073698   -0.027183    -0.20031       -1.75    0.064413
0.053694    0.016991   -0.010293   -0.028807    -0.19608     -1.7191    0.057592
0.041351    0.025436   -0.015815   -0.024909    -0.18309     -1.5275     0.05272
0.029009    0.030957   -0.021012   -0.017764     -0.1701     -1.2527    0.044599
0.016991    0.030957   -0.022961  -0.0083442    -0.15711     -0.9701    0.030633
0.0069217    0.026735   -0.021986   0.0026992    -0.13502    -0.73331    0.009845
0.00010078    0.018615   -0.019388    0.009845   -0.089221    -0.55954    -0.01484
-0.0028225    0.011794   -0.017439    0.013743  -0.0083442    -0.42085   -0.037577
0.00042559   0.0085458   -0.016464    0.013743     0.10177    -0.27826   -0.051868
0.013743     0.01017   -0.018738   0.0072465     0.22292     -0.1204   -0.052193
0.033556    0.015367   -0.022636  -0.0093186     0.32101   0.0091954   -0.042124
0.05142    0.019589   -0.029457    -0.03303     0.35739    0.057592    -0.03173
0.055643    0.016016   -0.036602   -0.054792     0.31289 -0.00087364   -0.031081
0.044599   0.0072465   -0.045372   -0.068434     0.19856    -0.14606   -0.044398
0.022512  -0.0080194   -0.053817   -0.077853    0.053369    -0.33055   -0.072006
-0.0057458   -0.020687   -0.062912   -0.085973   -0.084674     -0.5118    -0.10611
-0.035628   -0.029782   -0.072331   -0.090845    -0.18504     -0.6677    -0.13957
-0.061288   -0.031406   -0.077853   -0.092145    -0.23311    -0.79405     -0.1649
-0.080451   -0.029457   -0.076229   -0.091495    -0.23798     -0.8863    -0.18212
-0.088896   -0.026533   -0.067459   -0.090521    -0.22272    -0.93924    -0.19186
-0.086298   -0.025234   -0.059989   -0.093769    -0.21395    -0.94606    -0.19868
-0.076229   -0.026209   -0.059339    -0.10221    -0.22077    -0.90156    -0.19966
-0.062262   -0.025234   -0.065835    -0.11098    -0.23701     -0.8012    -0.20031
-0.04927   -0.022961   -0.069408    -0.11813    -0.24838    -0.64399    -0.20583
-0.042124   -0.021661   -0.061937    -0.11618    -0.23506    -0.40201    -0.21297
-0.038876   -0.023285   -0.046347   -0.098641    -0.18179   -0.023285    -0.21297
-0.034654   -0.026209   -0.028157   -0.068758   -0.075904     0.52044    -0.19641
-0.02361    -0.02361  -0.0083442    -0.03173     0.08585       1.196    -0.15386
-0.0037969   -0.011917   0.0085458   0.0072465     0.28723      1.9217   -0.084024
0.023162     0.01017    0.025111    0.044275     0.49088      2.5736  0.00010078
0.055968    0.036479    0.037129    0.075131     0.64517      3.0283    0.081952
0.090397    0.061165    0.040702    0.094945     0.70298      3.2209     0.14561
0.11898    0.079354    0.034206    0.099492     0.65556      3.1663     0.17874
0.13782    0.087149    0.022512    0.088448     0.53311      2.9289     0.18167
0.14009    0.083576    0.011144    0.066686     0.38532      2.5966     0.15958
0.1258    0.070259      0.0014    0.041351     0.25962      2.2345     0.12093
0.098842    0.049796  -0.0063954     0.01894      0.1729      1.8664    0.074157
0.065387    0.025436   -0.013866 -0.00022403     0.12385      1.4978    0.027709
0.034206   0.0020496   -0.021012   -0.011917    0.095919      1.1337  -0.0093186
0.015042   -0.010943   -0.027833    -0.01549    0.072533     0.78711   -0.033679
0.010819   -0.011267   -0.033354  -0.0080194    0.048822     0.47399   -0.053492
0.019264 -0.00054884   -0.037577   0.0062721    0.033556     0.20181   -0.072656
0.037778    0.013743   -0.039526    0.020888    0.032582   -0.030756   -0.089871
0.058241    0.029009   -0.037902    0.029983    0.044275    -0.24123    -0.11033
0.075131    0.038103   -0.033679    0.031282    0.057917    -0.44229    -0.13242
0.082602    0.038428   -0.026533    0.026085    0.060515    -0.63327    -0.14509
0.080003    0.029009   -0.021986     0.01764    0.050771     -0.7921    -0.14379
0.067336    0.014717   -0.024909    0.010819    0.026735    -0.88143    -0.12592
0.048822  -0.0015233   -0.033679   0.0078962  -0.0021729    -0.86356   -0.096042
0.030633   -0.017439   -0.041799   0.0072465   -0.021986    -0.72649   -0.055116
0.017965   -0.031406   -0.044073    0.009845   -0.021012    -0.49588  -0.0073698
0.010495    -0.04115   -0.037902    0.017316   0.0020496    -0.23149    0.039078
0.0026992    -0.04927   -0.028482    0.030308     0.03453   -0.010618    0.080653
-0.0067202   -0.052193   -0.017764    0.047847    0.065387      0.1245     0.11606
-0.012892   -0.046347 -0.00087364     0.06961    0.089098     0.17322     0.14691
-0.010293   -0.029457    0.025436    0.093645     0.10469      0.1677     0.17322
-0.00054884  -0.0044465    0.057917     0.11671     0.11508     0.14724     0.19466
0.010495    0.019264    0.085525     0.13197     0.11801     0.14139     0.21123
0.019264    0.032906    0.099817     0.13522     0.11054     0.15666      0.2187
0.021863    0.031932    0.096569     0.12645    0.090722     0.17907      0.2148
0.016991    0.020239    0.082927     0.11216    0.059541     0.18524     0.20246
0.0065969   0.0043233    0.067661    0.093645    0.019914     0.15016     0.18134
-0.0067202  -0.0067202    0.057592    0.071558   -0.031081    0.049796     0.15796
-0.022636   -0.011592     0.05142    0.048172    -0.10514     -0.1269     0.14237
-0.035953  -0.0089938     0.04395    0.029983    -0.19673    -0.36011     0.13587
-0.038876  -0.0054209    0.031932    0.021213    -0.29645    -0.59852     0.13067
-0.031081  -0.0024977    0.016991    0.017316    -0.38642    -0.78463     0.11638
-0.018088  -0.0011985      0.0014    0.010495    -0.45073    -0.87883    0.092021
-0.0054209 -0.00087364   -0.011917   0.0020496    -0.47607    -0.85674    0.062464
0.00010078  -0.0015233   -0.021012  -0.0031473    -0.46145    -0.72747    0.039078
0.0010752  0.00042559   -0.026858  -0.0018481    -0.42215    -0.58455    0.031282
0.00010078   0.0069217   -0.024909   0.0052977    -0.38934    -0.59527    0.042651
0.0026992     0.01829    -0.01549    0.016341    -0.38902    -0.87753    0.072208
0.0091954    0.032257  0.00042559    0.028359    -0.43449     -1.3949     0.10989
0.015692    0.045899    0.016991     0.03583    -0.51374     -1.9773     0.14659
0.016991    0.053694    0.031932    0.039727     -0.5943     -2.4035     0.17485
0.01829     0.05142    0.038428    0.041351    -0.64594     -2.5016     0.19239
0.024786    0.041676    0.037454    0.039078    -0.66023     -2.2089     0.19661
0.040052    0.028359    0.034206    0.033231    -0.63977     -1.5622     0.19628
0.061814    0.016016    0.031607    0.024786    -0.58455    -0.66348     0.19499
0.079679   0.0036737    0.028684   0.0085458    -0.49556     0.34115     0.18492
0.081303  -0.0096434    0.024137   -0.014191      -0.377      1.2795     0.15698
0.064088   -0.020687     0.01829   -0.038551    -0.25065      2.0152     0.11118
0.033556   -0.028157    0.014717   -0.054467    -0.14119       2.456    0.053694
0.0036737   -0.025234    0.016016   -0.048945   -0.060313      2.5778  -0.0028225
-0.010943  -0.0099683    0.025111   -0.018088   0.0020496      2.4222   -0.044398
-0.0054209    0.011794    0.041676    0.029983    0.066037        2.06   -0.065186
0.013093    0.025436     0.06019     0.07708     0.15601      1.5731   -0.069408
0.033881    0.028034    0.075131     0.10891     0.29048      1.0356   -0.066485
0.050121    0.021213    0.079679     0.11573     0.46295     0.49446   -0.068109
0.056292    0.010819    0.071558    0.099167     0.63965   -0.034329   -0.087597
0.051745 -0.00054884    0.054344    0.070909     0.78094    -0.55922    -0.13437
0.036479   -0.008669    0.031932     0.04395     0.86441     -1.0744    -0.19868
0.015367    -0.01484     0.01017    0.029009     0.89267     -1.5242     -0.2565
-0.008669   -0.017764  -0.0067202     0.02641      0.8917     -1.8006     -0.2854
-0.028482   -0.018088   -0.020037    0.030308     0.87708     -1.8204    -0.27469
-0.038876   -0.018413   -0.026533    0.037454     0.84428      -1.572    -0.23084
-0.036927   -0.020362   -0.024909      0.0433     0.77217     -1.1059     -0.1714
-0.026858   -0.020362   -0.020037    0.043625     0.64387    -0.50368    -0.11586
-0.015815   -0.018738    -0.01549    0.039727     0.47172     0.12872   -0.075579
-0.0083442    -0.01614   -0.010293    0.030308     0.28366       0.677   -0.052843
-0.0054209   -0.015165  -0.0041217    0.016666     0.11313      1.0515   -0.041799
-0.0089938   -0.015815  -0.0037969   0.0033489   -0.013216      1.2159   -0.036278
-0.01484   -0.014516  -0.0089938  -0.0076946   -0.088572      1.1941   -0.029132
-0.018088   -0.012242   -0.012567   -0.011917    -0.12008      1.0655   -0.014516
-0.016789  -0.0076946  -0.0096434   -0.008669    -0.11586     0.90956   0.0017248
-0.011917  -0.0021729  -0.0031473   0.0010752   -0.068758     0.76924    0.014068
-0.0028225   0.0023744   0.0036737    0.010495    0.030308     0.65491    0.021213
0.0059473   0.0065969   0.0065969    0.012119     0.18004     0.55617     0.02641
0.0052977    0.012443  0.00042559   0.0017248      0.3431      0.4636    0.027385
-0.0080194    0.016016   -0.015815   -0.015165     0.46393     0.37688    0.016991
-0.030756    0.010495   -0.039201   -0.029782     0.50875     0.30932  -0.0083442
-0.055116  -0.0021729   -0.063237   -0.038876      0.4727     0.26839   -0.047971
-0.074605   -0.013216   -0.081101   -0.046671     0.37071     0.24501   -0.091495
-0.088572   -0.021337   -0.091495    -0.05739     0.22974     0.22552    -0.13015
-0.098965   -0.025234   -0.096692   -0.070707    0.078379     0.19953    -0.16718
-0.10189   -0.024909    -0.10026   -0.085973    -0.05804     0.15698    -0.20355
-0.10091   -0.020362    -0.10156   -0.098641      -0.161    0.096893    -0.23863
-0.10384   -0.020687    -0.10319    -0.10741    -0.22954    0.025111    -0.26851
-0.11326   -0.028482    -0.10449    -0.11358    -0.28183   -0.052193    -0.29158
-0.12333   -0.038227    -0.10286     -0.1178     -0.3325    -0.13469    -0.30489
-0.12885   -0.040825   -0.097017    -0.12105    -0.37895    -0.21817    -0.30879
-0.1295    -0.03173   -0.091495    -0.12917    -0.41046    -0.30035    -0.30035
-0.11975   -0.018413   -0.084674    -0.14184    -0.41533    -0.38317    -0.27436
-0.10026  -0.0099683   -0.077528    -0.15321    -0.39129    -0.47379    -0.22434
-0.080127  -0.0073698    -0.07428    -0.15873    -0.34907    -0.57481    -0.15808
-0.070382  -0.0093186   -0.073306    -0.15841    -0.30814    -0.68427   -0.092794
-0.071682  -0.0099683   -0.071032    -0.15548    -0.27923    -0.79438     -0.0405
-0.073955   -0.007045   -0.069083    -0.15029    -0.25682    -0.88143 -0.00022403
-0.067459  -0.0018481   -0.068758    -0.14509    -0.22597     -0.9256    0.033231
-0.046347      0.0014   -0.071357    -0.13762    -0.17692    -0.93015    0.070584
-0.016789      0.0014    -0.07493    -0.12722    -0.10514     -0.9217     0.10859
0.009845 -0.00054884   -0.078827    -0.11163   -0.021337    -0.93502     0.14107
0.027385  -0.0011985   -0.080776   -0.090521     0.05142    -0.99608     0.15536
0.029983  -0.0031473   -0.078503   -0.068434     0.10047     -1.0864     0.14432
0.019589  -0.0067202   -0.069733   -0.051544     0.12872     -1.1409     0.11183
-0.0011985  -0.0093186   -0.055441   -0.037577     0.14659     -1.0851    0.068635
-0.025234   -0.010943   -0.038551   -0.022311     0.15666    -0.88825    0.029658
-0.04862   -0.015165    -0.02426  -0.0037969     0.16185    -0.56506    0.008221
-0.067459   -0.028482    -0.01484    0.017316     0.16445    -0.14249    0.018615
-0.078503   -0.046347   -0.012892     0.04395     0.16705     0.34764    0.069934
-0.080127   -0.058689   -0.016789     0.06896     0.16803     0.84395     0.15991
-0.069083   -0.055766   -0.018738    0.087149     0.15666      1.2863     0.27456
-0.046671     -0.0405   -0.012892    0.095919      0.1206      1.6274     0.39149
-0.020362   -0.019388  0.00010078    0.095269    0.059216      1.8638     0.48829
0.0091954  -0.0015233    0.013093    0.089423   -0.021012      2.0165     0.54545
0.038753   0.0075714     0.01764    0.079679    -0.11358      2.0928     0.55844
0.065387   0.0075714    0.014717    0.066362     -0.2146      2.0883     0.53181
0.088448   0.0017248   0.0085458    0.051745    -0.31983      2.0019     0.47659
0.10339  -0.0021729   0.0023744    0.037129    -0.42052      1.8512     0.40741
0.10794  -0.0011985  -0.0031473    0.020888    -0.51439      1.6469      0.3353
0.10242  0.00075039   -0.008669   0.0036737    -0.59852      1.3685     0.26774
0.089748 -0.00054884   -0.015815   -0.010943    -0.68167     0.98232     0.20765
0.074157  -0.0015233   -0.025234   -0.021337    -0.76352     0.46945     0.15893
0.057267  -0.0018481   -0.039851   -0.028157    -0.82588    -0.15646     0.12353
0.039727  -0.0050961   -0.054792   -0.034654    -0.84862    -0.81419    0.095919
0.021213   -0.011592   -0.067784   -0.045047    -0.82881     -1.3771     0.06831
-0.0011985   -0.019388   -0.076554   -0.063237    -0.78139     -1.7396    0.032906
-0.025559   -0.022961   -0.076879   -0.084349    -0.72617     -1.8812   -0.007045
-0.046347    -0.01549   -0.064536    -0.10286     -0.6664     -1.8796   -0.039851
-0.059664  0.00010078   -0.047321    -0.11391    -0.60274     -1.8416   -0.059339
-0.06551    0.010819   -0.035628    -0.11326    -0.54168     -1.8175   -0.069733
-0.067134    0.014717    -0.03238   -0.098316    -0.49231     -1.7717   -0.075904
-0.065186    0.016016    -0.03173   -0.067134    -0.45463     -1.6122   -0.079477
-0.054142    0.020564   -0.025559   -0.023285    -0.41793     -1.2478   -0.081751
-0.033679    0.029009   -0.012892    0.029009    -0.36661    -0.65179   -0.085324
-0.008669    0.039402   0.0046481    0.081952    -0.28216     0.10794    -0.09117
0.014717    0.048822    0.024786     0.13002    -0.13859        0.88    -0.10026
0.036804    0.059865    0.044924     0.17225    0.096244      1.5114    -0.10968
0.056617    0.076755     0.06084      0.2096      0.4204      1.8996    -0.11618
0.075131    0.098193    0.076106     0.24208     0.78191      1.9921    -0.12073
0.089748      0.1232    0.093645     0.26872      1.1184      1.7934    -0.12722
0.097868     0.14659     0.11346     0.28593      1.3903      1.3682    -0.13599
0.10177     0.16218       0.131      0.2908      1.5809     0.83388    -0.14249
0.10177     0.16803     0.13944     0.27879      1.6732     0.33205    -0.13892
0.099817     0.16803     0.13944     0.25572      1.6504   -0.020687    -0.12527
0.096569     0.16315     0.13067     0.22552      1.5137    -0.16782    -0.10286
0.087474     0.14984     0.11086     0.18946      1.2772     -0.1204   -0.080776
0.072208      0.1297    0.085525     0.15341     0.97972    0.076431   -0.063237
0.048172     0.10209    0.059216     0.12125     0.68025     0.36324   -0.050244
0.01894    0.073832    0.034855    0.089423      0.4282     0.63542   -0.044073
-0.010618    0.049147    0.013418    0.056292      0.2541     0.74878   -0.039526
-0.03173    0.027709  -0.0060706    0.027709     0.16608      0.5958   -0.024909
-0.038227    0.011469   -0.022961   0.0078962     0.14529     0.17842    0.008221
-0.03173 -0.00022403   -0.032705   0.0020496     0.14561    -0.36596    0.055643
-0.016789  -0.0073698   -0.034004   0.0046481      0.1219    -0.83076    0.092671
0.0017248   -0.010943   -0.028807   0.0091954    0.053044     -1.0383     0.10047
0.017965   -0.012892   -0.017764    0.012443   -0.057065     -0.9269    0.076106
0.024461   -0.011267  -0.0015233    0.015692    -0.17302    -0.58293    0.029009
0.020888  -0.0034721     0.01894    0.026735     -0.2565    -0.18504   -0.028157
0.010819    0.012443    0.042651    0.046873    -0.28313    0.078704   -0.076554
0.00042559    0.034206    0.065712    0.072208    -0.25487    0.099817    -0.11098
-0.0057458    0.051096    0.083901     0.10014    -0.19641    -0.12722    -0.13307
-0.0063954    0.055968    0.093321      0.1284     -0.1334    -0.52154    -0.14606
-0.0057458    0.050121    0.096569     0.15049   -0.077203    -0.96783    -0.15743
-0.0021729    0.040052    0.096569     0.16121   -0.036602     -1.3521    -0.16782
0.00042559     0.03518     0.09462     0.16121   -0.017439     -1.6064    -0.17465
0.00075039    0.033231    0.093645     0.15244   -0.027183     -1.7288    -0.17984
-0.0028225    0.029983    0.098517     0.14496   -0.069083     -1.7509    -0.18407
-0.0057458    0.024137     0.10891     0.14399    -0.13534     -1.6892    -0.18666
-0.0034721    0.017965     0.12028     0.14561    -0.20453     -1.5379    -0.18764
0.0056225    0.014392      0.1271     0.14139    -0.25065     -1.2962    -0.18601
0.01764    0.016016     0.12483     0.13035    -0.25975    -0.97822    -0.18049
0.026735    0.018615     0.11508     0.10956    -0.24156    -0.61573    -0.17237
0.027385    0.020888    0.097868    0.080653    -0.23831    -0.26462    -0.16653
0.016016    0.019264     0.07708    0.046548    -0.28183    0.020239     -0.1714
-0.0031473    0.010495    0.055318    0.012119    -0.37603     0.21123    -0.18666
-0.026209  -0.0011985    0.039402    -0.01614     -0.4988     0.31224    -0.20615
-0.043748   -0.011267    0.032906    -0.03173    -0.61054     0.32004    -0.23181
-0.053492   -0.017764    0.031282   -0.038227    -0.68037     0.21772    -0.26851
-0.059339   -0.025559    0.030308   -0.045047    -0.69856  -0.0011985    -0.31042
-0.063886   -0.037902    0.023162   -0.060638    -0.67095    -0.30294     -0.3416
-0.063561   -0.053492    0.008221   -0.084999    -0.61314    -0.60794    -0.34322
-0.055766   -0.063561   -0.012892    -0.10741    -0.54785    -0.83725    -0.31366
-0.046671   -0.064861   -0.031406    -0.12008    -0.48841    -0.94314    -0.26137
-0.037902   -0.061288   -0.043423    -0.12463    -0.43936    -0.91228    -0.20096
-0.027508   -0.054467   -0.045372    -0.12722    -0.40006     -0.7619    -0.14184
-0.011592   -0.044723   -0.038227    -0.12722    -0.36563    -0.53258   -0.085973
0.0088706   -0.037252   -0.026533    -0.12333    -0.32633    -0.26689   -0.030756
0.028684   -0.032055   -0.019063    -0.11651    -0.28281   -0.014191    0.028034
0.045574    -0.03173   -0.020362    -0.11163    -0.24383     0.17485    0.084876
0.055643   -0.034329   -0.027833    -0.11033    -0.21752     0.26319     0.12515
0.057592   -0.037902   -0.037252    -0.11163     -0.2042     0.23818     0.14204
0.048172   -0.041475   -0.043099    -0.11456    -0.20096      0.1323     0.13814
0.030633   -0.048945   -0.044073    -0.11715    -0.19803    0.021863      0.1258
0.009845   -0.060313   -0.043748    -0.11813    -0.19024   0.0062721     0.11378
-0.011592   -0.070382   -0.047971    -0.11358    -0.17627     0.15309     0.10696
-0.028807   -0.072981   -0.052518   -0.098316    -0.15743      0.4649    0.099492
-0.032705   -0.064861    -0.04992   -0.073955    -0.12333     0.89722    0.091047
-0.017114   -0.048945   -0.038227   -0.043099   -0.059339      1.3685    0.086824
0.014392   -0.030106   -0.016464   -0.012892    0.036804      1.7635    0.095594
0.052395    -0.01614    0.010495    0.011469     0.15536      1.9743     0.11801
0.083576  -0.0024977    0.033881    0.025111     0.27879      1.9616     0.14594
0.098842    0.013743    0.047198     0.02706     0.38727       1.769     0.16478
0.096893    0.032257    0.047523    0.020564      0.4584      1.5056      0.1651
0.084551    0.041676    0.036804   0.0069217     0.47724      1.2883     0.14756
0.070584    0.038103    0.016991   -0.013866     0.44249      1.1733     0.12645
0.062464    0.028684  -0.0057458   -0.038551     0.37168      1.1288     0.11736
0.062139    0.019264   -0.025234   -0.061613     0.29633      1.0794     0.12645
0.061489    0.013418   -0.039851   -0.078178     0.24338     0.96738     0.13977
0.049796   0.0036737   -0.048296   -0.088896     0.22194     0.78549     0.14269
0.024786  -0.0093186   -0.055441    -0.10059     0.22877     0.56527     0.12807
-0.0096434   -0.022311   -0.061613    -0.11033     0.24858     0.32783     0.10014
-0.046347   -0.031406   -0.069408    -0.11878     0.27261    0.048497    0.066362
-0.075904   -0.038876   -0.073306    -0.12527      0.2934     -0.3286    0.034206
-0.093444   -0.044073   -0.070707    -0.12495     0.29438    -0.82783   0.0065969
-0.10189   -0.046022   -0.065835    -0.12105     0.24793     -1.3959   -0.018413
-0.098641   -0.046022   -0.060313    -0.11813     0.14626     -1.9101   -0.039201
-0.086948   -0.041799   -0.054142    -0.11651    0.016341     -2.2385   -0.050244
-0.068758   -0.037252   -0.041799    -0.11001   -0.097017      -2.309   -0.042449
-0.046671   -0.035303   -0.020687   -0.094418    -0.16165     -2.1329  -0.0060706
-0.028482   -0.036602   0.0062721   -0.073631    -0.18536     -1.8058    0.054668
-0.017764   -0.037902    0.028684   -0.054467    -0.19901     -1.4518     0.12775
-0.013541    -0.03303    0.038428   -0.042449    -0.23538     -1.1715     0.19693
-0.013541   -0.019388    0.036479   -0.033354    -0.29547     -1.0224      0.2515
-0.01484   0.0017248    0.034855   -0.025559    -0.36076      -1.013     0.27391
-0.012892    0.023487    0.037454   -0.018738    -0.40721     -1.0913      0.2528
-0.0076946    0.041027    0.042975   -0.014191    -0.41825     -1.1458     0.19888
-0.0028225    0.053044    0.045249   -0.011917    -0.38739     -1.0584     0.13587
-0.0047713    0.056942    0.045249  -0.0047713    -0.30717    -0.73169    0.092021
-0.007045    0.058566    0.045899    0.014392    -0.16653    -0.11358    0.089098
0.00042559    0.065062    0.049147    0.044275     0.02641     0.76795     0.12775
0.023812    0.079679    0.053044    0.074157     0.23461      1.8093     0.19661
0.058241    0.097218    0.054019    0.099492     0.40611      2.8857     0.27879
0.092996     0.11346    0.055968     0.11411     0.50745      3.8507     0.35154
0.11866      0.1232    0.058566     0.11508     0.52889      4.5331     0.39507
0.12645     0.11898    0.058566     0.10144     0.48276      4.7946     0.39507
0.11411     0.10014    0.044924    0.075781     0.39377      4.5822     0.34862
0.087149    0.072208    0.015692    0.045574      0.2921      3.9725     0.26514
0.053694    0.044924   -0.018413    0.011794     0.20343      3.1537      0.1651
0.019914    0.023487   -0.046671   -0.019063     0.13295      2.3273    0.066362
-0.010293   0.0062721    -0.06616   -0.042124    0.066686      1.6417   -0.016789
-0.032055  -0.0096434   -0.077528   -0.059339   -0.013541      1.1597   -0.070382
-0.040825   -0.025234   -0.081751    -0.07428    -0.10936     0.88098   -0.088247
-0.035628   -0.038876   -0.081101   -0.084999    -0.20193     0.74196   -0.079477
-0.026209   -0.052193   -0.075579   -0.089546    -0.27404     0.64095   -0.053817
-0.019063   -0.060313   -0.066485   -0.087597    -0.31691     0.46587   -0.026533
-0.016464   -0.059989   -0.054142   -0.080776    -0.34355     0.15341  -0.0093186
-0.018088   -0.050894   -0.043099   -0.072656    -0.36303    -0.29288   -0.011592
-0.026533   -0.038551   -0.036602   -0.064536    -0.36791    -0.80899   -0.034004
-0.036602   -0.026858   -0.038551   -0.055441    -0.35329      -1.328   -0.068434
-0.042124   -0.019063   -0.047321   -0.044073     -0.3299     -1.7951    -0.10416
-0.037902   -0.016789   -0.059989    -0.03238    -0.31918     -2.1781    -0.13242
-0.025884   -0.018413    -0.07493   -0.020687    -0.32925     -2.4616    -0.15029
-0.012567   -0.024909   -0.088896   -0.012892    -0.34387      -2.651      -0.161
-0.0093186   -0.032705   -0.095717  -0.0096434    -0.32763     -2.7471    -0.17302
-0.019712   -0.039526   -0.093119  -0.0073698    -0.22694     -2.7088    -0.18731
-0.038227   -0.046347     -0.0837   0.0010752  -0.0034721     -2.4788    -0.19381
-0.053492   -0.050244   -0.073631    0.021538      0.3379     -2.0507    -0.17887
-0.059014    -0.04992   -0.069083    0.053694     0.74943     -1.5047    -0.13794
-0.055766   -0.044398   -0.073306    0.086175       1.133     -0.9714   -0.079152
-0.050244   -0.034329   -0.079802     0.10696      1.3815    -0.56247   -0.014191
-0.047321    -0.02361   -0.085648     0.11443      1.4221    -0.32633    0.038753
-0.04992    -0.01614   -0.084674     0.11281       1.248    -0.23279    0.072208
-0.056091   -0.012242   -0.076554     0.10891     0.92905    -0.18439    0.081627
-0.057065  -0.0099683    -0.06551     0.10761     0.57631   -0.050569    0.080653
-0.047646  -0.0083442   -0.055116     0.10761     0.29113     0.26937    0.080978
-0.03238  -0.0047713   -0.044398     0.10599     0.12645      0.7621     0.08585
-0.015165   0.0010752   -0.035303     0.10274    0.071558      1.3013    0.092346
-0.0028225   0.0020496   -0.026533     0.10014    0.074482      1.7151    0.096569
0.0017248  -0.0031473   -0.019712    0.099167    0.084226      1.8684    0.090072
-0.00022403  -0.0044465   -0.015815     0.10209    0.065387      1.7261    0.073507
-0.0060706  0.00075039   -0.013541     0.10566    0.014392       1.364    0.049147
-0.01614    0.010819   -0.013866     0.10274    -0.05804     0.91996    0.021538
-0.026858    0.017316    -0.01549    0.090722    -0.13047     0.49413  -0.0063954
-0.03173    0.012119   -0.016464    0.070259    -0.18114     0.09397   -0.031081
-0.027833  -0.0076946   -0.010293    0.046873    -0.19316    -0.32178   -0.053492
-0.021986    -0.03173      0.0014    0.023487     -0.1649    -0.78106   -0.070382
-0.018088   -0.044723    0.012768   0.0065969    -0.10903     -1.2416   -0.084999
-0.01614   -0.039201     0.01764  0.00075039   -0.052193     -1.6116    -0.10416
-0.011267   -0.020037    0.017316   0.0075714   -0.024909     -1.8019    -0.13469
-0.0018481      0.0014     0.01017    0.022837   -0.035303     -1.7841    -0.17172
0.010819    0.012443  0.00042559    0.044599   -0.075904     -1.6142    -0.20843
0.019264    0.009845   -0.010618    0.062464    -0.13015     -1.3975    -0.23766
0.022512  0.00010078   -0.020362    0.064413    -0.18244     -1.1984     -0.2591
0.020239  -0.0089938   -0.028157    0.049796    -0.22044     -1.0159    -0.26916
0.016991   -0.012567    -0.03238    0.029983    -0.23636    -0.81387    -0.26884
0.019264   -0.012567   -0.028807    0.015042    -0.23409    -0.57741    -0.25617
0.030957  -0.0060706   -0.017114   0.0088706    -0.22597    -0.33932    -0.23214
0.046873   0.0069217   0.0010752   0.0095202    -0.22564    -0.16977    -0.19901
0.059216    0.019914    0.020564    0.015692    -0.24578     -0.1282    -0.16782
0.063763    0.025436    0.036804    0.024137     -0.2932    -0.23084    -0.14379
0.060515    0.023812     0.05142    0.030957    -0.36238    -0.43384    -0.13112
0.054668     0.01764    0.067336    0.033881    -0.42962    -0.63977    -0.12073
0.053369    0.014717      0.0852    0.032582     -0.4608    -0.74176   -0.097017
0.056942    0.020564    0.099492    0.029658    -0.43449    -0.70993   -0.050569
0.06019    0.032906     0.10566    0.029983    -0.35914    -0.62418    0.013743
0.061165    0.048497     0.10404    0.034855    -0.27339    -0.60437    0.082602
0.059865    0.061165    0.090397    0.042651    -0.22272    -0.70473     0.14172
0.062139    0.067661    0.069285    0.049147    -0.22759    -0.86519     0.18297
0.070259     0.06961    0.050446    0.053044    -0.27664    -0.95743     0.19986
0.081303    0.068635    0.039078    0.056942    -0.33737    -0.87558     0.19888
0.092671    0.067336    0.036479    0.065062    -0.36758    -0.61671     0.18881
0.095919    0.067661    0.040702    0.079354    -0.32698    -0.26787      0.1768
0.08585    0.066037    0.047198    0.093645    -0.19121    0.066037     0.16283
0.066362    0.061165    0.051745     0.10339    0.037454     0.32263     0.14107
0.046223     0.05207    0.053694     0.10404     0.31094     0.48991     0.10956
0.030308    0.041676    0.055968    0.097543     0.54675      0.5854    0.070259
0.021863    0.032582    0.058241    0.087149     0.67083     0.64712    0.027709
0.017316    0.025761    0.060515     0.07708     0.65849     0.72442   -0.013541
0.0095202    0.021213    0.059541    0.065062     0.53928     0.85012   -0.044723
-0.0031473    0.016991    0.057592     0.05272     0.38337       1.019   -0.058689
-0.017439    0.010495    0.051096    0.039727     0.26319      1.1814   -0.048296
-0.031081  0.00075039    0.039402    0.030957     0.22259      1.2844    -0.01484
-0.039526  -0.0041217    0.029658    0.028684     0.25637      1.3217    0.032582
-0.041475  -0.0018481    0.025436    0.028359     0.32588      1.3299    0.083901
-0.037577   0.0046481    0.024461    0.027385     0.37948      1.3526     0.12775
-0.030106    0.014392    0.025761    0.025436     0.37883      1.3874     0.15341
-0.020362    0.028034    0.029009    0.020888     0.31224      1.3711     0.15633
-0.0057458    0.042326     0.03453    0.015042     0.18849      1.2318     0.14172
0.013093    0.053044    0.038103   0.0052977    0.036804     0.94886     0.12255
0.028359    0.056942    0.038428  -0.0073698    -0.11066     0.57144     0.10826
0.032906    0.053694    0.032906   -0.019388    -0.23051     0.17485    0.099817
0.025761    0.045574    0.022837   -0.028157    -0.31691    -0.20128    0.089423
0.010819    0.038103    0.016016   -0.033679    -0.37408    -0.55402    0.071234
-0.0044465    0.039727    0.019589   -0.036278    -0.41046    -0.88143     0.04395
-0.01484    0.049796    0.036154   -0.036278    -0.43287     -1.1562   0.0091954
-0.020362    0.058891    0.056942   -0.037902    -0.44878     -1.3378   -0.031081
-0.022961    0.059216    0.070584   -0.040825    -0.46567     -1.4008   -0.071357
-0.021986    0.049796    0.070584   -0.047321    -0.48906     -1.3482    -0.10481
-0.018738    0.038428    0.056617   -0.058689    -0.50985       -1.19    -0.12203
-0.01549    0.030633    0.033231   -0.072006    -0.51797    -0.91521    -0.11456
-0.012567    0.025111   0.0049729   -0.084999     -0.5014    -0.51797   -0.079152
-0.010293    0.021538   -0.018738   -0.092794    -0.45301   -0.039851   -0.019063
-0.011267    0.017316   -0.034329   -0.092145    -0.36661     0.43145    0.057917
-0.013866    0.013418     -0.0405    -0.08305    -0.24903     0.80335     0.13425
-0.016789   0.0088706   -0.039201   -0.068758    -0.12073       1.007     0.19011
-0.023935 -0.00087364   -0.037902   -0.056091   -0.010943      1.0262     0.20863
-0.037902   -0.017439   -0.047321   -0.049595     0.06019     0.89365     0.18849
-0.053817   -0.038551   -0.066485   -0.049595    0.089748     0.67278     0.14042
-0.067784   -0.059989   -0.085973   -0.055766      0.0852     0.41585    0.077405
-0.077203   -0.081101    -0.10091   -0.067134    0.062464     0.16705    0.009845
-0.084024   -0.097017    -0.11196   -0.084674    0.033556   -0.043748   -0.054792
-0.092469    -0.10189    -0.12138    -0.09994    0.011794    -0.20323    -0.10449
-0.10416   -0.097017     -0.1269    -0.10611    0.003024    -0.30847    -0.13469
-0.12073   -0.087597    -0.12722   -0.099615    0.018615    -0.35914    -0.14444
-0.13794   -0.080776    -0.12138   -0.081101    0.063113    -0.34874    -0.13469
-0.15093   -0.079477    -0.10903   -0.054142      0.1271    -0.26494    -0.10774
-0.15191   -0.082725   -0.093769   -0.025884     0.18881    -0.10968   -0.067784
-0.14087   -0.087922   -0.078178  -0.0028225     0.23071    0.089098   -0.019063
-0.11975   -0.089871   -0.064536    0.008221     0.23981     0.28561    0.031607
-0.097017   -0.085648   -0.049595   0.0095202     0.21415     0.44574    0.071234
-0.082725   -0.078178   -0.034004   0.0072465     0.15861     0.56916    0.083251
-0.080451   -0.073306   -0.019388   0.0072465     0.07708     0.68025    0.058241
-0.087597   -0.070707  -0.0063954    0.012119   -0.022311     0.81862   0.0020496
-0.09994   -0.067784   0.0059473    0.023487    -0.12235     0.99661   -0.069408
-0.11163   -0.063886    0.016016    0.033556    -0.19966      1.1684    -0.13859
-0.1178   -0.061613    0.021213    0.033556    -0.23733      1.2383    -0.19056
-0.11651   -0.059664    0.019914    0.020888     -0.2448        1.12    -0.22402
-0.10319   -0.055766    0.012119   0.0010752    -0.24643      0.8014    -0.24578
-0.077853   -0.046996   0.0043233   -0.021012    -0.26137     0.35576    -0.26559
-0.044723   -0.034978   0.0020496   -0.039851     -0.2893   -0.090196    -0.28833
-0.013216   -0.022961   0.0036737   -0.050244    -0.31496    -0.40948    -0.30619
0.0072465    -0.01549   0.0033489   -0.051868    -0.32113      -0.542    -0.30652
0.013743   -0.013216  -0.0015233   -0.043423    -0.31334    -0.49718    -0.27891
0.01017   -0.010293   -0.010293    -0.03303    -0.31106    -0.34939    -0.22791
0.0020496  -0.0050961   -0.021661   -0.026209    -0.33445    -0.21232    -0.16782
-0.0028225   0.0033489   -0.029782   -0.027508     -0.3783    -0.19706    -0.11521
-0.0028225     0.01764   -0.033679   -0.035628    -0.41078    -0.36044   -0.082076
0.0020496    0.030633   -0.029457   -0.039526    -0.39519    -0.66153   -0.056741
0.011794    0.041676    -0.01549   -0.029457    -0.30717    -0.96685   -0.020037
0.028034    0.056292   0.0052977   -0.007045    -0.14541     -1.1172    0.041351
0.054344    0.075781    0.025436    0.025436    0.065387     -1.0107     0.12872
0.087474    0.096244    0.040702    0.062789     0.28561    -0.62191     0.22552
0.11638     0.11476    0.047847    0.092996     0.46523   -0.010293     0.30964
0.13425     0.12775    0.049147     0.10371     0.57176     0.64322     0.35317
0.13814       0.131    0.047523    0.092996     0.59547      1.1022     0.33855
0.12872     0.12255    0.040377    0.064088     0.55032      1.2149     0.26839
0.10209    0.099492    0.021538    0.024461      0.4701     0.99336     0.16413
0.062464    0.064737   -0.011917   -0.019063     0.40416     0.59287    0.054019
0.023487    0.025436    -0.04927   -0.053817     0.39409     0.21252   -0.042774
0.00075039  -0.0041217   -0.080776   -0.071357     0.44021  -0.0047713    -0.11033
-0.0024977   -0.015815    -0.10091   -0.066485     0.49998  -0.0063954    -0.13632
0.009845  -0.0099683    -0.10838   -0.045697     0.51492     0.18719    -0.12333
0.028684    0.008221    -0.10286   -0.017114      0.4597     0.50323    -0.08305
0.048172    0.031607   -0.084349    0.012768     0.36031     0.84265   -0.034978
0.064413    0.052395   -0.057065    0.038753     0.25897      1.1077   0.0052977
0.077405    0.066362   -0.029782    0.057917     0.18622      1.2214    0.033231
0.084876    0.073507  -0.0076946    0.067336     0.15828      1.1363    0.050446
0.089423    0.075456    0.010495    0.071558     0.17745     0.83973    0.075131
0.091372    0.073507     0.02706    0.078704     0.22227     0.39994     0.12223
0.092671    0.071883    0.041676    0.091372      0.2567   -0.024585     0.19531
0.095919    0.079354    0.056617     0.10891     0.24988    -0.27858     0.27619
0.10177    0.096893    0.073507     0.12353     0.18557    -0.31756     0.33887
0.11281     0.11931    0.090072       0.131    0.071558     -0.2055     0.36453
0.12645     0.13717     0.10404     0.12223   -0.065186   -0.056416     0.34732
0.1362     0.14139     0.11508    0.096569    -0.18569    0.034206      0.2947
0.13749     0.13132     0.11476    0.057267    -0.26397    0.023162     0.22129
0.131     0.10729    0.099167    0.020564    -0.29223   -0.075904     0.14496
0.1219    0.072208    0.075456  -0.0015233    -0.26429    -0.24675      0.0852
0.11346    0.037129     0.05142  -0.0089938    -0.18342    -0.48126    0.053044
0.10599    0.012119    0.034855  -0.0063954   -0.058365    -0.74858     0.04395
0.10112  -0.0011985    0.028034  -0.0011985    0.087474    -0.98991    0.044924
0.099817  -0.0063954    0.025111      0.0014     0.22812     -1.1422    0.042001
0.10112  -0.0076946    0.020239  0.00042559     0.34764     -1.1751    0.027385
0.098517  -0.0089938    0.010495  -0.0067202     0.43209      -1.102   0.0046481
0.088773   -0.008669  -0.0031473   -0.014191     0.47367    -0.96328   -0.023935
0.071234  -0.0080194   -0.021337   -0.018413     0.47237    -0.80575   -0.054792
0.042651  -0.0063954   -0.036927   -0.021337     0.43145    -0.66575    -0.08305
0.008221   -0.007045   -0.048945   -0.020687     0.35154    -0.57481    -0.10676
-0.024909   -0.011267   -0.056741   -0.014516     0.24436    -0.53843    -0.12722
-0.050244   -0.024585   -0.062587  -0.0060706     0.13912    -0.52511    -0.14769
-0.063886   -0.044398   -0.066485  0.00042559    0.073182    -0.47639    -0.16458
-0.06681   -0.064536   -0.067134   0.0010752    0.047523    -0.36011    -0.17237
-0.063886   -0.078503   -0.063561  -0.0096434  -0.0021729    -0.19673    -0.16555
-0.061937   -0.081426   -0.059664   -0.029132      -0.174   -0.039851    -0.14476
-0.06616   -0.079152   -0.058689   -0.054467    -0.50465    0.051096    -0.11878
-0.075255   -0.076229   -0.059339   -0.076554    -0.91521    0.032582   -0.096042
-0.080127   -0.073631   -0.054792   -0.085973     -1.2628   -0.092794   -0.080127
-0.079477   -0.072006   -0.045697   -0.080127     -1.4239    -0.28346   -0.070707
-0.070382   -0.067459   -0.033679   -0.061288     -1.3589    -0.47932   -0.066485
-0.059014   -0.060963   -0.023935   -0.034978     -1.1159    -0.63327    -0.06551
-0.051544   -0.052518   -0.019063   -0.012567    -0.78723    -0.70798   -0.061937
-0.04927   -0.045047   -0.015815   0.0036737    -0.46502    -0.68232   -0.054142
-0.053492    -0.04115   -0.013216   0.0088706     -0.2042    -0.58033   -0.038551
-0.058365     -0.0405  -0.0073698   0.0036737    -0.02426    -0.47899   -0.016464
-0.055766   -0.038227 -0.00054884  -0.0060706    0.080328     -0.4595   0.0078962
-0.047646   -0.035303   0.0020496   -0.015165     0.12093    -0.54428    0.019914
-0.040825   -0.032705  -0.0015233    -0.01484     0.10534    -0.68849    0.011144
-0.039851   -0.029457   -0.013216  -0.0076946     0.05142    -0.82134   -0.020037
-0.048296   -0.028482   -0.032705   0.0046481   -0.014191    -0.89442   -0.063237
-0.062912   -0.035303    -0.04992    0.017316   -0.068109    -0.89247    -0.10871
-0.079477   -0.049595   -0.059664    0.024461   -0.097666    -0.82751    -0.14899
-0.094093   -0.061613   -0.061937    0.019589    -0.10579    -0.71675    -0.17887
-0.10449   -0.067134   -0.060638   0.0020496    -0.09182    -0.57318    -0.19219
-0.10871   -0.068434   -0.060313   -0.021337   -0.062912    -0.40623    -0.18244
-0.10936   -0.066485   -0.059989    -0.04115   -0.026858    -0.22986    -0.15158
-0.10741    -0.06616   -0.055766   -0.050894    0.011469   -0.061937    -0.11293
-0.10091   -0.067459   -0.047971   -0.051868    0.044924    0.078379   -0.079802
-0.086623   -0.067784    -0.04115    -0.04862    0.068635     0.18329   -0.055766
-0.070058   -0.064861   -0.040175   -0.046996    0.079029     0.27067   -0.041799
-0.05804   -0.059014   -0.043423   -0.047971     0.07773     0.37298   -0.034654
-0.054467   -0.053492    -0.04927   -0.049595    0.069934     0.50777   -0.028157
-0.054142   -0.053492   -0.056741   -0.050894    0.059216     0.67343   -0.022636
-0.049595    -0.05804   -0.060963   -0.051868    0.046223     0.84655   -0.016464
-0.039526   -0.062912   -0.059339   -0.051544    0.033881     0.99434   -0.013541
-0.029132   -0.062912    -0.04992   -0.046347    0.021863      1.0703   -0.011267
-0.02361   -0.061937   -0.038227   -0.035628   0.0052977       1.034  -0.0063954
-0.023935   -0.061288   -0.031406   -0.026533   -0.021986     0.87383   0.0017248
-0.027508   -0.059339   -0.034978   -0.022311    -0.05804     0.62406    0.011144
-0.03173   -0.054142   -0.045372   -0.019712   -0.089546       0.347    0.020564
-0.032055   -0.045047   -0.051868   -0.013866    -0.10351     0.11248    0.031607
-0.027508   -0.033679    -0.04992   -0.007045   -0.098641   -0.032705    0.044275
-0.018413   -0.020037   -0.039526  -0.0024977   -0.084349   -0.097991    0.056292
-0.011592  -0.0073698   -0.022961  0.00075039   -0.081426    -0.15873    0.063438
-0.0080194    0.003024  -0.0031473   0.0017248    -0.11456    -0.31269    0.063763
-0.0024977    0.011794     0.01829   0.0020496    -0.18634     -0.5878    0.054993
0.012768    0.024786    0.034855   0.0078962    -0.26397    -0.91553     0.03583
0.034855    0.044924    0.046548    0.025761    -0.29515     -1.1939    0.008221
0.056617    0.072533    0.059541    0.054019    -0.24708     -1.3706    -0.02426
0.072533     0.10079    0.075781    0.084226    -0.13177     -1.4459   -0.058689
0.083251     0.12515    0.092346     0.10826   0.0078962     -1.4174   -0.081426
0.089098     0.14204     0.10306      0.1245      0.1323     -1.2221   -0.085973
0.093645     0.15049     0.10859     0.13425     0.21935    -0.77619   -0.069083
0.10112     0.15081     0.10826     0.14139     0.26774    -0.08305   -0.027833
0.11248     0.14464     0.10274     0.14626     0.28203     0.70331    0.033231
0.1284     0.13587     0.09397     0.14821     0.26774      1.3588     0.10306
0.14172      0.1258      0.0865     0.15276     0.22974      1.6959     0.16575
0.14691     0.11378    0.081303     0.16348     0.17485      1.6332     0.20895
0.14561     0.10404    0.079029     0.17582     0.12158      1.2552     0.22519
0.14367    0.097218    0.083251     0.18297    0.087474     0.77509     0.21317
0.14724    0.092996     0.09397     0.18004    0.080003     0.41553     0.17745
0.15341    0.089098     0.10599     0.16965    0.088773     0.29048     0.12255
0.16023    0.084551     0.11086     0.15503    0.093321     0.37948    0.061814
0.16153    0.078055     0.10501     0.13782    0.083576     0.56234   0.0085458
0.15438     0.06831    0.091696     0.11801    0.066686     0.70006   -0.025559
0.13587    0.055643    0.075781    0.097868     0.05207     0.72475   -0.037577
0.10989    0.046223     0.06019    0.084551    0.054668      0.6705   -0.028807
0.0865    0.043625    0.050771    0.081627    0.096244     0.64127  -0.0047713
0.070584    0.046223    0.047198    0.087474     0.19141     0.74423    0.030633
0.061489    0.047523    0.047523     0.10112     0.33725      1.0138    0.076755
0.053044      0.0433    0.047847     0.11768     0.51914      1.3874     0.13132
0.041351    0.033556    0.045249     0.13002     0.70753      1.7281     0.17842
0.022837    0.017965    0.038753     0.13132     0.84882      1.8905     0.19661
0.00075039      0.0014    0.030633     0.11378     0.90047      1.7843     0.17939
-0.020037   -0.013216    0.020239    0.081303     0.83778      1.4094     0.13652
-0.037902   -0.021661     0.01017    0.042975      0.6731     0.86441    0.086824
-0.050244   -0.020362      0.0014   0.0049729     0.44704     0.28333    0.044599
-0.056091   -0.013866  0.00010078   -0.025234     0.20895    -0.21167    0.019264
-0.058365  -0.0034721   0.0056225   -0.045372  -0.0011985    -0.55759    0.010819
-0.057065   0.0075714    0.019264   -0.053492      -0.161    -0.75735    0.013743
-0.049595    0.017316    0.033881   -0.056091    -0.26462    -0.84927    0.021213
-0.042124     0.02706    0.044275   -0.060313    -0.31756    -0.87655    0.027709
-0.038227    0.034206    0.045899   -0.070058    -0.33413    -0.87948    0.025111
-0.045372    0.036479    0.043625   -0.082725    -0.33543     -0.8915   0.0085458
-0.064861    0.031282    0.041027   -0.094093    -0.33737     -0.9243   -0.017439
-0.088572    0.020888     0.03518    -0.10449    -0.34679    -0.97497   -0.036927
-0.11066   0.0046481    0.022512    -0.11553    -0.35751     -1.0237   -0.041475
-0.12365   -0.012242    0.003024    -0.12917    -0.35199     -1.0464   -0.036927
-0.13145   -0.027508   -0.018413    -0.14184    -0.30359     -1.0039   -0.024585
-0.13534     -0.0405   -0.037252    -0.14574    -0.20063    -0.84115  -0.0050961
-0.14054   -0.046671   -0.052843    -0.13145   -0.063561    -0.54135     0.01894
-0.14281   -0.041475   -0.061937    -0.10221    0.066037     -0.1321      0.0433
-0.13892   -0.027833   -0.063237   -0.062912     0.15211     0.29957    0.069285
-0.12722   -0.011917   -0.058689   -0.025234     0.17874     0.66563     0.10047
-0.10806      0.0014   -0.055441  -0.0024977     0.15146     0.93977     0.14204
-0.086623     0.01017   -0.056741  -0.0028225    0.084876      1.1463     0.19271
-0.069733   0.0088706   -0.063561   -0.022311  -0.0099683      1.3208     0.23981
-0.063886  -0.0037969   -0.072656   -0.052843     -0.1178      1.4854     0.26904
-0.072006    -0.02361   -0.082725   -0.084999    -0.22499      1.6414     0.27229
-0.085324   -0.044398    -0.09182    -0.11423    -0.31626      1.7469     0.24403
-0.094743    -0.05804   -0.096367    -0.13437    -0.37343      1.7333     0.18557
-0.097341   -0.061613   -0.093769    -0.13827     -0.3848      1.5559     0.10599
-0.092794   -0.058365   -0.084024    -0.12365    -0.34257      1.2438    0.015692
-0.086623   -0.051219   -0.064211   -0.088572    -0.23441     0.89137   -0.069408
-0.082725   -0.043099   -0.036927   -0.042774   -0.061937     0.61529    -0.13729
-0.075904   -0.029457  -0.0067202   0.0033489     0.14139     0.48179    -0.18212
-0.060963   -0.014516    0.019914    0.038428     0.32816     0.48991    -0.20485
-0.038876  -0.0034721    0.039727    0.061489     0.46198     0.59158    -0.21297
-0.020687   0.0010752    0.049472    0.073507     0.52889      0.7176    -0.21655
-0.015815 -0.00022403    0.047523    0.072208     0.52759     0.80173    -0.22661
-0.025884  -0.0073698    0.034206    0.059865     0.46977     0.78419    -0.24838
-0.041799   -0.015815    0.016991    0.040052     0.37265     0.64095    -0.28248
-0.058365   -0.022311   0.0010752    0.019589     0.25248     0.39052    -0.32958
-0.073955   -0.026533    -0.01484  -0.0024977     0.12223    0.086824     -0.3822
-0.087597   -0.026858    -0.03303   -0.027183  -0.0093186    -0.20485      -0.428
-0.090845   -0.026858   -0.052518   -0.055116     -0.1282      -0.428     -0.4543
-0.079477   -0.030756   -0.068109     -0.0824    -0.22174      -0.555    -0.45625
-0.058689   -0.037252   -0.077203    -0.10026    -0.28638    -0.58748    -0.43677
-0.035303   -0.044073   -0.082076    -0.10384     -0.3299    -0.55272    -0.40039
-0.018088    -0.04992   -0.081426    -0.09929    -0.36401    -0.49198    -0.35232
-0.010293   -0.054142   -0.078827    -0.09117    -0.40299    -0.45463     -0.2971
-0.0067202   -0.050569   -0.075579   -0.082725    -0.44521    -0.47347    -0.24318
-0.00087364   -0.039201   -0.072656   -0.073631    -0.47574    -0.54558    -0.19348
0.0078962   -0.025884   -0.065835   -0.062262    -0.48289     -0.6729    -0.14671
0.019914   -0.012242    -0.05739   -0.048296    -0.47022    -0.87266   -0.093119
0.037454   0.0023744   -0.047971   -0.026858    -0.44716     -1.1487   -0.029132
0.061814    0.021538   -0.036602    0.003024     -0.4202     -1.4752    0.040052
0.089098    0.047847   -0.017439    0.038753    -0.38967     -1.7964     0.10729
0.10924    0.078055    0.010495    0.078704    -0.34452      -2.027      0.1651
0.12255     0.10534    0.040377      0.1206    -0.27339     -2.1008      0.2057
0.13002      0.1232    0.066362     0.16056    -0.18114      -2.003        0.22
0.13425     0.12743    0.081952     0.19401   -0.071357     -1.7808     0.20473
0.1349      0.1206    0.083901     0.21317    0.059541     -1.5206     0.16478
0.13197     0.10664    0.072858      0.2096      0.2135     -1.3024     0.10696
0.12548    0.088448    0.054344     0.18557     0.37071     -1.1497    0.051745
0.11476    0.069285    0.029983     0.15309     0.48959     -1.0432    0.016016
0.099167    0.053044   0.0036737     0.12353     0.53116    -0.97367    0.010495
0.079679    0.038428   -0.018088     0.10501     0.48471    -0.93859    0.034206
0.058891    0.030633   -0.032705    0.097868     0.37948    -0.94184     0.07708
0.042975    0.028359   -0.035628     0.09397     0.26352     -1.0182     0.12645
0.033881    0.029658   -0.030106    0.086175     0.17907     -1.2413     0.16868
0.034855    0.032582   -0.018088    0.074482     0.14204     -1.6707     0.19986
0.045249    0.038753  -0.0044465    0.060515     0.13684     -2.2531     0.22324
0.058566    0.047198   0.0059473    0.049147     0.13912     -2.7939     0.23754
0.067986    0.056292     0.01017    0.045574     0.14009     -3.0258     0.23948
0.072533    0.063113   0.0085458    0.051096     0.14269      -2.739     0.23169
0.077405    0.062789   0.0039985    0.062464     0.15016     -1.9003     0.22389
0.081627     0.05207  -0.0028225    0.073182     0.16348    -0.67355     0.22649
0.080328     0.03453  -0.0089938    0.075456      0.1742     0.65037     0.24046
0.073182    0.016991   -0.012567    0.068635     0.17582      1.7804      0.2567
0.063763  0.00075039    -0.01614    0.061489     0.16348      2.6109     0.26774
0.059541   -0.011592   -0.016789    0.059216     0.13684      3.1332     0.27359
0.064413   -0.018413  -0.0093186    0.061814     0.10306      3.3752     0.27879
0.078704   -0.018088   0.0075714    0.068635    0.072208        3.37     0.28788
0.092996   -0.008669    0.028359     0.07773    0.044275      3.1585     0.30217
0.099492   0.0091954    0.051745    0.084876    0.017965      2.7993     0.31679
0.095269    0.029333    0.069285    0.084551   -0.017439      2.3618     0.32686
0.081952     0.04395     0.07708    0.073832    -0.06616      1.8924     0.31906
0.062464    0.043625    0.070259    0.055968    -0.12333      1.4202     0.28398
0.039727    0.031282    0.053694    0.032257    -0.18017     0.96153     0.22747
0.016666    0.011794    0.033231    0.010819    -0.22954     0.52207     0.15828
0.00010078  -0.0083442    0.015042  -0.0041217    -0.26949    0.096244    0.082602
-0.0080194   -0.025559   0.0046481  -0.0099683    -0.30327    -0.31399   0.0052977
-0.0099683   -0.035303   0.0010752  -0.0083442     -0.3325    -0.68914   -0.064211
-0.010943   -0.037252  -0.0015233  -0.0041217    -0.34907    -0.99024    -0.11813
-0.013866    -0.03238  -0.0057458  -0.0037969    -0.34744       -1.19    -0.15548
-0.016464   -0.027183   -0.015165   -0.011592    -0.33153     -1.2852    -0.18179
-0.017439    -0.02361   -0.026209   -0.027508    -0.30392     -1.2946    -0.19641
-0.018413   -0.026533   -0.033679   -0.045697    -0.25845     -1.2481    -0.19966
-0.021012   -0.034329   -0.034004   -0.063561    -0.18179     -1.1585    -0.19219
-0.027183   -0.047321   -0.029782   -0.080127   -0.060313     -1.0175    -0.17984
-0.035303   -0.058689   -0.025884   -0.096692     0.08585    -0.81517    -0.17172
-0.043099   -0.065186   -0.022961    -0.11098     0.21382    -0.55564    -0.17854
-0.048945   -0.065186   -0.021012    -0.12073     0.29178    -0.25617    -0.19478
-0.052843   -0.062262   -0.020037     -0.1282     0.30282    0.076755    -0.20713
-0.052193   -0.058365   -0.018738    -0.13664     0.26514     0.41715     -0.2055
-0.046022   -0.052193   -0.011592    -0.14346     0.21902     0.69681    -0.18959
-0.037902   -0.043423  -0.0015233    -0.14379     0.20408      0.8368     -0.1636
-0.036278   -0.037252   0.0069217    -0.13502     0.21967     0.80725    -0.13372
-0.043748   -0.039851   0.0088706    -0.12105     0.22032     0.64549    -0.10481
-0.05804    -0.04992  0.00010078    -0.10968     0.13165     0.42268   -0.079152
-0.073631   -0.063886   -0.021986    -0.10936    -0.09994      0.2109   -0.062587
-0.084024   -0.078827   -0.050244    -0.11943    -0.44456    0.060515   -0.056741
-0.087597   -0.088572   -0.075904    -0.13275    -0.79828   -0.012242   -0.056741
-0.084349   -0.089871   -0.090521    -0.14379     -1.0406    -0.02361   -0.061937
-0.075904   -0.085648   -0.090845    -0.14801     -1.0971  -0.0063954   -0.071682
-0.066485   -0.078178   -0.078827    -0.14281    -0.96425    0.013743   -0.088896
-0.060313   -0.067459   -0.059664     -0.1308    -0.70116    0.023812    -0.10709
-0.057715   -0.052518   -0.037252    -0.11358    -0.39487    0.031932    -0.11943
-0.053168   -0.033354   -0.010618   -0.089871    -0.12105     0.05142    -0.12268
-0.044398   -0.016464    0.017965   -0.057065    0.088448    0.087474    -0.11715
-0.030106  -0.0057458    0.042651   -0.018088     0.23071       0.131    -0.10611
-0.015815  -0.0031473    0.059865    0.020239     0.31322     0.17485   -0.093119
-0.0076946  -0.0037969    0.066686     0.04395     0.33823     0.21025   -0.079152
-0.011592  -0.0047713    0.063763    0.043625      0.2973     0.22877    -0.06681
-0.027508  -0.0080194    0.051745    0.022837     0.18492     0.22324   -0.059339
-0.048296   -0.011592    0.038428   -0.010618    0.014717      0.2057   -0.063237
-0.064536   -0.015815    0.031282   -0.044398    -0.18861     0.19856   -0.078178
-0.065835   -0.019712    0.030957   -0.067784    -0.38967     0.21512   -0.092469
-0.046671   -0.021337    0.031282   -0.072981    -0.54623     0.23039   -0.094743
-0.01484   -0.018738    0.028684   -0.060638    -0.62223     0.18589   -0.075579
0.016991  -0.0089938    0.021863    -0.04115    -0.60924    0.048172   -0.038227
0.040702   0.0095202    0.014717   -0.025884    -0.52836    -0.14606   0.0078962
0.057592    0.031282    0.012119   -0.021337    -0.41533    -0.32243    0.056942
0.06961    0.047847    0.013093   -0.026533     -0.2958    -0.44554     0.10112
0.073182    0.055968    0.012443   -0.039201    -0.19413    -0.52804     0.13197
0.065387    0.054668   0.0026992   -0.054792    -0.12073     -0.5969     0.14172
0.049472    0.046548   -0.012567   -0.069408   -0.076554    -0.66965     0.12872
0.030633    0.037129   -0.029457   -0.080451   -0.052843    -0.77262     0.10794
0.014392    0.029333   -0.039526   -0.084999   -0.037577    -0.94801    0.099492
0.0017248    0.025761   -0.041475   -0.082076   -0.016789     -1.1848     0.10794
-0.0034721    0.025111   -0.035628   -0.072656    0.025436      -1.393     0.12872
-0.0015233     0.02706   -0.024909   -0.058689     0.08585     -1.4641     0.14561
0.0069217    0.029983    -0.01549   -0.044073     0.15211     -1.3456     0.14367
0.015042    0.029658   -0.012567    -0.03238     0.20895      -1.061     0.11801
0.021213    0.026085   -0.017114   -0.028807     0.24825    -0.68719    0.073832
0.021863    0.019914    -0.02361    -0.03173     0.27781    -0.31106    0.024786
0.019589    0.015367   -0.026858   -0.030106     0.31419    0.013093  -0.0096434
0.018615    0.019589   -0.021986   -0.012567     0.36941     0.27424   -0.020687
0.020564    0.034206  -0.0073698    0.023812     0.43307     0.47529   -0.013216
0.021213    0.057267    0.016016    0.072858     0.48276     0.64192   0.0036737
0.021213    0.078704    0.041351     0.12288      0.5107     0.80855    0.021538
0.023487    0.095269    0.062464     0.16121     0.52954     0.98394    0.038753
0.028034     0.10112    0.074806     0.18167     0.54643      1.1369     0.06084
0.034855    0.097543    0.074806     0.18589     0.54935      1.2068    0.090072
0.043625    0.086824    0.065062     0.18004      0.5081      1.1437     0.11573
0.050446    0.074482    0.053694     0.16738     0.39767     0.94399     0.12288
0.048172    0.060515    0.042975     0.15179     0.21805     0.66758     0.10534
0.039727    0.042001    0.039078     0.13717  -0.0037969      0.4191    0.064413
0.024137    0.022188    0.041027     0.12548    -0.21395     0.28073    0.010495
0.0046481   0.0059473      0.0433     0.11671    -0.35719      0.2619   -0.037902
-0.013866  0.00010078    0.039402     0.11411    -0.39454     0.32004   -0.066485
-0.028807  0.00075039    0.031282     0.11248    -0.32731     0.41196   -0.072331
-0.039526   0.0020496    0.021213     0.10631    -0.19966     0.51784   -0.062912
-0.047971 -0.00054884    0.012768    0.094295   -0.071682     0.64419   -0.045047
-0.058689  -0.0060706   0.0033489    0.074482   0.0088706      0.7949   -0.027833
-0.069408   -0.012242  -0.0041217    0.048822    0.031932     0.94497   -0.013216
-0.075255   -0.013216   -0.011917    0.024786    0.016991       1.045   0.0039985
-0.070707   -0.008669   -0.018088    0.014392   0.0052977      1.0742    0.031282
-0.054142  -0.0047713   -0.017764     0.01894    0.028034      1.0372    0.071883
-0.033679  -0.0031473  -0.0073698    0.032257    0.089748     0.93847     0.11898
-0.019063  -0.0037969   0.0059473    0.047198     0.17939     0.78159     0.15503
-0.011917  -0.0041217    0.014392    0.062464     0.27814     0.57209     0.17192
-0.0080194  -0.0024977    0.020239    0.078704      0.3733     0.33075     0.17062
0.0020496   0.0039985    0.024461    0.091372     0.45028     0.10079     0.16478
0.014068    0.013093    0.025111     0.09462     0.48666   -0.086298     0.15633
0.020888    0.020564    0.020239    0.084876     0.45321    -0.23961     0.13652
0.013093    0.018615    0.010819    0.065062      0.3405    -0.39519    0.096244
-0.0057458   0.0056225  -0.0044465    0.041676     0.17647      -0.593     0.03518
-0.028807   -0.016464   -0.020362    0.017316   0.0069217    -0.83336   -0.037252
-0.047971   -0.036278   -0.029132  -0.0041217    -0.13047      -1.061    -0.10676
-0.057065   -0.044723   -0.027508   -0.020037    -0.21525     -1.1971    -0.16295
-0.054467   -0.035953   -0.019063   -0.025234     -0.2435     -1.1777    -0.19933
-0.042774   -0.018088   -0.012242   -0.017114    -0.21785    -0.97367    -0.21297
-0.028157  -0.0044465  -0.0093186   0.0023744    -0.15158    -0.61346    -0.20843
-0.01614 -0.00022403   -0.012892    0.024786   -0.072981    -0.19933    -0.19446
-0.010293 -0.00087364   -0.020037     0.04395   -0.012567     0.12483    -0.18082
-0.014191  -0.0031473   -0.026209    0.054668    0.011144     0.26579    -0.17465
-0.027183  -0.0041217    -0.03173    0.057267  -0.0041217     0.24338    -0.17432
-0.044723  -0.0018481   -0.037902    0.056942   -0.047321     0.15309    -0.16912
-0.059664   0.0043233   -0.038227    0.061489   -0.097017    0.091372    -0.15386
-0.060963    0.016016   -0.032705    0.070584    -0.13307    0.097218    -0.12463
-0.04927    0.030308    -0.02361    0.081627    -0.14736     0.14659   -0.087597
-0.033354    0.041351   -0.019063      0.0865    -0.13112     0.19304   -0.050569
-0.020362    0.045899   -0.021337    0.082277   -0.084024     0.20603   -0.021986
-0.01614      0.0433   -0.030431    0.071558   -0.014191     0.18946  -0.0031473
-0.019712    0.032257   -0.043423    0.054993    0.061814     0.16738    0.011144
-0.029457    0.013743   -0.055116    0.034206      0.1258     0.15503     0.02641
-0.039201   -0.007045   -0.062262    0.014068     0.16803     0.14107    0.039727
-0.043748   -0.025884   -0.063561  -0.0021729     0.19726     0.10859    0.048822
-0.039526   -0.038227   -0.061937   -0.012567     0.22357    0.049796    0.052395
-0.029782   -0.044073   -0.059664   -0.016464     0.26547   -0.015165    0.056617
-0.022636   -0.043423   -0.057065    -0.01614     0.32751   -0.065186    0.065387
-0.016789   -0.036927   -0.053817   -0.010943     0.39052   -0.085324    0.078379
-0.013541   -0.031081    -0.04927  -0.0054209     0.42268   -0.073306     0.09397
-0.0099683   -0.029132   -0.043748  -0.0018481     0.39799   -0.028807     0.10729
