-0.20096     -2.7689      1.9558      1.0954     0.10079    -0.17562    0.089748
-0.26559     -2.9446      1.2237      1.0297     0.05272    -0.16815    0.058241
-0.29905     -2.4012     0.70201     0.93879   0.0043233    -0.12852     0.03583
-0.28053     -1.2696     0.61724       0.931   -0.018413   -0.044723    0.031282
-0.21005     0.16868     0.96868      1.0135  -0.0021729    0.080328    0.044275
-0.11261      1.4773      1.5394      1.0853    0.047847     0.22714    0.070584
-0.027833      2.3088      2.0074      1.0174     0.10826     0.37233    0.096569
0.016341      2.5187      2.1442     0.73806     0.15049     0.49218     0.11248
0.010819      2.1695      1.9707     0.26579     0.15666     0.56721     0.11671
-0.029782      1.5114      1.6933    -0.29482      0.1271     0.57696     0.10859
-0.073631     0.87935      1.4906    -0.80997    0.075456      0.5133    0.091372
-0.09117     0.49056      1.3708     -1.1952     0.01829     0.38922    0.072858
-0.067459     0.27261      1.2204     -1.4213   -0.029457     0.23396    0.062139
-0.0054209    0.021538     0.95114     -1.4956   -0.058365    0.079354    0.061489
0.06831    -0.35199     0.58021     -1.4355   -0.057065   -0.040825     0.06831
0.12548    -0.73266     0.20116     -1.2556   -0.024909    -0.11196    0.078379
0.15438    -0.91456   -0.096692    -0.98536    0.033556    -0.14314    0.089423
0.15244    -0.79795    -0.31951    -0.69044     0.10826    -0.16295     0.09462
0.1258    -0.45885    -0.57286    -0.47444     0.18037    -0.19511    0.088124
0.087149   -0.063886    -0.95386    -0.40266     0.23266    -0.23863    0.070909
0.044599     0.26255     -1.4284    -0.45755     0.26352    -0.26884    0.050771
-0.0031473     0.44606     -1.8364    -0.55337     0.28366    -0.25975    0.036479
-0.062262     0.46165     -2.0192    -0.59332     0.30185    -0.19673    0.029983
-0.12885      0.3824     -1.9231    -0.52674     0.31354   -0.083375    0.030308
-0.18471     0.30899     -1.6291    -0.36466      0.3038    0.064088    0.034206
-0.212     0.30347     -1.2816    -0.15678     0.26969     0.22617    0.044275
-0.18894     0.37623    -0.95841    0.046873     0.24923     0.38078    0.063438
-0.10903     0.45548    -0.63652     0.24371     0.29503      0.5081    0.092346
0.022188     0.41748    -0.24545     0.46003     0.43274     0.59125     0.12678
0.19304     0.24955     0.24695     0.67635     0.64939     0.62568     0.16608
0.39149     0.19499     0.80238     0.79978     0.89917     0.62373     0.20408
0.60457     0.60197      1.3406     0.74034      1.1061      0.5971     0.23559
0.80043       1.542      1.7206     0.49998      1.1528      0.5448     0.25605
0.92385      2.6976      1.7859     0.17127     0.92678     0.45093     0.25118
0.91443       3.573      1.4718    -0.13145     0.40773     0.31192      0.2096
0.74618       3.763     0.84233    -0.35264    -0.27631     0.14107      0.1323
0.4623      3.1251    0.033231    -0.51082    -0.90027   -0.024909    0.029333
0.16056       1.833    -0.77424    -0.64594     -1.2858    -0.14931   -0.072331
-0.058689     0.26222     -1.4167    -0.76872     -1.3699    -0.20843    -0.14379
-0.14346     -1.1406     -1.7964    -0.85642     -1.2088    -0.19933    -0.16847
-0.11326      -2.067     -1.8977    -0.88338    -0.91781     -0.1282    -0.15029
-0.026858     -2.4821      -1.762    -0.83271    -0.61119    -0.01614    -0.10481
0.06019     -2.4879     -1.4287    -0.69694    -0.35979      0.1206   -0.050244
0.12125     -2.2456    -0.88143    -0.47217    -0.18017     0.27781   0.0020496
0.15796     -1.9046   -0.088896     -0.1714    -0.05739     0.44801    0.048172
0.18427     -1.5496     0.86441     0.15179    0.029658     0.61269      0.0865
0.20376     -1.2157      1.7544     0.41813    0.091372     0.74099     0.11573
0.20765    -0.91488      2.3446     0.56462     0.11898     0.79393      0.1284
0.18232    -0.65958      2.4894     0.56949     0.10761     0.75203      0.1206
0.12515    -0.45138       2.199     0.45873    0.067986     0.62665    0.096244
0.045249     -0.3325      1.6277     0.28561    0.019264     0.44898    0.061489
-0.044073    -0.35264     0.98459     0.10469    -0.01614     0.25962    0.024461
-0.1269    -0.44586     0.43794   -0.042449   -0.031406    0.089098   -0.012567
-0.18796    -0.44391    0.061814    -0.13404   -0.021012   -0.047646   -0.048945
-0.22759    -0.18471    -0.14606     -0.1675    0.015042    -0.14606   -0.078503
-0.25     0.41553    -0.22597    -0.15548    0.077405    -0.20063   -0.096367
-0.2578        1.31    -0.22467    -0.11456     0.15861     -0.2146    -0.10221
-0.25357      2.3254    -0.17659   -0.062262     0.24176    -0.20193   -0.093769
-0.23279      3.2462    -0.11228   -0.015165      0.3012    -0.17789   -0.076229
-0.19608      3.8728   -0.076879    0.014717     0.30802    -0.14736    -0.05739
-0.15223      4.0755    -0.10936    0.025111     0.25767    -0.10709   -0.039201
-0.11098      3.8449    -0.20128    0.030633     0.17615   -0.052518   -0.022636
-0.075255      3.2544    -0.32666    0.054344    0.095919    0.014068  -0.0080194
-0.045372      2.3796    -0.48061    0.099167     0.02706     0.09397  -0.0018481
-0.023285      1.2805    -0.67972     0.13327   -0.052518     0.18784  -0.0080194
-0.0060706   0.0088706    -0.94054     0.11606      -0.161     0.29535   -0.023285
0.011469     -1.3332     -1.2559    0.042326    -0.28995     0.41878   -0.040825
0.029009     -2.5548     -1.5752   -0.044398    -0.39194     0.55844   -0.051868
0.043625     -3.4341     -1.8042   -0.084349    -0.42085     0.69811   -0.054142
0.052395      -3.779     -1.8578   -0.051544    -0.36466     0.81115   -0.053168
0.053044     -3.5923     -1.7003    0.051096    -0.25227     0.87481   -0.052518
0.046223     -3.0937     -1.3738     0.20018    -0.13437     0.87676   -0.054142
0.032906     -2.6156    -0.98212     0.36421   -0.053492     0.81017   -0.058689
0.0072465     -2.3892    -0.60047     0.50615   -0.030756     0.67927    -0.06616
-0.033679      -2.409    -0.24675     0.59645   -0.060313     0.50485   -0.078503
-0.082725     -2.5301    0.037129     0.61821    -0.11975     0.31192   -0.087922
-0.11651     -2.6451     0.16673     0.57436    -0.17724     0.12905   -0.086623
-0.11358     -2.7328     0.11118     0.49901    -0.20778   -0.021337    -0.06616
-0.068109     -2.7841   -0.052518     0.44216    -0.20193    -0.12722   -0.029132
-0.0018481     -2.7494    -0.20778     0.41943    -0.16685    -0.18569    0.015367
0.058566     -2.5422    -0.26234     0.40579    -0.11813    -0.20778    0.058241
0.097868     -2.0891    -0.14087     0.37688   -0.064536    -0.21005    0.088124
0.11833     -1.4167     0.18329     0.32621   -0.010618     -0.2029     0.10242
0.11898    -0.68232      0.6403     0.27002     0.03518    -0.19478     0.10209
0.10501    -0.11553      1.0632     0.22779    0.061814    -0.19186    0.088773
0.073182     0.10566       1.261     0.19011    0.056942    -0.19998    0.065062
0.013743   -0.060313       1.109    0.093321     0.01829    -0.22629    0.034855
-0.084999    -0.50952     0.59222    -0.13989   -0.048296    -0.27404   0.0056225
-0.2133     -1.0295    -0.16945    -0.47607     -0.1243    -0.34225   -0.021012
-0.34744     -1.3673    -0.92722    -0.76612    -0.18634     -0.4215   -0.044723
-0.44521     -1.2881     -1.4463    -0.87266    -0.20908    -0.49945   -0.059014
-0.46048    -0.62353     -1.6061    -0.77262    -0.17692    -0.55532   -0.056741
-0.35946     0.63445     -1.4183      -0.555   -0.085648    -0.57318   -0.034329
-0.14801      2.1139     -1.0139    -0.32666    0.047847    -0.54395   0.0078962
0.12028      3.2056    -0.56701    -0.12917     0.20148     -0.4686    0.064413
0.36518      3.3359     -0.2042    0.072858     0.35284    -0.35524     0.12353
0.52434      2.2929     0.03518     0.34959     0.48049    -0.22759     0.17225
0.56039     0.36259     0.25443     0.73546     0.56819    -0.10936     0.20181
0.46328     -1.7766     0.61399      1.1811     0.60587   -0.010943     0.20278
0.25995     -3.4169      1.1629      1.5472      0.5854    0.072208     0.17322
0.014068     -4.2091      1.8021      1.6712      0.5107     0.14561     0.11736
-0.18569     -3.9885      2.3439      1.4419     0.39182      0.2148    0.042651
-0.27274     -2.8082      2.6138        0.88     0.25475     0.28431   -0.037577
-0.2435     -1.0217      2.5122     0.14659     0.13067     0.35447    -0.10611
-0.15191     0.76795      2.0665    -0.51667     0.04395     0.41845    -0.14834
-0.070058      1.9311      1.4231    -0.91683      0.0014     0.45483    -0.16425
-0.046996      2.2559      0.7608    -0.99608  -0.0060706     0.43567    -0.16685
-0.085324      1.8817     0.22779    -0.82036   0.0049729     0.35479     -0.1727
-0.1623      1.2016   -0.082076    -0.52284    0.017316     0.22552    -0.18666
-0.24448     0.65394    -0.14411    -0.22499    0.016991    0.074806     -0.2055
-0.301     0.49576   -0.016789   0.0046481  -0.0073698   -0.067784     -0.2159
-0.31496     0.68902     0.16705     0.14237   -0.067784    -0.18374    -0.21297
-0.28833      1.0411     0.26027     0.19499    -0.16198    -0.27631    -0.20063
-0.23571      1.4634     0.20311     0.18849    -0.27469    -0.35069    -0.18342
-0.17692      2.0022     0.03453     0.15211    -0.38057     -0.4124    -0.16523
-0.13015      2.6915    -0.20225    0.097543    -0.45593     -0.4595    -0.14606
-0.11098      3.4314    -0.54752    0.029333    -0.49036    -0.49198    -0.13177
-0.1243      3.9978     -1.0747   -0.051219    -0.48646     -0.5105    -0.12755
-0.16295      4.1593     -1.7925    -0.12203    -0.44683    -0.51407    -0.13567
-0.2029      3.7744     -2.5987    -0.14541    -0.35914    -0.49783    -0.14769
-0.21849      2.8782     -3.3097   -0.098965    -0.19771    -0.44846    -0.14671
-0.18764      1.6823     -3.7371    0.011144    0.041351    -0.36011    -0.11813
-0.10774     0.44509     -3.7758     0.16315     0.31451    -0.23474   -0.063237
-0.0021729    -0.56669      -3.414     0.33823     0.55032   -0.092145   0.0036737
0.088773     -1.1107     -2.7257     0.52921     0.67732    0.038428    0.063763
0.13522      -1.101     -1.7857      0.7241     0.65816      0.1323     0.10274
0.13295    -0.64269    -0.60339     0.90404     0.50453     0.18102     0.11703
0.11151    0.021538     0.86376      1.0684     0.27034      0.2044     0.11541
0.10761     0.61756      2.5248      1.2016    0.029983     0.22877     0.11573
0.12548     0.91281      4.1645      1.2295    -0.15223     0.27684     0.12743
0.13327     0.74846      4.9596      1.0522    -0.24058     0.35739     0.15114
0.10274    0.089098      4.9593     0.62763    -0.22434     0.46328     0.18232
0.035505    -0.92625      4.9596    0.019589    -0.11813     0.57144      0.2135
-0.043748     -2.0202      4.0719    -0.63327    0.045249     0.66238     0.23916
-0.10579     -2.9232      2.3985     -1.1877     0.21675     0.72215      0.2541
-0.13469     -3.4393      0.8852     -1.5434     0.35024      0.7556     0.25605
-0.12625     -3.4861    -0.10481     -1.6688     0.42625     0.78906     0.24598
-0.087597     -3.1067    -0.50725     -1.5882     0.45613     0.83908     0.23104
-0.033679     -2.4415    -0.52089     -1.3475     0.46165     0.89592     0.21935
0.01894     -1.6301    -0.39909    -0.99771     0.44119     0.92288     0.21512
0.061165    -0.77814    -0.31756    -0.60144     0.37298     0.88455     0.21707
0.091372   -0.008669    -0.33153    -0.22661     0.26092     0.75788     0.21707
0.10696     0.51654    -0.41533    0.050446     0.15114      0.5474     0.20603
0.10339     0.69649    -0.53193     0.16348    0.097868     0.28431     0.18329
0.079679     0.55032    -0.65374    0.096893     0.13847    0.015692     0.15666
0.044275     0.19206    -0.76092   -0.086623     0.26449     -0.2159     0.13132
0.0059473    -0.21362    -0.83888    -0.27436     0.39019    -0.38934     0.10274
-0.022311    -0.47152    -0.88208    -0.36823     0.36941    -0.50433    0.071883
-0.036602     -0.4267    -0.91001     -0.3364    0.090722    -0.57741    0.034855
-0.047646    -0.12398     -0.9675    -0.22012    -0.41663     -0.6388  -0.0054209
-0.077853      0.1781     -1.0961   -0.086948    -0.98082    -0.70473   -0.046671
-0.14509     0.24111     -1.2845     0.01017     -1.4057    -0.77489   -0.084674
-0.24221    0.019264     -1.4638     0.06019     -1.5765    -0.83303    -0.11521
-0.33965    -0.32438     -1.5544    0.095594     -1.4856    -0.86064    -0.13892
-0.40006    -0.49815      -1.508     0.16218     -1.2108    -0.85057    -0.15451
-0.39714    -0.19901     -1.3193     0.26904    -0.86064    -0.80087    -0.15516
-0.31886      0.7111     -1.0178     0.36583    -0.52739    -0.71805    -0.13112
-0.15743      2.1149    -0.62678     0.39539    -0.26527    -0.60891   -0.076229
0.10047      3.7952    -0.16847     0.33498   -0.075904    -0.47639    0.010819
0.44834      4.9593     0.28008     0.19856    0.065062    -0.32666     0.11995
0.83193      4.9596     0.58216    0.023162     0.17615    -0.17854     0.22909
1.148      4.9593     0.61886    -0.17757      0.2463   -0.058365      0.3038
1.2896      4.9596     0.36096     -0.4202     0.24923   0.0059473     0.32004
1.2009      4.5399   -0.095393    -0.69174     0.17452   0.0033489     0.27099
0.91606       2.482    -0.59332    -0.93957    0.041027   -0.058365     0.16673
0.54545     0.49024     -1.0286     -1.1065    -0.11033     -0.1597    0.039078
0.20311     -1.0734     -1.3881     -1.1679    -0.23733    -0.27371   -0.077528
-0.042774     -2.0657     -1.6892     -1.1211    -0.31334    -0.37635    -0.15841
-0.18634     -2.6084     -1.9163    -0.96003    -0.32763    -0.45171    -0.19543
-0.24838     -2.8865     -1.9994    -0.67452    -0.28411    -0.49718    -0.19738
-0.2591     -3.0378     -1.8282    -0.26592    -0.19511    -0.51277    -0.18244
-0.23961     -3.1008      -1.303     0.23981   -0.078827    -0.50043    -0.16068
-0.20096      -3.045    -0.37927     0.76372    0.042651     -0.4647    -0.13632
-0.1597     -2.8371     0.81862      1.1662     0.14691     -0.4137    -0.11228
-0.13015     -2.4908      1.9246      1.2941     0.21642    -0.35329   -0.084349
-0.1256     -2.0644      2.5482      1.0775     0.24566    -0.28476   -0.051868
-0.14736     -1.6308      2.4719     0.60067     0.24695    -0.19641   -0.018738
-0.18342     -1.2371      1.7937    0.071883      0.2502   -0.074605   0.0095202
-0.21037    -0.87428     0.84103     -0.2906     0.29275    0.082927    0.030308
-0.20518    -0.46535  -0.0024977    -0.38545     0.40124     0.26612    0.045249
-0.15776     0.05272    -0.44034    -0.24286     0.56949     0.46328    0.061489
-0.081426     0.64192    -0.40234    0.024137     0.75365     0.65978    0.078379
-0.0041217      1.2094   -0.022961     0.27879     0.87481     0.83226     0.09397
0.05272      1.6891     0.47919     0.42008     0.84622     0.95244    0.097218
0.088124      2.0662     0.90404     0.40741     0.62178     0.99986    0.083576
0.10664      2.3491      1.1262     0.26222     0.22909     0.96543    0.057267
0.11378      2.5281      1.1168    0.049147     -0.2159     0.84428    0.025761
0.12255      2.5778     0.93555    -0.16003    -0.57286     0.64744  -0.0080194
0.15244      2.4771     0.69746    -0.31009    -0.75183     0.41066   -0.039201
0.20928      2.2198     0.50388    -0.36888    -0.73754     0.18459   -0.064861
0.27976      1.8044     0.39929    -0.33413     -0.5826    0.012443   -0.081751
0.3353      1.2379     0.35901    -0.22986      -0.377   -0.088572   -0.090521
0.34537     0.54188     0.32069    -0.10059    -0.20031    -0.12852   -0.088572
0.29308    -0.23214     0.22779   0.0085458   -0.092145     -0.1243   -0.080127
0.18687    -0.99024    0.064737    0.070909   -0.048945   -0.094418    -0.07428
0.059865     -1.6486    -0.13372     0.10112   -0.044398   -0.050569   -0.074605
-0.041799     -2.1501    -0.31756     0.13132   -0.045372  -0.0060706   -0.078827
-0.082725     -2.4782    -0.46307     0.18232   -0.031406    0.015367   -0.079152
-0.053492     -2.6282    -0.60859     0.25637   0.0023744  -0.0063954   -0.069733
0.029009     -2.6016    -0.81322      0.3392    0.044275   -0.080451   -0.051544
0.11866     -2.4434     -1.0844     0.41001     0.07708    -0.20355   -0.034329
0.16348     -2.2693      -1.367     0.44086    0.083901    -0.35946   -0.031081
0.13782      -2.217     -1.5954     0.41131    0.063763    -0.52154   -0.044723
0.050121     -2.3915     -1.7568     0.31451    0.027385    -0.66088   -0.069408
-0.071032     -2.8092     -1.8971     0.15503   -0.011592    -0.76157    -0.09994
-0.19381     -3.3301     -2.0728   -0.038227   -0.044398    -0.82718    -0.13112
-0.29677     -3.7021      -2.283    -0.21102   -0.065835    -0.87071    -0.15808
-0.36953     -3.6722     -2.4373    -0.31334   -0.072981    -0.89247      -0.174
-0.42085     -3.1245     -2.3401    -0.32048   -0.060638     -0.8798    -0.17302
-0.46405     -2.1271     -1.7064    -0.22174   -0.029132    -0.81517    -0.15386
-0.50108     -0.8444      -0.339    -0.03173     0.01829    -0.68947    -0.12105
-0.52446     0.58118      1.5774     0.19011    0.077405    -0.51115    -0.08305
-0.52576      1.8976      3.4164     0.33205     0.13425    -0.29742    -0.04927
-0.51017      2.8064      4.5828     0.26287     0.17062   -0.065186   -0.024585
-0.49003      3.0556      4.7127   -0.057065     0.17485     0.18004   -0.015815
-0.47542      2.6206      3.8712    -0.50335     0.15114     0.44216   -0.024909
-0.46535      1.7934      2.5346    -0.85707     0.12255     0.69844   -0.045047
-0.44294      1.0005      1.2805    -0.95321     0.11346     0.89462   -0.060313
-0.38869     0.57371     0.51979    -0.76027       0.131     0.97972   -0.058365
-0.27826     0.59515     0.33498    -0.36303     0.17062     0.94269   -0.035953
-0.096042     0.92255     0.51232    0.098842     0.22259     0.81472   0.0062721
0.14042      1.3006      0.7582     0.49706     0.27944     0.64972     0.06084
0.36811      1.4556     0.86799     0.78321     0.32718     0.49641     0.11183
0.5094      1.1798     0.80043     0.97972     0.36129     0.38175     0.14139
0.51622     0.45028     0.63023      1.1252     0.38565     0.31484     0.13749
0.40579    -0.51407       0.461      1.2259     0.39994     0.28885     0.10534
0.24078     -1.3638     0.37395      1.2457     0.40351     0.27684    0.058891
0.088448      -1.837     0.38727      1.1421     0.39214     0.24338    0.015042
-0.0067202     -1.8165     0.45418     0.91151     0.35317     0.15731   -0.014191
-0.029132     -1.3608     0.48829     0.60164     0.26644    0.019914   -0.027833
-0.00087364     -0.6742     0.40546     0.28398     0.12645    -0.13989   -0.026533
0.049796    0.019589     0.17907    0.026085   -0.033679      -0.288  -0.0089938
0.093321     0.58573     -0.1334    -0.12365    -0.15581    -0.39259    0.016341
0.11476     0.99499    -0.43709    -0.14606    -0.18926    -0.44196    0.041676
0.10956      1.2659    -0.64009   -0.059339    -0.11651    -0.44196    0.057592
0.085525      1.4257    -0.72584     0.06896    0.038428    -0.40753     0.06019
0.054668      1.5173    -0.75897      0.1349     0.23818    -0.35394    0.053694
0.025436      1.5975    -0.81387    0.068635     0.43274     -0.2854    0.044599
0.0059473      1.7336    -0.89539    -0.12333     0.53376    -0.20388    0.037454
-0.0021729      1.9967    -0.93697    -0.34679     0.43729    -0.11326    0.028684
-0.00087364      2.3855    -0.86584    -0.48289     0.10956   -0.021337     0.01829
0.0088706      2.7451    -0.68005    -0.44846    -0.35816    0.066686   0.0069217
0.028034      2.8392    -0.45755    -0.23733    -0.80315     0.15146  -0.0041217
0.056942       2.479    -0.31821    0.064737     -1.0877     0.24078   -0.014191
0.087149      1.5982    -0.35914     0.32328     -1.1487     0.33433   -0.021986
0.10761     0.31419    -0.60047     0.43534     -1.0091     0.42073   -0.027183
0.11378     -1.0779    -0.98179     0.39312    -0.75183     0.47789   -0.027183
0.11183     -2.2131     -1.3949     0.26125    -0.46957     0.48017   -0.022961
0.10826     -2.8069     -1.7168      0.1258    -0.23149     0.40741   -0.018738
0.10306     -2.6708     -1.8529    0.054344   -0.072331     0.26125   -0.016789
0.090072     -1.8542     -1.7727    0.073832   0.0052977    0.066037    -0.01614
0.066362    -0.68297     -1.5025     0.17615    0.022837    -0.14281   -0.020037
0.036154     0.39312     -1.0848     0.32198   0.0036737    -0.33055   -0.031081
0.0085458      1.0375     -0.5472     0.44866   -0.039201    -0.47379    -0.04862
-0.012567      1.1973      0.0865     0.49153   -0.097341    -0.56117   -0.063561
-0.03238     0.95796     0.71793     0.39637    -0.15678    -0.59982   -0.069083
-0.059014     0.45191      1.1902     0.14302    -0.20615    -0.59722   -0.068434
-0.088247    -0.15678      1.3887    -0.23149    -0.23636    -0.56474   -0.063561
-0.11098    -0.69369      1.2912    -0.63977    -0.23409    -0.51309   -0.055441
-0.11813     -1.0497     0.99109     -0.9753    -0.18894    -0.45008   -0.046022
-0.10384     -1.1897     0.67927     -1.1471    -0.12722    -0.38545   -0.038227
-0.063886     -1.1179     0.53116     -1.1273    -0.10319    -0.31854   -0.034978
-0.0034721    -0.86908     0.57371    -0.97367    -0.15743    -0.23961   -0.033679
0.059865    -0.51829     0.69486     -0.7947    -0.27956    -0.14314   -0.034329
0.099492    -0.15418     0.76015    -0.67875     -0.4163   -0.037902   -0.034654
0.095919     0.16998     0.67603    -0.65179    -0.51277    0.052395   -0.036927
0.046873     0.45483     0.41293    -0.68102     -0.5394    0.099817    -0.04115
-0.033679     0.74553     0.03583    -0.72097     -0.4975    0.095594   -0.043748
-0.12138      1.0421    -0.32048    -0.73916    -0.41305    0.046873   -0.044723
-0.18536        1.26     -0.5472    -0.72617    -0.31691   -0.028157   -0.047971
-0.20875      1.2971      -0.631    -0.68719    -0.23214    -0.10319   -0.053492
-0.19186      1.1074    -0.62061    -0.61736      -0.174     -0.1623   -0.054467
-0.14801     0.74488    -0.55857    -0.50433    -0.14769    -0.19738   -0.048296
-0.081751     0.31159    -0.44846     -0.3312    -0.14119     -0.2081   -0.034004
0.0026992   -0.079477     -0.2591   -0.076554    -0.13404    -0.19543   -0.012242
0.098193    -0.32373    0.040702     0.27326    -0.10481     -0.1636    0.015042
0.19304     -0.3731     0.45256     0.71695   -0.039851    -0.12105    0.047198
0.27424    -0.27728     0.92158      1.2149    0.055318   -0.072656    0.077405
0.32491    -0.18082      1.3312      1.6462     0.15926   -0.028807    0.097218
0.32751    -0.27241      1.5533      1.8314     0.24728   0.0033489     0.10144
0.27911    -0.65276       1.514      1.6274      0.3012    0.017316    0.090722
0.18687     -1.2462      1.2064      1.0187     0.31029    0.012119    0.071558
0.081303     -1.8425     0.69714     0.15698     0.27846  -0.0067202    0.050121
-0.0083442     -2.2297     0.10956    -0.68817     0.21837   -0.026858    0.034206
-0.068758     -2.3197    -0.41078      -1.279     0.14724   -0.042124    0.026085
-0.10221     -2.1618     -0.7632     -1.5197    0.084226   -0.051219    0.022837
-0.12333      -1.875    -0.93664     -1.4437    0.045249   -0.054142     0.01829
-0.14801     -1.6083     -1.0117     -1.1754    0.039727   -0.050244   0.0059473
-0.18342     -1.5012     -1.1042    -0.86908    0.061489   -0.038876    -0.01614
-0.22791      -1.597     -1.2774    -0.64172    0.087474   -0.022636   -0.042124
-0.27274     -1.7909     -1.4895    -0.52251     0.10079   -0.011267   -0.064211
-0.31106     -1.9156      -1.636     -0.4634    0.099492   -0.011917   -0.075255
-0.34322     -1.8221     -1.6428    -0.39292    0.090397   -0.025559   -0.080127
-0.36466     -1.3803     -1.4914    -0.26299    0.084226   -0.046347   -0.081426
-0.36271    -0.51439     -1.2098   -0.032705     0.08585   -0.064536   -0.082725
-0.32568     0.75073    -0.82816      0.3051    0.098517   -0.071357   -0.075255
-0.25357      2.2055    -0.35914     0.71435     0.12353   -0.059989   -0.052518
-0.16198      3.5629     0.19076      1.1119     0.16121   -0.029457   -0.020687
-0.077203      4.5312     0.76112      1.3981      0.2044    0.015692    0.013743
-0.0041217      4.9541      1.2532      1.4988     0.24501    0.068635    0.045249
0.071234      4.8573      1.5657      1.4072     0.28138      0.1206    0.076431
0.16218      4.3542      1.6277      1.1947     0.31354     0.16445     0.10761
0.25962      3.4814      1.4315     0.95568     0.33887     0.19174     0.13295
0.33563      2.1942      1.0765     0.73059     0.35187     0.20213     0.14724
0.35512     0.52077     0.75333     0.49641      0.3444     0.19986     0.14594
0.2973     -1.2663     0.66336     0.21707     0.31159     0.18946     0.12645
0.16705     -2.7481     0.88683   -0.069733     0.26125     0.17582    0.095919
0.0056225     -3.7414      1.3091    -0.25422     0.21155     0.16575     0.06831
-0.13307      -4.212       1.629    -0.23961     0.18329      0.1638    0.054019
-0.18861     -4.2393      1.5176    -0.03173     0.18687     0.17095    0.056617
-0.13469     -3.9522     0.86311     0.23526     0.20993     0.18264    0.073182
0.0039985     -3.5052    -0.13989     0.36876     0.22422     0.19401    0.092346
0.16315     -3.0323     -1.1133     0.23429      0.2057     0.19823     0.10826
0.27911     -2.6036     -1.7191      -0.161     0.14659     0.18979     0.11573
0.31841     -2.1891     -1.7707    -0.66446    0.059216     0.16803     0.11866
0.28561     -1.6996     -1.2767     -1.0874    -0.03238     0.14204      0.1232
0.20993     -1.0831    -0.43579     -1.2972    -0.10871     0.12548     0.12678
0.1284    -0.37148     0.43827      -1.264    -0.15613      0.1245     0.12937
0.060515     0.30834      1.0395      -1.051    -0.15905      0.1362      0.1284
0.015042     0.83713      1.2279    -0.78009    -0.11943     0.15373     0.11898
-0.0093186      1.2366      1.0288    -0.56214   -0.043423     0.17225     0.10501
-0.0054209      1.6673     0.60424    -0.43449     0.06084     0.18914    0.091696
0.029983      2.2835     0.15861    -0.35686     0.17874     0.20473    0.084226
0.081627      3.0452    -0.17659    -0.26494     0.28723     0.22259    0.080328
0.11638      3.7234    -0.37408    -0.12365     0.35447     0.24111    0.074482
0.10469      4.0446     -0.4686    0.054993     0.35674     0.25215    0.059865
0.038103      3.8478    -0.50335     0.22747     0.28496     0.25345    0.038103
-0.059339      3.1829    -0.52251     0.34375     0.14139     0.24371    0.011144
-0.15061      2.2897    -0.56312     0.37136   -0.048945     0.22324   -0.016789
-0.20485       1.453    -0.63035     0.31451    -0.24221     0.19628   -0.042124
-0.21037      0.8511    -0.69044      0.2161     -0.3835     0.16965   -0.058365
-0.17075     0.51654    -0.68557     0.13132    -0.44066     0.15211   -0.063237
-0.097991     0.39507    -0.54623    0.088773    -0.41403     0.15049   -0.051544
-0.0083442     0.39961    -0.23116      0.0865     -0.3299     0.15633   -0.023285
0.083251     0.42722      0.2161      0.1206    -0.21914     0.16088    0.016991
0.15893     0.36259     0.64192     0.19109    -0.10936     0.15763    0.055968
0.19499     0.10144      0.8407     0.28593   -0.025884     0.13944    0.079679
0.17127     -0.3718     0.67538     0.36324    0.012768     0.10631    0.077405
0.092996    -0.94509     0.14464     0.38825  0.00042559    0.063763    0.050446
-0.01614     -1.4044    -0.59852     0.34375   -0.050244    0.014717   0.0056225
-0.11748     -1.4671     -1.3271     0.24143    -0.11878   -0.038551   -0.044073
-0.17984    -0.93242     -1.8838     0.11378    -0.18601   -0.090196   -0.088247
-0.18861     0.15698     -2.2183    0.014717    -0.23344     -0.1269    -0.11488
-0.15029      1.4789     -2.3583  -0.0015233    -0.24415    -0.13859    -0.11943
-0.0824      2.6866     -2.2836    0.082277    -0.20648    -0.12657    -0.10481
0.00010078      3.6022     -1.8883     0.24533    -0.12625   -0.096042   -0.080127
0.088448      4.2034     -1.0874     0.44314   -0.021661   -0.056091    -0.04992
0.17582      4.5497    0.042326     0.61594    0.080653   -0.023935   -0.016789
0.2476      4.6741      1.2389     0.68285     0.15179   -0.016789    0.016991
0.30087      4.5659      2.2338     0.59125     0.17355   -0.041475    0.040052
0.34797      4.1953      2.8649     0.36096     0.14854   -0.086948    0.049147
0.41228      3.5148      3.0611    0.095594    0.099167    -0.13307     0.05207
0.49316      2.4631      2.8597   -0.075579    0.054019    -0.16263     0.05207
0.56039     0.99044      2.3842   -0.094093    0.028359    -0.17432    0.043625
0.56332     -0.8824      1.7781  -0.0034721    0.012768    -0.18471    0.024137
0.4688     -2.9056      1.1808    0.099492   -0.007045    -0.20388  -0.0057458
0.28983     -4.8148     0.70623     0.12418   -0.039201    -0.23441   -0.042124
0.070259     -4.9701     0.38467    0.026735   -0.078827    -0.26397   -0.076229
-0.14541     -4.9701     0.17355    -0.17562    -0.11293    -0.28248    -0.09994
-0.32048     -4.9701    0.016341    -0.41598    -0.13015    -0.28313    -0.10903
-0.42897     -4.9701    -0.11131    -0.60696    -0.12527    -0.26657    -0.10286
-0.45885     -4.9701    -0.19868    -0.68427    -0.10286    -0.23863   -0.086948
-0.4189     -4.9701    -0.23084    -0.62905   -0.074605    -0.20485   -0.067459
-0.33737     -4.9701     -0.2159    -0.46372   -0.046996    -0.17432   -0.048945
-0.25195     -3.8141    -0.18309    -0.24318   -0.024585     -0.1636   -0.037577
-0.19316     -2.4938    -0.16068    -0.02426   -0.012567    -0.18731   -0.037252
-0.1662     -1.4554    -0.16912     0.14334   -0.013866    -0.24675   -0.040825
-0.16295    -0.74046     -0.2094     0.23559   -0.027833    -0.32893   -0.047971
-0.17172    -0.30554    -0.27176     0.25572   -0.049595    -0.42085   -0.054467
-0.18504   -0.073631    -0.34062     0.22487   -0.070058    -0.51082   -0.059014
-0.19998    0.030633    -0.40688       0.169   -0.082725    -0.58715   -0.061937
-0.21395    0.053694     -0.4673     0.10664   -0.086623    -0.64237   -0.061613
-0.22629    0.019589    -0.52641    0.050446   -0.085973     -0.6716   -0.062587
-0.23636   -0.035953    -0.58553   0.0059473   -0.088247     -0.6755    -0.06616
-0.24383   -0.084349    -0.64237   -0.029782    -0.09929    -0.65861   -0.072006
-0.2487    -0.10871    -0.69304   -0.058365    -0.12203    -0.62028   -0.077853
-0.25098   -0.048945    -0.72065   -0.079802    -0.14606    -0.56441   -0.079152
-0.24838     0.18816    -0.70116   -0.089221    -0.15646    -0.48971   -0.072006
-0.23441     0.65102    -0.61151   -0.079802    -0.14054    -0.38447   -0.056741
-0.20258      1.2977    -0.45528   -0.047646   -0.094093    -0.22239   -0.036278
-0.15581      2.0402    -0.25942   0.0010752   -0.018088     0.01829  -0.0093186
-0.10774      2.8061   -0.061937    0.057917    0.075781     0.33335    0.018615
-0.076554      3.5207    0.098193     0.10566      0.1716     0.68674    0.039078
-0.076879       4.069     0.19239     0.12093     0.25053      1.0307    0.049796
-0.09929      4.3236     0.20083    0.076755     0.29405      1.3406    0.050771
-0.11358      4.2414    0.099817   -0.035628     0.29762       1.617    0.045899
-0.085973      3.8786    -0.12755    -0.19511     0.27294      1.8726    0.045249
-0.007045      3.3161    -0.46892    -0.34452     0.24143      2.0977    0.055643
0.098842      2.6181    -0.89182    -0.43092      0.2187      2.2601    0.076755
0.17939       1.872     -1.3375    -0.43417     0.20733      2.3319    0.097543
0.20213      1.2077     -1.7259    -0.36693     0.20018      2.3079     0.10924
0.17874      0.7215     -1.9715    -0.24578     0.19758      2.1965     0.10924
0.15211     0.40026     -2.0225   -0.081101       0.207      2.0314     0.10534
0.15536     0.13944     -1.8695     0.12385     0.23624      1.8548     0.10079
0.19661    -0.18601      -1.507      0.3889      0.2895       1.692    0.097543
0.26579    -0.64009    -0.94996     0.72507     0.36031      1.5296    0.097218
0.33952      -1.188    -0.27079       1.082      0.4165      1.3318     0.10047
0.38305     -1.7227     0.43145      1.3747     0.40514      1.0638     0.10274
0.35966     -2.1329      1.0535      1.5355     0.29925     0.71695    0.093645
0.26222     -2.3411      1.5062      1.5342     0.12775     0.31744    0.067661
0.11378     -2.3174      1.7427      1.3666   -0.044073     -0.0837    0.024786
-0.034654     -2.0598       1.771      1.0668    -0.15061    -0.43352   -0.025234
-0.13957     -1.5833      1.6456     0.69616    -0.14541    -0.69174   -0.069408
-0.18082    -0.92008      1.4325     0.30802   -0.022636    -0.84277   -0.092469
-0.16068     -0.1191      1.1951   -0.073955     0.18199    -0.89604     -0.0837
-0.096042     0.76145     0.98687    -0.44001     0.40741    -0.87428   -0.043423
-0.0041217      1.6186     0.82186    -0.78139     0.58053    -0.80867    0.014068
0.096244      2.2838     0.68512      -1.061     0.61561    -0.73396     0.06896
0.18557      2.5586     0.56429     -1.2179     0.42138    -0.68524     0.10501
0.25118       2.329     0.47529     -1.1978   -0.015815    -0.67907     0.11411
0.27879      1.6621     0.44866    -0.98277    -0.57871    -0.71902    0.095919
0.26222     0.79198     0.49056    -0.61184     -1.0744    -0.79698     0.06019
0.19661  -0.0063954     0.56559    -0.18212     -1.3511    -0.89832    0.013743
0.092021     -0.5485     0.60294     0.17745     -1.3683     -1.0052   -0.034329
-0.020687    -0.82394     0.54968     0.37006     -1.1861     -1.1023   -0.078503
-0.10936    -0.92073     0.40319     0.37298    -0.90871     -1.1799    -0.11326
-0.15743    -0.94346     0.20213     0.23396    -0.63717     -1.2329    -0.13242
-0.17627    -0.95971   0.0023744    0.033556    -0.42897     -1.2605    -0.13924
-0.18212    -0.97335    -0.14379    -0.14606    -0.29905     -1.2615    -0.13989
-0.18342    -0.95483     -0.2029    -0.25033    -0.22824     -1.2316    -0.13307
-0.18536    -0.89507    -0.17627    -0.26689    -0.18959     -1.1705    -0.11975
-0.19056      -0.834   -0.093769    -0.20843    -0.16035     -1.0848    -0.10091
-0.19771    -0.82946   0.0010752    -0.11066    -0.12495    -0.97887   -0.076229
-0.19673    -0.89247    0.070584   -0.017114   -0.081101    -0.85674   -0.047971
-0.17497    -0.95938    0.091372    0.040702   -0.033679    -0.71707   -0.022311
-0.13372    -0.93697    0.066037    0.058241   0.0075714    -0.55597  -0.0021729
-0.089221    -0.74501   0.0056225    0.049147    0.038753    -0.37538    0.010495
-0.060638    -0.36856   -0.073955    0.028034    0.050121    -0.18894    0.014068
-0.056416     0.12483    -0.15581  0.00075039    0.036804   -0.012242   0.0072465
-0.072331      0.6286    -0.23051   -0.035628   0.0023744     0.12385   -0.008669
-0.095393       1.072    -0.28898   -0.082076   -0.038876     0.18589   -0.031081
-0.11423      1.4409    -0.32633    -0.14022   -0.070707     0.16803   -0.053492
-0.12105      1.7398    -0.35134    -0.19738   -0.081101    0.092346   -0.071682
-0.11098      1.9792     -0.3835    -0.23928   -0.063561  -0.0028225   -0.080451
-0.083375      2.1916    -0.43579    -0.25812    -0.02361   -0.087597   -0.075579
-0.031081      2.4027    -0.49815    -0.25845    0.028359    -0.14704   -0.054142
0.0433       2.558    -0.54915     -0.2552    0.075781    -0.18049   -0.023285
0.12678      2.5411     -0.5878    -0.26299     0.10112     -0.2016   0.0039985
0.19986      2.2705    -0.62938    -0.29255    0.099492    -0.21947    0.019914
0.25183      1.7739    -0.69076    -0.34452    0.074157    -0.23863    0.023812
0.27814      1.1892    -0.77911    -0.40656    0.039078    -0.26039    0.020564
0.27846     0.69519    -0.88955    -0.46048    0.010495    -0.27956    0.012443
0.25085     0.36876     -1.0143    -0.49458 -0.00054884    -0.28995   0.0036737
0.18979     0.13067     -1.1546    -0.51309   0.0078962    -0.29028  -0.0041217
0.10112    -0.19803     -1.3047    -0.52057    0.020564    -0.28963   -0.012892
0.0062721    -0.69856     -1.4411    -0.51115    0.028034    -0.29872   -0.025234
-0.056741     -1.2569     -1.5015    -0.46632    0.030633    -0.31951   -0.035303
-0.068109     -1.6837     -1.3891    -0.34809    0.040052     -0.3377     -0.0405
-0.042449     -1.8435     -1.0552    -0.11391    0.071883     -0.3403   -0.039851
-0.020037     -1.6821    -0.55727     0.26482     0.12678    -0.32828    -0.03238
-0.030106     -1.2043   -0.022311     0.77054     0.20668    -0.31236    -0.01484
-0.059989    -0.45203     0.42397      1.3312     0.31419    -0.30165    0.011469
-0.061288      0.5068     0.74131      1.8509     0.45808    -0.29482    0.042001
0.013418      1.4799     0.95536      2.2273     0.63055    -0.28833    0.072533
0.15666      2.1607      1.1031      2.3764     0.80725    -0.27534     0.10501
0.31127      2.2176      1.2032      2.2442      0.9638    -0.25812     0.13327
0.40806      1.4767      1.2646      1.8333      1.0632    -0.24773     0.14919
0.40254    0.058241      1.2889      1.1996      1.0278    -0.25715     0.14432
0.30152       -1.61       1.247     0.41293     0.76112    -0.29547     0.12028
0.14464     -3.0245      1.1057    -0.46372      0.2502    -0.36141    0.087149
-0.0096434     -3.8372     0.89462     -1.3446    -0.38837    -0.43774     0.05272
-0.10676     -3.8554      0.7111     -2.1131    -0.95094    -0.49685    0.019264
-0.11715     -3.1518     0.65686     -2.6123     -1.2816    -0.52089  -0.0080194
-0.04927     -2.0715     0.75755     -2.7098     -1.3362    -0.50725   -0.027183
0.057592      -1.052      0.9638       -2.37      -1.176    -0.46535   -0.035953
0.15926    -0.44229      1.1775     -1.6792    -0.91293    -0.40948   -0.038227
0.21837    -0.38252      1.2824    -0.82491    -0.64497    -0.34939   -0.039851
0.21805    -0.75443      1.1905   -0.036602    -0.43189    -0.28768   -0.047321
0.16315     -1.2592     0.90242     0.49186    -0.28476    -0.22597   -0.061288
0.070259     -1.5941     0.52077     0.70493    -0.19511    -0.16328   -0.084674
-0.042449     -1.6152     0.18167     0.65491    -0.14476   -0.091495    -0.11651
-0.16425     -1.3716   -0.022961     0.45613    -0.12105   -0.010618    -0.14866
-0.27436     -1.0221   -0.086623     0.22162    -0.11066    0.084226    -0.17432
-0.35102    -0.71837   -0.074605    0.016016   -0.097017     0.19661    -0.18764
-0.3809    -0.51862   -0.069408    -0.14639   -0.075255     0.31874    -0.18764
-0.36661    -0.38187     -0.1178    -0.26657   -0.051544     0.42495    -0.17432
-0.32341    -0.23344    -0.21395    -0.34062    -0.03173     0.48406    -0.14964
-0.27014   -0.053168    -0.31561    -0.35102   -0.016464     0.47984    -0.11521
-0.22629     0.10761    -0.37992    -0.29028  -0.0011985       0.423   -0.078178
-0.2016     0.18557    -0.39974      -0.174    0.014717     0.33563   -0.044723
-0.19673     0.19044    -0.40591   -0.045372    0.026085     0.24241   -0.021661
-0.20031     0.22552    -0.44294    0.054993    0.027709     0.16056  -0.0099683
-0.20388     0.43047    -0.53063     0.10339    0.020239    0.096893  -0.0057458
-0.20063     0.85532    -0.65016     0.10924   0.0046481    0.048822  -0.0044465
-0.19089      1.3854    -0.73819     0.10631   -0.011592    0.016016 -0.00087364
-0.1649      1.8294    -0.70506     0.12905   -0.016789   0.0026992    0.011144
-0.11066      2.0175    -0.50985     0.19206  -0.0093186    0.014717     0.03583
-0.020362      1.8736    -0.18244     0.29308    0.012768    0.055643    0.073507
0.091372      1.4731     0.16835     0.40838    0.047523     0.12483     0.11411
0.20148     0.98492     0.40481      0.5146    0.086175      0.2161     0.14594
0.2934     0.55487     0.43664     0.58151     0.12028     0.31971     0.16056
0.36421      0.2515     0.26904     0.56657     0.14561     0.42527     0.15926
0.40579     0.11995   -0.013866     0.43177      0.1664     0.52726     0.14821
0.41196     0.22129    -0.30262     0.18589     0.18849     0.61886      0.1336
0.37265     0.58378    -0.52122    -0.10481     0.21058     0.68869     0.11703
0.28138      1.1658    -0.65601    -0.35069     0.22519      0.7176    0.097218
0.14691      1.8158    -0.71967    -0.49231     0.22422     0.68739    0.075131
0.00010078       2.303     -0.7174    -0.51472     0.20376      0.5945    0.048822
-0.1191       2.429    -0.63815    -0.45398     0.16445     0.46198    0.017965
-0.19348      2.0883    -0.46178    -0.36596     0.10631     0.32134   -0.012242
-0.24188      1.3191    -0.18179    -0.28768    0.041351     0.20343   -0.035953
-0.2971     0.33725     0.15309    -0.22109   -0.012242     0.13197   -0.055116
-0.37505    -0.51732     0.43047    -0.15743   -0.043748     0.11573   -0.071357
-0.45885    -0.93632     0.51979   -0.086298   -0.046347     0.14984    -0.08305
-0.50497    -0.79243     0.35771 -0.00054884   -0.020362     0.23006   -0.085324
-0.47639    -0.17237   0.0033489    0.095919    0.027385     0.34797   -0.073306
-0.36498     0.62373    -0.38285     0.18459    0.079029     0.47822   -0.047321
-0.19836      1.1967    -0.65276     0.24695     0.11443     0.58086   -0.018738
-0.022961      1.2604    -0.73072     0.29048     0.11573     0.61594   0.0069217
0.11573     0.78029    -0.64432     0.33595    0.080653     0.56721    0.020239
0.19174   -0.042774    -0.51959     0.38597    0.015692     0.44119    0.017316
0.20083    -0.90481    -0.48419      0.4217   -0.061288     0.26807  -0.0015233
0.14399     -1.5755    -0.56571     0.41845    -0.13729    0.081303   -0.030756
0.03453     -1.9348    -0.65471     0.36486    -0.19576   -0.088896   -0.061288
-0.094093     -1.9241    -0.55402     0.27651    -0.22597    -0.22207   -0.083375
-0.19576     -1.6148    -0.14769     0.17712    -0.22272    -0.30619   -0.092794
-0.24026      -1.216     0.45743     0.10274    -0.18342    -0.33672   -0.087922
-0.22921     -1.0026     0.99304    0.081303    -0.11391    -0.31918   -0.073631
-0.18212      -1.188      1.2305     0.11541   -0.025559    -0.26722   -0.051544
-0.12008     -1.8084       1.069     0.17192     0.06896    -0.19413   -0.022636
-0.054467     -2.6533      0.5526     0.18329     0.15406    -0.11586   0.0088706
0.021538     -3.3279    -0.13275    0.096893        0.22   -0.044073      0.0433
0.13262     -3.4471    -0.70213   -0.075904     0.27294    0.024137    0.082927
0.28398     -2.8309    -0.92008    -0.24675     0.32686     0.09397     0.13555
0.45158     -1.5931    -0.65309    -0.27988     0.40221     0.16835     0.19466
0.58638    -0.12105     0.10079   -0.083375     0.50648     0.23883     0.24858
0.64419     0.95503      1.1418     0.30542     0.63283     0.29665     0.28203
0.61399      1.0694      2.1331      0.7189     0.75658      0.3366     0.28918
0.52239    0.035505      2.7727     0.97842     0.84428     0.35869     0.27164
0.40773     -1.7665      2.8932      1.0122     0.86636     0.36194     0.23851
0.29015     -3.5994      2.4998     0.87481     0.81634     0.34927     0.19758
0.18037     -4.8109      1.7333     0.64387     0.70461     0.32523     0.15731
0.091047     -4.9704      0.8079     0.34797     0.56007     0.30412     0.12418
0.032582     -4.1331   -0.040825  -0.0034721     0.40384     0.29957    0.097218
0.0056225     -2.3954    -0.61443    -0.37895     0.23526     0.31906    0.070584
-0.010943    -0.24253    -0.85772    -0.71675    0.037454     0.35252    0.040377
-0.048296      1.6826    -0.86584    -0.97627    -0.21395     0.38467   0.0059473
-0.12463      2.8652    -0.81971     -1.1461    -0.52511     0.41456   -0.034004
-0.22012      3.2647    -0.90254     -1.2196    -0.84277     0.45483   -0.069083
-0.29158      3.0825     -1.2108     -1.2114     -1.0776      0.5133   -0.088247
-0.30522      2.5459     -1.7633     -1.1679      -1.165     0.57826   -0.085648
-0.2565      1.7917     -2.5159     -1.1387     -1.0932     0.62406   -0.066485
-0.16847     0.91476     -3.3373     -1.1114    -0.89832     0.62081   -0.043099
-0.076879    0.079354     -3.9908     -1.0062     -0.6362      0.5578   -0.025234
-0.0044465    -0.48094     -4.1623    -0.75215    -0.36563     0.44704  -0.0063954
0.040377    -0.55889     -3.5708     -0.3338    -0.13177     0.31419    0.015367
0.058566   -0.070058     -2.1543     0.22779    0.043625     0.18394    0.042326
0.054668     0.84882    -0.15451     0.87578     0.15438    0.072858    0.067986
0.040052      1.9022      1.8859      1.5299     0.21155   -0.012567    0.087474
0.033556      2.8344      3.5161      2.0974     0.24111   -0.070382    0.099817
0.04395      3.4807      4.6143      2.4826     0.27034   -0.097341     0.10794
0.075781       3.749      4.9596      2.6047     0.31354   -0.098965     0.11898
0.1232      3.6279      4.9356      2.3995     0.36064   -0.078178     0.13425
0.1703      3.2008      4.0907      1.8466     0.39019   -0.050569     0.15016
0.20051      2.6168      2.8016      1.0167      0.3876   -0.035303     0.16153
0.207      2.0308      1.4302     0.07708     0.34375   -0.047646     0.15731
0.19044      1.5501      0.3379    -0.73949     0.25637   -0.088896     0.13067
0.16153      1.2262     -0.2539     -1.2556      0.1323    -0.14964    0.086175
0.13327      1.0512    -0.37115     -1.4167   -0.007045    -0.21525    0.036154
0.10891     0.97192    -0.20225     -1.2628    -0.13015    -0.27469   -0.007045
0.083576     0.95016    0.035505    -0.90286    -0.21492    -0.32698   -0.038227
0.050446     0.98297      0.1768    -0.46665     -0.2578    -0.37473   -0.063237
0.00042559      1.0677     0.14854   -0.071357    -0.27306    -0.42117   -0.090521
-0.069083      1.2142   -0.042449     0.20311    -0.27988    -0.46372    -0.12203
-0.14801        1.44    -0.35199     0.33011    -0.29775     -0.4962    -0.15191
-0.22207      1.7245    -0.70473     0.32523     -0.3364    -0.52057    -0.16847
-0.27469      1.9895     -1.0016     0.24338    -0.38999    -0.54428     -0.1701
-0.2971      2.1341     -1.1403     0.16185    -0.44359    -0.57091     -0.1597
-0.28898      2.1075     -1.0549     0.13262    -0.47672    -0.59592    -0.14184
-0.25845      1.9191    -0.76125     0.14724    -0.47184    -0.61476    -0.12333
-0.2172      1.5998    -0.36271      0.1677    -0.43449    -0.62515    -0.10644
-0.17205      1.1769    0.020239     0.17192    -0.37765    -0.62515   -0.089871
-0.12268     0.69681     0.32783     0.17387    -0.31431    -0.61249   -0.075904
-0.075579       0.258     0.57923     0.20765    -0.24773     -0.5839   -0.062587
-0.036278   -0.021337     0.82998     0.31127    -0.16815    -0.53031   -0.045047
-0.0080194   -0.078503      1.1038     0.49868   -0.065835    -0.44424   -0.018088
0.0056225   -0.010943      1.3188     0.70883    0.047847    -0.33055     0.01764
0.0039985   -0.027833      1.2808     0.78678     0.13912    -0.21362    0.054019
-0.0034721    -0.23311     0.84168     0.57371     0.17777    -0.11715    0.083576
0.009845    -0.52381    0.062139    0.051096     0.17062    -0.04862     0.10761
0.075131    -0.71285    -0.80022    -0.62061     0.15633  0.00010078     0.13522
0.19693    -0.67355      -1.496     -1.2215     0.16478    0.042326     0.16445
0.3418    -0.38772     -1.9189     -1.6002     0.20376    0.082602     0.18622
0.46165    0.065712     -2.0628     -1.7172     0.25605     0.11411     0.19044
0.52824     0.54448     -1.9854     -1.6275      0.2986     0.12872     0.17062
0.53668      0.8826     -1.7659     -1.4424     0.31029     0.12418      0.1258
0.49478     0.94107     -1.4927      -1.293     0.28008    0.097543    0.058891
0.41261      0.5932     -1.2075     -1.2403     0.20668    0.046548    -0.01549
0.28723    -0.25585    -0.88045     -1.2283     0.10696   -0.021661     -0.0837
0.11671     -1.5375    -0.44489      -1.113   0.0039985   -0.090845    -0.13697
-0.075904     -3.0274    0.092671    -0.78171   -0.084674    -0.14899    -0.17757
-0.25357     -4.4472     0.60587    -0.25455    -0.14606    -0.18731    -0.20713
-0.3783     -4.9704     0.95211     0.31711    -0.17107    -0.20778    -0.22434
-0.42572     -4.9701      1.0577     0.75528    -0.15223    -0.21492    -0.21979
-0.39876     -4.9701     0.92808     0.95731   -0.080776    -0.21849    -0.19219
-0.32666     -4.9701     0.61204     0.90274    0.038753    -0.22824    -0.14834
-0.24675     -4.4835     0.18816     0.65102     0.19563    -0.24968    -0.09994
-0.18796     -3.4269     -0.2513     0.31484     0.37915    -0.27664   -0.056741
-0.15743     -2.4061    -0.63165    0.017965     0.57761    -0.29937   -0.025884
-0.14509     -1.5392    -0.91553    -0.14509     0.76437    -0.30944   -0.017114
-0.14152     -0.8876     -1.0909    -0.14606     0.89787    -0.31464   -0.031081
-0.14152    -0.45398     -1.1595   -0.027183      0.9245    -0.33055   -0.067459
-0.14574    -0.19511     -1.1273      0.1258     0.76795    -0.36758     -0.1178
-0.15581   -0.051868     -1.0182     0.23136     0.37818    -0.42475    -0.16718
-0.1714    0.033556    -0.86291     0.25507    -0.18309    -0.48841    -0.20453
-0.18374     0.10242    -0.69629     0.21675    -0.73916    -0.53713    -0.22791
-0.18342     0.17582    -0.55402     0.15601     -1.1228    -0.54817    -0.23798
-0.16847     0.25605     -0.4595     0.10631     -1.2533    -0.51569    -0.23603
-0.14152     0.33173    -0.41435    0.084876     -1.1478    -0.44781    -0.22369
-0.11066     0.39669    -0.40006    0.094295    -0.89604    -0.36466    -0.20485
-0.088572     0.45191    -0.39292     0.12028    -0.61021    -0.28378    -0.18439
-0.080451     0.50095    -0.37213     0.14594    -0.37278     -0.2159    -0.16555
-0.08305     0.51849    -0.32958     0.15893    -0.21655    -0.15451    -0.15029
-0.089546     0.45483    -0.26657     0.15991    -0.13632   -0.080127    -0.14184
-0.090845     0.27554    -0.19966     0.15244    -0.10319    0.034206    -0.14314
-0.085648   0.0043233    -0.14801     0.14594   -0.085973      0.2044    -0.14671
-0.079152    -0.26787    -0.12138     0.14302   -0.065186     0.42138    -0.14444
-0.071032    -0.41111    -0.11228     0.14334    -0.03303     0.65914     -0.1334
-0.056741    -0.31204   -0.098316     0.14237   0.0049729     0.89137    -0.11326
-0.03173    0.091372   -0.060313     0.13522    0.046223      1.1012   -0.083375
0.0010752      0.7608   0.0023744     0.12353    0.096893      1.2694   -0.052843
0.037778      1.5244    0.069285     0.11313     0.15049      1.3831   -0.024909
0.071558      2.1442     0.10306    0.097543      0.2057      1.4461  -0.0015233
0.093645      2.4004    0.064413    0.063438      0.2934      1.4747    0.017316
0.094945      2.1562   -0.069733  0.00075039     0.44314      1.4822    0.030633
0.069285      1.4689    -0.28573     -0.0837       0.639      1.4689    0.044924
0.025111      0.5841    -0.53908     -0.1675     0.81699      1.4169    0.067011
-0.014516    -0.21752    -0.77164    -0.22986     0.90534       1.312    0.099167
-0.022311    -0.71805    -0.93924    -0.25455     0.88423       1.148     0.13295
0.023487     -0.7986     -1.0146    -0.22921     0.76795     0.91638      0.1625
0.1297    -0.38025    -0.98764    -0.15029     0.57371      0.6286     0.18134
0.28528     0.53311    -0.87785    -0.03238     0.28788     0.31257     0.19011
0.44801       1.769    -0.70733    0.093645   -0.098641    0.013093     0.19401
0.56137      3.0481    -0.48386     0.18622    -0.53258    -0.23863     0.19011
0.57274      4.0313    -0.20193      0.2057    -0.91001    -0.43287     0.17062
0.4675      4.4159     0.10729     0.14496     -1.1338    -0.58228     0.13262
0.26807      4.0531     0.35609    0.039727     -1.1559    -0.70863    0.081627
0.023487      3.0539     0.43892   -0.049595    -0.98212    -0.82361    0.027385
-0.21297      1.7372     0.30704   -0.071682    -0.65471     -0.9243   -0.019063
-0.40526     0.43567   0.0095202    -0.01484    -0.22759     -1.0045   -0.050569
-0.53258    -0.63457     -0.3312    0.093645     0.23006     -1.0513   -0.060963
-0.57513     -1.4167    -0.57513      0.2135     0.64582     -1.0529    -0.04992
-0.52349     -1.9621    -0.62613      0.3314     0.96608      -1.001   -0.018088
-0.40428     -2.2459    -0.47737      0.4584      1.1457    -0.90092    0.028359
-0.26462     -2.2073     -0.2016     0.57826      1.1259    -0.77262    0.075131
-0.14866     -1.8597     0.10534     0.63802     0.82998    -0.64789     0.10761
-0.07493     -1.3615     0.42755     0.57436     0.25053     -0.5446     0.11768
-0.046022    -0.96263      0.8433     0.38435    -0.48938    -0.46567     0.10469
-0.042124     -0.8483      1.3974     0.13814     -1.1552    -0.40948    0.080653
-0.038876     -1.0425      2.0152    -0.04927     -1.5486    -0.36888    0.055643
-0.011267     -1.4563      2.5424     -0.0837     -1.5843     -0.3403    0.044275
0.047847     -1.9241      2.8474    0.028684     -1.3173    -0.31918    0.054019
0.1258     -2.2573      2.8795     0.18199    -0.90254    -0.30684    0.079679
0.20408     -2.3193      2.6544     0.23851    -0.51212    -0.29937     0.10469
0.2541     -2.0777      2.2231     0.11736    -0.26072    -0.29288     0.11573
0.25637     -1.6093      1.6592     -0.1623    -0.16912    -0.28313     0.10729
0.20116     -1.0419      1.0564    -0.49556    -0.18829    -0.26689    0.079354
0.093645    -0.48516     0.53019    -0.75897     -0.2526    -0.24318    0.040052
-0.041799   0.0023744     0.17647    -0.87753    -0.31139    -0.21947   0.0010752
-0.17497     0.40514    0.022512    -0.83985     -0.3403    -0.19868    -0.03173
-0.27274     0.73287     0.02706    -0.68849     -0.3364    -0.17594   -0.057065
-0.32276      1.0177     0.11313    -0.49263    -0.29872    -0.14087   -0.075255
-0.32536      1.2753     0.21285    -0.31691    -0.23603   -0.084024   -0.088572
-0.2958      1.4812     0.29113    -0.19186    -0.16003   -0.007045    -0.09182
-0.24318      1.5816     0.34375    -0.10903    -0.09117    0.078704   -0.081426
-0.16328      1.5559     0.38142   -0.044398    -0.04992     0.15828   -0.058365
-0.04992      1.4523     0.42755    0.026085   -0.041799     0.21902   -0.024909
0.096893      1.3373     0.49965     0.11508   -0.052843     0.25767     0.01764
0.26612      1.2857      0.5997     0.22617   -0.064211     0.28073    0.063113
0.43047      1.3591     0.71403     0.35544   -0.058689     0.29827     0.10469
0.56202      1.5501     0.81959     0.48309   -0.026858     0.31516     0.13782
0.6416      1.7271      0.8826     0.57339    0.032906     0.33303     0.15991
0.66563       1.682     0.84557      0.5854     0.11411       0.347     0.17062
0.63477      1.2321     0.65426     0.50388     0.19823     0.34992     0.16803
0.53571     0.32198     0.28788     0.34375     0.26612     0.33108     0.15276
0.36031    -0.90189    -0.20875     0.13944     0.31062     0.29275      0.1297
0.1297      -2.106    -0.73429   -0.063237     0.33011     0.24306    0.098842
-0.10579     -2.9846     -1.1871    -0.22467     0.32913     0.18849    0.065712
-0.29158     -3.3477      -1.494    -0.32633     0.31386     0.13587    0.034206
-0.38902     -3.1603     -1.6295    -0.35881     0.29178    0.088448    0.012119
-0.38382     -2.5282     -1.6126    -0.31983     0.27196    0.051096   0.0039985
-0.29385     -1.6467     -1.5002    -0.21882     0.26709    0.028034    0.013093
-0.1597    -0.73981     -1.3491   -0.084999     0.28203    0.016666    0.032906
-0.03173  -0.0050961     -1.1705    0.048822     0.31354   0.0078962    0.056942
0.048822     0.45483    -0.89279     0.15471      0.3457   -0.011267     0.07773
0.063438     0.65849    -0.43677     0.22519     0.35901   -0.055766    0.087474
0.022512      0.6783      0.1716     0.26319      0.3418    -0.13275    0.084876
-0.040825     0.56364     0.78484     0.27132      0.2986    -0.23961    0.069934
-0.095068      0.3444      1.2415     0.24728     0.24143    -0.36238    0.047198
-0.123    0.070259      1.4312     0.18427     0.17355    -0.48776    0.017965
-0.12527    -0.11521      1.3458    0.086824    0.098193    -0.60502    -0.01484
-0.10546   -0.031406      1.0814   -0.026209    0.015692    -0.70863   -0.047321
-0.073631     0.38662     0.78386    -0.12755   -0.062262    -0.79503   -0.072981
-0.034978      1.0301     0.56104    -0.18536    -0.11683    -0.85512   -0.087597
0.0010752      1.6927     0.43859    -0.17854    -0.12722     -0.8837   -0.086948
0.029009      2.2198      0.3824    -0.10384   -0.091495    -0.87655   -0.074605
0.045249      2.5635     0.34602    0.021213   -0.015165    -0.83498   -0.053492
0.054344      2.6908     0.28496     0.15991    0.086824    -0.76027   -0.032055
0.06019      2.4836     0.14886     0.25735     0.18622    -0.66446   -0.014191
0.063438      1.8138    -0.10741     0.26157      0.2515    -0.55792   0.0020496
0.065062     0.69584    -0.50433     0.15211     0.26417    -0.44943    0.019589
0.054993    -0.65081     -1.0383   -0.039201     0.23136    -0.34225    0.033881
0.029333     -1.8477     -1.6636     -0.2526     0.17485    -0.23733    0.038428
-0.0050961     -2.6211      -2.294    -0.44391     0.11606    -0.13275    0.030633
-0.03303     -2.8397     -2.8225    -0.60079    0.073507   -0.030106    0.014392
-0.042774     -2.5198     -3.1587    -0.71642    0.056942    0.064737  -0.0041217
-0.039526     -1.7659      -3.272    -0.77489    0.062139     0.14237   -0.020037
-0.038551    -0.73884     -3.1895    -0.77716    0.074157     0.18816   -0.033354
-0.052843     0.33758     -2.9553    -0.74696    0.077405     0.19791   -0.042124
-0.075904      1.2441     -2.6094      -0.707     0.06831     0.18492   -0.043099
-0.092145      1.9083     -2.1628    -0.65731    0.060515     0.18037   -0.035303
-0.095068      2.3059       -1.57    -0.58715    0.066686     0.20993   -0.017764
-0.093444       2.405    -0.72227    -0.46957    0.090397     0.28626   0.0059473
-0.10286      2.2163      0.5016    -0.26949     0.12645     0.41618    0.030308
-0.12203      1.8726      2.0279    0.030633     0.16835     0.59417    0.049796
-0.1295       1.577       3.585     0.42008     0.20765      0.8066    0.063113
-0.10026      1.4705      4.8183     0.87643     0.23818      1.0382    0.071558
-0.019063      1.5472      4.9593      1.3607     0.25962      1.2724    0.083901
0.10631      1.6742      4.9596      1.8132     0.27456      1.4949     0.10631
0.2567      1.6742      4.9482      2.1848     0.28788      1.6969     0.13814
0.40579      1.4094      4.1956      2.4664     0.30899      1.8671     0.17485
0.52369     0.79361      3.5028      2.6889      0.3457      1.9918     0.21415
0.57988    -0.20745       3.002      2.8659     0.39539      2.0626      0.2463
0.56169     -1.4943      2.6135      2.9149     0.44411      2.0763     0.26612
0.48049     -2.8377      2.1364      2.6616      0.4714      2.0305     0.26677
0.35219     -3.9694      1.4117      1.9519     0.45808      1.9187     0.24533
0.18816     -4.6781     0.44281     0.77769     0.39604      1.7372     0.20798
0.0085458     -4.8853    -0.57416    -0.64042     0.29373      1.4832     0.16413
-0.15158     -4.6459     -1.3501     -1.8727     0.17452      1.1714      0.1206
-0.2552      -4.109     -1.7298     -2.6266     0.06084      0.8381    0.083901
-0.28963     -3.4273     -1.7311     -2.7942   -0.027508     0.53181    0.059865
-0.26234     -2.7169     -1.5099      -2.473   -0.084024      0.2934    0.049472
-0.19641     -2.0637     -1.2663     -1.9104    -0.11131     0.14659    0.045899
-0.12495     -1.5258     -1.1494     -1.3683    -0.12495    0.087149    0.041027
-0.075579      -1.114     -1.1861     -1.0062    -0.13664    0.087799    0.027385
-0.054792    -0.80185     -1.3059    -0.83498    -0.15061     0.10469   0.0049729
-0.061288    -0.56376     -1.4115    -0.77034    -0.16815     0.10436   -0.022961
-0.0837    -0.37603      -1.445    -0.72097    -0.19056     0.07708   -0.046347
-0.10806    -0.22467     -1.4021     -0.6388    -0.21037    0.034206   -0.060963
-0.12787    -0.10221     -1.3085    -0.52674    -0.22174  -0.0034721   -0.064861
-0.14379   -0.016464     -1.1932    -0.41305    -0.22272   -0.027508   -0.063886
-0.16003    0.045574     -1.0786    -0.32113    -0.21752   -0.043423   -0.063561
-0.18017     0.11216    -0.98277    -0.25585    -0.21135    -0.06681   -0.068758
-0.2055     0.20148    -0.90286    -0.21135    -0.20583    -0.11748   -0.076879
-0.22889     0.31809    -0.83498    -0.17887    -0.20225    -0.20128   -0.086298
-0.2461     0.46685    -0.77586    -0.14671     -0.2016    -0.30619    -0.09929
-0.25325     0.61464    -0.72357    -0.10838    -0.20778    -0.41208    -0.11683
-0.24773     0.68155     -0.6794   -0.066485    -0.21817    -0.50497    -0.13307
-0.22889     0.60164    -0.64529   -0.025234    -0.22889    -0.58293    -0.14509
-0.19738     0.40806    -0.62288   0.0069217    -0.23993    -0.64821    -0.14931
-0.15548     0.20376    -0.60437    0.024786    -0.24513    -0.69921    -0.15191
-0.10903    0.065712    -0.57903    0.035505    -0.23993    -0.73981    -0.15548
-0.063237  -0.0083442    -0.55045    0.047198    -0.22661    -0.77359    -0.16425
-0.021337   -0.040175    -0.54655    0.059216    -0.21167    -0.80575      -0.174
0.029333     0.09397    -0.57676    0.066037    -0.20225    -0.84018     -0.1753
0.10729     0.63185    -0.63457    0.067011    -0.19543     -0.8772    -0.16425
0.21577      1.6082    -0.71253    0.058241    -0.18699    -0.91683    -0.14022
0.33563      2.7035    -0.81582    0.038103    -0.18082    -0.95483    -0.11001
0.42235      3.3895    -0.97075   0.0059473    -0.17854    -0.99706   -0.085648
0.43729      3.2875     -1.1903   -0.038227    -0.19219     -1.0494   -0.084674
0.38922      2.4654     -1.4394   -0.083375    -0.22564     -1.1101    -0.11001
0.32328      1.4267     -1.6431    -0.11001    -0.27469     -1.1627    -0.14444
0.28723     0.80238     -1.6954    -0.10709    -0.32113     -1.1854    -0.16945
0.30022     0.91606     -1.4943   -0.069733    -0.34484     -1.1627      -0.174
0.34342      1.6047    -0.98147   0.0072465    -0.32925     -1.0945    -0.15776
0.37818      2.4716    -0.15451     0.12905    -0.26851     -1.0039    -0.12365
0.35901      3.1238     0.88163     0.28723      -0.174     -0.9295     -0.0837
0.26287      3.2267      1.8882     0.43664   -0.069408    -0.89929    -0.04992
0.095919      2.6018      2.5703     0.51492    0.019589    -0.91781   -0.032705
-0.097341      1.3575      2.6915     0.46717    0.072208    -0.96328   -0.035628
-0.26527    -0.15808      2.1926     0.28756    0.084876     -1.0019   -0.059014
-0.377     -1.4804      1.2496    0.035505     0.06896     -1.0052   -0.093769
-0.43547     -2.2901     0.19076    -0.19608    0.042326     -0.9649    -0.12722
-0.45983     -2.4535    -0.64334     -0.3377    0.018615    -0.89572    -0.14964
-0.46762     -2.0153     -1.0727    -0.35459   0.0052977    -0.81939    -0.16003
-0.46145     -1.2144     -1.1319     -0.2552  -0.0011985     -0.7515    -0.16263
-0.44229     -0.4202     -1.0117   -0.089221  -0.0050961    -0.69759    -0.16198
-0.41533    0.063763    -0.94411    0.064088   -0.027183    -0.65569    -0.16425
-0.38057     0.18102     -1.0617     0.14496    -0.10026    -0.61573    -0.16782
-0.33705     0.11378     -1.3514     0.14237    -0.23603    -0.57253    -0.16782
-0.28118    0.095594     -1.6934    0.081952    -0.40656    -0.52057    -0.16165
-0.21297     0.26742     -1.9101    0.016991      -0.555    -0.45203    -0.14379
-0.1243     0.63315     -1.7724    0.010819    -0.62678    -0.35946    -0.10579
-0.007045      1.1233     -1.0649     0.10924    -0.60079    -0.24773    -0.04862
0.1323      1.6602     0.23461     0.31484    -0.48451    -0.12495    0.020564
0.27586       2.123       1.771     0.57696    -0.31171  0.00075039    0.086824
0.40481      2.3498      3.0354     0.78873    -0.13404     0.10924     0.14302
0.49901      2.2062      3.6483     0.82284   0.0026992     0.18459     0.17972
0.54026      1.6742      3.4963     0.61139    0.072533     0.22129     0.19174
0.51622     0.87188      2.7603     0.22065    0.075456     0.22519     0.18167
0.42657   0.0052977      1.8012    -0.19316    0.032257      0.2083     0.15698
0.28821    -0.71253     0.96023    -0.49945   -0.024585     0.18881     0.12353
0.1323     -1.1705     0.43827    -0.63295   -0.076554     0.17777      0.0865
-0.012242     -1.3677     0.26125    -0.57871    -0.11586     0.18297    0.050121
-0.12073     -1.3586     0.32816    -0.35816    -0.14054     0.20505     0.01764
-0.18439      -1.228     0.50323   -0.019063    -0.14411     0.24241  -0.0073698
-0.2081     -1.0643     0.66661     0.36031    -0.12073     0.28073   -0.022636
-0.20908    -0.95678     0.73319     0.67635    -0.07428     0.30282   -0.022961
-0.20225    -0.95256     0.66401     0.82544   -0.016464     0.30477  -0.0067202
-0.19219     -1.0243     0.47464     0.74196    0.037129     0.29373    0.019264
-0.17205     -1.0913     0.23851     0.45516    0.076431     0.28008    0.042975
-0.13404     -1.0757    0.046873    0.083901    0.096893     0.26644    0.055643
-0.081101    -0.94411   -0.042449    -0.22629     0.10274     0.25378     0.05207
-0.026858    -0.72454   -0.018738    -0.38252     0.10014     0.24403    0.039727
0.014068    -0.46762    0.087799    -0.37473    0.099817     0.23656    0.028359
0.028034    -0.21135      0.2109    -0.24708     0.10177     0.22844    0.022512
0.014392    0.025436     0.28398   -0.070707    0.099492      0.2174    0.019914
-0.019063     0.23948     0.26644    0.080978    0.088124     0.20505     0.01764
-0.062912     0.42527     0.15471     0.16088     0.06896     0.19369    0.012768
-0.10351     0.57793   -0.028157     0.14756    0.050771     0.18524   0.0033489
-0.12917      0.7111    -0.24675    0.049147    0.049147     0.17972  -0.0073698
-0.13729     0.82998    -0.45366   -0.096367    0.071558     0.17712   -0.017764
-0.12625     0.90696    -0.61963    -0.24091     0.11508      0.1768   -0.023285
-0.096042       0.931    -0.73072    -0.34907      0.1677     0.18134   -0.021661
-0.051868     0.90469    -0.76385    -0.38934     0.21935     0.19044   -0.011592
-0.0021729     0.80692    -0.70733    -0.33413     0.26807     0.20181   0.0010752
0.036154     0.61431     -0.5891    -0.18407     0.31192      0.2109    0.009845
0.052395     0.38402    -0.45268    0.024461     0.33887      0.2148    0.012119
0.048172     0.29762    -0.30294     0.24728     0.33498     0.21252    0.011144
0.03583     0.52337    -0.10156     0.46587      0.2986     0.20635    0.011794
0.032582      1.0431     0.14984      0.6731     0.23526     0.19466    0.020239
0.049147      1.6271     0.37103     0.84298     0.14204     0.18232    0.034206
0.070259      1.9467     0.47952     0.94951    0.011144     0.16965    0.053369
0.064088      1.7265     0.47432     0.98362    -0.13762     0.15179    0.070259
0.016341     0.88423     0.45516     0.97225     -0.2578     0.12937    0.083251
-0.047321    -0.42767     0.53246     0.94756    -0.30197     0.11671    0.097543
-0.073955      -1.849      0.7137     0.91021    -0.25098     0.13132     0.11378
-0.014191     -3.0508      0.8904     0.83486    -0.12073     0.18427     0.12775
0.13879     -3.8125     0.93879     0.69779    0.044275     0.27132     0.14367
0.3379     -4.0467      0.7962     0.49641     0.18459     0.37103      0.1638
0.50485     -3.8242     0.48666     0.26027     0.26417     0.45613     0.17647
0.56786     -3.3344    0.095269    0.054993     0.27716      0.5042     0.16933
0.49738     -2.7942    -0.27956   -0.062262     0.24858     0.50453     0.13684
0.32491     -2.3557    -0.56734   -0.084024     0.20798     0.45548    0.082927
0.12743     -2.0407    -0.74728   -0.071357      0.1729     0.36226    0.024786
-0.017439      -1.785     -0.8483     -0.1191     0.15179     0.23754   -0.020037
-0.079477     -1.5414    -0.93534    -0.30229     0.13814     0.10242   -0.045047
-0.084674     -1.3319     -1.0555    -0.61314     0.12288   -0.029782   -0.057065
-0.074605     -1.2092     -1.1929    -0.95223    0.094295    -0.16198   -0.070382
-0.072006     -1.1708     -1.2839     -1.1848    0.053369    -0.29353   -0.089221
-0.079802     -1.1358     -1.2887     -1.2111   0.0095202    -0.41858    -0.10644
-0.094093    -0.99154     -1.2157     -1.0091   -0.022636    -0.52381    -0.11586
-0.11651    -0.66446     -1.0968    -0.64367     -0.0405    -0.59527    -0.11521
-0.14022    -0.16133    -0.96133    -0.23246   -0.052843    -0.61801    -0.10774
-0.1597     0.37493    -0.81679     0.10826   -0.070058     -0.5839   -0.091495
-0.17659     0.68057     -0.6349     0.30347    -0.10059    -0.49556   -0.070382
-0.19543      0.5971    -0.39584     0.32621    -0.13989    -0.36498   -0.053817
-0.22077      0.2109    -0.13437      0.1781    -0.17367    -0.21037   -0.046022
-0.2526    -0.22532    0.067011    -0.10319    -0.17854   -0.038876   -0.044723
-0.27274    -0.45236     0.15991    -0.43579    -0.12495     0.15211   -0.040825
-0.25552    -0.23896     0.16803    -0.71253    0.010495     0.36713    -0.02361
-0.17822     0.65491     0.17387    -0.83368     0.22552     0.60099    0.011469
-0.036278      2.3527     0.26482    -0.74371     0.49218     0.84135    0.067336
0.15211      4.7251     0.48601    -0.48126     0.76502      1.0661     0.14172
0.34862      4.9593     0.79393    -0.17107      1.0041      1.2555     0.21902
0.50225      4.9596      1.0677     0.03583      1.1639      1.3861     0.28236
0.58021      4.9596      1.2269    0.054019      1.1853      1.4429     0.31354
0.57209      4.9593      1.2685    -0.10319     0.99499      1.4205     0.30282
0.48926      4.9593      1.1801    -0.35199     0.57111      1.3282     0.25183
0.34245      3.5528     0.87676    -0.59787  -0.0011985      1.1697      0.1755
0.14139     -1.5012     0.26482    -0.77879    -0.54558     0.94659    0.091047
-0.092469     -4.9704    -0.62483    -0.86226    -0.91423      0.6692    0.010819
-0.31756     -4.9701     -1.5807    -0.84148     -1.0419     0.36973   -0.057715
-0.48061     -4.9701     -2.3625    -0.70765    -0.95386    0.087474    -0.10709
-0.55142     -4.9701     -2.8215    -0.47639    -0.74306    -0.14119     -0.1334
-0.53583     -4.9698     -2.9329    -0.19771    -0.52381    -0.29872    -0.13567
-0.46665     -4.9701     -2.7569    0.067661    -0.37668    -0.38317    -0.11683
-0.3731     -4.7716      -2.372     0.29697    -0.31366    -0.39941   -0.084674
-0.27599     -2.9157     -1.8016     0.52596     -0.2984    -0.34517   -0.048945
-0.18049     -1.4638     -1.0221     0.80952    -0.27469     -0.2159   -0.014516
-0.087922    -0.39616   -0.037577      1.1561     -0.2029   -0.011267     0.01829
0.0026992     0.35999      1.0697      1.4913   -0.058689     0.25832    0.054993
0.088448     0.85629      2.1409      1.6651     0.16835     0.56884    0.096569
0.15568      1.1353      2.9675      1.5036     0.46685     0.89624     0.13555
0.18881      1.2214      3.3521     0.95049     0.78906      1.2181     0.16868
0.18297      1.1337      3.2371     0.15016      1.0668      1.5183     0.19466
0.14237     0.91216       2.733    -0.61151       1.234      1.7752     0.21155
0.075456     0.61788      2.0656     -1.0903      1.2396      1.9623     0.22194
-0.0054209     0.31809      1.4692      -1.204      1.0548        2.05     0.22454
-0.084024    0.078055      1.0986     -1.0156     0.67408      2.0165     0.22129
-0.14736   -0.020687     0.97095    -0.68005     0.13684      1.8551      0.2187
-0.19641    0.086175     0.99499    -0.35167    -0.44196        1.58     0.21967
-0.23571     0.39279      1.0642   -0.097991    -0.91001      1.2201     0.22422
-0.26494      0.8066      1.0999    0.090072     -1.1536     0.81244     0.22649
-0.27209      1.1866       1.047     0.22812     -1.1413     0.40676     0.22097
-0.24221      1.4013      0.8813      0.3051    -0.92593     0.05142     0.20538
-0.1688      1.3812     0.62568     0.30672    -0.61184    -0.22889     0.18297
-0.060963      1.1402     0.33595      0.2476    -0.30522    -0.43644     0.16088
0.057267     0.75333    0.079354     0.16445   -0.080127    -0.58845     0.14139
0.15828     0.26677    -0.10156    0.096893    0.037778    -0.70181     0.12223
0.22259    -0.27046    -0.19283    0.061814    0.065062    -0.78593    0.098193
0.25183    -0.68492     -0.2107    0.047198    0.036154    -0.84115    0.062139
0.26352    -0.71545    -0.18342    0.016991   -0.012892    -0.86714    0.013093
0.26904    -0.19446    -0.13729   -0.059664   -0.061613    -0.85707   -0.044398
0.26969     0.78159    -0.10936    -0.18082   -0.098641    -0.80802   -0.095393
0.2619      1.8554    -0.15841    -0.31496    -0.11358    -0.73104     -0.1295
0.25118      2.6366    -0.34874    -0.43612   -0.094418    -0.65211    -0.14769
0.24338      2.8837    -0.70376    -0.53031   -0.029132    -0.59949    -0.15223
0.24046      2.5719     -1.1796    -0.60144    0.078055    -0.58942    -0.14574
0.23721      1.8801     -1.6801    -0.65763     0.21642     -0.6258    -0.13534
0.22227      1.0859     -2.0985    -0.68719     0.37883    -0.69434    -0.12495
0.18004     0.44736     -2.3726    -0.66608      0.5539    -0.77521    -0.11845
0.11248     0.13035     -2.4938    -0.56864     0.70331    -0.85219      -0.123
0.025436     0.14919     -2.4792    -0.39746     0.78613    -0.92203    -0.14022
-0.070707     0.37363     -2.3453     -0.2133     0.76795    -0.98894     -0.1675
-0.1675     0.58768     -2.0468   -0.084999     0.59125     -1.0529    -0.20063
-0.25877     0.63575     -1.4898   -0.051868     0.19888     -1.1192    -0.24578
-0.33283     0.49316    -0.66283    -0.10059    -0.38317     -1.1854    -0.29742
-0.3744     0.24501     0.26482    -0.17952     -1.0126     -1.2384    -0.34972
-0.37603    0.055318     0.99336    -0.24253      -1.506      -1.266    -0.38739
-0.3338     0.14334      1.3295    -0.26949     -1.7321     -1.2624    -0.40006
-0.25     0.72312       1.262    -0.25682     -1.6714     -1.2273    -0.38415
-0.1217      1.8739     0.96088    -0.20128     -1.3949     -1.1695    -0.34387
0.054019      3.4658     0.69032   -0.086298     -1.0149     -1.0964    -0.28963
0.27294      4.9593     0.66498     0.12743    -0.63522     -1.0208    -0.23474
0.51525      4.9599     0.94074     0.45938    -0.32925    -0.95678    -0.18569
0.74878      4.9593      1.4026     0.87481    -0.11586    -0.90871    -0.14769
0.92353      4.9596      1.8502      1.2831    0.023487    -0.86778    -0.11553
0.97842      4.9593      2.0964      1.5728     0.11573    -0.82523   -0.092794
0.87221      2.7597      2.0321      1.6813     0.18004    -0.77976   -0.081101
0.61594   -0.021337       1.704      1.6056     0.22454    -0.73591     -0.0824
0.26774      -2.281      1.2785      1.3948      0.2515    -0.70051   -0.093444
-0.086948     -3.6368     0.92418      1.1223     0.25962    -0.67485    -0.11098
-0.36791     -4.1873     0.72605     0.84882     0.24371    -0.65406    -0.12755
-0.52154     -4.1737     0.65816     0.60099     0.20668     -0.6284    -0.13275
-0.5407     -3.8719     0.64777     0.37201     0.15958    -0.59722    -0.12073
-0.46925     -3.5361      0.6377     0.14756     0.10501    -0.56214   -0.098965
-0.37245     -3.3175     0.59742   -0.065186    0.044924    -0.52544    -0.07493
-0.30912     -3.2165     0.50713     -0.2435   -0.020687    -0.49328   -0.056741
-0.30392     -3.1317       0.347    -0.37018   -0.089221    -0.46957   -0.050244
-0.339     -3.0044    0.097218    -0.44781    -0.15646    -0.45073   -0.054467
-0.3835     -2.8725    -0.23279    -0.49003    -0.21395    -0.43189   -0.065186
-0.41468     -2.7858    -0.60014    -0.49945     -0.2513    -0.41046   -0.078178
-0.41955     -2.7413    -0.94964    -0.47607    -0.25812    -0.38447   -0.092145
-0.39844     -2.6562      -1.214    -0.42767    -0.24318    -0.35296    -0.10156
-0.34809     -2.3772     -1.3193    -0.37213    -0.21979    -0.31301   -0.096692
-0.26397     -1.7539     -1.2072    -0.31236    -0.19348    -0.26689   -0.072006
-0.14899    -0.72325    -0.86616    -0.21395    -0.14769    -0.21362   -0.018738
-0.0093186     0.59937    -0.33185   -0.024909   -0.061288    -0.14346    0.056292
0.13652        1.82     0.28398     0.27814    0.076431   -0.047971     0.13912
0.2606      2.4846     0.77152     0.62828     0.24598    0.063438     0.21025
0.33011      2.2913     0.90339     0.87708     0.39507     0.16543     0.25053
0.32231      1.2548     0.54935      0.8813     0.46815     0.22779     0.24793
0.22909    -0.27891    -0.21395     0.58865     0.43145     0.23331     0.20603
0.075131     -1.7155     -1.1195    0.072533      0.2999     0.18362     0.14009
-0.090521     -2.5779     -1.8783     -0.5092     0.11476    0.099167    0.069285
-0.2172     -2.6607     -2.3223    -0.99576   -0.075255   0.0059473     0.01017
-0.27404     -2.0718     -2.4083      -1.292    -0.23214   -0.072981   -0.025234
-0.26624     -1.1942     -2.1972     -1.3868    -0.33088    -0.12073   -0.034329
-0.21785    -0.45008     -1.8126       -1.33    -0.36401    -0.13242   -0.021661
-0.1623   -0.093769     -1.3933     -1.1832    -0.34322    -0.11488   0.0043233
-0.11845    -0.13632     -1.0445    -0.99446    -0.29028   -0.079477    0.027709
-0.089871    -0.40981    -0.80834    -0.77684    -0.22272   -0.039526      0.0433
-0.073631    -0.68232    -0.64757    -0.51634    -0.15516  -0.0015233    0.049472
-0.060963    -0.77067    -0.46437    -0.18342   -0.088572    0.032582    0.055318
-0.040825    -0.59917    -0.15191     0.24078   -0.017439    0.063113    0.066686
-0.011592    -0.20908      0.2999      0.7228    0.073507    0.097218    0.083576
0.022188     0.23754     0.76145      1.1515     0.19304     0.13652     0.10599
0.051745     0.53181       1.059      1.3854     0.32328     0.18004     0.12743
0.070909     0.52077      1.0863      1.3594     0.43664        0.22     0.14269
0.079679     0.17062     0.84428      1.1096     0.51687      0.2463     0.14984
0.073832    -0.41013      0.4243     0.72962     0.56689     0.25767     0.14886
0.055318     -1.0169   -0.029457     0.32134     0.61204     0.25962     0.14204
0.027709     -1.4443    -0.38739   -0.042774     0.68317     0.26384     0.13002
0.0020496      -1.547    -0.58683    -0.31366     0.78191     0.27781     0.12158
-0.011592     -1.2861     -0.6271    -0.44683     0.83648     0.29762     0.11931
-0.015815    -0.72942    -0.53746     -0.4189     0.72767      0.3051     0.11508
-0.01549   -0.023935    -0.34744    -0.25098     0.39377     0.28918     0.10177
-0.01549     0.65654    -0.09182   -0.015815   -0.095393     0.25475    0.079679
-0.018413      1.1899     0.16998     0.19271    -0.57253     0.22227     0.05142
-0.025234      1.5407     0.36843     0.30445    -0.89344     0.21025    0.022188
-0.037577       1.742      0.4597     0.31159    -0.98894     0.22487  -0.0050961
-0.059339       1.872     0.44639     0.25378    -0.87753     0.26677   -0.027833
-0.10189      1.9892     0.35609     0.17517    -0.64789     0.32816    -0.04862
-0.16912      2.0922     0.22649    0.093645    -0.40623     0.40416   -0.070707
-0.24935      2.1084    0.083901   0.0056225    -0.22889     0.49024   -0.087597
-0.33153      1.9044   -0.077203    -0.10351    -0.13664     0.58605   -0.093769
-0.40201      1.3977    -0.26851    -0.23376    -0.11261     0.69064   -0.089221
-0.43677     0.69551    -0.45983    -0.35751    -0.11521     0.80367   -0.077853
-0.41208    0.071883    -0.58163    -0.43059    -0.10189     0.91931   -0.061288
-0.31042    -0.18309    -0.57124     -0.4189   -0.050894      1.0281   -0.029457
-0.13599    0.067661    -0.41858    -0.32536    0.032582      1.1116    0.020564
0.0865      0.7569    -0.16653    -0.17854      0.1323      1.1525    0.082277
0.32946      1.7122     0.14042   -0.018088     0.23234       1.146     0.14854
0.57274      2.7028     0.47107      0.1219     0.32653      1.1054     0.21512
0.78224        3.33     0.78126     0.21058     0.40936      1.0525     0.27619
0.91703      3.0845     0.97615     0.23559     0.47302      1.0041     0.31744
0.93685      1.7073      0.9362     0.19986     0.50355     0.96738     0.32198
0.83421    -0.50075     0.57923     0.11541     0.49316     0.94009     0.28236
0.63315     -2.6747   -0.073631 -0.00087364     0.44054     0.90956      0.2096
0.38305     -4.0821    -0.85414    -0.12495     0.34959     0.85597      0.1219
0.13944     -4.3315     -1.5028    -0.22174     0.24111     0.76535    0.037129
-0.039851     -3.3568      -1.786    -0.23831     0.14919     0.64289   -0.029782
-0.12235     -1.4937     -1.6187    -0.12625     0.10014      0.5146   -0.068109
-0.12138     0.57209     -1.1468    0.096569    0.094945     0.40254   -0.078178
-0.080451      1.9899    -0.65601     0.33173     0.11541     0.31581   -0.069083
-0.041799      2.3881     -0.3835     0.46977     0.13749     0.25637   -0.051868
-0.022311      1.8574    -0.39162     0.45873     0.14561     0.22162   -0.038227
-0.017764      0.8459    -0.56441     0.32881     0.13392     0.20635   -0.034004
-0.011267    -0.10416    -0.70603     0.16023     0.10761     0.19986   -0.039851
0.0088706    -0.62028    -0.66868    0.037129    0.080003     0.18979   -0.050569
0.037454     -0.6703    -0.45333  0.00075039    0.062789     0.16056   -0.067459
0.053369    -0.47737    -0.17724    0.039078    0.057267     0.10501   -0.090845
0.029983    -0.35491    0.079354     0.10924    0.059216    0.029333    -0.12008
-0.046996    -0.52576     0.37006     0.18881     0.06084   -0.050894    -0.14801
-0.17205     -1.0078     0.82771     0.29015     0.05207    -0.12657    -0.16685
-0.32601     -1.6369      1.4949     0.41293    0.028359    -0.19348    -0.17302
-0.47152     -2.1725      2.2387     0.51265   -0.011592    -0.25552    -0.16945
-0.56506     -2.4061      2.8107     0.52369    -0.06681    -0.31269    -0.16068
-0.58163     -2.2365      2.9877     0.40546     -0.1269    -0.36011    -0.14866
-0.52251     -1.6873      2.7145     0.18524    -0.17237    -0.39649    -0.13145
-0.40851     -0.8785      2.1487   -0.050244    -0.18796    -0.42865    -0.11228
-0.27079    0.030633      1.5494    -0.20908    -0.17302    -0.46632   -0.091495
-0.13534     0.83291      1.1373    -0.25942    -0.13632    -0.50952   -0.070707
-0.015165      1.3464     0.96348    -0.23798   -0.089871     -0.5472   -0.046996
0.082927      1.5023     0.90891    -0.19868   -0.046996    -0.56571   -0.022311
0.15049      1.3578     0.82739      -0.161   -0.019388    -0.55824  -0.0034721
0.18394       1.032      0.6809   -0.094093   -0.010618    -0.51732   0.0078962
0.18751     0.63413     0.54026     0.03518   -0.017764    -0.44229    0.010495
0.17387     0.25572     0.48406     0.22357   -0.029132    -0.34355   0.0059473
0.15309   0.0033489     0.52434     0.40319   -0.039201    -0.23831  -0.0047713
0.1284   -0.010293     0.55844     0.47822   -0.051544    -0.14866   -0.022311
0.10014     0.26774     0.42138     0.39507   -0.075904   -0.097991   -0.044073
0.067986     0.75463    0.011794     0.17452    -0.11683   -0.097341   -0.064536
0.033881      1.2431    -0.62483    -0.11261    -0.16035    -0.13372   -0.075579
0.0056225      1.5131     -1.3222    -0.38902    -0.18764    -0.17952   -0.068434
-0.007045      1.4426     -1.9065     -0.5839    -0.18147    -0.20745   -0.039526
0.0049729      1.0158     -2.2661    -0.64854    -0.13729    -0.20388   0.0072465
0.037454     0.33335     -2.3843    -0.57286   -0.067784    -0.18114     0.06831
0.078055    -0.34614     -2.3314    -0.40753  0.00042559     -0.1662     0.13035
0.10924    -0.72097     -2.1761    -0.24383    0.043625    -0.18666     0.17874
0.12353    -0.63262      -1.902    -0.14639    0.050771    -0.25942     0.20148
0.13165   -0.084674     -1.3852    -0.12365     0.01764    -0.38674     0.19466
0.14204     0.76015    -0.49458    -0.13859   -0.045047    -0.54428     0.16575
0.14821      1.6095     0.72799    -0.15093    -0.12268    -0.69661     0.12515
0.1362      2.2117       1.972    -0.15126    -0.19089    -0.81647    0.086175
0.11281      2.4982      2.8987    -0.15223    -0.23084    -0.89182    0.058566
0.098517      2.5667      3.2631     -0.1636    -0.23961    -0.92365    0.042975
0.10924      2.5599      3.0065    -0.18114    -0.22629    -0.91943    0.043625
0.14204      2.5706       2.291    -0.19381     -0.2042    -0.87753    0.058566
0.17322      2.5684      1.4341    -0.20096    -0.17952    -0.79113     0.07773
0.16023      2.3842     0.75885    -0.21849    -0.15093    -0.66121    0.088773
0.073507      1.8574     0.46523     -0.2539    -0.11488    -0.49166      0.0852
-0.073631     0.98524     0.53766    -0.29515   -0.063237    -0.28248    0.066037
-0.23051   -0.052518     0.79133    -0.32016     0.01017   -0.034329    0.041027
-0.33445     -0.9688       1.008    -0.31529     0.10371     0.23754    0.022837
-0.34679     -1.5489      1.0544    -0.29125     0.20863     0.49998    0.020888
-0.26397     -1.7185     0.90274    -0.26039     0.30834     0.71143    0.039727
-0.11553     -1.5544     0.61334    -0.22142     0.37525     0.83486    0.071883
0.049472     -1.2709     0.26904    -0.15646     0.38013     0.86084     0.10079
0.18199     -1.1416    -0.08305   -0.036278     0.29308     0.78711     0.11086
0.25702     -1.3748    -0.42345     0.15179     0.11671     0.62113    0.096893
0.27684     -1.9903    -0.73331     0.37493   -0.093119      0.3863     0.06019
0.26384     -2.7942    -0.98991     0.56754    -0.25975      0.1349    0.015042
0.23461     -3.4984     -1.1767     0.67895    -0.32536   -0.080776   -0.020037
0.19661     -3.8697     -1.2881     0.69844    -0.29612    -0.22369   -0.033679
0.15049     -3.8239     -1.3472     0.63413    -0.22824    -0.28833   -0.030756
0.10469     -3.4357     -1.4122      0.5029    -0.18309    -0.28346    -0.02426
0.069934     -2.8871     -1.5142     0.33887    -0.18504    -0.22109   -0.019712
0.054344     -2.3551     -1.6061     0.19791     -0.2081    -0.10838   -0.011917
0.06084     -1.9137     -1.5801     0.13587    -0.20648    0.051745   0.0069217
0.084876       -1.52     -1.3615     0.15049    -0.13989     0.25832    0.040052
0.1219     -1.0951    -0.98666     0.16445  -0.0034721     0.50713     0.08585
0.16185    -0.61768    -0.56831     0.12288     0.17095     0.79458      0.1362
0.19693    -0.12917    -0.23863    0.054019     0.32491      1.1002     0.17939
0.21642     0.32036   -0.040175    0.016341     0.41293      1.3731     0.20603
0.21837     0.71598     0.10177    0.028684       0.423      1.5517     0.20733
0.20278       1.057     0.25832    0.068635     0.37071      1.5972     0.17972
0.1781      1.3247     0.43924     0.11346     0.28463      1.5036     0.12807
0.15211      1.4721     0.62958     0.16315     0.19563      1.3029     0.06831
0.1271      1.4468     0.79328     0.22487     0.12418      1.0479     0.01764
0.098842      1.2194     0.87318     0.28788    0.073182     0.79101   -0.018738
0.061165     0.82576      0.8066     0.31224    0.036479     0.56527   -0.048296
0.0091954       0.347     0.57144     0.25702 -0.00022403     0.37103   -0.076554
-0.053492    -0.12203     0.22032     0.11248   -0.044723     0.19531    -0.10319
-0.11423    -0.49328    -0.15191     -0.0837    -0.09182    0.021863    -0.12268
-0.15905    -0.71772    -0.45171    -0.26462    -0.12527    -0.15483    -0.13112
-0.17887    -0.78626    -0.62873    -0.36336    -0.13404     -0.3299    -0.13404
-0.17789    -0.74403    -0.68329    -0.35426      -0.123    -0.48971    -0.13567
-0.17594     -0.7122    -0.65893    -0.27144    -0.10806    -0.62223    -0.13794
-0.18536    -0.78366    -0.61638    -0.18504    -0.10871    -0.71935    -0.14379
-0.20648    -0.94054    -0.60534    -0.16198    -0.13112    -0.78139    -0.15321
-0.23571     -1.0802    -0.64204    -0.23181     -0.1727    -0.81679    -0.16782
-0.26332     -1.0948     -0.7109    -0.37375    -0.22597    -0.83141    -0.18666
-0.28346    -0.95191    -0.77586    -0.52739    -0.27469    -0.83141    -0.20258
-0.29645    -0.69759    -0.80315     -0.6297    -0.30489    -0.81809    -0.20972
-0.30327    -0.36401    -0.78463    -0.65016    -0.30717     -0.7947    -0.19966
-0.29807    0.086824    -0.73169    -0.60891    -0.28346    -0.75995    -0.17562
-0.27858     0.67862     -0.6729    -0.55175    -0.24578    -0.71155    -0.14509
-0.24513      1.3526    -0.63977    -0.51667    -0.20713    -0.64237    -0.11293
-0.20323      2.0038    -0.63587    -0.50952     -0.1714    -0.54428   -0.082725
-0.15288      2.5606     -0.6271    -0.49491    -0.13502      -0.415   -0.049595
-0.09182      2.9805    -0.59202    -0.43124   -0.094093    -0.26527   -0.012567
-0.021012      3.1871     -0.5524    -0.30814   -0.050569     -0.1243    0.019589
0.047523      3.1059    -0.55792    -0.15191   -0.007045   -0.031406    0.034206
0.10242      2.7629    -0.63197  -0.0031473    0.034206  -0.0076946    0.029009
0.13879      2.3579    -0.74306     0.10924     0.06896   -0.049595    0.012119
0.15861      2.1425    -0.82166     0.16835    0.084551    -0.14216   -0.007045
0.15861      2.2042     -0.8077     0.16575    0.070259    -0.26104   -0.021986
0.13684      2.4037    -0.69824    0.099817    0.025111     -0.3822   -0.034978
0.097218      2.5037    -0.55467    -0.01484   -0.039201    -0.48614   -0.051868
0.059541      2.3309    -0.44391    -0.15191    -0.10709    -0.56409   -0.076879
0.046873      1.8853    -0.33153    -0.27923    -0.16847    -0.61151    -0.10319
0.071234      1.3334    -0.10514    -0.36336    -0.21297    -0.63685    -0.11813
0.12613     0.89689      0.2908    -0.37245    -0.23149    -0.65374    -0.11683
0.19531     0.69974     0.78808    -0.28995    -0.22629     -0.6703    -0.10091
0.25735     0.68642       1.262    -0.13469    -0.20615    -0.68687   -0.077203
0.29665     0.68739      1.5878    0.049796    -0.18244    -0.69629   -0.051544
0.29892     0.55617      1.6823     0.22162    -0.16133    -0.68654    -0.03173
0.26027     0.23818      1.5679     0.36453    -0.14152    -0.64854   -0.018413
0.19271    -0.24708      1.3542      0.5094    -0.11001    -0.58423  -0.0063954
0.11541     -0.8457      1.1869     0.70883   -0.050569     -0.4975    0.012443
0.047198     -1.4878      1.1239     0.98946    0.031932    -0.39357    0.037129
-0.0080194     -2.1085      1.0902         1.3     0.11931    -0.28053     0.06084
-0.068434     -2.6549     0.95406       1.514     0.18946    -0.17237    0.078055
-0.15711     -3.0839     0.64452      1.5098     0.22747     -0.0837    0.084551
-0.28281     -3.3636      0.2096      1.2334     0.23331   -0.018738    0.081627
-0.43027     -3.4903    -0.21752     0.74229     0.21707    0.021538    0.073832
-0.56474     -3.4416    -0.49685     0.18687     0.19434     0.04395     0.06961
-0.6349     -3.1232    -0.55045    -0.24903     0.17745    0.058891    0.074806
-0.61346     -2.4502    -0.40688    -0.45041      0.1651    0.066362    0.087474
-0.51439     -1.4684    -0.18861     -0.4215     0.15049    0.055318    0.097868
-0.38122    -0.35654   -0.022311    -0.26397     0.12872    0.025111    0.097218
-0.2565     0.64874    0.045574    -0.10416     0.10112   -0.015165    0.084551
-0.15711      1.3958    0.058241    -0.02426    0.076106   -0.053168    0.064413
-0.077528      1.9174    0.091372   -0.041799    0.068635   -0.080776    0.037129
-0.010943      2.3264     0.19076    -0.11521    0.090722   -0.093119    0.010819
0.04395      2.6548     0.33368    -0.18342     0.14042   -0.088247  -0.0037969
0.084226      2.8058     0.44996     -0.2068      0.2109   -0.067459  -0.0015233
0.11086      2.6622     0.48309     -0.1753     0.29633   -0.033354    0.010819
0.11866       2.152     0.41391    -0.10189     0.38857   0.0052977    0.022512
0.093321      1.2607     0.26222    -0.01614     0.46912    0.042975    0.025436
0.027709    0.045249    0.067336    0.050771     0.51232    0.071234    0.019914
-0.064536     -1.2988    -0.12722    0.090397     0.48991    0.084876    0.010495
-0.15061     -2.5113    -0.28378     0.11898     0.38402      0.0865      0.0014
-0.19576     -3.4026    -0.38934     0.14886     0.19986    0.088448  -0.0073698
-0.18926     -3.8658     -0.4699     0.16835   -0.036927    0.096893    -0.01614
-0.14639       -3.88    -0.57578     0.15698    -0.28281     0.11248   -0.021661
-0.093119     -3.5059    -0.74631     0.10826    -0.49166      0.1245    -0.02426
-0.056416     -2.8735     -0.9714    0.036479    -0.63587     0.11866   -0.031406
-0.046671     -2.1608     -1.1991   -0.036927    -0.70993    0.090072   -0.053168
-0.064536     -1.5385     -1.3839   -0.094743    -0.72422    0.051745    -0.09117
-0.11326     -1.1026     -1.5155    -0.14541    -0.69564    0.016016    -0.13502
-0.19219    -0.85544     -1.6239    -0.20648    -0.64854  -0.0099683    -0.17107
-0.29353    -0.74078      -1.761     -0.2867    -0.59949   -0.021012    -0.18764
-0.38642    -0.71545     -1.9273    -0.37538     -0.5433   -0.016464    -0.18471
-0.42117    -0.83563     -2.0355    -0.43774    -0.46632 -0.00022403    -0.16588
-0.36336      -1.138     -1.9429    -0.42085    -0.35556    0.026085    -0.13599
-0.20485     -1.4833     -1.5148    -0.28281    -0.21135    0.066686   -0.090196
0.032582     -1.5983    -0.66251   -0.019712   -0.042774     0.12807   -0.024909
0.30737     -1.2449     0.57728     0.31581     0.12872     0.20863    0.050446
0.56202    -0.37798      1.9532     0.62406     0.27391     0.29503     0.11866
0.74488     0.78516      3.1358     0.79913     0.36486     0.36291     0.16153
0.82544       1.921      3.8133     0.77574     0.39182     0.39507     0.16965
0.79718      2.7762       3.825     0.55422     0.36226     0.39312     0.14691
0.67667      3.1299      3.2469     0.20635     0.29243     0.35771     0.10209
0.49868      2.8545       2.352    -0.16003     0.20246     0.30282    0.049472
0.3012      2.0224      1.4637    -0.43482     0.11768     0.24663   0.0017248
0.11248     0.86669     0.83323    -0.56019    0.058891     0.20635   -0.033679
-0.041799    -0.38187     0.53116    -0.55759    0.028684     0.18622   -0.053168
-0.15548     -1.5041     0.43664      -0.504    0.020239     0.18492   -0.056091
-0.22921     -2.3421     0.35122    -0.48094    0.025111     0.20116    -0.04862
-0.26169      -2.802     0.12645    -0.52966    0.042975     0.23071   -0.026533
-0.25195     -2.8796    -0.26494    -0.62418    0.074806     0.26904   0.0046481
-0.212     -2.6539    -0.72974    -0.67745     0.11703     0.30315    0.036479
-0.15841     -2.1966     -1.1185    -0.61184     0.15926     0.32556    0.063438
-0.10903     -1.5155     -1.2878    -0.42182     0.19336     0.33335    0.080653
-0.069408    -0.61216      -1.178    -0.17952      0.2135     0.32816    0.091047
-0.038876     0.36778    -0.85837    0.026735     0.22032     0.31581    0.098193
-0.016464      1.1561    -0.47769     0.15471      0.2096     0.29568     0.10469
0.0014      1.5884    -0.15678     0.23234     0.18264     0.27002     0.10729
0.01017      1.6547    0.057917     0.32621     0.14886     0.24013     0.10404
0.0020496      1.4624     0.18557     0.48764     0.11736     0.21155    0.092021
-0.030431      1.1779     0.27067     0.71403    0.092671     0.19174     0.07708
-0.077853     0.98784     0.34829     0.94009     0.06961     0.18134    0.059216
-0.12073      1.0395     0.43209      1.0651    0.048497     0.17485    0.039727
-0.14119      1.3555      0.5146       1.009     0.02641     0.16738     0.01894
-0.13242      1.8327     0.57501     0.75365  0.00075039     0.15406   0.0046481
-0.098641      2.3247     0.58183     0.37038   -0.028157     0.13197  -0.0011985
-0.050569       2.722      0.5159   -0.025884   -0.059339    0.099492  -0.0028225
-0.0011985      2.9594     0.38467    -0.32666   -0.092145    0.066037  -0.0031473
0.03453      3.0218     0.23656    -0.48938    -0.12982    0.042001 -0.00087364
0.051096      2.9461     0.13879    -0.52641    -0.16977    0.032906    0.009845
0.050771      2.7499     0.15373    -0.48061    -0.20485     0.03583    0.031607
0.04395       2.442       0.296    -0.39129    -0.22207    0.046873    0.058241
0.036479      2.0961     0.51362     -0.2867    -0.21882    0.059216    0.081303
0.036154      1.8343     0.70266    -0.18829    -0.19348    0.069285    0.094295
0.05142      1.7339     0.76567    -0.10351    -0.15158    0.077405    0.094295
0.090072      1.7427     0.66303   -0.035953   -0.092469    0.087474    0.084551
0.15503      1.6423     0.41553    0.012768   -0.025884    0.099492    0.069934
0.23559      1.1265    0.084551    0.048172    0.036479     0.10729    0.053369
0.31257    0.022188    -0.27046    0.065062    0.079679     0.10339    0.037778
0.35804      -1.419    -0.59657     0.05207    0.087474    0.078704    0.026085
0.34732     -2.6101    -0.82718  -0.0024977    0.054344    0.032582    0.014068
0.27132     -3.0966    -0.89182   -0.089221  -0.0099683   -0.029132  -0.0073698
0.14691     -2.7487    -0.77651    -0.18212   -0.084999    -0.10221   -0.043748
0.0095202     -1.7103    -0.54493    -0.24383    -0.14541    -0.17757   -0.089871
-0.094418    -0.23084    -0.29028    -0.24286    -0.17594    -0.24253    -0.13177
-0.13859       1.412   -0.080127    -0.16782     -0.1688    -0.28183    -0.15223
-0.1217      2.9994    0.065062   -0.015815    -0.12722    -0.28248    -0.14801
-0.06551      4.3717      0.1716     0.20928   -0.053817     -0.2461      -0.123
-0.0021729      4.9596     0.26872     0.49998    0.051745    -0.17757   -0.084349
0.038753      4.9596     0.35187     0.83908     0.19401   -0.091495   -0.043099
0.056292      4.8917     0.40189      1.1613     0.37265   0.0065969  -0.0031473
0.065387      3.5938     0.40124      1.3822     0.57209     0.11768    0.031607
0.073832      1.8954     0.35284       1.452     0.76762     0.23916    0.056942
0.064413      0.1677     0.27229      1.3783     0.94594     0.36161    0.069285
0.022512     -1.2196     0.15568      1.1834      1.0824     0.47432    0.064413
-0.048945     -2.1414    -0.03173     0.84622      1.1246     0.56657    0.046223
-0.13047     -2.7263    -0.32178     0.33498     0.98881      0.6312    0.021863
-0.19933     -3.1291    -0.68979    -0.31724     0.62795      0.6692  -0.0024977
-0.24026     -3.4221     -1.0536    -0.97984     0.10274     0.68577   -0.016789
-0.24968     -3.5819      -1.328     -1.5116    -0.44261     0.67992   -0.018088
-0.23538     -3.5046     -1.4706     -1.8253     -0.8863     0.64127   -0.014516
-0.20843     -3.0749     -1.4956     -1.9023     -1.1777     0.56559   -0.014516
-0.16945     -2.2385     -1.4453     -1.7727      -1.305     0.46198   -0.018413
-0.10774     -1.0536     -1.3375     -1.4904     -1.2689     0.35057   -0.018738
-0.01484     0.29503     -1.1478     -1.1085     -1.0857      0.2489  -0.0099683
0.099817      1.4643    -0.85447    -0.68427    -0.79828     0.16413   0.0078962
0.21545      2.1455    -0.46632    -0.28508    -0.46827    0.096893    0.032257
0.32296      2.1779   -0.036927    0.019264    -0.17367    0.041676    0.056617
0.42268      1.5923     0.35122     0.17874    0.013743   -0.013541    0.070909
0.49511      0.5448     0.64062     0.19693    0.054668   -0.077203    0.069934
0.5055    -0.70538     0.81504     0.13327   -0.036602    -0.15321    0.049796
0.43469     -1.8448     0.90112    0.063763    -0.20031    -0.23863    0.012443
0.3012     -2.6896     0.94691     0.05142    -0.35524    -0.32471   -0.036278
0.15633     -3.1772     0.95991     0.10534    -0.43774    -0.39422   -0.085648
0.049796     -3.3464     0.89819     0.18264      -0.415    -0.43352    -0.11521
0.0036737     -3.2727     0.71435     0.22129     -0.2932    -0.42897    -0.10709
0.020888     -2.9498     0.40546     0.17939    -0.10838    -0.37862   -0.055766
0.090722     -2.2304    0.058891     0.06896    0.089423    -0.29775    0.022512
0.19109     -0.9701    -0.19836   -0.063237     0.25507     -0.2133     0.10566
0.29405     0.72734    -0.26657     -0.1753     0.35512    -0.14769     0.16478
0.37363      2.3462    -0.10644    -0.23701     0.38305    -0.12008     0.18459
0.41585      3.3875     0.20343    -0.23961     0.34894    -0.13859     0.16738
0.4178      3.5821     0.50713    -0.19478     0.27359    -0.20096     0.12385
0.37785      2.9653     0.65556    -0.13437     0.17972     -0.2919    0.067336
0.29275      1.8086     0.55422   -0.095717    0.089748    -0.38934    0.011144
0.15601      0.4623     0.20213    -0.10644    0.013743    -0.47509   -0.042449
-0.020037    -0.72779    -0.31204    -0.17335   -0.044723    -0.53356   -0.086298
-0.19348      -1.493    -0.84635    -0.28118   -0.080451    -0.55564    -0.11358
-0.30197     -1.7724     -1.2679    -0.40818   -0.081751    -0.53875    -0.11456
-0.31334     -1.6766     -1.5112    -0.52446    -0.04862    -0.49296   -0.089871
-0.24578      -1.432       -1.61     -0.5878   0.0062721    -0.43319   -0.051868
-0.15191     -1.2501      -1.658    -0.54915    0.065712    -0.37343   -0.011592
-0.086948     -1.2598     -1.6785    -0.38285     0.11833    -0.32081    0.013093
-0.078827      -1.521      -1.533    -0.10611     0.16543    -0.27111     0.01894
-0.1178     -2.0179    -0.99868     0.23494     0.20895    -0.22109    0.014717
-0.17822     -2.6299    0.019914     0.59093     0.24338    -0.17335   0.0091954
-0.22986     -3.1729      1.3172     0.91573     0.25767    -0.13469   0.0059473
-0.25325      -3.475        2.48      1.1717     0.24176    -0.10903   0.0056225
-0.25195     -3.4165      3.1449      1.3269     0.18751   -0.096042   0.0033489
-0.2448     -2.9699      3.1485      1.3568     0.10112   -0.097666   -0.007045
-0.24675      -2.206      2.6041        1.25   0.0010752    -0.11163   -0.031081
-0.2552     -1.2559      1.7969     0.99044   -0.085648     -0.1308   -0.060638
-0.26364    -0.28053      1.0067     0.58216    -0.14119    -0.15061   -0.089221
-0.26949     0.55422     0.40416    0.091372    -0.16815    -0.16847    -0.10871
-0.27404       1.121    0.031607    -0.36336    -0.17919    -0.18309    -0.11326
-0.27339      1.3909    -0.16555    -0.67063    -0.17887    -0.19478    -0.10449
-0.26949      1.4228    -0.27631    -0.77392    -0.15808    -0.20518   -0.088572
-0.26007      1.3182    -0.37927    -0.68817    -0.11001     -0.2094   -0.071682
-0.2435      1.1671    -0.53518     -0.4988   -0.045047    -0.20908    -0.05804
-0.21135      1.0418    -0.77034    -0.31886    0.021213    -0.20843   -0.049595
-0.16263      1.0145     -1.0558    -0.21979    0.075781    -0.21135   -0.044398
-0.096042      1.1678     -1.3056    -0.18536     0.10989    -0.21979   -0.036602
-0.021337      1.5238     -1.4073    -0.13729     0.12125    -0.23279   -0.021986
0.036154      2.0181     -1.2485   0.0017248     0.11638    -0.25033  -0.0054209
0.045899      2.5476    -0.78106     0.25313     0.11443    -0.27404  0.00075039
-0.00022403      3.0267    -0.10189     0.56332     0.12678    -0.30392  -0.0080194
-0.079802      3.4008      0.5539     0.82998     0.12743    -0.33315    -0.02361
-0.15126      3.6116     0.98102     0.97387    0.079354    -0.34614   -0.033679
-0.17562        3.56      1.1291     0.97095    -0.01549    -0.31951   -0.025559
-0.1308      3.1498      1.0716     0.85142   -0.099615     -0.2461   0.0017248
-0.021012      2.3884     0.90307     0.66758    -0.10124    -0.13469    0.044275
0.12548      1.3909     0.68804     0.46523    0.010819  -0.0050961    0.088773
0.26514     0.36973     0.46295     0.27424      0.2083     0.12288     0.12288
0.35836    -0.51147     0.23656     0.10696     0.43534     0.23429     0.14237
0.39084     -1.2679  -0.0011985   -0.029457     0.64419     0.31744     0.14756
0.37071     -2.0036    -0.26072    -0.14379     0.81569     0.36973     0.14464
0.32491     -2.7319    -0.54525     -0.2448     0.95503     0.40514     0.13522
0.27261     -3.3954    -0.86096    -0.34874      1.0356     0.43209     0.12353
0.20863     -3.9317     -1.2166    -0.47899     0.97582     0.43664     0.10664
0.11216     -4.2906     -1.5898    -0.63977     0.70169     0.39182    0.078704
-0.025234      -4.401     -1.8984    -0.79178     0.24078     0.29275    0.044275
-0.17789     -4.1925     -2.0494    -0.85349    -0.26202      0.1664    0.016341
-0.30359     -3.6248     -2.0264    -0.75865    -0.63165    0.050446   0.0062721
-0.36206     -2.6942     -1.9182    -0.50043    -0.76255   -0.022636    0.013418
-0.33802      -1.519     -1.8247    -0.13989    -0.63782   -0.044398    0.030308
-0.2552    -0.34355      -1.749     0.22714    -0.34387    -0.03303    0.046223
-0.15483     0.59515     -1.6057     0.53831   -0.036278    -0.02426    0.051096
-0.080776      1.2285     -1.3264     0.77801     0.11054   -0.042774    0.035505
-0.052843      1.6839     -0.9269     0.94367   -0.013541    -0.10351  -0.0015233
-0.057065      2.1503    -0.45885      1.0317     -0.3731     -0.2055   -0.050569
-0.064861      2.7044     0.06084      1.0479    -0.81452    -0.32828   -0.093444
-0.050894      3.2479     0.62503     0.98687     -1.1624    -0.43189    -0.11618
-0.013216      3.6084      1.2084     0.81667     -1.3134    -0.48256    -0.11683
0.034855       3.649        1.78     0.51232     -1.2621    -0.47152    -0.10286
0.070584      3.2901      2.3023    0.086824     -1.0835    -0.41208   -0.084349
0.077405      2.5248      2.6781    -0.40916    -0.87136    -0.33088   -0.067784
0.057592      1.4692       2.796    -0.89929    -0.69596    -0.25617   -0.055766
0.028034      0.3353      2.6447     -1.2803    -0.57448    -0.20323   -0.046022
0.013418    -0.65146      2.3312     -1.4352    -0.48289    -0.17107   -0.030756
0.031932     -1.3375      1.9837     -1.2962     -0.3809    -0.14022  -0.0037969
0.081952     -1.6818      1.6729    -0.89864     -0.2435   -0.093444     0.03518
0.14399      -1.724      1.4042    -0.38674   -0.070707   -0.025884    0.078704
0.18427     -1.6119      1.1424    0.038428     0.10209    0.053694     0.12028
0.17615     -1.5486     0.86441     0.24923     0.23169     0.12937     0.14724
0.11508     -1.6655     0.58508     0.25118       0.296     0.19076     0.15568
0.01894     -1.9484     0.32588     0.13847     0.29795     0.23591     0.14626
-0.081426     -2.2521    0.096244    0.024137     0.25962     0.27911      0.1271
-0.16165      -2.385    -0.10026  -0.0015233      0.2161     0.34927     0.10631
-0.20908     -2.2089    -0.24545    0.092021     0.18427       0.461    0.090722
-0.23149     -1.6889    -0.31236     0.27424     0.16738     0.60652    0.076431
-0.24253    -0.88175    -0.29288     0.46068     0.15309     0.76989     0.06084
-0.24675    0.085525    -0.19998     0.55065      0.1349     0.93392    0.038428
-0.24513      1.0145    -0.04992     0.47822     0.11086      1.0895    0.015367
-0.23246      1.7021     0.13847     0.26514    0.087149      1.2211 -0.00054884
-0.2094      2.0392     0.32686    0.011144    0.083576      1.3195  -0.0024977
-0.17757      2.0659     0.45191    -0.16295     0.11866       1.389    0.014717
-0.1334      1.9278      0.4688    -0.18407     0.19758      1.4474    0.050121
-0.05804      1.7625     0.39084   -0.062262     0.30574      1.5121    0.097543
0.057592      1.5988     0.27781     0.13392     0.41618      1.5803     0.15081
0.18816      1.3549     0.16803     0.31744     0.49803      1.6202     0.19499
0.29178     0.92743    0.046223     0.42105     0.52629      1.5962     0.21545
0.32588     0.32198    -0.12787     0.41196     0.48926      1.4828      0.2083
0.27294    -0.30587    -0.36109     0.30022     0.39799      1.2756     0.17972
0.15958    -0.75475    -0.61541       0.131     0.28203     0.99661     0.14107
0.037778    -0.91196    -0.82881   -0.043099     0.17095     0.69356     0.10047
-0.046022    -0.78204    -0.94509    -0.17659    0.089423     0.40968    0.064088
-0.072006    -0.48256    -0.94184    -0.25065    0.049147     0.17192     0.03453
-0.051868    -0.19251    -0.84927    -0.27469    0.042651   -0.025234    0.011469
-0.014516   -0.036927    -0.72162    -0.26851    0.050121    -0.20193  -0.0073698
0.017965    0.029009    -0.60664     -0.2461    0.059541    -0.37927   -0.025559
0.031932     0.18914    -0.53128    -0.21979    0.063763    -0.56376   -0.042774
0.028359     0.61366    -0.49588    -0.20485    0.058241    -0.74078   -0.058689
0.021213      1.3555    -0.48516     -0.2159    0.047198      -0.885    -0.07493
0.026735      2.3231    -0.47607    -0.24968    0.038753    -0.97692   -0.093769
0.053694      3.3291    -0.45495    -0.28833    0.042001     -1.0062    -0.10709
0.10664      4.1739    -0.42897    -0.31431    0.056617     -0.9688    -0.11001
0.1742      4.6705    -0.42735    -0.32016    0.079354    -0.87038    -0.10286
0.22812      4.6484    -0.48938    -0.31399    0.096569    -0.73721   -0.094093
0.23689      4.0436    -0.64204    -0.31139    0.097543    -0.60469   -0.087597
0.19369      2.9776    -0.88727    -0.32373    0.082602    -0.50238   -0.085324
0.13262        1.73     -1.1893    -0.34095    0.058566    -0.42637   -0.084674
0.10242     0.59775     -1.4684    -0.33283    0.031607    -0.36823   -0.079802
0.13067    -0.27988     -1.6476    -0.26592     0.01017    -0.32731   -0.068758
0.19758    -0.98894     -1.6665    -0.13372   0.0026992    -0.32146   -0.053492
0.25248     -1.7243     -1.4872    0.029983   0.0043233    -0.36271   -0.045372
0.2606     -2.5535     -1.1267     0.18167   0.0085458    -0.44878   -0.052193
0.21805     -3.3558    -0.67972     0.29503   0.0049729    -0.55694   -0.075255
0.14334     -3.9463    -0.23831     0.39409  -0.0073698    -0.65991    -0.11423
0.056292     -4.1954     0.15373     0.51687   -0.023935    -0.73721    -0.15516
-0.030756     -4.0753     0.46717     0.66985   -0.040825    -0.78561    -0.18082
-0.10611     -3.6462     0.65394     0.80497   -0.059664    -0.81517    -0.18829
-0.15223      -3.031     0.66368     0.84557   -0.082725     -0.8379    -0.18764
-0.16263     -2.3638     0.46133     0.74099    -0.11196    -0.85739    -0.18504
-0.14834     -1.7545    0.074806      0.5042    -0.14704    -0.87558    -0.18179
-0.12657     -1.2595    -0.38837     0.18459    -0.18731    -0.88857    -0.17432
-0.10903    -0.88273    -0.74111    -0.15093    -0.22629    -0.88922    -0.16068
-0.097341    -0.59072     -0.7934    -0.43384    -0.25292    -0.87201    -0.14022
-0.085648    -0.34355    -0.47412    -0.61314    -0.25617    -0.83725    -0.11618
-0.06616    -0.11456     0.11021    -0.68622    -0.23506    -0.79698   -0.090196
-0.038551    0.089423     0.73384    -0.68589     -0.2016    -0.76157   -0.068758
-0.0099683     0.23948      1.1766    -0.64757    -0.16782    -0.72877    -0.05804
0.0091954     0.31451      1.3422    -0.56474    -0.13924    -0.69174   -0.061613
0.016341     0.32783      1.2948    -0.40818    -0.11066    -0.64172   -0.073631
0.014068     0.31192      1.1785    -0.18114   -0.073955    -0.57481   -0.086623
0.0049729     0.30347      1.1083    0.063438   -0.033354    -0.49458    -0.09929
-0.010618     0.33011      1.1113     0.25735   0.0017248    -0.41111    -0.10741
-0.029782     0.40286      1.1262     0.35512    0.021538    -0.33315    -0.10936
-0.046671     0.51492      1.0817     0.34375    0.021863    -0.26819    -0.10156
-0.060638     0.65102     0.94627     0.23754      0.0014    -0.22434   -0.087922
-0.074605     0.78808     0.73449    0.065062   -0.038227     -0.2081   -0.075904
-0.086298     0.90339     0.49251    -0.14216   -0.089546    -0.22077   -0.069083
-0.093119     0.98134     0.27002    -0.34614    -0.14444    -0.25325   -0.064211
-0.097341      1.0213     0.10664    -0.49978    -0.19089     -0.2906    -0.05739
-0.097991      1.0323    0.019264    -0.56084    -0.22304    -0.32178   -0.050894
-0.092794      1.0301      0.0014    -0.52414    -0.23376    -0.34095   -0.043748
-0.082076      1.0392    0.022512    -0.41695    -0.22239    -0.34452   -0.037252
-0.06616      1.0642    0.055318    -0.27728    -0.19511    -0.33088   -0.032055
-0.050569      1.0869    0.088773    -0.12268    -0.15613    -0.29547   -0.025559
-0.039526      1.0522     0.10501    0.037778    -0.11261    -0.23863   -0.012892
-0.032055     0.87611    0.076106     0.17517   -0.065835     -0.1662    0.008221
-0.025884     0.51654    -0.01484      0.2515   -0.020362   -0.090196    0.037778
-0.014191    0.018615    -0.15548     0.25313    0.021538   -0.021012     0.07773
0.0043233    -0.48808    -0.30457      0.2044    0.057917      0.0433     0.11866
0.023487    -0.85804    -0.41143     0.14886    0.090722     0.10631     0.15049
0.029983     -1.0126    -0.45301     0.10924     0.12678     0.16835      0.1638
0.012119     -1.0318    -0.46892    0.071234     0.16088     0.22519     0.15471
-0.032055     -1.1117    -0.52446     0.01764      0.1781     0.27067     0.13132
-0.093119     -1.3803    -0.64951   -0.063237     0.16705     0.30315     0.10534
-0.15711     -1.9283    -0.82848    -0.19219      0.1258     0.32426    0.083901
-0.21395     -2.7497     -1.0094    -0.37505    0.058891      0.3379    0.065712
-0.26104     -3.6303     -1.1416    -0.58488   -0.020687     0.34862    0.050446
-0.28443      -4.199     -1.1871    -0.75248   -0.093119     0.35901    0.038103
-0.26787      -4.098     -1.1169    -0.79568    -0.14509     0.37265    0.029658
-0.20031     -3.0498    -0.90839    -0.66348    -0.16653     0.38727    0.025111
-0.075579    -0.87785    -0.55857     -0.3705    -0.15353     0.41293    0.032906
0.10566      2.2877    -0.10124    0.010819    -0.10481     0.46198    0.054993
0.31776      4.9593     0.39344     0.38207   -0.030756     0.52921    0.087799
0.52109      4.9593     0.83973     0.66661    0.055643      0.5984     0.12548
0.6783      4.9599      1.1626     0.82479     0.13977     0.64354     0.15731
0.76177      4.9593      1.3036     0.85207     0.20635     0.65069     0.17355
0.75463      4.9596       1.236     0.76957     0.24176     0.60814     0.16608
0.65556      4.9593     0.98102     0.61269     0.23526     0.52109     0.13295
0.48829      3.7214     0.61399     0.42073     0.18881     0.41098    0.081303
0.29048      1.2275     0.24501     0.23689     0.12353     0.30802    0.024461
0.098517    -0.29677   -0.013541     0.10047    0.065712     0.23721   -0.026533
-0.06551    -0.72714    -0.11651    0.031932    0.038753     0.20928    -0.06681
-0.19803    -0.45593   -0.097341    0.030308    0.046548     0.22129    -0.09182
-0.30522    -0.10968   -0.033354    0.074482    0.079354      0.2528    -0.10449
-0.39129    -0.23896    0.003024      0.1297     0.11443     0.27781    -0.10709
-0.44359     -1.0484    -0.01614     0.16933     0.13392     0.27391    -0.10579
-0.44456     -2.3359   -0.075579     0.19271     0.12807     0.23981   -0.098316
-0.39357     -3.6936    -0.14087     0.20895     0.10242     0.18264   -0.087272
-0.30879      -4.706     -0.1753     0.22519    0.062789     0.11963   -0.072006
-0.22109     -4.9701    -0.15711     0.23818    0.016666     0.06084   -0.059339
-0.16588     -4.9704   -0.097017     0.22941   -0.031081   0.0056225   -0.055116
-0.15743     -4.6869   -0.019063     0.18329   -0.075255   -0.050569   -0.060638
-0.17367     -4.2636    0.059216     0.10664    -0.10741    -0.11293    -0.06681
-0.174     -3.8346      0.1297    0.027385      -0.123    -0.18049   -0.063561
-0.13762     -3.3811     0.16673   -0.023285     -0.1204    -0.24805   -0.045372
-0.071682     -2.8481     0.13717   -0.024909    -0.11066    -0.30977   -0.019388
-0.0018481     -2.1576    0.016016   0.0065969    -0.10611    -0.36271   0.0043233
0.047523     -1.2959    -0.18536     0.03453    -0.11358    -0.40786    0.013418
0.06896    -0.38902    -0.43514    0.015692    -0.12982    -0.44099   0.0069217
0.069285     0.28853    -0.71545   -0.075904    -0.14704    -0.44261  -0.0044465
0.063113     0.53441     -1.0165    -0.23246    -0.15093    -0.38999   -0.010943
0.060515     0.39864     -1.3293     -0.4163    -0.13664    -0.26169  -0.0050961
0.054668     0.10664     -1.6356     -0.5878    -0.11261    -0.05804     0.01017
0.037454   -0.084674     -1.9046    -0.72032   -0.082076     0.20083    0.027709
0.015692   -0.028157     -2.0897     -0.7921   -0.046022     0.48569    0.044599
0.0091954     0.31809      -2.106    -0.76612  -0.0015233     0.77509    0.060515
0.036154     0.91541     -1.7964    -0.58488    0.054668      1.0629    0.081303
0.088773      1.6167     -1.0282    -0.21005     0.11898      1.3435     0.11118
0.14009      2.1591     0.13847     0.32426     0.18134      1.5991     0.14756
0.1638      2.2799      1.3874     0.89332     0.23266      1.7992     0.18199
0.14886      1.8879      2.3585       1.326     0.26319      1.9106     0.20668
0.10112      1.1161      2.8175       1.476     0.26579      1.9158      0.2161
0.030633     0.22779      2.7249      1.3182     0.23656       1.807     0.20668
-0.054467    -0.50757      2.2666     0.97322     0.17355       1.593      0.1768
-0.13729    -0.92495      1.7632     0.64972    0.085525      1.2977     0.13132
-0.18504     -1.0442      1.4906     0.52044  -0.0083442     0.96478    0.086175
-0.16912      -1.013      1.5322     0.62503   -0.088247     0.64225    0.054668
-0.091495     -1.0094      1.7635     0.86149    -0.14152     0.36746    0.038103
0.014717      -1.164      1.9701      1.0616    -0.16133     0.15633    0.030957
0.11281     -1.5177      1.9886      1.0785    -0.15158   0.0069217    0.032257
0.1729     -1.9777      1.7761     0.85499    -0.12268   -0.093444    0.042975
0.1755     -2.3359      1.3714     0.42332   -0.090845     -0.1662    0.058891
0.12385     -2.4077     0.85727    -0.10449   -0.072981    -0.22791    0.074157
0.038753     -2.1368     0.33628    -0.57611   -0.071357    -0.28573    0.083251
-0.04862     -1.6028   -0.079477    -0.87526   -0.075579     -0.3403    0.087474
-0.10741    -0.95256    -0.32406    -0.96977   -0.076229    -0.38707    0.089748
-0.1191    -0.32828     -0.4202    -0.89962   -0.072331    -0.41923    0.093645
-0.084349     0.15731    -0.47217    -0.76125   -0.062912    -0.43449     0.10371
-0.030756     0.43047    -0.58033    -0.64659   -0.044073    -0.43547     0.11801
0.01017     0.47237    -0.75962    -0.58878  -0.0099683     -0.4241      0.1323
0.016016     0.31484    -0.93502    -0.56864    0.036479    -0.40136     0.13555
-0.018738    0.045249    -0.99998    -0.54525    0.086175    -0.37083     0.12158
-0.081426    -0.22304     -0.8915    -0.48224     0.12548    -0.33575    0.090722
-0.15061    -0.39227    -0.61379    -0.36791     0.14042    -0.30847    0.053044
-0.20583    -0.41305    -0.25487    -0.22077     0.11216    -0.30294     0.01829
-0.23019     -0.2958    0.057917   -0.077853    0.039078    -0.32666  -0.0073698
-0.21167    -0.10254     0.23299    0.031607    -0.05804     -0.3718   -0.022311
-0.161    0.083576     0.26872     0.10242    -0.14476      -0.415   -0.030431
-0.10384     0.20733     0.23396     0.15926    -0.19478    -0.43059   -0.035303
-0.060963     0.27684     0.19921      0.2122    -0.19771    -0.40136   -0.044398
-0.045697     0.33368     0.18199     0.23299    -0.15613    -0.33023   -0.061937
-0.058365     0.43112     0.13879      0.1768   -0.088572    -0.24221   -0.085648
-0.084674     0.60489    0.015692    0.025436   -0.021337    -0.18114    -0.11131
-0.11586     0.83486    -0.21752    -0.19543    0.024137    -0.19089    -0.13729
-0.14964      1.0528    -0.54265    -0.42735    0.050121    -0.29482    -0.16003
-0.18634      1.1756    -0.89929    -0.61151     0.06831    -0.47834    -0.17659
-0.22109      1.1567     -1.2114    -0.71837     0.10242    -0.69369    -0.18796
-0.24708      1.0203     -1.4102    -0.73981     0.17615    -0.88013    -0.19348
-0.25487     0.85597      -1.455    -0.67745     0.29275    -0.98959    -0.19251
-0.23701     0.77477     -1.3469    -0.54265     0.42982     -1.0049    -0.18244
-0.18959     0.83096     -1.1315    -0.36466     0.56494    -0.94704     -0.1597
-0.11033      1.0051    -0.87331    -0.18699     0.65621    -0.84895    -0.12105
0.0036737      1.2285    -0.61898   -0.043423     0.62373    -0.74143   -0.069733
0.15146       1.464    -0.36563    0.067986     0.39019    -0.64951   -0.018738
0.32523      1.7518   -0.054792     0.18037   -0.035953     -0.5826    0.024461
0.49706      2.0795     0.34764     0.31744    -0.52966    -0.53486    0.059541
0.62503       2.263      0.7608     0.45288    -0.91391    -0.49913    0.083901
