0.12028    0.064088    0.067011    0.058241    -0.12755    -0.33802     0.16023
0.11378    0.048172    0.061814    0.039078    -0.10871    -0.37927     0.18946
0.11151    0.032906    0.058891   0.0078962   -0.083375    -0.51732     0.18427
0.10761    0.020564    0.053694   -0.034654    -0.11293    -0.73656     0.14756
0.097543   0.0095202    0.039727   -0.096042     -0.2487    -0.95711     0.10079
0.076106  -0.0031473    0.017316    -0.17075    -0.47964     -1.0948    0.066686
0.044599   -0.020037  -0.0083442    -0.23831    -0.72325     -1.1039    0.059865
0.011144   -0.036927   -0.028157    -0.27761    -0.86876    -0.97822    0.078379
-0.017439    -0.04862   -0.038227    -0.28118    -0.83498    -0.76417     0.10469
-0.033679    -0.04992   -0.036602    -0.24805    -0.61184    -0.54005     0.11443
-0.042449   -0.046996   -0.023935    -0.17822     -0.2448    -0.37895    0.093321
-0.050244   -0.046671  -0.0057458   -0.077203     0.16868    -0.32536    0.041351
-0.064861    -0.04862    0.010819     0.03453     0.53311    -0.40331   -0.035628
-0.084674   -0.054792     0.01829     0.13295     0.80497    -0.63132     -0.1282
-0.10579   -0.061613    0.014392     0.19823      1.0054    -0.98407    -0.22726
-0.12787   -0.068434   0.0010752     0.21772      1.1775     -1.3768    -0.31821
-0.14996   -0.076879   -0.018088     0.19239      1.3211     -1.6996    -0.37862
-0.1688   -0.088247   -0.040175     0.13522      1.3581     -1.8659    -0.39616
-0.17887    -0.10156   -0.064861    0.062789      1.1795     -1.8429      -0.377
-0.17594    -0.11488   -0.092145   -0.011592     0.72637     -1.6506     -0.3364
-0.1636    -0.12885    -0.11715   -0.078503     0.05142     -1.3339    -0.29158
-0.14801    -0.14022    -0.13859    -0.13242    -0.67355    -0.94736    -0.26072
-0.13404    -0.14476    -0.15483     -0.1649     -1.2663    -0.55564    -0.24935
-0.12885    -0.14541    -0.16523     -0.1753     -1.6356    -0.23896    -0.26039
-0.13957    -0.14671    -0.16847    -0.16718     -1.7795   -0.059339    -0.30002
-0.16555    -0.15158    -0.16685    -0.15321     -1.7659  -0.0096434    -0.36953
-0.20225    -0.16035    -0.16782    -0.14769     -1.6876   -0.010618    -0.44846
-0.23603    -0.16945     -0.1714    -0.15451     -1.6119    0.038103    -0.51115
-0.2565    -0.17789    -0.17594    -0.16945     -1.5437     0.19369    -0.54363
-0.25975    -0.18212    -0.17887    -0.18634     -1.4541     0.41553    -0.54655
-0.24935    -0.17659    -0.18114    -0.20225     -1.3167     0.58475    -0.52024
-0.22661    -0.16165    -0.17984    -0.21655     -1.1221     0.61334    -0.45885
-0.19576    -0.13437    -0.17237    -0.22109    -0.86908      0.5016    -0.36271
-0.16198   -0.097017    -0.16003     -0.2133    -0.56019     0.36518    -0.24318
-0.12722   -0.059664    -0.14281    -0.19089    -0.20453     0.38013    -0.12333
-0.089871    -0.02361     -0.1178    -0.14964     0.17647     0.66466   -0.025559
-0.044723    0.011794   -0.079152   -0.086298     0.56786       1.171    0.047198
0.016991    0.056292    -0.02426 -0.00054884     0.95146      1.6982     0.10501
0.091047     0.11054    0.044275    0.099167      1.2935      1.9629       0.169
0.16445      0.1703     0.11378     0.19986      1.5481      1.7053      0.2515
0.22292     0.22097     0.17355     0.28756      1.6706     0.87026     0.35284
0.2593     0.25637     0.21642     0.34505      1.6404    -0.30749      0.4675
0.27814     0.27099     0.23689     0.36194      1.4673      -1.406     0.58475
0.28821     0.26384     0.23461      0.3327      1.1967     -2.0738     0.69356
0.29308     0.23689     0.21155     0.26027     0.90761     -2.1066     0.77769
0.2921     0.20343     0.17452      0.1651     0.67375     -1.4817     0.82154
0.28431     0.17387     0.13522    0.072208     0.55357     -0.3731     0.81309
0.27196     0.14951     0.10729   0.0033489     0.60976     0.90534     0.74586
0.25345     0.12548    0.094295   -0.034004     0.91833      2.0363     0.62795
0.22649     0.10209    0.096569   -0.045372      1.4949      2.8636     0.47464
0.19628    0.088124     0.10956   -0.037252      2.2293        3.32     0.31516
0.1677    0.091372     0.12872   -0.013541      2.9555      3.3917     0.17517
0.14399     0.10924     0.14172    0.031932      3.5236      3.1202    0.064737
0.12288     0.12223     0.14594     0.11054      3.7942      2.5937    -0.01484
0.096569     0.11573     0.13717     0.22065      3.5902      1.9044   -0.070707
0.060515    0.085525     0.11573     0.33498      2.7041      1.1379    -0.10676
0.022188    0.040052    0.088773     0.40936        1.12     0.37525    -0.12008
-0.0024977  -0.0021729    0.063438     0.40806    -0.84927    -0.32698    -0.10838
-0.0041217   -0.026858    0.042001     0.32036     -2.5802    -0.96068   -0.071357
0.01764   -0.029132    0.026085      0.1651     -3.7011     -1.5525   -0.007045
0.055968  -0.0099683    0.017316   -0.012242      -4.096     -2.0618    0.082277
0.10242    0.024137     0.01829    -0.15776     -3.8567     -2.3612     0.18362
0.14496    0.063113    0.026085    -0.22856     -3.1856     -2.3297     0.27164
0.17485    0.094945    0.038428    -0.21362     -2.3349     -1.8916     0.32296
0.18427     0.11054    0.050121    -0.13762     -1.5583     -1.0789     0.32913
0.17257     0.10956    0.054668   -0.047971     -1.0448   -0.056091     0.28756
0.14107    0.093645    0.052395    0.012443    -0.85674     0.88293     0.20408
0.096244    0.065062    0.048822    0.028684    -0.93177      1.4289    0.085525
0.045899    0.029658    0.043625    0.014717      -1.138       1.415   -0.050894
-0.0021729  -0.0054209    0.037454  -0.0060706     -1.3323      0.9271    -0.18082
-0.035953   -0.029457    0.029333   -0.013866     -1.4073      0.2947    -0.27728
-0.04992   -0.030106    0.023162  -0.0060706     -1.3196   -0.088572    -0.31756
-0.044723  -0.0089938    0.022188     0.01017     -1.0883    0.010819     -0.2997
-0.024909    0.024137    0.025436    0.022837    -0.77879     0.53279    -0.23798
0.0043233    0.058891    0.031607    0.026085    -0.47055      1.1688    -0.15093
0.036804    0.087799    0.033881    0.019589    -0.21979       1.616   -0.052518
0.063438     0.10631    0.030308   0.0088706   -0.041475      1.7502    0.037129
0.075456     0.10729    0.016666  -0.0047713    0.072858      1.6173    0.094295
0.070259    0.092346 -0.00087364    -0.02361     0.13684       1.326     0.10534
0.054668     0.06831   -0.015815   -0.045047     0.17095     0.97842    0.083901
0.037778    0.046548   -0.023935   -0.058689     0.19726     0.65589    0.053694
0.02706    0.037454   -0.021661   -0.055116     0.23461     0.40514     0.03453
0.020239    0.036804  -0.0096434   -0.036278     0.28333     0.22779    0.029983
0.015367    0.036804    0.009845   -0.011592     0.33985    0.082602    0.037778
0.0091954    0.034206     0.02641   0.0062721     0.39214   -0.075904    0.058241
-0.0024977    0.029333    0.034206   0.0091954     0.42235    -0.26429     0.08585
-0.02361    0.016991    0.031932  -0.0021729      0.4217    -0.44196     0.10859
-0.052193  -0.0028225    0.024137   -0.020362     0.39507    -0.53193     0.10631
-0.08305   -0.028482    0.015042   -0.036927     0.37655    -0.50433    0.065062
-0.10319   -0.050894   0.0056225   -0.044723      0.4178     -0.3705  -0.0024977
-0.10514   -0.064211  -0.0050961   -0.043748     0.53961    -0.17854   -0.061937
-0.094093    -0.06616   -0.020362   -0.038876     0.70883    -0.01549   -0.093769
-0.084349   -0.062912   -0.037902   -0.030756     0.86182     0.04395   -0.097017
-0.079152   -0.062912   -0.050244   -0.022311     0.95309   0.0065969   -0.083375
-0.079802    -0.06616   -0.055441   -0.011267     0.96608   -0.044073   -0.064211
-0.079802   -0.068758   -0.052193   0.0033489     0.90177   -0.034329   -0.039201
-0.072981   -0.064861   -0.046347    0.016016     0.75398    0.023812   -0.011592
-0.059664   -0.052843   -0.046022    0.021538     0.52889    0.058891    0.010495
-0.045697     -0.0405   -0.053492    0.014068     0.25702  -0.0011985     0.01764
-0.039526   -0.029782   -0.065186  -0.0083442   -0.008669    -0.18699   0.0085458
-0.0405   -0.026209   -0.079152   -0.042449    -0.21525    -0.47964   -0.012567
-0.043748   -0.030106   -0.093444    -0.07493     -0.3286    -0.81387   -0.037252
-0.046996   -0.038551    -0.10676   -0.095717    -0.33023     -1.1101   -0.055766
-0.047646   -0.040825    -0.11618   -0.098641    -0.22499     -1.3034   -0.062262
-0.046671   -0.037577    -0.12008   -0.086623   -0.052193     -1.3764   -0.063886
-0.041799   -0.033354    -0.11845   -0.065835     0.11963     -1.3488   -0.072981
-0.03303   -0.037252    -0.11521   -0.043423     0.22747      -1.252   -0.090521
-0.026858   -0.050894    -0.11326    -0.02426     0.24208     -1.0909    -0.10514
-0.025234   -0.067134    -0.11066   -0.014516     0.17647    -0.83465    -0.10286
-0.031406   -0.080776    -0.10774   -0.017764    0.063763    -0.46048   -0.079802
-0.048296   -0.092794    -0.10936   -0.034978   -0.056416   -0.022636     -0.0405
-0.072656    -0.10221    -0.11845   -0.061937    -0.14964     0.34635   0.0062721
-0.096692    -0.10968    -0.13307   -0.093444    -0.20031     0.51557    0.043625
-0.11196    -0.11521    -0.15126     -0.1243    -0.21687     0.43209     0.05207
-0.11326    -0.11651    -0.16718    -0.14346    -0.22207     0.13912    0.025111
-0.10968    -0.11293    -0.17562    -0.15029    -0.23474    -0.26494   -0.027183
-0.10514    -0.10579    -0.17789    -0.14964    -0.27144    -0.68557   -0.095393
-0.10254    -0.10091    -0.17789    -0.15256    -0.34192     -1.0679    -0.16685
-0.10221   -0.097991    -0.17594    -0.16295    -0.43482     -1.3686    -0.22889
-0.09994   -0.093769    -0.16685      -0.174    -0.51894      -1.544    -0.27371
-0.092145   -0.081751    -0.14866     -0.1701    -0.56084     -1.5522    -0.29775
-0.07493   -0.059989    -0.12105    -0.14444    -0.55012     -1.3699    -0.30424
-0.045697   -0.029132   -0.085648    -0.10416    -0.49685     -1.0237    -0.30132
-0.0089938   0.0039985   -0.045372   -0.056741    -0.41403    -0.61476    -0.29223
0.029009    0.030308  -0.0073698   -0.011917    -0.30554     -0.2513    -0.27534
0.057917    0.049472    0.023162    0.022188    -0.16458    0.057267    -0.24026
0.073832    0.063763    0.041351    0.043625    0.016341       0.385    -0.18277
0.082277    0.072533    0.049796    0.055318     0.23201     0.75788    -0.10579
0.088124    0.076755    0.048822    0.066362     0.46068      1.1044   -0.011592
0.098842    0.079354    0.047198      0.0852     0.66985      1.3523     0.10306
0.11703     0.08585    0.047847     0.11248     0.83745      1.4984     0.23364
0.13814    0.098193     0.05142     0.14724     0.95309      1.5871     0.35836
0.15406     0.11054    0.056617     0.18329      1.0145      1.6212     0.43827
0.15796     0.11801    0.062464     0.21415      1.0265      1.5452     0.43957
0.14302     0.11898    0.066362     0.23201     0.99823      1.3084     0.35317
0.10989     0.10794    0.065062     0.23169     0.93652     0.93035     0.19661
0.064737    0.088773    0.056292     0.21188     0.84557     0.49641    0.011794
0.01829    0.064737    0.041027     0.17777      0.7267     0.11054    -0.15613
-0.020687    0.042326    0.019589     0.13717     0.58151    -0.17887    -0.27793
-0.04862    0.024137  -0.0041217     0.10047     0.41293    -0.40461    -0.34809
-0.063561    0.009845   -0.025234    0.066686     0.21512    -0.60404    -0.37733
-0.06551  0.00075039     -0.0405    0.030633   -0.013216    -0.76352    -0.38025
-0.057715  -0.0024977   -0.050244  -0.0050961    -0.24545     -0.8366    -0.36596
-0.04862  -0.0021729   -0.055116   -0.033679    -0.39779    -0.77197    -0.33997
-0.048296    0.003024   -0.054142   -0.047971    -0.37115    -0.52998    -0.30035
-0.048945    0.012119   -0.044398   -0.039851    -0.12463    -0.13534    -0.23733
-0.041799    0.029983   -0.025234   -0.011267     0.29925      0.2541    -0.14606
-0.023285    0.054019  -0.0011985    0.029983     0.78549     0.40773   -0.029782
0.0065969    0.073832    0.021538    0.081303       1.198     0.23624    0.088448
0.035505    0.081627    0.036479     0.13522      1.3903   -0.099615     0.18979
0.054344    0.071558    0.041351     0.17517      1.2392    -0.39162     0.26482
0.058241    0.047847     0.03518     0.18394     0.71857    -0.56929     0.31451
0.049472    0.017316    0.021538     0.15601   -0.031406    -0.62158     0.35187
0.041676   -0.010293   0.0078962     0.10729    -0.73396    -0.47055     0.38825
0.044924   -0.026209 -0.00022403    0.058241      -1.166   -0.043099      0.4282
0.060515   -0.025234  0.00010078    0.023812      -1.264     0.58638     0.45743
0.074806   -0.011917   0.0052977   0.0072465     -1.1029       1.186     0.45288
0.082927   0.0020496    0.012443  0.00075039    -0.82101      1.5312     0.38532
0.076755   0.0085458    0.017965  -0.0018481    -0.55435      1.5286      0.2502
0.058241   0.0046481     0.01764  -0.0050961    -0.38415      1.2483    0.070259
0.030957  -0.0031473     0.01017  -0.0063954    -0.32178     0.85629    -0.11196
0.00042559  -0.0076946      0.0014  0.00075039    -0.33413     0.48017    -0.25682
-0.028157  -0.0018481 -0.00054884     0.01829    -0.37473     0.14659    -0.34322
-0.045372    0.015042   0.0023744    0.039402     -0.4163    -0.18536    -0.35719
-0.044073    0.037778    0.011469    0.057917    -0.44001     -0.5053     -0.2906
-0.023935    0.058241    0.022512    0.072533    -0.44651    -0.72195    -0.15061
0.008221    0.071234     0.03583    0.084551    -0.44326    -0.77489    0.029333
0.038103    0.075456    0.047523    0.093321    -0.44521    -0.71772     0.18622
0.054019    0.073182    0.054668    0.092346    -0.46307    -0.68784     0.26969
0.053044    0.067661    0.053694    0.078704     -0.4988    -0.82426     0.26319
0.03518    0.058241    0.043625    0.055643    -0.55532     -1.1718     0.18557
0.0072465    0.039402     0.02641    0.023812    -0.62743      -1.646    0.077405
-0.026858    0.012443   0.0085458   -0.010293    -0.69596     -2.0718   -0.032705
-0.061937   -0.016464  -0.0044465   -0.045047    -0.73007     -2.2388    -0.12203
-0.090845   -0.044073   -0.010618   -0.073955    -0.70506     -2.0118    -0.17724
-0.11163    -0.06551   -0.010293    -0.09182    -0.62191      -1.443    -0.19283
-0.12333   -0.077203  -0.0034721   -0.096692    -0.51115    -0.77424     -0.1727
-0.12657   -0.078503   0.0091954   -0.090845    -0.41435    -0.28443    -0.13437
-0.1217    -0.07428    0.024786   -0.075255    -0.36109   -0.092794   -0.093769
-0.10936   -0.069083    0.038103   -0.054142    -0.35491    -0.10676   -0.067134
-0.095393   -0.065835    0.046873   -0.034004    -0.37765    -0.13632   -0.060638
-0.083375   -0.059989    0.051096   -0.011267    -0.38967   -0.025884   -0.064211
-0.069083   -0.048296     0.05207    0.017965    -0.34355     0.26482   -0.052518
-0.046347   -0.030431    0.053369    0.055318     -0.2094     0.68285  -0.0063954
-0.016789  -0.0063954    0.057592    0.096244    0.003024      1.1509    0.075456
0.013743    0.021213    0.066037      0.1362     0.24468      1.6072     0.18264
0.042651    0.044924    0.076106     0.16933     0.44736      2.0058      0.2934
0.063438    0.061489    0.078704     0.18946     0.55292      2.2962      0.3824
0.070909    0.065387    0.073832     0.19109     0.54188      2.4163     0.42495
0.06084    0.054993    0.063113     0.17322     0.43404      2.2858     0.40254
0.039078    0.033556     0.05142     0.14529     0.28788      1.8307     0.31386
0.017965   0.0091954    0.045574     0.11606     0.15991      1.0395     0.18264
0.0065969   -0.011592    0.040702    0.092021    0.080653   0.0020496    0.042001
0.0065969   -0.025234    0.032582    0.070259    0.050446     -1.0364   -0.078503
0.014392   -0.037577    0.023812    0.047847    0.041027     -1.8045    -0.16685
0.02641   -0.049595    0.014717     0.02641    0.019264     -2.1771    -0.21655
0.037778   -0.060638   0.0091954   0.0088706   -0.021661     -2.2031    -0.22597
0.039727   -0.069408    0.009845  -0.0050961   -0.052843     -2.0647    -0.19478
0.036479   -0.072331    0.014717   -0.016464   -0.032055     -1.9536    -0.13177
0.031607   -0.069733    0.015042   -0.027833    0.054019     -1.9442   -0.055116
0.023812    -0.06551   0.0056225   -0.036927     0.18849     -1.9718    0.015367
0.01017   -0.062912   -0.012892   -0.041799     0.34667        -1.9    0.071234
-0.0037969   -0.059664    -0.03238   -0.040825     0.49738     -1.6109     0.10924
-0.012892   -0.052518   -0.046671   -0.033679     0.61041     -1.0669     0.13717
-0.013216   -0.039851    -0.04862   -0.019388      0.6705    -0.30392     0.15861
-0.0044465   -0.021012    -0.04115   0.0052977     0.68772     0.58865     0.17127
0.012119 -0.00022403   -0.029132    0.037454     0.69129      1.4604     0.16705
0.028359    0.019914   -0.015165    0.072858     0.71857      2.1425     0.13977
0.041676    0.039402  -0.0021729     0.10469     0.78711      2.4911    0.093645
0.050121    0.053044   0.0072465     0.12223     0.87773      2.4504    0.041027
0.049472    0.055643   0.0069217     0.11671      0.9284      2.0906  -0.0044465
0.043625    0.050446  -0.0060706    0.087149     0.87643      1.5725    -0.03303
0.031282    0.038103   -0.029132    0.038753     0.70298      1.0684   -0.043748
0.014717    0.024786   -0.054467   -0.015165     0.44639     0.73222   -0.046022
-0.0044465    0.014717   -0.071032   -0.058365      0.1755     0.65589   -0.046347
-0.020687     0.01017   -0.070707   -0.080776    -0.04992     0.84233   -0.046996
-0.028807    0.012119   -0.057065   -0.086948    -0.20031      1.1863   -0.046671
-0.030106    0.017965   -0.039201   -0.087922    -0.28313      1.4981   -0.043748
-0.024585    0.023162   -0.024909   -0.096692    -0.32243       1.604     -0.0405
-0.022311    0.026735   -0.019388    -0.11521     -0.3312      1.4208   -0.038876
-0.029782     0.02706   -0.021337    -0.14184    -0.30132      0.9768     -0.0405
-0.042774    0.025436   -0.026858    -0.16653     -0.2172     0.38402   -0.040825
-0.056091    0.023487   -0.029457    -0.17367   -0.062912     -0.2107   -0.046022
-0.069083    0.019264   -0.027508    -0.15581     0.17355    -0.67972   -0.072331
-0.078827    0.014717   -0.021337     -0.1178     0.47724    -0.95873     -0.1243
-0.084024    0.010495   -0.007045   -0.067459     0.78808     -1.0688    -0.19381
-0.082725   0.0078962    0.011794   -0.015815      1.0103      -1.112    -0.26494
-0.073306   0.0052977    0.027709    0.022188      1.0106     -1.1975    -0.31821
-0.062912   0.0036737    0.031932    0.025761     0.66693     -1.3482    -0.34939
-0.055441 -0.00087364    0.022837    -0.01549   -0.039526     -1.4859    -0.36498
-0.04862   -0.010618   0.0091954   -0.087922    -0.95711     -1.5054    -0.37083
-0.040825   -0.017114  0.00010078      -0.161     -1.8162     -1.3592    -0.36173
-0.029132   -0.017439   0.0078962     -0.2029     -2.3801     -1.0861     -0.3286
-0.010293  -0.0060706    0.025111    -0.19868     -2.5295    -0.74143    -0.26527
0.015042     0.01017    0.042326    -0.15548     -2.2917    -0.36401     -0.1714
0.040052    0.024461    0.057267   -0.093119     -1.8091   -0.013541   -0.055441
0.055968    0.030308    0.066037    -0.03238     -1.2624        0.22    0.061814
0.056617    0.022512    0.067011   0.0059473     -0.7986     0.30152     0.15081
0.045899   0.0052977     0.06019    0.010495    -0.48744     0.27002     0.19174
0.030633   -0.014191    0.049796   -0.011917    -0.32243     0.20343     0.18557
0.016016   -0.031406    0.042326   -0.043748    -0.24286      0.1651     0.14854
0.0039985   -0.040175    0.039727   -0.070707    -0.18926     0.16218    0.099492
-0.0089938   -0.039201     0.03518   -0.090196    -0.12625       0.169    0.054344
-0.026209   -0.036278    0.027709    -0.10124   -0.045372     0.15926    0.019914
-0.041475   -0.040825     0.01894    -0.10481    0.041027     0.12515  -0.0057458
-0.050569   -0.050244   0.0065969    -0.10351     0.11508    0.091372   -0.019063
-0.055441   -0.061613  -0.0089938    -0.10254     0.16575    0.091696    -0.01484
-0.057715   -0.063561    -0.02361    -0.10221     0.18881     0.13944    0.009845
-0.057715   -0.055116   -0.030106   -0.096692     0.18102     0.21707    0.042326
-0.04992   -0.041475   -0.025234   -0.083375     0.14334     0.30639    0.074482
-0.030431   -0.027183   -0.012892   -0.068758     0.07708     0.39052    0.099167
-0.0076946    -0.01614 -0.00087364   -0.062587   -0.014191     0.44509     0.11183
0.0078962  -0.0076946   0.0046481   -0.067784     -0.1191     0.46587     0.10664
0.0095202  -0.0034721 -0.00054884   -0.075579    -0.21037     0.48894    0.080653
-0.00022403  -0.0024977   -0.015815   -0.068109    -0.25682     0.57696     0.04395
-0.018088  -0.0060706   -0.033354   -0.032705    -0.24383      0.7621   0.0075714
-0.035303   -0.015165    -0.04115    0.029333    -0.17302      1.0086   -0.016789
-0.039851   -0.028157    -0.03173     0.10047   -0.065835      1.2217   -0.023935
-0.032055   -0.040175   -0.011592     0.15568    0.033231      1.2876   -0.019063
-0.022636   -0.045697   0.0039985     0.17745    0.075781      1.0934   -0.012892
-0.022636   -0.042774     0.01017     0.16056    0.040052     0.58898   -0.012242
-0.034978   -0.033679   0.0078962     0.11898   -0.041799    -0.14574   -0.019063
-0.050894   -0.021661   0.0026992    0.073832    -0.10319    -0.92625   -0.026209
-0.059664  -0.0076946   0.0010752    0.042651   -0.083375     -1.5996    -0.03238
-0.054792    0.012119   0.0075714    0.034206    0.042001     -2.1024   -0.041799
-0.038551    0.039078    0.022512    0.047523     0.23883     -2.4652   -0.054467
-0.016464    0.066686    0.040052    0.073182     0.44119     -2.7783   -0.067459
0.0085458    0.082927    0.054993    0.095594     0.57793     -3.1411   -0.072981
0.024461    0.080328    0.061489    0.098517     0.58573     -3.6127   -0.072656
0.022512    0.061814     0.06019    0.079029     0.44444     -4.1925   -0.075579
-0.0018481    0.038428    0.047523    0.044924     0.18751     -4.8327   -0.096042
-0.038551    0.018615     0.02641   0.0062721    -0.11683     -4.9701    -0.14346
-0.077528   0.0026992   0.0010752   -0.030106    -0.39649     -4.9704    -0.21655
-0.11163   -0.011592    -0.02426   -0.056091    -0.59852     -4.9701    -0.29905
-0.13307   -0.022961   -0.046022   -0.065835    -0.69012     -4.9701    -0.37083
-0.13469    -0.03303   -0.059664   -0.063886    -0.66283     -4.9701    -0.40721
-0.11423   -0.038227   -0.063886   -0.053492    -0.53486     -3.7833    -0.39487
-0.080451   -0.031406    -0.06616   -0.033679    -0.34062     -1.6873    -0.32633
-0.042449   -0.013216   -0.064861  -0.0034721    -0.12138     0.93977    -0.21492
-0.0060706    0.013418    -0.05804     0.03583     0.10664       3.457   -0.079152
0.028359    0.048497   -0.039851    0.082927     0.34894      4.9593    0.063113
0.066362    0.089748   -0.010943     0.13522     0.62795      4.9593     0.20181
0.11346     0.13262     0.02641     0.19141     0.93295      4.9593     0.34115
0.16868     0.17257    0.067661     0.25248      1.2275      4.9593     0.48471
0.22194     0.20213     0.10924     0.31549      1.4712      4.9593     0.62276
0.2541     0.21675     0.14367     0.36778      1.6368      4.7569     0.73027
0.26027      0.2148      0.1651     0.39831      1.7177      4.5052     0.78029
0.24598     0.20051     0.16998     0.40059      1.7125      4.8027     0.76567
0.22259     0.18264     0.16218     0.36973      1.6189      4.9593     0.69909
0.19661     0.16575     0.14074     0.30964      1.4426      4.9596     0.59352
0.1742     0.14919     0.11054     0.23201       1.212      4.9589     0.47075
0.15568     0.13197     0.07708     0.15438     0.96868      4.9593     0.35771
0.13782     0.11021    0.047523    0.085525     0.74423       4.844     0.27067
0.11508    0.084876    0.024137    0.028034     0.55065      4.4825     0.21252
0.087799    0.057267   0.0052977   -0.021661     0.38305      4.2824     0.17355
0.059216    0.033556   -0.015815   -0.063886     0.23461      4.1037     0.13879
0.031932    0.013743   -0.041799    -0.10059     0.10469      3.7494    0.099167
0.0069217  -0.0018481   -0.072981    -0.13469  -0.0089938      3.0945    0.054668
-0.01484   -0.012242    -0.10319     -0.1623    -0.11098      2.1497   0.0062721
-0.032705   -0.017764    -0.12787    -0.17854    -0.20583      1.0353   -0.036602
-0.047321    -0.02361    -0.14346    -0.18569    -0.29417   -0.095393   -0.066485
-0.05804   -0.030431    -0.15061    -0.18601    -0.37343     -1.0786   -0.081101
-0.059664    -0.04115    -0.15126    -0.18179    -0.43287     -1.7954    -0.07493
-0.050244   -0.051219    -0.14509    -0.17497    -0.46145     -2.1953   -0.047321
-0.032055   -0.053168    -0.13275    -0.16165    -0.45106     -2.2856 -0.00087364
-0.0093186   -0.041475    -0.11261    -0.13502    -0.40591     -2.1563    0.045574
0.013743   -0.017764   -0.086948    -0.09929    -0.34549     -1.9374    0.072208
0.032582    0.013418   -0.060963   -0.064861    -0.28281       -1.76    0.069934
0.044924    0.039078    -0.04115   -0.044073    -0.21817     -1.7146     0.04395
0.049472    0.050771   -0.030756   -0.042449    -0.14509     -1.7997   0.0046481
0.050121    0.045249   -0.028807   -0.053492   -0.070707     -1.9159   -0.039526
0.045899    0.023812   -0.032055   -0.067459  -0.0073698     -1.9396   -0.080451
0.033881  -0.0050961   -0.040175   -0.078178    0.041351     -1.8234    -0.11196
0.012119   -0.031406    -0.04992     -0.0824    0.080978      -1.622    -0.13015
-0.010293   -0.051544   -0.058689   -0.076879    0.089423     -1.4339    -0.13242
-0.025884   -0.061288   -0.067134   -0.065186  0.00075039     -1.3375      -0.123
-0.028807   -0.063886   -0.076554   -0.052518     -0.2526     -1.3375    -0.11228
-0.027183   -0.061937   -0.086298   -0.046022    -0.65666     -1.3781     -0.1178
-0.028807   -0.059014   -0.092469   -0.046996       -1.09     -1.3985    -0.15126
-0.033354    -0.05804   -0.094418   -0.047321     -1.4014     -1.3959    -0.20031
-0.03173   -0.060638   -0.094418   -0.039526     -1.5077     -1.4187    -0.23928
-0.019388   -0.062912   -0.093769   -0.025884     -1.4226      -1.481     -0.2474
0.0033489   -0.061937   -0.092145  -0.0093186     -1.2374     -1.5232    -0.21947
0.032906    -0.05804   -0.088247   0.0033489     -1.0507     -1.4943     -0.1701
0.055643    -0.04992   -0.081426   0.0069217    -0.90481     -1.3943     -0.1295
0.063113   -0.039526   -0.073306  -0.0067202    -0.77586     -1.2286    -0.11326
0.056617   -0.033354   -0.063886    -0.03238    -0.59884    -0.99056    -0.11066
0.039727   -0.036927   -0.056416   -0.062912    -0.32438    -0.68232   -0.092145
0.017316   -0.048296   -0.057065   -0.094093    0.055643    -0.34939   -0.041799
-0.011592   -0.059339    -0.06616    -0.12365     0.50063   -0.063561     0.03453
-0.038551   -0.067459   -0.079477    -0.15093     0.94042    0.075456     0.11021
-0.056091   -0.070707   -0.092794    -0.16945      1.2984   -0.028157     0.16445
-0.063237   -0.076554    -0.09994    -0.17627      1.5027    -0.38285     0.18816
-0.068434   -0.088572    -0.10026    -0.16718      1.4968    -0.86876     0.17517
-0.074605    -0.10579   -0.097991    -0.14866      1.2506      -1.305     0.12483
-0.084999     -0.1243    -0.10091    -0.12885     0.78354     -1.5502     0.04395
-0.10026    -0.13599    -0.10838    -0.11163      0.2044     -1.5723   -0.047971
-0.11521    -0.13697    -0.10838   -0.092145    -0.30912     -1.4222    -0.12333
-0.1269    -0.12592   -0.086948   -0.060313    -0.61021     -1.1877    -0.16847
-0.13762    -0.10481   -0.043423   -0.012242    -0.64757    -0.98114    -0.19413
-0.15256   -0.083375   0.0065969    0.042001    -0.47607     -0.9217    -0.22726
-0.1701   -0.072006    0.044924      0.0865    -0.24935     -1.1085     -0.2919
-0.18699   -0.071682    0.063113     0.10566    -0.16425     -1.5863    -0.38739
-0.19803   -0.077853    0.064413    0.097868      -0.339     -2.2999    -0.49848
-0.19478   -0.077528    0.058566    0.073182    -0.73072     -3.0979     -0.5969
-0.1714   -0.062912    0.054993    0.055643     -1.1887     -3.8027    -0.65114
-0.12657    -0.03173    0.061814     0.06019     -1.5531     -4.2711    -0.64594
-0.071682   0.0049729    0.079029    0.090722     -1.7191     -4.4134    -0.58748
-0.023285    0.034855     0.10144     0.13327     -1.6678     -4.2471    -0.49166
0.009845    0.049796     0.12515     0.17517     -1.4469     -3.9057    -0.37538
0.030957    0.050121     0.14659     0.20473     -1.1361     -3.5413    -0.25065
0.051096    0.042651     0.16575     0.22065    -0.79438     -3.2103    -0.12787
0.081627    0.036804     0.18167     0.23104    -0.44846     -2.8511   -0.018413
0.11898    0.037778     0.19531     0.24468     -0.1204     -2.3807    0.069934
0.15276      0.0433     0.20311     0.25605     0.15341     -1.7688     0.13327
0.17322    0.046548     0.20181      0.2593     0.33693     -1.0081     0.19076
0.1768    0.047198     0.18881      0.2489     0.42203   -0.064211     0.26644
0.16965    0.047198       0.169     0.22422     0.43242      1.0768     0.37168
0.15568     0.05142     0.14594     0.19044     0.41098      2.3559     0.48276
0.14269     0.06084      0.1245     0.15763     0.39669       3.673     0.55942
0.1297    0.069934     0.10761      0.1349     0.41845       4.906     0.57046
0.11443    0.074157    0.096893      0.1232     0.49381      4.9593     0.51232
0.096893    0.074157    0.090397      0.1232     0.62665      4.9596     0.41683
0.083251    0.076106    0.084551     0.13197     0.78484      4.9593     0.32458
0.076106    0.078704    0.078379     0.14237     0.91573      4.9593     0.26092
0.070584    0.080003    0.072533     0.14724     0.96705      4.9596     0.22162
0.061489    0.076755    0.064737     0.13847     0.90826      4.9596     0.18167
0.046873    0.067011    0.051745     0.11573     0.75171      4.2151     0.11638
0.02641     0.05272    0.034855    0.082927     0.54578      2.8902     0.01829
0.0078962    0.042001    0.019914    0.048172     0.35706      1.8574   -0.097991
-0.0024977    0.036154    0.010819    0.019914     0.23689      1.3065    -0.20063
-0.0024977     0.03453   0.0062721   0.0026992     0.19076      1.1545    -0.26462
0.00042559    0.032582   0.0039985  -0.0089938     0.19206      1.1265    -0.27728
-0.0050961    0.025761      0.0014   -0.022961     0.19499     0.94139    -0.24708
-0.020362    0.013743  -0.0044465   -0.038227     0.16965     0.43794    -0.19673
-0.035953   0.0020496   -0.012567   -0.049595     0.11281    -0.36531    -0.14444
-0.042449 -0.00022403   -0.018413   -0.056091    0.043625      -1.279   -0.097666
-0.042774   0.0065969   -0.024909   -0.058689    -0.02361     -2.0686   -0.051219
-0.044723   0.0095202   -0.037577   -0.063561   -0.085648     -2.5682   0.0020496
-0.050894 -0.00087364   -0.058365   -0.077528    -0.14346     -2.6919    0.067986
-0.060963   -0.022636   -0.084674    -0.10156    -0.19219     -2.4184     0.14756
-0.070058   -0.044398    -0.11098    -0.12755    -0.21102     -1.7798     0.24143
-0.063237    -0.04927    -0.12625    -0.14087    -0.17497    -0.87266     0.35154
-0.034978   -0.031081    -0.12398    -0.12982   -0.071032     0.13555      0.4688
0.0062721   0.0065969    -0.10449   -0.095068    0.076431     0.99629     0.56104
0.045899    0.050121   -0.075579   -0.055116     0.21902      1.4916     0.58638
0.066686    0.082927   -0.046347   -0.022311     0.31224      1.5485     0.52661
0.067336    0.096893   -0.022961  -0.0011985     0.34992      1.2802     0.40384
0.061814    0.096569  -0.0076946    0.012443     0.35674     0.91573     0.26579
0.062464    0.092346   0.0020496    0.025111     0.36421     0.66141     0.15146
0.071234    0.091047   0.0085458    0.036804     0.38727     0.62048    0.084226
0.0865    0.095594    0.012768    0.047198      0.4282     0.79296    0.071234
0.10404     0.10306    0.017316    0.055318      0.4714      1.0996     0.10047
0.11931     0.10924    0.020239    0.063113     0.49511      1.4085     0.15211
0.12548     0.11216    0.019589    0.067986     0.47822      1.5696     0.19531
0.11801     0.10729    0.016016    0.065062     0.41293      1.4702     0.20635
0.098193    0.093321    0.011794    0.054344     0.30769      1.0625      0.1781
0.072858    0.073182   0.0075714    0.034855     0.18589     0.35966     0.12255
0.041351     0.05142   0.0069217    0.008221    0.069934    -0.53063    0.057592
0.0056225    0.029983   0.0072465   -0.019712   -0.025559     -1.4011  -0.0021729
-0.031081   0.0075714   0.0043233    -0.04862   -0.096692     -2.0533   -0.052193
-0.064536    -0.01549  -0.0063954   -0.078178    -0.14314     -2.3726   -0.089546
-0.090521   -0.036927    -0.02361    -0.10676    -0.16815     -2.3593    -0.12008
-0.10611    -0.04927   -0.043099     -0.1282    -0.16458     -2.1128    -0.14736
-0.11586   -0.051219   -0.058365    -0.13534    -0.12755     -1.7714    -0.17789
-0.1256   -0.043748   -0.062912    -0.13112    -0.06681      -1.458    -0.21687
-0.13437    -0.03173   -0.062587    -0.12365  -0.0063954     -1.2426    -0.26624
-0.13957   -0.018413   -0.059664    -0.12235    0.022837     -1.1309    -0.31171
-0.13697   -0.011592   -0.056091     -0.1321   0.0069217     -1.0877    -0.34322
-0.13177   -0.013541   -0.051544    -0.14996   -0.056091     -1.0737    -0.36336
-0.1295   -0.021986    -0.04927    -0.16035    -0.14866      -1.062    -0.38317
-0.13307   -0.032705   -0.050569    -0.15223    -0.24643      -1.013     -0.4137
-0.14314   -0.047971   -0.055116    -0.12398    -0.32211    -0.85382    -0.45463
-0.16133   -0.065835   -0.061937   -0.091495     -0.3377    -0.52024    -0.50075
-0.18212   -0.084674   -0.068434   -0.058689    -0.21297 -0.00054884    -0.53778
-0.19836   -0.097341   -0.072656   -0.022311     0.10371     0.62795    -0.55987
-0.20258   -0.096042   -0.070058    0.023812     0.55455      1.2327    -0.56312
-0.19154   -0.080451   -0.060638    0.080328     0.96316      1.7099     -0.5472
-0.17237   -0.057715   -0.046996     0.13977      1.1353      2.0526    -0.51212
-0.15418   -0.037252   -0.041799     0.18492     0.92353      2.3183    -0.45073
-0.14931   -0.036602   -0.058689     0.18004     0.24663      2.5638    -0.35784
-0.15841   -0.062912   -0.096692     0.10371    -0.81322      2.7986    -0.23279
-0.1701    -0.10449    -0.13697   -0.020687     -1.9302       2.962   -0.070382
-0.16425    -0.13729    -0.15581    -0.13372      -2.701       2.873     0.13782
-0.12495    -0.13989    -0.13859    -0.18277     -2.8247      2.3718     0.38954
-0.054792    -0.10968   -0.089221    -0.15483       -2.27      1.5225     0.65784
0.02706   -0.056741   -0.022636   -0.071682     -1.2943     0.52986     0.89137
0.099492   0.0017248    0.046548    0.032257    -0.25455    -0.44359      1.0466
0.14691    0.052395     0.10664     0.13035     0.55909     -1.3189       1.097
0.16445    0.080978     0.14821     0.20311      1.0336     -2.0631       1.045
0.15666      0.0852     0.16608     0.23201      1.2022     -2.6146     0.90989
0.13555    0.073182     0.15893     0.20603      1.1444     -2.9073     0.72442
0.11183    0.051096     0.12937     0.13262     0.95796     -2.9297     0.52272
0.087474    0.027385    0.088448     0.03453     0.74391     -2.7416     0.33205
0.061489   0.0078962    0.048172    -0.05739     0.57274     -2.4743     0.17127
0.03453  -0.0083442    0.014392    -0.11943     0.42917     -2.2813    0.045899
0.010495   -0.023285   -0.011592    -0.14379     0.22129     -2.2823   -0.052843
-0.0096434   -0.038876   -0.030756    -0.13989    -0.12885     -2.4951    -0.13372
-0.026858    -0.04927   -0.038551    -0.12203    -0.58455     -2.7945    -0.20453
-0.039526    -0.04862    -0.03238    -0.10221     -1.0169     -2.9914    -0.26364
-0.042774   -0.034654    -0.01549   -0.085973     -1.2946     -2.9319    -0.30489
-0.035303   -0.015165   0.0078962   -0.074605     -1.3517     -2.5165    -0.32146
-0.019388   0.0023744    0.028034   -0.069733     -1.2157     -1.7201    -0.31821
-0.0011985    0.017965    0.036804   -0.071357    -0.97075    -0.68752    -0.31269
0.012768    0.032582    0.030633   -0.076229    -0.71188       0.258    -0.31626
0.024461    0.046223    0.018615   -0.077203     -0.4988     0.77347    -0.33218
0.033556     0.06019   0.0072465   -0.070058    -0.34387     0.71273    -0.35719
0.040702    0.074157  0.00042559    -0.05804    -0.23019     0.15731    -0.38025
0.04395    0.082927 -0.00054884   -0.043099    -0.13372    -0.61996    -0.39032
0.046223    0.080978   0.0046481   -0.025559   -0.044073     -1.2705    -0.38642
0.049147    0.073182    0.012119  -0.0057458    0.042651     -1.4901    -0.36726
0.057592     0.06831    0.021213    0.017316     0.13002     -1.0903    -0.32211
0.080003     0.06896    0.033231    0.048172     0.23201   -0.060638    -0.23181
0.11736    0.075131    0.055643    0.084551     0.36389      1.3458   -0.088896
0.15958      0.0865    0.080978     0.11995     0.50745      2.6924    0.092671
0.19174    0.096244    0.094295     0.14107     0.61918      3.6142     0.27294
0.20408    0.095269    0.088124     0.13782     0.65102      3.9114     0.40708
0.20246    0.080653    0.064413     0.10761     0.58443      3.5688     0.47302
0.19239    0.056292     0.03453    0.062139     0.44216      2.7314     0.46815
0.17777    0.029983   0.0091954    0.017316     0.27716      1.6751     0.40384
0.15893    0.012119  -0.0089938    -0.01614     0.13782     0.69227     0.29762
0.13749    0.010819   -0.020687   -0.037902     0.06084  -0.0018481     0.18004
0.11703    0.022837   -0.027508   -0.050244    0.062139    -0.29547    0.084551
0.099817    0.038103   -0.029782   -0.055441     0.13035    -0.18114    0.030308
0.091047    0.048172   -0.023935   -0.050894     0.21902     0.24923   0.0059473
0.084226     0.05272   -0.013866   -0.035953     0.27749     0.81342   -0.010293
0.074806    0.054344  -0.0060706   -0.016789     0.27034      1.3156   -0.038227
0.059541    0.054344  -0.0054209 -0.00087364     0.19271      1.5751   -0.087272
0.038428     0.05272   -0.010943   0.0088706    0.076106      1.4884    -0.15158
0.013418    0.049796   -0.013866    0.013093    -0.03238      1.0817    -0.21525
-0.0060706    0.049147   -0.013216    0.022188   -0.088896     0.51037    -0.25455
-0.012892    0.053044  -0.0047713    0.044275   -0.069083   -0.021986    -0.25747
-0.0024977    0.061814    0.011144    0.083576     0.01829    -0.33153    -0.22791
0.017965    0.068635    0.032906      0.1297     0.14432    -0.32601    -0.18147
0.029009    0.073182    0.057917     0.16315     0.27294   -0.024909    -0.13632
0.024137    0.070259    0.077405      0.1755     0.37298     0.49218    -0.10676
0.0095202    0.061165    0.083576     0.16478     0.43404      1.0895   -0.095393
-0.0063954    0.050446    0.076755     0.13652     0.44704      1.6004   -0.094743
-0.016464    0.042001    0.063113     0.10371     0.40708      1.8772    -0.10026
-0.023285    0.035505    0.047523     0.07773     0.31289      1.8398    -0.11293
-0.03303    0.029983    0.035505    0.055968     0.17452      1.5137    -0.13307
-0.048945     0.01764    0.025111    0.035505   0.0091954        1.02    -0.16035
-0.069083  -0.0060706   0.0091954    0.013418    -0.15711      0.5068    -0.19154
-0.090845   -0.036602   -0.016789    -0.01484      -0.288    0.083251    -0.21622
-0.11228   -0.065186   -0.053168   -0.044073    -0.36076    -0.21525    -0.22889
-0.13177   -0.088896   -0.095393   -0.073955    -0.37992    -0.43871    -0.23084
-0.14964    -0.11261    -0.13534    -0.10319    -0.37245     -0.6703    -0.23181
-0.16133    -0.13534    -0.16815    -0.12982    -0.36628    -0.94022    -0.23409
-0.17075    -0.15516    -0.18764    -0.14769    -0.36985      -1.214    -0.23896
-0.18179     -0.1662    -0.19381    -0.15386    -0.36953      -1.417     -0.2435
-0.19056    -0.16945    -0.18861    -0.14411    -0.34712     -1.4407     -0.2435
-0.19348     -0.1675     -0.1714    -0.11683    -0.26916     -1.1585    -0.22012
-0.18374    -0.16035    -0.13957   -0.075579    -0.11001    -0.54005    -0.15288
-0.15776    -0.14671   -0.097341   -0.023285     0.11963     0.21252   -0.037252
-0.12008    -0.12755   -0.053492    0.029983     0.35999     0.69324     0.10242
-0.081751    -0.10774   -0.019063    0.075456     0.52402     0.56299     0.23039
-0.051219   -0.092469  0.00010078     0.10436     0.54968    -0.25487     0.30607
-0.032055   -0.079477   0.0072465     0.11378     0.43892     -1.4999     0.31127
-0.021986   -0.064536   0.0091954     0.10989     0.26222     -2.7107     0.25605
-0.013866   -0.045372    0.014392     0.10014     0.11378     -3.4552      0.1768
-0.0034721   -0.022311    0.029658    0.095919    0.054344     -3.4617     0.11963
0.012119   0.0033489    0.053694     0.10144    0.077405     -2.7312     0.11508
0.031607    0.028034    0.081627     0.11573     0.12418     -1.5242      0.1677
0.047198    0.046223     0.10144     0.12678     0.13067    -0.19511     0.25637
0.054344    0.054019     0.10436     0.12093    0.059216     0.90761     0.34245
0.047198    0.049472    0.087474    0.095269   -0.085324      1.5602     0.38337
0.028359     0.03583    0.057592    0.054668    -0.25227      1.7437     0.36324
0.0039985    0.020239    0.027709    0.013418     -0.3796      1.5764     0.30315
-0.011267    0.010495   0.0078962   -0.011917    -0.42962      1.2652     0.23624
-0.0076946   0.0091954   0.0026992   -0.018413    -0.40623      1.0164     0.18914
0.0052977    0.015692   0.0095202   -0.019063    -0.34809     0.94432     0.16608
0.015042    0.023487    0.020888   -0.022636     -0.2958      1.0129     0.15341
0.010495    0.024786    0.027385   -0.030431    -0.25812      1.0567     0.13262
-0.0063954    0.017965    0.026085   -0.040825    -0.20388     0.88942     0.09462
-0.025234   0.0072465    0.022188   -0.045697   -0.080776     0.43145    0.047198
-0.033679  0.00075039    0.026085   -0.038227     0.14334    -0.22856   0.0010752
-0.026533   0.0033489    0.037454    -0.01484     0.44639    -0.89215   -0.039526
-0.0096434    0.013743    0.051745    0.016341     0.74391     -1.4005   -0.073955
0.0095202    0.027385    0.058566    0.045574     0.92905     -1.6831    -0.10416
0.019264    0.039078    0.053369    0.060515     0.92353     -1.7282     -0.1295
0.013743      0.0433    0.038753    0.056617      0.7254     -1.5385    -0.15516
-0.0024977    0.039078    0.016991    0.034206     0.41845     -1.0948    -0.18471
-0.019063    0.029333  -0.0080194   0.0010752     0.12645    -0.38512    -0.21167
-0.027508    0.019589   -0.033354   -0.030431   -0.053168     0.52044    -0.22207
-0.025884    0.012443   -0.053492   -0.049595   -0.088896      1.4523    -0.21135
-0.01614     0.01017   -0.063886   -0.050569   -0.016464       2.226    -0.18731
-0.0034721    0.013743   -0.063561   -0.033679     0.10339      2.6703    -0.15905
0.0095202    0.020564   -0.055766  -0.0057458      0.2109      2.6651    -0.14087
0.023812    0.025761   -0.046996    0.020564     0.26417      2.1935    -0.13989
0.037454    0.028684   -0.043099    0.035505     0.25183      1.3815    -0.14834
0.048172    0.026735   -0.044073    0.033556     0.18264     0.44704    -0.14736
0.049472     0.01894    -0.04862    0.019589    0.080978    -0.39129    -0.12008
0.039078    0.011794   -0.051868  0.00010078   -0.026533     -1.0289   -0.064536
0.025111    0.010819   -0.051219   -0.018088    -0.12138     -1.5596 -0.00022403
0.015042    0.017316   -0.045372   -0.032705    -0.19836     -2.1514    0.047523
0.0065969    0.026085   -0.042124   -0.046022    -0.25975     -2.8764    0.057917
-0.00054884    0.028359   -0.045697   -0.060638    -0.30619     -3.6293    0.024137
-0.0063954    0.024461   -0.054142   -0.072331    -0.31886     -4.2101   -0.044723
-0.0076946    0.020564   -0.060313   -0.073306    -0.26299     -4.4348    -0.11943
0.0052977    0.024461   -0.057715   -0.052843    -0.10189     -4.1743      -0.161
0.037454    0.042975   -0.043748  -0.0089938     0.16705     -3.3357    -0.13534
0.084876    0.072858   -0.018738    0.048822     0.49901     -1.9026   -0.033679
0.13684     0.10371    0.016341     0.10566     0.82121    -0.10903     0.11833
0.17712     0.12125    0.054019     0.15081      1.0772      1.5147     0.27391
0.20018     0.11931    0.086175     0.17582      1.2337      2.5505     0.39214
0.2083     0.10501     0.10729     0.18394       1.273      2.9578     0.45353
0.20603    0.090722     0.11931     0.18134      1.1782       2.937     0.45938
0.19563    0.081952     0.12483      0.1742     0.96023      2.7662     0.41975
0.17517    0.076106     0.12743     0.16608     0.67018      2.6535     0.34732
0.14399    0.065712      0.1271     0.15341     0.37071      2.6749      0.2515
0.10047    0.045899     0.11931      0.1349    0.092671      2.8068     0.14529
0.053694     0.01764     0.10306     0.10859    -0.18861      2.9786    0.045574
0.013418   -0.016464    0.079679    0.073182    -0.49848      3.1293   -0.034978
-0.015815   -0.047646    0.052395    0.029658    -0.79113      3.2306   -0.086948
-0.034978   -0.063237    0.031282   -0.010943    -0.96295      3.2618    -0.10709
-0.043099    -0.05804     0.01764   -0.038551    -0.91975      3.1498    -0.09929
-0.038876   -0.037902    0.012443   -0.047971    -0.64821      2.7392   -0.063561
-0.023935   -0.011592    0.013743   -0.039201     -0.2461      1.8716 -0.00054884
-0.00087364   0.0091954    0.021213   -0.017439    0.078055     0.57176    0.072858
0.018615     0.01829    0.023162   0.0010752    0.083251    -0.86616      0.1258
0.023162    0.011794    0.015367  -0.0018481    -0.33672     -2.0368     0.13457
0.0095202  -0.0073698   0.0043233   -0.023285     -1.0406     -2.7669    0.096244
-0.014516   -0.030106 -0.00054884   -0.041799      -1.723      -3.056    0.025111
-0.041799    -0.04927   0.0085458   -0.036278     -2.1248     -2.9852   -0.058689
-0.063886   -0.057715    0.024137   -0.008669     -2.1475     -2.6484    -0.13827
-0.081101   -0.055116     0.03453    0.023487     -1.8399     -2.1719    -0.19543
-0.093769   -0.046022    0.030633    0.038428      -1.342     -1.7318    -0.21557
-0.10026   -0.036927    0.015367    0.026735    -0.80737     -1.4713    -0.19738
-0.10156   -0.034978  -0.0031473  -0.0018481    -0.35004     -1.3813    -0.15548
-0.10351   -0.046996   -0.021012   -0.032055   -0.047321      -1.331    -0.11001
-0.11228   -0.071032   -0.041799   -0.055766    0.046223     -1.2238   -0.080776
-0.12917    -0.10319    -0.06616   -0.069733   -0.090845     -1.0874   -0.067784
-0.14899     -0.1334   -0.087597   -0.078503    -0.41143     -1.0091   -0.057065
-0.15808    -0.15386    -0.10351   -0.084024    -0.80282     -1.0159   -0.035628
-0.14996     -0.1597    -0.11196   -0.089221     -1.1478     -1.1065  -0.0024977
-0.1308    -0.15191    -0.11553   -0.094418     -1.3625     -1.3241    0.035505
-0.1178    -0.13404    -0.11748   -0.096692     -1.4209     -1.7224    0.062464
-0.11651    -0.11391    -0.12105   -0.095717     -1.3466     -2.2739    0.063438
-0.123    -0.10449    -0.12657   -0.097017     -1.1906     -2.8676    0.033881
-0.1308    -0.10774    -0.13275    -0.10806     -1.0133     -3.3714   -0.015815
-0.13827    -0.11845    -0.13664    -0.12657    -0.85317      -3.693   -0.066485
-0.14574    -0.12463    -0.13502    -0.14671    -0.72357     -3.7807   -0.099615
-0.14964     -0.1178     -0.1269    -0.15873    -0.61963     -3.5965    -0.11488
-0.14411   -0.098965    -0.11066    -0.15613    -0.51342     -3.0986    -0.11423
-0.1217   -0.074605   -0.087272    -0.13307    -0.33867     -2.2278   -0.095068
-0.082725   -0.051544   -0.057715   -0.087922   -0.036278    -0.94217   -0.053168
-0.034329   -0.034329    -0.02426   -0.030106     0.38467     0.68187   0.0088706
0.012119   -0.023935    0.008221    0.024461     0.83291      2.3641    0.065387
0.042651   -0.018413    0.027709    0.061814      1.1908      3.8211    0.082277
0.047847   -0.013541    0.028684     0.07708      1.3783      4.8384     0.05272
0.036804   -0.007045    0.016991    0.078055      1.3779      4.9593 -0.00054884
0.024461   0.0043233   0.0062721    0.079354      1.2217      4.9593   -0.041799
0.022837    0.022512   0.0052977    0.092346     0.97647      4.9593   -0.046671
0.038428    0.044924    0.014392     0.11378     0.71143      4.7374  0.00010078
0.06961    0.071883    0.030308     0.13067     0.48341      4.3129    0.090722
0.10469    0.097218    0.042326      0.1336     0.32134      3.9693     0.19044
0.13035     0.11118    0.040377      0.1219     0.22812      3.6961     0.26222
0.13912     0.11118    0.024137     0.10209     0.19499      3.3768     0.27944
0.13295     0.10242   0.0023744      0.0852      0.2161      2.8409     0.24078
0.11801    0.096893   -0.014191    0.081627     0.29275       1.984     0.15828
0.10112    0.098517   -0.019388    0.089423     0.43145     0.86441    0.063113
0.092021     0.11086   -0.010293     0.10729      0.6299    -0.29158  -0.0047713
0.093321     0.12645   0.0085458      0.1284     0.83973     -1.2374   -0.021337
0.10274     0.14009    0.025761     0.14042     0.98817     -1.8796    0.011469
0.11183     0.14594    0.030633     0.13327      1.0223      -2.205    0.078055
0.11411     0.14724    0.019589     0.10014     0.92905     -2.2453     0.15666
0.10924     0.14496  -0.0044465    0.046223     0.74099     -2.0728     0.22747
0.10696     0.13814   -0.037252   -0.012242     0.52142     -1.8075     0.28106
0.11021     0.12385   -0.072006   -0.060638     0.33887     -1.5957     0.31029
0.11086     0.10306    -0.10189   -0.092469     0.23104     -1.5489     0.30834
0.10047    0.076431    -0.12463    -0.11131     0.19304      -1.672     0.27132
0.078704    0.043625    -0.14152      -0.123     0.19466     -1.8351     0.20798
0.049796    0.012443    -0.15126    -0.13145      0.2083     -1.8325     0.13814
0.022188   -0.008669    -0.15451    -0.13599     0.22097     -1.4865    0.080003
0.0043233   -0.010293    -0.14704    -0.12787     0.24208    -0.71123    0.045899
0.0075714   0.0023744    -0.12463    -0.10189     0.30217     0.45873     0.04395
0.037454    0.023812   -0.090845    -0.05804     0.43697      1.8174    0.073182
0.087799    0.047523   -0.050894  -0.0031473      0.6731       3.116     0.11898
0.14107    0.072533  -0.0096434    0.056617     0.99953      4.1151     0.15503
0.17939    0.095269     0.03583     0.11151      1.3536      4.5968     0.15146
0.19174     0.11378    0.076755     0.15309       1.641      4.4136    0.092346
0.17387     0.12223     0.10079     0.16868      1.7641       3.596   -0.018738
0.13197     0.11476    0.099817     0.15276      1.6261      2.3472     -0.1649
0.074482    0.092346    0.076106    0.098193       1.147     0.93327    -0.31886
0.015042    0.059541    0.039727    0.013093      0.3418    -0.36238     -0.4556
-0.034978    0.024461   0.0062721   -0.075904    -0.61216     -1.2777    -0.55305
-0.071032  -0.0050961   -0.013216    -0.13957     -1.4342      -1.722    -0.59982
-0.084999   -0.023935   -0.013541    -0.16912     -1.9218     -1.7272    -0.59625
-0.080127   -0.031081  -0.0018481    -0.16815     -2.0114     -1.4083     -0.5511
-0.06681   -0.033354    0.014068    -0.15223     -1.7792    -0.92463    -0.48581
-0.057065   -0.036602    0.026085    -0.13762     -1.3852    -0.44294    -0.41858
-0.058365   -0.046022    0.028684    -0.13437    -0.98601    -0.10286    -0.35816
-0.070707   -0.061937    0.020564    -0.13989    -0.67647    0.013093    -0.30619
-0.083375   -0.076879    0.012119    -0.14541    -0.47574   -0.083375    -0.25942
-0.089221     -0.0837    0.012119    -0.13989    -0.34322    -0.30977    -0.21037
-0.080127   -0.077853    0.023487    -0.11488    -0.22304    -0.60729    -0.14671
-0.05739   -0.060638    0.047198   -0.071357   -0.085324    -0.98407   -0.047971
-0.025559   -0.036927     0.07708   -0.019712    0.055643     -1.4684    0.090072
0.0023744   -0.013216     0.10534    0.025436     0.15991     -2.0192     0.24371
0.01764   0.0043233     0.11606    0.049147     0.19011     -2.5084     0.36551
0.013093   0.0069217     0.10339     0.04395     0.13912     -2.8007     0.42105
-0.008669  -0.0041217    0.073182     0.01017    0.045574     -2.8332     0.40384
-0.038876   -0.022961    0.033881   -0.043423   -0.032055     -2.6312      0.3366
-0.069733   -0.043099  -0.0015233    -0.10514   -0.056091     -2.2817      0.2502
-0.097666    -0.05804   -0.021986    -0.15841    -0.01614     -1.9075     0.16445
-0.1204   -0.065186   -0.028482    -0.19446    0.059865     -1.6152    0.084551
-0.13567   -0.069733   -0.026209    -0.21297     0.13717      -1.418     0.01894
-0.14314   -0.076229   -0.018413    -0.20908     0.17939     -1.2494   -0.026209
-0.14379   -0.087922  -0.0096434    -0.18374     0.15958     -1.0617   -0.050894
-0.13892   -0.098316  0.00042559    -0.12982    0.069934    -0.83303   -0.061613
-0.13015    -0.10449    0.013743   -0.048296   -0.059664    -0.43092   -0.064861
-0.12105    -0.10221    0.030957    0.050771    -0.16068     0.34375   -0.061288
-0.11651   -0.092794    0.046873     0.15244    -0.15126      1.4647   -0.051219
-0.12073   -0.081426    0.062789     0.23786   0.0056225      2.5882   -0.047321
-0.13177   -0.070058    0.078379     0.28918     0.27067      3.2956   -0.060313
-0.14444   -0.061288    0.090072      0.3025      0.5461      3.3466   -0.094418
-0.15516   -0.054467    0.092671     0.28268     0.70981       2.786    -0.14476
-0.16328   -0.051219    0.086824     0.23396     0.65231      1.8739    -0.19219
-0.16977   -0.054792     0.07708     0.16543     0.34959     0.96251    -0.21947
-0.17107   -0.062912    0.065387    0.093645   -0.090196      0.3824    -0.21135
-0.15808   -0.065186    0.058891    0.044599    -0.46372     0.32751    -0.15841
-0.1191   -0.049595    0.065062    0.040052    -0.59462     0.74651   -0.060963
-0.055766   -0.015815    0.086824    0.082602     -0.4228      1.3656    0.072533
0.016016    0.029333     0.11736     0.15471   -0.036278      1.8103     0.21837
0.071234    0.069934     0.13684     0.22519     0.38337      1.8002     0.33335
0.096569    0.091372     0.13067     0.25995     0.66043      1.2863      0.3798
0.090722    0.089098    0.097543     0.23883     0.70688     0.45191      0.3444
0.067011     0.06831    0.048822     0.16803      0.5448    -0.40656      0.2528
0.042651    0.045899  0.00042559     0.06961     0.26547     -1.0253     0.14854
0.026735    0.032906   -0.030106   -0.027183   -0.018738     -1.3043    0.067336
0.022188    0.031607   -0.036602    -0.10254    -0.22726     -1.3059    0.021213
0.028034    0.036804   -0.028482    -0.14769    -0.32146     -1.2202  -0.0015233
0.033881    0.039727   -0.018413    -0.16685    -0.29612     -1.2329   -0.016464
0.031607    0.037454   -0.012242     -0.1636    -0.17757     -1.3859   -0.038551
0.01829    0.032582   -0.010943    -0.14574   -0.019388     -1.6028   -0.075255
-0.0015233    0.028034  -0.0067202    -0.11618      0.1232     -1.7834     -0.1256
-0.022311    0.027385    0.003024   -0.070707     0.21512     -1.8682     -0.1727
-0.035628    0.029658    0.019264  -0.0047713     0.23331     -1.8685    -0.20063
-0.037902    0.031932    0.040052    0.077405     0.16088     -1.8182    -0.19348
-0.027833    0.037454    0.057267     0.15731   -0.021986     -1.7185    -0.14866
-0.0076946    0.046873    0.064088     0.21707    -0.30619     -1.5596   -0.071032
0.015042    0.061165    0.064413     0.24858    -0.63425     -1.3469     0.01894
0.034855    0.078704    0.064413      0.2567    -0.92495     -1.0727    0.097218
0.048172    0.092671    0.062139     0.24208     -1.1124    -0.72714     0.14334
0.053044    0.099817    0.055318     0.20603     -1.1828    -0.33867     0.14756
0.054019     0.10144    0.042975     0.15796     -1.1689    0.025436     0.11216
0.051096     0.10047    0.025761     0.10436     -1.1055     0.30737    0.050771
0.047198    0.098517   0.0056225    0.061489    -0.98309     0.49316   -0.018088
0.044275    0.098517    -0.01549     0.03583    -0.77749     0.60229   -0.072656
0.038753    0.097868   -0.032055    0.025761    -0.50075     0.65491   -0.098316
0.033881    0.097543   -0.044398    0.027709    -0.20225     0.65037   -0.088896
0.035505    0.095919   -0.050894    0.036804    0.058566     0.58865   -0.061937
0.042975     0.09397   -0.051544    0.041676     0.24176     0.49478   -0.034978
0.055643    0.091047   -0.049595     0.03518     0.32978     0.39799   -0.019388
0.066037    0.087474   -0.047971    0.019589      0.3327     0.32361   -0.015815
0.070909    0.080653    -0.04927  -0.0015233     0.28496     0.27781   -0.021337
0.06896    0.070909   -0.051868   -0.022636     0.23559     0.23656    -0.03173
0.066037     0.06084   -0.053817   -0.038227     0.22422     0.15893   -0.044723
0.067986     0.05142   -0.054142   -0.046347     0.26969    0.018615   -0.061288
0.073507    0.043625   -0.051544   -0.045697     0.36031    -0.16815   -0.082076
0.074157    0.040377   -0.045697   -0.040175     0.45873    -0.34679   -0.093769
0.069934    0.040377   -0.038551   -0.035628     0.51167    -0.46243   -0.076879
0.062789    0.039727    -0.03303   -0.036278     0.46717    -0.48808   -0.025559
0.052395    0.031282   -0.034654   -0.045047     0.31939    -0.41533    0.042651
0.038753    0.016016    -0.04862   -0.063886     0.10924    -0.23538     0.10599
0.017965  -0.0054209   -0.072656   -0.090196    -0.10644    0.041027     0.14432
-0.008669   -0.030106    -0.10156    -0.11943    -0.28086     0.34245     0.14724
-0.034004   -0.052193    -0.12527    -0.14476    -0.38804     0.55877     0.11054
-0.053168   -0.066485    -0.13924    -0.16458    -0.43449     0.60684    0.034855
-0.065186   -0.070382    -0.14411    -0.17854    -0.44326     0.48894   -0.063237
-0.068109   -0.068434    -0.14022    -0.18407    -0.42117      0.2986    -0.15321
-0.060963    -0.06551     -0.1308    -0.17822    -0.35556     0.13684    -0.19836
-0.051219   -0.063237    -0.11618    -0.16328    -0.23636  -0.0018481    -0.18212
-0.04115   -0.067784    -0.10124    -0.14541   -0.090521    -0.19901    -0.11586
-0.03173   -0.078503   -0.092145    -0.13242    0.020239    -0.47704   -0.034978
-0.020037   -0.090521   -0.090845    -0.12722    0.047198       -0.72    0.023487
-0.0076946    -0.09929   -0.095717    -0.12917   -0.015165    -0.74403    0.046873
0.0010752    -0.10189   -0.097666    -0.13275    -0.13177      -0.428    0.046548
0.0075714   -0.094743   -0.089221    -0.13242    -0.24545     0.14691    0.047198
0.017316   -0.079802   -0.072981    -0.12073    -0.32081     0.73839    0.061489
0.037454   -0.061937   -0.057065    -0.10091    -0.34322      1.0934    0.083576
0.062139   -0.044398   -0.047321   -0.080451    -0.31854      1.0759     0.10047
0.085525   -0.027508   -0.046671   -0.068109    -0.26462     0.73352     0.10631
0.10079   -0.010943   -0.047646   -0.059664    -0.19056     0.27911     0.10242
0.11118   0.0056225   -0.040175   -0.043748   -0.092469   -0.044073    0.097543
0.12093    0.017316   -0.018413   -0.010943    0.031282    -0.11521     0.10209
0.13262    0.026085    0.019264    0.039727     0.17517    0.022188     0.11703
0.14399    0.040377    0.068635     0.10534     0.31906     0.26644     0.14107
0.15244    0.064088     0.12125      0.1781     0.44379     0.51525     0.17127
0.15926    0.097218     0.16543     0.24533     0.54545     0.67505     0.19986
0.16218     0.12678     0.19434      0.2973     0.62243     0.66758     0.21837
0.15406     0.13717     0.20246     0.32783     0.64842     0.48569     0.22422
0.1271     0.12255     0.18589     0.32978     0.56527     0.23364     0.22259
0.080978    0.085525     0.14691     0.29535     0.33368    0.081303     0.21415
0.026085     0.03518     0.09462        0.22  -0.0093186     0.13555     0.18589
-0.026209    -0.01614    0.036804     0.11671    -0.36044     0.32978     0.11346
-0.070058   -0.058365   -0.019388    0.013743    -0.62126     0.52272  -0.0054209
-0.097341    -0.09182   -0.063886   -0.063886    -0.74046      0.6325    -0.14444
-0.10774    -0.11261   -0.089871    -0.10774    -0.72389      0.6783    -0.26169
-0.10546     -0.1217   -0.096042    -0.12268    -0.60502     0.74521     -0.3325
-0.095393    -0.12008   -0.090521    -0.11683    -0.42735     0.92158    -0.35167
-0.081426    -0.11033   -0.079802   -0.094418    -0.23376      1.1999     -0.3364
-0.064211   -0.099615   -0.070058   -0.059989   -0.062262      1.4526    -0.30229
-0.044723   -0.091495   -0.060638   -0.021661    0.064737      1.5319     -0.2565
-0.022311   -0.085324   -0.051219    0.013743     0.15146      1.3672    -0.19641
-0.0031473    -0.07493     -0.0405    0.045899     0.22552     0.98719    -0.12657
0.013093   -0.053492   -0.027508    0.073182     0.31776     0.49576   -0.062587
0.027709   -0.022636   -0.015815    0.094295     0.44086    0.046223   -0.012892
0.039727   0.0095202   -0.008669     0.10891      0.5906    -0.16133    0.029333
0.048497    0.035505  -0.0018481     0.11963     0.75073    0.070909    0.083251
0.055318    0.049147   0.0095202     0.12743     0.90501     0.78581     0.15763
0.065387     0.05142    0.026085     0.13197      1.0496      1.7502     0.24403
0.078379    0.052395      0.0433     0.13652      1.1873       2.545     0.31874
0.094945    0.056617    0.056292     0.14821      1.2971      2.7814     0.35804
0.11118    0.061489    0.065062     0.16478      1.3234       2.265     0.34829
0.12353    0.067336    0.071883     0.17322       1.212      1.1064      0.2921
0.12385    0.073832    0.076106     0.16283     0.95439    -0.33185     0.20635
0.10761     0.07773    0.076755     0.13684     0.59255     -1.5635     0.10924
0.07708    0.073182    0.068635     0.10144     0.20311     -2.2947    0.016991
0.044924    0.059865    0.052395     0.06019    -0.13404     -2.4629   -0.055116
0.019914    0.042975    0.029333    0.015692    -0.37538     -2.1859   -0.097666
0.0010752    0.025111   0.0078962   -0.027833    -0.51472     -1.6892    -0.11001
-0.014191    0.010819  -0.0096434    -0.06551    -0.57253     -1.2147   -0.097017
-0.032055   0.0020496   -0.022961   -0.093769    -0.59202    -0.94249   -0.070707
-0.053492  -0.0054209    -0.03173    -0.11163    -0.61021    -0.93697    -0.04927
-0.078503   -0.016464   -0.038551    -0.12105    -0.64204     -1.1335   -0.047971
-0.10384   -0.027183   -0.042774    -0.12657    -0.68102     -1.3764   -0.069083
-0.1256   -0.033679   -0.045047    -0.13015    -0.70148     -1.5025   -0.097991
-0.14346   -0.033354   -0.045372    -0.13372    -0.68167     -1.4287    -0.11878
-0.15451   -0.026533   -0.045697     -0.1334    -0.61671     -1.1777    -0.12073
-0.15158   -0.017764   -0.049595    -0.12787    -0.52154    -0.84115    -0.10286
-0.13697  -0.0044465   -0.054467    -0.11261    -0.41565    -0.52609   -0.077853
-0.11878    0.012768   -0.055116   -0.088572    -0.31724    -0.29125   -0.057065
-0.10774    0.029983   -0.046022   -0.062912    -0.24091    -0.14119   -0.053168
-0.10579    0.039727   -0.026858   -0.046671    -0.18861   -0.057065   -0.069733
-0.11163    0.042651  -0.0050961   -0.046671     -0.1636   -0.043099    -0.10319
-0.1204    0.040702   0.0088706   -0.065186    -0.15808     -0.1178    -0.14346
-0.12722    0.036804    0.012119   -0.095068    -0.15613    -0.27306    -0.18374
-0.13632    0.029658   0.0033489    -0.13307    -0.15808    -0.48256    -0.22239
-0.14931    0.014068   -0.015815    -0.17594    -0.18666    -0.74923    -0.26949
-0.1649   -0.012567   -0.040175    -0.22239    -0.26754     -1.1104    -0.33413
-0.18147   -0.046996   -0.068758    -0.26949    -0.40331     -1.5385    -0.41598
-0.19348   -0.082725    -0.10156    -0.31951    -0.56409     -1.8935    -0.50075
-0.2055    -0.11293    -0.13404    -0.36433    -0.69986     -2.0049    -0.56734
-0.21687     -0.1308    -0.16035    -0.39389    -0.77489      -1.785    -0.59852
-0.22077    -0.13307      -0.174    -0.40136    -0.78788     -1.3089     -0.5904
-0.21622      -0.123     -0.1714    -0.38707    -0.77586    -0.82361    -0.55012
-0.20128    -0.10546    -0.15483    -0.35914    -0.77554    -0.58228    -0.49783
-0.17854   -0.086298    -0.12787    -0.32406    -0.78041    -0.58845    -0.45203
-0.14476   -0.068758    -0.09117    -0.27664    -0.72227    -0.54363    -0.39616
-0.096367   -0.046347   -0.039201     -0.2029    -0.50985   -0.087597    -0.28638
-0.024909  -0.0050961    0.031282   -0.089221   -0.096367     0.92385     -0.0824
0.075131    0.059541     0.11671    0.064737     0.47789      2.3053      0.2109
0.19401     0.14594     0.20603     0.24273      1.1148      3.7175     0.54643
0.30932     0.23494     0.28528     0.41358      1.7018      4.8043     0.85499
0.39052     0.30185     0.33628     0.54675      2.1266      4.9593      1.0765
0.42073     0.33011     0.35349     0.61886      2.3225      4.9021      1.1749
0.39799     0.31711      0.3418     0.63088      2.2952      3.8533      1.1564
0.34115     0.27132     0.31484     0.60392      2.0919      2.4807      1.0583
0.27424      0.2109     0.28463     0.56202      1.7664       1.133      0.9258
0.21805     0.14821     0.25605     0.52077      1.3519    0.022837     0.79231
0.17777    0.089748     0.22779     0.48147     0.87611    -0.73559     0.66888
0.14496    0.041676     0.19596     0.43372     0.38695     -1.1241     0.54318
0.10794   0.0056225     0.15666     0.36356   -0.046022     -1.1835     0.40871
0.059541   -0.021661     0.11216     0.26839    -0.36466     -0.9623     0.27749
0.01017   -0.045697    0.069285     0.16023    -0.54915    -0.57416      0.1651
-0.030106   -0.069083    0.030308    0.065712    -0.62158    -0.23214    0.080328
-0.049595    -0.09182  -0.0018481  -0.0011985    -0.62678    -0.17335    0.017965
-0.054467    -0.11001   -0.024909   -0.035303    -0.60014    -0.48679   -0.036278
-0.055766    -0.11943   -0.036278   -0.040175    -0.55337     -1.0276   -0.093444
-0.059664    -0.12105   -0.037252   -0.027183    -0.48614     -1.5301    -0.14866
-0.065186    -0.11813   -0.034978  -0.0073698    -0.40786      -1.811    -0.18764
-0.064536    -0.11066    -0.03303   0.0069217      -0.339     -1.8468    -0.19771
-0.055441    -0.09994   -0.035628   0.0085458    -0.30327     -1.7094    -0.18179
-0.041799   -0.091495   -0.042449  -0.0031473    -0.31301     -1.5099    -0.15288
-0.033679    -0.09117   -0.055116   -0.031406    -0.36596      -1.368    -0.13762
-0.039526    -0.10124   -0.076229   -0.075255    -0.45593     -1.3582    -0.16977
-0.064536    -0.11715    -0.10286    -0.12755    -0.56604     -1.4362    -0.26007
-0.10286    -0.13534    -0.13307    -0.17854     -0.6651     -1.4765    -0.38382
-0.13989    -0.14996    -0.15646    -0.22142    -0.72389     -1.3855    -0.50075
-0.16198    -0.15321    -0.16685     -0.2461    -0.72357     -1.1556    -0.57806
-0.16035    -0.13989    -0.16068    -0.24708    -0.66575    -0.84245    -0.60209
-0.13762    -0.11326    -0.14119    -0.22629    -0.56214    -0.50465    -0.57546
-0.10026   -0.081426    -0.11618    -0.19219    -0.43644    -0.15451    -0.50595
-0.058689   -0.050244   -0.092469    -0.15711    -0.31236     0.23526    -0.40266
-0.025234   -0.027508   -0.075255    -0.12592    -0.21102     0.66466    -0.27046
-0.0076946   -0.017764   -0.068109    -0.10286    -0.14574      1.0661    -0.12235
-0.0076946   -0.018738   -0.073631   -0.094093     -0.1321      1.3113    0.013093
-0.021661   -0.022961   -0.090845    -0.10351    -0.16782      1.3062     0.11118
-0.038227   -0.025884    -0.11326    -0.11975    -0.22272      1.0742      0.1755
-0.045047   -0.023285    -0.13015    -0.13177    -0.25585     0.72929     0.22324
-0.034654   -0.012892     -0.1308     -0.1321    -0.24253     0.44086     0.27716
-0.0060706   0.0026992    -0.11553    -0.11748    -0.18407     0.39442     0.35252
0.032582    0.019264   -0.091495     -0.0837    -0.10124     0.64289     0.44184
0.072208    0.037778   -0.063561   -0.034654   -0.020037      1.0551     0.51817
0.10469    0.055643   -0.034978    0.024461    0.054668      1.4273      0.5578
0.1271    0.070584  -0.0096434      0.0852     0.12418       1.541      0.5422
0.13587    0.082602    0.008221     0.13555     0.17517      1.2061     0.46198
0.1323    0.091696    0.021538     0.16575     0.17972     0.35739     0.31809
0.11736    0.093321    0.028034     0.16965     0.10924    -0.89507     0.12807
0.094295    0.090397    0.026735     0.14724   -0.027833      -2.258   -0.070707
0.072208      0.0865    0.021213     0.11476    -0.17854     -3.3746    -0.22921
0.06084    0.081952    0.016991    0.090397    -0.26851     -3.8313    -0.29937
0.061814    0.076755    0.016991    0.086824    -0.24643     -3.2762    -0.26137
0.072208    0.070259    0.022837     0.10242    -0.11098     -1.6808    -0.13372
0.07708    0.060515    0.025436     0.11995    0.079029     0.53896    0.012768
0.064088    0.045899     0.01829     0.11671     0.25248      2.5131    0.084876
0.023812    0.021863  -0.0024977    0.087799     0.36226       3.599    0.021863
-0.039851  -0.0083442   -0.035628    0.042326     0.39572      3.5626    -0.16425
-0.11618   -0.034978   -0.076229   -0.007045     0.36551      2.6181    -0.40428
-0.18634   -0.056416    -0.11358   -0.051219     0.30737      1.3455    -0.61184
-0.23149   -0.072656    -0.13372   -0.081426     0.28528     0.40708     -0.7109
-0.23376   -0.078178    -0.12917   -0.081426     0.38402     0.24111    -0.65341
-0.17952   -0.063886   -0.094743   -0.038551     0.66076     0.73611    -0.44618
-0.077203   -0.025234    -0.03303    0.049472      1.0908      1.3282    -0.14509
0.042001    0.029658    0.046223     0.16673      1.5608      1.4802     0.16803
0.14496    0.086175      0.1219     0.28171      1.9174      1.0573     0.41715
0.20376     0.13197     0.17582     0.35771      2.0454     0.31906     0.56039
0.20993     0.16121     0.19628      0.3759      1.9181    -0.34679     0.59775
0.17972     0.16868     0.17939     0.33758      1.5663    -0.69856      0.5552
0.1271     0.15276      0.1284       0.258       1.018    -0.70278     0.47627
0.073182     0.12125    0.058566     0.15763     0.30607    -0.43254     0.39604
0.033881    0.083576   -0.007045    0.059216    -0.47477    0.011469     0.33433
0.016991    0.050446   -0.050894    -0.01614     -1.1614     0.56202     0.30347
0.016666    0.030308   -0.069083   -0.059014     -1.6142      1.1571     0.30022
0.021213    0.019589   -0.067784   -0.076229     -1.7659      1.7177     0.30932
0.024137    0.013093   -0.055116   -0.081751     -1.6431      2.1224     0.30315
0.026735   0.0075714     -0.0405   -0.084024     -1.3472       2.226     0.26352
0.029658   0.0065969   -0.026533    -0.08305     -1.0019      1.8963     0.18751
0.031607    0.010495   -0.013866   -0.078178    -0.70441      1.1262    0.089098
0.034206    0.014392  -0.0034721   -0.069408    -0.50205     0.10989  -0.0093186
0.036479    0.016341   0.0039985   -0.055116    -0.39259    -0.85187   -0.087597
0.038103    0.017316   0.0075714   -0.036927    -0.34484     -1.5431    -0.14281
0.040052    0.018615   0.0059473   -0.017439    -0.31366     -1.9062    -0.17594
0.039078    0.017965      0.0014   0.0023744     -0.2578      -2.002    -0.19511
0.032906     0.01829  -0.0021729    0.021213    -0.16165     -1.9751     -0.2068
0.01829    0.020239  0.00042559    0.033881   -0.040825     -1.9536    -0.21167
0.00010078    0.022188   0.0091954    0.033881    0.071234     -1.9653     -0.2107
-0.020362    0.020888     0.01764    0.016016     0.13684     -1.9767    -0.20485
-0.040825    0.015367    0.019264   -0.020362     0.11638     -1.9796    -0.20096
-0.065186   0.0075714     0.01017   -0.069083   -0.016464     -2.0192     -0.2068
-0.089871  -0.0050961  -0.0089938    -0.11943    -0.24318     -2.1196    -0.22791
-0.11033   -0.021337   -0.029782    -0.15873    -0.48451     -2.2333    -0.25877
-0.12138   -0.036278   -0.043099    -0.17692    -0.65114     -2.3002     -0.2867
-0.1204   -0.042124   -0.045047    -0.17627    -0.70636     -2.2927    -0.29872
-0.11033   -0.040175   -0.038876    -0.16523    -0.68427     -2.2242    -0.29742
-0.10189   -0.035628   -0.035303    -0.15581    -0.65763     -2.1196    -0.29775
-0.10124   -0.037577   -0.043748    -0.16133    -0.68199     -1.9487    -0.31886
-0.11488   -0.051219    -0.06681    -0.18277     -0.7645     -1.6272    -0.36856
-0.13762   -0.079152    -0.09929    -0.21297    -0.85999     -1.0669    -0.42832
-0.16003    -0.11326    -0.12982    -0.23571     -0.8902    -0.22629     -0.4673
-0.17042    -0.14216    -0.14639    -0.23246    -0.77651     0.79848    -0.46502
-0.1675    -0.15613    -0.14639    -0.18959    -0.48971      1.7706    -0.41403
-0.14736    -0.15093    -0.13307    -0.11553   -0.059664       2.456    -0.32731
-0.11715    -0.13047    -0.11196   -0.028482     0.43892      2.7285    -0.22889
-0.085648    -0.10514   -0.091495     0.05142      0.9219      2.6518    -0.13794
-0.056416   -0.079802   -0.072656     0.10826       1.312       2.479   -0.055441
-0.03238   -0.055441   -0.050569     0.13977      1.5488      2.4982    0.030308
-0.0054209   -0.028157   -0.020362     0.15471      1.6034      2.8295     0.14172
0.028684      0.0014    0.016991      0.1638      1.4773      3.3628     0.28691
0.071234    0.029983    0.055968     0.16933       1.196      3.8494     0.45581
0.11606    0.055318    0.087799      0.1651      0.8066      4.0531     0.61951
0.14529    0.072533     0.10177     0.14496     0.37948      3.8406     0.73644
0.14432    0.076431    0.093645     0.10469  -0.0050961      3.2021     0.76924
0.11606    0.062464    0.067986    0.050771    -0.28248       2.227     0.69844
0.074482    0.031607    0.036154  -0.0041217     -0.4176      1.1035     0.54545
0.037129  -0.0076946    0.011144   -0.048296    -0.40428    0.076106     0.36421
0.013093   -0.042774  0.00042559   -0.073306    -0.26722    -0.63132     0.21512
0.0046481   -0.060313   0.0069217   -0.072331   -0.062262    -0.92268     0.13425
0.0078962   -0.054142    0.025111   -0.043748     0.15763     -0.8457     0.12158
0.019914   -0.028482    0.045574  -0.0021729     0.35252    -0.56994     0.14269
0.034855   0.0033489    0.058891    0.036804     0.49836    -0.32666     0.15666
0.044599    0.026735    0.059541    0.062139     0.59515    -0.27923      0.1245
0.044599    0.039402     0.05142    0.073182     0.66693    -0.47152    0.033231
0.039727    0.051096    0.044599    0.081303     0.75073    -0.85252   -0.092145
0.036804    0.067336    0.051096    0.098193      0.8891     -1.3173    -0.20875
0.044275    0.090072    0.072533     0.12418      1.0931     -1.7756     -0.2867
0.067661     0.11443     0.10436     0.14821      1.2785     -2.1589    -0.32178
0.10112     0.13327     0.13197     0.15309      1.2815     -2.4405     -0.3312
0.1336     0.14334     0.13912     0.12645      0.9664     -2.6341    -0.34355
0.15211     0.13847     0.11931    0.073182     0.32296     -2.7803    -0.37765
0.15244     0.11671    0.079354    0.019589    -0.51829     -2.9277    -0.42735
0.13392    0.082277    0.037778   -0.011917     -1.3355     -3.1054    -0.47509
0.10501    0.049147    0.015367  -0.0018481     -1.9432     -3.2973    -0.49296
0.081952    0.030957    0.017965    0.047523      -2.243      -3.437    -0.46502
0.070584    0.031932    0.036479     0.11411     -2.2391      -3.437    -0.39162
0.072858     0.04395    0.053369      0.1651     -2.0121     -3.2356    -0.29093
0.080978    0.053044    0.058566      0.1768     -1.6694     -2.8452    -0.19608
0.084226    0.051096    0.045574     0.14659     -1.3024     -2.3262     -0.1295
0.075456    0.041351    0.020239    0.088124    -0.96685     -1.7392   -0.095393
0.049796    0.030633  -0.0080194    0.023162    -0.68654     -1.1728   -0.084024
0.013093    0.020564   -0.031406   -0.033679    -0.47184    -0.76644   -0.082076
-0.026533    0.009845   -0.045372   -0.079802    -0.32666    -0.61281   -0.079152
-0.063237  -0.0031473   -0.052193    -0.11521    -0.25422    -0.64627   -0.067134
-0.095393   -0.021337   -0.057715    -0.14639    -0.24675    -0.66738   -0.037577
-0.12333   -0.045372   -0.063237     -0.1727    -0.27696    -0.46015    0.011794
-0.14541   -0.068758   -0.068109    -0.19024    -0.30879     0.10501     0.07773
-0.15873   -0.085324   -0.072006    -0.19283    -0.30132      1.0457     0.15049
-0.16133   -0.086948   -0.071032     -0.1753    -0.22694      2.2172     0.21707
-0.15158   -0.073631   -0.062262    -0.13892   -0.083375      3.2638     0.27099
-0.12787   -0.050894   -0.045697   -0.091495    0.098842      3.7594     0.31029
-0.09182   -0.024585    -0.02426   -0.045047     0.27879       3.497     0.33595
-0.04862      0.0014  0.00075039  -0.0067202     0.44444      2.6375     0.35057
-0.00087364    0.024461     0.02641     0.01894     0.59515      1.6141     0.35057
0.043625    0.039402    0.050121    0.030308     0.71922     0.86182     0.32718
0.074157    0.040377     0.06896    0.028034     0.78938     0.55552     0.26742
0.080653    0.030308    0.076106    0.014717     0.77769     0.57111     0.16348
0.063438    0.015692    0.069285  -0.0041217     0.68999     0.68317     0.02641
0.028034   0.0010752    0.054668   -0.022961     0.57046     0.74976    -0.11943
-0.012567  -0.0067202    0.040377   -0.038551     0.46652     0.75365    -0.24188
-0.04115   -0.008669    0.030957   -0.045697     0.40676     0.77509    -0.30814
-0.047646  -0.0047713    0.023162   -0.040825     0.39637     0.95601    -0.29385
-0.035303   0.0017248    0.017965   -0.027508     0.40514      1.3714    -0.21005
-0.014191   0.0017248    0.013418   -0.014191     0.39442      1.9425    -0.10124
0.00010078  -0.0060706   0.0056225    -0.01614      0.3366      2.4651   -0.020362
0.0020496   -0.014191  -0.0057458   -0.029782     0.24663      2.7597   0.0046481
0.00010078   -0.013866    -0.01484   -0.042774     0.17225      2.7623  -0.0050961
0.011144  0.00075039   -0.011267   -0.036602     0.16121      2.5118  -0.0044465
0.03453    0.027385   0.0069217  -0.0024977     0.22032      2.0776    0.031607
0.063438    0.053369    0.032906    0.053694     0.31289       1.466     0.10274
0.087474    0.075131    0.058891     0.11736     0.38078     0.58898     0.18816
0.10404    0.090722    0.080003      0.1664     0.36843    -0.60631     0.26514
0.11378    0.098517    0.093321     0.18751      0.2463     -1.9458     0.31094
0.11638     0.10534    0.098193     0.17745    0.026085     -3.1203     0.31127
0.11573     0.11443    0.097218     0.14724    -0.24026     -3.8612     0.26287
0.11638     0.12548    0.091696     0.10761    -0.48873      -4.061      0.1768
0.11216     0.13327    0.080003    0.063438     -0.6651     -3.7488    0.078704
0.093321      0.1245    0.062464    0.018615    -0.73819     -3.0359    0.009845
0.059541    0.092996    0.039402   -0.019388    -0.69694     -2.0725   0.0062721
0.01764    0.044599    0.016016    -0.04927    -0.54947     -1.0753    0.061165
-0.02426   -0.008669  -0.0047713   -0.067784    -0.32568    -0.29385       0.131
-0.060638   -0.055116   -0.018413   -0.075904   -0.066485     0.11411     0.16413
-0.086623   -0.087272   -0.026858    -0.07493     0.17387     0.16673     0.13555
-0.10481    -0.10806   -0.034329   -0.070058      0.3457    0.015042    0.057592
-0.12073    -0.11975   -0.042449   -0.064536     0.43729    -0.15288   -0.025884
-0.1334    -0.12398   -0.052843   -0.055116     0.47659    -0.23798   -0.072656
-0.13534    -0.12495   -0.060963   -0.038876     0.49933    -0.26202    -0.06681
-0.12203    -0.12333   -0.063886   -0.016464     0.52174    -0.28118   -0.027183
-0.10351    -0.12105   -0.058689   0.0039985     0.53473    -0.31301    0.014068
-0.092469    -0.11683   -0.051219    0.015367     0.52369     -0.3705    0.032906
-0.093769    -0.11131   -0.051219    0.013418     0.48406     -0.5027    0.024461
-0.10449    -0.10774   -0.060313   0.0017248     0.42073    -0.77034 -0.00087364
-0.1178    -0.10968   -0.073306   -0.019063     0.33205     -1.1815    -0.02361
-0.13047    -0.11683   -0.085973   -0.051868     0.20733     -1.6597   -0.025234
-0.14054    -0.12495   -0.098316   -0.093444    0.046223     -2.0663  0.00075039
-0.14606    -0.13372    -0.10741    -0.13307     -0.1295     -2.2427    0.042326
-0.14639    -0.13892    -0.11098     -0.1597    -0.27176     -2.0527    0.083251
-0.14087     -0.1334    -0.10871    -0.16165    -0.31886     -1.4472     0.11671
-0.12463    -0.11261   -0.097666    -0.13924    -0.22954    -0.50725     0.14042
-0.097666   -0.080127   -0.081426   -0.098965   -0.031081      0.5867     0.15146
-0.070058   -0.048296   -0.063886   -0.056741     0.18751      1.5982     0.14561
-0.051544   -0.027183   -0.047646    -0.02426     0.32913      2.4141     0.12353
-0.04115   -0.013866   -0.029782  0.00010078     0.36226      3.0549     0.09397
-0.028482 -0.00087364  -0.0054209    0.028034     0.31971      3.6639    0.071558
-0.0031473    0.017965    0.028034    0.076106     0.26027      4.4149    0.067661
0.029658      0.0433    0.062789     0.14009      0.2187      4.9593    0.079029
0.059216    0.070259    0.090072     0.19953     0.19044      4.9593    0.074482
0.071558    0.090072     0.10566     0.23429     0.14399      4.9593     0.02641
0.063438    0.098517     0.10534     0.23494    0.049796      4.9593   -0.069408
0.039078    0.096244    0.093321     0.20473   -0.093119      4.9593    -0.17789
0.0088706    0.085525    0.069285     0.15536    -0.26137      3.4304    -0.25357
-0.016464    0.071558    0.033231    0.098193    -0.43157      1.4153    -0.27923
-0.038227    0.056942  -0.0093186    0.037778    -0.58845    -0.51309    -0.27111
-0.059339    0.042001    -0.04927   -0.016464    -0.70668     -1.9923    -0.26397
-0.079152    0.029009   -0.079802   -0.050569    -0.76547      -2.928    -0.28021
-0.094418     0.01894   -0.097341   -0.055441     -0.7528      -3.373    -0.31983
-0.098641    0.022188   -0.098316   -0.028807    -0.67907     -3.4032    -0.36368
-0.083375    0.042001   -0.084349    0.023487    -0.57318     -3.1145    -0.38707
-0.050569    0.071883    -0.05804    0.084551    -0.47282     -2.6981    -0.38869
-0.008669    0.099817   -0.026209     0.13555    -0.39974     -2.3713      -0.377
0.031607     0.11833   0.0059473      0.1716     -0.3442     -2.1482    -0.35004
0.067986      0.1297    0.034855     0.20018    -0.26527     -1.7529     -0.2893
0.10729     0.13977    0.062464     0.23169    -0.11618    -0.89052    -0.18212
0.15861     0.15536    0.095919     0.27196     0.11671     0.39637   -0.043099
0.21935      0.1768     0.13425     0.31646     0.40189      1.6823    0.089098
0.27619      0.2044      0.1716     0.35836     0.69064      2.5453     0.18232
0.31646     0.23234     0.20278     0.39247     0.94691      2.7788     0.23071
0.33823      0.2528     0.22227     0.40773      1.1308      2.4466     0.25085
0.34245     0.25702     0.22812     0.39247      1.1879      1.8684     0.26352
0.33628     0.24078     0.21707     0.34537       1.085      1.4042     0.28366
0.32069     0.21155     0.18979     0.27326     0.84005      1.2561     0.31322
0.29405     0.17485     0.15016     0.18654     0.52272      1.4315     0.35479
0.25215     0.13425     0.10112    0.094945     0.20538      1.7862     0.40384
0.20051    0.093321    0.045899    0.012768    -0.05739      2.0945     0.44216
0.14756    0.056942   -0.011592   -0.053168     -0.2461      2.1321     0.45061
0.10599    0.024137   -0.062912    -0.10026    -0.35654      1.8142     0.42138
0.080003  -0.0031473   -0.099615    -0.12885    -0.38545      1.2714     0.36421
0.063113   -0.023935    -0.11586    -0.13924    -0.33965     0.74943      0.2986
0.048822   -0.039201    -0.11293    -0.13697    -0.22791     0.44054      0.2463
0.034206   -0.046022    -0.10059    -0.12657   -0.070058     0.34505     0.22292
0.016341   -0.047321   -0.088896    -0.11553    0.097543     0.23754     0.23299
-0.0054209   -0.045372   -0.084349    -0.10806     0.23071    -0.15678     0.26709
-0.025884   -0.042449   -0.085324    -0.10416      0.2895    -0.94249      0.3012
-0.040175   -0.044073   -0.085973    -0.10644      0.2554     -1.9806     0.30802
-0.047321   -0.052193    -0.08305     -0.1204     0.14334     -2.9917     0.27099
-0.051544   -0.061937   -0.080127    -0.15093   0.0062721     -3.7261     0.18946
-0.054142   -0.072656   -0.084674    -0.19673     -0.0837     -4.0629    0.076755
-0.061288   -0.085648   -0.097991    -0.24643   -0.059339     -4.0197     -0.0405
-0.080776    -0.10091    -0.11293     -0.2854     0.13035     -3.7115    -0.14346
-0.11651    -0.11813    -0.12203    -0.30262     0.49153     -3.2714    -0.21427
-0.15905    -0.13275    -0.12073    -0.29353     0.96575     -2.7887    -0.24545
-0.19348    -0.14184    -0.10449    -0.26819      1.4286     -2.3112    -0.23896
-0.20713    -0.14509   -0.084674    -0.25098      1.7073     -1.8932    -0.20778
-0.19901    -0.14834   -0.075904    -0.26267      1.6008     -1.6113    -0.16782
-0.18407    -0.16003   -0.084349    -0.30814     0.98427     -1.5596    -0.14054
-0.17919    -0.18374    -0.10384    -0.36596   -0.069083     -1.7633    -0.14541
-0.19381    -0.21979    -0.12203    -0.39389     -1.2355     -2.1375    -0.18764
-0.22337     -0.2591     -0.1256    -0.36109      -2.168     -2.4837     -0.2539
-0.25552    -0.28605    -0.11228    -0.26494     -2.6851     -2.5597    -0.31886
-0.27664    -0.29385    -0.08305    -0.13502     -2.7747     -2.1911    -0.35491
-0.27696    -0.28281   -0.044723   -0.018413     -2.5607     -1.3433    -0.34842
-0.25617    -0.25682  -0.0073698    0.049796     -2.2258    -0.13047    -0.30035
-0.21849    -0.22044     0.01829    0.065062      -1.915      1.2266    -0.22661
-0.17659    -0.18309    0.025436    0.037454     -1.6782      2.5118    -0.15029
-0.13859    -0.14996    0.019914  -0.0037969     -1.4966      3.5788    -0.09117
-0.11098     -0.1243    0.014392   -0.035953     -1.3287      4.2629   -0.060313
-0.095068    -0.10514    0.012443   -0.046347     -1.1484      4.3863   -0.061937
-0.084024   -0.088896    0.014392   -0.037577    -0.96198      3.8094   -0.092145
-0.071682   -0.074605     0.01764   -0.018413    -0.78269       2.544    -0.13827
-0.053817   -0.060638    0.022188 -0.00087364    -0.61411     0.85499    -0.17367
-0.033354   -0.043748    0.031932    0.010495    -0.45366    -0.74143    -0.18082
-0.016464   -0.026533    0.046873    0.016991    -0.29417      -1.723    -0.15905
-0.007045   -0.012567    0.065387    0.023812     -0.1269     -1.9293    -0.11261
-0.00022403  -0.0011985    0.080653    0.038103     0.05272     -1.4901   -0.044723
0.011794    0.010819    0.092671    0.059865     0.23169    -0.72909    0.043625
0.033231    0.024786     0.10047    0.084876      0.3876   0.0017248     0.14724
0.059541    0.041027     0.10177     0.10306     0.49836     0.45743     0.24273
0.083576    0.057917    0.094295     0.10729     0.56981     0.57501     0.30055
0.098517    0.072858    0.082602     0.10079     0.62665     0.45028     0.30282
0.10079    0.081303    0.069285    0.087799      0.6848     0.28008     0.26092
0.094945    0.081303    0.057592    0.072208     0.74521     0.25378     0.20538
0.090397     0.07708    0.046548    0.065062     0.79653     0.41261     0.16608
0.096569    0.078704    0.037454    0.071883     0.81569     0.62665     0.14302
0.11281    0.091372    0.028684    0.086175     0.77996     0.70006     0.11183
0.13002     0.10924    0.016341    0.095269     0.68187     0.50388    0.046223
0.1336     0.12158 -0.00087364    0.091696     0.52694    0.021863    -0.06616
0.11606     0.11963   -0.023285    0.078055     0.33043    -0.63392    -0.21979
0.078055     0.10047    -0.04992    0.062464     0.10274     -1.2894    -0.38772
0.028359    0.069285   -0.078178    0.053044    -0.13567     -1.8084    -0.53421
-0.021012    0.036154    -0.10319    0.053044    -0.34874     -2.1313    -0.62223
-0.057715    0.013418    -0.11715    0.058241    -0.49978      -2.282    -0.63652
-0.075255    0.010819    -0.11878    0.062789    -0.57059     -2.3275    -0.58293
-0.073306    0.026085    -0.11001    0.060515    -0.56896     -2.3343    -0.48776
-0.056741    0.047523   -0.096042    0.051096    -0.51959     -2.3535    -0.38512
-0.035628    0.066362   -0.086948     0.03518     -0.4543     -2.4074    -0.30035
-0.017439    0.076106   -0.087272     0.01017    -0.40104     -2.4528     -0.2448
-0.0011985    0.075131   -0.096042   -0.014191    -0.35881     -2.3837     -0.2133
0.015367    0.070909    -0.10546   -0.026858      -0.301     -2.0403    -0.19348
0.032906    0.067986    -0.11293   -0.025559    -0.20745     -1.2345    -0.16068
0.050446    0.071234    -0.11326   -0.012567   -0.073955     0.15309   -0.087922
0.065712    0.080003    -0.10936   0.0046481    0.077405      1.9535    0.040052
0.076755    0.089098    -0.10611     0.01764      0.2135      3.7325     0.20765
0.083576    0.092671    -0.10903     0.01764     0.29275      4.9593     0.36453
0.080653    0.087474    -0.11586 -0.00087364      0.2908      4.9596     0.45158
0.063438    0.070909    -0.12365   -0.039526      0.2096      4.9599     0.43469
0.030957    0.046548    -0.12982   -0.089221    0.089748      4.1518     0.33108
-0.0018481    0.024461    -0.12982     -0.1295     0.01017      3.1192     0.19986
-0.017114    0.012768    -0.12073    -0.14152     0.06084      2.4456     0.10761
-0.0083442    0.015367    -0.10156    -0.11553     0.26904      2.2536    0.085525
0.017316    0.030957   -0.073306    -0.05804     0.56916      2.2364     0.12872
0.051096    0.058241   -0.036602    0.017965     0.83843      1.8564      0.2148
0.089423    0.094945    0.003024     0.10144     0.97355     0.76145     0.32036
0.13067      0.1362    0.044275      0.1768     0.94594    -0.89994     0.42397
0.1703      0.1729    0.083251     0.22617     0.82674     -2.4723     0.51135
0.20018     0.19823     0.11768     0.24501     0.73579     -3.4162     0.56786
0.21545     0.20895     0.14237     0.24338      0.7582     -3.5845     0.59352
0.21837     0.20928     0.15568     0.23851     0.89852     -3.1843     0.59093
0.21772     0.20278      0.1625     0.24338      1.0853     -2.5893     0.56397
0.2174     0.19466     0.16543     0.26092      1.2324     -2.1475     0.51297
0.21317     0.18394     0.16413     0.28073       1.287     -2.0251     0.43924
0.19401     0.16543     0.15114     0.28138      1.2318     -2.1365     0.34472
0.15828      0.1349     0.12613     0.25118      1.0752     -2.2333     0.23916
0.11378    0.096569    0.091372     0.19693     0.84785     -2.0728     0.13879
0.067661    0.055318    0.055968     0.13555     0.59352     -1.5541    0.056942
0.022512    0.017316    0.023812    0.080653     0.34407    -0.76255  -0.0067202
-0.019388   -0.013866  -0.0011985     0.03583     0.11476    0.070909   -0.056741
-0.050569   -0.032705   -0.018088      0.0014    -0.09117     0.69714   -0.098641
-0.065835   -0.039526   -0.025559   -0.024909    -0.27274      1.0203     -0.1308
-0.063886   -0.041799   -0.026858   -0.043423     -0.4267      1.0892    -0.14866
-0.055116   -0.046022   -0.025559   -0.055116    -0.54752      1.0002    -0.14996
-0.045697   -0.051544   -0.025884   -0.059339     -0.6284      0.8433    -0.13534
-0.043423   -0.059014   -0.029782    -0.05804    -0.65439     0.67245    -0.10903
-0.046671   -0.061288     -0.0405   -0.048945     -0.5891     0.49706   -0.078178
-0.04992   -0.052843   -0.054467   -0.031081    -0.40363     0.32166   -0.051868
-0.048945   -0.035628    -0.06616  -0.0034721    -0.09929     0.14821   -0.036278
-0.038227   -0.013541   -0.064536    0.029333     0.28626   -0.021337   -0.036927
-0.01484   0.0091954   -0.043748     0.06896     0.69681     -0.1662   -0.046671
0.017316    0.030308  -0.0037969     0.11443      1.0798    -0.22467   -0.051544
0.050446    0.049796    0.042651     0.15991       1.362    -0.13827   -0.044398
0.07708    0.065712    0.080003     0.19466      1.4416    0.065062   -0.031406
0.086175    0.072858    0.096569     0.20278      1.2233     0.25475   -0.025884
0.075131     0.06831    0.092671     0.17517     0.71468     0.28528   -0.040825
0.049472    0.053369    0.073507     0.11703    0.059541    0.084551   -0.081426
0.01764    0.033881     0.05142    0.042001    -0.51862    -0.30717    -0.14216
-0.017114    0.010819    0.031282   -0.032055    -0.84375    -0.77684    -0.21297
-0.04927   -0.017764    0.013093   -0.095393    -0.85349     -1.2111    -0.27923
-0.076879    -0.04927 -0.00054884    -0.14476    -0.58975     -1.5405    -0.33315
-0.098641   -0.074605  -0.0099683     -0.1714    -0.16295     -1.7129    -0.37278
-0.123   -0.090196   -0.017764    -0.16555     0.27586     -1.6649    -0.40104
-0.15581    -0.10124   -0.026533    -0.12787     0.53506     -1.3878    -0.42117
-0.19478    -0.11553   -0.035303   -0.081101     0.44834    -0.97497    -0.43449
-0.22824    -0.13762   -0.039526   -0.055766   -0.018738    -0.57448    -0.43059
-0.2448    -0.15938   -0.039851   -0.061288    -0.68297    -0.35914    -0.40786
-0.24221    -0.17302   -0.034654   -0.085973     -1.2384    -0.42215    -0.37343
-0.22564    -0.17205   -0.026209    -0.10806     -1.4836     -0.7174    -0.34095
-0.20875      -0.161   -0.020037    -0.11358     -1.4274     -1.1182    -0.32828
-0.20453    -0.15256   -0.021986    -0.11163     -1.2374     -1.5073    -0.34225
-0.21622    -0.15321   -0.029132    -0.11845     -1.0887      -1.812    -0.37798
-0.23474     -0.1597   -0.037252    -0.14152     -1.0494     -1.9598    -0.41533
-0.24968    -0.16685   -0.044073    -0.17172     -1.0851     -1.9039    -0.42832
-0.24545    -0.16815   -0.045697    -0.19283     -1.0994     -1.6223    -0.39519
-0.21135    -0.15905   -0.035628    -0.18569    -0.99901     -1.0874    -0.30619
-0.14996    -0.14022  -0.0089938    -0.14639    -0.74923    -0.29288    -0.16035
-0.073955    -0.11066    0.029658   -0.081101    -0.38999      0.6809    0.021213
-0.00022403   -0.071682    0.073832  -0.0076946    -0.01614      1.6706     0.20538
0.054668   -0.028157     0.10924    0.054668     0.27002      2.5797     0.36064
0.082602   0.0072465      0.1271    0.092671     0.41033      3.4343      0.4649
0.0852    0.028359     0.12548     0.10566     0.41391       4.283     0.50907
0.071558    0.037778     0.11151     0.10047      0.3418      4.9593     0.49511
0.054668    0.042651    0.097543     0.08585     0.27034      4.9593     0.44086
0.045899    0.047847    0.087149    0.067661     0.23754      4.9593     0.36518
0.046873     0.05272    0.079679    0.047523     0.23559      4.9596     0.28528
0.054668    0.053044    0.075456    0.025111     0.23624      4.9596     0.21025
0.065062    0.047523    0.073182    0.008221      0.2122      4.9593     0.15146
0.079679    0.038428    0.072858   0.0039985     0.15406      4.9593     0.11183
0.10112    0.031282    0.069285    0.010819    0.076755      4.9593    0.091047
0.12255    0.027385    0.059865    0.019589   0.0059473      4.9596    0.076431
0.1297    0.022512    0.044275    0.022837   -0.053817      4.9596    0.041676
0.11086    0.012443    0.021863    0.010819    -0.11845      4.8453   -0.030431
0.067986  -0.0011985  -0.0054209    -0.01549    -0.20128      4.0511     -0.1308
0.015042   -0.011267   -0.031081   -0.050244    -0.29677      3.0611    -0.22694
-0.029132   -0.012567   -0.046996   -0.082725     -0.3757      2.0042    -0.28508
-0.04992  -0.0021729   -0.044723    -0.10091    -0.41111     0.94399    -0.29255
-0.046671     0.01829   -0.025234   -0.098641    -0.40396    -0.17172       -0.25
-0.017764    0.046548      0.0014   -0.078178    -0.37765     -1.4011    -0.17107
0.025436    0.079679    0.026085   -0.048296    -0.36011     -2.6997   -0.077203
0.07773     0.11151    0.042001   -0.020037    -0.36498     -3.9557    0.012119
0.13067     0.13977    0.049472 -0.00022403    -0.38772     -4.9698    0.092021
0.1755     0.16218    0.053044    0.015042    -0.41111     -4.9704     0.16705
0.20538     0.17452    0.054344    0.030308    -0.41598     -4.9701     0.24598
0.2174     0.17615    0.057267    0.050121    -0.38772     -4.9701     0.32913
0.21188      0.1755    0.068635    0.076106    -0.30912     -4.9701     0.40708
0.19823      0.1742    0.087474     0.10566    -0.17205     -4.9701      0.4714
0.18492       0.169     0.10566      0.1284    0.013093     -3.7248     0.52174
0.17712     0.15568     0.10826     0.13197      0.2187     -2.0835     0.56527
0.16868     0.13425    0.092996     0.11768     0.43437    -0.27761     0.60002
0.15406     0.11021    0.067661    0.097543     0.65914      1.3812     0.60457
0.1362    0.089098    0.043625    0.083251     0.87611      2.5362     0.55747
0.11736    0.076106    0.025111    0.080978      1.0346      3.0146      0.4597
0.098517    0.067986    0.012443    0.083576      1.0788      2.8126     0.33952
0.078704    0.056942   0.0036737    0.072858     0.99174      2.0961     0.22714
0.054668    0.035505  -0.0080194    0.040377     0.80173      1.1142     0.13749
0.025111   0.0065969   -0.024585  -0.0089938     0.56462     0.10209    0.067661
-0.0041217   -0.025234   -0.046671   -0.061613      0.3327    -0.74468   0.0069217
-0.029457   -0.057065   -0.071682    -0.10741     0.12905     -1.3472   -0.053492
-0.052518     -0.0824   -0.096692    -0.14509   -0.046996     -1.7285    -0.11748
-0.076554   -0.097666    -0.11975    -0.17692    -0.19998     -1.9442    -0.18244
-0.10384    -0.10449    -0.14054    -0.20225    -0.33672      -2.067    -0.24675
-0.12917    -0.10546    -0.16198    -0.22174    -0.46275     -2.1712    -0.30912
-0.15256    -0.10903    -0.18407    -0.23409    -0.58325     -2.3028    -0.36401
-0.1714    -0.12203    -0.20485    -0.24156    -0.69759     -2.4697    -0.40136
-0.18309    -0.14022    -0.21914    -0.24286    -0.79698     -2.6507    -0.41403
-0.18959    -0.15451    -0.22304    -0.23733    -0.85414     -2.7575    -0.39811
-0.19251    -0.15905    -0.20875    -0.22044    -0.81939     -2.5967    -0.35167
-0.18894    -0.15158    -0.17562    -0.18764    -0.64464     -1.9052    -0.26267
-0.17205    -0.13242    -0.13047     -0.1334    -0.32925    -0.53453    -0.12527
-0.14444    -0.11001   -0.080127   -0.064861    0.075456      1.3052    0.041351
-0.11293   -0.088896   -0.029457   0.0017248     0.48179      3.0517      0.2096
-0.080451   -0.068758    0.014717    0.059865     0.80432      4.2301     0.35609
-0.04862   -0.047321    0.048172     0.11054     0.98914      4.5432     0.46912
-0.018413   -0.026533    0.074157     0.15471      1.0109      3.9498     0.53636
0.0049729  -0.0044465     0.10047     0.18849     0.88033      2.6794     0.55487
0.020888    0.022512      0.1258     0.20603     0.64907      1.1109     0.52759
0.028359    0.047523     0.13912     0.20278      0.3798    -0.36076      0.4597
0.028034    0.058891     0.13717     0.18037     0.13132     -1.3995     0.35674
0.021213    0.051096      0.1232     0.14659   -0.054467     -1.9172     0.22812
0.0091954    0.030957     0.10696     0.11118    -0.16328      -1.978     0.09462
-0.0034721    0.011794    0.090072      0.0852    -0.20128     -1.7474   -0.017764
-0.01549   0.0020496    0.076431    0.067986    -0.19024     -1.4693   -0.090196
-0.024585  -0.0021729    0.065712    0.055643    -0.16393     -1.3729    -0.12203
-0.033679  -0.0037969    0.057592     0.04395    -0.14834      -1.544    -0.12235
-0.046022   -0.007045    0.049796    0.029658    -0.15841     -1.9003    -0.11261
-0.060313   -0.010618    0.041676    0.015042    -0.18699     -2.2593    -0.11423
-0.070707   -0.010943    0.039727   0.0059473    -0.21849     -2.4551    -0.13924
-0.079152  -0.0057458    0.042975   0.0033489    -0.23279     -2.4132    -0.18504
-0.080776    0.003024     0.04395   0.0059473    -0.21752     -2.1449    -0.23506
-0.079152    0.010819    0.040377    0.011144    -0.18147     -1.7074    -0.26981
-0.076229    0.013418    0.030633    0.011794    -0.14314     -1.1786    -0.27534
-0.072656    0.011469    0.016341 -0.00022403    -0.12398    -0.67387    -0.24773
-0.070058    0.008221   0.0017248   -0.020687    -0.13794     -0.3338    -0.20745
-0.070707   0.0026992   -0.013216   -0.044398    -0.19056    -0.24968    -0.18504
-0.073306  -0.0047713   -0.030106   -0.062912    -0.27501    -0.40136    -0.19771
-0.075579   -0.017764   -0.050244   -0.072006    -0.36336      -0.669     -0.2435
-0.074605   -0.028482   -0.070707   -0.073955    -0.42377    -0.90579    -0.30619
-0.071682    -0.03303   -0.087272   -0.069408    -0.44229     -1.0256    -0.35654
-0.069083   -0.030106   -0.094743   -0.064211    -0.41923     -1.0403    -0.37343
-0.069083    -0.02361   -0.095393   -0.060638    -0.37603     -1.0101    -0.35621
-0.068434   -0.020037   -0.091495   -0.063561    -0.34062     -1.0256    -0.32048
-0.067784   -0.021661   -0.086948   -0.072331     -0.3338     -1.1991    -0.28638
-0.067784   -0.028482   -0.086623   -0.087272    -0.35232     -1.5924    -0.26462
-0.068758   -0.038876   -0.093444    -0.10838    -0.37992     -2.1543    -0.25325
-0.070707   -0.047321    -0.10416    -0.13112    -0.39714     -2.7055    -0.24773
-0.069733   -0.050244    -0.11423    -0.14606    -0.38545     -2.9245    -0.24026
-0.063886   -0.048945    -0.11845    -0.14931    -0.33315     -2.5006    -0.22791
-0.052843   -0.048296    -0.11748    -0.14184    -0.24383     -1.4183    -0.21622
-0.042449   -0.048945    -0.11293    -0.12917    -0.14022   -0.036278    -0.21655
-0.038227    -0.04992    -0.10968     -0.1191   -0.054467      1.1308    -0.23246
-0.042124   -0.050894    -0.11163    -0.11683    -0.01484      1.7381    -0.26429
-0.052518   -0.051219    -0.12073    -0.12268   -0.036602      1.7359    -0.30847
-0.062912   -0.052843     -0.1308    -0.12787    -0.10579      1.3075    -0.35199
-0.067459   -0.053492    -0.13242    -0.12592    -0.18017     0.77737    -0.38057
-0.060313   -0.045697     -0.1191    -0.10676    -0.20128     0.44541     -0.3718
-0.036278   -0.023935   -0.087272   -0.062587      -0.123     0.46263    -0.31626
0.0036737    0.010819   -0.042449   0.0069217    0.061165     0.81407    -0.22499
0.055968    0.053044   0.0072465    0.091696     0.31386      1.3617    -0.12625
0.10761    0.096244    0.052395     0.17745     0.59645       1.936   -0.040175
0.15471     0.13944    0.091047     0.25345     0.88455      2.3887    0.026085
0.19206     0.17777     0.11573     0.30639      1.1405       2.633    0.074806
0.2161     0.20538     0.12255      0.3314       1.312      2.6752     0.10891
0.22259     0.21642     0.11248     0.32393      1.3442      2.6174     0.12678
0.20863      0.2083    0.089098     0.28333      1.2207      2.6018     0.14009
0.17712     0.18459    0.057917     0.21935     0.98946      2.7233     0.15373
0.1336     0.15016    0.027709     0.15049      0.7228      2.9578     0.17485
0.093321     0.10989   0.0033489    0.091696     0.47692      3.1787     0.19661
0.069285    0.073507   -0.010943    0.049147     0.27684      3.2254     0.21188
0.062139    0.053369   -0.013866    0.019914     0.11995      2.9633     0.21415
0.065712    0.047198   -0.012567  -0.0024977    -0.01549      2.3394     0.20733
0.067336    0.045574   -0.015815   -0.027833    -0.15353      1.4293     0.20018
0.055318    0.040702   -0.025234   -0.053168    -0.29612     0.42105     0.19953
0.030633    0.028684    -0.03173   -0.067134    -0.41078    -0.41793      0.2122
0.0091954   0.0078962   -0.025234   -0.062912    -0.45495    -0.87753     0.24306
0.003024   -0.013541  -0.0067202   -0.043423    -0.40169     -0.9295     0.28561
0.009845   -0.030106    0.013418   -0.019388    -0.24675    -0.67875     0.32458
0.020888     -0.0405    0.026735  -0.0054209  -0.0024977    -0.25682     0.34829
0.023487    -0.04862    0.031932  -0.0076946     0.29535     0.22097     0.35057
0.011794   -0.061288    0.028359   -0.030106      0.5932     0.67018     0.33498
-0.014191   -0.078827    0.012443    -0.06616     0.84752      1.0343     0.31484
-0.046671   -0.098641    -0.01549    -0.10416      1.0229      1.2656     0.30347
-0.078827     -0.1191   -0.050569    -0.13242      1.1002      1.3367     0.29957
-0.10319    -0.13404   -0.081426    -0.13794      1.0941      1.2633     0.28885
-0.11261    -0.13567   -0.098965    -0.11358      1.0564      1.1528     0.25897
-0.09929    -0.11878   -0.094418   -0.061613     0.99564      1.1217     0.20765
-0.06551   -0.088247   -0.067134   0.0062721     0.81439      1.1843     0.13782
-0.027833   -0.060638   -0.029457    0.065062     0.37395      1.2847    0.040702
-0.0067202   -0.048296   0.0056225     0.10112    -0.34972       1.375   -0.089546
-0.008669   -0.050894    0.028359     0.10891     -1.1858      1.4104    -0.23993
-0.023935    -0.05739    0.037129    0.098517     -1.8997      1.3474    -0.39064
-0.039201   -0.055441     0.03583    0.083251     -2.3083      1.1977    -0.51732
-0.044398   -0.042774    0.034206    0.076755     -2.3362      1.0278    -0.58455
-0.03238   -0.021337      0.0433    0.083576     -2.0293     0.88325    -0.55824
-0.0024977   0.0036737    0.067661     0.10599     -1.5109     0.76892    -0.42215
0.044924    0.030308     0.10274     0.15049    -0.91326     0.63023    -0.18504
0.10761    0.062139     0.14626     0.21935    -0.33575     0.35901     0.11866
0.18264    0.099167     0.19304     0.30802      0.1768    -0.11261     0.44314
0.26449      0.1362     0.23689     0.40254     0.61724    -0.73396     0.73676
0.33563       0.169     0.27424     0.48309      0.9638     -1.3907     0.94984
0.38142     0.19044     0.29957     0.53181      1.1684     -2.0053      1.0392
0.39702     0.20051     0.30932     0.53766      1.1788     -2.5698     0.98914
0.38565     0.19401     0.30347     0.49706     0.96868     -3.1275     0.81829
0.35187     0.17127     0.28171     0.42397     0.56007     -3.7056     0.57111
0.30152     0.13392     0.24695     0.33823    0.051745     -4.2623     0.30737
0.24793    0.090072     0.20603     0.25767    -0.39292     -4.6713    0.088124
0.20083    0.054668     0.16348     0.18816    -0.63327     -4.7882   -0.041475
0.16218    0.037778     0.12418     0.13522    -0.62515     -4.5235   -0.069083
0.13295    0.037778    0.088448    0.097543    -0.42832     -3.8482   -0.010293
0.11118    0.045574    0.054344    0.067336    -0.15841     -2.7702     0.10501
0.093645     0.05142     0.01764    0.033881    0.072858     -1.3761     0.24371
0.075781    0.044924   -0.024585   -0.010293     0.19628     0.10891     0.36129
0.050771    0.024461   -0.069733    -0.06616     0.19791      1.3295     0.41943
0.01894  -0.0041217    -0.11293    -0.12625     0.10566      2.0327     0.39929
-0.015165   -0.033354    -0.14736    -0.18147   -0.034978       2.137     0.30834
-0.045047   -0.059339    -0.16945    -0.22856    -0.18082      1.7053     0.17517
-0.06616   -0.073306    -0.18147    -0.26202    -0.30262     0.92061    0.033556
-0.079802   -0.072006    -0.18894    -0.27956    -0.38642    0.014068    -0.10059
-0.09117   -0.062912    -0.19641    -0.28411    -0.43092    -0.80412    -0.22434
-0.10059   -0.052843    -0.20388    -0.28053    -0.43936     -1.4281    -0.34095
-0.10611   -0.045047     -0.2068    -0.27664     -0.4241     -1.8523    -0.45138
-0.10481   -0.039526    -0.20388    -0.27274    -0.39454      -2.092      -0.542
-0.09929   -0.035303    -0.19673    -0.27209    -0.35491     -2.1514    -0.59592
-0.093444   -0.029457    -0.18439    -0.26949    -0.31171     -2.0384    -0.60339
-0.088247    -0.01549    -0.16782    -0.26104    -0.27046     -1.7945    -0.57156
-0.083375   0.0056225    -0.14639    -0.24415    -0.23149     -1.4956    -0.51342
-0.078827    0.030633    -0.12495    -0.22726    -0.20453     -1.2114    -0.43774
-0.075255    0.049472    -0.10806    -0.21914    -0.20193    -0.98374    -0.34842
-0.078503    0.051745    -0.10189    -0.21979    -0.22694    -0.80217     -0.2526
-0.092145    0.037454    -0.10741    -0.21882    -0.27144    -0.60891    -0.16068
-0.11748    0.015042     -0.1191    -0.20355    -0.32146    -0.35654    -0.09182
-0.15093  -0.0099683    -0.12657    -0.17107    -0.36888   -0.071682    -0.07493
-0.18569   -0.034978    -0.12657    -0.13372    -0.41078     0.16088    -0.11553
-0.21232   -0.053817    -0.12333    -0.10579    -0.44066     0.23429    -0.19608
-0.22532   -0.057065    -0.11618   -0.096692    -0.43871    0.079029    -0.28183
-0.22044   -0.044398    -0.10319    -0.09994    -0.38025    -0.26657    -0.34127
-0.19836   -0.017439   -0.086298    -0.10189     -0.2461    -0.59462    -0.35394
-0.16555    0.011144    -0.06616   -0.092469   -0.061613    -0.57838    -0.31561
-0.13047    0.027385   -0.044073   -0.074605     0.10566    0.016666    -0.24318
-0.10838    0.024137   -0.029457    -0.05739     0.19661      1.1616    -0.16393
-0.10709  0.00075039   -0.025884   -0.052518     0.18881      2.5658    -0.10709
-0.1204   -0.034004   -0.033679   -0.063237    0.099817      3.8075   -0.088896
-0.14152   -0.067784   -0.051219    -0.09182   -0.046347       4.474    -0.10254
-0.16035   -0.088247   -0.075255    -0.13404    -0.22726      4.3265     -0.1321
-0.17172   -0.089871    -0.10384    -0.17919    -0.42247      3.4317    -0.15548
-0.17984   -0.082076     -0.1308    -0.21752    -0.61281      2.1256    -0.16035
-0.18959   -0.078503    -0.15451    -0.24318    -0.78009     0.80725    -0.14964
-0.20485   -0.083375    -0.17465    -0.25682    -0.89117    -0.15808    -0.13145
-0.22174   -0.093119    -0.18504    -0.25357    -0.90514    -0.52284    -0.10676
-0.22856   -0.097017    -0.17724    -0.22142    -0.78918    -0.24773   -0.067459
-0.21557   -0.087272    -0.14346    -0.15093      -0.542     0.52661  -0.0031473
-0.17822   -0.057715   -0.084024   -0.041475    -0.18796      1.5576     0.09397
-0.11553  -0.0057458  -0.0044465    0.099167     0.24468      2.6499     0.22714
-0.025884    0.067011    0.089098     0.25767      0.7228      3.6207     0.40189
0.082602     0.15114     0.18784     0.41683       1.184      4.3093     0.60392
0.19109     0.23234     0.28008     0.55455      1.5478      4.6497     0.79166
0.28138      0.2934     0.35154     0.64972      1.7368        4.64     0.90696
0.34407     0.32296     0.39344     0.69421      1.6979      4.2051      0.8917
0.37363     0.32036     0.41066     0.68642      1.4325      3.2576     0.72475
0.36973     0.29697     0.40611     0.63575      1.0151      1.8476     0.43892
0.34635     0.26319     0.38727     0.55585     0.58281     0.22324     0.11021
0.31549     0.22454     0.35804     0.46263     0.27976     -1.1712    -0.17432
0.28301     0.18264     0.32036     0.37006     0.18037     -1.9182    -0.34582
0.24923     0.13717     0.27521     0.28593     0.26482     -1.8805     -0.3835
0.21512    0.092671     0.22097     0.21415     0.43664     -1.2234    -0.31886
0.17939    0.050121      0.1664     0.15536     0.58475    -0.35524    -0.21395
0.14432    0.016341     0.11833     0.11021     0.65102     0.29665    -0.12592
0.11638  -0.0057458    0.084876    0.084226     0.65654      0.5016   -0.084024
0.10047   -0.012892    0.071234     0.07773     0.66108     0.27879   -0.079477
0.10177  -0.0080194    0.072533      0.0852     0.70331    -0.22077   -0.076554
0.11021 -0.00054884    0.077405    0.096244     0.77249    -0.84212   -0.035303
0.11573   0.0010752    0.074482     0.10306     0.82771     -1.4557    0.063113
0.10794   -0.011592    0.062139    0.096244     0.80595     -1.9273     0.19758
0.083251   -0.031406    0.042975     0.07773     0.67115     -2.1628     0.31971
0.049796   -0.048945    0.024461    0.047523     0.43242     -2.1602     0.38045
0.015367   -0.062262   0.0069217   0.0088706     0.13977     -1.9926     0.36226
-0.017114   -0.076554   -0.013216   -0.032705    -0.13794     -1.7639     0.28106
-0.048945    -0.09929   -0.036602   -0.070707    -0.34809     -1.5548     0.17225
-0.080127    -0.12852    -0.06616   -0.098641     -0.4686     -1.4174    0.070584
-0.11098    -0.15581   -0.097991    -0.11586    -0.50497     -1.3628  -0.0054209
-0.13762     -0.1714    -0.12917    -0.11878    -0.45593     -1.3524   -0.048296
-0.15808    -0.17432    -0.15061    -0.11098    -0.31821     -1.3154   -0.059014
-0.16815    -0.17042    -0.15516   -0.097991    -0.10579     -1.1812    -0.04992
-0.16847     -0.1623    -0.14834   -0.089871     0.13652    -0.90806   -0.037252
-0.16003    -0.15256    -0.13664   -0.087922     0.35576    -0.51245   -0.034329
-0.14834    -0.14119    -0.12625   -0.093769     0.51979   -0.097017   -0.043099
-0.13892    -0.12755     -0.1204    -0.10026     0.62146     0.16575   -0.059339
-0.13275    -0.11715    -0.11715    -0.10676     0.66823     0.14367   -0.071682
-0.13112    -0.10871    -0.11261    -0.11098       0.677    -0.18374   -0.076229
-0.1321    -0.09994    -0.10579    -0.10481     0.66336    -0.69726    -0.07493
-0.13112   -0.093444   -0.094418    -0.08305     0.60067     -1.2209   -0.075255
-0.12592   -0.092794   -0.078178   -0.056091     0.41066     -1.6031   -0.084999
-0.12333   -0.097666   -0.060313   -0.035953    0.033881     -1.7691    -0.11001
-0.1243    -0.10416   -0.047321    -0.03173    -0.49003     -1.7243    -0.14639
-0.1295    -0.10774   -0.045372   -0.045697     -1.0117     -1.5216    -0.18082
-0.13794    -0.10774   -0.053817   -0.070707     -1.3673     -1.2296    -0.20778
-0.14541    -0.10189   -0.065835    -0.10059     -1.4541    -0.91456    -0.22304
-0.14346    -0.09117   -0.076554    -0.12755     -1.2806    -0.62905    -0.22532
-0.1334   -0.079802   -0.080776    -0.15288    -0.98472    -0.40916     -0.2159
-0.11878    -0.06681    -0.08305    -0.18277    -0.76904    -0.27566     -0.2081
-0.10871   -0.056416   -0.088247    -0.21979    -0.74793    -0.22661     -0.2107
-0.11033   -0.051219    -0.10059    -0.26007    -0.87623     -0.2487    -0.22402
-0.11845    -0.04862    -0.11456    -0.29125    -0.99186    -0.32536    -0.24253
-0.1256   -0.046996    -0.12463    -0.30262    -0.93697    -0.43027    -0.26202
-0.12722   -0.043099    -0.12917    -0.29482     -0.6716    -0.53518    -0.27988
-0.13112   -0.039851    -0.12852    -0.27111    -0.29775    -0.61931    -0.30262
-0.14087   -0.044723    -0.12592    -0.23668  -0.0028225    -0.68394     -0.3416
-0.15776   -0.061613    -0.12592    -0.19056    0.055318     -0.7554    -0.40428
-0.17887   -0.084674     -0.1282    -0.13534    -0.15743    -0.85642    -0.48061
-0.19608    -0.10254    -0.13307   -0.077528    -0.53291    -0.94931     -0.5433
-0.20128    -0.10838    -0.13404   -0.032055    -0.90286    -0.94411    -0.57059
-0.19543    -0.10221     -0.1308   -0.010943     -1.1413    -0.77976    -0.55662
-0.18082   -0.085324     -0.1256   -0.017439     -1.1955    -0.47152     -0.5118
-0.15776   -0.062587    -0.11878   -0.045372     -1.0838   -0.096692    -0.45658
-0.12852   -0.038551    -0.11228   -0.081426    -0.85609     0.27749    -0.39876
-0.096367    -0.01549    -0.10351    -0.11261    -0.56312      0.6351    -0.32081
-0.063561   0.0056225   -0.089871    -0.12398    -0.24545     0.94399    -0.19381
-0.028157    0.021213   -0.072656    -0.11391    0.047198      1.0853   -0.010293
0.0095202    0.031282   -0.051544   -0.087597     0.27294     0.93879     0.20278
0.047198    0.037778   -0.025234   -0.055766     0.40676       0.512     0.39831
0.083576    0.044599   0.0069217    -0.02361     0.45126   -0.064536     0.52889
0.11995    0.059865    0.041351   0.0088706     0.43047    -0.61671     0.57371
0.15633    0.091047    0.075131    0.042326     0.38402    -0.99576     0.54058
0.19239     0.13457     0.10989    0.076431     0.34764     -1.1296     0.45743
0.22877      0.1781     0.14432     0.11054     0.34407     -1.0227     0.36161
0.26417      0.2109     0.17225     0.14074     0.37428    -0.74631     0.27619
0.28756     0.23234     0.18589     0.16315     0.41326    -0.40558     0.20505
0.29308     0.24371     0.18459     0.17582     0.42625   -0.093769     0.15179
0.28691     0.24338     0.16998     0.18264     0.39864     0.13035      0.1232
0.28301     0.23234     0.15049     0.18849     0.33595     0.23006     0.12872
0.28268     0.21025       0.131     0.19141     0.25995     0.17095     0.16153
0.27944     0.18102     0.11671     0.18557     0.18362   -0.070707     0.18362
0.26319     0.14561     0.10729      0.1729     0.11411    -0.43449     0.16056
0.22844     0.10761    0.097868     0.15438    0.048172    -0.76742    0.090072
0.18264    0.070259    0.084876     0.13457   -0.010943    -0.92268 -0.00022403
0.14172    0.041676    0.075131     0.11963    -0.05739    -0.85089   -0.073306
0.12125    0.026085    0.073507     0.11671    -0.08305    -0.59462   -0.097991
0.12807    0.028359    0.078704     0.12645   -0.088896    -0.22856   -0.055441
0.15503      0.0433    0.083251     0.14789   -0.088896     0.22162    0.045574
0.18719    0.066037    0.084876      0.1742   -0.098316     0.81927     0.17972
0.20863    0.088448    0.082927     0.19791    -0.11878      1.6582     0.31257
0.2083    0.095594    0.079679     0.20928    -0.15386      2.7252     0.41261
0.18687    0.081952    0.077405     0.20116    -0.20355      3.8065     0.45938
0.14951    0.053694    0.072858      0.1729    -0.26754      4.5572     0.44444
0.10242    0.023487    0.060515     0.12937     -0.3377      4.6864      0.3772
0.054993  0.00010078    0.043625    0.084226    -0.40363      4.1239     0.27489
0.015367   -0.011917     0.02706    0.049147    -0.44943      3.0679     0.16023
-0.012567   -0.016789    0.013743     0.02641     -0.4634       1.845    0.046548
-0.034978   -0.020037   0.0026992   0.0056225    -0.44781     0.71305    -0.05804
-0.062912   -0.022636  -0.0099683   -0.022961    -0.40916    -0.21557    -0.14476
-0.097341   -0.027183   -0.021661   -0.056091    -0.33705    -0.90156    -0.19673
-0.13729   -0.036278   -0.032055   -0.087922    -0.19446     -1.3404    -0.20128
-0.17335   -0.048296   -0.040175    -0.10774    0.037454     -1.4989    -0.14899
-0.19543   -0.055441   -0.046022    -0.11001      0.3327     -1.3235   -0.040825
-0.19641   -0.054467   -0.050244   -0.097341     0.62568    -0.81452    0.098842
-0.18082   -0.048945    -0.04992   -0.079152     0.85467   -0.041475     0.22747
-0.16035   -0.043423   -0.046671   -0.067134     0.99141     0.87871     0.31159
-0.14444   -0.038227   -0.046347   -0.063886      1.0411      1.8034     0.33011
-0.1321   -0.033679    -0.04862   -0.061613      1.0284      2.5888     0.28658
-0.11521   -0.029132   -0.045697   -0.045372     0.98005      3.1183     0.21252
-0.084349    -0.01549   -0.027183  0.00010078     0.91378      3.3349     0.14919
-0.038876    0.010819   0.0085458    0.075131     0.82804      3.2462     0.12483
0.012119    0.047847    0.057592     0.16153     0.71922      2.9698     0.14172
0.052395    0.083251     0.10209     0.23039     0.58475      2.6551     0.16121
0.066362     0.10047     0.12255     0.25475      0.4165      2.3056     0.12872
0.046223    0.090072     0.10891     0.22617     0.20213      1.7495   0.0056225
-0.0018481    0.057267    0.063438     0.15536   -0.066485     0.80887    -0.20453
-0.063237    0.010819   0.0043233    0.061814    -0.38707    -0.55272    -0.45268
-0.11943   -0.032705   -0.048945   -0.032055    -0.72877     -2.1345    -0.66998
-0.15873   -0.061288   -0.084349    -0.11066     -1.0419     -3.6462     -0.8025
-0.17789   -0.076554   -0.098316    -0.16263     -1.2796     -4.8233    -0.83368
-0.18114   -0.085973   -0.096042    -0.19121     -1.4047     -4.9701    -0.78041
-0.1701   -0.093769   -0.088896     -0.2016     -1.3992     -4.9701     -0.6742
-0.15321   -0.098965   -0.081751    -0.19706     -1.2582     -4.9698    -0.54525
-0.13404   -0.096367   -0.072656     -0.1753    -0.98374      -3.882    -0.40136
-0.11293   -0.084349   -0.059014    -0.13469    -0.60372     -2.4207     -0.2448
-0.085973   -0.061613   -0.037577   -0.078178    -0.18439    -0.99349   -0.087272
-0.045047   -0.030106  -0.0073698   -0.015165     0.20668    -0.01614    0.057267
0.010495   0.0065969    0.029658    0.044275     0.53636     0.38305     0.18264
0.069285    0.041351    0.062139     0.09462     0.80335     0.37525     0.28918
0.11313    0.061165    0.080003     0.12645     0.99206     0.18816     0.37136
0.13522    0.063763    0.081303      0.1336      1.0642    0.078704      0.4308
0.14009     0.05207    0.074806     0.12223      1.0099     0.38207     0.48276
