-0.2031     -1.3732    -0.67996    -0.17909    -0.28269     -1.2963    -0.17844
-0.24585     -1.5755    -0.88813    -0.30143    -0.40338     -1.3571    -0.19258
-0.28071     -1.7652     -1.0802    -0.39944    -0.46061     -1.3749    -0.20376
-0.30143     -1.9195     -1.2377    -0.44153    -0.44383     -1.3344    -0.21034
-0.30571     -2.0161      -1.343      -0.407    -0.30012     -1.2361    -0.20968
-0.29058     -2.0385      -1.392    -0.29617    0.061965     -1.0983    -0.19883
-0.26065     -1.9694     -1.3929    -0.14029     0.71148    -0.94305    -0.18173
-0.22382     -1.8044     -1.3653   0.0047422      1.6004    -0.79046    -0.16035
-0.19291      -1.584     -1.3232    0.082684      2.5298     -0.6474    -0.13864
-0.17712     -1.3834     -1.2782    0.072489       3.222    -0.51191    -0.11135
-0.1814     -1.2782     -1.2341  -0.0077547      3.4483    -0.37378   -0.073199
-0.20771     -1.2949     -1.1874    -0.10609      3.1194    -0.22875   -0.019594
-0.24849      -1.362     -1.1269    -0.16101      2.3404   -0.086025    0.050126
-0.28302     -1.3571     -1.0397    -0.15706      1.3403    0.031381     0.13366
-0.29288     -1.1904    -0.91905    -0.12121     0.33262    0.079395     0.22706
-0.26624      -0.849    -0.76283   -0.092274    -0.53394   0.0057288     0.32374
-0.19652    -0.38825    -0.57768   -0.091945     -1.1792    -0.22579     0.40925
-0.087669    0.096825    -0.37839     -0.1222     -1.5873    -0.59577     0.46812
0.043549     0.51218    -0.18271     -0.1712     -1.7685     -1.0384     0.48686
0.17674     0.82165   0.0034268    -0.22777     -1.7748     -1.4817     0.46253
0.29908      1.0394     0.19088    -0.28762     -1.6935     -1.8589     0.40826
0.40859      1.1969     0.40596    -0.33761      -1.613     -2.1125     0.34578
0.50331      1.3205     0.66708    -0.35471     -1.5857     -2.2154     0.29119
0.58421       1.409     0.96536    -0.31623     -1.6228     -2.1872     0.24778
0.6513       1.459       1.265    -0.20935     -1.7205     -2.0915     0.20864
0.71181      1.4866      1.5323   -0.025185      -1.905     -2.0056     0.17477
0.77561      1.5119      1.7477     0.23594     -2.1987     -1.9852     0.15306
0.8519      1.5438      1.9109     0.55296     -2.5203      -2.028      0.1455
0.9384      1.5761      2.0279     0.88413     -2.6518     -2.0809     0.14254
1.019      1.5909      2.0977      1.1781     -2.3717     -2.0523     0.12182
1.0657      1.5652      2.1157      1.3978     -1.6011     -1.8435    0.049139
1.0535      1.4843      2.0812      1.5307    -0.43035     -1.4074   -0.087341
0.9726        1.36      2.0056      1.5813     0.93609    -0.75034    -0.27611
0.83875      1.2419      1.9033       1.559      2.2588      0.1034     -0.4708
0.68024      1.1933      1.7819      1.4748      3.3664      1.1137    -0.62208
0.52534       1.238       1.632      1.3288      4.0935      2.2407     -0.7066
0.38886      1.3373      1.4337      1.1117      4.3214      3.4601    -0.72567
0.27606      1.4159      1.1844     0.81935      4.0347       4.697    -0.68128
0.19022      1.4057     0.90123     0.46022      3.3414      4.9598    -0.57538
0.13201      1.2863     0.62203    0.068543      2.4479      4.9594    -0.42311
0.088603      1.0903     0.38689    -0.31294      1.5843      4.9598    -0.25243
0.047166     0.86506     0.22114    -0.65069     0.92952      4.9594    -0.10346
-0.0031506     0.63913      0.1307    -0.92431     0.56579      4.9598   -0.013674
-0.061689     0.41221     0.10636     -1.1272     0.45693      4.9594  -0.0067681
-0.1199     0.16654     0.12017     -1.2598     0.48324      3.9886   -0.074186
-0.17219    -0.11069     0.13497     -1.3384     0.50495      2.4683    -0.18765
-0.22251    -0.41423     0.11458     -1.3851      0.4201      1.0933    -0.30768
-0.27545    -0.72534    0.028092     -1.4186     0.20272    0.072489    -0.41654
-0.3386     -1.0243     -0.1393     -1.4433   -0.087669    -0.52112    -0.50961
-0.41292     -1.2956    -0.37313     -1.4459    -0.33465    -0.76481     -0.5836
-0.48922     -1.5357    -0.63885     -1.4153    -0.44844     -0.8046    -0.63425
-0.55861     -1.7478     -0.9026     -1.3551    -0.41654    -0.76711    -0.65497
-0.60695     -1.9241     -1.1358      -1.269    -0.29124    -0.74771    -0.63754
-0.62241     -2.0497     -1.3222     -1.1499    -0.13667    -0.78586    -0.57604
-0.61123     -2.1191      -1.459     -1.0016   0.0044134    -0.85853    -0.48264
-0.58623     -2.1385     -1.5492     -0.8513     0.10801     -0.9026    -0.37872
-0.56683      -2.125     -1.6001     -0.7362     0.14879    -0.87498    -0.27743
-0.5642     -2.1049     -1.6241    -0.67371     0.10373    -0.78026    -0.18699
-0.57801     -2.0954      -1.631    -0.65102   -0.029789    -0.66154    -0.11529
-0.60564     -2.0967     -1.6251    -0.65694    -0.22974    -0.57472   -0.069582
-0.63951     -2.0924     -1.6024    -0.69706    -0.44581    -0.55861   -0.047877
-0.66121     -2.0464     -1.5544    -0.78355    -0.62603    -0.60695   -0.035708
-0.65694      -1.928     -1.4683    -0.92299    -0.73357    -0.67272   -0.020581
-0.61484     -1.7313     -1.3403     -1.1058    -0.75494    -0.69607   0.0063866
-0.53328     -1.4811     -1.1756     -1.3025     -0.6964    -0.63951    0.047824
-0.42838     -1.2186    -0.99436     -1.4778    -0.58393    -0.51618    0.099785
-0.31886    -0.97726     -0.8194     -1.6044    -0.45041    -0.36721     0.14813
-0.22546    -0.77138    -0.66615     -1.6629    -0.32347    -0.23895     0.18693
-0.16035    -0.59051    -0.54151     -1.6297    -0.22152    -0.16364     0.21226
-0.12154    -0.41621    -0.44318     -1.4775    -0.15805     -0.1541     0.22212
-0.099838    -0.22875    -0.35043     -1.1983    -0.15377    -0.20343     0.22475
-0.088656   -0.025514    -0.24257    -0.81677    -0.22612    -0.27743     0.23035
-0.085367       0.182    -0.10576     -0.3922    -0.39417    -0.34386     0.24284
-0.092931     0.37176     0.05177    0.017568    -0.65036    -0.37642     0.26159
-0.10937     0.52468     0.20798     0.37834    -0.93944    -0.37115     0.28066
-0.13207     0.63485     0.33624     0.69964     -1.1739    -0.35043     0.29612
-0.15279     0.70852      0.4178       1.019     -1.2808    -0.34024     0.30401
-0.15903      0.7516     0.45496      1.3873     -1.2262    -0.35504     0.30401
-0.13503     0.78251     0.46943      1.8467     -1.0322     -0.3899     0.30105
-0.073857     0.82198     0.48719       2.391    -0.76514    -0.42673     0.30138
0.01691     0.87098     0.52238      2.9603    -0.49777    -0.44975     0.30401
0.1136     0.90156     0.56382      3.4756    -0.28663    -0.46159     0.30335
0.19121     0.89071     0.59111      3.8627    -0.15443    -0.47573     0.29217
0.23002     0.83875     0.59243      4.0784   -0.092931      -0.505     0.25961
0.22574     0.77298     0.56513      4.1113   -0.070568    -0.55992     0.20568
0.1843      0.7322     0.51547      3.9673   -0.059716    -0.63359     0.14024
0.11261     0.73812     0.44806      3.6558    -0.04097    -0.71614    0.074133
0.023159     0.77922      0.3586      3.1934   -0.007097    -0.79079    0.015595
-0.074515     0.82099     0.24646       2.613    0.042891    -0.83321     -0.0265
-0.17087     0.83941     0.12116      1.9753     0.10538     -0.8365   -0.056098
-0.25572     0.83579 -0.00019077      1.3534     0.17082    -0.80624   -0.085039
-0.31426     0.83053   -0.092931     0.80652     0.21883    -0.75395    -0.11727
-0.33728     0.84007    -0.14456      0.3586     0.21292    -0.69377    -0.15015
-0.3238     0.86276    -0.15706   0.0014536     0.11754    -0.64115    -0.17811
-0.28104     0.88084    -0.14259    -0.28861   -0.074515    -0.61386    -0.19488
-0.21955     0.86769    -0.11628     -0.5369    -0.32741    -0.62109    -0.19718
-0.15279     0.80784   -0.086683    -0.76251     -0.5813    -0.65464     -0.1906
-0.088656     0.69767   -0.057743    -0.97101    -0.78487    -0.70035    -0.18074
-0.030775     0.55362   -0.029789     -1.1496    -0.89899    -0.74672    -0.16693
0.025132     0.40695   -0.007097     -1.2673     -0.9003    -0.78487    -0.14555
0.084986     0.29415   0.0093464     -1.2841     -0.8092    -0.81118    -0.11562
0.15832      0.2412    0.027105     -1.1696    -0.68654    -0.82598   -0.077803
0.24186     0.25863     0.05769    -0.92299    -0.59643    -0.81907   -0.035051
0.32473     0.33854     0.10866    -0.58886    -0.55959    -0.77599     0.01132
0.39116     0.45595     0.17181    -0.24717    -0.53822    -0.68719     0.06065
0.42964     0.57697     0.22377    0.027105    -0.47771    -0.55696     0.10932
0.42799     0.67662     0.23166     0.18069    -0.34813    -0.39878     0.15109
0.38886     0.76048      0.1797     0.20404    -0.15213     -0.2327     0.17707
0.3244     0.87723    0.075778     0.12577    0.081697   -0.080106     0.18266
0.24712      1.0946   -0.052481  -0.0008485     0.31881    0.052757      0.1774
0.16852      1.4133     -0.1735    -0.12582     0.53619     0.17016     0.16819
0.094852      1.7491    -0.26164    -0.22481     0.73549     0.27672     0.15799
0.032696      1.9747    -0.30834    -0.29255     0.92985     0.37439      0.1501
-0.015976      1.9835    -0.32051    -0.32478      1.1117     0.46647     0.14616
-0.053796      1.7362    -0.31459    -0.33268      1.2377     0.55362     0.14846
-0.081421      1.2755    -0.30604    -0.34123      1.2683     0.63091     0.14846
-0.10247     0.70457    -0.30341    -0.37411      1.2304     0.68977     0.13234
-0.11793     0.12807    -0.30768    -0.43758      1.2176     0.72957    0.094852
-0.12779    -0.40568    -0.32149     -0.5221      1.3015     0.76574    0.048482
-0.12976    -0.89997    -0.35208    -0.61024      1.4623     0.80915    0.011977
-0.12483     -1.3364    -0.39713    -0.68062      1.6034     0.84303   0.0050711
-0.11036     -1.6439    -0.44844    -0.71383      1.6244      0.8473    0.033683
-0.091287     -1.7554    -0.49053    -0.70726      1.4764      0.8131    0.090905
-0.074844     -1.6692    -0.51783    -0.67536       1.187      0.7345     0.15701
-0.071884     -1.4676    -0.53526    -0.63918     0.83382     0.61117     0.20831
-0.084381     -1.2673    -0.54874    -0.61024     0.49278     0.44773     0.22804
-0.1074     -1.1535    -0.55894    -0.59445     0.20535     0.25106     0.21522
-0.13108     -1.1545    -0.55499    -0.59544   -0.033735    0.035327     0.17937
-0.14818     -1.2466    -0.52868    -0.61682    -0.25539    -0.16791     0.13596
-0.15015     -1.4002    -0.47935    -0.65727    -0.48264    -0.31689    0.096496
-0.1393     -1.6037    -0.41785    -0.71054    -0.71844    -0.40108     0.06361
-0.11957     -1.8596    -0.35997    -0.76678    -0.94568    -0.45008    0.035985
-0.095562     -2.1572    -0.32018    -0.81545     -1.1473    -0.49711    0.013622
-0.06432     -2.4683    -0.30374    -0.85064     -1.3334    -0.54019   0.0011247
-0.02354     -2.7512    -0.30012    -0.86972     -1.5561     -0.5471   0.0017824
0.024803     -2.9607    -0.29091    -0.86445      -1.858    -0.47705    0.014608
0.08663     -3.0659    -0.25934     -0.8319     -2.2125     -0.3113    0.033354
0.16326     -3.0422    -0.19916    -0.77434     -2.5219   -0.051494    0.059334
0.24909      -2.888    -0.11825    -0.69706     -2.6542     0.30927    0.094194
0.3346      -2.616   -0.029131    -0.60892     -2.5101     0.79731     0.13958
0.41056     -2.2589    0.053743    -0.51553     -2.0694      1.4264     0.19746
0.47108      -1.855     0.12609    -0.42081     -1.4064      2.1411     0.26257
0.51087     -1.4367     0.19812    -0.32281    -0.65431      2.8123     0.32177
0.52961      -1.023     0.27968    -0.22875    0.045522      3.2875     0.37044
0.53323     -0.6257     0.36946    -0.16035     0.58585      3.4434      0.4178
0.52961    -0.27249     0.44575     -0.1495     0.93577      3.2155     0.47469
0.51975   -0.011043     0.48193    -0.21494      1.1301      2.6054     0.54047
0.501     0.11228     0.46154    -0.34912      1.2357      1.7001     0.60065
0.47305    0.095839     0.38557    -0.51059      1.3133     0.66708      0.6411
0.44214  -0.0054526     0.27902    -0.65168      1.3942    -0.26822     0.64899
0.41747    -0.10477     0.17937    -0.73521      1.4745    -0.92398     0.63189
0.4076    -0.12549      0.1113    -0.75659      1.5277     -1.2581      0.5967
0.41287   -0.034722    0.085315    -0.73685      1.5116      -1.342     0.55099
0.42767     0.15405    0.091892    -0.70956      1.4008     -1.2897     0.50429
0.44444      0.4007      0.1159    -0.69969      1.1943      -1.195     0.46384
0.45398     0.66182     0.14616     -0.7135     0.92162     -1.1078      0.4372
0.45529     0.89795     0.17674      -0.751     0.61709      -1.043     0.41122
0.4474      1.0752     0.20206    -0.81512     0.30204     -1.0055     0.36781
0.43128      1.1729     0.21851    -0.90491  -0.0077547    -0.98383     0.30138
0.40892      1.1926     0.22969     -1.0124     -0.2942    -0.94766     0.21818
0.3813      1.1568     0.23824     -1.1052     -0.5392    -0.88057     0.12938
0.34512      1.0943     0.24087      -1.141    -0.72765    -0.78191    0.048482
0.30072      1.0255     0.22969     -1.0851    -0.84834    -0.65233   -0.018278
0.24876     0.95813     0.18989    -0.92036    -0.92299    -0.48691   -0.077475
0.19976     0.88413      0.1182    -0.66286    -0.99074    -0.28762    -0.13996
0.15306     0.79468     0.02579    -0.36754     -1.0631    -0.05544    -0.21691
0.091234     0.68648   -0.065635    -0.10674     -1.0989     0.20535    -0.30637
-0.0080836     0.56447     -0.1393    0.061965     -1.0098     0.47173    -0.39911
-0.14687     0.43326    -0.19652     0.13234    -0.69542     0.69339    -0.47935
-0.31064     0.29579    -0.25112     0.13004   -0.089972     0.80422    -0.54019
-0.48067     0.16063    -0.31294    0.088275     0.75719     0.74601    -0.58393
-0.64148    0.048153    -0.38398    0.040589       1.655     0.52929    -0.61221
-0.78026   -0.025842    -0.45765    0.013622      2.3492     0.24712    -0.61649
-0.88254   -0.052481    -0.51816    0.023817       2.685    -0.01499    -0.58656
-0.93648   -0.028473    -0.54184    0.072818      2.7057     -0.2475    -0.52145
-0.9276    0.053743    -0.51026     0.14846      2.6156    -0.50106    -0.43495
-0.83551      0.2014    -0.41621     0.23594      2.6238      -0.824    -0.34747
-0.65233     0.41616    -0.25967     0.33953      2.7883     -1.2084    -0.26723
-0.39286     0.68418   -0.051823     0.47272      3.0047     -1.5929     -0.1962
-0.10313     0.98312     0.19812     0.63814      3.1073     -1.9004    -0.12812
0.1455      1.2844     0.47338     0.81343      2.9632      -2.054   -0.060045
0.29151      1.5544     0.75259     0.98049      2.5199     -1.9892    0.010662
0.32144      1.7671      1.0147      1.1377      1.8198     -1.6551     0.07512
0.26257      1.9237      1.2423      1.2913      0.9703      -1.071     0.12116
0.1751      2.0463      1.4251      1.4488     0.12807     -0.3136     0.13662
0.11195       2.168      1.5603      1.6159     -0.5494     0.52369      0.1159
0.1034      2.3078      1.6527      1.7981    -0.97561      1.3574    0.061965
0.14287      2.4518      1.7014       1.976     -1.1687      2.1075   -0.016963
0.20338      2.5722      1.6987      2.1006     -1.2269      2.6669    -0.10674
0.25797      2.6363      1.6491      2.1161     -1.2739       2.955    -0.18929
0.28724      2.6294      1.5655      2.0098     -1.3929      2.9573    -0.24158
0.28921       2.563      1.4692      1.8293     -1.5863      2.7067    -0.24553
0.26948      2.4627      1.3778      1.6642     -1.7649      2.2733    -0.21363
0.23824      2.3525      1.3061      1.5935      -1.807      1.7583    -0.18008
0.19976      2.2361      1.2551       1.628     -1.6343      1.2472    -0.18666
0.15306      2.1078      1.2051      1.7037     -1.2598     0.76837    -0.26756
0.093536      1.9562      1.1387      1.7287    -0.77566     0.26455     -0.4343
0.022172      1.7777      1.0446      1.6432    -0.29354      -0.309    -0.66976
-0.053138      1.5698     0.91801      1.4406     0.12017    -0.89899    -0.92431
-0.12023      1.3406     0.76114      1.1499     0.48324     -1.3735      -1.147
-0.16627      1.1068     0.58322     0.80257      0.8519     -1.5975     -1.2907
-0.18205     0.88249     0.39149     0.41254      1.2337     -1.4722     -1.3242
-0.17285     0.67004     0.19417  -0.0064392      1.5471    -0.98778     -1.2476
-0.15344     0.46154   -0.004466    -0.41358       1.654    -0.24388     -1.0917
-0.14029     0.25402    -0.19521    -0.75165      1.4521     0.61709    -0.89767
-0.13733    0.057032    -0.36556     -0.9812     0.93807      1.4623    -0.69772
-0.14193    -0.11793    -0.50665     -1.1042     0.22179      2.1887    -0.51355
-0.14752    -0.26624    -0.61188     -1.1473    -0.52145      2.6676    -0.36129
-0.14621    -0.38891    -0.67733     -1.1391     -1.1269      2.7458    -0.24684
-0.13766    -0.49283    -0.70989     -1.1055      -1.508       2.318    -0.17548
-0.12648    -0.58952    -0.72008     -1.0618     -1.6564      1.4014    -0.14654
-0.11793    -0.68522    -0.72501     -1.0069     -1.6192     0.16918     -0.1495
-0.11595    -0.77237    -0.73357     -0.9299     -1.4729     -1.0739    -0.16956
-0.12286     -0.8319    -0.74475    -0.83157     -1.2979     -2.0527    -0.19422
-0.13832     -0.8559    -0.75264    -0.71909     -1.1397     -2.6755    -0.21593
-0.1587    -0.85262    -0.75428    -0.59939     -1.0075     -2.9728    -0.22415
-0.18041    -0.84637    -0.75626    -0.47475    -0.91642      -3.007    -0.20869
-0.20113     -0.8684    -0.77007    -0.34616    -0.90195     -2.8298    -0.17054
-0.22053    -0.93089    -0.79671    -0.21626    -0.98975     -2.4923    -0.11233
-0.24322     -1.0266    -0.83223    -0.08175     -1.1519     -2.0444   -0.035708
-0.27545     -1.1361    -0.86873    0.079724     -1.2828     -1.5291    0.065254
-0.3113     -1.2364    -0.88978     0.29283     -1.2469    -0.97989      0.1922
-0.34221     -1.3107    -0.87333     0.57894    -0.97791    -0.43693     0.33525
-0.35866     -1.3476    -0.79934     0.92656    -0.52506    0.038616     0.48127
-0.34912       -1.34    -0.66812      1.2725   -0.019594     0.37801     0.60591
-0.32117     -1.2831      -0.505      1.5231     0.42142     0.51942     0.68352
-0.28663     -1.1733     -0.3478       1.603     0.73647     0.45496      0.7049
-0.24947     -1.0167    -0.21363      1.4958     0.89893     0.21851     0.68155
-0.21001    -0.82795   -0.094905      1.2449     0.93412     -0.1587     0.64044
-0.16495    -0.63359     0.02875     0.95418     0.91669    -0.63556     0.60262
-0.11365    -0.45205     0.17279     0.76344     0.89564     -1.1295     0.58914
-0.059716    -0.30406     0.34019     0.78218     0.84237     -1.5498      0.6046
-0.0090702    -0.20902     0.51416      1.0246     0.67497     -1.8418      0.6434
0.039602    -0.17975     0.67169      1.4093      0.3757     -1.9977     0.69471
0.088275    -0.20968     0.78153      1.7928    0.027434     -2.0418      0.7493
0.14681    -0.27644     0.82658      2.0207    -0.26263     -2.0135     0.80257
0.22212    -0.35701     0.80126      1.9766    -0.44778     -1.9599     0.84927
0.31092    -0.44581      0.7072      1.6313    -0.54874     -1.8978     0.88742
0.40037    -0.55039     0.54737      1.0805    -0.60958     -1.7843     0.91636
0.47667    -0.67371     0.33756     0.50002    -0.65431      -1.514     0.93412
0.53159    -0.80361     0.11228    0.052099    -0.68654    -0.98087     0.93741
0.5625    -0.92727   -0.092603    -0.18107    -0.70857    -0.12516     0.93017
0.56283     -1.0378    -0.25408    -0.21428    -0.75724      1.0469     0.93017
0.52764     -1.1364    -0.36523    -0.14423    -0.87662      2.4505     0.95385
0.45398     -1.2259    -0.43627   -0.078461     -1.0677      3.9492      1.0127
0.35696     -1.3084    -0.48132   -0.083394     -1.2709      4.9594      1.1081
0.2583     -1.3772    -0.50961    -0.17679     -1.4048      4.9594       1.234
0.18759      -1.413    -0.52342    -0.28203     -1.3936      4.9594      1.3732
0.16128     -1.4031    -0.53657    -0.28729      -1.194      4.9594      1.4952
0.18102     -1.3512    -0.56025    -0.12845    -0.81973      4.9594       1.555
0.23758     -1.2683    -0.60202     0.16227    -0.34123      4.9594      1.5281
0.30927     -1.1637    -0.65529     0.45989     0.12609      3.4355      1.4133
0.37209      -1.043    -0.70232     0.62762     0.46318       1.676      1.2324
0.40267    -0.90655    -0.72041     0.58486     0.59769    0.091234      1.0177
0.39281    -0.76251     -0.6895     0.34479     0.55855     -1.1003      0.8006
0.35071    -0.61452    -0.60564   -0.021896     0.45003     -1.8379     0.60624
0.29546    -0.45107    -0.47738     -0.4241     0.38228     -2.2095     0.44937
0.24876    -0.25145    -0.32708     -0.7921     0.40399     -2.3467     0.33098
0.22344   -0.002164    -0.18041     -1.0937     0.49245     -2.3802     0.23725
0.22114     0.28362   -0.062676     -1.3078     0.58355     -2.3897     0.15438
0.23035     0.57171   0.0080309     -1.4255     0.61841     -2.4036    0.063281
0.24251     0.82066    0.024803      -1.466     0.58717     -2.4036   -0.047877
0.25271      1.0052  -0.0031506     -1.4873     0.52139     -2.3388    -0.17613
0.25304      1.1291   -0.040641     -1.5429      0.4372     -2.1451    -0.31393
0.24186      1.2081   -0.054783     -1.6353     0.29645     -1.8053     -0.4583
0.2162      1.2465   -0.024198     -1.7166    0.051441     -1.3627    -0.60596
0.1797      1.2403    0.052757     -1.7346    -0.28663    -0.86051    -0.75132
0.1376      1.1897     0.15997     -1.6616    -0.64214    -0.33136    -0.89011
0.10899      1.1127     0.28461     -1.4893    -0.91872     0.16983     -1.0108
0.10472      1.0394     0.41813     -1.2203     -1.0322     0.58881     -1.0891
0.12083       0.992     0.55527     -0.8878    -0.96081     0.88676     -1.1058
0.14254     0.96668     0.69109    -0.54677      -0.751      1.0476     -1.0585
0.14944     0.94662     0.82264    -0.25342     -0.4685      1.0512     -0.9766
0.13004     0.92195     0.94103   -0.034064    -0.14851     0.85026    -0.90491
0.083999     0.89564      1.0384     0.11721     0.21785     0.42109    -0.87202
0.019212     0.87788      1.1137     0.21752      0.6684    -0.16199    -0.87991
-0.056098     0.87493      1.1775     0.28099      1.2087    -0.72896     -0.9105
-0.13305      0.8894      1.2387     0.31782      1.7468     -1.1078    -0.94207
-0.20343     0.91472      1.3011     0.34644      2.1078     -1.2213    -0.95884
-0.26657      0.9453      1.3557     0.39379      2.1312     -1.1318    -0.95456
-0.32018     0.97983      1.3814     0.47634      1.7668    -0.98153    -0.93615
-0.36392      1.0124      1.3669     0.58815       1.115    -0.91247    -0.91444
-0.39878      1.0285      1.3103     0.70523     0.37932     -0.9835    -0.89668
-0.42476      1.0203      1.2209     0.80356    -0.23862     -1.1532    -0.87728
-0.44054     0.99398      1.1216     0.87821    -0.62504     -1.3229    -0.83782
-0.44712     0.96208      1.0262     0.93544    -0.78092     -1.4146    -0.76941
-0.44482      0.9282     0.93675     0.98115    -0.77895     -1.4133    -0.66779
-0.42969     0.88874      0.8496      1.0065    -0.70561       -1.34    -0.54315
-0.40305     0.83941     0.76015     0.99858    -0.62537     -1.2127    -0.41358
-0.36819     0.77528     0.66577     0.94629    -0.56288     -1.0417    -0.28894
-0.33465     0.70227     0.56184     0.84007    -0.51355    -0.83124    -0.17712
-0.31064     0.62236     0.44312     0.67629    -0.46028    -0.59182   -0.086354
-0.30209     0.52994     0.30533     0.45332    -0.40667    -0.33728   -0.018607
-0.30867     0.41879     0.15142     0.17477    -0.37411   -0.091945    0.022501
-0.32643     0.29217   -0.010057    -0.15213    -0.39746      0.1159    0.035327
-0.34517     0.16391    -0.17383     -0.5129    -0.50138     0.26718    0.019541
-0.35668    0.052757      -0.333    -0.88879    -0.69575     0.35959   -0.014661
-0.35504   -0.033406    -0.47968     -1.2502    -0.96607     0.39609   -0.048534
-0.34024   -0.096549    -0.60169     -1.5613     -1.2653     0.37636   -0.068595
-0.3136    -0.14259    -0.69344     -1.7902     -1.5317     0.31651   -0.073528
-0.27315    -0.18238     -0.7602     -1.9211     -1.7235     0.25304    -0.06136
-0.21659    -0.23171    -0.82137     -1.9477     -1.8267     0.21292   -0.031433
-0.15048    -0.31393    -0.90293     -1.8793      -1.855     0.20601    0.015595
-0.093589    -0.44646     -1.0249     -1.7432     -1.8363     0.23659    0.071173
-0.0584    -0.63063     -1.1828     -1.5922     -1.7889     0.28428     0.12807
-0.048205    -0.84571     -1.3436     -1.4804     -1.7277     0.30302     0.17477
-0.062018     -1.0591     -1.4735      -1.441     -1.6889     0.25961     0.20272
-0.093918     -1.2371     -1.5531     -1.4692     -1.6774     0.17246     0.20963
-0.13141     -1.3604      -1.583     -1.5071     -1.5998     0.07808     0.19581
-0.16199     -1.4291     -1.5745     -1.4837     -1.2946   -0.015319     0.16063
-0.17942      -1.459     -1.5429     -1.3535    -0.58985    -0.13766     0.10669
-0.18469     -1.4686     -1.4965     -1.1098     0.57368    -0.33103    0.042233
-0.17548     -1.4785      -1.436    -0.76908      1.9809    -0.62274   -0.021238
-0.15673     -1.5044     -1.3689    -0.36721       3.223    -0.98877   -0.071555
-0.13141     -1.5603     -1.3055    0.038944      3.9317     -1.3637    -0.10378
-0.10214     -1.6537     -1.2584     0.39281       3.964     -1.6679    -0.11036
-0.06728     -1.7807     -1.2519     0.65426      3.4296     -1.8257   -0.083723
-0.025185     -1.9267     -1.2982     0.80652      2.5765     -1.8083   -0.016963
0.02283     -2.0711     -1.3887     0.85092      1.6284     -1.6406    0.084657
0.072818     -2.1849     -1.4995     0.80389     0.73877     -1.3778     0.20897
0.11853     -2.2483     -1.6028     0.68648  -0.0097279     -1.0601      0.3346
0.15142     -2.2549     -1.6771     0.52402    -0.59544     -0.7043     0.44345
0.16457     -2.2164     -1.7067     0.33953     -1.0457    -0.32643     0.52567
0.15503     -2.1615     -1.6962     0.14813     -1.3791    0.042891     0.57401
0.11919     -2.1109     -1.6567   -0.048534       -1.56      0.3757     0.59045
0.056703     -2.0701     -1.6093    -0.25769     -1.4775     0.66642     0.58585
-0.01795     -2.0227     -1.5702    -0.48823    -0.98022     0.95648     0.57631
-0.077475     -1.9428     -1.5413    -0.74409    0.019212      1.2768     0.57829
-0.10115      -1.806     -1.5044     -1.0052      1.4139      1.6014     0.59769
-0.080434     -1.5998     -1.4367     -1.2374      2.9067      1.8526     0.62696
-0.030118     -1.3387     -1.3203     -1.4031      4.1767      1.9467     0.64801
0.031052     -1.0637     -1.1522     -1.4771      4.9404      1.8549     0.63452
0.079066    -0.82598    -0.94042     -1.4456      4.9588      1.6244     0.55987
0.10406    -0.66023    -0.70232     -1.3055      4.4875      1.3413     0.41451
0.10044     -0.5711    -0.46192     -1.0762      3.5355       1.087     0.20864
0.07216    -0.53657      -0.235    -0.79112      2.5084     0.87032   -0.021238
0.031381    -0.50862   -0.025514     -0.4833      1.6777     0.60427    -0.23402
-0.0034794    -0.43758      0.1797    -0.16101      1.1568     0.16786    -0.40733
-0.015648    -0.28137     0.39379     0.19022      0.8746    -0.47705     -0.5346
0.0021113   -0.028473     0.61709     0.55362      0.6707       -1.24     -0.6178
0.041575     0.30105     0.83908     0.88841     0.41385     -1.9343    -0.65858
0.090577     0.67103      1.0482       1.162    0.059992     -2.3792    -0.66516
0.13826      1.0407      1.2387      1.3672    -0.35339     -2.4509    -0.65891
0.18003      1.3893      1.4212      1.5409    -0.71811     -2.0895    -0.66154
0.21851      1.7027      1.6129      1.7454    -0.92102     -1.3245    -0.69048
0.2583      1.9737      1.8217      2.0194    -0.92727    -0.25309    -0.73916
0.30697       2.196      2.0306      2.3325    -0.79868     0.97819    -0.77796
0.36255      2.3683      2.2206      2.5979    -0.64313      2.2279    -0.77171
0.41912      2.4989      2.3706      2.7146    -0.53394      3.4207    -0.69607
0.4622      2.5979      2.4666      2.6074    -0.46061      4.4569    -0.54808
0.48324      2.6755      2.5068      2.2782      -0.333      4.9598    -0.34715
0.47963      2.7284      2.4926      1.8326   -0.065635      4.9598    -0.11398
0.45562      2.7435      2.4292      1.4518     0.33953      4.9598     0.13169
0.41912      2.7093      2.3262      1.2995     0.79205      4.9594     0.36683
0.38162      2.6255      2.1927       1.434       1.142      4.9594     0.58026
0.35268      2.5081      2.0404      1.7872      1.2564      4.9594     0.76771
0.34216      2.3851      1.8819      2.2082      1.1012      4.7174     0.91866
0.35762       2.291       1.727      2.5327     0.79402       4.109      1.0196
0.39445      2.2453       1.578      2.6485     0.51186      3.3125      1.0565
0.43753      2.2315      1.4278      2.5249     0.37932      2.3252      1.0278
0.47141      2.2091       1.264      2.1966     0.38064      1.2199     0.93971
0.48061      2.1338      1.0818      1.7359     0.37669      0.1205     0.80455
0.45792      1.9977     0.89334      1.2324     0.23067    -0.81644      0.6365
0.40859       1.823     0.72036     0.75851    -0.10378     -1.4712     0.45365
0.34019       1.631     0.57598       0.354    -0.56354      -1.809     0.27178
0.25896      1.4264      0.4543    0.025461     -1.0302     -1.8744     0.10209
0.17411      1.2018     0.33986    -0.24553     -1.3979     -1.7626   -0.045246
0.091563     0.95155     0.21949    -0.47968     -1.6126     -1.5722    -0.17186
0.017239     0.67366    0.083013    -0.69607     -1.6777     -1.3594    -0.28795
-0.048863     0.36551   -0.070897    -0.90589     -1.6403     -1.1397    -0.40009
-0.11233    0.032367    -0.23928     -1.1101     -1.5659    -0.92529    -0.50796
-0.17745    -0.32215    -0.41555     -1.2979     -1.5097    -0.75527    -0.60892
-0.24585    -0.71186    -0.58788     -1.4574     -1.4883    -0.68292    -0.69838
-0.32018     -1.1315    -0.75231     -1.5774     -1.4831    -0.72666    -0.76941
-0.39779     -1.5242    -0.90754     -1.6455     -1.4745    -0.88123    -0.80329
-0.46652     -1.8284     -1.0588     -1.6626     -1.4653     -1.1216    -0.78388
-0.51191     -2.0309     -1.2101     -1.6376      -1.486     -1.4176    -0.70101
-0.53098     -2.1605      -1.368     -1.5656     -1.5778     -1.7251     -0.5517
-0.53164     -2.2776     -1.5465       -1.44     -1.7438     -1.9839    -0.34945
-0.52868     -2.4447     -1.7669     -1.2815     -1.9326     -2.1431    -0.11924
-0.53723      -2.689     -2.0411     -1.1387     -2.0648     -2.1858    0.098798
-0.56979     -3.0004     -2.3526     -1.0716     -2.0799     -2.1474     0.26849
-0.62701     -3.3237     -2.6515     -1.1137     -1.9694     -2.0944     0.36551
-0.70166     -3.5924     -2.8811     -1.2538     -1.7774     -2.0895     0.38557
-0.78191     -3.7647      -3.007     -1.4456     -1.5709      -2.173     0.34216
-0.85163     -3.8266     -3.0215     -1.6271     -1.3867     -2.3582     0.25238
-0.89208      -3.772      -2.935     -1.7458     -1.2058     -2.6015     0.14221
-0.89043     -3.6112     -2.7551     -1.7807    -0.98416     -2.8238    0.033683
-0.84406     -3.3694     -2.4923     -1.7547     -0.7043      -2.957   -0.054454
-0.75494     -3.0771     -2.1599     -1.7004    -0.39779     -2.9699    -0.10872
-0.63063     -2.7538      -1.778      -1.638    -0.12779     -2.8732     -0.1199
-0.47836     -2.4026     -1.3676      -1.561    0.052428     -2.6939   -0.085367
-0.30472     -2.0125    -0.94371     -1.4452     0.13399     -2.4703  -0.0087413
-0.10576     -1.5577    -0.50369     -1.2719      0.1455     -2.2467     0.10669
0.1136     -1.0039   -0.042944     -1.0434     0.13333     -2.0622     0.25172
0.33558    -0.34451     0.43786    -0.78651     0.12905     -1.9589     0.40201
0.53356      0.3859     0.91866    -0.54249     0.13991     -1.9583     0.52501
0.69536      1.1295      1.3771    -0.33333      0.1603     -2.0487     0.59309
0.81606      1.8444       1.801    -0.15246     0.18529     -2.1799      0.5921
0.8986      2.5078      2.1858    0.012964     0.22147     -2.2799     0.52698
0.94892       3.105      2.5298     0.15964     0.28559     -2.2644     0.41944
0.96865       3.621      2.8409     0.27507     0.38097       -2.03     0.29842
0.96273      4.0452      3.1283     0.35729     0.48818     -1.4676     0.19647
0.93577       4.376      3.3921     0.41254     0.58355    -0.52079      0.1284
0.89827      4.6174      3.6052     0.46121      0.6388     0.71641     0.10044
0.8575      4.7766      3.7341     0.53027     0.62959      1.9908     0.10505
0.8177      4.8552      3.7509     0.63814     0.55099      3.0353     0.13596
0.78482      4.8545      3.6476     0.78449     0.41418       3.665     0.18529
0.7664      4.7848      3.4394     0.95846     0.24778      3.8242     0.24383
0.76443      4.6631      3.1625      1.1413    0.091892      3.5512     0.28888
0.77232       4.503      2.8481      1.3117   -0.020252      2.8991     0.28888
0.77955      4.3126      2.5222      1.4383   -0.058071      1.9796     0.22212
0.77363      4.0896      2.2012      1.4807   0.0017824      1.0384    0.090248
0.74502      3.8235      1.8901      1.4083     0.15569     0.41188   -0.079777
0.69668      3.5131      1.5922      1.2235     0.36551     0.34808    -0.25638
0.62893      3.1717      1.3133     0.95287     0.56908     0.85651    -0.41555
0.5431      2.8149      1.0621      0.6434     0.72891      1.7507    -0.54085
0.43753      2.4571     0.85092       0.354     0.83776      2.7616    -0.62405
0.31322      2.1046     0.69109     0.15602     0.92228      3.6489    -0.66319
0.17411      1.7487     0.57533     0.10406     0.99858      4.2688    -0.66089
0.027105      1.3866      0.4793     0.20469      1.0479      4.5908    -0.62274
-0.11562      1.0216      0.3734     0.40596      1.0196      4.6082    -0.55532
-0.24454     0.65952      0.2458     0.63683      0.8815      4.2971    -0.46455
-0.35372     0.29415     0.10209     0.84664     0.64965      3.6167    -0.36227
-0.43923   -0.065964   -0.044588       1.016     0.37768      2.5778    -0.26361
-0.4981    -0.38529    -0.17482      1.1525     0.13826      1.2765    -0.18008
-0.53592    -0.62339    -0.27743      1.2778  -0.0064392   -0.098522    -0.12089
-0.55959    -0.76415    -0.34978       1.409   -0.022883     -1.2926   -0.093918
-0.5767    -0.82499    -0.39878      1.5333     0.06361      -2.123   -0.097864
-0.59084    -0.84045    -0.44022      1.6152     0.16885     -2.5193    -0.11529
-0.6007    -0.84933    -0.49349      1.6231     0.20239     -2.5025    -0.12648
-0.60235    -0.86676    -0.57538      1.5438    0.097154     -2.1635    -0.11727
-0.59314    -0.89438    -0.68522      1.3866    -0.13864     -1.6366   -0.079448
-0.57966    -0.93746    -0.81381      1.1798    -0.41259     -1.0509   -0.020581
-0.5642     -1.0154     -0.9493     0.96076      -0.603    -0.50829    0.045193
-0.54578     -1.1479     -1.0743     0.77363    -0.64773   -0.089972     0.10603
-0.51947     -1.3453     -1.1733      0.6457    -0.59149     0.16326     0.16063
-0.4856     -1.6005     -1.2334     0.56743     -0.5471     0.25797     0.20831
-0.45469     -1.8915     -1.2624       0.501    -0.61649     0.24547     0.24383
-0.43561     -2.1852     -1.2769      0.4076    -0.82466     0.19812     0.25929
-0.43397     -2.4414     -1.2949     0.27244     -1.1098      0.1672     0.25139
-0.44712     -2.6315     -1.3255     0.10998      -1.368     0.14648     0.22212
-0.46521     -2.7436     -1.3663   -0.051823     -1.4998    0.080053     0.18003
-0.47804     -2.7824     -1.4074    -0.18765     -1.4449   -0.070897     0.13563
-0.47869     -2.7607     -1.4403    -0.29157     -1.2015    -0.29749    0.098798
-0.46554     -2.7022     -1.4623    -0.37576     -0.8148     -0.5517    0.073804
-0.44252     -2.6324     -1.4745    -0.44909    -0.34715    -0.78092    0.062294
-0.41621     -2.5663     -1.4817    -0.52506     0.13037    -0.94404    0.057032
-0.38793     -2.5167      -1.486    -0.60991     0.54211     -1.0295    0.053086
-0.35635     -2.4838     -1.4857    -0.71515     0.83184     -1.0552    0.050455
-0.3159     -2.4565     -1.4745    -0.83683     0.99463     -1.0427    0.059663
-0.26164     -2.4121     -1.4479    -0.95292      1.0699     -1.0138    0.087617
-0.19455     -2.3351     -1.4071     -1.0394      1.1038     -0.9812     0.13859
-0.12286      -2.221     -1.3568     -1.0818      1.0992    -0.95489     0.20667
-0.055769     -2.0829     -1.3042     -1.0756       1.016    -0.93977     0.27474
0.0021113     -1.9415     -1.2558     -1.0374      0.8154    -0.92825     0.32637
0.047824     -1.8116     -1.2108    -0.99337     0.50857    -0.90589     0.35499
0.081697     -1.6965      -1.165    -0.95983      0.1751    -0.85623     0.36748
0.10669     -1.5906      -1.117    -0.93812   -0.064978    -0.77632     0.37011
0.12642      -1.486     -1.0628    -0.91444   -0.091945    -0.65858     0.36683
0.14451      -1.387     -1.0006    -0.88123     0.13728    -0.49316     0.36189
0.1672     -1.3032     -0.9299    -0.84439     0.52961    -0.26756     0.35827
0.19614     -1.2357    -0.84933    -0.81611     0.87986    0.022501     0.35762
0.22541     -1.1798    -0.76415    -0.79539      1.0025     0.35071     0.36354
0.25205     -1.1252    -0.68029     -0.7704     0.82592     0.64768     0.37932
0.27211     -1.0608    -0.60235    -0.73784     0.40037      0.8302     0.40728
0.29316    -0.97364    -0.52901    -0.69706    -0.13437     0.84039      0.4474
0.32539    -0.84966    -0.45337    -0.64247    -0.62043     0.68089     0.49771
0.37373    -0.69377    -0.37444    -0.56979    -0.93253     0.41846     0.55066
0.42799    -0.53098    -0.30078    -0.47672     -1.0029     0.14418     0.59111
0.47075    -0.39976    -0.24849    -0.36852    -0.84045   -0.079119     0.60164
0.4793     -0.3307    -0.23467    -0.25671      -0.505    -0.23566     0.57401
0.44477    -0.32741    -0.26065    -0.15279   -0.066622    -0.34024     0.50791
0.37932    -0.35109    -0.30472    -0.06136     0.41221    -0.42509     0.42043
0.31092    -0.34747    -0.33465    0.012635     0.85717    -0.52046     0.33361
0.27014    -0.28039    -0.32281    0.070516      1.1712    -0.63326     0.26586
0.2777    -0.15542    -0.25769     0.11754      1.2896    -0.74606     0.22245
0.33164   -0.017292     -0.1564     0.15207      1.2308    -0.84374     0.20568
0.41616     0.09255   -0.050836     0.16523      1.0999    -0.91378     0.20897
0.51054     0.15767    0.029736     0.15207      1.0318    -0.94141     0.22475
0.5944     0.18726    0.075778     0.12116      1.1153    -0.91576     0.24679
0.64603      0.1922     0.09255    0.087617      1.3538    -0.84012     0.26356
0.65097     0.17871    0.091234    0.057032      1.6576    -0.72995      0.2606
0.59999     0.14616     0.07808    0.032038      1.8924    -0.61287     0.22344
0.49377     0.10274    0.050784   0.0034268      1.9523    -0.51191     0.15043
0.34775    0.060979    0.012964   -0.040313       1.802    -0.41983    0.057032
0.18628     0.04026   -0.030447   -0.099509      1.4712    -0.33202   -0.038339
0.035985    0.059005   -0.065964    -0.16331      1.0463    -0.25769    -0.11562
-0.086354     0.11985   -0.077803    -0.21067     0.64603    -0.20244    -0.15772
-0.17318     0.21883   -0.051165    -0.22645     0.34775    -0.16232    -0.16265
-0.21823     0.35301    0.022501    -0.20771     0.15306     -0.1074    -0.14193
-0.22316     0.51712     0.14287    -0.15969    0.017897    0.030065     -0.1097
-0.1962      0.7095     0.30467    -0.09326   -0.096878      0.3221   -0.079448
-0.1495     0.93017     0.50035   -0.019265    -0.20573     0.77396   -0.057414
-0.10378      1.1804     0.71444    0.054072    -0.30341      1.2978   -0.051823
-0.073528      1.4518     0.93083     0.12511    -0.39352      1.7882   -0.065964
-0.06728      1.7227       1.139     0.19351    -0.49875      2.1687    -0.09326
-0.080763      1.9599      1.3215     0.25929     -0.6303      2.4022     -0.1245
-0.10543      2.1309      1.4606     0.32144    -0.77467      2.4624    -0.16068
-0.13272      2.2174      1.5445     0.37965    -0.90589      2.3236    -0.21001
-0.14983        2.22      1.5721     0.43424     -1.0124      1.9687    -0.27907
-0.14325      2.1638      1.5501     0.48259     -1.1012      1.4416    -0.35931
-0.10839      2.0858      1.4922     0.51284     -1.1716     0.85618    -0.43397
-0.047219      2.0135      1.4156     0.50758     -1.1802     0.33197    -0.48823
0.022501       1.951       1.333     0.45924     -1.0342   -0.059387     -0.5129
0.083013      1.8832      1.2479     0.37702    -0.61879    -0.29814    -0.50796
0.12445      1.7997      1.1601     0.28592     0.06065    -0.40141    -0.48626
0.15043       1.705      1.0607     0.20634      0.7858    -0.39911    -0.46948
0.16852       1.609     0.94596     0.15503      1.2715    -0.30735    -0.47212
0.18102      1.5129     0.81704     0.13103      1.3761    -0.12121    -0.49579
0.17707      1.4041     0.68155      0.1182      1.1449     0.15865    -0.52671
0.1432      1.2689     0.54441    0.096825     0.75061     0.50462    -0.53855
0.084986      1.1055     0.41024    0.049468     0.36715     0.87197    -0.52276
0.020528      0.9236     0.28527   -0.030118    0.083013      1.1824    -0.48363
-0.031762     0.74108     0.17773     -0.1245    -0.11793      1.3445    -0.43989
-0.06432     0.56283     0.09551    -0.20014    -0.29716      1.3028    -0.41423
-0.081092     0.39412    0.041904    -0.22152    -0.49218      1.0561    -0.42344
-0.091945     0.23791    0.015595    -0.16561    -0.70528     0.64735    -0.45534
-0.10937    0.096496   0.0040845   -0.043601    -0.92003     0.12938     -0.4833
-0.14325   -0.033078   -0.012688     0.10866     -1.1243    -0.44285    -0.48823
-0.19192    -0.15706    -0.04985     0.24449      -1.313     -1.0111     -0.4662
-0.24421    -0.28104     -0.1097     0.32276      -1.488     -1.5334    -0.42838
-0.28762    -0.39944    -0.18205      0.3392     -1.6376     -1.9816    -0.40075
-0.3159    -0.50303    -0.25177     0.31355     -1.7192     -2.3437    -0.40075
-0.33103    -0.57867    -0.30538     0.27836     -1.6702      -2.617    -0.42147
-0.33465    -0.61879    -0.33432     0.25994      -1.416     -2.8048    -0.43758
-0.3238    -0.62109    -0.33761     0.26817    -0.90359     -2.9001    -0.42476
-0.2942     -0.6007    -0.31886      0.2948    -0.16956     -2.8653    -0.37115
-0.25145    -0.58097    -0.28203     0.32868     0.61117     -2.6525    -0.29058
-0.20212    -0.57472    -0.22415     0.36321       1.192     -2.2345    -0.20113
-0.15575    -0.56814    -0.13733     0.40004      1.4192     -1.5939    -0.12286
-0.11233    -0.52934   -0.014661     0.45825      1.3235    -0.72863   -0.060373
-0.06728    -0.42443      0.1455     0.55165      1.0736     0.32572  -0.0038083
-0.014661    -0.23928     0.33262     0.67103      0.8598      1.4682     0.05473
0.04322    0.010662     0.51547     0.78251      0.7881      2.5929     0.11721
0.096167      0.2948      0.6605     0.84631     0.85059      3.5789      0.1843
0.13366      0.5796     0.74173     0.84434      0.9624      4.3165     0.26093
0.1478     0.83184      0.7562     0.77824      1.0242      4.7427     0.34052
0.13695      1.0203     0.71246     0.66938     0.97063      4.8292     0.41451
0.10603      1.1235     0.63288     0.54047     0.79139      4.5503     0.46647
0.068543      1.1374     0.53718     0.41616     0.51975      3.9067     0.49179
0.034669      1.0877     0.44181     0.30862      0.2014       2.957     0.48588
0.013951      1.0173     0.35597     0.22607    -0.12878      1.8092     0.45102
0.0080309     0.97063     0.28625     0.16918    -0.45074     0.63354     0.39807
0.010004     0.95714     0.23363     0.10801    -0.74968    -0.36819     0.33591
0.010004     0.95122     0.19285  -0.0028217    -0.99534     -1.0489     0.27112
0.0017824     0.92886     0.15273    -0.18074     -1.1519     -1.3936     0.20667
-0.015976     0.88775     0.11195    -0.39615     -1.2154     -1.4873     0.14714
-0.040641     0.82954    0.074791    -0.59709     -1.2246     -1.4485     0.08959
-0.073199     0.73549    0.038944    -0.74738      -1.243     -1.3729    0.026776
-0.11562     0.57796   0.0037556    -0.82992     -1.3203     -1.2926   -0.057085
-0.16923     0.34019   -0.034722    -0.85459     -1.4505     -1.1983    -0.16495
-0.22678    0.030723   -0.077146    -0.84505     -1.5791     -1.0693    -0.28203
-0.27447    -0.31689    -0.12286    -0.83584     -1.6301    -0.89931    -0.38003
-0.29058    -0.64938     -0.1666    -0.85853     -1.5353    -0.69805    -0.42838
-0.26592    -0.91346    -0.19521    -0.91247     -1.2621     -0.4833    -0.41358
-0.20573     -1.0782    -0.19225    -0.97561    -0.81447    -0.27578     -0.3455
-0.12483     -1.1423    -0.15377     -1.0154    -0.25769   -0.094576    -0.24454
-0.041299     -1.1108     -0.0903     -1.0085     0.29349    0.020528    -0.13963
0.032038    -0.99041   -0.027487    -0.94305     0.71444    0.039602   -0.051165
0.082355    -0.82367   0.0017824    -0.80526     0.92327   -0.038668   0.0083598
0.098798    -0.68588   -0.026171     -0.5859      0.8894     -0.1837    0.042562
0.083342    -0.64543    -0.11595    -0.30439      0.6457    -0.34813    0.060979
0.049139    -0.73455    -0.25671  -0.0093991      0.2777    -0.48724    0.078737
0.011977     -0.9276    -0.41128     0.24218    -0.10378    -0.57505     0.10669
-0.017621      -1.142    -0.54052     0.41287     -0.4093    -0.60695      0.1432
-0.029789     -1.2824    -0.61254     0.49114    -0.59511    -0.59413     0.18628
-0.021238     -1.2894    -0.61386     0.49147    -0.66089    -0.55663     0.22706
0.0030979     -1.1601    -0.56223      0.4474    -0.63392    -0.52177     0.26521
0.035656    -0.93713    -0.48823     0.39774     -0.5471    -0.51158     0.29678
0.064267    -0.67601    -0.41654      0.3688    -0.42805       -0.53     0.32013
0.08367    -0.41555    -0.35307     0.36255    -0.28861    -0.56584     0.33229
0.09551    -0.16265    -0.29288     0.36946    -0.12746    -0.59709     0.33098
0.10768    0.093536    -0.22612     0.37472    0.050784    -0.60333     0.31717
0.12905     0.37242    -0.14785      0.3688     0.23002    -0.57406     0.29283
0.16161     0.68122    -0.06136      0.3517     0.37636    -0.51388     0.26751
0.19779      1.0022    0.026776     0.33065     0.45759    -0.44153     0.25041
0.22475      1.3044     0.10636     0.31519     0.45529    -0.37905     0.24679
0.24054      1.5419      0.1797     0.30829      0.3882    -0.34123     0.26027
0.24712      1.6662     0.25435      0.3119     0.30467    -0.32708     0.29184
0.24712      1.6478     0.33624     0.33229      0.2435    -0.33399     0.34216
0.2389       1.486     0.42734     0.38327     0.20535    -0.37148     0.41188
0.21719      1.2051     0.52369     0.47272     0.15076    -0.45797      0.4964
0.18102     0.84697     0.61446     0.58881    0.030723    -0.59643     0.58454
0.13695     0.47963     0.69471     0.70918    -0.15476    -0.76711     0.65886
0.099127     0.18661     0.76245     0.81836    -0.34978    -0.94634     0.70457
0.079724    0.018226     0.81803      0.9213    -0.48527     -1.1164     0.71246
0.081697   -0.032091     0.86637      1.0331    -0.52309     -1.2473     0.68813
0.10834   -0.010057     0.90683      1.1617    -0.47409     -1.2979     0.64899
0.15372    0.034669     0.93905      1.3153    -0.38201      -1.239     0.61348
0.20667    0.068871     0.95352      1.4899    -0.29025     -1.0851     0.58618
0.25238    0.075449     0.94267      1.6675    -0.24322    -0.88254      0.5602
0.28033    0.045193     0.89433         1.8    -0.27184    -0.67601     0.52008
0.2902   -0.020581     0.79501       1.829    -0.36852    -0.50237      0.4543
0.28461    -0.11168     0.63781      1.7102    -0.48856    -0.38694     0.35367
0.26652    -0.20573     0.42964      1.4383    -0.58097    -0.33761     0.22443
0.24317    -0.27907     0.19746      1.0548    -0.61386    -0.32676    0.081697
0.22081    -0.31755    -0.03242     0.63321    -0.57078    -0.29584   -0.058729
0.20502    -0.32676    -0.23862     0.24449     -0.4537    -0.19324    -0.19159
0.1968    -0.32084    -0.41062   -0.069253    -0.27151    0.010662    -0.32182
0.19187    -0.31525     -0.5392    -0.29716   -0.050179     0.32276    -0.45666
0.18332    -0.32413    -0.62011    -0.45173     0.15865     0.74667    -0.59347
0.16457    -0.35076     -0.6576    -0.55565     0.29645      1.2433    -0.71482
0.13563     -0.3876    -0.65891      -0.628     0.31388      1.7066    -0.79967
0.098469    -0.41719    -0.63786    -0.68226      0.2093      2.0598    -0.82466
0.058676    -0.43462    -0.61057    -0.72699     0.04322      2.2946    -0.78586
0.023488     -0.4389    -0.58689    -0.76119   -0.089972      2.4377    -0.69015
-0.0015062    -0.43364    -0.57604    -0.77994    -0.12121      2.5068    -0.55729
-0.019594    -0.42377    -0.57966    -0.77336   -0.035051      2.4831    -0.41029
-0.033735    -0.42048    -0.59676    -0.74771     0.14616      2.3226    -0.26888
-0.045903    -0.44087    -0.62734    -0.71811     0.38097       1.977    -0.15377
-0.059716    -0.50237    -0.66976    -0.70462     0.62795      1.4409   -0.074844
-0.081092    -0.61188    -0.71745    -0.71416      0.8575      0.7858   -0.027816
-0.11135    -0.75889    -0.76448    -0.73948      1.0426      0.1159   0.0001381
-0.15081    -0.92332     -0.8046    -0.77204      1.1643    -0.46981    0.020528
-0.19455     -1.0808    -0.83157    -0.80296      1.2288    -0.90491    0.034011
-0.23829     -1.2081    -0.84571    -0.82729      1.2515     -1.1683    0.035985
-0.27907     -1.2926     -0.8536    -0.84966      1.2462     -1.2792    0.019212
-0.31492     -1.3337    -0.85919    -0.87136      1.2202     -1.2729    -0.01203
-0.34287      -1.339    -0.86643    -0.88188      1.1883     -1.1854   -0.048205
-0.35964     -1.3229    -0.87498    -0.87498      1.1709     -1.0427   -0.076159
-0.3649     -1.2963    -0.87991    -0.85196      1.1989    -0.85722   -0.091287
-0.358     -1.2601    -0.87399      -0.824      1.2903     -0.6349   -0.098193
-0.34057     -1.2098    -0.85163    -0.80789      1.4416    -0.39056    -0.10346
-0.31755     -1.1368    -0.80723     -0.8171       1.609     -0.1393    -0.10641
-0.29255     -1.0397    -0.74442    -0.86413      1.7198    0.093536   -0.099509
-0.2692     -0.9276    -0.67009    -0.94568      1.6885     0.28165   -0.065635
-0.24618    -0.80493    -0.58656       -1.02      1.4238     0.38754   0.0077021
-0.21724    -0.66845    -0.49218     -1.0134     0.85092     0.36387     0.11426
-0.17581    -0.50632    -0.39582    -0.87169   -0.022883      0.1922     0.22804
-0.12023    -0.31623    -0.30209    -0.60531     -1.0335   -0.095233     0.30894
-0.055112    -0.10181    -0.21428    -0.28203     -1.9007    -0.44811     0.32637
0.0070443     0.12083    -0.13371      0.0054     -2.3779    -0.81644     0.27112
0.050126     0.32703   -0.063004     0.18167     -2.3611      -1.167     0.16391
0.073476     0.50232  -0.0028217     0.22673      -1.908     -1.4824    0.037958
0.083342     0.63715    0.052757      0.1649     -1.2022     -1.7577   -0.077475
0.087946     0.72891     0.10505    0.039602     -0.4685     -1.9856    -0.16561
0.093208     0.78153     0.13958    -0.10872    0.094523     -2.1507    -0.21724
0.099785     0.79863     0.13826    -0.24026      0.3734     -2.2279    -0.23632
0.10603     0.78317     0.10209    -0.32314     0.37077      -2.199     -0.2281
0.10998     0.74075    0.038944    -0.35175     0.18463     -2.0619    -0.19751
0.11853     0.67432   -0.045574    -0.33465   -0.046232     -1.8349    -0.15344
0.13333     0.57763    -0.14719    -0.28433    -0.20771     -1.5406     -0.1051
0.15043     0.44312     -0.2646    -0.22283    -0.24158     -1.1858   -0.069253
0.16095     0.26817    -0.38957    -0.18205     -0.1587    -0.76251    -0.06728
0.14813    0.060321    -0.51026    -0.19389   -0.016305    -0.23369    -0.11628
0.10636    -0.16101    -0.62011    -0.27973     0.12379     0.43622    -0.22711
0.040918    -0.37872    -0.71877    -0.43561     0.22607      1.2347    -0.38957
-0.032749     -0.5767     -0.8046     -0.6155      0.2777      2.1697    -0.56453
-0.099509    -0.74146    -0.86939    -0.74935     0.27376      3.2694    -0.69147
-0.15213    -0.86281     -0.9003    -0.78388     0.22541      4.4862    -0.71252
-0.18797    -0.93385    -0.88879     -0.7214     0.15865      4.9594    -0.60991
-0.2054    -0.94568    -0.83354    -0.61484     0.09551      4.9594    -0.40207
-0.20146    -0.89668    -0.73784    -0.53657    0.055717      4.9598    -0.13996
-0.17581    -0.79802    -0.60991      -0.554    0.049797      4.9598     0.11919
-0.1268    -0.66878    -0.45732    -0.70594    0.086959      4.9594     0.33262
-0.063004    -0.52737    -0.27907     -0.9743     0.17806       4.255     0.48324
0.010004    -0.38529    -0.07879     -1.2818     0.32572      2.8113     0.57664
0.079724    -0.24092     0.13399     -1.5021     0.51153      1.4225      0.6286
0.13695   -0.098851      0.3392     -1.5143     0.70128     0.29119      0.6536
0.17411    0.031052     0.52797     -1.2522     0.86703    -0.46258     0.65261
0.19055     0.14944     0.69503    -0.73685      1.0012    -0.86314     0.62071
0.18759     0.27408     0.83875   -0.083723      1.1078     -1.0276     0.55231
0.17279     0.43523     0.96734     0.54902        1.19     -1.0443     0.45233
0.15602     0.65327       1.094      1.0262      1.2452    -0.93845     0.34874
0.14056     0.91209      1.2278      1.2942      1.2653    -0.68785      0.2731
0.12905      1.1726       1.363      1.3699       1.213    -0.26789     0.25139
0.12511      1.3906      1.4879      1.3209      1.0134     0.30862     0.28855
0.13333      1.5419      1.5823      1.2288     0.59736     0.93511     0.36913
0.15339       1.627      1.6343      1.1551   -0.041299      1.4317     0.46581
0.17608      1.6629      1.6478      1.1318    -0.80953      1.6231     0.54704
0.19516      1.6665      1.6366      1.1439      -1.558      1.4356     0.58881
0.20502      1.6527      1.6129      1.1508     -2.1342     0.93642     0.57829
0.20667      1.6346      1.5754      1.1265     -2.4371     0.28658     0.52698
0.21193      1.6172      1.5067      1.0742     -2.4466    -0.34188     0.45595
0.2287      1.5902       1.387      1.0081     -2.2247    -0.81743     0.38524
0.25534      1.5415      1.2123     0.94004     -1.8675     -1.1022     0.32407
0.28329      1.4626      1.0012     0.87493     -1.4745     -1.2328     0.27935
0.30763       1.357      0.7881     0.82033     -1.1167     -1.2788     0.25271
0.32374      1.2317     0.60131     0.77363    -0.80526     -1.3081     0.23725
0.32769        1.09      0.4474     0.72759    -0.48494     -1.3558     0.22311
0.30862     0.93215     0.31289      0.6776   -0.073199     -1.4239     0.20108
0.26422     0.75851     0.18102     0.62959     0.48949     -1.4919     0.16359
0.19647     0.57993    0.043549     0.59013      1.1821     -1.5278     0.11985
0.11327     0.41089   -0.099509     0.55691      1.8668     -1.5021    0.084328
0.029078     0.25896    -0.24224     0.51909      2.3311     -1.4104    0.072489
-0.043272     0.11393    -0.38036     0.46022      2.3844     -1.2808    0.087617
-0.090958   -0.028144    -0.51224      0.3688      1.9737     -1.1683     0.12313
-0.10872    -0.16298    -0.63096     0.25172      1.2311     -1.1216     0.16424
-0.09918    -0.28203    -0.72567     0.13234     0.38524     -1.1509     0.19154
-0.070897    -0.36786    -0.78553    0.034669    -0.38233     -1.2269      0.1968
-0.033735    -0.41358    -0.80394   -0.024527    -0.96509     -1.2903     0.17773
0.0044134    -0.42903    -0.78454   -0.061689     -1.3374     -1.2759      0.1432
0.036314    -0.43956    -0.73883    -0.10313      -1.511     -1.1463     0.10307
0.058676     -0.4708     -0.6816    -0.17745     -1.4936    -0.92069    0.060321
0.06624    -0.54052    -0.62833    -0.29782     -1.2867     -0.6497    0.020199
0.057032    -0.64082    -0.59478    -0.46258     -0.9197    -0.38793   -0.023211
0.035985    -0.74343    -0.58261    -0.64839    -0.46784    -0.20672   -0.074186
0.010662    -0.80888    -0.58097    -0.83091   -0.038997    -0.17548    -0.12483
-0.0064392    -0.80493    -0.57242    -0.98383     0.26027      -0.333    -0.15607
0.00046697    -0.70726    -0.53427     -1.0785     0.36255    -0.64905    -0.15081
0.040589    -0.51454    -0.44318     -1.1016     0.25435     -1.0325    -0.10115
0.11228    -0.25309    -0.28532       -1.07    -0.01499     -1.3834   -0.013345
0.20009    0.023159   -0.069582     -1.0055    -0.36129     -1.6501    0.087288
0.28099     0.26027     0.17674    -0.92497    -0.69246     -1.8313     0.16687
0.33098     0.42306     0.41944    -0.82236    -0.94141     -1.9445     0.19812
0.33361     0.50331     0.62663    -0.68917     -1.0845     -1.9773     0.17378
0.28823     0.51449     0.77725    -0.53592     -1.1374     -1.8872     0.10801
0.21094     0.48818     0.86802    -0.38825     -1.1305     -1.6577    0.021514
0.12807     0.45595     0.91702    -0.25177      -1.095     -1.3081   -0.056098
0.057361      0.4497     0.95944    -0.10543     -1.0539    -0.87629    -0.10609
0.002769     0.48686      1.0232    0.075778     -1.0305    -0.41226    -0.12516
-0.043272      0.5579      1.1173     0.28823     -1.0427    0.018226    -0.13042
-0.090958     0.63255      1.2275     0.49443     -1.1026      0.3244    -0.14391
-0.13963     0.68681      1.3258     0.63288     -1.2088     0.42799    -0.17087
-0.18797     0.71148      1.3814      0.6434       -1.34     0.32276    -0.20376
-0.22908     0.70655      1.3715      0.5158     -1.4423    0.073804    -0.23961
-0.25934     0.68155      1.2939     0.31388     -1.4248    -0.22349    -0.29124
-0.27447     0.65195       1.163     0.14583     -1.1621    -0.47508    -0.37378
-0.27118     0.63946      1.0163     0.10669    -0.53657    -0.62274    -0.48987
-0.24816     0.65228      0.8838     0.23725      0.4349    -0.65529    -0.64082
-0.21428     0.67399     0.77265     0.53159      1.5172      -0.603    -0.81644
-0.1814      0.6684     0.66445     0.97194      2.3811     -0.5129    -0.99304
-0.1666     0.60295     0.53718      1.5274      2.7843    -0.44219     -1.1348
-0.17449     0.46384      0.3813      2.1401      2.6936    -0.44153     -1.2124
-0.1985      0.2629     0.20371      2.7416      2.3029    -0.53164     -1.2173
-0.23171    0.032367    0.027105       3.275      1.8915    -0.66746     -1.1594
-0.26822    -0.19718    -0.12976       3.689      1.6353    -0.73981     -1.0713
-0.30768    -0.39976    -0.26131      3.9245      1.5655    -0.64181    -0.99173
-0.34747    -0.55696    -0.37082       3.941      1.6359    -0.31327    -0.94371
-0.38299    -0.65332    -0.45501      3.7163      1.7951     0.23955    -0.92003
-0.4093    -0.67404    -0.50895      3.2599      2.0207     0.94662    -0.89603
-0.42311    -0.62438    -0.52868      2.6416      2.3002      1.7037    -0.84374
-0.42015    -0.52506     -0.5175      1.9825      2.5863      2.4002    -0.75165
-0.39812    -0.41588    -0.48264       1.411      2.7738      2.8823    -0.62471
-0.35504    -0.32051     -0.4389      1.0029      2.7232      3.0158    -0.48132
-0.2988    -0.25572    -0.40272     0.75061      2.3213      2.7682    -0.34287
-0.24355    -0.23204    -0.39187     0.59637      1.5751      2.2272     -0.2327
-0.20738    -0.25441    -0.41522     0.47436     0.64965      1.5501    -0.16035
-0.19324    -0.31821    -0.46554     0.34742     -0.1962     0.89433    -0.11661
-0.1962    -0.41358    -0.52605     0.22278     -0.7454     0.35729   -0.084381
-0.20639    -0.52605    -0.57702     0.13169    -0.95522   -0.050836   -0.044917
-0.21264    -0.64115    -0.60827    0.088275    -0.94404    -0.37576    0.010333
-0.21593    -0.74277    -0.62043    0.076435    -0.90425    -0.66483    0.076764
-0.22086    -0.82433    -0.61846      0.0692    -0.99534    -0.93746     0.14583
-0.22678    -0.88682    -0.61254    0.044206     -1.2676     -1.1894      0.1991
-0.23237    -0.93681    -0.60366   -0.017621     -1.6521     -1.4265     0.22443
-0.23402     -0.9743    -0.58821    -0.11661      -2.028     -1.6468     0.21851
-0.23402    -0.99567    -0.55828    -0.21659     -2.2799     -1.8044     0.19812
-0.23632    -0.99797    -0.50796    -0.25671       -2.32     -1.8192     0.18562
-0.24257    -0.98252    -0.44712    -0.19685     -2.1188     -1.6419     0.19483
-0.26197    -0.95851    -0.39286   -0.046561     -1.7225     -1.2834     0.21324
-0.30341    -0.93582    -0.36688     0.11985     -1.2482    -0.80888     0.22179
-0.37313    -0.92168    -0.38069     0.19943    -0.84308    -0.30078     0.21522
-0.45403    -0.92234    -0.43397    0.098798    -0.58459     0.17838     0.19713
-0.51783    -0.94601    -0.51158     -0.2179    -0.43265     0.58322     0.17871
-0.53888     -1.0042    -0.59544     -0.7089    -0.26197     0.88808     0.17115
-0.50698     -1.0989    -0.67075     -1.2742    0.048153      1.0867     0.18693
-0.42443     -1.2167    -0.73455     -1.8021     0.53455      1.1814     0.23199
-0.29946     -1.3393    -0.79408     -2.2082      1.1107      1.1854     0.30829
-0.13437     -1.4544    -0.86117     -2.4499      1.6136      1.1055     0.41616
0.074462     -1.5511    -0.93878     -2.5275      1.8832     0.92952     0.54672
0.32868     -1.6258       -1.02     -2.4864      1.8438     0.64636     0.67333
0.61413     -1.6761     -1.0924     -2.3825      1.5228     0.26915     0.77199
0.90321     -1.6968     -1.1423     -2.2562      1.0328    -0.12483     0.82855
1.1531     -1.6919     -1.1621     -2.1336     0.51975    -0.39944     0.84467
1.3067     -1.6708     -1.1604     -2.0286     0.10538    -0.42147      0.8256
1.3149     -1.6462     -1.1542     -1.9474     -0.1393    -0.11562      0.7835
1.1702     -1.6212     -1.1601     -1.8991    -0.20343     0.48324     0.72102
0.91702     -1.5909     -1.1884     -1.8964    -0.12023       1.212     0.62893
0.62236     -1.5531     -1.2341     -1.9448    0.057032      1.8714     0.48752
0.34709     -1.5028     -1.2749     -2.0244     0.25961      2.3154     0.29645
0.14024     -1.4229     -1.2798     -2.0944     0.42142      2.5272    0.085315
0.024803     -1.2831     -1.2144     -2.1263     0.49541      2.6113   -0.093589
-0.0038083     -1.0499     -1.0614     -2.1165     0.47042      2.7044    -0.19126
0.024145    -0.72732    -0.82927      -2.075     0.35071      2.8583    -0.18501
0.065583     -0.3603    -0.56321     -2.0086     0.14089      2.9951   -0.094247
0.086301   -0.011701    -0.31492     -1.9172    -0.14555      2.9751    0.038944
0.078409     0.27408    -0.11201     -1.7902    -0.48001      2.6814     0.17871
0.059663     0.50824    0.044864     -1.6185    -0.83025       2.097     0.29743
0.061636     0.73614     0.18003     -1.4038     -1.1716      1.3048     0.37702
0.1034      1.0006     0.32111     -1.1542     -1.4811     0.46483     0.41155
0.18661      1.3146     0.48818     -0.8878     -1.7297    -0.25638     0.40333
0.29053      1.6698     0.68155      -0.628     -1.8866    -0.76251     0.36781
0.39017      2.0358     0.88841    -0.38299     -1.9303     -1.0404     0.33065
0.47075      2.3851       1.094    -0.14851     -1.8784     -1.1358     0.31717
0.52534      2.7018       1.287    0.074133     -1.7761     -1.1197     0.33953
0.55296      2.9731      1.4511     0.27935     -1.6386     -1.0825     0.38195
0.55625      3.1931      1.5695     0.44345     -1.4528     -1.0914     0.42734
0.54474      3.3575       1.633     0.52074     -1.2108     -1.1673     0.45891
0.52863      3.4588      1.6422     0.50528    -0.93549      -1.294     0.46976
0.5181      3.4845      1.6155     0.43983    -0.65957     -1.4048      0.4622
0.52238      3.4296      1.5738     0.40892    -0.39746     -1.4258      0.4497
0.54145      3.3003      1.5297     0.47272    -0.14719     -1.2982     0.43983
0.56447      3.1115      1.4791     0.62959    0.064925    -0.98646     0.43391
0.57862      2.8787      1.4189     0.82724     0.19877    -0.49514      0.4132
0.56678      2.6202      1.3524      0.9943     0.23298     0.13103     0.35959
0.52139      2.3591      1.2906       1.089     0.20568     0.84467     0.27014
0.44345      2.1108      1.2373      1.0999     0.17806      1.5886     0.16852
0.34117      1.8819      1.1864      1.0446     0.18299      2.2654    0.083342
0.2287      1.6777      1.1403     0.96109     0.21949      2.7472    0.038616
0.12149      1.5004      1.0982     0.89301     0.24778      2.9465    0.046837
0.032367      1.3426      1.0535     0.86802      0.1991      2.8488     0.10406
-0.028802      1.1923     0.98937     0.87821    0.017239      2.4883     0.18792
-0.065307      1.0344     0.89203     0.90058    -0.31788      1.9234     0.26323
-0.0903     0.86276     0.76278     0.92064    -0.76218      1.2271     0.29513
-0.12056     0.67201     0.61348      0.9384     -1.2058     0.49147     0.26422
-0.1666     0.46285     0.46187     0.95944      -1.511     -0.1837     0.17707
-0.22514     0.23232     0.31684     0.97852     -1.5781     -0.7089    0.065912
-0.28532   -0.022225     0.18233     0.96503     -1.3979     -1.0647   -0.041299
-0.33761    -0.30472     0.06065     0.88446     -1.0493     -1.2933    -0.12516
-0.37707    -0.60103   -0.043272     0.73351     -0.6405     -1.4482    -0.17877
-0.39911    -0.88912    -0.12582     0.54277    -0.25638     -1.5682    -0.20508
-0.40963     -1.1338    -0.18929     0.35301    0.073147     -1.6557    -0.21198
-0.41456     -1.3101    -0.24026     0.18233     0.35696     -1.6932    -0.20968
-0.41555     -1.4071    -0.28565    0.028092      0.6092     -1.6606    -0.20244
-0.41522     -1.4383    -0.33564    -0.13272     0.82494     -1.5574     -0.1962
-0.42048     -1.4393    -0.41193    -0.34649     0.98542     -1.4015    -0.19554
-0.43397     -1.4485    -0.52473     -0.6349      1.0857     -1.2101    -0.20277
-0.45173     -1.4995    -0.66976    -0.94272      1.1249    -0.99929    -0.21067
-0.46718     -1.6225    -0.83124     -1.1772        1.09    -0.77763    -0.20968
-0.4754     -1.8251    -0.98449     -1.2726     0.96471    -0.56058    -0.18896
-0.47277     -2.0444     -1.1055      -1.219     0.76541    -0.37839    -0.13864
-0.46389     -2.1743     -1.1841     -1.0565      0.5477    -0.27743   -0.063991
-0.45929     -2.1447      -1.218     -0.8536     0.38064    -0.29913    0.014937
-0.45929     -1.9418     -1.2071    -0.67075     0.31782     -0.4662     0.07808
-0.45436     -1.6021     -1.1585    -0.53493     0.36781    -0.75724     0.12017
-0.43232     -1.1864     -1.0861    -0.43791     0.47996     -1.1026     0.15273
-0.38529    -0.76053    -0.99863     -0.3626     0.57237     -1.4071     0.18759
-0.31623     -0.3728     -0.9026    -0.30176      0.5796     -1.5916     0.22607
-0.23073   -0.049521    -0.80098    -0.25967     0.50988     -1.6314     0.26652
-0.14489     0.19647    -0.70364    -0.24257     0.44082     -1.5646     0.29579
-0.073528     0.35696    -0.62241    -0.24881     0.44806     -1.4551     0.30763
-0.026829     0.43424    -0.55269       -0.26     0.54573     -1.3656      0.3096
-0.0011774     0.44016    -0.47113    -0.24881     0.67399     -1.3328     0.31125
0.011977     0.39412    -0.35109    -0.20277     0.73614      -1.363     0.32177
0.025132      0.3119    -0.18107     -0.1199     0.64998     -1.4554      0.3346
0.049797      0.2162    0.030065  -0.0061104      0.3859     -1.6215     0.33821
0.094852     0.12971     0.26225     0.13497   -0.016305     -1.8737      0.3096
0.15832     0.07512     0.48752     0.29151    -0.44745     -2.1803       0.231
0.2287    0.067227     0.68024     0.43885    -0.79539     -2.4641    0.092221
0.29283      0.1136     0.82888     0.54343    -0.98383     -2.6344   -0.099509
0.3415     0.21259      0.9384     0.56842    -0.99107     -2.5986    -0.31919
0.37373     0.35367      1.0183      0.4987    -0.83782     -2.2829    -0.53493
0.39346     0.52304      1.0828      0.3563    -0.55006     -1.6968    -0.72534
0.40399     0.70655       1.139     0.18825    -0.14588    -0.94536    -0.88188
0.4076     0.87756      1.1837    0.035656     0.34512     -0.1689     -1.0042
0.39609      1.0075      1.2071    -0.07287     0.84631       0.501      -1.094
0.36222      1.0706      1.1959    -0.12023      1.2475     0.94004     -1.1545
0.30796      1.0551      1.1456   -0.091945      1.4725      1.0574     -1.1871
0.24547     0.96438      1.0453    0.015595      1.5179     0.82855     -1.1999
0.182     0.80422     0.88117     0.18036      1.4425     0.33657     -1.2098
0.11491     0.58454     0.63485     0.35104       1.334    -0.23928     -1.2351
0.036642      0.3267      0.3175     0.47996      1.2538    -0.69443     -1.2808
-0.058071    0.052757    -0.03538     0.54145       1.211    -0.85459     -1.3397
-0.16561    -0.21889    -0.37115      0.5306      1.1781    -0.57735     -1.3936
-0.27677    -0.48264    -0.65201     0.45628      1.1291     0.22771     -1.4146
-0.38135    -0.73389    -0.86314     0.33328      1.0732      1.5376     -1.3739
-0.47179    -0.96015     -1.0075     0.18595      1.0568      3.1915     -1.2535
-0.5392     -1.1427      -1.094    0.041247      1.1347      4.9026     -1.0493
-0.58163     -1.2713     -1.1377    -0.08175      1.3353      4.9598    -0.78421
-0.60465     -1.3453     -1.1423    -0.16068       1.634      4.9594    -0.49218
-0.61517     -1.3772     -1.1124    -0.17252      1.9454      4.9598    -0.21231
-0.60925     -1.3739     -1.0457    -0.10707       2.118      4.9598    0.020528
-0.58919     -1.3278    -0.94864    0.027763      2.0023      4.9598     0.18496
-0.55696     -1.2328    -0.82302     0.22081      1.5563      3.9311     0.27408
-0.51684     -1.0887    -0.67141     0.45332     0.91209      2.2549     0.30072
-0.4708    -0.91609    -0.50698     0.67728     0.31059     0.78317     0.28494
-0.42246    -0.74902    -0.34912     0.83086   -0.061689    -0.27085     0.25074
-0.37017    -0.60925    -0.21264     0.87788    -0.18403    -0.84702     0.21653
-0.32018    -0.49678     -0.1005     0.83217     -0.1735     -1.0437     0.19055
-0.27874    -0.40305  -0.0051238     0.74141    -0.18041     -1.0105     0.17542
-0.2498    -0.31492    0.083013     0.66873    -0.29716    -0.88846     0.17641
-0.22546    -0.21626      0.1649     0.66215    -0.52046    -0.77303     0.19943
-0.19258   -0.094905     0.24646     0.72496    -0.78651     -0.7089     0.24482
-0.13207    0.065254     0.34084     0.83283     -1.0401    -0.69443     0.30566
-0.031762     0.27507     0.46055     0.95616     -1.2591    -0.70561     0.37242
0.11064     0.52633     0.60788      1.0926     -1.4225    -0.71909     0.44279
0.28395     0.79534     0.76212      1.2485     -1.4886    -0.73192     0.51975
0.46713      1.0453     0.89334      1.4347     -1.4166    -0.74376     0.60197
0.63091      1.2367     0.97391      1.6612      -1.191    -0.74606     0.68122
0.74667       1.333     0.99792      1.9401    -0.86018    -0.73324     0.74535
0.79764      1.3123     0.97589      2.2772    -0.52704    -0.70726     0.78021
0.78087      1.1798      0.9282      2.6498    -0.29223    -0.69015     0.77528
0.7151     0.96799     0.86835      2.9728    -0.21132    -0.70824     0.73285
0.62696      0.7322     0.80915      3.1027    -0.28137    -0.77928     0.66412
0.5408     0.51317     0.76344      2.9139    -0.44942    -0.89471     0.58486
0.4691     0.33229     0.73121      2.3719    -0.66023     -1.0282     0.51284
0.4224     0.19285     0.69602      1.5702    -0.89734     -1.1483     0.45891
0.39708    0.088932     0.63255     0.70161     -1.1473     -1.2282     0.42471
0.38195    0.012635     0.53027  -0.0077547     -1.3755     -1.2538     0.41155
0.36452   -0.040641      0.4007    -0.38957      -1.538     -1.2167     0.42043
0.33756   -0.070568     0.27014    -0.41226     -1.6225     -1.1197     0.44542
0.30204   -0.076817     0.15997    -0.18271       -1.66    -0.97134     0.47535
0.26521   -0.061031    0.079395     0.11458     -1.7149    -0.78158     0.49903
0.23692   -0.033735    0.027434     0.31618     -1.8395      -0.554     0.51021
0.22147  -0.0084125  -0.0067681     0.33756     -2.0178    -0.29354     0.50791
0.21324   0.0040845   -0.029789     0.18529     -2.1493   -0.023211     0.49936
0.20075  -0.0034794   -0.051494   -0.076488     -2.0592     0.21324     0.49114
0.17542   -0.027816    -0.07879    -0.36129     -1.5761      0.3859     0.48851
0.14451   -0.056098     -0.1074    -0.59906    -0.63293       0.477     0.49508
0.12281   -0.064978    -0.12746     -0.7408     0.61676     0.47436     0.51547
0.12215   -0.036037    -0.13009    -0.74639       1.779     0.37702     0.54408
0.14813    0.028421    -0.11661    -0.59873      2.4798      0.2139     0.57368
0.19384     0.10702   -0.097536    -0.33958      2.5462    0.037958     0.60032
0.24613      0.1751   -0.088656    -0.05544      2.0625    -0.10444     0.61709
0.28527     0.20996    -0.10115     0.16161       1.286    -0.19652     0.62071
0.30368     0.20173    -0.13963     0.26784     0.49048    -0.25441     0.60394
0.29184     0.15175    -0.20113     0.26422      -0.137    -0.30933     0.56184
0.25008    0.069529    -0.27447     0.17016    -0.51388    -0.38694     0.49673
0.18496   -0.035051    -0.35438    0.026447    -0.66154    -0.49316     0.41583
0.10669     -0.1393    -0.44087     -0.1051    -0.67667    -0.60991     0.33427
0.030723    -0.21363    -0.52605    -0.17482    -0.67536     -0.7112     0.26488
-0.028144    -0.23566     -0.6007    -0.16561    -0.72271    -0.77599     0.21555
-0.060045    -0.20244    -0.65266   -0.096878    -0.75955    -0.79309     0.17838
-0.068924      -0.137    -0.67667  -0.0057815    -0.62339    -0.76678     0.14484
-0.066293   -0.068595    -0.67667    0.074133    -0.16166    -0.71712     0.10538
-0.06136   -0.022225    -0.66417     0.12511     0.63946    -0.65266    0.064267
-0.06136   -0.010057    -0.65266     0.13103      1.6047    -0.56354    0.029407
-0.070568    -0.03242    -0.64642     0.07808      2.4377    -0.45271    0.015924
-0.088327   -0.085367    -0.64444   -0.036695      2.8508    -0.33268     0.02579
-0.11398    -0.16364    -0.64839    -0.19948      2.6906    -0.23204    0.051441
-0.15081       -0.26    -0.65431    -0.37674      2.0098    -0.16364    0.075449
-0.19916    -0.36293    -0.65201    -0.52802      1.0292    -0.10115    0.079395
-0.25769    -0.46291    -0.63293    -0.61156    0.032367   0.0011247    0.056703
-0.31755    -0.55236    -0.59215    -0.61221    -0.73521     0.17312     0.01987
-0.36819    -0.62767    -0.53657    -0.55631     -1.1575     0.42438  -0.0061104
-0.39878    -0.67897    -0.46981    -0.49678     -1.2578     0.74108  -0.0047949
-0.40536    -0.69575    -0.39385    -0.48461     -1.1371      1.0486     0.01691
-0.38266    -0.67305    -0.30768     -0.5494    -0.92266      1.2367    0.031709
-0.33268    -0.60629    -0.20968    -0.68851    -0.70002      1.2068    0.018555
-0.26164    -0.49547     -0.1074    -0.87333    -0.49086     0.89762   -0.036695
-0.18863    -0.36721   -0.020909      -1.073    -0.26328     0.31355    -0.13766
-0.13799    -0.26526    0.024803     -1.2588   0.0057288    -0.45304    -0.28071
-0.12549    -0.22481    0.015266     -1.4074     0.26422     -1.2657    -0.45797
-0.15476    -0.26197   -0.052152     -1.5077     0.39577     -2.0227    -0.66253
-0.21987    -0.38003    -0.16693      -1.562     0.28428     -2.6637      -0.873
-0.30637    -0.56321    -0.30998     -1.5896   -0.096549     -3.1461     -1.0624
-0.39483    -0.78487    -0.46159     -1.6179    -0.64806     -3.4398     -1.2098
-0.47343     -1.0256     -0.6109     -1.6626     -1.1818      -3.528     -1.3065
-0.54019     -1.2736    -0.75494     -1.7267     -1.5074     -3.3773     -1.3548
-0.59577     -1.5202    -0.89043     -1.7945     -1.5169     -2.9554     -1.3686
-0.63754     -1.7524     -1.0226     -1.8402     -1.2121     -2.2542     -1.3587
-0.66154     -1.9606     -1.1568     -1.8599    -0.68719     -1.3005     -1.3265
-0.65694     -2.1336     -1.2884     -1.8734   -0.079119    -0.16331     -1.2568
-0.62076     -2.2496     -1.3989     -1.9135     0.47436      1.0275     -1.1259
-0.55269     -2.2779       -1.46     -1.9977     0.88611      2.0963    -0.92431
-0.456     -2.1908     -1.4508     -2.1286      1.1387      2.8896    -0.65957
-0.33465     -1.9944      -1.367     -2.3003      1.2324      3.3322    -0.35274
-0.19784     -1.7281     -1.2196     -2.4904      1.1709      3.4457   -0.035708
-0.061689     -1.4433     -1.0335     -2.6403     0.96832      3.3322     0.25304
0.053743     -1.1765     -0.8388     -2.6666     0.66708      3.1415      0.4816
0.12511    -0.93516    -0.66549     -2.5012     0.32341      3.0182     0.63321
0.14681    -0.69509    -0.51881     -2.1372   -0.007097      3.0096     0.70852
0.13136    -0.41752     -0.3797     -1.6333    -0.28631      3.0458     0.72134
0.10801   -0.075501    -0.22086     -1.1019    -0.49842      2.9984     0.69043
0.10143     0.32703   -0.026829    -0.65891    -0.64905       2.761     0.64011
0.12708     0.77067     0.20897    -0.37905    -0.74014       2.319     0.59243
0.18661      1.2337     0.48259    -0.26098    -0.76382      1.7201     0.55165
0.2708      1.6882     0.78383    -0.22842    -0.68917        1.02     0.50561
0.36551      2.1016      1.0999    -0.17022    -0.47179     0.33854     0.43391
0.45924      2.4571      1.4162   -0.010057   -0.076817    -0.13404     0.32605
0.5477      2.7485      1.7139     0.28066     0.48851    -0.23138     0.18957
0.62663      2.9843       1.974     0.67234      1.1443     0.11458    0.036314
0.69109      3.1885      2.1822      1.0884      1.7484     0.87361    -0.13305
0.73581      3.3937      2.3384      1.4396      2.1407      1.9227    -0.33629
0.75127      3.6137      2.4624      1.6695      2.2012      3.0695    -0.57538
0.73746      3.8397      2.5811      1.7747      1.9072      4.0801    -0.82302
0.7151      4.0413        2.71      1.7875      1.3695      4.7309     -1.0243
0.70786       4.186      2.8481      1.7497     0.77298      4.8644     -1.1121
0.73253      4.2534      2.9744      1.6843     0.27211      4.4257     -1.0559
0.79008      4.2327      3.0458      1.6129    -0.10082      3.5404    -0.87268
0.8644      4.1195      3.0254      1.5557    -0.41983      2.4347     -0.6132
0.92722      3.9176      2.8866      1.5093    -0.75659      1.2909    -0.34254
0.95879      3.6348      2.6304      1.4488     -1.1035      0.1922    -0.12121
0.94465      3.2911      2.2851      1.3557       -1.41    -0.83617    0.031381
0.88413       2.908      1.8908      1.2317     -1.6518     -1.7511     0.12807
0.78613      2.5074       1.485       1.115     -1.8432     -2.4877     0.20272
0.66215      2.1161      1.1081      1.0551     -2.0083     -2.9791     0.28165
0.53126      1.7648     0.78745      1.0805     -2.1484     -3.1915     0.36518
0.41122      1.4797     0.54014      1.1693     -2.2388     -3.1435     0.44608
0.30697      1.2551      0.3586      1.2794     -2.2589     -2.8932     0.51317
0.21259      1.0578     0.22278      1.3771     -2.2217     -2.5131     0.56119
0.12083     0.84631     0.11097      1.4518     -2.1539     -2.0573     0.58848
0.027434     0.59868   0.0067154       1.505     -2.0533     -1.5797     0.59539
-0.072213     0.32111    -0.09918       1.532     -1.8675     -1.1295     0.58618
-0.16791    0.029407    -0.20508      1.5123     -1.5212    -0.73521     0.56908
-0.25112    -0.25901    -0.31097      1.4195    -0.96509    -0.40832     0.55494
-0.31492    -0.53296    -0.41325      1.2492    -0.22185    -0.17383        0.55
-0.35339    -0.77961    -0.50106      1.0252     0.61183    -0.06728     0.55592
-0.36096    -0.97199    -0.56124     0.79567       1.386    -0.11924     0.57533
-0.3284     -1.0993    -0.58821     0.60558      1.9605    -0.31919     0.60493
-0.25835     -1.1585    -0.58031     0.48423       2.295    -0.60333     0.63288
-0.16923     -1.1618    -0.54282     0.42898      2.4726    -0.88287     0.64801
-0.089972     -1.1476    -0.49053     0.40267      2.6107     -1.0822     0.64077
-0.05281     -1.1703    -0.45173       0.354      2.7738     -1.1789     0.60591
-0.080434     -1.2818    -0.45962     0.24646      2.9047     -1.1989      0.5454
-0.17548     -1.4965    -0.53197    0.085972      2.8679     -1.1789     0.47173
-0.31327      -1.785    -0.66089   -0.093918       2.564     -1.1535     0.39675
-0.45962     -2.0829    -0.82302     -0.2475      2.0102     -1.1437     0.32703
-0.58196     -2.3171    -0.98712    -0.34123      1.3353     -1.1532     0.26422
-0.65825     -2.4368     -1.1226    -0.35931      0.7026     -1.1733     0.21061
-0.68588     -2.4381     -1.2101    -0.30604     0.23988     -1.1933     0.16589
-0.67272     -2.3536     -1.2403    -0.20935   -0.016305     -1.1983     0.13004
-0.63227     -2.2342     -1.2196    -0.10576    -0.10806     -1.1775     0.10636
-0.57735     -2.1227     -1.1641   -0.028144    -0.10543     -1.1387    0.090248
-0.5175     -2.0346     -1.0937    0.013622   -0.067937     -1.0901    0.081039
-0.46126     -1.9563     -1.0197    0.030394   -0.026829     -1.0358     0.07808
-0.40832     -1.8629    -0.94503    0.044535   0.0093464    -0.97495    0.081368
-0.35405     -1.7317    -0.86807    0.083013    0.032038    -0.90688    0.085972
-0.3011     -1.5613     -0.7829     0.15832    0.019541    -0.84045    0.086959
-0.25079     -1.3745    -0.69542     0.26356   -0.062676    -0.78816    0.080711
-0.19948     -1.2035    -0.61419     0.36025    -0.22875    -0.75494    0.064596
-0.14226      -1.068    -0.55433     0.39741    -0.44745    -0.73093     0.04322
-0.077475    -0.97232    -0.52506     0.33328    -0.65201    -0.70166    0.019212
-0.0057815    -0.90096    -0.52572     0.17115    -0.78553    -0.65825   -0.007097
0.063281    -0.83782    -0.55137   -0.054454    -0.83551    -0.60366   -0.027158
0.11064     -0.7875    -0.59741    -0.29321    -0.83321    -0.54743   -0.039655
0.12116    -0.77073    -0.66648    -0.50073    -0.83124    -0.49711   -0.047219
0.08959    -0.81216    -0.75724     -0.6645    -0.86873    -0.45469    -0.05544
0.022501    -0.91609    -0.86413    -0.79013    -0.96903    -0.41555   -0.063662
-0.059716     -1.0555    -0.96311    -0.87629     -1.1266    -0.36984   -0.064649
-0.13338     -1.1904     -1.0309    -0.90819      -1.293    -0.31294   -0.052481
-0.1837     -1.2861     -1.0496    -0.86807     -1.3943    -0.25605   -0.021896
-0.20573     -1.3051     -1.0124    -0.76415     -1.3824    -0.21889    0.025461
-0.20277     -1.2229    -0.92036    -0.62076      -1.265    -0.21527    0.081697
-0.17942     -1.0351    -0.77369    -0.45797     -1.0835    -0.25539     0.13629
-0.14029    -0.78224    -0.58426    -0.28433     -0.8809    -0.34221     0.17707
-0.085696    -0.52243    -0.37806    -0.10937    -0.67832    -0.46718     0.19187
-0.015319    -0.29782    -0.18008    0.054072    -0.47212    -0.59972     0.17444
0.070845    -0.10017  -0.0018351     0.19055    -0.24717    -0.69969     0.13366
0.16095     0.10011     0.15898     0.29349     0.01132    -0.74409    0.083999
0.23758     0.31289     0.29908     0.36814     0.31717     -0.7408    0.038616
0.28592     0.52304     0.41583     0.42701     0.66774    -0.72633  -0.0031506
0.30138     0.69964     0.49837     0.47305      1.0272    -0.73324   -0.045574
0.28724     0.80948     0.54047     0.49706      1.3261    -0.76711   -0.093589
0.25172     0.84303     0.53751      0.4839      1.4827    -0.82039    -0.14785
0.20864     0.82132     0.50396     0.42207      1.4297    -0.88353    -0.20212
0.16983     0.79896     0.45825     0.32637      1.1377    -0.96246    -0.25605
0.14385     0.83842     0.42339     0.24021     0.64669     -1.0726    -0.30604
0.13366     0.96997      0.4132     0.20831    0.081697     -1.2144    -0.35471
0.13793      1.1897     0.43227     0.24514    -0.36721     -1.3535    -0.41095
0.14879      1.4745     0.46877     0.34084    -0.55729     -1.4331     -0.4708
0.15701      1.7622     0.49673     0.45332     -0.4754     -1.4008    -0.52243
0.15438      1.9727     0.48752     0.52435    -0.22875     -1.2006    -0.55367
0.13958      2.0431     0.43687      0.4941    0.022501    -0.78322    -0.56124
0.11524      1.9645     0.37669     0.32506     0.14977    -0.13536    -0.54743
0.088603      1.7819     0.35531    0.025461     0.11853     0.65557    -0.51783
0.070187      1.5586     0.40399    -0.36556  -0.0034794      1.4317    -0.47836
0.064596      1.3462     0.51153    -0.79638    -0.12845      2.0562    -0.43495
0.069858      1.1587     0.63617      -1.219    -0.21659      2.4459    -0.39187
0.078409     0.98641     0.73154     -1.5834    -0.28927      2.5758     -0.3557
0.079724     0.80586     0.76344     -1.8461    -0.39286       2.462    -0.33399
0.066569     0.60558     0.71477     -1.9869    -0.56979      2.1795    -0.33596
0.04026     0.39544     0.59966     -2.0063    -0.81315      1.8303    -0.36194
0.010004     0.19812     0.45661     -1.9293     -1.0532       1.486    -0.39944
-0.010386    0.030394     0.32637     -1.7948     -1.1667      1.1587    -0.43397
-0.014332    -0.10543     0.22804     -1.6393     -1.0131      0.8325    -0.45304
-0.0041372    -0.22053     0.15536     -1.4893    -0.50106     0.50265    -0.44548
0.011977    -0.32873    0.087288     -1.3548     0.34282       0.207    -0.40963
0.020528    -0.43528   0.0090175     -1.2269       1.361    0.018884     -0.3478
0.011648    -0.53822   -0.085696      -1.098       2.365    0.020199    -0.27052
-0.015319    -0.62997    -0.18534    -0.95621      3.2155     0.24909    -0.18995
-0.051165    -0.70726    -0.27315    -0.78586       3.842     0.71214     -0.1222
-0.085696    -0.77171    -0.33662    -0.55828      4.2346      1.4057    -0.08175
-0.11102    -0.82236    -0.37148    -0.24947      4.4241      2.2831   -0.074844
-0.13009    -0.85755    -0.37773     0.13892      4.4116       3.252   -0.089972
-0.14785    -0.87761    -0.35734     0.57335      4.1222      4.1735   -0.099509
-0.16166    -0.88221    -0.31656      1.0091      3.4437      4.8973   -0.074844
-0.16791    -0.87465    -0.26888       1.407      2.3328      4.9598  -0.0011774
-0.15838    -0.86018    -0.22546      1.7484     0.89827      4.9594     0.11261
-0.13207     -0.8411    -0.19028       2.022    -0.57998      4.7875     0.23791
-0.096878    -0.81841    -0.15838      2.2078     -1.7396      4.0426     0.34348
-0.059716    -0.79342    -0.12582      2.2933      -2.392      3.2128     0.41747
-0.030118    -0.77402   -0.097207      2.2798      -2.539      2.4463     0.46779
-0.013674    -0.77402   -0.089314      2.1812     -2.3227       1.781     0.49903
-0.013345     -0.8148    -0.11299      2.0144     -1.9547      1.2107      0.5158
-0.029789    -0.90688    -0.17087      1.7777     -1.6146     0.75653     0.52337
-0.063333      -1.043    -0.26427      1.4527     -1.3982      0.4349     0.52074
-0.11727     -1.2048    -0.40009      1.0295      -1.316     0.19812      0.4987
-0.19587     -1.3808    -0.57275     0.54112     -1.3213   -0.053138     0.44608
-0.29387     -1.5636    -0.76678    0.055388     -1.3466    -0.39812     0.36222
-0.39944     -1.7583    -0.95621    -0.36096     -1.3213    -0.85031     0.25567
-0.49547      -1.955     -1.1118    -0.68128     -1.2091     -1.3522     0.14122
-0.56453     -2.0928     -1.2108    -0.92266     -1.0151     -1.8109    0.033025
-0.5984     -2.0727      -1.242      -1.119    -0.77566     -2.1589   -0.060373
-0.59347     -1.8001     -1.2045     -1.2923    -0.54677     -2.3736    -0.13371
-0.54907     -1.2519     -1.1006     -1.4314     -0.3626     -2.4641    -0.17712
-0.46389    -0.51191    -0.93615     -1.4985    -0.24026     -2.4628    -0.18501
-0.34517     0.26849    -0.72074     -1.4567    -0.17515     -2.4216    -0.15739
-0.21198      0.9305    -0.47442     -1.3111    -0.16495     -2.3897    -0.10839
-0.097536      1.3715    -0.22119     -1.1012    -0.22546     -2.4022   -0.056756
-0.018278      1.5468    0.017568    -0.85952    -0.36589     -2.4598   -0.019265
0.027434       1.457      0.2264    -0.56913    -0.56124     -2.5272   0.0017824
0.06065      1.1301     0.40201    -0.18797    -0.74902     -2.5413    0.021514
0.1057     0.61183     0.54376     0.30533    -0.85426     -2.4318    0.063281
0.17378  -0.0008485      0.6582     0.85914    -0.82762     -2.1329     0.13497
0.2606    -0.56683     0.76903      1.3741    -0.68259     -1.6061     0.23232
0.35433    -0.96246     0.89762      1.7556    -0.47014    -0.84045     0.33591
0.4395     -1.1157      1.0489      1.9622    -0.24947     0.15536     0.43128
0.50035     -1.0164      1.2051      2.0108   -0.059387      1.3011     0.51449
0.52665    -0.71285      1.3406      1.9441    0.080711      2.4265      0.5967
0.51482     -0.2965      1.4235      1.7967      0.1672      3.3253     0.68418
0.47436     0.12807      1.4363      1.5896     0.20436      3.8341     0.77857
0.42043     0.47502      1.3633      1.3472     0.18365      3.8558     0.86999
0.36222     0.70753      1.2068      1.0831    0.093208      3.3881     0.93642
0.30894     0.84335      0.9795     0.77627   -0.065964      2.5416     0.95517
0.26948      0.9236     0.71838     0.38656    -0.25901      1.5103     0.91702
0.25271     0.99003     0.47897     -0.1028    -0.42015     0.50626     0.83086
0.26422      1.0663     0.31585    -0.64806    -0.48264    -0.30275     0.72595
0.30105      1.1686     0.25929     -1.1456    -0.41095    -0.82367     0.63617
0.35236      1.3166      0.3096       -1.49     -0.2133     -1.0637     0.57335
0.40432      1.5277     0.43556     -1.6159    0.057032     -1.1065     0.52139
0.4451      1.8023     0.59868      -1.512     0.33361      -1.094     0.45398
0.46812      2.1148     0.76739     -1.1996     0.56809     -1.1604     0.36222
0.4691      2.4183     0.91472    -0.74277     0.73812     -1.3729     0.25271
0.45299      2.6804      1.0295    -0.21856     0.84171     -1.7258     0.13728
0.43293      2.8961      1.1134     0.29875     0.87624     -2.1605    0.023159
0.42438      3.0649      1.1758     0.73943     0.83316     -2.5719   -0.090629
0.43622      3.1786      1.2285      1.0752     0.70391     -2.8479    -0.21132
0.45759       3.225      1.2781       1.314     0.50396      -2.912    -0.34978
0.47206      3.2026      1.3357      1.4787      0.2754     -2.7433    -0.51553
0.46253      3.1148      1.3945      1.5803    0.078409     -2.3391    -0.69739
0.42668      2.9675      1.4307      1.6057   -0.041628     -1.6952    -0.87465
0.36979      2.7669      1.4103      1.5327   -0.079448    -0.84308     -1.0207
0.30796      2.5242      1.3064      1.3649   -0.076817    0.077093     -1.1233
0.25698      2.2535      1.1203      1.1259    -0.10707     0.80586     -1.1789
0.2162      1.9622     0.87558     0.85585    -0.23698      1.1163     -1.1881
0.18102       1.631      0.6046      0.6046    -0.46521      0.9282      -1.147
0.14944       1.236     0.33525     0.41451    -0.73455     0.35531     -1.0391
0.1182     0.80323    0.087946     0.28329    -0.98318    -0.36162    -0.85656
0.082026     0.40103     -0.1268     0.17115     -1.1664    -0.99304     -0.6178
0.040918    0.099785    -0.30472    0.036971     -1.2755     -1.4232    -0.35767
-0.007097   -0.076817    -0.45173    -0.13503     -1.3314     -1.6343     -0.1097
-0.059387    -0.15509    -0.57374    -0.33531     -1.3617     -1.6643     0.10209
-0.11266    -0.18469    -0.67634    -0.53756     -1.3693     -1.5955     0.26093
-0.15969    -0.21297     -0.7681    -0.70364     -1.3354     -1.5409     0.35301
-0.18732     -0.2692    -0.84867    -0.80592       -1.22     -1.5791     0.37932
-0.18732    -0.35931    -0.91477    -0.83387     -1.0164     -1.7103     0.35334
-0.16495    -0.47935    -0.95818    -0.79934    -0.75264      -1.883     0.29612
-0.13864    -0.62241    -0.97462    -0.72337    -0.45863     -2.0313      0.2241
-0.13042    -0.78651    -0.96871    -0.63227    -0.13799     -2.1082     0.14418
-0.15213     -0.9641    -0.95489      -0.554     0.21719     -2.0957     0.05769
-0.20902     -1.1489    -0.95358    -0.51421     0.60493     -2.0027   -0.028473
-0.29223     -1.3472    -0.98087       -0.53      1.0012     -1.8629    -0.10609
-0.38562     -1.5663     -1.0411    -0.61846      1.3646     -1.7054    -0.17087
-0.47277     -1.7932     -1.1289    -0.77829      1.6346     -1.5347    -0.22283
-0.53328     -1.9958     -1.2279    -0.98318      1.7441     -1.3301    -0.25506
-0.55104     -2.1362     -1.3166     -1.1854      1.6504     -1.0657    -0.26328
-0.52079      -2.199     -1.3758     -1.3275      1.3669     -0.7283    -0.24783
-0.45765     -2.1997     -1.4045     -1.3788     0.95287    -0.30834     -0.2202
-0.39483     -2.1888     -1.4258     -1.3499     0.48653     0.20436     -0.2133
-0.36326     -2.2237     -1.4752     -1.2874    0.070516        0.82    -0.25506
-0.38003     -2.3345     -1.5702     -1.2357    -0.19324      1.5156    -0.34254
-0.43364     -2.5012     -1.6981     -1.2081     -0.2623       2.218    -0.44679
-0.49678     -2.6673       -1.83      -1.192    -0.17482      2.8185    -0.53328
-0.54414     -2.7778     -1.9323     -1.1677  -0.0087413      3.2263    -0.57604
-0.56157     -2.8077     -1.9833     -1.1246     0.16852      3.4371    -0.55433
-0.5517     -2.7558     -1.9777     -1.0588     0.32703       3.522    -0.46356
-0.52539      -2.641     -1.9257    -0.97397     0.45628      3.5489    -0.31261
-0.49185     -2.4868     -1.8386    -0.87695     0.53422      3.5029    -0.12352
-0.46093     -2.3204     -1.7271    -0.77829     0.52468      3.2661    0.067885
-0.42936     -2.1585     -1.5916    -0.69114     0.42569      2.6929     0.21883
-0.3968      -2.004     -1.4248     -0.6155     0.28264      1.7652     0.30467
-0.35668     -1.8507     -1.2242    -0.53756     0.13925     0.63946     0.33065
-0.30538     -1.6883    -0.99534    -0.43594    0.010991    -0.41062     0.32309
-0.24684     -1.5077    -0.75034    -0.30143    -0.11168     -1.1134       0.305
-0.18074     -1.3009    -0.50138    -0.14851    -0.23862     -1.3617      0.2731
-0.11036     -1.0568    -0.25934  -0.0077547    -0.38365     -1.1739     0.21456
-0.039326    -0.77796   -0.030118    0.083999    -0.52079    -0.63293     0.12511
0.027105     -0.4685     0.17838     0.10998    -0.54085     0.14747    0.020199
0.087946    -0.12483     0.37011    0.082684    -0.29913      1.0449    -0.07024
0.14056     0.25106     0.55428    0.026447     0.26159      1.9724    -0.12352
0.17773     0.63814     0.73713   -0.047219      1.0278      2.8514    -0.13437
0.19253     0.99825      0.9088    -0.14095      1.7829      3.5933    -0.11233
0.18167      1.2955      1.0578    -0.25835      2.3052      4.1389   -0.066951
0.15734      1.5146      1.1706    -0.38332      2.4328      4.4366  -0.0064392
0.1376      1.6675      1.2413    -0.48626       2.119      4.4566    0.068543
0.13991      1.7754      1.2712    -0.53493      1.4577      4.1902     0.15668
0.16852      1.8497      1.2689    -0.52441     0.63814       3.664      0.2435
0.21423      1.8888      1.2423    -0.48001    -0.12878       2.928     0.31092
0.26159       1.897      1.2021     -0.4412    -0.67437      2.0539     0.34611
0.30072      1.8865      1.1663    -0.43035     -0.9424      1.1275     0.34808
0.33361      1.8691      1.1561    -0.44844     -0.9766     0.23561      0.3267
0.36255      1.8477      1.1788    -0.47869    -0.87235     -0.5369      0.2902
0.38426       1.823      1.2255     -0.5004    -0.71909     -1.1302     0.25468
0.3984      1.7941      1.2732    -0.49579    -0.57801     -1.5182     0.23035
0.40563      1.7612      1.2965    -0.44712    -0.48001     -1.7149     0.21785
0.40399      1.7369      1.2873    -0.33596    -0.43199     -1.7695     0.21686
0.39642      1.7395      1.2577    -0.18238    -0.41522     -1.7442      0.2287
0.38919      1.7737      1.2301   -0.028802    -0.40305     -1.6866     0.24778
0.38195      1.8286      1.2222     0.12478    -0.36754     -1.6149      0.2606
0.37505      1.8763       1.236     0.35597    -0.30045     -1.5265      0.2583
0.3665      1.8872      1.2607     0.76607    -0.22579     -1.4229     0.23692
0.35071      1.8323      1.2801      1.3807    -0.17745     -1.3206     0.20108
0.3244      1.7043      1.2755      2.1105    -0.18436     -1.2561     0.15701
0.28296      1.5133      1.2331      2.8143    -0.25704     -1.2584     0.11097
0.22936      1.2817      1.1561      3.3779    -0.38299     -1.3245    0.070516
0.17214      1.0426      1.0614      3.7397    -0.52605     -1.4242    0.042233
0.12182        0.82     0.97063      3.8752    -0.63129     -1.5163    0.032038
0.088932     0.62893     0.89531      3.7913    -0.62833     -1.5712    0.043549
0.076435     0.47535     0.83513      3.5154    -0.46192     -1.5843    0.074791
0.076764     0.35071     0.76969      3.0859    -0.15279     -1.5679     0.11952
0.079724     0.23429     0.67596      2.5561     0.15043     -1.5376      0.1672
0.077093     0.11195     0.54737      1.9947     0.24778     -1.4939     0.20963
0.068214   -0.014332     0.40201      1.4689    0.030723     -1.4225     0.24449
0.056703    -0.13338     0.26356      1.0292    -0.45666     -1.3091      0.2708
0.054401    -0.22875     0.14648     0.71148     -1.0614     -1.1483     0.28823
0.065912    -0.29354    0.054401     0.52041     -1.5735    -0.95391     0.30237
0.093208      -0.333   -0.011043     0.44016     -1.8152    -0.74771     0.31322
0.1284    -0.36227   -0.048534      0.4224     -1.7346    -0.54118     0.32309
0.15734    -0.39648   -0.061031     0.40136     -1.3916    -0.33136     0.33361
0.16523    -0.44252    -0.06432      0.3267    -0.90425    -0.11793     0.34019
0.14517    -0.50829   -0.077475     0.17049    -0.40568    0.055388     0.33493
0.096496     -0.6007    -0.11365   -0.060373   -0.016305     0.10899     0.31223
0.032038    -0.70364    -0.17416    -0.32972     0.19581  -0.0034794     0.27376
-0.033406    -0.79539    -0.24849    -0.58031     0.25074    -0.27414     0.22739
-0.08471    -0.85525    -0.31886     -0.7579     0.24284    -0.65168     0.18299
-0.10806    -0.87399    -0.37181    -0.82663     0.30862     -1.0601     0.15142
-0.095233    -0.84637    -0.40174    -0.78224     0.58223     -1.4229     0.14451
-0.047219    -0.76974    -0.40009     -0.6599      1.1199     -1.6939      0.1649
0.023817    -0.64674     -0.3649    -0.51618      1.8339     -1.8724     0.20272
0.09255    -0.50599    -0.31031    -0.39845      2.5156     -1.9744     0.23922
0.12905    -0.39713     -0.2692    -0.33465      2.9379     -2.0158     0.26718
0.10209    -0.36194     -0.2771    -0.33465      2.9718      -1.999     0.28494
0.0060577     -0.4195    -0.35043    -0.38727      2.6117     -1.9037     0.29711
-0.1347    -0.56486    -0.48231    -0.45205      1.9562     -1.6741     0.31651
-0.26986      -0.775    -0.64707    -0.47968      1.1676     -1.2578     0.35038
-0.35833     -1.0101    -0.80822    -0.43956     0.42602    -0.64806     0.39708
-0.39089     -1.2183    -0.94404    -0.33925    -0.13536    0.089261      0.4497
-0.38168     -1.3607      -1.046    -0.22349    -0.47014     0.83678     0.49147
-0.35603     -1.4225     -1.1157    -0.13996    -0.62668      1.4577     0.50298
-0.32347     -1.4048     -1.1558    -0.11332    -0.71877      1.8168     0.46483
-0.28104     -1.3374     -1.1779    -0.14095    -0.85952      1.8086     0.36222
-0.21165     -1.2709     -1.1963    -0.21099     -1.0881      1.4294     0.19647
-0.097864     -1.2361     -1.2252    -0.30735     -1.3643     0.81704  -0.0087413
0.072818     -1.2239     -1.2617    -0.41621     -1.6093     0.22278    -0.22119
0.28231     -1.1946     -1.2923    -0.52112     -1.7567    -0.10181    -0.40371
0.46647     -1.0983     -1.2986    -0.61024     -1.7764  -0.0064392     -0.5369
0.55132    -0.90425     -1.2709    -0.66582     -1.6787     0.54408     -0.6155
0.50528    -0.62866     -1.2035    -0.67568     -1.4936      1.4577    -0.63392
0.35301    -0.33761     -1.1016    -0.64905     -1.2265      2.5834    -0.59314
0.15405    -0.12023    -0.97462    -0.60498    -0.85525      3.7755    -0.50237
-0.022883   -0.033735    -0.83157     -0.5642    -0.37115       4.921    -0.38661
-0.13864   -0.085039    -0.68128    -0.53822     0.19088      4.9594    -0.29091
-0.18534    -0.22612    -0.52704    -0.52704     0.78054      4.9598    -0.25473
-0.17613    -0.37905    -0.36852    -0.52079      1.3544      4.9594    -0.27874
-0.12417    -0.47343    -0.20508     -0.5004      1.8596      4.9594    -0.33202
-0.048534    -0.46981    -0.03242    -0.45567      2.2338       4.676    -0.37872
0.033025    -0.36556     0.15339    -0.38924       2.414      3.1796     -0.3945
0.10702     -0.1906     0.34413    -0.31919      2.3502      1.6774    -0.37115
0.17444  -0.0028217     0.52008    -0.26986      2.0444     0.46088    -0.30867
0.23692     0.14912     0.65919    -0.25868      1.5912    -0.31261    -0.21691
0.29447     0.25534     0.74305    -0.28861      1.1518     -0.6576    -0.11299
0.33986     0.34545     0.76508     -0.3478     0.86539    -0.72403   -0.018278
0.36058     0.44345     0.73253    -0.41752     0.78547    -0.66944    0.055059
0.35334     0.56283     0.66412    -0.48099     0.87525     -0.5836     0.10274
0.32802     0.69898     0.57796    -0.53296      1.0259    -0.49382     0.12708
0.3027     0.83119     0.48555    -0.56946      1.1387    -0.41983     0.13629
0.28921     0.93577     0.39511    -0.59281      1.2229    -0.39976     0.13563
0.28724      1.0038     0.31223    -0.60037      1.3768    -0.47244     0.12577
0.28987      1.0357     0.24054    -0.58492      1.6839    -0.63984     0.10932
0.28592      1.0371     0.18989    -0.53328      2.1279    -0.86511    0.087617
0.27441       1.014     0.16391    -0.44252      2.5604     -1.0897    0.066898
0.25172     0.96602     0.16293    -0.31985      2.7537     -1.2604     0.05473
0.21686     0.89466      0.1797    -0.19258      2.5354     -1.3426    0.058019
0.16359      0.8029     0.20305    -0.10115      1.8957     -1.3436    0.075449
0.086301     0.69109     0.21489    -0.07024     0.96734     -1.3094    0.099456
-0.011043     0.54935     0.20108   -0.086025   -0.078461     -1.3018     0.10965
-0.11595     0.36979     0.15799   -0.099838     -1.1118     -1.3578    0.092879
-0.21198     0.16128    0.089919   -0.055112      -2.097     -1.4761    0.045522
-0.28992   -0.054783   0.0096753    0.067227     -3.0383     -1.6366   -0.027487
-0.34846    -0.25868   -0.070897     0.23626      -3.915     -1.8126    -0.11825
-0.39582    -0.44581    -0.14621     0.39182      -4.677     -1.9793    -0.22382
-0.43462     -0.6155    -0.21691     0.47732     -4.9687     -2.1303    -0.33827
-0.46356    -0.77237    -0.28762     0.46121     -4.9684     -2.2648    -0.45403
-0.47409    -0.92168     -0.3603     0.35499     -4.9681      -2.396    -0.55302
-0.46817     -1.0624    -0.43331     0.21094     -4.9681     -2.5328    -0.61682
-0.45501     -1.1838    -0.49941    0.094194     -4.9684     -2.6673    -0.63589
-0.45173     -1.2686    -0.55039    0.047824     -4.5682     -2.7716    -0.60695
-0.4708     -1.3058    -0.57604    0.075449     -3.9729     -2.7923    -0.53888
-0.51816     -1.2963    -0.57045     0.15339     -3.2908     -2.6949    -0.45238
-0.58196     -1.2387    -0.53756     0.25139     -2.5131     -2.4792    -0.36293
-0.63556     -1.1335    -0.48099     0.34775     -1.6481     -2.1829    -0.28367
-0.65135    -0.97232     -0.4024     0.43095    -0.73357     -1.8451    -0.22349
-0.61123    -0.75428    -0.30143     0.50035     0.14846     -1.4827    -0.18107
-0.51421    -0.48823    -0.17679     0.55691     0.90222     -1.0812    -0.15048
-0.37674    -0.18633   -0.037353     0.59506      1.4725    -0.60695    -0.11661
-0.21987     0.14155     0.10538     0.61348      1.8467    -0.04393   -0.059058
-0.063004     0.47075     0.23955     0.60986      2.0447     0.60131    0.046508
0.083013     0.76574     0.35926     0.57796      2.1026      1.2755     0.20996
0.20765      1.0154     0.46976     0.51449      2.0533      1.8763     0.41846
0.29809      1.2239     0.58388     0.41977      1.9263      2.2713     0.62762
0.34611      1.3982     0.70918     0.31026      1.7438      2.3627     0.79041
0.35499      1.5527     0.84993     0.20502      1.5343      2.1417     0.87164
0.34216      1.7175      1.0035     0.12215      1.3393      1.6879     0.86506
0.33525      1.9109      1.1561     0.07216      1.1906      1.1518     0.79304
0.35466      2.1263      1.2854    0.067227      1.1012     0.70852     0.69273
0.40169      2.3318      1.3699      0.1057      1.0574     0.50725     0.59572
0.46384      2.4837      1.4021     0.16457      1.0311     0.62597     0.52041
0.52501      2.5433      1.3968     0.20239     0.98477      1.0469     0.46417
0.57434      2.4972      1.3817     0.18463     0.88479      1.6409     0.41616
0.60262      2.3601      1.3791     0.10801     0.72167      2.2236     0.36748
0.60295      2.1608      1.3932  -0.0064392     0.50955      2.6113     0.30533
0.57598      1.9237      1.4047    -0.12615     0.27672      2.6867     0.21982
0.52665      1.6783      1.3827    -0.22349    0.073804      2.4288     0.10176
0.45924      1.4643      1.3021    -0.29551   -0.040313      1.9033   -0.051823
0.37538      1.3284      1.1492    -0.35833   -0.030775       1.213    -0.23566
0.27507      1.2794      0.9305    -0.44482    0.093536     0.48555     -0.4366
0.16654      1.2696     0.67662    -0.56223     0.28724    -0.14785     -0.6405
0.058348      1.2301     0.43095    -0.67437     0.49508    -0.60366    -0.82927
-0.039326      1.1117     0.23594     -0.7283     0.66873    -0.88287    -0.98581
-0.12483     0.90551     0.11228    -0.69706     0.78876     -1.0315     -1.0956
-0.1962     0.63321    0.053743    -0.59215     0.87295     -1.1022     -1.1522
-0.25671     0.34019    0.041904    -0.44548     0.94925     -1.1371     -1.1555
-0.3067    0.082684    0.057361    -0.28104      1.0134     -1.1604     -1.1062
-0.35307   -0.088656    0.080711    -0.11464      1.0022      -1.191     -1.0039
-0.39516    -0.15279     0.10044    0.037629     0.86703     -1.2555    -0.85886
-0.43134    -0.14259     0.10505     0.15668     0.61084     -1.3883    -0.68654
-0.45666    -0.11858    0.085972     0.21883     0.28165     -1.5985     -0.5152
-0.4708    -0.12713    0.039931     0.20436   -0.056427      -1.852     -0.3649
-0.47409    -0.17975   -0.022883     0.11721    -0.35668     -2.0694    -0.23961
-0.46291    -0.26657    -0.08175    0.022501    -0.58755     -2.1681    -0.13733
-0.42805    -0.36984    -0.11924   -0.014661    -0.72041     -2.1046   -0.049521
-0.36819    -0.47639    -0.12154    0.035985    -0.73488     -1.8836    0.025461
-0.29025    -0.59314   -0.082408     0.14221     -0.6257     -1.5515    0.088275
-0.20836    -0.74244  -0.0054526     0.23232    -0.40305     -1.1973     0.13366
-0.13996    -0.93713    0.083342     0.22903   -0.091945    -0.92398     0.15339
-0.092274     -1.1532     0.14714     0.10011     0.26389    -0.79112     0.14714
-0.063991     -1.3393     0.14977     -0.1176     0.61183    -0.80065      0.1159
-0.055769     -1.4518    0.083999    -0.33991      0.9111    -0.92727    0.071502
-0.062676     -1.4919   -0.034722    -0.48231      1.1485     -1.1331    0.026119
-0.081421     -1.4965    -0.17416    -0.49481      1.3245     -1.3676  -0.0087413
-0.10905     -1.5015    -0.31261    -0.38332      1.4212      -1.564   -0.035051
-0.14752     -1.5008    -0.43726    -0.18666      1.3932     -1.6383   -0.056098
-0.18929     -1.4403    -0.54644    0.054401      1.2025     -1.5238   -0.077475
-0.22514     -1.2581    -0.63293     0.31947     0.84303     -1.1927   -0.096878
-0.24487    -0.92825    -0.68095     0.59901     0.33723    -0.65431    -0.11825
-0.24257    -0.49842    -0.68193     0.89038    -0.27447    0.065912    -0.13963
-0.21889   -0.086683    -0.64938      1.1956    -0.92858     0.93609    -0.15279
-0.18304      0.1695    -0.61879      1.5106     -1.5455      1.9224    -0.14095
-0.14292     0.19253    -0.62274       1.805     -2.0461      2.9675   -0.089972
-0.10543   -0.014332    -0.67108      2.0266     -2.3832      3.9396   -0.011701
-0.07879    -0.38825    -0.74968      2.1253     -2.5795      4.6474    0.074133
-0.060373    -0.83847    -0.83946      2.0763     -2.7041      4.9154     0.14714
-0.054125     -1.2867    -0.92464      1.8832     -2.8018      4.6539     0.19549
-0.062018      -1.684      -0.996      1.5919     -2.8436      3.8972     0.21324
-0.088656     -2.0204     -1.0516      1.2735     -2.7469      2.8221     0.21193
-0.12648     -2.3036     -1.0874     0.99233     -2.4312      1.6833     0.20864
-0.16627     -2.5226      -1.097     0.77232     -1.8807     0.70819      0.2241
-0.19652     -2.6433     -1.0723     0.59276     -1.1641   -0.010715     0.26948
-0.20771     -2.6163     -1.0095     0.41451    -0.40108    -0.52013     0.33493
-0.19324     -2.4036    -0.90786     0.20436     0.31947    -0.92003     0.39248
-0.15344      -2.005    -0.77599   -0.035051     0.97655     -1.2729     0.41813
-0.092931     -1.4791    -0.62833    -0.27249      1.6303     -1.5778     0.39708
-0.013017    -0.93352    -0.48034    -0.48132      2.3696     -1.7741     0.33131
0.085972    -0.49579    -0.34747    -0.65562       3.202     -1.7965     0.23955
0.19779    -0.27315    -0.23895    -0.81414      3.9778      -1.611     0.14122
0.30796    -0.27052    -0.14851    -0.98778      4.4688     -1.2542    0.052099
0.40267    -0.35339   -0.062018     -1.2022      4.5105    -0.83354   -0.010715
0.47042    -0.34353    0.029407     -1.4761      4.0781    -0.48198   -0.034722
0.50166    -0.13963     0.12905     -1.8146      3.2891    -0.28927   -0.018936
0.49574     0.23922     0.24218     -2.1983       2.342    -0.27019    0.033683
0.45858     0.68944     0.37768      -2.589      1.4396     -0.3899     0.11886
0.40366      1.0907     0.53751     -2.9255     0.73318    -0.62833     0.22114
0.34742      1.3745     0.71707     -3.1034     0.28527    -0.94009     0.32144
0.3096      1.5577     0.90781     -2.9929    0.065254     -1.2157     0.40169
0.30335      1.7132      1.0884     -2.5088   -0.022554     -1.3058     0.44937
0.33197      1.9059      1.2331     -1.6797   -0.083394     -1.0881     0.46022
0.38721      2.1542       1.312    -0.65858    -0.17778    -0.51322      0.4303
0.44707      2.4222      1.3094     0.32901      -0.309     0.39182     0.36683
0.49212      2.6515      1.2285      1.0755     -0.4435      1.5264     0.28494
0.50692       2.782      1.0907      1.4922    -0.55236      2.7669       0.207
0.48324      2.7725     0.91603      1.5945    -0.62701      3.9863     0.15306
0.42503      2.6084     0.72102      1.4925    -0.68029      4.9594     0.14024
0.34545      2.3272     0.51186       1.333    -0.71975      4.9598     0.17312
0.26126      1.9934     0.30171      1.2446    -0.74804      4.9598     0.24383
0.18825      1.6616     0.10932      1.2854    -0.78322      4.9598     0.33164
0.13563      1.3616   -0.054125      1.4396    -0.86478      4.9591     0.41287
0.10899      1.0933    -0.18863      1.6359     -1.0161      4.1971     0.47963
0.11261     0.84105     -0.2988      1.8023     -1.1983      2.7524     0.53882
0.1432     0.57927    -0.37905      1.8993     -1.3196      1.3113     0.59637
0.18858     0.29645    -0.41785      1.9253     -1.2601    0.053743     0.64899
0.231  -0.0093991    -0.42344      1.8845    -0.94338    -0.90622     0.68583
0.24843    -0.33925    -0.42936      1.7708    -0.40338     -1.5399     0.69372
0.2241    -0.67963    -0.47968      1.5721     0.20601      -1.882     0.66577
0.16095     -1.0046    -0.60037      1.2863     0.67629     -1.9964     0.60295
0.077093     -1.2887    -0.77599     0.92426      0.8348      -1.954     0.51876
-0.0077547     -1.5186    -0.95851     0.51843     0.63288     -1.8123     0.42635
-0.081092     -1.6679     -1.1062     0.10472     0.18792     -1.5968      0.3415
-0.13799     -1.7215     -1.1963    -0.28335    -0.29058     -1.3222     0.28165
-0.17975      -1.682     -1.2282    -0.62701      -0.628     -1.0059       0.256
-0.20902     -1.5613      -1.218     -0.9197    -0.76843    -0.67634     0.25731
-0.22711      -1.391     -1.1835     -1.1456    -0.76448    -0.38562     0.28033
-0.23434     -1.2078     -1.1335     -1.2861    -0.73061    -0.18534     0.31486
-0.23007     -1.0401     -1.0723      -1.318    -0.75856   -0.089314     0.35104
-0.2133    -0.89701     -1.0019     -1.2292    -0.86117   -0.086025     0.38064
-0.18337    -0.78881    -0.92628     -1.0388    -0.98054    -0.15969     0.40169
-0.14358    -0.71482    -0.84045    -0.79638     -1.0417    -0.30242     0.41813
-0.10115    -0.66023    -0.73422    -0.55959    -0.99107    -0.48132     0.43128
-0.062676    -0.59182    -0.59577    -0.36589    -0.81085    -0.63129     0.44082
-0.03538    -0.47804    -0.43726    -0.22974    -0.53263    -0.67009     0.44312
-0.0265    -0.31689    -0.27512    -0.15443     -0.2179    -0.54315     0.43424
-0.037682    -0.14456    -0.12976    -0.13634    0.064267    -0.25638     0.40892
-0.055112    0.022501    -0.01499     -0.1643     0.25402     0.10866     0.36156
-0.064649     0.22607     0.06624    -0.21659     0.32835     0.41681     0.29283
-0.055769     0.55329     0.12313    -0.25967     0.29612      0.5408     0.20601
-0.030775      1.0463     0.16753    -0.26131     0.19121     0.42043      0.1113
0.002769      1.6261     0.20996    -0.20475    0.052757    0.095181    0.027105
0.029407      2.1371     0.26126     -0.0903   -0.084381    -0.32807   -0.037353
0.0373      2.4245     0.31914    0.056374    -0.20244    -0.74244   -0.082079
0.0021113      2.3992     0.37866     0.20864    -0.30374     -1.0914    -0.10576
-0.11858      2.0687     0.42931     0.33065    -0.40766     -1.3729    -0.11003
-0.358      1.5228     0.46614     0.40563    -0.52309     -1.6333   -0.097536
-0.70857     0.88578     0.48851     0.44411    -0.63688     -1.9362   -0.083394
-1.0956     0.27704     0.51054     0.46154    -0.71548      -2.319   -0.086025
-1.41    -0.20508     0.55395     0.46483    -0.72304      -2.765    -0.12713
-1.5626    -0.51881     0.63485     0.43161    -0.62767     -3.2096    -0.21659
-1.5268    -0.68818     0.75127     0.31651    -0.43101     -3.5704     -0.3432
-1.3252    -0.78257     0.87756    0.093536    -0.19192     -3.7766    -0.48034
-0.99732    -0.86906     0.97556    -0.19916  0.00046697     -3.8062      -0.603
-0.56551    -0.98942      1.0154    -0.48461    0.080711     -3.6598    -0.70265
-0.044588     -1.1394     0.98806     -0.6941    0.039602      -3.349    -0.77237
0.58158     -1.2742     0.90387    -0.80131   -0.077475     -2.9047     -0.8069
1.3182     -1.3423     0.78876     -0.8217    -0.19093     -2.3904    -0.80065
2.0674     -1.3347     0.67136     -0.7921    -0.23862     -1.8945    -0.75461
2.6202     -1.2926       0.575    -0.74738    -0.20639     -1.5044    -0.68259
2.7847     -1.2719     0.50396    -0.70758    -0.12154     -1.2486    -0.60004
2.5107     -1.3058     0.45299    -0.67733   -0.021896     -1.0792    -0.52145
1.9273     -1.3818     0.41024    -0.65365    0.057032    -0.89405    -0.46784
1.2535     -1.4495     0.36058    -0.63786     0.08959    -0.57045    -0.46192
0.68648     -1.4561      0.2902    -0.63556    0.071173   0.0017824    -0.51224
0.3221     -1.3555     0.19779    -0.64444    0.029407     0.89005     -0.6007
0.15339     -1.1177     0.09255     -0.6497    0.020528       2.097    -0.70002
0.10899    -0.73916   -0.013674    -0.63885    0.080382      3.5131    -0.78158
0.11261    -0.24059    -0.10905    -0.61517     0.21357       4.871    -0.81907
0.11228     0.32177    -0.18271     -0.5984     0.38195      4.9594    -0.79375
0.087288     0.85092    -0.23665    -0.60564     0.53159      4.9598    -0.70298
0.04322      1.2446    -0.27907    -0.64247     0.61775      4.9594    -0.56814
-0.0047949      1.4304    -0.31623    -0.69311     0.62203      4.9594    -0.42377
-0.048863      1.3903    -0.35043    -0.73061     0.55461       3.842    -0.29584
-0.086354      1.1768    -0.37444    -0.73554     0.45003      2.6212    -0.19916
-0.11431      0.8917    -0.37576     -0.7043      0.3415      1.5211    -0.13536
-0.13108     0.63123     -0.3478    -0.63589     0.25665     0.67958   -0.091945
-0.13503     0.44773    -0.29091    -0.53131     0.20404     0.15306   -0.059058
-0.13437     0.35038    -0.21691    -0.40141     0.17641   -0.090629   -0.025514
-0.1393      0.3244    -0.14193    -0.27184     0.16885    -0.13634   0.0086887
-0.15476     0.35104   -0.083394    -0.16364     0.18167   -0.080434    0.039931
-0.18173     0.42701   -0.048534   -0.089314     0.21423    -0.01795    0.065583
-0.22777     0.57138   -0.042286   -0.059387     0.25797   -0.024198    0.079724
-0.30341      0.8108   -0.058729   -0.067937     0.29776    -0.12746    0.073147
-0.41259      1.1676   -0.081092   -0.098522      0.3198    -0.30801    0.045851
-0.53065      1.6086   -0.095233    -0.13009     0.31092    -0.51717   0.0077021
-0.62208      2.0398   -0.082736    -0.14259     0.27376    -0.70561   -0.025514
-0.65858      2.3509   -0.038668    -0.12812     0.22508    -0.84143   -0.038997
-0.6326      2.4742    0.032696   -0.087998     0.18299    -0.91477   -0.022883
-0.55762      2.3805     0.12215   -0.023869     0.15207    -0.93154    0.022501
-0.4514      2.0671     0.21949    0.064596      0.1284    -0.90918     0.08663
-0.32972      1.5807     0.31026     0.17575     0.10472    -0.86347     0.15997
-0.18995       1.013     0.38754     0.29809    0.081039    -0.80559     0.23626
-0.021238     0.47239     0.44312     0.41221    0.060979     -0.7408     0.31059
0.18266    0.062623     0.47404      0.4987    0.042562    -0.67404     0.37702
0.4076    -0.15279     0.47765     0.55494    0.020528     -0.6086     0.42767
0.61216    -0.18666     0.45891     0.58848   -0.013674    -0.55466     0.45726
0.74469     -0.1051     0.42405     0.61545   -0.060373    -0.52309     0.46647
0.77429    0.016253     0.37899     0.64538    -0.10017    -0.51257     0.45989
0.70786     0.11524     0.32802     0.67103    -0.11233    -0.50961     0.44773
0.5796     0.13728     0.26422     0.66938   -0.095562    -0.50402     0.43326
0.42931    0.030723     0.17345     0.61874   -0.066951    -0.49152     0.41616
0.28724    -0.24289    0.052428     0.50067   -0.056098    -0.47442     0.39281
0.16457    -0.69871   -0.092931     0.31881   -0.086354    -0.46422     0.36091
0.049468      -1.318    -0.25441    0.094523    -0.15936    -0.47113     0.31552
-0.063333     -2.0379    -0.41588     -0.1393    -0.24717    -0.50007      0.2629
-0.17778     -2.7781    -0.56387    -0.35274    -0.30801    -0.54282     0.21588
-0.28729     -3.4484    -0.68785     -0.5198    -0.31492    -0.57966     0.18989
-0.38299     -3.9607    -0.78717    -0.61813     -0.2692     -0.6086     0.20206
-0.44942     -4.2452    -0.86215     -0.6428    -0.19554    -0.63392     0.25238
-0.47935     -4.2758    -0.91543    -0.61649    -0.12779    -0.64543     0.33427
-0.47409     -4.0811    -0.94766    -0.57735   -0.088985     -0.6326     0.42898
-0.44449     -3.7299    -0.95391    -0.55203   -0.089972    -0.60037     0.51218
-0.40437     -3.3102    -0.93352    -0.54315     -0.1222     -0.5619     0.56217
-0.36589     -2.8909     -0.8878    -0.55203    -0.17712    -0.53888     0.56776
-0.34419     -2.5141    -0.82302    -0.57768    -0.25079    -0.55499     0.53553
-0.34978     -2.1974    -0.74738     -0.6155    -0.34254    -0.62537     0.47173
-0.38201     -1.9208    -0.66746    -0.64938    -0.45765    -0.74836     0.37801
-0.42838      -1.638    -0.58919     -0.6576    -0.60037    -0.92234     0.25961
-0.46718     -1.3147    -0.50994    -0.61123    -0.77698     -1.1443     0.13958
-0.47771    -0.94207    -0.41687    -0.49711    -0.98811     -1.3959    0.040589
