0.13366     0.20042      0.1751      1.0265     0.57862      0.2162   0.0040845
0.13103     0.17904     0.19384      1.2275     0.56579   0.0030979  -0.0024928
0.11656     0.15668     0.19055      1.1844     0.64373    -0.23237   -0.019265
0.092221     0.15175     0.17608     0.91866     0.76179    -0.47047   -0.031433
0.066898     0.17707     0.16654     0.52896      0.8621    -0.69048   -0.029789
0.052428       0.231     0.17378     0.12971     0.90091     -0.8638   -0.015648
0.05177     0.29513     0.18957    -0.19159     0.86637    -0.97364   0.0040845
0.059992     0.34644     0.20075    -0.39352     0.76607     -1.0197    0.025461
0.061636     0.36979     0.19253    -0.47771     0.61907    -0.99699    0.044535
0.052099     0.36979     0.16194     -0.4754     0.44148    -0.89997    0.056374
0.035656     0.35827     0.12149    -0.43199     0.25074    -0.73159    0.062952
0.020857     0.34413    0.086301    -0.38431    0.067227    -0.50632    0.073804
0.01987     0.33295    0.065912      -0.358   -0.086683     -0.2373    0.094523
0.0373     0.33164    0.058348    -0.36622    -0.19685    0.057032     0.12215
0.069529     0.33854    0.062623    -0.40766     -0.2521     0.33624     0.14583
0.10801      0.3438    0.062952    -0.47047    -0.25901      0.5283      0.1524
0.13991     0.32374    0.038944    -0.53986    -0.24684     0.54968     0.13859
0.15438      0.2606   -0.025185    -0.61287       -0.26     0.36189     0.10899
0.14517     0.15109    -0.12253    -0.69706    -0.32774   0.0073732    0.075778
0.11228    0.013293    -0.23369     -0.7921    -0.45403    -0.40864     0.04881
0.057361    -0.12746    -0.33827    -0.88715    -0.61813    -0.77599    0.024145
-0.0084125    -0.25473     -0.4218    -0.96476     -0.7898     -1.0226    0.002769
-0.070897      -0.358    -0.47508     -1.0052    -0.92464     -1.1223    -0.01499
-0.11431    -0.42903    -0.49053    -0.99633    -0.97134     -1.0822   -0.021896
-0.13536    -0.46126    -0.46455    -0.93352    -0.88846    -0.94272   -0.017621
-0.13568    -0.45337    -0.39944    -0.83058    -0.67667    -0.76678  -0.0084125
-0.12089    -0.41029    -0.30637    -0.70331    -0.40404    -0.61419  -0.0034794
-0.10181    -0.34715    -0.20212    -0.56617    -0.18074     -0.5152   -0.011372
-0.089643    -0.28927    -0.11299     -0.4389    -0.10247    -0.47047   -0.038997
-0.092274    -0.25704    -0.06432    -0.34287    -0.19356    -0.47672   -0.086354
-0.10937    -0.24816   -0.063991    -0.30176    -0.40503    -0.51816    -0.13996
-0.13667    -0.25441    -0.10477    -0.32314    -0.65233    -0.57637    -0.18107
-0.16397    -0.26592    -0.16594    -0.39352    -0.86544    -0.62767    -0.19389
-0.17745    -0.27085    -0.22875    -0.48165     -1.0036    -0.63162    -0.16397
-0.16561    -0.25835    -0.27578    -0.55499     -1.0466    -0.55071     -0.0903
-0.1324    -0.23007    -0.29716    -0.59577    -0.98811    -0.40075    0.019541
-0.09326     -0.2031    -0.29946    -0.60465    -0.82663    -0.24026     0.14747
-0.061031    -0.19521    -0.29814    -0.59051    -0.56058    -0.13207     0.27211
-0.043272    -0.21823    -0.30801    -0.56124    -0.18436    -0.10247     0.37669
-0.038011    -0.26888    -0.32939     -0.5198     0.27211      -0.137     0.45398
-0.039326    -0.32873    -0.35438    -0.46521     0.73088    -0.17613     0.50955
-0.039984    -0.37707    -0.37674     -0.3945      1.0884    -0.13568     0.54935
-0.032091    -0.40404     -0.3899    -0.32051      1.2686    0.058348     0.58059
-0.014332    -0.40503    -0.39056    -0.25243      1.2416     0.42536     0.61052
0.010004    -0.38825     -0.3728    -0.19422      1.0302     0.92853     0.64439
0.031709    -0.36458    -0.34024    -0.14259     0.72036      1.4781     0.68254
0.039602    -0.34386     -0.2988   -0.087341     0.46285      1.9559     0.71411
0.032696    -0.33004    -0.25704   -0.021896     0.42964      2.2486     0.72332
0.013951    -0.32084    -0.22645    0.052099     0.68977      2.2979     0.70424
-0.007097    -0.31261    -0.21001     0.12313      1.1344      2.1358      0.6582
-0.02354    -0.30538    -0.20639     0.17115      1.5613      1.8579     0.59637
-0.036695    -0.30275    -0.21067     0.17345      1.7826      1.5688     0.52929
-0.054454    -0.30834    -0.21593     0.12478      1.7047      1.3294     0.46516
-0.076817    -0.31952    -0.21659    0.044535      1.3574      1.1426     0.40399
-0.097864    -0.32347    -0.20376   -0.034722     0.86637     0.97063     0.33986
-0.10773    -0.30538    -0.16989   -0.078461     0.37801     0.75456     0.27244
-0.099509    -0.25901    -0.11069   -0.060045  -0.0097279     0.45759     0.20634
-0.070568    -0.18534   -0.022883    0.031381    -0.27381    0.087288     0.14352
-0.030118   -0.090629     0.08663     0.18496    -0.43758    -0.29255     0.08367
0.012306    0.013293     0.20338      0.3757    -0.54348    -0.60662     0.02283
0.046508     0.11853     0.30894       0.575    -0.62931    -0.81512   -0.051165
0.071173     0.22147     0.39577     0.76114    -0.70101     -0.9151    -0.14851
0.08959     0.32243     0.46581      0.9282    -0.72633    -0.91674    -0.25868
0.10702     0.41714     0.52534      1.0795    -0.65497    -0.83354    -0.35471
0.12313     0.48883     0.56776      1.2087    -0.50336    -0.68522    -0.41423
0.13464     0.51778       0.575      1.2906    -0.37082     -0.5027    -0.43462
0.13366     0.49377     0.53685       1.283    -0.32149    -0.32906    -0.42279
0.12511     0.42109     0.45529      1.1568    -0.31919    -0.20968    -0.39253
0.1159     0.32605     0.35367      0.9157    -0.29782    -0.17087    -0.35997
0.11327     0.24251     0.26093     0.59539    -0.23796     -0.1906    -0.33531
0.11985     0.18989     0.19154     0.24218    -0.17054    -0.19718    -0.32643
0.13267     0.16326      0.1432    -0.09918    -0.14062    -0.12121    -0.33004
0.14484     0.14385     0.10406    -0.39187    -0.17416    0.073476     -0.3409
0.14944     0.11952    0.071173    -0.60432    -0.27282      0.3813    -0.34813
0.14352    0.081039    0.047824    -0.72962    -0.42542     0.76245    -0.34386
0.12445    0.024145    0.032696    -0.78783    -0.61254      1.1393    -0.32478
0.088932   -0.047548    0.010662    -0.81414        -0.8      1.4136    -0.28598
0.042562    -0.12549   -0.033078    -0.83058    -0.94371      1.4955    -0.22481
-0.004466    -0.19883    -0.10543    -0.84571     -1.0052      1.3666    -0.14621
-0.039655    -0.26065    -0.18995    -0.86051    -0.94404      1.0989   -0.063333
-0.058729     -0.3113    -0.26296    -0.86972    -0.74277     0.83711   0.0057288
-0.068266    -0.34715    -0.31623     -0.8661    -0.43364     0.73187    0.055717
-0.074844    -0.35899    -0.35635    -0.83946   -0.098193     0.85092    0.084657
-0.079777    -0.34188    -0.39121    -0.77928     0.19746      1.1607    0.096825
-0.077475    -0.29749    -0.42213    -0.68062     0.46779      1.5517     0.08959
-0.063333    -0.24125    -0.43956    -0.54381     0.78186      1.8984    0.058348
-0.034064      -0.186    -0.42969    -0.37444      1.1722      2.1263   0.0057288
0.0093464    -0.13864     -0.3899    -0.19225       1.557       2.173   -0.050179
0.056046    -0.10247     -0.3307   -0.033078       1.781      1.9799   -0.084052
0.091563   -0.082408    -0.26624    0.077751      1.7359      1.5603   -0.082408
0.10768    -0.07879    -0.21001     0.16128      1.4268      1.0055   -0.053796
0.097812   -0.082079    -0.15936     0.25764     0.94991     0.41944   -0.023869
0.058676   -0.077146    -0.10017     0.41254     0.44542    -0.12779   -0.015648
0.0044134   -0.063991   -0.025842     0.64932    0.070516     -0.6109   -0.026829
-0.051165   -0.048534    0.059663     0.96175   -0.032091     -1.0407   -0.041299
-0.08471   -0.023211      0.1478       1.308     0.19055     -1.4239   -0.040641
-0.078461    0.030065     0.23561      1.6201     0.64077     -1.7455   -0.019265
-0.028144     0.13793     0.33821      1.8418      1.0959     -1.9718    0.021843
0.053743     0.31322     0.47897      1.9549      1.3376     -2.0556    0.078409
0.14813     0.53882     0.68155      1.9779      1.2554     -1.9685      0.1501
0.23791     0.77166     0.93971      1.9424     0.87986      -1.735     0.23199
0.31026     0.96832      1.2169      1.8661     0.36058     -1.4074      0.3198
0.35893       1.112      1.4659      1.7504    -0.11793      -1.044     0.40399
0.38557      1.2216      1.6629      1.5843    -0.41423    -0.69147     0.47239
0.39873      1.3271      1.8099      1.3531    -0.48132    -0.39154     0.50692
0.40826      1.4412      1.9138      1.0459     -0.3751    -0.18205     0.50265
0.42306      1.5596      1.9595       0.673    -0.22908   -0.071555     0.46779
0.452      1.6691       1.927     0.26192    -0.17811   0.0060577     0.41879
0.48982      1.7671      1.8043    -0.14292    -0.29124      0.1751     0.37768
0.52698      1.8556       1.606    -0.49283    -0.54874     0.52369     0.36354
0.55395      1.9273      1.3722    -0.76514    -0.85557      1.0371     0.37505
0.55954      1.9625      1.1364    -0.97364     -1.0973      1.5866     0.39675
0.53257      1.9345     0.91834     -1.1562     -1.2094      2.0079      0.4053
0.46614       1.829     0.71082     -1.3305     -1.1917      2.1848     0.38557
0.36847      1.6474     0.50955     -1.4827     -1.0927      2.0812     0.34052
0.256      1.4136     0.31848     -1.5916    -0.98646      1.7599     0.27935
0.1478      1.1525     0.14484     -1.6389    -0.93089      1.3462     0.21851
0.05769     0.88282  -0.0057815     -1.5975    -0.93845     0.95221     0.17148
-0.011701     0.61216    -0.13996     -1.4248     -0.9664     0.63584      0.1432
-0.061689     0.34545    -0.27085     -1.1151    -0.95095     0.40464     0.13497
-0.095233    0.096167    -0.40272    -0.73159    -0.83025      0.2389      0.1478
-0.11365     -0.1268    -0.53164    -0.40207     -0.5323     0.11985     0.17214
-0.11628     -0.3136    -0.65003    -0.24125   -0.024527    0.024145     0.19746
-0.10411    -0.46685    -0.75494     -0.2748     0.60262   -0.068595     0.21916
-0.077146     -0.5938     -0.8467    -0.43298      1.1413    -0.17186     0.23462
-0.043601     -0.7066    -0.92924    -0.60596      1.3942    -0.29617      0.2458
-0.013017    -0.81282     -0.9914    -0.70627      1.2811    -0.43232     0.24975
0.0037556    -0.91214     -1.0213    -0.69081     0.89959    -0.56683     0.24087
0.0014536     -1.0003      -1.018    -0.56486     0.47404    -0.69377     0.20568
-0.023869     -1.0703    -0.99337    -0.38464     0.21588    -0.81776     0.13432
-0.06432     -1.1141    -0.96575     -0.2133      0.2093    -0.92299    0.027105
-0.11168     -1.1285     -0.9424   -0.093918     0.37932    -0.99107    -0.10641
-0.16199     -1.1157    -0.92168   -0.029789     0.53915     -1.0289    -0.24355
-0.20869     -1.0868    -0.89537    0.014279     0.49212     -1.0713    -0.36359
-0.24881     -1.0529    -0.85689    0.086301     0.12577     -1.1562    -0.45962
-0.2748     -1.0128     -0.7921     0.23133    -0.51849     -1.3032    -0.53296
-0.28137    -0.95489    -0.68621     0.47897     -1.2456      -1.486    -0.58229
-0.26789    -0.86709    -0.53098     0.82428     -1.8208     -1.6442    -0.60399
-0.23566    -0.74376    -0.33366      1.2334      -2.077     -1.7182    -0.59544
-0.19291    -0.58261    -0.10872      1.6622     -1.9543     -1.6916    -0.56782
-0.14818    -0.39582     0.13267       2.071     -1.4979      -1.587    -0.53493
-0.1074    -0.21001     0.37866      2.4222    -0.81578     -1.4285    -0.50566
-0.074844   -0.053138     0.61545      2.6768   -0.047877     -1.2344    -0.47935
-0.054783    0.060979     0.83053      2.7873     0.66609     -1.0256    -0.45304
-0.049192     0.13399      1.0094      2.7146      1.2255    -0.82795     -0.4218
-0.054783     0.17246      1.1318      2.4657      1.5685    -0.65135    -0.37905
-0.068595     0.18759      1.1795      2.0921      1.6537    -0.48001    -0.32248
-0.088656     0.18891      1.1479      1.6514      1.4814    -0.32676    -0.25671
-0.11266     0.18069      1.0459      1.1926      1.1117    -0.22711    -0.19093
-0.13536     0.16589     0.89203     0.74535     0.66873    -0.15542    -0.13996
-0.15805     0.14747     0.70391     0.34841      0.2754   -0.051823    -0.11562
-0.18469     0.12215     0.49706    0.041904  -0.0054526    0.078737    -0.12615
-0.21363    0.096167     0.28559    -0.15542    -0.20014      0.1672    -0.16627
-0.23237    0.084657    0.081697    -0.26131    -0.39253     0.14089    -0.22349
-0.2327     0.08663   -0.098522     -0.3159    -0.67009   -0.039984    -0.28203
-0.22415    0.090577    -0.23599    -0.35668     -1.0687    -0.36721    -0.32676
-0.22678    0.082355    -0.31853    -0.39385     -1.5682    -0.78618     -0.3478
-0.27019    0.052428    -0.34846    -0.41687     -2.1201     -1.1979    -0.33596
-0.36194    0.002769    -0.34583    -0.43232     -2.6377     -1.4788    -0.29551
-0.47771   -0.056756    -0.33564     -0.4685     -3.0041     -1.5505    -0.24322
-0.5767    -0.11793    -0.34024    -0.55137     -3.1244     -1.4229    -0.20146
-0.6257    -0.16923    -0.37609    -0.67996     -2.9758      -1.192    -0.18205
-0.61024    -0.20672     -0.4389    -0.82598     -2.6025     -0.9664    -0.18699
-0.54118    -0.22875    -0.51684    -0.95851     -2.0714    -0.80624    -0.20409
-0.4366    -0.23796     -0.6007     -1.0582     -1.4383    -0.71811    -0.21527
-0.31952    -0.25046    -0.68193     -1.1124    -0.75264     -0.6576    -0.20475
-0.20902    -0.29025    -0.75001     -1.1003   -0.080434    -0.56979     -0.1689
-0.11628    -0.37444    -0.79671     -1.0042     0.49903    -0.43002    -0.11266
-0.040641    -0.50599     -0.8148    -0.83782     0.90781    -0.25539   -0.050179
0.030065    -0.66878     -0.8069    -0.64477      1.1111   -0.082736    0.014279
0.11195    -0.83058    -0.78421    -0.47804      1.1426    0.047824    0.077093
0.2116    -0.96015     -0.7579    -0.36425      1.0884     0.11721     0.12642
0.3221     -1.0348    -0.73061    -0.30045      1.0328     0.13563      0.1524
0.42372      -1.048    -0.69147    -0.25671      1.0255       0.133     0.15602
0.50067     -1.0019    -0.62438    -0.19159      1.0752     0.15273     0.15767
0.5454    -0.91082    -0.52572   -0.068595       1.167     0.20667     0.17575
0.55066     -0.8023    -0.41917     0.11393      1.2735     0.30171     0.21555
0.50824    -0.70923     -0.3386      0.3198      1.3538     0.45726     0.27112
0.41122     -0.6576    -0.31459     0.49673      1.3633     0.66873     0.32309
0.26915    -0.66187    -0.35372     0.60493      1.2998     0.90452     0.36354
0.10669    -0.71614    -0.45074      0.6194       1.213      1.1449     0.39313
-0.057085    -0.79802    -0.58853     0.52961      1.1538      1.4074     0.41681
-0.23928    -0.88517     -0.7454     0.33986      1.1337      1.7398      0.4395
-0.45863    -0.95785    -0.89668    0.068214      1.1199      2.1631     0.46187
-0.68851     -1.0009     -1.0256    -0.25671       1.067      2.6265     0.47963
-0.87333     -1.0085     -1.1174     -0.5984     0.95517      3.0267      0.4839
-0.96344     -0.9789     -1.1644    -0.90951     0.79797      3.2342     0.46943
-0.9424    -0.91905     -1.1594     -1.1552     0.62301       3.149     0.43556
-0.82927    -0.83814     -1.1058     -1.3265     0.45891      2.7643     0.38557
-0.66187    -0.74606     -1.0124     -1.4331      0.3175      2.1766     0.32506
-0.47869    -0.65135    -0.89504     -1.4886     0.18628      1.5126     0.25896
-0.30571    -0.56321    -0.76777     -1.4972    0.047166     0.87756     0.19877
-0.15772    -0.48823    -0.64576     -1.4475   -0.095891     0.33986      0.1501
-0.030447    -0.42706    -0.53953       -1.34    -0.21987   -0.067609     0.11787
0.09255    -0.37346    -0.45205     -1.2009    -0.29584     -0.3386     0.10373
0.24251     -0.3159    -0.37543     -1.0743    -0.30768    -0.49218     0.10307
0.44279    -0.24158    -0.30341     -1.0065    -0.26822    -0.55795     0.11031
0.68221    -0.14062    -0.23303     -1.0325    -0.21527    -0.56058     0.11458
0.90781   -0.015648    -0.16035     -1.1578    -0.17613    -0.51816     0.10965
1.066     0.12577   -0.087012     -1.3472    -0.15673    -0.44449    0.093536
1.1367     0.27672   -0.012359     -1.5416    -0.15048    -0.36326    0.070516
1.0979     0.42898    0.066569     -1.6804    -0.16594    -0.31064    0.041904
0.90025     0.56941      0.1524     -1.7175    -0.22744    -0.32182    0.013293
0.51514     0.69503     0.25567     -1.6284    -0.36227    -0.40371  -0.0064392
0.010004     0.82296     0.38721     -1.4123    -0.57242    -0.52539   -0.015319
-0.46521     0.96668     0.54474     -1.0835    -0.83847    -0.64477   -0.016963
-0.77467      1.1173     0.71148    -0.66549     -1.1072    -0.73455   -0.017292
-0.8661      1.2436     0.85388    -0.17877     -1.2884    -0.77467   -0.022554
-0.76843      1.3071     0.93905     0.36584     -1.2903    -0.74968   -0.036695
-0.55795       1.285     0.95846     0.94728     -1.0933    -0.65727   -0.055769
-0.31722       1.189     0.92886      1.5162    -0.79638    -0.51059   -0.071884
-0.097864      1.0459     0.87723      2.0026    -0.54578    -0.34123   -0.083723
0.082684      0.8894     0.82461      2.3479    -0.43101    -0.18238   -0.097536
0.24021     0.74996     0.77758      2.5193    -0.43265   -0.065635    -0.12516
0.41484     0.64669     0.73121      2.5156    -0.43134   -0.027158    -0.16857
0.64373     0.58125     0.67662      2.3522    -0.28729   -0.085696    -0.21659
0.93642     0.54211     0.61052      2.0625    0.064267    -0.23862    -0.24684
1.259     0.51909     0.53521      1.6948     0.56579    -0.47902    -0.24651
1.557     0.50166     0.45858      1.2965      1.0854    -0.78651    -0.22086
1.7694     0.47667     0.38952     0.90189      1.4939     -1.1114      -0.186
1.8448     0.43161     0.33262      0.5431      1.7211     -1.3841    -0.16331
1.7385     0.36485     0.28954       0.256      1.7747     -1.5337    -0.16791
1.4475     0.28066     0.25863    0.069529       1.705     -1.5044    -0.18863
1.0302     0.19318     0.23824   -0.016963      1.5603     -1.2851    -0.19488
0.59243     0.12017     0.22673   -0.043272        1.36    -0.92661    -0.16166
0.23396    0.079724     0.22936   -0.063004      1.1055    -0.51585   -0.088327
0.0067154    0.083342     0.24745    -0.11628     0.80257     -0.1393    0.010991
-0.098522     0.11721     0.27408    -0.20869      0.4691     0.15109     0.11261
-0.12911     0.15964     0.29217     -0.3261     0.14352     0.32341     0.19384
-0.13667     0.18529     0.28691    -0.45008    -0.13667     0.37439      0.2412
-0.14983     0.18463     0.25139    -0.55959    -0.35043     0.33328     0.24909
-0.17581      0.1672     0.19516    -0.63885    -0.49875     0.27606     0.22804
-0.20244     0.15372     0.13563    -0.68752    -0.60498     0.30631     0.20404
-0.21757     0.16457    0.090905    -0.71778    -0.70166     0.50002     0.19746
-0.21527     0.20009    0.077093    -0.75132    -0.80394     0.87493     0.20996
-0.20244     0.25008    0.092221    -0.80033    -0.87827      1.3912     0.22936
-0.18929     0.29151     0.11524    -0.85393    -0.86445        1.95     0.23758
-0.18436     0.30927     0.12774    -0.89274    -0.73061      2.3788     0.22278
-0.19192     0.29513      0.1182    -0.90195    -0.48264      2.4933     0.18332
-0.21132     0.25468    0.087946     -0.8809    -0.11595       2.194     0.11919
-0.23829     0.20272     0.04322    -0.83617     0.37603      1.5369    0.040918
-0.26789     0.15109    0.002769    -0.77138     0.93445     0.69569   -0.032091
-0.29749     0.10472   -0.021896    -0.69575      1.4327    -0.11727   -0.084052
-0.32149    0.066569    -0.03538    -0.62603      1.7464    -0.72173    -0.11036
-0.3432    0.038616   -0.047548    -0.58261      1.8102     -1.0499    -0.12187
-0.36523    0.023488   -0.068924     -0.5767      1.6162     -1.1282    -0.12648
-0.38529    0.019212   -0.097864    -0.60662      1.2117      -1.048    -0.13075
-0.40075     0.02283    -0.11497    -0.65825     0.67958    -0.91313    -0.13108
-0.40963    0.033025    -0.10576    -0.69443     0.11952    -0.80164    -0.12319
-0.41062    0.050784   -0.054783    -0.67009    -0.37674    -0.73061    -0.10641
-0.40174    0.079724    0.033683    -0.55499    -0.75363    -0.68522   -0.087669
-0.38431     0.11689     0.14024    -0.35043     -1.0141    -0.64576    -0.07879
-0.36556     0.14912     0.24482   -0.077146     -1.1736    -0.59676   -0.085696
-0.34945     0.17148     0.34446     0.25402     -1.2098    -0.52243     -0.1097
-0.33498     0.19022     0.44575     0.64439     -1.0651    -0.41259    -0.13207
-0.31755     0.20996     0.54869      1.0805    -0.70462    -0.24388    -0.12746
-0.29551     0.22377     0.63288      1.5202    -0.20277  -0.0008485   -0.086025
-0.27348     0.22179     0.67004      1.8905     0.27145     0.32572   -0.019265
-0.25441     0.20075     0.64735      2.1286     0.56513     0.72891    0.044206
-0.24224      0.1672      0.5773      2.2059      0.6194      1.1962    0.077093
-0.2327     0.13432     0.49377      2.1315     0.47436      1.6984    0.076435
-0.22218     0.11491     0.43391      1.9549     0.23232      2.1582    0.056374
-0.20738     0.11985     0.41944      1.7451    0.013293       2.467    0.041575
-0.18666     0.14681      0.4497      1.5527   -0.075501       2.535    0.045851
-0.1643     0.18693     0.50626      1.3972    0.038616      2.3338    0.064267
-0.13832     0.22607     0.56316      1.2673     0.35268      1.9214    0.077093
-0.11266     0.25304     0.59901      1.1449     0.77988      1.4064    0.068214
-0.091287      0.2629     0.60624      1.0114      1.1814     0.87953    0.039273
-0.073199     0.25304     0.58256      0.8644      1.4432     0.40234 -0.00019077
-0.059387     0.22739     0.53751     0.71773        1.53   0.0080309    -0.02946
-0.048205     0.19022     0.48061     0.58815       1.458    -0.28959   -0.027158
-0.038668     0.14879     0.42043      0.4941      1.2561    -0.48231    0.010662
-0.029789     0.10998     0.35268     0.43622     0.94629    -0.57242    0.073147
-0.015319    0.080053     0.26981      0.3905     0.56941    -0.57078     0.14912
-0.0008485    0.060979      0.1649     0.33394     0.18463    -0.49086     0.22443
0.010333    0.043877    0.047495     0.25205    -0.15509    -0.35076     0.28592
0.011648    0.018884    -0.06728     0.14813     -0.4024    -0.16068     0.32605
-0.0015062   -0.016963    -0.16824    0.039602    -0.54315    0.081697     0.33854
-0.026171   -0.067937    -0.25145   -0.054454    -0.61583     0.35071      0.3267
-0.053467    -0.13272    -0.31525    -0.12253    -0.67371        0.55     0.29415
-0.074186     -0.1962    -0.36326    -0.16561    -0.72797     0.58717     0.25106
-0.081421    -0.24191     -0.3968    -0.18633    -0.76053     0.44477     0.21259
-0.070897     -0.2669    -0.41522    -0.18469    -0.74705     0.17214     0.18661
-0.05281    -0.28137    -0.42114     -0.1643    -0.68917    -0.15706     0.17016
-0.035051    -0.29946    -0.42114    -0.13634     -0.6132    -0.48626     0.15898
-0.021567     -0.3261    -0.42081    -0.11464    -0.55203    -0.78684     0.14977
-0.0093991    -0.36227    -0.42575    -0.10773    -0.51816     -1.0466     0.14188
0.0001381    -0.40536    -0.44318    -0.11661    -0.51585     -1.2598     0.13399
0.0047422    -0.45962    -0.48494    -0.14193    -0.53657     -1.4094     0.11985
0.0067154     -0.5323     -0.5619    -0.18469    -0.57045     -1.4817    0.087288
0.002769    -0.62504    -0.67371    -0.24355    -0.59939     -1.4725    0.023817
-0.0077547    -0.73028    -0.80164    -0.31327    -0.60136     -1.4035   -0.064978
-0.030447    -0.83782    -0.91872    -0.38595    -0.56749     -1.3091    -0.16561
-0.06432    -0.93549     -1.0085    -0.46061    -0.50599     -1.2127    -0.26657
-0.10937     -1.0157      -1.072    -0.53657    -0.43726     -1.1269    -0.36063
-0.15377     -1.0703     -1.1137    -0.61057    -0.37444      -1.048    -0.44613
-0.18271     -1.0933     -1.1414    -0.66516    -0.31525    -0.96607    -0.52112
-0.18041     -1.0789     -1.1423    -0.68095    -0.24783    -0.86511    -0.57176
-0.14621     -1.0236     -1.1035    -0.64806     -0.1689    -0.73521     -0.5767
-0.088985    -0.92069     -1.0161    -0.57571   -0.087998    -0.58656    -0.52737
-0.025514    -0.77138    -0.88813    -0.48034   -0.035051    -0.44877    -0.42871
0.033025    -0.58327    -0.73192    -0.37444   -0.055769    -0.34583    -0.29913
0.078737    -0.37872    -0.56847    -0.25769    -0.18929    -0.28631    -0.16495
0.10735    -0.19028    -0.41917    -0.13799    -0.44285    -0.26032   -0.058729
0.11261   -0.045903    -0.30242   -0.053467    -0.76678    -0.24947   0.0040845
0.10011     0.04618    -0.21724   -0.040641     -1.0578    -0.23434     0.01987
0.081368      0.1034     -0.1347   -0.086683     -1.2173    -0.21165   0.0017824
0.06361     0.15931   -0.016963    -0.13799     -1.2088    -0.20244   -0.038011
0.051113     0.25304     0.17115     -0.1416     -1.0568     -0.2281   -0.092931
0.042891      0.3984     0.43852   -0.074844    -0.79243    -0.29683    -0.16002
0.03434     0.58684     0.76574    0.053086     -0.4195    -0.39582    -0.22481
0.030394     0.79567      1.1061     0.21324    0.092221    -0.48297    -0.26789
0.041575      1.0042      1.4222     0.36814     0.73055    -0.50796     -0.2794
0.076764      1.2091      1.6964     0.47831      1.3807    -0.47376    -0.26361
0.13695      1.4182      1.9375     0.51778      1.8556    -0.42673    -0.23895
0.21127       1.628      2.1411      0.4793      2.0006    -0.41489    -0.22579
0.28954      1.8257      2.2871     0.38853       1.781    -0.44712    -0.23204
0.36189      1.9931      2.3555     0.28296      1.2952    -0.49448    -0.25506
0.41352      2.1013      2.3311     0.19154      0.7095    -0.52177    -0.28663
0.43687      2.1174      2.2049     0.12182     0.18299    -0.51125    -0.31525
0.43194      2.0223      1.9786    0.070187    -0.17712    -0.46192      -0.333
0.40662      1.8207      1.6751    0.028421    -0.34419    -0.37674    -0.33794
0.36748      1.5488      1.3268   -0.014003    -0.36194    -0.24881    -0.33004
0.32045      1.2488     0.96372   -0.063991    -0.30735   -0.062676    -0.30933
0.26422     0.96076     0.61578    -0.12615    -0.26427     0.18792    -0.27019
0.2014     0.70819     0.31158    -0.19817    -0.28894     0.50561    -0.20113
0.1353     0.49936    0.067227    -0.27512    -0.39023     0.90387    -0.10378
0.068214     0.32539    -0.11628    -0.35307    -0.52967      1.3837    0.010991
0.0040845     0.17049    -0.25112     -0.4264    -0.64938      1.8918     0.13037
-0.052481    0.021186    -0.36129    -0.48823    -0.72041      2.3292     0.23955
-0.093918    -0.12779     -0.4685    -0.52309    -0.76251      2.5762     0.32407
-0.11793    -0.27216    -0.57998    -0.51454    -0.82499      2.5117     0.37274
-0.13009    -0.40536    -0.68719    -0.45863    -0.94108      2.0664     0.37735
-0.13568    -0.51849    -0.76711     -0.3603      -1.095      1.2834     0.33953
-0.13634     -0.6007    -0.79769    -0.22546     -1.2292     0.33723     0.27672
-0.12516    -0.63984    -0.76744   -0.047219     -1.2604     -0.5369     0.21555
-0.087998    -0.62833    -0.68095     0.17806     -1.0861     -1.1591     0.17937
-0.018278    -0.56683    -0.54874     0.44378     -0.6132      -1.488     0.17608
0.079395    -0.46159    -0.38727     0.73055      0.1524     -1.5544     0.20108
0.18266    -0.32643    -0.21659      1.0045      1.0285     -1.4413     0.23758
0.26455    -0.19028   -0.056098      1.2291      1.7372     -1.2575     0.26849
0.30335   -0.076159    0.070845      1.3584      2.0546     -1.0792     0.28329
0.29415    -0.01203     0.13662      1.3613      1.9026    -0.92825     0.28066
0.24876  -0.0077547      0.1205      1.2324      1.3889    -0.79901     0.27047
0.18924   -0.063991    0.021514      1.0058     0.74436    -0.68358     0.25731
0.12971    -0.16265    -0.14029     0.71904     0.21226    -0.55959     0.25304
0.080053    -0.28071    -0.33004     0.39478   -0.028473    -0.39187     0.26488
0.047495     -0.3922    -0.50533    0.047495    0.085315    -0.13733     0.29349
0.031052    -0.47836     -0.6349    -0.28433     0.47535     0.23528     0.33558
0.018884    -0.54348    -0.70726    -0.53394      0.9259     0.73943     0.38656
0.002769    -0.59939    -0.72962    -0.61452      1.1755      1.3524     0.43819
-0.021238    -0.65102    -0.71844    -0.45732      1.0515      1.9918      0.4839
-0.048205    -0.69575     -0.6941   -0.075173     0.55691      2.5285     0.51679
-0.067937    -0.72271    -0.66812     0.42043    -0.14127      2.8244     0.53784
-0.069911    -0.71975    -0.64609     0.86506    -0.80296      2.7955     0.54704
-0.048534    -0.68292    -0.62964      1.1272     -1.2463      2.4443      0.5408
-0.010057    -0.61813    -0.61254      1.1637     -1.4074      1.8355     0.51449
0.029078    -0.53657    -0.58459      1.0229     -1.3407      1.1064     0.46285
0.054401    -0.45501    -0.53986     0.79172     -1.1687      0.4543     0.38064
0.055717    -0.39023    -0.48461     0.54211     -1.0092    0.035985     0.27211
0.027763    -0.35603     -0.4389     0.31421    -0.92529    -0.11266     0.15043
-0.016963    -0.35899    -0.41654     0.12017    -0.92135   -0.052481    0.036642
-0.062347    -0.39187    -0.42114   -0.038668    -0.95489     0.10439    -0.04985
-0.088656    -0.44153     -0.4435    -0.17219    -0.97167     0.24646   -0.097864
-0.082079     -0.4856    -0.46488    -0.29124    -0.92727     0.32243    -0.11102
-0.045903      -0.505    -0.47146     -0.4024    -0.80065     0.36058    -0.10148
0.00079584     -0.4981    -0.46455    -0.51388    -0.60136     0.40826   -0.084381
0.033025    -0.46981    -0.45074    -0.61945    -0.37543     0.48456   -0.071884
0.045522    -0.43199    -0.43561    -0.70594    -0.18436     0.55724   -0.072213
0.044864    -0.39385    -0.41687    -0.75691   -0.069253     0.55921   -0.085367
0.033683    -0.35537    -0.39121    -0.76086    -0.01499     0.42734    -0.10839
0.0021113    -0.31393    -0.35997    -0.71383    0.034998     0.15931     -0.1393
-0.04689     -0.2646    -0.32873    -0.61156     0.14681     -0.1962    -0.16495
-0.10543    -0.20902    -0.30374    -0.46455     0.35005    -0.56387     -0.1712
-0.15706    -0.15969    -0.29124    -0.30702     0.62301    -0.87892    -0.14719
-0.18863     -0.1324    -0.30045    -0.18633     0.89071     -1.1252   -0.095233
-0.19324    -0.13207    -0.33366    -0.12812       1.066     -1.3291   -0.025185
-0.17186    -0.15575    -0.38168    -0.12516      1.1022     -1.5084     0.04881
-0.13404    -0.19718    -0.43298    -0.14917      1.0154      -1.637     0.11524
-0.091616    -0.25243    -0.48231    -0.17252     0.86144     -1.6468     0.16391
-0.056427    -0.32708    -0.53394    -0.18732     0.67037     -1.4722     0.18989
-0.037353    -0.42147    -0.59117    -0.20442      0.4349     -1.0838     0.19121
-0.037024    -0.52473    -0.64839    -0.23336     0.15931    -0.49185     0.16654
-0.049521    -0.62076    -0.69279    -0.28039    -0.10411      0.2389     0.11853
-0.057743    -0.69344    -0.70989    -0.34945    -0.28861     0.95977    0.059992
-0.047219    -0.73291    -0.69015    -0.43495    -0.35931      1.5037   0.0070443
-0.01203    -0.72797    -0.63195    -0.52243    -0.32807      1.7343   -0.035708
0.037958    -0.67568    -0.54052     -0.5938    -0.22842      1.5955   -0.069253
0.090248    -0.59051    -0.42969    -0.63326   -0.096549      1.1462     -0.0903
0.13234    -0.49842    -0.31459    -0.64247    0.021186     0.53488   -0.092603
0.1501     -0.4241    -0.21132    -0.63885    0.084657   -0.083065   -0.073199
0.13695    -0.38727    -0.13437    -0.63885    0.080382      -0.603   -0.050836
0.096825    -0.38858   -0.086025     -0.6576    0.011648     -1.0059   -0.041957
0.043549    -0.40963   -0.053467    -0.68128   -0.097536      -1.317     -0.0584
-0.0015062    -0.41917   -0.013674    -0.67766    -0.21363     -1.5932   -0.099838
-0.020252    -0.39286    0.050126    -0.62471    -0.31031     -1.8652    -0.16101
-0.015319    -0.33037     0.14122    -0.52802    -0.38398     -2.1184    -0.23073
0.0014536    -0.24684     0.24778    -0.40864    -0.43265     -2.3131    -0.28532
0.026447    -0.15476     0.36189    -0.27841    -0.42706     -2.3782    -0.29518
0.060979   -0.050836     0.48916      -0.137    -0.31623     -2.2197    -0.23632
0.10209    0.067227     0.63025   0.0090175   -0.069582     -1.7682    -0.10773
0.14188     0.18891     0.76804     0.14616     0.29217     -1.0411    0.065912
0.16786     0.29184     0.86802     0.24745      0.6855     -0.1416     0.24054
0.17312     0.36222     0.90551     0.29415       1.013     0.76443     0.37801
0.1626     0.40234     0.88019     0.29415      1.1923      1.5202      0.4645
0.1501     0.42734      0.8177     0.27145      1.1785       2.025     0.50791
0.15207     0.45529     0.74864     0.25271     0.98707      2.2276     0.52369
0.16918     0.49804     0.69175     0.23791     0.67892      2.1312     0.51843
0.18562     0.55362     0.64735     0.20864     0.32341      1.7793     0.49804
0.18924     0.60986      0.6046     0.13695  -0.0034794      1.2347     0.46384
0.17806     0.65557     0.55296  0.00046697    -0.22415     0.56842      0.4201
0.15997     0.68714     0.48883    -0.20442    -0.26131    -0.14719     0.37242
0.14714     0.71279     0.41813    -0.45896   -0.067609    -0.84538     0.32999
0.14648      0.7391      0.3517    -0.71318     0.32703     -1.4581     0.30105
0.15175     0.76804     0.31092    -0.90425     0.80685     -1.9234     0.28165
0.15109     0.80093       0.305    -0.97068      1.2216     -2.2003     0.25797
0.1353     0.83711     0.32933    -0.88649      1.4435     -2.2753     0.21719
0.10274     0.86835     0.36683    -0.68424      1.3893     -2.1615     0.15701
0.059992     0.88742     0.39412    -0.43331      1.0403     -1.9264    0.084986
0.017897     0.89992     0.40103    -0.19389     0.48982     -1.6705   0.0093464
-0.0097279     0.91965     0.38787   0.0047422   -0.068924     -1.4242    -0.05544
-0.018936     0.95451     0.36617     0.14846    -0.42015     -1.1206   -0.099509
-0.014003      1.0009      0.3517     0.23922    -0.43462    -0.65595    -0.12286
-0.0018351      1.0426     0.35762     0.28888    -0.11825    0.053086    -0.13634
0.0093464      1.0703     0.39971     0.30697      0.4224      1.0114    -0.14588
0.015924      1.0844     0.48094     0.30105      1.0288      2.1069    -0.15838
0.015924      1.0916     0.59506     0.28494      1.5294      3.1592    -0.18107
0.011977      1.0989     0.73154     0.27343       1.779      3.9515    -0.21626
0.0030979      1.1084     0.88972     0.27968      1.7191       4.304    -0.26493
-0.017621      1.1196      1.0683     0.30664      1.3903      4.1402    -0.32511
-0.065307      1.1354       1.261     0.34709     0.89137      3.5328    -0.39615
-0.1564      1.1597      1.4534     0.38787      0.3392      2.6722    -0.46883
-0.29486        1.19      1.6188     0.40793     -0.1643      1.7783    -0.53559
-0.45699      1.2196      1.7112     0.39182    -0.55894       1.019    -0.58689
-0.59478      1.2393      1.6879     0.33953     -0.8388     0.44674    -0.61353
-0.66023      1.2446      1.5406     0.26323       -1.02    0.016253    -0.61188
-0.63622      1.2314      1.3031     0.18332     -1.1137    -0.35833    -0.58426
-0.53657      1.1952      1.0328     0.11985     -1.1141    -0.73422    -0.54315
-0.40009      1.1216     0.77561    0.089261     -1.0279     -1.1134     -0.5152
-0.27216     0.98674      0.5454    0.096496    -0.88978     -1.4492    -0.51553
-0.18238     0.77495     0.33887      0.1353    -0.73751      -1.682    -0.54019
-0.12779     0.49508     0.14879     0.18167    -0.60695     -1.7629    -0.56814
-0.086354     0.18233   -0.031433     0.21127     -0.5175     -1.6495    -0.57012
-0.032091    -0.11529    -0.19948     0.22278    -0.46356     -1.3058    -0.52441
0.050126      -0.358    -0.35109     0.23791    -0.39845    -0.72699    -0.43068
0.16918    -0.52605    -0.48132     0.27935    -0.23928    0.013293    -0.30472
0.31914    -0.62011     -0.5813     0.36321    0.071831     0.78218    -0.17252
0.47831    -0.65628    -0.64707      0.4816     0.50626      1.4643   -0.060045
0.60788    -0.66253    -0.68062     0.62038     0.95089      1.9572    0.014937
0.68352    -0.66582    -0.69706     0.76475      1.2656      2.1595    0.040589
0.69569    -0.68785    -0.71712     0.90156      1.3492      2.0302    0.029078
0.64538     -0.7362    -0.75395      1.0229      1.1821      1.6293   0.0017824
0.53685    -0.80559    -0.80888      1.1314     0.82033      1.0703    -0.02354
0.38524    -0.88583    -0.87037      1.2202      0.3734     0.48094   -0.039655
0.21127    -0.96772    -0.92464       1.262   -0.047548   -0.052152    -0.04393
0.047166     -1.0391    -0.96443      1.2133    -0.38825    -0.49382   -0.034064
-0.084052     -1.0956    -0.99173      1.0453    -0.67437    -0.84604   -0.010386
-0.16923     -1.1305     -1.0101     0.77363     -0.9572     -1.1187    0.018226
-0.20705     -1.1384     -1.0098     0.46318     -1.2719     -1.3186     0.04618
-0.20902     -1.1193    -0.97824     0.18989     -1.6021     -1.4433    0.069858
-0.19324     -1.0766     -0.9128   0.0080309     -1.8718     -1.4903    0.091563
-0.17942     -1.0318     -0.8319   -0.079119     -1.9879     -1.4706     0.11327
-0.17877     -1.0082    -0.76382    -0.10641     -1.8951     -1.4038      0.1307
-0.19554      -1.019    -0.73159    -0.11793      -1.611     -1.3104     0.13991
-0.22875     -1.0582    -0.74804    -0.15344     -1.2101     -1.2246     0.14254
-0.27249     -1.1124    -0.80953    -0.22777    -0.79112     -1.1831      0.1432
-0.31393     -1.1568    -0.89142    -0.33004    -0.43693     -1.2029      0.1432
-0.33892      -1.168    -0.95654    -0.43561    -0.19028     -1.2624     0.13563
-0.33925     -1.1295    -0.98054    -0.52309   -0.052481     -1.3229     0.11491
-0.31853     -1.0391    -0.96509    -0.59478   -0.022225     -1.3446    0.085315
-0.28861    -0.91346    -0.92825    -0.66286    -0.11233     -1.3042    0.050455
-0.26657    -0.78684    -0.88879    -0.73389    -0.32478     -1.2048    0.018555
-0.25539    -0.69542    -0.85623        -0.8    -0.63392     -1.0776   0.0017824
-0.24717    -0.65266    -0.82927    -0.84341    -0.96147    -0.96509    0.012635
-0.23138    -0.64642     -0.8069    -0.85294     -1.1601    -0.89635    0.057032
-0.2031    -0.65135    -0.78322    -0.82861     -1.0805    -0.86347     0.11985
-0.16265    -0.63754    -0.75461    -0.78881    -0.69344     -0.8319     0.17904
-0.11431      -0.579    -0.70397    -0.76349    -0.12253    -0.75922     0.22344
-0.059387    -0.46192    -0.60531    -0.76711     0.42438    -0.62274     0.25764
-0.0028217    -0.28663    -0.43791     -0.7921      0.7687     -0.4389     0.28987
0.049139    -0.07287     -0.2054    -0.82236      0.8519    -0.26394     0.31782
0.08959     0.13826     0.04618    -0.85689     0.74404    -0.16134     0.32835
0.11294     0.31322     0.26225    -0.89701     0.58256    -0.15476      0.3073
0.11097     0.43424      0.4007    -0.92135     0.48061    -0.19948     0.24876
0.088932     0.49903     0.45726      -0.898      0.4816    -0.17811     0.16063
0.055717     0.52074     0.46351    -0.80657     0.53751    0.035327    0.060979
0.021843     0.51284     0.45693    -0.66121     0.55264     0.51449   -0.019594
-0.0051238     0.48324      0.4622    -0.50171      0.4326       1.214   -0.051823
-0.018607     0.44181     0.48555    -0.37148     0.13629      1.9855   -0.032091
-0.015976      0.4053      0.5329    -0.28795    -0.29025      2.6735    0.023159
0.0060577     0.39511      0.6115    -0.21856     -0.7283      3.1711    0.078737
0.043549     0.43326     0.72463    -0.11431     -1.0529      3.4049    0.099785
0.088603     0.52468     0.85717    0.061307     -1.1805      3.3174    0.073804
0.12938     0.65426     0.98049     0.30335     -1.0947      2.8859   0.0040845
0.15668     0.79238       1.068     0.57237    -0.84242      2.1585   -0.089643
0.17246      0.9111      1.1068     0.81211    -0.51487      1.2505    -0.18074
0.18529     0.98806      1.0907     0.98148    -0.19685     0.33394    -0.24454
0.1991      1.0048      1.0229      1.0857    0.079066    -0.41193    -0.26888
0.21226     0.95352     0.91143      1.1686     0.32013    -0.88353    -0.26032
0.21686     0.84664     0.77955      1.2748     0.53586     -1.1068    -0.23698
0.20601     0.70885     0.65162       1.408     0.69602     -1.1999    -0.22612
0.17181     0.56283      0.5454      1.5406     0.75785     -1.2976    -0.25177
0.11754     0.41616     0.45825      1.6267     0.69668     -1.4686    -0.31492
0.056703      0.2777     0.37899      1.6323     0.53882     -1.6922    -0.38431
0.0060577     0.15602     0.29612      1.5419     0.32769     -1.8711    -0.41391
-0.021896    0.057032     0.20667      1.3682    0.097154     -1.8816    -0.36425
-0.025842   -0.019594     0.11426      1.1531    -0.13864     -1.6245    -0.24191
-0.017292    -0.07583    0.031381     0.94892    -0.36655     -1.0605    -0.08471
-0.0018351    -0.11891   -0.032091     0.80093    -0.57472    -0.26328    0.063938
0.018884     -0.1564   -0.069582     0.72134    -0.74804     0.57072     0.18003
0.046837    -0.18633   -0.084052     0.68846    -0.85689      1.2212     0.25764
0.081368    -0.20705   -0.085367     0.65689    -0.89866      1.5974     0.30401
0.11426    -0.21067   -0.082736     0.57894    -0.91477      1.7178     0.32999
0.14056    -0.18863   -0.083723     0.42043    -0.94634      1.6616      0.3438
0.15832    -0.13963   -0.097536     0.19088    -0.98745      1.5264     0.35597
0.1603   -0.079119    -0.13141   -0.069253    -0.99962       1.383     0.37373
0.14681   -0.033406    -0.19455    -0.30801     -0.9447      1.2558     0.39807
0.11557   -0.031433    -0.29091    -0.49415    -0.80164      1.1245     0.42503
0.068214   -0.086025    -0.40766    -0.62241     -0.5392     0.95846     0.44477
0.012306    -0.18962    -0.51717    -0.70627   -0.076488     0.74502     0.44871
-0.045574    -0.32314    -0.59544    -0.75363     0.67136     0.50199     0.43359
-0.10082    -0.45732    -0.63392    -0.76448       1.654     0.26356     0.40366
-0.14588    -0.56387    -0.63819    -0.73587      2.6117    0.057032      0.3665
-0.17613    -0.63326    -0.62142    -0.67832      3.2079   -0.096878      0.3267
-0.19126    -0.66713    -0.59807    -0.61123      3.2349    -0.18995     0.29086
-0.19324    -0.67371    -0.57834    -0.55861      2.7287    -0.22382     0.25797
-0.17679    -0.65891    -0.55598    -0.52868      1.9296    -0.21297     0.22673
-0.13963    -0.61484    -0.51355    -0.52145      1.1265    -0.17548     0.20075
-0.080434    -0.53296    -0.42509    -0.52835     0.52896    -0.12845     0.18529
-0.0041372    -0.42048    -0.28433     -0.5392     0.21193   -0.087341     0.18463
0.077751    -0.30341    -0.12056    -0.54808      0.1113   -0.067609      0.1968
0.14616    -0.21593     0.01132    -0.55532    0.098141   -0.088985     0.21193
0.18069    -0.16693    0.073476    -0.56584     0.06361    -0.15739     0.22015
0.17214    -0.14029    0.071831     -0.5813   -0.034064    -0.26197     0.21061
0.13563    -0.10378    0.047495    -0.59544    -0.17811    -0.37214     0.18463
0.098141   -0.032749    0.052757    -0.59478    -0.31097    -0.45173     0.15569
0.087617    0.085315     0.12182    -0.55861     -0.3705    -0.47902     0.13366
0.11064     0.24087     0.25369    -0.47244    -0.32182     -0.4514     0.12116
0.15635     0.40892      0.4076    -0.35208    -0.19093    -0.38529     0.10866
0.20404     0.55527     0.53619     -0.2475   -0.060702    -0.32018    0.097812
0.23232     0.65228     0.61117    -0.19685   -0.016305    -0.29157    0.088932
0.23166     0.69405     0.63058    -0.18962   -0.086025    -0.31459    0.080711
0.20963     0.69767     0.60854    -0.16923    -0.22349    -0.38135     0.07512
0.18167     0.69339     0.57138   -0.083394    -0.33366    -0.47705    0.076764
0.16293      0.7072     0.54507    0.090905    -0.32708    -0.57768    0.084657
0.16227     0.74404     0.54606     0.33591    -0.16791    -0.65497    0.097483
0.17904      0.7881     0.57171     0.61545     0.10735    -0.69673     0.11623
0.2093     0.81803     0.60197      0.8769     0.39905    -0.70824     0.14155
0.24843     0.81672     0.61019      1.0621     0.58092    -0.70627     0.16983
0.2879     0.78745     0.58256      1.1324     0.56119    -0.70199     0.19779
0.32013     0.73877      0.5158      1.0854     0.33493    -0.69673     0.21686
0.33788     0.67695     0.41056     0.93873    -0.01499    -0.67733     0.22706
0.32637     0.59999      0.2731     0.71477    -0.35537    -0.61747     0.22081
0.28264     0.50265     0.11458     0.44082    -0.56518    -0.48593     0.19647
0.20864      0.3882    -0.04689     0.15471     -0.5836    -0.26197     0.15438
0.11689     0.26619    -0.18863   -0.094576    -0.40536    0.055388     0.10373
0.022501     0.15668    -0.28992    -0.26888   -0.066951      0.4372    0.052428
-0.058729    0.069529     -0.3409    -0.36721     0.34479     0.83349    0.010004
-0.11431   0.0070443    -0.34682    -0.42246      0.7197      1.1857   -0.015319
-0.14226   -0.035708    -0.31656    -0.47804     0.98016       1.458   -0.024527
-0.1495   -0.069253    -0.26592    -0.55631      1.1012       1.632   -0.018278
-0.14489   -0.098193    -0.21132    -0.63129      1.0949      1.6747  -0.0087413
-0.13108    -0.12812    -0.17186    -0.65529     0.98477      1.5475  -0.0057815
-0.11464    -0.15476     -0.1518     -0.5984     0.77988      1.2419   -0.020909
-0.1005    -0.17383    -0.14423    -0.47014     0.47535     0.79731   -0.054454
-0.087669     -0.1837    -0.13799    -0.31919    0.072489     0.29513   -0.097207
-0.073857     -0.1837    -0.13108    -0.20902     -0.3899    -0.16857    -0.12976
-0.060373    -0.17844    -0.12944    -0.17613    -0.82565    -0.52145    -0.14983
-0.053796    -0.17581     -0.1393    -0.21198     -1.1397    -0.73389    -0.16331
-0.056756    -0.17712    -0.16134    -0.28006     -1.2765    -0.82466    -0.17877
-0.058729    -0.18008    -0.18863    -0.33925     -1.2302    -0.84045    -0.19817
-0.048534    -0.17942    -0.21001      -0.358     -1.0111     -0.8171     -0.2202
-0.023211    -0.17613    -0.22251    -0.32643    -0.63556     -0.7579    -0.23829
0.0054    -0.17186    -0.22941    -0.25506     -0.1416    -0.64181    -0.24553
0.029078    -0.16627    -0.23369     -0.1643     0.39083    -0.44252    -0.23533
0.041575    -0.16166    -0.23961   -0.076817     0.86013    -0.16265    -0.20705
0.040918    -0.15903     -0.2498   -0.020909      1.1581     0.14352    -0.17087
0.024474     -0.1587    -0.26197   -0.017621      1.2091      0.3859    -0.14851
-0.004466    -0.16627    -0.26888   -0.064978      1.0055     0.48028    -0.16002
-0.039326    -0.18304    -0.26427    -0.14456     0.61348     0.37965    -0.21659
-0.071555    -0.20672    -0.24684    -0.22185     0.13925     0.10011    -0.30702
-0.099838    -0.23303     -0.2202    -0.24421    -0.29058    -0.26723    -0.40601
-0.11957    -0.25276    -0.18797    -0.17416    -0.56288    -0.60892    -0.48231
-0.12845     -0.2623    -0.15213  -0.0051238    -0.62372    -0.82992    -0.51717
-0.1245    -0.26361    -0.11529     0.23002    -0.49547    -0.87235    -0.50171
-0.11595    -0.25671   -0.079448     0.47272    -0.26855    -0.74475    -0.44712
-0.10937    -0.24026   -0.044259     0.65656   -0.060373    -0.52408    -0.37543
-0.11266    -0.20606   0.0037556     0.74436    0.039273    -0.30801    -0.30867
-0.12615    -0.15279    0.079395     0.74535   0.0073732     -0.1416    -0.25835
-0.14391   -0.091945     0.17904      0.7095    -0.11398   -0.012359    -0.22218
-0.15936   -0.042286     0.28231     0.68912    -0.25671     0.11623    -0.19488
-0.16989   -0.015976     0.36617     0.69767    -0.37115     0.27441    -0.17416
-0.17877   -0.010057     0.40695     0.70589    -0.42969     0.44246    -0.15607
-0.19324   -0.020581     0.39083     0.66905    -0.41423     0.55691    -0.13503
-0.21231   -0.054454     0.31454     0.56217    -0.31689     0.56743    -0.10576
-0.23467    -0.12089     0.19121     0.39642     -0.1541     0.47239   -0.070897
-0.25408    -0.21922    0.038287     0.20371    0.015924     0.30171   -0.038339
-0.26559    -0.33399    -0.12121    0.011648      0.1182     0.10735   -0.016634
-0.26953    -0.43627    -0.25177    -0.15443     0.10669   -0.055112   -0.007097
-0.26789    -0.49316    -0.31919    -0.28335   -0.013674     -0.1564  -0.0028217
-0.25835    -0.48987    -0.29979    -0.38299    -0.19718    -0.20869      0.0054
-0.23369    -0.42871    -0.20409    -0.44252    -0.39187    -0.24651    0.025461
-0.18863    -0.32972   -0.070568    -0.44449    -0.57374    -0.29749    0.061307
-0.1245    -0.22777    0.042562    -0.37642    -0.74442    -0.35997     0.10636
-0.052152    -0.15443    0.085644    -0.25309    -0.90458    -0.41456     0.14484
0.017568    -0.12648    0.047495    -0.10674     -1.0302    -0.44548     0.16457
0.070187    -0.14423   -0.044588    0.019212     -1.0841    -0.44942     0.15635
0.097154    -0.19718     -0.1518    0.088275     -1.0411    -0.43134      0.1205
0.096496    -0.26559     -0.2498    0.075449    -0.89274    -0.39089    0.059005
0.067227    -0.34221    -0.33662   -0.018607    -0.62274    -0.32676   -0.024198
0.01987    -0.42147    -0.41654     -0.1643    -0.19587    -0.24322    -0.11299
-0.032749    -0.48659     -0.4856    -0.32478     0.34512    -0.13996    -0.18271
-0.07287    -0.51092    -0.53361    -0.46981      0.8256   -0.010715    -0.21494
-0.087998    -0.46685    -0.53953    -0.59084      1.0407     0.12938    -0.20113
-0.073528    -0.34715    -0.48724    -0.68424     0.89203     0.24909    -0.14917
-0.038997    -0.17087    -0.37082    -0.75659     0.44115     0.31717   -0.081421
0.0017824    0.024803    -0.21231    -0.81315    -0.13503     0.32637   -0.022554
0.036314     0.20634   -0.035708    -0.84867    -0.63589     0.30105    0.011977
0.064267     0.36847     0.13991    -0.84571     -0.9197     0.27047    0.024145
0.090577     0.52074     0.31223    -0.79046    -0.92562     0.25205     0.02283
0.11919     0.67465     0.48588    -0.68259    -0.67568     0.23725    0.013622
0.15043     0.83086     0.65919    -0.52671    -0.25737     0.20436  -0.0015062
0.1751     0.98115      0.8256    -0.33235     0.19253     0.15076   -0.011701
0.18989      1.1219      0.9726    -0.11464     0.54968     0.11853  -0.0024928
0.19614      1.2472       1.091     0.11031     0.75127     0.16424    0.035656
0.20173      1.3534      1.1755     0.34019     0.81408     0.31322     0.10439
0.21522      1.4416      1.2255     0.58059     0.80192     0.54573     0.18529
0.23955      1.5021      1.2436     0.84171     0.77232     0.77495     0.25468
0.27047      1.5244      1.2419       1.115     0.75324     0.88019     0.29908
0.29809      1.5123      1.2337      1.3807     0.77035     0.77298     0.31355
0.31355      1.4771       1.237      1.6205     0.84303     0.46088     0.29382
0.31223       1.432      1.2686      1.8214     0.95846    0.050455     0.23298
0.29645      1.3863      1.3196       1.975       1.066    -0.32281     0.13464
0.27047      1.3399      1.3551        2.07      1.1183    -0.54841    0.017568
0.23791      1.2926      1.3422       2.099      1.0943    -0.57637   -0.087998
0.20535      1.2515       1.263      2.0575     0.98707    -0.42871    -0.16134
0.1751      1.2163      1.1278      1.9431     0.80619    -0.14687    -0.19685
0.15142      1.1788     0.96964      1.7714     0.59506       0.231    -0.19981
0.13925      1.1232     0.82264      1.5702     0.44411     0.62696    -0.17942
0.13629      1.0397     0.70063      1.3725     0.43161      0.9259    -0.14588
0.14188     0.93149     0.60262      1.2021     0.57993      1.0361    -0.10707
0.15536     0.80882     0.52139      1.0611     0.82823     0.93577   -0.064649
0.17641     0.67991      0.4451      0.9282      1.0476     0.67169   -0.018936
0.19417     0.54343     0.35992     0.78054      1.1117     0.30829    0.023488
0.19581     0.39248     0.25698     0.59506      0.9578     -0.1051    0.055717
0.1774     0.22015     0.13333     0.35762      0.6263    -0.53328    0.071502
0.14484    0.032696  -0.0008485    0.090577     0.23298     -0.9345    0.076764
0.11162    -0.15377    -0.12648    -0.15936    -0.11825     -1.2489    0.079066
0.084986    -0.32215    -0.23402    -0.35175    -0.39056     -1.4232    0.095181
0.064925    -0.46389    -0.32708    -0.47705    -0.58755     -1.4268     0.13826
0.044864    -0.58031    -0.41654    -0.55598     -0.7283     -1.2542      0.2162
0.021186    -0.67733    -0.51487    -0.62175    -0.81381    -0.89668     0.32802
-0.0074258    -0.75494    -0.61682    -0.69936    -0.83782     -0.3261     0.45759
-0.033406    -0.80296    -0.70462    -0.79013    -0.80756      0.4862     0.58256
-0.051823     -0.8194    -0.76349    -0.88484    -0.75856      1.4952     0.68714
-0.0584    -0.80986    -0.79243    -0.98383    -0.72567      2.5979     0.76048
-0.053467    -0.78618    -0.79769     -1.0953    -0.71581      3.6532     0.79304
-0.041628    -0.75395    -0.78388     -1.2213    -0.72469      4.4691     0.77824
-0.029789    -0.71383    -0.75231     -1.3469     -0.7385      4.8266     0.72332
-0.028473    -0.66779    -0.70857     -1.4373    -0.74968      4.5642      0.6434
-0.041299    -0.62931    -0.66976     -1.4594    -0.76119      3.6795     0.55428
-0.065964    -0.61353    -0.65365     -1.3952    -0.76185      2.3693     0.46812
-0.093918    -0.63129    -0.66976     -1.2466    -0.71219     0.94465     0.38754
-0.11793    -0.67897    -0.71877     -1.0417    -0.57867    -0.28795     0.31322
-0.13207    -0.75264    -0.79473    -0.82269    -0.36688     -1.1151     0.24482
-0.13437    -0.85097    -0.89307    -0.63523    -0.13338     -1.5255     0.18266
-0.13141    -0.96344     -1.0052     -0.5129    0.034998     -1.6001     0.12905
-0.13733      -1.071      -1.118    -0.47212    0.068543     -1.4617    0.091892
-0.16989     -1.1608      -1.218    -0.50632    -0.04689     -1.2298    0.072818
-0.23632     -1.2328     -1.2953    -0.58755    -0.27085    -0.99008    0.064925
-0.32478     -1.2877     -1.3416    -0.68193    -0.53822    -0.77665    0.052757
-0.41522     -1.3196     -1.3528    -0.76349    -0.79309    -0.59577    0.025132
-0.49678     -1.3298     -1.3265    -0.81874     -0.9983    -0.45633   -0.020581
-0.56782     -1.3193     -1.2686    -0.83584     -1.1078    -0.37773   -0.075501
-0.62504     -1.2917     -1.1953    -0.80822     -1.0697    -0.36984    -0.12483
-0.65299     -1.2466     -1.1229     -0.7408     -0.8661    -0.41818    -0.15575
-0.6303     -1.1818     -1.0605    -0.65102    -0.53855    -0.49382    -0.16627
-0.55203     -1.0943     -1.0029    -0.55039    -0.15903    -0.58525    -0.15673
-0.43331    -0.98581    -0.93779    -0.44646     0.20502    -0.71318    -0.13503
-0.29847    -0.86084    -0.85031    -0.34221     0.49475    -0.94174    -0.11102
-0.16462    -0.72469    -0.73817    -0.23467     0.65754      -1.318   -0.096549
-0.037024    -0.58755    -0.61057    -0.12154     0.65886     -1.8103     -0.1051
0.08663    -0.46455    -0.48527  -0.0054526     0.50955     -2.3138      -0.137
0.19976    -0.37148     -0.3728      0.1034     0.27178      -2.689    -0.19126
0.30039    -0.31031    -0.27644     0.19516    0.039931     -2.8117    -0.26131
0.39083    -0.27381    -0.19225     0.25929    -0.10905     -2.6278    -0.34254
0.47667    -0.24487    -0.10937     0.28296    -0.15081     -2.1605    -0.43232
0.55132     -0.2133   -0.013017     0.24613    -0.12417     -1.5011    -0.52046
0.60065    -0.17087     0.10274     0.15273   -0.090958    -0.78914    -0.59281
0.61413    -0.11562      0.2287    0.042891   -0.094576    -0.17186    -0.63655
0.59506   -0.054125     0.34019   -0.030447    -0.13009     0.23265    -0.64905
0.55724 -0.00051963     0.40563   -0.037353    -0.15575     0.35268    -0.63425
0.50396    0.033683     0.41089     0.01987    -0.14752     0.19022      -0.603
0.4326     0.04618     0.37011     0.10603    -0.13503    -0.18929    -0.56518
0.33788    0.048153     0.32111     0.17904    -0.16824    -0.69377       -0.53
0.22278    0.057361     0.30335     0.20206    -0.27874     -1.2295    -0.50237
0.10274    0.084657     0.32901     0.16885    -0.45765     -1.6998    -0.47771
0.0001381     0.12873     0.37768    0.098469    -0.66319     -2.0254    -0.44482
-0.064978     0.17345     0.42372    0.033025    -0.83387     -2.1819    -0.38924
-0.091287     0.19647     0.44608     0.02283    -0.91872     -2.1957    -0.31261
-0.090958       0.182     0.43918    0.095839    -0.92529     -2.0737     -0.2179
-0.077146     0.13464     0.40267     0.25172    -0.89931     -1.7843    -0.11431
-0.055112    0.065912     0.33558     0.46253    -0.84143      -1.291  -0.0057815
-0.025842  -0.0084125     0.24514     0.67728    -0.68588    -0.61156     0.10603
0.012306   -0.075173     0.14254     0.84697    -0.36819     0.20634     0.22179
0.049468     -0.1222    0.037629     0.94366    0.094523       1.116     0.34611
0.075778    -0.15081   -0.053796     0.96142     0.58454      2.0924     0.47897
0.082026    -0.16331    -0.13075     0.90091     0.95912      3.0731      0.6069
0.069858     -0.1643    -0.19521     0.77955       1.141      3.9587     0.70391
0.042233    -0.15509    -0.24355     0.63518      1.1387      4.6303     0.74404
0.0030979    -0.13832    -0.27019     0.49936      1.0213      4.9598     0.71674
-0.042615     -0.1074    -0.27085      0.3905      0.8769      4.8805     0.62071
-0.086683    -0.04985    -0.23698     0.31651     0.77133       4.381     0.47897
-0.11464    0.035656     -0.1712     0.27145     0.71148      3.5792     0.32473
-0.11661     0.13662   -0.094247     0.23298      0.6411      2.6393     0.18397
-0.095233     0.23528   -0.022883     0.18003     0.49377      1.7135    0.075778
-0.065964     0.32144    0.039602    0.098798     0.23396     0.90222    0.010333
-0.041957     0.38985     0.10143  -0.0077547    -0.10477     0.24679   -0.019265
-0.034064      0.4372     0.16556    -0.12615    -0.44054    -0.23928   -0.022883
-0.040641     0.46121      0.2241    -0.23467    -0.67503    -0.55565   -0.013345
-0.060045     0.46253      0.2629    -0.30933    -0.74047    -0.72699  -0.0034794
-0.086354     0.45102      0.2754    -0.32676    -0.65036    -0.80361   0.0030979
-0.11266     0.43687     0.26849    -0.28631    -0.50434    -0.85459   0.0060577
-0.13404     0.42767     0.25797    -0.20639    -0.42344    -0.93713   0.0050711
-0.14654     0.42142     0.26093    -0.11529    -0.43791      -1.067 -0.00051963
-0.14851     0.42109     0.28362   -0.034722    -0.43791     -1.2232  -0.0074258
-0.13897     0.42865     0.32703    0.015924    -0.26032     -1.3607  -0.0067681
-0.11825     0.44838     0.38985    0.027105     0.14451     -1.4347   0.0096753
-0.086683     0.49147     0.47206  -0.0015062      0.6513     -1.4232    0.036314
-0.049192     0.56447     0.57171   -0.056427      1.0285     -1.3268    0.060979
-0.0093991      0.6684     0.68517    -0.12319      1.0966     -1.1585    0.068871
0.02579     0.78778     0.79534    -0.19521     0.83743    -0.96213    0.055717
0.055388     0.89959     0.87394    -0.27611     0.39281    -0.79901    0.027105
0.07512     0.98641     0.89992    -0.37872   -0.023869    -0.71548  -0.0067681
0.085315      1.0433     0.87493    -0.50369    -0.24454    -0.70627   -0.035051
0.089919      1.0788      0.8154    -0.63162    -0.20508    -0.71022   -0.050836
0.090577      1.1045     0.74732    -0.72337    0.065254    -0.64806    -0.05281
0.095181      1.1305     0.69569    -0.73784     0.47963    -0.46455   -0.034722
0.10307       1.161     0.67596    -0.67437     0.93149    -0.16397  -0.0024928
0.1113       1.188     0.68451    -0.57078      1.3258     0.16819    0.030394
0.11327      1.1949     0.70457    -0.47639       1.604     0.38721    0.044535
0.10735      1.1601     0.71411     -0.4264      1.7543     0.37636    0.029078
0.099127      1.0686     0.69767    -0.43298      1.7931     0.13695   -0.002164
0.097812     0.92754     0.65623    -0.47968      1.7517    -0.21922     -0.0265
0.10538     0.76212     0.60197    -0.52276      1.6737    -0.54512   -0.030118
0.12083     0.60065     0.54573    -0.51454      1.5896    -0.72041   -0.014661
0.13596     0.46253     0.49377    -0.42706      1.4916    -0.69575   0.0096753
0.14089     0.35104     0.44608    -0.25441       1.336    -0.51487    0.031709
0.13432     0.26093     0.39971  -0.0028217      1.0732    -0.27907    0.049468
0.1182     0.18233     0.35466     0.32868     0.68188   -0.063991    0.063938
0.10077     0.10965     0.31026     0.74371     0.19812    0.096496    0.077093
0.084986    0.042891     0.26455      1.2031    -0.29124     0.20963     0.08959
0.066569   -0.021567     0.21752      1.6168    -0.69575     0.28724    0.097812
0.040918   -0.083723     0.16589      1.8753    -0.97002      0.3175    0.093536
0.0044134    -0.13996      0.1057      1.9066     -1.1174     0.26685     0.07808
-0.042944    -0.18567    0.040918      1.7191     -1.1772     0.10965    0.057361
-0.091945    -0.21987   -0.022225      1.3899     -1.2032     -0.1643    0.039931
-0.13766    -0.24717   -0.079777       1.018     -1.2397     -0.5323    0.031709
-0.17811    -0.26756    -0.13042     0.68451     -1.3245    -0.94371    0.038287
-0.20771     -0.2817     -0.1735     0.43194     -1.4696     -1.3272    0.055717
-0.22349    -0.28663    -0.21001     0.26422     -1.6495     -1.6202    0.081368
-0.2202    -0.28532    -0.23994     0.16161     -1.8067     -1.7859      0.1057
-0.20179    -0.28367    -0.26427    0.088603     -1.8902     -1.8139     0.12215
-0.18041    -0.28795    -0.29157   0.0067154     -1.8918     -1.7008     0.13004
-0.16364    -0.29617    -0.32511    -0.10905     -1.8175     -1.4475     0.12774
-0.14917    -0.30735    -0.36129    -0.25802     -1.6481     -1.0753     0.11426
-0.13503    -0.31788    -0.39352    -0.41062     -1.3305    -0.61978    0.091563
-0.11201    -0.32511    -0.40766      -0.505    -0.81151    -0.12878    0.064267
-0.077475    -0.32478    -0.39615    -0.48067     -0.1199     0.35762    0.041575
-0.036366    -0.30834    -0.35635    -0.32018     0.57237     0.81408    0.020528
0.0050711     -0.2748    -0.29946   -0.058729      1.0121      1.1929  -0.0074258
0.04026    -0.23237    -0.24191     0.22936      1.0364      1.4324   -0.059387
0.063938    -0.19685    -0.20343     0.45891     0.67662      1.4945    -0.14752
0.075778    -0.18173    -0.19422     0.57138     0.15701      1.3935    -0.26559
0.068871    -0.19356    -0.21593     0.55855    -0.23632      1.1818    -0.38628
0.043877    -0.23007     -0.2623     0.45167    -0.30242     0.94958    -0.47179
0.0090175    -0.27907    -0.32018     0.30138 -0.00019077     0.80915    -0.50106
-0.026171    -0.32741    -0.37905     0.15569     0.54573     0.84303    -0.47508
-0.053467    -0.36951     -0.4343    0.042891      1.0838      1.0584    -0.40864
-0.069253    -0.40503    -0.47508    -0.03242      1.3778      1.3883    -0.31853
-0.078132     -0.4343    -0.49283   -0.082079      1.3196      1.7132    -0.22974
-0.085039    -0.45633     -0.4856    -0.11661     0.96076      1.9122    -0.16989
-0.088327    -0.47014    -0.46488    -0.14588     0.47272      1.9234    -0.14029
-0.090629    -0.47968    -0.44646    -0.17449    0.045851       1.778    -0.11891
-0.094576    -0.49185    -0.44318    -0.20836    -0.18699      1.5261   -0.087341
-0.10247    -0.51158    -0.45699    -0.24651    -0.18797      1.1795   -0.043601
-0.11135    -0.53098    -0.47475     -0.2794    0.010004     0.75818  -0.0015062
-0.11562    -0.53624    -0.47672    -0.28598     0.32769     0.31947    0.024145
-0.10839    -0.51947    -0.44252    -0.25013      0.6582   -0.050179    0.029736
-0.089314    -0.48099    -0.36589     -0.1689     0.90387    -0.28302    0.021514
-0.059058    -0.42772    -0.25934   -0.051494      1.0101    -0.36293    0.014937
-0.021567    -0.36622    -0.14095     0.08367     0.96339    -0.33235    0.021514
0.016253    -0.30308   -0.026171     0.20601     0.79764    -0.27085      0.0373
0.048153    -0.23961    0.079066     0.28362      0.5625    -0.24585    0.048153
0.077751    -0.17416     0.17937      0.2902     0.30401    -0.28499    0.041575
0.10044     -0.1051      0.2708     0.23133    0.060979    -0.36951    0.011648
0.11656   -0.039326     0.33854     0.12938    -0.13437    -0.45699   -0.041628
0.11952    0.013293     0.36419    0.012635    -0.26855    -0.50369    -0.10707
0.11064    0.053086     0.34479   -0.094576    -0.35372    -0.49152     -0.1689
0.094194    0.091563     0.29316    -0.17252    -0.40963    -0.42936    -0.20869
0.07808     0.13662     0.22903     -0.2156    -0.45271    -0.33366    -0.21823
0.074462     0.19121     0.17477    -0.22974    -0.48626    -0.23237    -0.19652
0.085315     0.24547     0.13497    -0.23467      -0.505    -0.16101    -0.15903
0.1057     0.29382     0.10899    -0.24322    -0.50434    -0.13963    -0.12023
0.13103     0.32835    0.093865       -0.26     -0.4902    -0.16298   -0.087998
0.15405     0.34775    0.092879    -0.27841    -0.46916    -0.22382   -0.061031
0.16786     0.34611     0.10735     -0.2965    -0.44811    -0.32347   -0.041628
0.16885      0.3244     0.12971    -0.31755     -0.4343    -0.48198   -0.028473
0.15799     0.28296      0.1432    -0.35043    -0.43495    -0.71482   -0.016634
0.13892     0.22574     0.13169    -0.39746    -0.46126     -1.0088   0.0044134
0.11294     0.16161    0.095181    -0.45699    -0.52572      -1.314    0.039931
0.086301    0.099127    0.049468    -0.51881    -0.63425     -1.5436    0.086301
0.06624    0.049139    0.010991    -0.56617    -0.77007     -1.5843     0.14681
0.059663    0.019212   -0.011043    -0.57702    -0.88254     -1.3482     0.21423
0.064925    0.011977   -0.019923    -0.53526    -0.92694    -0.82203     0.27639
0.075778     0.02875    -0.02354    -0.44975    -0.89635    -0.10411      0.3198
0.080711    0.061307   -0.024198    -0.34682    -0.82729     0.62827     0.34117
0.076106    0.095181    -0.02946    -0.25276    -0.76415      1.2229     0.34545
0.064596     0.11031   -0.045246    -0.18567    -0.73948      1.5922      0.3415
0.053415    0.099127   -0.071555     -0.1564    -0.76612      1.7043     0.33164
0.044535    0.071831    -0.10214    -0.15838    -0.82565      1.6001     0.31388
0.040589    0.043549    -0.12319    -0.17515    -0.86972      1.3735     0.28559
0.038944    0.023488    -0.11858    -0.18765    -0.82137      1.1087     0.24153
0.031052    0.014937   -0.085696    -0.18074    -0.58755     0.85552     0.18759
0.010333    0.010004   -0.038997    -0.14719    -0.12483     0.63452     0.13366
-0.026171   -0.002164 -0.00051963   -0.092603     0.47173     0.45003    0.088603
-0.068595   -0.034064   0.0080309   -0.030775     0.99036     0.29053    0.055059
-0.10576   -0.083723   -0.026171    0.021514      1.2475     0.13826    0.031052
-0.12615    -0.14259   -0.097864    0.053415      1.1798   -0.016305    0.014608
-0.12746    -0.20146    -0.19291    0.065912     0.85289     -0.1712    0.002769
-0.11135    -0.25934    -0.29617    0.070516     0.42273     -0.3238  -0.0051238
-0.085039    -0.31689    -0.39713    0.074133    0.064925    -0.46356  -0.0047949
-0.050836    -0.37872     -0.4879    0.081368   -0.077803     -0.5767    0.012306
-0.010057    -0.44087    -0.56025     0.08959    0.046508    -0.66154    0.055388
0.032696     -0.4879    -0.60596    0.097483     0.38754     -0.7283     0.12182
0.074133    -0.50434     -0.6178     0.10439     0.80915    -0.77862     0.20009
0.11393    -0.47508    -0.59215     0.11327      1.1558    -0.80296     0.28066
0.15635    -0.40174    -0.53493     0.12807      1.3271    -0.77237     0.35071
0.20108    -0.29782    -0.46192     0.15635      1.2992    -0.65266     0.40234
0.24646    -0.18337    -0.38825     0.20436       1.117    -0.42706     0.43523
0.28987   -0.074515    -0.32445     0.27836     0.85223    -0.11036      0.4497
0.32736     0.01987    -0.26427     0.37899     0.58618     0.25797     0.44904
0.34907     0.09551    -0.20014      0.4964     0.40826      0.6263     0.43655
0.34676     0.15043    -0.12483     0.61644     0.39281      0.9476     0.41648
0.32013      0.1843   -0.036037     0.72233     0.55691      1.2058     0.39215
0.27737     0.20469    0.061307     0.80619     0.83645      1.4051     0.36058
0.22541     0.22739     0.16293     0.86177      1.1143      1.5409     0.31717
0.17674     0.26619     0.26981      0.8838      1.2804      1.5817     0.26027
0.1353     0.31782      0.3813     0.87098      1.2699       1.483     0.19285
0.098469     0.36584     0.49147     0.82527       1.091      1.2265     0.12083
0.062294     0.38853     0.59111     0.75522      0.8131     0.84171    0.049468
0.023488     0.38426     0.68254      0.6753     0.52731     0.40234   -0.015976
-0.016963     0.37143     0.77067     0.59144     0.30237   0.0017824   -0.070897
-0.048205     0.37274     0.85256     0.51383     0.15668    -0.30242    -0.11069
-0.057085     0.40695     0.91735     0.45496     0.07216    -0.50829    -0.13338
-0.040313     0.48752      0.9601     0.42076    0.015595    -0.64609    -0.14095
-0.0054526     0.61907     0.98345     0.40629   -0.056098    -0.74376    -0.13601
0.036642      0.7881      1.0006     0.39412    -0.16002    -0.82663    -0.12944
0.074462     0.96997      1.0239     0.37044    -0.27611    -0.91181    -0.13141
0.10274      1.1295      1.0515      0.3267    -0.33925     -1.0134    -0.14423
0.11623      1.2324      1.0647     0.26685    -0.28631     -1.1479    -0.16134
0.11294      1.2538      1.0321     0.20371    -0.11661     -1.3065    -0.17482
0.092879      1.1867     0.93182     0.13136    0.081039     -1.4607    -0.18173
0.057032      1.0387     0.76443    0.024803     0.17641     -1.5889    -0.18534
0.01132     0.83908     0.55231    -0.14555    0.078409     -1.6718    -0.18797
-0.035051     0.61644     0.33328    -0.36951    -0.21165     -1.6791    -0.18896
-0.07287     0.39708     0.14583    -0.59511    -0.59709     -1.5646    -0.18205
-0.098193     0.20667    0.010333    -0.76283      -0.947     -1.2785    -0.15838
-0.10905    0.056046   -0.070568    -0.84143     -1.1729    -0.80657    -0.11168
-0.11003   -0.054125    -0.10543    -0.83354     -1.2598    -0.18797   -0.039984
-0.10707    -0.13799    -0.11398    -0.76415     -1.2519     0.48883    0.043549
-0.10214    -0.20508    -0.11694    -0.66713     -1.2038      1.1416     0.11656
-0.094576    -0.26493    -0.12549    -0.57078     -1.1387      1.7198     0.15767
-0.083394    -0.31525    -0.13733    -0.49053     -1.0588       2.169     0.15964
-0.069911    -0.35109    -0.13305    -0.43002    -0.94536      2.4272     0.13333
-0.05281    -0.35931   -0.089314    -0.39385    -0.75659      2.4571    0.099127
-0.029789    -0.33333  -0.0087413    -0.36556    -0.46389      2.2716     0.07512
-0.021238    -0.27874    0.088932    -0.30867    -0.10937      1.9395    0.068871
-0.078132    -0.21363     0.17279    -0.19883     0.20338       1.558    0.079066
-0.23237     -0.1587     0.21292   -0.040641     0.37307      1.2156    0.097483
-0.4514    -0.12384     0.20404      0.1432      0.3734     0.97983     0.12083
-0.65957    -0.10346     0.16063     0.32901     0.25929     0.88183     0.14089
-0.79177   -0.085367     0.10406     0.50495     0.13037     0.91143     0.15142
-0.82696   -0.068595    0.053743     0.66313    0.079066      1.0239     0.14451
-0.78487   -0.063333    0.015266      0.7881     0.13925      1.1459     0.11985
-0.69344   -0.079777   -0.019265     0.84368     0.26192      1.1818    0.076435
-0.57439    -0.11694   -0.062347     0.79139     0.36748      1.0571    0.018555
-0.4412     -0.1564    -0.11694     0.60723     0.39938     0.76081   -0.042286
-0.29387    -0.18107    -0.17778     0.30467     0.35071     0.35564    -0.09326
-0.12516    -0.17877    -0.23434   -0.063004     0.26356   -0.075501    -0.13042
0.073476    -0.15213    -0.28499    -0.41917     0.20206    -0.45337    -0.15903
0.3096    -0.11431    -0.33037    -0.69607     0.20535    -0.73258    -0.18337
0.58289   -0.077803    -0.37313    -0.85525     0.26553    -0.90293     -0.2054
0.86407   -0.038339    -0.41226    -0.91214     0.33065    -0.98877    -0.22382
1.0897    0.011977    -0.44712     -0.9197     0.33821     -1.0236      -0.235
1.2097    0.069529    -0.47409    -0.93352     0.26586     -1.0309    -0.23961
1.2166      0.1205    -0.48724    -0.97561     0.14155     -1.0197    -0.23467
1.1305     0.15273    -0.47672     -1.0358    0.022501    -0.99534    -0.21395
0.96503      0.1626    -0.43726     -1.0841   -0.035051    -0.96015     -0.1814
0.73483     0.13728    -0.37411      -1.096 -0.00051963    -0.91576    -0.14785
0.46581    0.064267    -0.30768     -1.0536     0.12379    -0.85656    -0.12911
0.19746   -0.049521    -0.26789    -0.95522     0.29645    -0.77303    -0.13108
-0.024527    -0.18469    -0.27348    -0.81776     0.43589    -0.66089    -0.14259
-0.16265    -0.31459    -0.31886    -0.66944     0.46417    -0.52309    -0.14654
-0.20935    -0.42114    -0.38332    -0.51947     0.35893    -0.37247    -0.13305
-0.18469    -0.49053    -0.43594    -0.36655     0.17641    -0.22185   -0.099838
-0.12417    -0.51947    -0.45436    -0.20672      0.0054   -0.082079   -0.050507
-0.062347    -0.51125    -0.43265   -0.033406    -0.10247    0.042891   0.0040845
-0.0265    -0.48231    -0.38727     0.15076    -0.16232     0.15043    0.054401
-0.022883    -0.45403    -0.35175     0.33262    -0.23928     0.22837    0.091234
-0.046232    -0.44909    -0.35175     0.50824    -0.40272      0.2629      0.1113
-0.087669    -0.48889    -0.39385     0.67991    -0.68226     0.25567     0.11261
-0.13864    -0.57933    -0.46389     0.85684     -1.0457     0.21456    0.094523
-0.19225    -0.70265    -0.53855      1.0453     -1.4038     0.13991     0.06624
-0.2452    -0.82532    -0.59215      1.2192     -1.6376    0.028092    0.042233
-0.28959    -0.90458      -0.603      1.3314     -1.6518     -0.1176    0.031709
-0.31459    -0.91115    -0.55598      1.3567     -1.4429    -0.28565    0.035656
-0.31064    -0.83683    -0.45173      1.3113     -1.0901    -0.44975    0.043877
-0.27348     -0.6918    -0.30702      1.2446    -0.69575     -0.5859    0.044535
-0.21099    -0.49908    -0.14818       1.211    -0.33235    -0.68884    0.025132
-0.14193    -0.29058  -0.0024928       1.234   -0.039655    -0.76777   -0.023211
-0.085367    -0.10148     0.10603      1.2962      0.1478     -0.8342   -0.091287
-0.045574    0.041575     0.16786      1.3646     0.21752    -0.88616    -0.16035
-0.027816     0.12116     0.18825      1.4153     0.18957    -0.90392    -0.21001
-0.047877     0.13793     0.18529       1.433     0.10932    -0.86117    -0.22974
-0.13404     0.10998     0.18233      1.4077    0.029078    -0.73981    -0.21494
-0.29486    0.073804     0.20075      1.3284  0.00079584    -0.54381    -0.17285
-0.49941    0.061965       0.256      1.1818    0.058348     -0.3238    -0.12056
-0.68391    0.093536     0.33986      0.9555     0.19417    -0.15081    -0.07583
-0.78947     0.17444     0.42865     0.65853     0.36913   -0.080106   -0.045903
-0.79539     0.30368     0.50265      0.3369     0.53751    -0.12582   -0.031433
-0.71614     0.47404     0.55757    0.056046     0.67662    -0.26131   -0.028144
-0.58788     0.66873     0.60197    -0.14785     0.76508    -0.44285   -0.032749
-0.4412     0.85848     0.64735    -0.28992      0.7789    -0.63392   -0.044259
-0.29584      1.0157     0.69339    -0.41095     0.68846    -0.82203   -0.066622
-0.15838      1.1229     0.72562    -0.53263     0.47535    -0.99567   -0.099509
-0.020252      1.1788     0.73614    -0.63523     0.15767     -1.1437    -0.13272
0.13563      1.1887     0.73154    -0.67568    -0.18501     -1.2542    -0.15377
0.33032      1.1663     0.72628    -0.62866    -0.42936     -1.3048    -0.15739
0.5727      1.1295     0.72102    -0.52342     -0.4583     -1.2519    -0.14127
0.84204      1.0884     0.70128    -0.42476    -0.24026     -1.0575    -0.11529
1.0946      1.0377     0.64242    -0.38595     0.12807    -0.71581   -0.087669
1.2844     0.96208     0.53159    -0.41785     0.47173     -0.2692   -0.062676
1.3784     0.85454      0.3813    -0.49283     0.66379      0.2139   -0.043272
1.3547     0.72398      0.2162    -0.56486     0.67103     0.65557   -0.028473
1.2137     0.58289    0.063938    -0.60004     0.53323      0.9703   -0.018278
0.97983     0.44444   -0.055769    -0.58064     0.32045      1.0752  -0.0084125
0.69142     0.31322    -0.14029    -0.50862    0.098141     0.95287  -0.0077547
0.39609     0.18858    -0.21034    -0.42048   -0.097207     0.66905   -0.031433
0.1353    0.061636    -0.29058    -0.37214    -0.25342     0.33229   -0.086683
-0.065964   -0.074186    -0.39713    -0.40404    -0.36754    0.054401    -0.16068
-0.20343    -0.21955    -0.52737    -0.51454    -0.43989   -0.097536    -0.22941
-0.28565    -0.36523    -0.66582     -0.6724    -0.46488    -0.13042    -0.26559
-0.32511    -0.49645    -0.78816    -0.83255    -0.44219     -0.1005    -0.25243
-0.33564    -0.59807    -0.87531    -0.95687    -0.39253   -0.057743    -0.19587
-0.32774    -0.65924    -0.91181     -1.0338    -0.34451   -0.025842    -0.11431
-0.309    -0.68325    -0.88715     -1.0608    -0.29683   -0.012688   -0.031104
-0.28894    -0.67996    -0.80493     -1.0335    -0.21724   -0.013674    0.033683
-0.27907    -0.66483    -0.67864    -0.93549   -0.087341   -0.028473    0.074462
-0.28006     -0.6497    -0.52671    -0.77303    0.065254   -0.048863     0.10209
-0.28894    -0.64181    -0.36951    -0.59248     0.18365   -0.042615     0.12938
-0.30078    -0.64247    -0.22546    -0.45238       0.207    0.015924     0.15832
-0.31327    -0.64938     -0.1097     -0.3876    0.078737     0.12281       0.182
-0.32939    -0.66089    -0.02946    -0.38628     -0.2054     0.26159     0.19516
-0.34484    -0.67141    0.014279    -0.41719    -0.57933      0.4224     0.19976
-0.3557    -0.66976    0.020199    -0.46652    -0.93779     0.60361     0.20469
-0.35635    -0.64378   -0.002164    -0.52671     -1.1992     0.79797     0.21851
-0.34616    -0.59182   -0.040313     -0.5836     -1.3239     0.97227     0.23824
-0.32807    -0.52013   -0.076159     -0.6109     -1.3038      1.0726     0.25633
-0.30735    -0.44087    -0.09918    -0.58557     -1.1384      1.0617     0.25929
-0.28499    -0.36622     -0.1051    -0.50994    -0.84834     0.95056     0.24218
-0.26098    -0.30637   -0.094905    -0.41555      -0.505     0.79238     0.21292
-0.2373    -0.26723   -0.079448    -0.35011    -0.20409     0.64801     0.18167
-0.21527    -0.25342   -0.073528    -0.33991   -0.015976     0.54935     0.15569
-0.19784    -0.25901   -0.090629    -0.37214    0.052757     0.48028     0.13793
-0.18173     -0.2748    -0.13404    -0.41456    0.084328     0.40728     0.12017
-0.1666    -0.29223    -0.19916    -0.43989     0.20502      0.3221     0.10373
-0.15081    -0.30965    -0.26986    -0.42903     0.48588     0.25896     0.10011
-0.13371    -0.32676    -0.32478    -0.37576     0.87427     0.27408      0.1205
-0.11661     -0.3409    -0.34682    -0.28631      1.2301     0.39971     0.16128
-0.099509    -0.35043    -0.33465    -0.18041      1.4268     0.64307     0.21259
-0.079119    -0.35471     -0.2965   -0.080434       1.413     0.99102     0.25633
-0.053796    -0.35175     -0.2498   -0.002164      1.2031      1.3926     0.28428
-0.023211    -0.34057    -0.20836     0.05177     0.86374      1.7421     0.30007
0.010991    -0.31952     -0.1735    0.098469     0.50199      1.9227     0.31289
0.042562    -0.28927    -0.13832     0.15997     0.26257      1.8645     0.32506
0.065912    -0.25375   -0.099509     0.24514     0.24679      1.5642     0.33229
0.073476    -0.21955   -0.055112     0.34907     0.46845      1.0745     0.32506
0.063281     -0.1906   -0.010386     0.45332     0.84303     0.46779      0.2948
0.041575    -0.16791    0.035327     0.53718      1.2094    -0.17745     0.23725
0.014279    -0.14983    0.080382     0.58848      1.4001    -0.77171     0.16128
-0.013674    -0.13799     0.12017     0.61512      1.3238       -1.24    0.079066
-0.04097    -0.13272     0.15372      0.6434      1.0048     -1.5469    0.010662
-0.063991    -0.12516     0.18463     0.69997        0.55     -1.6981   -0.028144
-0.076817    -0.10313     0.21785     0.78218     0.10899     -1.7271   -0.035708
-0.074186   -0.061031     0.24975     0.86637    -0.18501     -1.6906    -0.02354
-0.055112  -0.0011774     0.26422     0.93511    -0.26953     -1.6396  -0.0041372
-0.025842    0.064925     0.25501     0.98575    -0.17054     -1.5899     0.01132
0.0034268     0.12544     0.22541      1.0377    0.035985     -1.5225    0.017239
0.029736     0.16852     0.19285      1.1078      0.3073     -1.3999    0.013951
0.047166     0.19417      0.1797      1.2045     0.68122     -1.1805   0.0090175
0.056046      0.2139     0.20272       1.313      1.2035    -0.82006    0.015595
0.062623     0.23495     0.25468      1.3896      1.7836    -0.27973    0.042562
0.072818     0.25896     0.31322      1.3853        2.22     0.40859    0.085644
0.086959     0.28362     0.36058      1.2804      2.3381      1.1282     0.13333
0.10176     0.30829      0.3859       1.093      2.0977      1.7619     0.17378
0.1159     0.33065     0.39083     0.86605      1.5859      2.2101     0.19516
0.12807     0.35071     0.38064     0.65162     0.96602      2.4298     0.19647
0.14287      0.3734     0.36814     0.48456     0.39412      2.4305     0.18661
0.15931     0.39807     0.35663     0.36748   -0.033406      2.2443     0.17214
0.17279     0.41977     0.34578      0.2731    -0.29749      1.8984     0.15734
0.18036     0.42997     0.32703     0.17082    -0.43265      1.4189     0.14254
0.18036     0.42372     0.29349    0.046508    -0.49053     0.86243     0.12083
0.17082     0.40103     0.24876   -0.091616     -0.5221     0.31059    0.088932
0.15207     0.36387     0.19614    -0.21626    -0.55959    -0.15607    0.046837
0.12511     0.31651     0.14846    -0.30834    -0.61945    -0.49152  -0.0008485
0.09551     0.27112      0.1159    -0.36162     -0.7066    -0.70101   -0.051165
0.071502     0.23922      0.1011    -0.38431    -0.81151    -0.82367   -0.092603
0.066569       0.231      0.1034    -0.39154    -0.92069     -0.8957    -0.11464
0.082684     0.24613     0.12083    -0.39845     -1.0213    -0.94601    -0.11628
0.10998        0.28     0.14714    -0.40963      -1.097    -0.98581    -0.10148
0.13728     0.32309     0.17345    -0.42015     -1.1345     -1.0203   -0.079448
0.15372     0.37274     0.19088    -0.42575     -1.1259     -1.0453   -0.055769
0.15832     0.42997     0.20206    -0.42114      -1.071     -1.0414    -0.03538
0.15536     0.49508     0.21226    -0.40075    -0.98581    -0.97726    -0.01795
0.15109     0.55888     0.22607    -0.36754    -0.88287    -0.84538 -0.00051963
0.14846     0.60657     0.24021    -0.32676    -0.77763    -0.68292   0.0086887
0.14944      0.6263     0.24679    -0.28335    -0.69213    -0.54118 -0.00019077
0.15668     0.61216     0.23988    -0.24618    -0.65694    -0.44745   -0.025842
0.16852     0.56809     0.21588    -0.22612    -0.69739    -0.41621   -0.060702
0.18266     0.50561     0.17871    -0.22842    -0.82039    -0.44153   -0.099509
0.19976     0.44411     0.13366    -0.24947     -1.0124    -0.49842     -0.1324
0.21851     0.39478    0.085315    -0.28006     -1.2377    -0.55598    -0.15377
0.23594     0.35959    0.048153    -0.30702     -1.4245    -0.59084    -0.16134
0.24778     0.32901    0.029407    -0.32084     -1.4985    -0.60202    -0.15081
0.25369      0.2925    0.030723    -0.31886     -1.4334    -0.61156    -0.12549
0.25304     0.25139    0.041904    -0.30702     -1.2499    -0.63293    -0.09918
0.2412      0.2093    0.052757    -0.28861    -0.99173    -0.66187   -0.080434
0.21982     0.16983    0.055059    -0.26361    -0.69772    -0.67437   -0.073528
0.19384     0.13596     0.04881    -0.23237    -0.40437    -0.64773   -0.079777
0.16852     0.10932    0.039602    -0.20014    -0.16627    -0.58459   -0.094576
0.14583    0.093865    0.035656    -0.17811   -0.061689    -0.50533    -0.10609
0.12905    0.091563     0.03434     -0.1814    -0.15311    -0.42048    -0.10576
0.11491    0.089919    0.028092    -0.21264    -0.42048    -0.33564   -0.095233
0.10044    0.074133    0.015266       -0.26    -0.75527    -0.24717   -0.081421
0.082026    0.033354  -0.0057815    -0.30176      -1.017    -0.14325   -0.066622
0.060979   -0.024527   -0.032749    -0.31886     -1.1032   -0.002164   -0.053467
0.040918   -0.084052   -0.066293    -0.30834    -0.98449     0.18891   -0.042286
0.023159    -0.13404     -0.1097    -0.28137    -0.67733     0.41846   -0.035051
0.0073732    -0.17087    -0.16199    -0.24125    -0.19784     0.66807   -0.032749
-0.012359    -0.19258     -0.2179    -0.18469     0.44773     0.92458   -0.034064
-0.039326    -0.20508    -0.26394    -0.11497      1.1982      1.1624   -0.031104
-0.073528    -0.21659    -0.28663   -0.047548      1.9151      1.3294   -0.024198
-0.11036    -0.22612    -0.28992 -0.00051963      2.4351       1.362   -0.021238
-0.14555    -0.23895    -0.28894    0.019212      2.6505      1.2146   -0.030775
-0.17679    -0.26559    -0.30604    0.014608      2.5561     0.89301   -0.057743
-0.20376    -0.31853    -0.35997    -0.02354      2.2433      0.4395    -0.10773
-0.22875    -0.40042    -0.44778    -0.09326      1.8372   -0.070568    -0.17679
-0.25473    -0.49941    -0.54677    -0.18008      1.4412    -0.52046    -0.24553
-0.284    -0.59676    -0.62997    -0.26657      1.1143    -0.78257    -0.28236
-0.31557      -0.677    -0.68259    -0.33662     0.86703    -0.75691    -0.26592
-0.34024    -0.73061     -0.7043    -0.39352     0.67793    -0.43956    -0.19258
-0.34879    -0.75593    -0.70561     -0.4514     0.51054     0.05177    -0.08471
-0.333    -0.75922    -0.69443    -0.51487     0.33098     0.51514    0.029078
-0.2919    -0.74113    -0.67568    -0.56223     0.11985     0.76936      0.1159
-0.22481     -0.6918    -0.65135    -0.55466    -0.10905     0.73976     0.16326
-0.14029    -0.60892    -0.61715    -0.46587    -0.31689     0.48456     0.17345
-0.058729    -0.51125    -0.57176    -0.30341    -0.46916     0.15175     0.15503
-0.0034794    -0.43758    -0.52506    -0.10346    -0.55499    -0.11266     0.11623
0.012635    -0.41325    -0.49251    0.083999     -0.5767    -0.22941      0.0692
-0.0064392    -0.44416    -0.48757     0.23002    -0.53723    -0.18567    0.026776
-0.044588    -0.51257      -0.505     0.32572    -0.45436   -0.038011  -0.0038083
-0.087669    -0.58097    -0.51618     0.38064    -0.37609     0.12116    -0.03242
-0.11661    -0.59413    -0.48132     0.41385    -0.35603     0.22541   -0.065635
-0.11825    -0.51191     -0.3751     0.44345    -0.40897     0.25929     -0.1028
-0.091616    -0.33761    -0.19324     0.47996    -0.49316     0.24449    -0.14193
-0.049521     -0.1097    0.039602     0.53422    -0.54052     0.21423    -0.17877
-0.007097     0.12478     0.28921     0.61216    -0.50796     0.19779    -0.21001
0.026776     0.32868      0.5181     0.69832     -0.4024     0.20831    -0.23862
0.052099     0.48555     0.69569     0.77429    -0.27019     0.23791    -0.26953
0.072818     0.60098     0.81672     0.82231    -0.16693      0.2708    -0.30801
0.087946     0.68714     0.89367     0.83415    -0.13174     0.28823    -0.35372
0.095181     0.75226     0.94991     0.82592    -0.18271     0.27277     -0.4047
0.091563     0.80718      1.0058     0.84007    -0.30735     0.21982    -0.45436
0.081039     0.85947      1.0686     0.92458    -0.46488     0.14188    -0.50007
0.069529     0.91011       1.137      1.1012    -0.61616    0.051113    -0.53624
0.06361     0.95517      1.1946      1.3393    -0.74113   -0.048534    -0.56223
0.065912     0.98707      1.2209      1.5767    -0.84604    -0.13503    -0.57078
0.083999      1.0084      1.2081      1.7579     -0.9345    -0.17285    -0.55335
0.11853      1.0302      1.1735      1.8503    -0.97956     -0.1541     -0.5129
0.15898      1.0512      1.1426      1.8365    -0.93483     -0.1097    -0.45863
0.1945      1.0621      1.1291      1.7132     -0.7727   -0.065635    -0.39812
0.22114      1.0519      1.1285      1.4971    -0.51059  -0.0067681    -0.33465
0.2435      1.0209      1.1252      1.2186    -0.21461    0.075778    -0.27315
0.26093     0.98641      1.1153      0.9088    0.029078     0.15142    -0.21297
0.27507     0.97227       1.115     0.60032     0.17345      0.1922    -0.14687
0.28329     0.98904      1.1426     0.33624     0.23429     0.19516   -0.065635
0.28      1.0246      1.1992     0.15043     0.26619     0.16687    0.029736
0.26422      1.0584      1.2617    0.049797     0.32144    0.090248     0.12807
0.23824      1.0736      1.3005   0.0083598     0.41122   -0.067937     0.21489
0.21259      1.0624      1.2896   -0.015976     0.50659     -0.3113     0.28033
0.19187      1.0255      1.2156   -0.061689     0.56349    -0.60728      0.3221
0.1751     0.96306      1.0745    -0.14292     0.55296    -0.91181     0.35038
0.15471     0.87558     0.88019    -0.24618     0.48818     -1.1759     0.37209
0.12971     0.76443     0.66083     -0.3284     0.41912     -1.3538     0.39281
0.10209     0.63847     0.44641    -0.35504     0.40432     -1.4183     0.41517
0.07512     0.50692     0.26159    -0.32018     0.47765     -1.3558     0.43753
0.051113     0.38261     0.11261    -0.25177     0.62893     -1.1525     0.46483
0.026447      0.2708   -0.010057    -0.19291     0.80159    -0.77961     0.50133
0.0080309      0.1626    -0.11891     -0.1985      0.9134    -0.21823     0.55362
-0.0051238    0.050126    -0.22842    -0.29321     0.89992     0.50067     0.62597
-0.0084125   -0.068266    -0.33498    -0.46159     0.74996      1.2735     0.71181
0.0001381    -0.18074    -0.42213    -0.65727     0.49771      1.9855     0.79896
0.018555    -0.27249    -0.47606    -0.83716     0.19614      2.4995     0.86999
0.039931    -0.34188    -0.50204    -0.97331    -0.10082      2.6932     0.91373
0.053743     -0.3968    -0.50895     -1.0532    -0.33432      2.5173     0.91965
0.051113    -0.44745    -0.51125     -1.0624    -0.45797      2.0128     0.88019
0.031052    -0.50237    -0.52046    -0.98449    -0.45304      1.2932     0.79896
0.0044134    -0.56354    -0.54118    -0.82039    -0.32577     0.50955     0.68879
-0.014003    -0.62175    -0.57538      -0.603    -0.11858    -0.17548     0.57894
-0.013674    -0.66648    -0.62471    -0.38201     0.11031    -0.62635     0.49936
0.0073732    -0.68983    -0.68424    -0.19028     0.32637    -0.80986     0.46647
0.036642     -0.7043    -0.75001   -0.048205     0.53225     -0.7852      0.4691
0.052757    -0.72436    -0.82269    0.017239     0.73384    -0.65924     0.48324
0.039602    -0.76514    -0.90655   -0.011372     0.91439     -0.5198     0.49048
-0.0011774    -0.82631    -0.99765    -0.11628      1.0275    -0.38793     0.48456
-0.059716      -0.898     -1.0818    -0.26131      1.0121    -0.23106     0.46713
-0.11891    -0.96509     -1.1476    -0.40864      0.8177  -0.0090702      0.4451
-0.16462     -1.0121     -1.1841    -0.53756     0.42438     0.26488     0.42767
-0.18863     -1.0318      -1.189    -0.64378    -0.12911      0.5181     0.41155
-0.19422     -1.0223      -1.165    -0.72797    -0.73324     0.65031     0.38886
-0.18732    -0.98679      -1.121    -0.78158     -1.2361     0.60591     0.34972
-0.17318    -0.93681     -1.0614    -0.78388     -1.5179     0.39379     0.29382
-0.15607    -0.87925    -0.98679    -0.73093     -1.5472    0.077093     0.22771
-0.1416     -0.8217    -0.90425    -0.64707     -1.4018    -0.25243     0.16095
-0.13634    -0.77467    -0.82466     -0.5619      -1.192    -0.52145    0.099785
-0.13799     -0.7408    -0.75987    -0.48428    -0.98942    -0.69048    0.044206
-0.14292    -0.71252    -0.71186    -0.40897    -0.76875    -0.76218   -0.010057
-0.14752    -0.68588    -0.67634    -0.32281    -0.45633    -0.76612   -0.066951
-0.14489    -0.65957    -0.64444    -0.22283   -0.014003     -0.7362    -0.12384
-0.13437     -0.6349     -0.6086    -0.11858     0.50166    -0.69575     -0.1735
-0.1199    -0.61353     -0.5711   -0.030775     0.95648    -0.66121    -0.20409
-0.1074    -0.59676    -0.54184    0.027763      1.2262    -0.64346    -0.21067
-0.10082    -0.59643    -0.53624    0.055717       1.262    -0.63425    -0.19488
-0.10082    -0.62043    -0.56321     0.05769      1.1032    -0.61747    -0.16824
-0.10674    -0.66417    -0.61813    0.045522     0.84829     -0.5984    -0.14358
-0.11562     -0.7112     -0.6816    0.033025     0.60361    -0.61846    -0.12878
-0.12549    -0.74244    -0.73357    0.030394      0.4303    -0.71811    -0.12845
-0.13404    -0.74968    -0.76579    0.038944      0.3244    -0.89833    -0.13963
-0.14127    -0.73324    -0.77533    0.050455      0.2287     -1.1052    -0.16298
-0.14522    -0.70561    -0.76711    0.057361     0.08959     -1.2505    -0.19554
-0.14917    -0.67667    -0.74475    0.047824   -0.092603     -1.2486    -0.23434
-0.15805    -0.65727     -0.7135   0.0070443    -0.27973     -1.0397    -0.27677
-0.17613    -0.64642    -0.67963   -0.086025    -0.42147    -0.62142    -0.31821
-0.20047     -0.6349    -0.64806    -0.23862    -0.47902   -0.078461    -0.35372
-0.22316     -0.6132    -0.61912    -0.43101    -0.46028     0.43655    -0.37543
-0.23698      -0.579    -0.59182    -0.60958    -0.41522     0.78021    -0.38102
-0.23665    -0.52934    -0.56387    -0.73192    -0.39352     0.88413    -0.37411
-0.21691    -0.45534    -0.52868    -0.79243    -0.41423     0.78218    -0.36523
-0.17679    -0.34813    -0.48001    -0.82137    -0.46718     0.57171    -0.36622
-0.11628    -0.21428    -0.41555    -0.84933    -0.51257     0.34183    -0.37872
-0.042615   -0.079777    -0.33399    -0.88945    -0.49316     0.13892    -0.39713
0.029078    0.027105    -0.23698    -0.93023    -0.38069   -0.033735    -0.41456
0.083013    0.087288    -0.12582     -0.9516    -0.21363    -0.20606    -0.42772
0.11031     0.11195  -0.0018351    -0.93713   -0.095562    -0.41423    -0.43857
0.11031     0.12741     0.13629    -0.87728    -0.13338    -0.66187      -0.456
0.096496     0.15405     0.27836    -0.76579      -0.358    -0.89603    -0.48132
0.08367     0.20996     0.41714     -0.5984    -0.71482     -1.0397    -0.49941
0.085644     0.29612     0.55066    -0.36984     -1.1137      -1.021    -0.48659
0.10274     0.40826     0.68813   -0.078132     -1.4821        -0.8    -0.43002
0.13563     0.54672     0.84237     0.27211     -1.7461    -0.38233    -0.32939
0.17806      0.7095      1.0186       0.673     -1.7935      0.1774    -0.20508
0.2241     0.88775      1.2005      1.1061     -1.4771      0.8108   -0.084052
0.26784      1.0653      1.3554       1.535    -0.69377      1.4554    0.013622
0.30171      1.2248      1.4626      1.8984     0.51843      1.9881    0.082026
0.3267       1.359      1.5267      2.1444      1.9109       2.246     0.11985
0.34644      1.4613      1.5603      2.2529      3.2191      2.1444     0.13267
0.35992      1.5238      1.5708      2.2404      4.1991      1.7254     0.12807
0.36156       1.535      1.5491       2.143      4.6612      1.1337     0.10932
0.34742      1.4814      1.4866      2.0013       4.529     0.54408    0.081039
0.31881      1.3676       1.386      1.8415       3.891    0.096496    0.048482
0.2754      1.2169      1.2673      1.6616      2.9491    -0.15542    0.017239
0.22179      1.0657      1.1538      1.4557      1.9398     -0.2521  -0.0031506
0.17082     0.94004      1.0574      1.2413      1.0597    -0.27249  -0.0018351
0.13432     0.84796     0.97918      1.0522     0.42536    -0.24684    0.021843
0.11886     0.78745     0.91077     0.90946    0.073476    -0.14391    0.054401
0.12149     0.75028     0.84237       0.796   -0.026171    0.049468    0.081697
0.1307     0.72463      0.7664     0.67037    0.068214     0.30007    0.096496
0.13728     0.69734     0.67859     0.49837     0.29217     0.55428    0.094194
0.14089      0.6582     0.59013     0.27935     0.58256     0.76081    0.074462
0.14089      0.6046     0.51482    0.049139     0.87558     0.87821    0.042891
0.13793     0.54244     0.45595    -0.14752      1.0815     0.88183   0.0073732
0.133     0.47404     0.40201     -0.2794      1.0916     0.78284   -0.026829
0.1284     0.40399     0.34446    -0.33761      0.8519     0.61874   -0.056756
0.12708     0.33624     0.28362    -0.32643     0.41024     0.42799   -0.076159
0.13004     0.27277     0.22344    -0.26953    -0.11266     0.25106   -0.080434
0.13464     0.21226     0.16523    -0.19422    -0.59347     0.11886   -0.071226
0.13497     0.14846    0.099785    -0.12483    -0.95292     0.04322   -0.054454
0.11787    0.074462    0.019212   -0.074844     -1.1512    0.013293   -0.037682
0.079724   -0.019923   -0.079119   -0.048534     -1.1937   0.0050711   -0.027816
0.024474    -0.13503    -0.18896   -0.042286     -1.1335    0.010991   -0.020252
-0.038668    -0.25769    -0.29617     -0.0584     -1.0489    0.028092  -0.0087413
-0.097207    -0.36819    -0.38628    -0.11003     -1.0207    0.021843   0.0047422
-0.14522    -0.45337    -0.45337    -0.20869     -1.0917     -0.0903    0.011977
-0.18304    -0.50665    -0.49514    -0.35076     -1.2502    -0.37905   0.0063866
-0.21198    -0.52737    -0.51585    -0.51125     -1.4364    -0.82894  -0.0067681
-0.22678    -0.52013    -0.52408    -0.66023     -1.5718     -1.3472   -0.011372
-0.22579    -0.49283    -0.52441    -0.77106     -1.6123     -1.7879    0.013293
-0.20968     -0.4583    -0.51816    -0.83387     -1.5574     -1.9898     0.07808
-0.18337    -0.42903    -0.51191    -0.85426     -1.4452     -1.8471     0.17707
-0.15476    -0.41621    -0.51388    -0.84966     -1.3361     -1.3633     0.28757
-0.1324    -0.42607    -0.53098    -0.84472     -1.2907    -0.66352     0.38064
-0.12286    -0.46028    -0.56387    -0.86413      -1.341    0.071831     0.43063
-0.13042    -0.51224    -0.61287    -0.91444     -1.4752     0.68944     0.42734
-0.15311    -0.57406    -0.66779    -0.98252      -1.636      1.1482      0.3757
-0.18501    -0.63918    -0.71909     -1.0453     -1.7521      1.4735     0.28724
-0.21823    -0.69903    -0.75001     -1.0848     -1.7771      1.6915     0.18759
-0.24421    -0.74212    -0.74508     -1.0851     -1.7073      1.7675    0.099127
-0.25769    -0.76481    -0.70561     -1.0434     -1.5883      1.6415    0.031381
-0.25835    -0.76645    -0.64707    -0.96739     -1.4798      1.3048   -0.012359
-0.2475    -0.74771    -0.58821    -0.87268     -1.4225     0.84007   -0.033735
-0.22415     -0.7043    -0.54052    -0.77369     -1.4091     0.37965   -0.035708
-0.18041     -0.6326    -0.50402    -0.67174     -1.4104      0.0373   -0.025842
-0.11464    -0.53296    -0.46948    -0.56551     -1.4025    -0.14983   -0.012688
-0.038011    -0.41588    -0.43166    -0.45666     -1.3617    -0.21231  -0.0015062
0.033683    -0.30209    -0.39056    -0.35076     -1.2607    -0.20212   0.0080309
0.087946    -0.20968    -0.35175    -0.24618     -1.0914    -0.18633    0.015924
0.11919    -0.15114    -0.32445    -0.14259    -0.86248    -0.22842    0.014608
0.12642    -0.13305    -0.31788   -0.037353    -0.56716    -0.36458   0.0037556
0.10603    -0.15443     -0.3284    0.073476    -0.14818    -0.59018   -0.014332
0.059663    -0.20771    -0.34715     0.18858     0.49508    -0.86643   -0.031433
-0.0047949    -0.27381    -0.36326     0.29678      1.3791     -1.1295   -0.038668
-0.073528    -0.33202     -0.3728     0.37603      2.3598     -1.2969   -0.034064
-0.12713    -0.35833    -0.37017     0.40728      3.1757     -1.3134   -0.018607
-0.15213    -0.34057    -0.34287     0.38985      3.5924      -1.171   0.0060577
-0.15344    -0.28729    -0.27775     0.34216      3.5101    -0.89964    0.037629
-0.14456    -0.21823    -0.16002     0.28165      2.9981    -0.56025    0.071502
-0.13437    -0.14193    0.011977      0.2264      2.2394    -0.24125    0.097483
-0.12779   -0.053467     0.22936     0.18957      1.4307   -0.020252     0.10768
-0.13634    0.064596     0.47042      0.1774     0.70556    0.086301     0.10932
-0.16594     0.22278     0.70687     0.18628     0.13169     0.13004     0.10702
-0.20672     0.42175     0.92031     0.19943    -0.25967     0.19516     0.10735
-0.23073     0.64603      1.0982     0.20404    -0.45699     0.33953     0.11623
-0.21165     0.86341      1.2265     0.19943    -0.46685     0.55987      0.1307
-0.14851      1.0459      1.2965     0.18529    -0.31229     0.79238     0.13859
-0.060373       1.187      1.3064     0.17477   -0.040641     0.92656     0.12873
0.028421      1.3041      1.2689     0.18365     0.28494      0.8598    0.097154
0.11491      1.4156      1.2005     0.22311     0.58848     0.57105    0.054072
0.1991      1.5218       1.114     0.27474     0.79435     0.14122    0.010662
0.27573      1.5981      1.0078     0.29579     0.83513    -0.29716   -0.028802
0.33624      1.6126     0.88117      0.2583     0.67695    -0.63655   -0.070897
0.37636      1.5448     0.73581      0.1774     0.33821    -0.83157    -0.12089
0.39807      1.4034     0.57631    0.090905   -0.095562    -0.88188    -0.18337
0.41583      1.2137     0.41188    0.030394    -0.51026    -0.79769    -0.25737
0.44444      1.0111      0.2606    0.014608    -0.80526    -0.58294    -0.32972
0.49147     0.83283     0.14254     0.04881     -0.9276    -0.25473    -0.38464
0.55099     0.69898    0.069529     0.11491    -0.89142     0.13925    -0.40503
0.61282     0.61578    0.037629     0.16391    -0.76251     0.53784    -0.38299
0.66609     0.56908    0.027763     0.15602     -0.6109     0.88282    -0.32906
0.70194     0.53422    0.018555    0.091563     -0.4879      1.1104    -0.26263
0.69799     0.48061   -0.010715   0.0090175    -0.43265      1.1538    -0.20672
0.64209      0.3905   -0.068266   -0.055112    -0.47935      0.9726    -0.16956
0.53389      0.2583    -0.15476   -0.098851    -0.63721      0.5819     -0.1495
0.3905    0.088932    -0.25934    -0.15509    -0.86215    0.055388    -0.14358
0.23199     -0.1005     -0.3705    -0.24289     -1.0716    -0.50106    -0.14785
0.077093    -0.29288     -0.4754     -0.3432     -1.1937    -0.97627    -0.16035
-0.062347    -0.47442    -0.56814    -0.42476     -1.1989     -1.2627    -0.17975
-0.18041     -0.6428    -0.64576    -0.46389     -1.0937     -1.2792    -0.19389
-0.27151     -0.7898    -0.70265     -0.4662     -0.9174     -1.0036    -0.18765
-0.33333    -0.90293    -0.73455    -0.44449     -0.7237    -0.48099    -0.14917
-0.36227    -0.97462    -0.73455    -0.41621    -0.55499     0.19483   -0.087998
-0.36523     -1.0101    -0.70627    -0.39023    -0.43495     0.85947   -0.022554
-0.35043      -1.018    -0.66056    -0.36754    -0.36852      1.3321    0.028421
-0.32906     -1.0098    -0.60268     -0.3455    -0.33136       1.483     0.05473
-0.30834    -0.99896    -0.54677    -0.31261    -0.26164      1.3028    0.055717
-0.2919    -0.98942    -0.50106    -0.25934    -0.09622     0.88578    0.039602
-0.28006    -0.98022    -0.46948    -0.18107     0.20305     0.37801    0.019212
-0.27381    -0.97035    -0.45403   -0.089314     0.60493   -0.083394   0.0044134
-0.26986    -0.95785    -0.45205  -0.0024928      1.0163    -0.40733  -0.0057815
-0.26493     -0.9424    -0.45765    0.068871      1.3278    -0.57012   -0.013345
-0.26164    -0.92266    -0.47179     0.12478      1.4781    -0.60333   -0.015319
-0.26032    -0.91017    -0.50237     0.16687      1.4633    -0.56683   -0.011372
-0.25473    -0.91115    -0.55499      0.2116      1.3291    -0.52276   0.0001381
-0.235    -0.91444    -0.61682     0.28428      1.1558     -0.5129    0.020857
-0.19883    -0.89635    -0.65628     0.41089      1.0229    -0.55071    0.049139
-0.14917    -0.83453    -0.63819     0.59999     0.97424    -0.62504    0.073804
-0.09918    -0.72633     -0.5494      0.8302      1.0042    -0.70528    0.091234
-0.058729    -0.59445    -0.40799      1.0532      1.0752    -0.77138     0.10307
-0.032749    -0.46948    -0.25835      1.2091      1.1423    -0.81512     0.11623
-0.016963    -0.36688    -0.14818      1.2488      1.1643    -0.84078     0.13629
0.00079584    -0.27677   -0.092603      1.1633      1.0976    -0.85163     0.16589
0.02579    -0.17252   -0.066951      0.9897     0.90913    -0.83716     0.20535
0.057032   -0.033735   -0.020252     0.78679     0.60295    -0.77138     0.25205
0.091563     0.12807    0.078409     0.61479     0.23791    -0.64411     0.30335
0.12741     0.28033     0.21916     0.51482   -0.094576    -0.48363      0.3494
0.1603     0.39708      0.3711     0.49574    -0.31459    -0.32741     0.37932
0.18924     0.48292     0.51843     0.52665    -0.38497    -0.19324     0.39083
0.21883     0.55954     0.67004     0.56776    -0.31031   -0.082079     0.38524
0.24975     0.64044     0.83711     0.59177     -0.1268    0.017239     0.36979
0.27803      0.7174      1.0117     0.59769     0.11952     0.11064     0.34578
0.29612     0.77725      1.1781     0.58782     0.37768     0.18726     0.30631
0.30039     0.81343      1.3225     0.55691     0.60328     0.23725     0.24284
0.28954      0.8302      1.4366     0.49475     0.75193     0.26915     0.15536
0.25994     0.83941      1.5146     0.39346      0.7881     0.30697     0.05473
0.21324     0.84862      1.5425     0.25041     0.69405     0.36715   -0.037353
0.15372      0.8598      1.5031    0.077422     0.49278     0.44378    -0.09622
0.096496     0.87624      1.3965    -0.10641     0.26356     0.50462    -0.11003
0.056046     0.90518      1.2571    -0.27348    0.097154     0.52271    -0.08175
0.038944     0.95484      1.1321     -0.3751    0.032367     0.49508   -0.021238
0.042233      1.0278      1.0581    -0.34386    0.027434     0.42997    0.053415
0.048153      1.1134      1.0502    -0.12648  -0.0047949     0.32966     0.12083
0.047495       1.191      1.0946      0.2708    -0.12187       0.182     0.16523
0.035985       1.241      1.1472     0.75818    -0.31393   -0.020581     0.18036
0.017897      1.2475      1.1568      1.1962       -0.53    -0.26559     0.16753
0.00046697      1.2071      1.0851      1.4626    -0.70824    -0.50928     0.13826
-0.0057815      1.1255     0.92228      1.5027     -0.8046    -0.68555     0.10077
0.0017824      1.0117      0.6924      1.3465    -0.81644    -0.72962    0.071502
0.017239     0.86835     0.42898      1.0923    -0.77106    -0.60728    0.065254
0.038944     0.70753     0.17214     0.84368    -0.69739    -0.31064    0.086959
0.064267     0.54343   -0.049521     0.66017     -0.6109     0.11952     0.12708
0.082684     0.38228     -0.2179     0.55362    -0.50632     0.56546      0.1695
0.084328     0.22048    -0.33728     0.50396     -0.3899      0.8838     0.18693
0.059334    0.056374    -0.42279     0.47897    -0.27512     0.98542     0.16227
0.0021113     -0.1074    -0.49514     0.45134    -0.18041     0.85684    0.091234
-0.078132    -0.26131     -0.5619     0.41089    -0.10707     0.55099   -0.010386
-0.16693    -0.39253    -0.62175     0.36123   -0.039984     0.16819    -0.11562
-0.25177    -0.49382    -0.66483      0.3175    0.045522    -0.17613    -0.19389
-0.31656     -0.5688    -0.68621     0.28231     0.15898    -0.39944    -0.22744
-0.34879    -0.62504    -0.69015     0.24975     0.27836    -0.47573    -0.21297
-0.34221    -0.67141    -0.69279     0.20075     0.36946    -0.42081    -0.15805
-0.30768    -0.71712    -0.70298     0.11721     0.41089     -0.2794    -0.07287
-0.26131    -0.76448    -0.72304   -0.004466      0.4053     -0.1097    0.024803
-0.21626    -0.80822    -0.74902    -0.15443     0.37669    0.047166     0.11886
-0.18238    -0.84571    -0.77369    -0.31557     0.34709     0.16918     0.19746
-0.16265     -0.8661    -0.79145    -0.46784     0.30697     0.23462     0.25238
-0.14917    -0.86281    -0.79046    -0.58919     0.22443     0.23396     0.28231
-0.13536    -0.83519    -0.76744    -0.66648    0.086959     0.18397     0.28724
-0.11891    -0.79441    -0.72403    -0.70397   -0.065964     0.12774     0.26948
-0.10247    -0.75724    -0.67371    -0.71318    -0.16265     0.10636     0.23396
-0.089643    -0.73948     -0.6257    -0.71087    -0.15147     0.13267     0.18924
-0.085696    -0.74409    -0.58261    -0.70989   -0.040313     0.19516     0.13958
-0.087998    -0.76382    -0.54808    -0.72304     0.12774     0.28395    0.089261
-0.10082     -0.7875    -0.52934     -0.7579     0.29743     0.39774    0.041575
-0.12483    -0.80723    -0.53328     -0.8194     0.41616     0.53981   0.0001381
-0.15344    -0.81644    -0.55795    -0.89537     0.45102     0.71641   -0.033078
-0.17482    -0.80953     -0.5961    -0.97232     0.40399     0.90091   -0.060045
-0.1837    -0.78191     -0.6326     -1.0424     0.30039      1.0374   -0.083065
-0.18107     -0.7362    -0.66056     -1.1045     0.16589      1.0716    -0.10411
-0.16791    -0.67766     -0.6793     -1.1604    0.011977     0.98707    -0.12286
-0.14654    -0.61616    -0.69279     -1.2213    -0.15114     0.81507    -0.13437
-0.11957    -0.56157    -0.70726     -1.3005    -0.30505     0.60788    -0.14391
-0.091945    -0.52046    -0.72436     -1.4005    -0.43101     0.40333     -0.1541
-0.068924    -0.49283    -0.74343     -1.5094    -0.53098     0.21883    -0.16989
-0.047877     -0.4731    -0.75955      -1.608    -0.62833    0.063281     -0.1906
-0.027816    -0.46291    -0.77237     -1.6731     -0.7362    -0.06136    -0.21659
-0.010715    -0.45699    -0.77665     -1.6823    -0.84604    -0.15279    -0.24224
0.0014536    -0.44581    -0.76744     -1.6287    -0.93977    -0.20672    -0.26657
0.013293    -0.42114    -0.73258     -1.5268    -0.99797    -0.22514    -0.28302
0.030065    -0.38233    -0.67174     -1.4005     -1.0065     -0.2156    -0.28729
0.056046    -0.32018    -0.58952     -1.2686    -0.95917    -0.18797    -0.27085
0.092879    -0.24059    -0.50303     -1.1348    -0.86248    -0.16166    -0.23073
0.14188    -0.15246     -0.4264     -1.0046    -0.72205    -0.14391    -0.16857
0.19384   -0.066293    -0.36852     -0.8832    -0.52539    -0.12779   -0.095891
0.24087    0.012635    -0.32774    -0.77336    -0.23829    -0.10115   -0.028144
0.27244     0.08367    -0.29124    -0.67141      0.1626     -0.0584    0.021843
0.28362     0.14418    -0.24388    -0.56749     0.66116  -0.0047949     0.04881
0.27408     0.19088    -0.17877    -0.45304      1.1804    0.042562    0.057361
0.2458     0.22541   -0.094576    -0.32511      1.5905    0.062952    0.055717
0.20732     0.25106   0.0093464    -0.18271      1.7583    0.050126    0.049797
0.17115     0.27014     0.11623   -0.025842      1.5984      0.0054     0.04618
0.14484     0.28823      0.2014     0.14188      1.1364   -0.061689    0.044864
0.13366     0.30829     0.25271     0.31618     0.51054    -0.13832    0.044535
0.14024      0.3346     0.28395     0.50002   -0.090958    -0.20771    0.044535
0.16227     0.37044      0.3175     0.68418    -0.52934    -0.25605    0.041247
0.19022     0.41254     0.36946     0.84927    -0.76547    -0.27907    0.023817
0.2116     0.44904     0.43786     0.97326    -0.82696    -0.27841   -0.013017
0.21752     0.46976     0.50594      1.0489     -0.7852     -0.2623    -0.06432
0.20798     0.46779     0.55625      1.0838    -0.73061    -0.23138    -0.11266
0.19055     0.44904     0.57796      1.1009    -0.73455    -0.18732    -0.14522
0.17477      0.4224     0.57368      1.1308    -0.82335    -0.13568    -0.15509
0.16161     0.40267     0.55757      1.1936    -0.96015    -0.10609    -0.14621
0.14451     0.39478        0.55      1.2893     -1.0785    -0.12812    -0.13437
0.11458     0.39116     0.55855      1.3982     -1.1463    -0.22744    -0.13536
0.072818     0.37702     0.57204      1.4794     -1.1884    -0.42344    -0.15213
0.028421     0.34742     0.58223      1.4958     -1.2499    -0.69607    -0.17482
-0.0064392     0.30368     0.58355       1.432     -1.3459    -0.99765    -0.19521
-0.026171     0.25337     0.57796      1.2939     -1.4436     -1.2755    -0.20277
-0.031433     0.19877     0.55954       1.112      -1.484     -1.4906    -0.19389
-0.029131     0.15076     0.52896     0.92261     -1.4074     -1.6153     -0.1666
-0.027816     0.12182     0.49508     0.75028     -1.1433     -1.6255    -0.11891
-0.030118     0.11853     0.47141     0.57598    -0.63326      -1.512   -0.053467
-0.03538     0.13596     0.47075     0.37899    0.080711     -1.2811     0.02875
-0.037353     0.17246     0.49114     0.15832     0.79731    -0.94864     0.11787
-0.028144     0.22903     0.52731   -0.053138      1.2883    -0.56979     0.20634
-0.0057815     0.30533     0.57138    -0.20935      1.4501    -0.25013     0.27935
0.020857     0.39609     0.61282    -0.27414      1.3531   -0.095562     0.32539
0.038287     0.48785     0.63715    -0.24651      1.1712    -0.10839     0.33986
0.040589      0.5648     0.62301    -0.16693       1.067    -0.16068     0.32144
0.02875     0.61052     0.55987   -0.089314      1.1222   -0.060702     0.28625
0.0083598     0.60986     0.45924   -0.046232      1.3383     0.33164      0.2481
-0.014661     0.56217     0.33821   -0.047877      1.6948      1.0525     0.21883
-0.034064     0.48094     0.21324   -0.083723      2.1519      2.0121     0.19746
-0.045246     0.38228     0.10176    -0.13207      2.6133      3.0135     0.17049
-0.04393     0.28362    0.012635    -0.18271       2.932      3.8074     0.12741
-0.030775     0.19713   -0.051165    -0.23862      2.9715      4.1869    0.070516
-0.0077547     0.13432   -0.089972    -0.31163      2.6386      4.1054    0.018884
0.026447    0.099456    -0.10576    -0.40174      1.9536      3.6959  -0.0077547
0.074791    0.088932    -0.10017    -0.48593       1.063      3.1533  -0.0038083
0.13958    0.088603   -0.077475    -0.52342     0.19943      2.6113    0.016253
0.20765    0.080711   -0.049192    -0.46981    -0.42871      2.1121    0.033683
0.26685    0.053415   -0.026171    -0.31459    -0.74277       1.632    0.032038
0.30434   0.0037556   -0.014332   -0.083394    -0.77895      1.1331   0.0057288
0.30927   -0.059387   -0.015648     0.16194    -0.64181     0.61348   -0.038011
0.28066    -0.12976   -0.031762      0.3494    -0.45074     0.12905   -0.083065
0.22015    -0.20376   -0.070897     0.42109    -0.28137    -0.24618    -0.11102
0.13432    -0.27414    -0.12779     0.36321    -0.13404    -0.45863    -0.10905
0.0373    -0.33761    -0.18666     0.21785     0.04322    -0.50928   -0.071555
-0.049192    -0.38201    -0.23237    0.054072     0.26948    -0.45863  -0.0067681
-0.10937    -0.39878     -0.2521   -0.069582     0.51449    -0.40601    0.070845
-0.13766    -0.38529    -0.24585    -0.12615     0.73022    -0.42805     0.14418
-0.13503     -0.3455    -0.21922    -0.13338     0.85651    -0.53263     0.20272
-0.11431    -0.28532    -0.18107    -0.12286     0.83974    -0.66154      0.2435
-0.087998    -0.21198    -0.13305     -0.1074     0.64307    -0.74606     0.26586
-0.066951    -0.13536   -0.073528   -0.082079     0.26784    -0.76547     0.26225
-0.058729   -0.063333   -0.011372   -0.039655    -0.22316    -0.76744      0.2264
-0.059716  -0.0074258    0.041575    0.012306    -0.72304    -0.81611     0.16391
-0.068924    0.024803     0.07512    0.061965     -1.1315    -0.92234     0.09551
-0.084381    0.034998    0.085644    0.099127      -1.392     -1.0194    0.045522
-0.10148    0.034669    0.079724      0.1159     -1.4969     -1.0095    0.034998
-0.11266    0.049139      0.0692     0.10932     -1.4781     -0.8365    0.069858
-0.11266    0.095839    0.063281    0.082684     -1.3834    -0.52276     0.13958
-0.090629     0.18628    0.071831    0.052428     -1.2575     -0.1393      0.2241
-0.04097     0.31618     0.10274    0.039931      -1.116     0.23659     0.30007
0.030723     0.46417     0.15306    0.055388    -0.94832     0.51284     0.34742
0.10505     0.59144     0.21292    0.094852    -0.75001     0.60098     0.35531
0.1626     0.66577     0.26784     0.13169    -0.54841      0.4862     0.32769
0.1922     0.67629     0.30401     0.14024    -0.39253     0.23298     0.28428
0.19253     0.63551     0.31651     0.11261    -0.31294   -0.054783     0.25041
0.17477     0.56842     0.30993    0.073147    -0.28828    -0.27151     0.24021
0.15339     0.50002     0.29382     0.05769     -0.2475    -0.35504     0.25369
0.13497     0.44871     0.27704    0.092879    -0.13174    -0.31722     0.27902
0.12346     0.41879     0.26126     0.17904    0.060979    -0.21626     0.30105
0.11656     0.40629     0.24514     0.29612     0.27178    -0.12582     0.31289
0.1113     0.40234     0.21686      0.4201     0.42602    -0.10017     0.31421
0.10274     0.39346     0.16391     0.52238     0.47436    -0.16956     0.30862
0.08663     0.36452    0.078409     0.56283     0.40464    -0.34813     0.29743
0.064925     0.30302   -0.041628     0.51153      0.2606    -0.63655      0.2754
0.041575     0.20864    -0.19554     0.36847     0.15207     -1.0233     0.24416
0.023159    0.097812    -0.36885     0.16293     0.20436     -1.4732     0.20404
0.014608   -0.015648    -0.53789   -0.063333      0.4793     -1.9234     0.15372
0.012306    -0.11694    -0.67733    -0.27118     0.91603     -2.3105    0.093536
0.0083598    -0.20277    -0.77862    -0.43791      1.3462     -2.5917    0.026119
-0.0051238    -0.28071    -0.84867    -0.56124      1.5919      -2.762   -0.048205
-0.036366    -0.37181    -0.90162    -0.65924      1.5452     -2.8294    -0.12582
-0.086683    -0.48691     -0.9516    -0.75461      1.1998     -2.7735    -0.19948
-0.15509    -0.61747    -0.99732    -0.85294     0.64143     -2.5775    -0.25934
-0.23402    -0.73883     -1.0302    -0.93779    0.021843     -2.2506    -0.29979
-0.30768    -0.82302     -1.0374    -0.98712    -0.49152      -1.833    -0.32544
-0.35635    -0.85327     -1.0118     -0.9914    -0.80033      -1.388    -0.34353
-0.36951    -0.82104      -0.947    -0.95687    -0.91477     -1.0069    -0.35899
-0.3478    -0.72962     -0.8388    -0.89668    -0.91247     -0.7727    -0.37378
-0.30341    -0.60498    -0.68687    -0.83091    -0.88221     -0.6964    -0.39417
-0.25177    -0.48395    -0.50599    -0.77467     -0.8855    -0.72041    -0.42739
-0.20376    -0.39549    -0.31919    -0.73389    -0.93911    -0.76218    -0.47343
-0.15772    -0.33399     -0.1393     -0.6918     -1.0217    -0.74738    -0.52868
-0.10806    -0.26756     0.04881    -0.62274     -1.0713     -0.6155    -0.57867
-0.050836     -0.1643      0.2629    -0.50402     -1.0072    -0.33564    -0.60827
0.0093464   -0.026171     0.50067    -0.33366    -0.79605     0.11393    -0.60268
0.0692     0.12478     0.74009    -0.11661     -0.4902     0.74009    -0.56354
0.12511     0.26882     0.95451     0.14879    -0.19324      1.5258    -0.49283
0.17838     0.40333      1.1347     0.46976    0.018226      2.3798    -0.39154
0.22673      0.5408      1.2926     0.84664     0.12511      3.1316    -0.27019
0.26849     0.68977      1.4419      1.2617     0.15569      3.6081    -0.15213
0.29579     0.84335      1.5787      1.6724     0.14254      3.7242   -0.054783
0.29875     0.97852      1.6839      2.0296     0.11426      3.5022   0.0093464
0.27244       1.068      1.7379      2.2986    0.095181      3.0487    0.037629
0.21982      1.0966      1.7306       2.464    0.097483      2.5216    0.036314
0.15109      1.0752      1.6678      2.5183     0.11623      2.0552    0.012635
0.088603      1.0265      1.5675      2.4624     0.13892      1.7313   -0.018936
0.053415     0.97227      1.4527      2.3131     0.14352       1.555   -0.043272
0.055717     0.92557      1.3485      2.1069    0.090577      1.4261   -0.059716
0.084657     0.88676      1.2669      1.8717   -0.047548      1.2021   -0.068266
0.12116     0.84039      1.1916      1.6024    -0.26197      0.8177   -0.070568
0.14583     0.76771        1.09      1.2857    -0.51257      0.3119   -0.073528
