,channel_1,channel_2,channel_3,channel_4,channel_5,channel_6,channel_7,channel_8
0,0.23265,-0.14588,0.047495,0.1922,0.13596,-0.59347,-0.0047949,0.071173
1,0.26126,-0.1005,0.079724,0.28559,0.34315,-0.59478,0.012306,0.070845
2,0.29184,-0.010715,0.12313,0.38393,0.51514,-0.48231,0.045522,0.06361
3,0.31289,0.091563,0.1672,0.45957,0.72628,-0.27907,0.088275,0.051113
4,0.31092,0.17674,0.20075,0.48818,1.015,-0.051823,0.12379,0.034011
5,0.28757,0.2412,0.21818,0.46516,1.3209,0.1136,0.13925,0.015595
6,0.25764,0.31454,0.22311,0.4053,1.4981,0.15964,0.1353,-0.00051963
7,0.24153,0.42701,0.22574,0.33262,1.4333,0.089919,0.1307,-0.013017
8,0.25304,0.56776,0.23331,0.27737,1.1387,-0.036037,0.14056,-0.024856
9,0.27737,0.68846,0.23824,0.256,0.74535,-0.12779,0.16622,-0.03242
10,0.28625,0.73417,0.23232,0.25994,0.42503,-0.11233,0.19417,-0.035051
11,0.26093,0.67267,0.20897,0.2708,0.30829,0.026447,0.20568,-0.035051
12,0.20371,0.51021,0.17115,0.27014,0.4155,0.24416,0.19549,-0.036366
13,0.1307,0.28691,0.1284,0.25205,0.64011,0.46845,0.17181,-0.040641
14,0.071173,0.059663,0.087617,0.21818,0.83579,0.63255,0.15109,-0.043272
15,0.052099,-0.11332,0.054401,0.17575,0.90123,0.71049,0.14648,-0.04393
16,0.079724,-0.19817,0.031381,0.13136,0.81244,0.7197,0.15701,-0.045246
17,0.13399,-0.19521,0.022501,0.092221,0.6115,0.6924,0.17049,-0.044588
18,0.18266,-0.13371,0.024474,0.061636,0.37406,0.64899,0.17641,-0.04097
19,0.20601,-0.053796,0.031381,0.038944,0.15767,0.58092,0.17246,-0.036037
20,0.19417,0.011648,0.035327,0.015924,-0.014003,0.47075,0.15865,-0.029789
21,0.1524,0.050126,0.032038,-0.0084125,-0.1541,0.3175,0.13892,-0.019594
22,0.10077,0.061307,0.019541,-0.032091,-0.28499,0.15142,0.11853,-0.0034794
23,0.057032,0.048153,0.0014536,-0.054125,-0.41489,0.010333,0.098798,0.018226
24,0.02875,0.012635,-0.019923,-0.068924,-0.52671,-0.081421,0.08367,0.043549
25,0.015924,-0.039326,-0.041628,-0.071884,-0.58853,-0.11069,0.074462,0.06361
26,0.0080309,-0.1005,-0.055769,-0.059058,-0.57341,-0.079119,0.070187,0.072818
27,-0.0047949,-0.15443,-0.0584,-0.033735,-0.4879,0.0037556,0.067556,0.075449
28,-0.025185,-0.18666,-0.044917,-0.00051963,-0.37017,0.11787,0.063938,0.074791
29,-0.047219,-0.18929,-0.021896,0.027105,-0.26953,0.23824,0.058676,0.075449
30,-0.065964,-0.16923,0.0024402,0.041904,-0.21363,0.33558,0.049139,0.075449
31,-0.080106,-0.13897,0.021843,0.040589,-0.20475,0.38458,0.034998,0.07512
32,-0.097864,-0.10313,0.037629,0.020528,-0.22645,0.37998,0.01691,0.071173
33,-0.11858,-0.067609,0.047824,-0.016634,-0.26263,0.33361,-0.0018351,0.066569
34,-0.1393,-0.038668,0.049468,-0.063333,-0.29321,0.2754,-0.025185,0.065583
35,-0.16298,-0.022883,0.041904,-0.10806,-0.30209,0.24218,-0.053138,0.070187
36,-0.19784,-0.022883,0.025132,-0.13766,-0.28367,0.24909,-0.080434,0.080053
37,-0.23829,-0.034393,0.0011247,-0.1495,-0.25079,0.28461,-0.095562,0.092221
38,-0.26888,-0.056098,-0.024527,-0.1495,-0.22448,0.31684,-0.098193,0.10735
39,-0.27512,-0.087998,-0.048534,-0.14621,-0.21395,0.31552,-0.0903,0.11853
40,-0.25013,-0.1245,-0.06432,-0.14193,-0.22218,0.26586,-0.071555,0.12905
41,-0.20047,-0.15607,-0.07024,-0.13667,-0.23961,0.17575,-0.044588,0.13958
42,-0.13963,-0.1712,-0.063004,-0.12944,-0.2521,0.055059,-0.018936,0.1501
43,-0.08175,-0.16561,-0.045246,-0.11957,-0.25079,-0.083723,-0.0038083,0.15767
44,-0.032091,-0.14292,-0.022883,-0.10839,-0.24125,-0.22514,-0.0041372,0.15799
45,0.0060577,-0.10674,-0.0015062,-0.10082,-0.23138,-0.35241,-0.014661,0.15109
46,0.032696,-0.060045,0.0083598,-0.093918,-0.22185,-0.45205,-0.024856,0.14188
47,0.04881,-0.015648,-0.00019077,-0.087669,-0.21198,-0.52342,-0.028473,0.13201
48,0.058676,0.010004,-0.024856,-0.084381,-0.20935,-0.58327,-0.026829,0.12478
49,0.064267,0.0040845,-0.053796,-0.086025,-0.22218,-0.65628,-0.024856,0.12182
50,0.068214,-0.027158,-0.07024,-0.088327,-0.2452,-0.74869,-0.025185,0.12478
51,0.070516,-0.061689,-0.060702,-0.078461,-0.27085,-0.84768,-0.020252,0.13201
52,0.068543,-0.074844,-0.026829,-0.047877,-0.29124,-0.93681,-0.0008485,0.13234
53,0.057032,-0.063004,0.024803,-0.00019077,-0.3067,-1.0022,0.029078,0.12412
54,0.036971,-0.036366,0.084657,0.052757,-0.31952,-1.0384,0.058676,0.11031
55,0.01691,-0.015319,0.14254,0.097812,-0.32741,-1.0397,0.083013,0.093865
56,0.0070443,-0.010057,0.18924,0.12708,-0.33004,-0.99962,0.094523,0.076435
57,0.0080309,-0.014332,0.21324,0.13596,-0.33892,-0.92727,0.086959,0.057361
58,0.014937,-0.017621,0.20305,0.1205,-0.36688,-0.84275,0.056374,0.032367
59,0.026119,-0.0084125,0.15832,0.082684,-0.4241,-0.76514,0.0083598,0.0044134
60,0.038287,0.016581,0.094852,0.034669,-0.50138,-0.69706,-0.046561,-0.022225
61,0.049797,0.048153,0.034011,-0.0028217,-0.5836,-0.62964,-0.092603,-0.044588
62,0.058348,0.071502,-0.0097279,-0.015648,-0.6576,-0.55565,-0.11233,-0.063004
63,0.06065,0.081368,-0.031762,-0.0057815,-0.7112,-0.46718,-0.10674,-0.081421
64,0.05177,0.077751,-0.038339,0.013293,-0.73751,-0.36063,-0.087012,-0.10115
65,0.026119,0.068214,-0.034064,0.034011,-0.72995,-0.22974,-0.065635,-0.12286
66,-0.004466,0.067227,-0.023211,0.055388,-0.70101,-0.074186,-0.045903,-0.14193
67,-0.027158,0.085315,-0.0097279,0.079066,-0.66845,0.087946,-0.030118,-0.15739
68,-0.039326,0.11853,0.00046697,0.10077,-0.65168,0.23396,-0.02354,-0.16989
69,-0.042944,0.15306,0.0044134,0.10932,-0.65628,0.34216,-0.031433,-0.18469
70,-0.043601,0.1751,0.0083598,0.099127,-0.6645,0.40793,-0.054783,-0.20014
71,-0.045903,0.17542,0.020199,0.081697,-0.6474,0.44181,-0.079119,-0.21034
72,-0.047219,0.14944,0.040589,0.066898,-0.56255,0.46318,-0.091287,-0.21363
73,-0.04689,0.10274,0.062294,0.063281,-0.39615,0.4862,-0.086025,-0.21198
74,-0.046561,0.045522,0.077093,0.064267,-0.16693,0.51153,-0.069582,-0.21198
75,-0.051165,-0.01499,0.079724,0.066569,0.093536,0.53685,-0.046232,-0.21724
76,-0.058729,-0.073857,0.067556,0.061965,0.34907,0.57072,-0.022225,-0.22382
77,-0.063333,-0.12615,0.045851,0.055717,0.57401,0.62597,-0.0024928,-0.23073
78,-0.061689,-0.15936,0.020857,0.058348,0.76475,0.70622,0.011648,-0.23763
79,-0.051165,-0.15509,0.0001381,0.078737,0.92656,0.796,0.020528,-0.24585
80,-0.030775,-0.10313,-0.011701,0.1136,1.0545,0.88446,0.026119,-0.25243
81,0.00079584,-0.0074258,-0.015319,0.15471,1.1275,0.96273,0.029078,-0.25704
82,0.039602,0.1034,-0.0057815,0.19483,1.139,1.0311,0.031709,-0.25572
83,0.083013,0.19713,0.012635,0.22179,1.1249,1.1012,0.034011,-0.25079
84,0.12873,0.25074,0.033683,0.22147,1.142,1.187,0.036642,-0.24585
85,0.17246,0.26192,0.046508,0.18529,1.2048,1.2771,0.041904,-0.24585
86,0.20634,0.24218,0.044206,0.11623,1.2722,1.3265,0.045522,-0.25177
87,0.22673,0.2116,0.027763,0.034998,1.2995,1.2949,0.042891,-0.25671
88,0.23265,0.18759,0.0063866,-0.026829,1.2775,1.1775,0.035985,-0.26032
89,0.2287,0.17082,-0.013017,-0.053467,1.2252,0.9943,0.026776,-0.26296
90,0.2162,0.15668,-0.028802,-0.047877,1.1561,0.77692,0.014937,-0.26657
91,0.19154,0.13793,-0.038997,-0.027816,1.0647,0.5477,-0.0028217,-0.26624
92,0.15701,0.11721,-0.037682,-0.0067681,0.94728,0.31914,-0.024527,-0.26
93,0.11853,0.10538,-0.02354,0.0073732,0.80685,0.095839,-0.048205,-0.24849
94,0.085644,0.10472,-0.0031506,0.012635,0.6605,-0.11628,-0.070897,-0.235
95,0.062294,0.11162,0.012964,0.01132,0.53225,-0.30538,-0.084381,-0.22086
96,0.052099,0.12281,0.018555,0.0030979,0.43391,-0.4514,-0.080106,-0.2054
97,0.05473,0.13596,0.012306,-0.0080836,0.36156,-0.53131,-0.058729,-0.18863
98,0.065583,0.15109,-0.00051963,-0.020252,0.30237,-0.53789,-0.029789,-0.16989
99,0.077093,0.16654,-0.014661,-0.028802,0.23626,-0.48593,-0.0067681,-0.15114
100,0.085315,0.18102,-0.022883,-0.034722,0.15076,-0.407,0.0030979,-0.13371
101,0.08959,0.19516,-0.019923,-0.03538,0.046508,-0.32445,0.0030979,-0.11825
102,0.091563,0.20798,-0.0024928,-0.024198,-0.054125,-0.24026,0.0037556,-0.10905
103,0.098141,0.21456,0.027434,0.0040845,-0.12549,-0.15147,0.014608,-0.1051
104,0.1136,0.21094,0.062294,0.04881,-0.1495,-0.057743,0.034011,-0.10181
105,0.13596,0.19779,0.092221,0.10406,-0.12483,0.027763,0.056703,-0.093589
106,0.15471,0.17082,0.10768,0.15997,-0.069582,0.088932,0.070187,-0.082079
107,0.15536,0.12675,0.10209,0.19713,-0.0084125,0.11458,0.064267,-0.071226
108,0.12938,0.0692,0.07808,0.20108,0.04026,0.10538,0.039273,-0.059716
109,0.080382,0.0090175,0.044535,0.17246,0.073147,0.071502,0.0050711,-0.049521
110,0.024145,-0.039984,0.010991,0.12379,0.097483,0.032367,-0.025514,-0.041628
111,-0.022554,-0.065635,-0.018278,0.071502,0.12215,0.017568,-0.041628,-0.03538
112,-0.04985,-0.065307,-0.037682,0.034669,0.133,0.038287,-0.040313,-0.029789
113,-0.054454,-0.041628,-0.04689,0.020199,0.096496,0.077093,-0.028802,-0.022883
114,-0.04097,-0.013345,-0.047548,0.020199,-0.0054526,0.10143,-0.020909,-0.018607
115,-0.026829,0.0047422,-0.04689,0.017897,-0.16331,0.085315,-0.025842,-0.014661
116,-0.022225,0.0073732,-0.048205,0.00046697,-0.35241,0.020528,-0.048863,-0.0067681
117,-0.031433,0.0001381,-0.047877,-0.037682,-0.53888,-0.080106,-0.085367,0.0060577
118,-0.048863,-0.0057815,-0.04689,-0.089643,-0.67897,-0.19455,-0.1245,0.024474
119,-0.06432,-0.0054526,-0.048863,-0.14752,-0.74409,-0.28762,-0.15542,0.044535
120,-0.078132,-0.00019077,-0.058729,-0.20146,-0.73981,-0.32708,-0.1712,0.060979
121,-0.089314,0.0054,-0.074844,-0.24388,-0.69673,-0.29157,-0.1712,0.07216
122,-0.098193,0.0054,-0.089643,-0.25868,-0.64839,-0.18797,-0.15377,0.081368
123,-0.10346,0.00079584,-0.098522,-0.2452,-0.59906,-0.046561,-0.12582,0.090577
124,-0.10313,-0.0064392,-0.09918,-0.21067,-0.49711,0.094194,-0.097864,0.099127
125,-0.095562,-0.011372,-0.093589,-0.16989,-0.26296,0.21028,-0.079119,0.10702
126,-0.082079,-0.012688,-0.082736,-0.13601,0.14221,0.29974,-0.066951,0.11261
127,-0.061689,-0.014003,-0.067609,-0.11266,0.66083,0.37768,-0.053138,0.11426
128,-0.027816,-0.016963,-0.049192,-0.093918,1.1643,0.45957,-0.02946,0.11327
129,0.017568,-0.019594,-0.031762,-0.071884,1.5307,0.55165,0.0067154,0.11195
130,0.066569,-0.019265,-0.016963,-0.043601,1.6724,0.62696,0.04881,0.11294
131,0.10406,-0.019594,-0.0051238,-0.011043,1.5399,0.6457,0.087288,0.11656
132,0.12774,-0.019265,0.0040845,0.022501,1.1476,0.58519,0.11097,0.11886
133,0.13859,-0.023211,0.013951,0.05177,0.61019,0.47173,0.11524,0.12215
134,0.14155,-0.025842,0.028092,0.078409,0.10406,0.35762,0.10505,0.12544
135,0.14221,-0.022225,0.049797,0.11162,-0.22546,0.27376,0.097483,0.13103
136,0.14879,-0.0090702,0.080711,0.16589,-0.34024,0.19976,0.11064,0.14089
137,0.17214,0.023817,0.12281,0.24547,-0.31031,0.087617,0.15536,0.14912
138,0.21555,0.081368,0.17246,0.34742,-0.24224,-0.096878,0.23166,0.14879
139,0.27935,0.15734,0.22377,0.46417,-0.22711,-0.3557,0.32802,0.13958
140,0.35499,0.23495,0.26915,0.57467,-0.31459,-0.66253,0.42668,0.12873
141,0.41648,0.30007,0.30335,0.65393,-0.52342,-0.97956,0.50429,0.11689
142,0.44674,0.34479,0.3221,0.68681,-0.8467,-1.2821,0.54277,0.10439
143,0.4326,0.36485,0.32276,0.66412,-1.2377,-1.5511,0.53257,0.090248
144,0.38097,0.35926,0.30204,0.5967,-1.6159,-1.7596,0.47634,0.075778
145,0.30993,0.32999,0.26685,0.50199,-1.8981,-1.8711,0.39412,0.065254
146,0.23758,0.28362,0.22541,0.40169,-2.0204,-1.8514,0.31618,0.060979
147,0.17411,0.2241,0.18792,0.31881,-1.9514,-1.6876,0.26257,0.06361
148,0.12577,0.15931,0.1603,0.2606,-1.7215,-1.3966,0.23725,0.067227
149,0.090248,0.09551,0.14221,0.22377,-1.412,-1.024,0.22903,0.069529
150,0.059992,0.039273,0.13497,0.19845,-1.0818,-0.63622,0.2241,0.070516
151,0.034998,-0.011372,0.13464,0.17016,-0.75823,-0.29749,0.21522,0.072489
152,0.013951,-0.049521,0.13859,0.13136,-0.4435,-0.053467,0.20436,0.077422
153,0.00079584,-0.07287,0.13793,0.081039,-0.12713,0.08663,0.18759,0.083013
154,0.0001381,-0.080763,0.12412,0.027763,0.18069,0.1501,0.15931,0.085644
155,0.010333,-0.070568,0.094852,-0.017621,0.4395,0.18595,0.12445,0.084657
156,0.022501,-0.042286,0.053415,-0.047877,0.6069,0.23133,0.092221,0.083342
157,0.024145,-0.0015062,0.0096753,-0.067609,0.68287,0.29776,0.06361,0.083999
158,0.0080309,0.040918,-0.024198,-0.07879,0.70622,0.38491,0.041904,0.084328
159,-0.02354,0.0692,-0.036037,-0.07879,0.73088,0.49081,0.02875,0.083999
160,-0.058729,0.073476,-0.022883,-0.062676,0.79698,0.61282,0.031052,0.08367
161,-0.086354,0.053086,0.0057288,-0.033406,0.88019,0.73713,0.047166,0.083999
162,-0.097536,0.018884,0.036314,-0.00019077,0.89334,0.84467,0.073804,0.084657
163,-0.09326,-0.016963,0.058019,0.025132,0.75555,0.9213,0.10143,0.086301
164,-0.083065,-0.039984,0.064925,0.031709,0.4691,0.94958,0.1205,0.088275
165,-0.076159,-0.047548,0.055388,0.017568,0.12182,0.9065,0.1205,0.086959
166,-0.076817,-0.044588,0.038616,-0.0097279,-0.17416,0.78251,0.10669,0.080711
167,-0.079777,-0.03538,0.021514,-0.035051,-0.35208,0.59374,0.087288,0.074791
168,-0.083723,-0.026829,0.010991,-0.04689,-0.43068,0.37176,0.074133,0.077093
169,-0.086683,-0.02354,0.011648,-0.044259,-0.47014,0.14451,0.067227,0.086959
170,-0.091287,-0.025842,0.021514,-0.030447,-0.50862,-0.062676,0.065254,0.099456
171,-0.094905,-0.032091,0.035327,-0.011043,-0.53394,-0.22941,0.063281,0.11228
172,-0.10082,-0.039326,0.042891,0.01132,-0.505,-0.34747,0.055388,0.12544
173,-0.11398,-0.047877,0.0373,0.033354,-0.39582,-0.42048,0.031709,0.13695
174,-0.13634,-0.057743,0.014608,0.043877,-0.22481,-0.45863,-0.01203,0.14846
175,-0.16627,-0.071884,-0.022883,0.03434,-0.036037,-0.47935,-0.073199,0.16095
176,-0.20014,-0.090958,-0.065307,0.0044134,0.14648,-0.48494,-0.13503,0.17181
177,-0.22612,-0.11431,-0.093589,-0.035708,0.32144,-0.46291,-0.17844,0.182
178,-0.23171,-0.14292,-0.097536,-0.075501,0.47765,-0.40503,-0.18403,0.18792
179,-0.21494,-0.17778,-0.082079,-0.10609,0.5898,-0.32018,-0.15213,0.19285
180,-0.17745,-0.21264,-0.059716,-0.12516,0.63683,-0.2373,-0.098193,0.19746
181,-0.13174,-0.24224,-0.04689,-0.13667,0.61545,-0.18304,-0.043601,0.20371
182,-0.091287,-0.26789,-0.048534,-0.14851,0.53915,-0.16693,-0.0087413,0.21028
183,-0.065964,-0.28762,-0.061689,-0.16627,0.42701,-0.18271,0.0001381,0.21851
184,-0.06432,-0.29716,-0.077803,-0.19455,0.28592,-0.20803,-0.011043,0.22377
185,-0.08471,-0.28795,-0.095562,-0.22678,0.1284,-0.21889,-0.028144,0.22212
186,-0.11858,-0.25605,-0.10872,-0.25506,-0.026829,-0.19455,-0.042615,0.21522
187,-0.14983,-0.19916,-0.11398,-0.27611,-0.14818,-0.13108,-0.055112,0.20535
188,-0.16693,-0.1222,-0.11036,-0.29157,-0.20409,-0.043272,-0.068924,0.19483
189,-0.16627,-0.032091,-0.10543,-0.30604,-0.18403,0.042891,-0.082079,0.18825
190,-0.15246,0.054401,-0.10543,-0.32018,-0.093589,0.11064,-0.091945,0.18661
191,-0.1347,0.11393,-0.11069,-0.32643,0.048482,0.14944,-0.096878,0.19022
192,-0.12911,0.12281,-0.11957,-0.3238,0.20042,0.15701,-0.10082,0.19713
193,-0.15081,0.069529,-0.12713,-0.32182,0.32078,0.13728,-0.11036,0.20305
194,-0.19324,-0.029789,-0.12845,-0.32511,0.38721,0.08959,-0.1222,0.207
195,-0.23632,-0.14193,-0.12187,-0.32478,0.403,0.021186,-0.13536,0.20601
196,-0.25638,-0.2281,-0.10839,-0.30834,0.39905,-0.048534,-0.14456,0.20305
197,-0.24355,-0.25704,-0.088985,-0.27019,0.40793,-0.1005,-0.14719,0.20206
198,-0.19751,-0.21659,-0.070897,-0.21527,0.44444,-0.12056,-0.14423,0.20732
199,-0.12944,-0.12713,-0.053467,-0.15607,0.49475,-0.10346,-0.13536,0.21719
200,-0.061689,-0.027487,-0.040313,-0.098193,0.5283,-0.054125,-0.12023,0.22245
201,-0.013017,0.045193,-0.035051,-0.041957,0.52106,0.023159,-0.098193,0.21588
202,0.010004,0.07512,-0.034064,0.0093464,0.47338,0.11261,-0.066293,0.20173
203,0.018555,0.067556,-0.031104,0.056703,0.40892,0.18891,-0.025842,0.18529
204,0.027105,0.032038,-0.020909,0.098798,0.33427,0.23429,0.018555,0.16819
205,0.04322,-0.019265,-0.0054526,0.13366,0.23857,0.24383,0.062294,0.15142
206,0.06624,-0.067937,0.013951,0.15701,0.12182,0.23429,0.10143,0.13629
207,0.093208,-0.098522,0.040918,0.17838,0.010662,0.22673,0.13432,0.1205
208,0.12017,-0.10411,0.07216,0.1991,-0.050179,0.23725,0.16293,0.10176
209,0.14352,-0.079119,0.10242,0.21686,-0.019923,0.2708,0.18759,0.079395
210,0.16326,-0.028473,0.12281,0.2287,0.10965,0.33098,0.20568,0.057361
211,0.17345,0.034011,0.12741,0.23232,0.305,0.41846,0.21588,0.039273
212,0.17115,0.095839,0.11952,0.22903,0.49969,0.52337,0.21719,0.02283
213,0.15668,0.15043,0.10406,0.21423,0.62795,0.62236,0.21522,0.0077021
214,0.13333,0.20206,0.09551,0.19285,0.64176,0.69339,0.21489,-0.0077547
215,0.11097,0.25238,0.10274,0.17115,0.53553,0.72628,0.21982,-0.018936
216,0.09551,0.29678,0.12116,0.15471,0.34742,0.72069,0.22969,-0.022883
217,0.084328,0.32341,0.13958,0.14484,0.13004,0.67892,0.23791,-0.022883
218,0.076764,0.3198,0.14451,0.14122,-0.070897,0.60197,0.23594,-0.025842
219,0.080053,0.27639,0.1284,0.13892,-0.2156,0.49804,0.22048,-0.036037
220,0.098141,0.19187,0.091234,0.13267,-0.28532,0.36913,0.19614,-0.051165
221,0.12609,0.074462,0.040589,0.11985,-0.29584,0.22541,0.16654,-0.066622
222,0.15273,-0.04393,-0.0061104,0.10866,-0.28729,0.086959,0.14254,-0.080106
223,0.16786,-0.12286,-0.030775,0.10735,-0.30374,-0.028473,0.13169,-0.093918
224,0.16983,-0.13601,-0.02354,0.11623,-0.36293,-0.11595,0.1353,-0.10872
225,0.16622,-0.078461,0.0063866,0.13136,-0.44877,-0.17581,0.1501,-0.12056
226,0.17115,0.030394,0.045522,0.14155,-0.51816,-0.21659,0.16523,-0.13207
227,0.18759,0.1501,0.077422,0.13366,-0.53098,-0.24191,0.16654,-0.13963
228,0.20239,0.23988,0.090248,0.094852,-0.47639,-0.24849,0.14714,-0.14621
229,0.19976,0.2731,0.081697,0.027105,-0.37444,-0.23402,0.10801,-0.15575
230,0.18003,0.24482,0.059663,-0.057085,-0.26394,-0.20343,0.056374,-0.16265
231,0.1524,0.16326,0.034669,-0.13042,-0.18732,-0.16923,0.0017824,-0.16068
232,0.12281,0.047824,0.013293,-0.16232,-0.17745,-0.14193,-0.041299,-0.15279
233,0.094852,-0.073528,-0.0024928,-0.14029,-0.2373,-0.12976,-0.068266,-0.14193
234,0.069858,-0.17449,-0.013017,-0.07287,-0.34846,-0.13799,-0.080763,-0.13338
235,0.050455,-0.23533,-0.019923,0.0080309,-0.47738,-0.16331,-0.087998,-0.13009
236,0.043549,-0.22744,-0.022554,0.071831,-0.5859,-0.19652,-0.097207,-0.12648
237,0.055388,-0.13174,-0.016634,0.10307,-0.64082,-0.22744,-0.11036,-0.12549
238,0.083999,0.032367,-0.0015062,0.10011,-0.628,-0.24553,-0.12352,-0.12878
239,0.1113,0.20568,0.013622,0.068543,-0.55104,-0.24585,-0.13568,-0.13799
240,0.11491,0.32111,0.020528,0.021843,-0.43824,-0.22546,-0.14522,-0.14818
241,0.083342,0.34117,0.014937,-0.026829,-0.32643,-0.19389,-0.15246,-0.15739
242,0.015266,0.26817,0.00046697,-0.059716,-0.25802,-0.16298,-0.15279,-0.16134
243,-0.078132,0.13991,-0.018607,-0.071555,-0.28071,-0.14555,-0.14884,-0.16364
244,-0.1837,0.0044134,-0.037682,-0.068924,-0.41193,-0.15279,-0.14423,-0.16594
245,-0.28828,-0.10082,-0.050179,-0.062676,-0.61715,-0.19422,-0.14259,-0.1666
246,-0.37609,-0.15739,-0.049192,-0.06432,-0.83157,-0.25835,-0.14654,-0.16134
247,-0.42969,-0.16232,-0.034064,-0.071884,-0.98022,-0.31557,-0.14785,-0.14752
248,-0.43134,-0.12549,-0.0084125,-0.077803,-1.0095,-0.33465,-0.14358,-0.12911
249,-0.37609,-0.068266,0.018555,-0.073528,-0.89635,-0.28828,-0.13108,-0.11233
250,-0.27874,-0.0031506,0.03434,-0.057743,-0.65891,-0.15772,-0.1074,-0.10115
251,-0.15706,0.062623,0.034998,-0.033735,-0.34682,0.060321,-0.075501,-0.098193
252,-0.032749,0.12544,0.024803,-0.0061104,-0.010386,0.33887,-0.040313,-0.10411
253,0.074791,0.16654,0.012964,0.024474,0.3119,0.6092,-0.0024928,-0.11299
254,0.1501,0.1649,0.0063866,0.057032,0.59276,0.79172,0.030723,-0.12154
255,0.19746,0.12017,0.010333,0.083013,0.80323,0.84138,0.049139,-0.12713
256,0.2287,0.052757,0.026447,0.090905,0.92886,0.7687,0.051113,-0.12812
257,0.25337,-0.0064392,0.045193,0.081039,0.99365,0.62499,0.041575,-0.12615
258,0.27343,-0.02946,0.05769,0.065254,1.0515,0.47436,0.030065,-0.1199
259,0.28494,-0.010386,0.06065,0.058676,1.167,0.36913,0.027763,-0.10674
260,0.28592,0.039602,0.056374,0.070187,1.3883,0.34183,0.039931,-0.0903
261,0.27935,0.097154,0.052757,0.10176,1.7211,0.39182,0.065583,-0.074186
262,0.26817,0.14122,0.05177,0.14977,2.1019,0.49114,0.097154,-0.063004
263,0.25402,0.15898,0.053086,0.20075,2.3946,0.58651,0.12971,-0.054454
264,0.23594,0.15142,0.060321,0.24712,2.4657,0.62696,0.15734,-0.045574
265,0.21193,0.12905,0.07512,0.28395,2.2479,0.58158,0.17444,-0.035708
266,0.17904,0.097483,0.098469,0.305,1.7678,0.45463,0.17641,-0.027816
267,0.13991,0.062623,0.11985,0.3073,1.142,0.27672,0.15997,-0.022554
268,0.10801,0.029736,0.12873,0.29086,0.52205,0.084986,0.13234,-0.020581
269,0.093536,0.0050711,0.12346,0.25567,0.054401,-0.0903,0.10406,-0.021238
270,0.094852,-0.013017,0.10011,0.20634,-0.16495,-0.22974,0.079395,-0.022554
271,0.10143,-0.028802,0.064267,0.15043,-0.14423,-0.30998,0.05769,-0.023211
272,0.097812,-0.040641,0.024803,0.097483,0.0096753,-0.32708,0.032696,-0.019923
273,0.077751,-0.047219,-0.0057815,0.054072,0.14714,-0.29387,0.0037556,-0.011372
274,0.04322,-0.038668,-0.014661,0.029407,0.1626,-0.22645,-0.027487,0.0001381
275,0.0050711,-0.013017,-0.0051238,0.028092,0.037629,-0.14062,-0.053138,0.010991
276,-0.019594,0.029078,0.018555,0.046508,-0.18238,-0.059058,-0.065964,0.023159
277,-0.024198,0.083013,0.046508,0.074462,-0.42344,-0.0074258,-0.063991,0.035985
278,-0.0093991,0.13629,0.068871,0.10472,-0.60629,-0.00051963,-0.05281,0.04618
279,0.017568,0.17674,0.082026,0.13432,-0.68062,-0.031104,-0.031762,0.048153
280,0.05177,0.19812,0.086301,0.16063,-0.63589,-0.082079,0.0011247,0.041247
281,0.092221,0.20173,0.089919,0.17937,-0.50698,-0.13897,0.042233,0.030065
282,0.13596,0.19614,0.099127,0.19022,-0.35997,-0.21099,0.090248,0.019541
283,0.17477,0.18792,0.11393,0.19943,-0.27348,-0.3307,0.13596,0.013293
284,0.20272,0.18397,0.12873,0.20667,-0.30341,-0.52802,0.16457,0.0096753
285,0.21653,0.1843,0.13399,0.21127,-0.46455,-0.79737,0.1649,0.0080309
286,0.21818,0.18134,0.12511,0.21061,-0.71054,-1.0989,0.13958,0.0077021
287,0.21127,0.16589,0.10472,0.20338,-0.95983,-1.3653,0.10768,0.0037556
288,0.20239,0.133,0.084986,0.18924,-1.1384,-1.5291,0.088932,-0.0041372
289,0.19022,0.089919,0.070845,0.17115,-1.2124,-1.5544,0.09255,-0.010386
290,0.17707,0.051113,0.063281,0.15142,-1.1979,-1.4535,0.1113,-0.01203
291,0.16654,0.028421,0.060979,0.13596,-1.1364,-1.2755,0.13234,-0.0074258
292,0.15997,0.029078,0.062952,0.12905,-1.0637,-1.0838,0.14681,-0.0015062
293,0.15503,0.05473,0.071831,0.13004,-0.98646,-0.91609,0.15306,0.0017824
294,0.14385,0.094523,0.08367,0.13399,-0.89307,-0.77237,0.15043,0.002769
295,0.12116,0.12905,0.087946,0.13234,-0.77138,-0.628,0.14188,0.0014536
296,0.084328,0.13629,0.078737,0.11524,-0.62635,-0.46883,0.13169,-0.0028217
297,0.036642,0.11557,0.056703,0.079724,-0.47738,-0.30374,0.11491,-0.0038083
298,-0.0061104,0.080382,0.031709,0.030394,-0.34024,-0.15607,0.094523,-0.0024928
299,-0.030118,0.049468,0.010004,-0.019923,-0.22185,-0.04393,0.074462,0.00079584
300,-0.027816,0.038616,-0.0031506,-0.057743,-0.11793,0.028092,0.062952,0.0011247
301,-0.0061104,0.051441,-0.0084125,-0.075173,-0.028144,0.057032,0.059663,-0.0031506
302,0.019212,0.079395,-0.010057,-0.073857,0.031709,0.056703,0.060979,-0.016634
303,0.030723,0.10965,-0.011372,-0.064978,0.047495,0.044206,0.058676,-0.031762
304,0.025132,0.12807,-0.014661,-0.056098,0.023159,0.035656,0.044864,-0.044588
305,0.0050711,0.12313,-0.018607,-0.048205,-0.0077547,0.052757,0.020199,-0.049192
306,-0.021896,0.096496,-0.020581,-0.041957,-0.010715,0.1307,-0.0054526,-0.044259
307,-0.050836,0.062952,-0.021567,-0.040641,0.032696,0.3175,-0.024527,-0.034064
308,-0.077146,0.049139,-0.021896,-0.045246,0.12445,0.63354,-0.029131,-0.025185
309,-0.099838,0.069858,-0.020909,-0.04985,0.23528,1.0377,-0.018607,-0.018607
310,-0.11431,0.11195,-0.016963,-0.057085,0.33262,1.4304,-0.002164,-0.015976
311,-0.12253,0.14024,-0.016634,-0.068924,0.38327,1.6951,0.0096753,-0.018936
312,-0.13042,0.13037,-0.020252,-0.082408,0.37866,1.7652,0.0096753,-0.024856
313,-0.13338,0.07808,-0.024198,-0.094576,0.33821,1.6606,0.0001381,-0.0265
314,-0.13207,0.0047422,-0.025842,-0.10378,0.29382,1.4606,-0.013017,-0.025514
315,-0.12516,-0.0584,-0.024856,-0.11299,0.27145,1.2541,-0.028473,-0.024527
316,-0.11233,-0.086025,-0.022225,-0.12253,0.28428,1.09,-0.047548,-0.025185
317,-0.098522,-0.075501,-0.018936,-0.12911,0.32539,0.96799,-0.073528,-0.027487
318,-0.098193,-0.045246,-0.016963,-0.13075,0.37636,0.86341,-0.10937,-0.031433
319,-0.12023,-0.015648,-0.014003,-0.12516,0.42109,0.75686,-0.1495,-0.038011
320,-0.16035,0.0001381,-0.014661,-0.11233,0.4474,0.63979,-0.18436,-0.042615
321,-0.19587,-0.0047949,-0.020581,-0.09918,0.44279,0.51218,-0.2031,-0.040313
322,-0.20968,-0.030775,-0.036366,-0.093589,0.39905,0.38228,-0.20277,-0.031433
323,-0.1962,-0.073528,-0.057743,-0.09622,0.3119,0.25501,-0.18633,-0.020909
324,-0.16495,-0.12286,-0.078132,-0.10773,0.18957,0.12609,-0.16364,-0.0090702
325,-0.12878,-0.16857,-0.086683,-0.12615,0.043877,-0.0084125,-0.14127,0.0024402
326,-0.094905,-0.20146,-0.077475,-0.14588,-0.098522,-0.14193,-0.12746,0.011648
327,-0.068595,-0.21494,-0.053138,-0.15772,-0.20771,-0.25671,-0.12483,0.014608
328,-0.053796,-0.21001,-0.026171,-0.15377,-0.25901,-0.34057,-0.13174,0.012306
329,-0.045574,-0.19422,-0.0054526,-0.12911,-0.24092,-0.38464,-0.13766,0.010991
330,-0.036037,-0.1666,0.0014536,-0.088656,-0.15903,-0.3705,-0.13174,0.013293
331,-0.015319,-0.11233,-0.002164,-0.046561,-0.03242,-0.29058,-0.1097,0.015924
332,0.021514,-0.027487,-0.0084125,-0.013017,0.10505,-0.16693,-0.07583,0.015266
333,0.065583,0.070187,-0.0090702,0.0034268,0.21719,-0.011043,-0.037024,0.015266
334,0.1011,0.14616,-0.0047949,0.0040845,0.27639,0.17773,-0.0038083,0.014279
335,0.11426,0.17279,0.002769,-0.010057,0.27803,0.39379,0.018226,0.017239
336,0.096825,0.14517,0.0086887,-0.038011,0.23199,0.59276,0.020857,0.020857
337,0.051113,0.079724,0.0096753,-0.073199,0.16523,0.70227,-0.0024928,0.020857
338,-0.0090702,0.0044134,0.0070443,-0.10839,0.098798,0.67037,-0.045574,0.01691
339,-0.065307,-0.053467,-0.002164,-0.13305,0.044535,0.5112,-0.098193,0.011977
340,-0.10806,-0.086354,-0.013017,-0.13864,0.0080309,0.28691,-0.14456,0.010991
341,-0.13174,-0.10082,-0.021238,-0.12154,-0.020252,0.066898,-0.16726,0.020199
342,-0.137,-0.10641,-0.022225,-0.077475,-0.042286,-0.098522,-0.15706,0.034011
343,-0.12483,-0.10444,-0.011043,-0.0074258,-0.04985,-0.19916,-0.11595,0.04618
344,-0.10082,-0.087669,0.01132,0.07512,-0.035051,-0.25473,-0.062676,0.050784
345,-0.07287,-0.057085,0.038944,0.14648,0.0024402,-0.28762,-0.016963,0.049139
346,-0.046561,-0.022225,0.059992,0.18628,0.062952,-0.30538,0.0080309,0.044535
347,-0.024198,0.0077021,0.069858,0.19285,0.14747,-0.29782,0.013293,0.042891
348,-0.0080836,0.026119,0.069858,0.16852,0.25731,-0.25506,0.013293,0.044206
349,0.00079584,0.03434,0.064596,0.11754,0.3836,-0.17778,0.024803,0.048482
350,0.010991,0.038616,0.056374,0.053415,0.50955,-0.077146,0.055388,0.055059
351,0.030723,0.046508,0.049797,-0.0024928,0.62893,0.047166,0.10932,0.062623
352,0.0692,0.06361,0.052428,-0.024527,0.73614,0.19581,0.1797,0.07216
353,0.12017,0.088932,0.0692,-0.0015062,0.79633,0.34052,0.25534,0.082026
354,0.17312,0.1136,0.092221,0.060979,0.75456,0.42076,0.32243,0.090577
355,0.21752,0.12971,0.11195,0.14188,0.57072,0.37209,0.35992,0.095839
356,0.24514,0.13432,0.12609,0.21324,0.25633,0.15964,0.35499,0.095181
357,0.25205,0.12971,0.13037,0.25929,-0.12516,-0.18863,0.31059,0.087617
358,0.23692,0.12248,0.12807,0.27408,-0.48165,-0.58261,0.24186,0.076435
359,0.20831,0.11228,0.1205,0.25961,-0.74343,-0.92332,0.1774,0.063281
360,0.17641,0.096167,0.11064,0.22771,-0.87827,-1.14,0.14089,0.050126
361,0.15536,0.080053,0.10209,0.19088,-0.89043,-1.2012,0.14254,0.037958
362,0.1524,0.070845,0.094852,0.16095,-0.81644,-1.1256,0.17082,0.030394
363,0.16457,0.070516,0.092879,0.14517,-0.70528,-0.97364,0.20601,0.026119
364,0.1797,0.079066,0.096167,0.14254,-0.60268,-0.81743,0.23561,0.024145
365,0.18957,0.092221,0.1011,0.14418,-0.52605,-0.71153,0.25633,0.022501
366,0.19285,0.10735,0.10538,0.14418,-0.46159,-0.677,0.27277,0.017897
367,0.19417,0.11689,0.10998,0.14188,-0.37082,-0.70101,0.28527,0.011648
368,0.19088,0.11491,0.11031,0.14024,-0.20738,-0.73324,0.29151,0.0034268
369,0.17838,0.10209,0.10307,0.13497,0.042233,-0.70726,0.28592,-0.0074258
370,0.15273,0.08367,0.086301,0.12675,0.34282,-0.5938,0.26784,-0.020581
371,0.11656,0.071173,0.068543,0.11853,0.60065,-0.41325,0.24021,-0.030447
372,0.081039,0.071502,0.059005,0.11162,0.71181,-0.22448,0.207,-0.035708
373,0.057361,0.081039,0.057361,0.11327,0.63255,-0.088656,0.17411,-0.031762
374,0.05177,0.088603,0.055059,0.13695,0.40136,-0.01499,0.14648,-0.020909
375,0.059992,0.083999,0.047824,0.18332,0.10143,0.034011,0.13432,-0.010715
376,0.081039,0.062294,0.040918,0.24449,-0.1814,0.10242,0.13859,-0.0054526
377,0.11162,0.032367,0.036971,0.30467,-0.37313,0.21127,0.15175,-0.0074258
378,0.14418,0.0083598,0.042562,0.34808,-0.42903,0.35992,0.16786,-0.017621
379,0.1695,0.0011247,0.05473,0.36321,-0.34682,0.53817,0.18134,-0.03538
380,0.182,0.014937,0.066569,0.3438,-0.16561,0.73088,0.18825,-0.053467
381,0.18069,0.04026,0.071173,0.29513,0.050784,0.92491,0.18365,-0.063991
382,0.16457,0.062623,0.069858,0.23002,0.2389,1.1015,0.16885,-0.066951
383,0.13004,0.067556,0.068871,0.16424,0.36123,1.2229,0.14681,-0.066293
384,0.082355,0.048482,0.074133,0.10965,0.40728,1.2482,0.11656,-0.069253
385,0.029407,0.010662,0.084986,0.069858,0.38919,1.1495,0.077751,-0.076817
386,-0.018936,-0.032091,0.09255,0.039602,0.33098,0.94004,0.02579,-0.085696
387,-0.056756,-0.068266,0.087946,0.0054,0.25304,0.66774,-0.03242,-0.091616
388,-0.078132,-0.084381,0.061965,-0.036366,0.17378,0.39478,-0.088656,-0.093589
389,-0.085039,-0.075173,0.020857,-0.082736,0.10176,0.16786,-0.13766,-0.086683
390,-0.080763,-0.044588,-0.021567,-0.12779,0.046837,0.0077021,-0.17449,-0.073199
391,-0.073199,-0.0038083,-0.054454,-0.1643,0.011977,-0.087341,-0.19488,-0.061031
392,-0.070897,0.030394,-0.073199,-0.18765,0.0011247,-0.13042,-0.19817,-0.054783
393,-0.07583,0.049468,-0.084381,-0.19916,0.021843,-0.13634,-0.19159,-0.055112
394,-0.089314,0.047824,-0.092931,-0.2031,0.079724,-0.12089,-0.18436,-0.063333
395,-0.11102,0.022172,-0.10543,-0.20968,0.1603,-0.10148,-0.18567,-0.074186
396,-0.13996,-0.022554,-0.1245,-0.22875,0.21982,-0.095233,-0.20376,-0.082079
397,-0.16989,-0.07024,-0.14226,-0.25967,0.22147,-0.11825,-0.24158,-0.081092
398,-0.19488,-0.10543,-0.15476,-0.29354,0.15997,-0.17482,-0.29453,-0.071884
399,-0.20968,-0.11891,-0.16298,-0.31919,0.068543,-0.24618,-0.34616,-0.054783
400,-0.21165,-0.10773,-0.16627,-0.33531,-0.0011774,-0.29584,-0.38069,-0.038339
401,-0.20212,-0.08175,-0.16627,-0.34484,-0.021896,-0.28631,-0.39154,-0.024856
402,-0.18666,-0.05544,-0.16824,-0.35241,-0.013345,-0.19685,-0.38365,-0.013345
403,-0.17482,-0.039326,-0.17449,-0.35866,-0.025514,-0.041628,-0.36721,0.002769
404,-0.17252,-0.038997,-0.18666,-0.36523,-0.097864,0.1376,-0.3557,0.020528
405,-0.18074,-0.055112,-0.20343,-0.37444,-0.22481,0.29086,-0.35109,0.032038
406,-0.19488,-0.082736,-0.21889,-0.38003,-0.37543,0.38294,-0.35241,0.035327
407,-0.20639,-0.10872,-0.22678,-0.37378,-0.52276,0.4076,-0.35043,0.034011
408,-0.2054,-0.12615,-0.2202,-0.34846,-0.65497,0.37274,-0.33728,0.036642
409,-0.18765,-0.13503,-0.19751,-0.30571,-0.74804,0.28658,-0.31261,0.04618
410,-0.16166,-0.13503,-0.16495,-0.25013,-0.77007,0.16063,-0.2817,0.062623
411,-0.13667,-0.11924,-0.12516,-0.17975,-0.70134,0.018226,-0.24585,0.078737
412,-0.10937,-0.08471,-0.076159,-0.09326,-0.54841,-0.10247,-0.2008,0.087617
413,-0.070897,-0.032749,-0.016963,0.0070443,-0.33432,-0.18337,-0.14423,0.090248
414,-0.018607,0.029078,0.046837,0.11458,-0.10576,-0.23961,-0.078461,0.087617
415,0.043549,0.087288,0.10505,0.22114,0.066898,-0.29847,-0.00051963,0.084328
416,0.1034,0.1307,0.14352,0.30697,0.12675,-0.37411,0.082355,0.083999
417,0.15207,0.15405,0.15931,0.35203,0.079724,-0.45962,0.15668,0.085315
418,0.18628,0.16063,0.15569,0.35367,0.010662,-0.52737,0.21522,0.086301
419,0.20173,0.16161,0.14352,0.32835,0.055059,-0.53822,0.25731,0.084986
420,0.207,0.16161,0.13497,0.29645,0.32243,-0.47902,0.28987,0.080382
421,0.20831,0.16391,0.13563,0.27507,0.81112,-0.3751,0.32111,0.073476
422,0.2162,0.16786,0.14944,0.2777,1.3995,-0.26263,0.35104,0.064596
423,0.23824,0.17477,0.16983,0.30664,1.9161,-0.15607,0.38327,0.055717
424,0.27376,0.18365,0.18759,0.35334,2.219,-0.048205,0.41879,0.047824
425,0.30993,0.19121,0.20042,0.40136,2.2489,0.083013,0.45134,0.042562
426,0.33624,0.1968,0.20535,0.43556,2.0345,0.23265,0.47239,0.036971
427,0.33953,0.19417,0.19976,0.44016,1.6451,0.35663,0.47009,0.031709
428,0.31223,0.18167,0.18332,0.40958,1.1472,0.4053,0.44049,0.028421
429,0.26093,0.16457,0.15898,0.35005,0.59736,0.36321,0.3905,0.024474
430,0.20436,0.14681,0.13399,0.27935,0.064267,0.25797,0.34052,0.018555
431,0.1649,0.13169,0.11853,0.22147,-0.38562,0.12774,0.30598,0.012306
432,0.15372,0.12215,0.11426,0.19055,-0.72469,0.0017824,0.29184,0.0083598
433,0.16654,0.11524,0.11985,0.18069,-0.97791,-0.11102,0.28954,0.0037556
434,0.18332,0.10669,0.12577,0.17773,-1.1696,-0.2054,0.28559,-0.0011774
435,0.18661,0.087617,0.12445,0.17345,-1.2877,-0.26953,0.27047,-0.0054526
436,0.17016,0.052428,0.11195,0.15964,-1.3042,-0.29288,0.24416,-0.0077547
437,0.13826,0.0057288,0.09255,0.13464,-1.2144,-0.27184,0.21423,-0.0074258
438,0.098141,-0.038011,0.070516,0.10176,-1.0545,-0.21099,0.18496,-0.007097
439,0.059334,-0.068266,0.046837,0.059992,-0.89241,-0.12549,0.15536,-0.0024928
440,0.02875,-0.079119,0.022501,0.0086887,-0.78454,-0.046561,0.12379,0.0086887
441,0.0083598,-0.07287,-0.0015062,-0.052481,-0.75494,-0.0008485,0.086959,0.024474
442,-0.0054526,-0.05281,-0.020252,-0.11628,-0.79802,-0.0024928,0.050126,0.034011
443,-0.014332,-0.022883,-0.037024,-0.17054,-0.88616,-0.055112,0.020528,0.035656
444,-0.022225,0.0096753,-0.046561,-0.20146,-0.98679,-0.14292,0.0054,0.031052
445,-0.033406,0.043549,-0.047548,-0.20639,-1.071,-0.23928,0.0024402,0.025461
446,-0.044259,0.081697,-0.038997,-0.1906,-1.1019,-0.31623,0.0037556,0.020199
447,-0.052152,0.13004,-0.026829,-0.16298,-1.0157,-0.33991,0.0083598,0.016581
448,-0.050836,0.18891,-0.011701,-0.12253,-0.73817,-0.28729,0.010991,0.017568
449,-0.04097,0.24547,0.0034268,-0.069582,-0.2281,-0.16232,0.011648,0.022501
450,-0.027816,0.27902,0.011977,-0.015976,0.47732,0.0024402,0.016253,0.025132
451,-0.017292,0.27343,0.010662,0.030065,1.2275,0.17016,0.026447,0.023159
452,-0.015319,0.23495,0.0054,0.064925,1.8237,0.31421,0.041247,0.01987
453,-0.02354,0.18266,0.0080309,0.09255,2.1154,0.41188,0.06065,0.018555
454,-0.040641,0.13695,0.026447,0.11064,2.0802,0.44246,0.076435,0.01987
455,-0.061031,0.096496,0.059005,0.11228,1.8109,0.40859,0.077422,0.020857
456,-0.079777,0.04881,0.090905,0.09551,1.433,0.33328,0.058676,0.020857
457,-0.099838,-0.017621,0.10505,0.065254,1.0374,0.25797,0.025132,0.020528
458,-0.11595,-0.10214,0.094852,0.03434,0.67004,0.20996,-0.011701,0.019212
459,-0.12089,-0.19126,0.061636,0.0090175,0.34742,0.19845,-0.045903,0.016253
460,-0.11036,-0.26131,0.015924,-0.0093991,0.088275,0.1991,-0.073199,0.01132
461,-0.086354,-0.29518,-0.036037,-0.023211,-0.090958,0.18036,-0.095562,0.0037556
462,-0.059716,-0.28992,-0.079777,-0.041628,-0.18436,0.12971,-0.11529,-0.004466
463,-0.042286,-0.25342,-0.10444,-0.067937,-0.21889,0.050784,-0.13733,-0.012688
464,-0.041628,-0.19652,-0.10543,-0.095891,-0.23566,-0.040313,-0.16495,-0.016634
465,-0.055769,-0.1268,-0.088327,-0.11102,-0.26986,-0.1176,-0.19192,-0.016963
466,-0.077803,-0.049521,-0.062018,-0.1097,-0.32676,-0.16331,-0.21461,-0.018278
467,-0.10346,0.024474,-0.038339,-0.10313,-0.38924,-0.1735,-0.22645,-0.019265
468,-0.12976,0.080053,-0.022883,-0.10313,-0.43495,-0.1541,-0.22645,-0.019594
469,-0.15772,0.10669,-0.016963,-0.11595,-0.45074,-0.11299,-0.2156,-0.020581
470,-0.18074,0.10011,-0.014332,-0.13996,-0.42673,-0.050836,-0.19817,-0.023869
471,-0.19422,0.056046,-0.012688,-0.16923,-0.35635,0.025132,-0.17942,-0.029131
472,-0.20179,-0.010386,-0.0097279,-0.18896,-0.24881,0.10406,-0.16265,-0.033735
473,-0.20014,-0.076488,-0.0090702,-0.18765,-0.12319,0.18463,-0.15246,-0.033406
474,-0.18929,-0.1222,-0.0090702,-0.16134,0.0011247,0.28888,-0.14851,-0.028802
475,-0.17087,-0.14062,-0.0097279,-0.1245,0.12412,0.4395,-0.14851,-0.020909
476,-0.14391,-0.13536,-0.014332,-0.092603,0.25896,0.64406,-0.15048,-0.014332
477,-0.11266,-0.11431,-0.024198,-0.077803,0.41287,0.87361,-0.14719,-0.011701
478,-0.088656,-0.084381,-0.035708,-0.086354,0.57039,1.0719,-0.13996,-0.014003
479,-0.075501,-0.054783,-0.049192,-0.11529,0.70687,1.1929,-0.1324,-0.020581
480,-0.072213,-0.028802,-0.063004,-0.15377,0.80126,1.2156,-0.13174,-0.024527
481,-0.077146,-0.010715,-0.075501,-0.19455,0.83612,1.1462,-0.14588,-0.022883
482,-0.086354,-0.0051238,-0.090958,-0.23862,0.79633,1.0022,-0.17844,-0.017621
483,-0.10247,-0.0090702,-0.11003,-0.27874,0.67366,0.81507,-0.22514,-0.011043
484,-0.12483,-0.021238,-0.13338,-0.30965,0.48456,0.6217,-0.2748,-0.004466
485,-0.15147,-0.037353,-0.15377,-0.32972,0.26784,0.44904,-0.31788,0.0050711
486,-0.17877,-0.053467,-0.16824,-0.34123,0.080053,0.29678,-0.35011,0.01987
487,-0.19718,-0.06728,-0.17515,-0.34254,-0.038997,0.1455,-0.36556,0.039602
488,-0.19455,-0.076488,-0.1735,-0.32873,-0.087998,-0.014003,-0.35866,0.059334
489,-0.16528,-0.073199,-0.15706,-0.29091,-0.11365,-0.16002,-0.32117,0.07512
490,-0.10674,-0.04689,-0.11661,-0.21889,-0.16331,-0.26592,-0.24914,0.082026
491,-0.025185,0.0060577,-0.049521,-0.11003,-0.2452,-0.32117,-0.14785,0.079724
492,0.068871,0.085644,0.03434,0.029736,-0.33004,-0.33991,-0.030118,0.074133
493,0.16194,0.18036,0.11886,0.1797,-0.39615,-0.34912,0.087617,0.068543
494,0.24942,0.27376,0.19253,0.32769,-0.44975,-0.37247,0.19253,0.062294
495,0.32637,0.34808,0.25139,0.46351,-0.51421,-0.42476,0.27869,0.054072
496,0.39379,0.39281,0.29283,0.57894,-0.60498,-0.50171,0.34775,0.045522
497,0.45134,0.40037,0.32013,0.67497,-0.71087,-0.58459,0.40004,0.03434
498,0.49804,0.37538,0.33854,0.75423,-0.79737,-0.628,0.43885,0.023159
499,0.53488,0.33328,0.35334,0.82099,-0.82039,-0.58163,0.47535,0.011648
500,0.5625,0.29908,0.36913,0.87591,-0.75001,-0.42805,0.52238,0.0014536
501,0.5796,0.2925,0.3882,0.91242,-0.60103,-0.22382,0.58618,-0.0084125
502,0.5875,0.3096,0.40728,0.92294,-0.44416,-0.077475,0.65689,-0.020909
503,0.58322,0.33427,0.4178,0.89893,-0.36951,-0.07024,0.71279,-0.036366
504,0.56415,0.35137,0.41122,0.84204,-0.42871,-0.21593,0.73779,-0.052481
505,0.53323,0.35236,0.38228,0.75522,-0.60169,-0.44482,0.73022,-0.065964
506,0.49443,0.33525,0.33427,0.6457,-0.81118,-0.65102,0.70128,-0.075501
507,0.45759,0.30763,0.27507,0.52369,-0.97331,-0.75494,0.66313,-0.079777
508,0.42635,0.28066,0.2139,0.40399,-1.0434,-0.73916,0.61446,-0.082736
509,0.39938,0.26257,0.15865,0.29382,-1.0164,-0.63129,0.54803,-0.088985
510,0.36847,0.24449,0.10965,0.19812,-0.90392,-0.47244,0.45891,-0.097207
511,0.32243,0.20831,0.062952,0.11886,-0.72567,-0.30275,0.34709,-0.10477
512,0.25534,0.13925,0.01691,0.058676,-0.51388,-0.14687,0.23067,-0.10609
513,0.17444,0.035656,-0.02354,0.0080309,-0.30604,-0.022883,0.12445,-0.096878
514,0.091563,-0.084381,-0.049521,-0.038011,-0.12911,0.055388,0.036314,-0.081092
515,0.024474,-0.19324,-0.062018,-0.082408,0.0083598,0.079395,-0.031433,-0.068266
516,-0.023869,-0.28071,-0.065307,-0.12056,0.094852,0.055059,-0.076817,-0.063662
517,-0.059058,-0.34583,-0.064978,-0.14621,0.12017,0.0090175,-0.10477,-0.06432
518,-0.087669,-0.3774,-0.057414,-0.15575,0.094523,-0.016634,-0.11661,-0.066622
519,-0.10444,-0.34682,-0.030775,-0.14654,0.072489,0.0096753,-0.11365,-0.066293
520,-0.10609,-0.23467,0.013622,-0.12286,0.10965,0.091234,-0.10082,-0.063333
521,-0.094576,-0.061689,0.06065,-0.093918,0.21982,0.20502,-0.086025,-0.056427
522,-0.080434,0.1113,0.085644,-0.07583,0.36979,0.30894,-0.079119,-0.044917
523,-0.07287,0.22147,0.075778,-0.076159,0.49804,0.36617,-0.082079,-0.028802
524,-0.080106,0.24218,0.036642,-0.094576,0.54376,0.35564,-0.087998,-0.012359
525,-0.09622,0.20535,-0.014332,-0.12023,0.47239,0.2777,-0.091945,-0.0011774
526,-0.11464,0.16622,-0.055112,-0.14522,0.2948,0.15536,-0.092931,0.0054
527,-0.13207,0.16457,-0.076817,-0.16726,0.069529,0.023817,-0.092603,0.010004
528,-0.15147,0.20042,-0.079448,-0.17975,-0.1268,-0.080763,-0.092931,0.017239
529,-0.18271,0.22969,-0.070897,-0.18337,-0.22612,-0.14358,-0.097207,0.027763
530,-0.22349,0.20963,-0.062018,-0.17811,-0.19883,-0.16068,-0.11168,0.0373
531,-0.26263,0.12149,-0.06136,-0.17054,-0.074186,-0.14193,-0.13963,0.046837
532,-0.28762,-0.013017,-0.072542,-0.16397,0.067227,-0.11398,-0.1712,0.053086
533,-0.28663,-0.14818,-0.089643,-0.16298,0.13958,-0.10181,-0.1985,0.05769
534,-0.25605,-0.24487,-0.10411,-0.16462,0.1057,-0.11957,-0.21494,0.059663
535,-0.20212,-0.28663,-0.11365,-0.16989,-0.0028217,-0.14851,-0.22349,0.059005
536,-0.1416,-0.27545,-0.11562,-0.17778,-0.11464,-0.16166,-0.22579,0.054072
537,-0.090629,-0.23007,-0.11529,-0.18797,-0.15607,-0.14621,-0.2304,0.046837
538,-0.058071,-0.17778,-0.11727,-0.19751,-0.085367,-0.11102,-0.24487,0.043549
539,-0.043272,-0.1347,-0.12286,-0.20146,0.085644,-0.072213,-0.2692,0.049797
540,-0.039655,-0.10707,-0.12253,-0.19356,0.32276,-0.037682,-0.2919,0.059992
541,-0.038011,-0.088327,-0.11003,-0.1643,0.61183,0.0044134,-0.29749,0.071502
542,-0.033735,-0.067609,-0.082408,-0.11793,0.96471,0.07808,-0.28302,0.079395
543,-0.030118,-0.041299,-0.045246,-0.068595,1.3557,0.18825,-0.25901,0.081697
544,-0.034064,-0.013017,-0.014332,-0.038339,1.703,0.30993,-0.24059,0.07808
545,-0.048205,0.014937,-0.00019077,-0.034393,1.8931,0.40037,-0.23895,0.070516
546,-0.066951,0.035656,-0.0061104,-0.053138,1.848,0.43687,-0.25506,0.064925
547,-0.084381,0.036971,-0.028144,-0.084052,1.5682,0.41846,-0.28433,0.062623
548,-0.097207,0.012306,-0.054125,-0.12089,1.1308,0.36847,-0.31656,0.061965
549,-0.10674,-0.038011,-0.071884,-0.15377,0.65722,0.32703,-0.34123,0.059663
550,-0.11924,-0.10346,-0.079448,-0.17712,0.27803,0.33723,-0.35109,0.053743
551,-0.13601,-0.16134,-0.07879,-0.19192,0.069529,0.41879,-0.34221,0.045522
552,-0.15377,-0.19192,-0.076488,-0.19685,0.035656,0.5579,-0.31426,0.040589
553,-0.16758,-0.18765,-0.076817,-0.19751,0.12445,0.70622,-0.2692,0.034998
554,-0.17811,-0.15805,-0.08175,-0.20343,0.23133,0.80619,-0.21395,0.026776
555,-0.18469,-0.12549,-0.091945,-0.21034,0.2435,0.81573,-0.15739,0.015266
556,-0.18501,-0.097536,-0.10017,-0.20935,0.10702,0.72398,-0.1097,0.0054
557,-0.16857,-0.07879,-0.099509,-0.19718,-0.13897,0.55395,-0.069582,0.0044134
558,-0.13503,-0.066622,-0.088985,-0.17416,-0.38562,0.3563,-0.031433,0.012635
559,-0.089972,-0.054125,-0.068595,-0.13305,-0.52605,0.19187,0.013293,0.021186
560,-0.038668,-0.034064,-0.038339,-0.069582,-0.50467,0.099127,0.066569,0.024474
561,0.010662,-0.004466,0.002769,0.01691,-0.32873,0.061636,0.12478,0.022501
562,0.057361,0.031052,0.050455,0.11853,-0.047548,0.025132,0.18069,0.015595
563,0.1011,0.06624,0.099785,0.22475,0.24547,-0.057085,0.23265,0.002769
564,0.14122,0.097154,0.1432,0.31585,0.46055,-0.20771,0.28,-0.01499
565,0.17477,0.11985,0.17707,0.38393,0.53553,-0.41818,0.3198,-0.037024
566,0.20601,0.13958,0.19779,0.42503,0.45266,-0.64378,0.34972,-0.057085
567,0.23626,0.16161,0.20634,0.4474,0.24514,-0.82466,0.37274,-0.068924
568,0.26882,0.18759,0.2093,0.46187,-0.017621,-0.90293,0.39609,-0.073857
569,0.30204,0.21522,0.21226,0.47535,-0.26328,-0.84308,0.42635,-0.075173
570,0.33229,0.23955,0.21588,0.48752,-0.45929,-0.66779,0.45693,-0.076817
571,0.35005,0.25271,0.21555,0.48522,-0.60629,-0.45732,0.47897,-0.079777
572,0.34841,0.25106,0.20469,0.45463,-0.71482,-0.30604,0.48094,-0.085367
573,0.32177,0.23692,0.18102,0.3905,-0.7829,-0.26723,0.45628,-0.093918
574,0.27408,0.2093,0.14484,0.29941,-0.81019,-0.32577,0.40201,-0.1028
575,0.21226,0.17115,0.097483,0.19516,-0.78881,-0.42147,0.32506,-0.10773
576,0.14681,0.12807,0.047495,0.09551,-0.71745,-0.48527,0.24153,-0.10609
577,0.08663,0.090577,0.0063866,0.021186,-0.61123,-0.47376,0.16983,-0.10115
578,0.038616,0.067227,-0.013017,-0.015976,-0.49547,-0.38727,0.12379,-0.095233
579,0.0057288,0.059663,-0.0074258,-0.018278,-0.38825,-0.25605,0.10307,-0.0903
580,-0.018278,0.064267,0.010333,-0.004466,-0.29782,-0.12121,0.098798,-0.08471
581,-0.042615,0.06361,0.020857,0.0063866,-0.22316,-0.0061104,0.094194,-0.074844
582,-0.074186,0.047166,0.014608,-0.0008485,-0.1587,0.087617,0.079066,-0.059716
583,-0.11102,0.014608,-0.004466,-0.026171,-0.097536,0.17575,0.055717,-0.043272
584,-0.13996,-0.018936,-0.017292,-0.050179,-0.033406,0.26225,0.034011,-0.028144
585,-0.14489,-0.034064,-0.013674,-0.055112,0.042233,0.34545,0.029736,-0.014661
586,-0.12352,-0.019265,0.0080309,-0.043601,0.13563,0.4132,0.044535,-0.00051963
587,-0.082736,0.01987,0.03434,-0.028802,0.25337,0.45069,0.063281,0.014279
588,-0.038997,0.061307,0.052757,-0.018936,0.39708,0.44608,0.071173,0.021514
589,-0.0067681,0.074133,0.054072,-0.018936,0.54211,0.39248,0.062952,0.024474
590,0.0080309,0.039273,0.04026,-0.0265,0.64439,0.29513,0.040918,0.024803
591,0.01132,-0.036695,0.01987,-0.039326,0.64735,0.17148,0.012964,0.026776
592,0.0096753,-0.13601,0.0001381,-0.04985,0.52534,0.034998,-0.012688,0.030065
593,0.0080309,-0.23566,-0.020252,-0.053138,0.305,-0.10773,-0.030447,0.036642
594,0.0073732,-0.31821,-0.04393,-0.047877,0.05769,-0.25473,-0.037353,0.043549
595,0.0086887,-0.37247,-0.06728,-0.036037,-0.14555,-0.39878,-0.03538,0.053743
596,0.010662,-0.38661,-0.080434,-0.020581,-0.25539,-0.52375,-0.025842,0.067556
597,0.012964,-0.34879,-0.077803,-0.0015062,-0.26065,-0.61978,-0.0087413,0.080711
598,0.020857,-0.25572,-0.058071,0.019541,-0.18205,-0.67503,0.013293,0.08959
599,0.035985,-0.11299,-0.028144,0.038616,-0.071226,-0.68851,0.0373,0.090905
600,0.058019,0.048482,0.0047422,0.050784,0.0080309,-0.66878,0.052757,0.089919
601,0.083342,0.18463,0.029736,0.058019,0.0096753,-0.6257,0.060321,0.088603
602,0.1034,0.25961,0.041247,0.063281,-0.07879,-0.56255,0.062952,0.084657
603,0.11261,0.26586,0.038616,0.065583,-0.22349,-0.47409,0.066569,0.075778
604,0.1113,0.21588,0.029736,0.070187,-0.36096,-0.35701,0.076764,0.065254
605,0.10439,0.13859,0.019541,0.072818,-0.42903,-0.21987,0.090248,0.058019
606,0.093536,0.063938,0.015924,0.073147,-0.39878,-0.079448,0.10209,0.059005
607,0.081368,0.010991,0.017897,0.074462,-0.2794,0.043877,0.10932,0.067227
608,0.071831,-0.014003,0.024474,0.077093,-0.11266,0.14385,0.10866,0.074791
609,0.077422,-0.015319,0.033354,0.081368,0.038287,0.22443,0.10209,0.076764
610,0.097812,-0.0031506,0.041247,0.082355,0.12412,0.29908,0.091234,0.070516
611,0.12313,0.012306,0.045522,0.080053,0.1284,0.3836,0.077422,0.057361
612,0.13826,0.028092,0.047824,0.074791,0.068543,0.47963,0.067885,0.044864
613,0.13596,0.043877,0.045851,0.065254,-0.025185,0.57467,0.058348,0.035656
614,0.11853,0.059334,0.036971,0.047824,-0.1199,0.64932,0.045522,0.028421
615,0.093208,0.07808,0.022501,0.028092,-0.18765,0.6832,0.027434,0.021514
616,0.070187,0.098141,0.01132,0.012964,-0.21691,0.66642,0.0086887,0.017568
617,0.058019,0.11097,0.011977,0.0040845,-0.2202,0.6115,-0.0011774,0.017897
618,0.063281,0.11393,0.021843,0.0011247,-0.21955,0.53685,0.00079584,0.01987
619,0.081039,0.1057,0.035985,-0.0054526,-0.22185,0.46614,0.014937,0.022172
620,0.09255,0.086959,0.047495,-0.018607,-0.22218,0.40925,0.032367,0.026776
621,0.084986,0.060979,0.049139,-0.032091,-0.22283,0.35564,0.045851,0.032367
622,0.056703,0.038616,0.044535,-0.043272,-0.22744,0.29382,0.045851,0.033025
623,0.012635,0.026119,0.036642,-0.052152,-0.235,0.21752,0.030394,0.028092
624,-0.033406,0.020199,0.027105,-0.053467,-0.23434,0.13333,0.002769,0.023817
625,-0.066951,0.019212,0.015266,-0.044588,-0.21626,0.055059,-0.027158,0.023159
626,-0.081092,0.025132,0.002769,-0.024198,-0.16956,0.00079584,-0.054454,0.024803
627,-0.07879,0.033354,-0.0057815,0.00079584,-0.086354,-0.024198,-0.074186,0.027434
628,-0.067609,0.04322,-0.011701,0.01987,0.019212,-0.024856,-0.086354,0.033354
629,-0.054783,0.049797,-0.015976,0.023488,0.12774,-0.013017,-0.089314,0.04026
630,-0.04393,0.048482,-0.016634,0.013293,0.22475,-0.0018351,-0.087012,0.042891
631,-0.040313,0.040918,-0.012359,-0.0064392,0.30007,-0.0067681,-0.085039,0.038287
632,-0.04393,0.035656,-0.0074258,-0.031433,0.33986,-0.040641,-0.084381,0.028421
633,-0.046561,0.036314,-0.0057815,-0.051494,0.32802,-0.097207,-0.083394,0.01691
634,-0.042944,0.046508,-0.0061104,-0.060373,0.27376,-0.15969,-0.085367,0.0050711
635,-0.035708,0.061965,-0.0084125,-0.057743,0.22541,-0.20343,-0.089314,-0.0047949
636,-0.028473,0.077422,-0.0077547,-0.045246,0.24087,-0.19685,-0.085696,-0.0077547
637,-0.023211,0.091234,0.0040845,-0.021896,0.35005,-0.11233,-0.068266,-0.0034794
638,-0.020581,0.098141,0.024803,0.012635,0.54869,0.057361,-0.033406,0.002769
639,-0.014003,0.093865,0.050455,0.055388,0.79764,0.29447,0.014608,0.0037556
640,0.002769,0.076106,0.07216,0.10044,1.0209,0.54935,0.070845,-0.0028217
641,0.026119,0.044864,0.080711,0.14089,1.142,0.75884,0.12609,-0.013017
642,0.04881,0.0030979,0.073476,0.16293,1.1193,0.87131,0.17181,-0.020909
643,0.068543,-0.035051,0.059334,0.16687,0.95747,0.86309,0.20338,-0.02354
644,0.084986,-0.051494,0.045193,0.15273,0.69306,0.74634,0.21752,-0.027158
645,0.097483,-0.037353,0.039602,0.12741,0.38919,0.56809,0.21193,-0.037682
646,0.10307,-0.0047949,0.042562,0.09551,0.13004,0.39379,0.19253,-0.053796
647,0.10143,0.028092,0.055388,0.070845,-0.015648,0.27836,0.1672,-0.069253
648,0.096167,0.053086,0.071502,0.062294,-0.027158,0.23626,0.14221,-0.076488
649,0.092221,0.071502,0.087617,0.069529,0.060321,0.25731,0.11853,-0.073857
650,0.093865,0.096825,0.098141,0.080382,0.18529,0.32177,0.09255,-0.062018
651,0.10472,0.13925,0.10011,0.083013,0.29283,0.41155,0.068543,-0.047219
652,0.12445,0.19581,0.094852,0.074791,0.34775,0.50298,0.058019,-0.031433
653,0.14583,0.25139,0.083342,0.059992,0.34841,0.56217,0.05769,-0.019594
654,0.15503,0.28198,0.067556,0.044864,0.32539,0.55625,0.055059,-0.016634
655,0.14352,0.27047,0.052099,0.027434,0.31355,0.47864,0.0373,-0.027158
656,0.11294,0.21653,0.038287,0.0037556,0.33295,0.35334,0.0014536,-0.042944
657,0.073476,0.13892,0.02579,-0.027487,0.36584,0.22574,-0.038339,-0.053467
658,0.038616,0.061307,0.015266,-0.062018,0.37702,0.13629,-0.06728,-0.053138
659,0.014279,0.0044134,0.0086887,-0.089972,0.33065,0.11261,-0.077146,-0.04393
660,-0.0054526,-0.027487,0.0050711,-0.10115,0.21785,0.15438,-0.067609,-0.032091
661,-0.026171,-0.038011,0.0030979,-0.094247,0.058676,0.22771,-0.044259,-0.022883
662,-0.050836,-0.037353,0.0011247,-0.077146,-0.11727,0.29184,-0.020909,-0.016634
663,-0.078132,-0.035708,-0.0018351,-0.062018,-0.27677,0.30993,-0.013017,-0.015976
664,-0.10247,-0.036695,-0.0093991,-0.056756,-0.39154,0.25994,-0.023869,-0.016305
665,-0.11924,-0.036695,-0.017621,-0.057743,-0.45173,0.14484,-0.045903,-0.015319
666,-0.12549,-0.031762,-0.022225,-0.055769,-0.45896,-0.01795,-0.070897,-0.012688
667,-0.11825,-0.019265,-0.020581,-0.045574,-0.41917,-0.19324,-0.090629,-0.011372
668,-0.10017,-0.0041372,-0.011372,-0.026171,-0.34813,-0.34747,-0.10017,-0.010386
669,-0.080434,0.0083598,0.0014536,-0.00019077,-0.27447,-0.46883,-0.10181,-0.011043
670,-0.06432,0.015266,0.016581,0.025461,-0.22645,-0.56617,-0.096549,-0.010386
671,-0.058729,0.014608,0.03434,0.047824,-0.22119,-0.65299,-0.086025,-0.0087413
672,-0.064978,0.010991,0.051113,0.068871,-0.26822,-0.73093,-0.075173,-0.0047949
673,-0.074186,0.010662,0.064596,0.091892,-0.37346,-0.78849,-0.065635,0.0040845
674,-0.074844,0.014608,0.07512,0.11064,-0.5221,-0.81282,-0.055112,0.018226
675,-0.062018,0.028092,0.079395,0.12017,-0.66253,-0.79769,-0.038011,0.035327
676,-0.030447,0.053415,0.076764,0.11787,-0.74179,-0.7431,-0.007097,0.046508
677,0.01987,0.085315,0.072489,0.11031,-0.74212,-0.6576,0.034011,0.052428
678,0.074791,0.11393,0.067885,0.1011,-0.69279,-0.55499,0.076106,0.055388
679,0.12116,0.1284,0.064925,0.091234,-0.63293,-0.46455,0.11228,0.054072
680,0.14912,0.12577,0.061636,0.080053,-0.59676,-0.42311,0.13366,0.049468
681,0.15471,0.10899,0.056703,0.064267,-0.60399,-0.45863,0.12938,0.041247
682,0.14024,0.082355,0.04881,0.048482,-0.6497,-0.55959,0.097812,0.03434
683,0.1159,0.057032,0.039931,0.035656,-0.70101,-0.67733,0.055717,0.032367
684,0.089919,0.040589,0.031381,0.030394,-0.70693,-0.74179,0.026776,0.032367
685,0.069529,0.04322,0.031381,0.036314,-0.61715,-0.69147,0.025132,0.03434
686,0.055059,0.062623,0.042233,0.050784,-0.41851,-0.51717,0.045851,0.033354
687,0.043549,0.08959,0.055717,0.067556,-0.1495,-0.26822,0.072818,0.029078
688,0.034998,0.11491,0.059663,0.076435,0.10866,-0.029131,0.091563,0.026776
689,0.030723,0.12905,0.052428,0.0692,0.27902,0.12971,0.095839,0.028421
690,0.031381,0.12544,0.039602,0.050455,0.32605,0.19253,0.087946,0.031709
691,0.034998,0.10307,0.026447,0.030065,0.26521,0.19746,0.071831,0.033025
692,0.038287,0.071502,0.020199,0.013293,0.15767,0.20436,0.054401,0.031052
693,0.040589,0.040589,0.017897,0.0054,0.083342,0.25534,0.041575,0.025132
694,0.040589,0.021186,0.012306,0.010991,0.10077,0.34249,0.032367,0.018884
695,0.036971,0.01691,0.0017824,0.023817,0.21522,0.42668,0.027105,0.016581
696,0.030065,0.021514,-0.013674,0.030065,0.3836,0.46154,0.018555,0.018226
697,0.021514,0.026776,-0.031762,0.021843,0.55428,0.43128,0.0024402,0.020199
698,0.0083598,0.025132,-0.052481,0.0034268,0.69109,0.3586,-0.023211,0.01987
699,-0.0054526,0.014608,-0.068924,-0.015648,0.76114,0.27047,-0.044588,0.017239
700,-0.015976,-0.0011774,-0.076159,-0.029131,0.73384,0.18233,-0.051823,0.013951
701,-0.018607,-0.010057,-0.073528,-0.034393,0.59341,0.090905,-0.041299,0.010991
702,-0.017292,-0.0047949,-0.063333,-0.031762,0.35433,-0.012359,-0.016963,0.0054
703,-0.0097279,0.010004,-0.047219,-0.02354,0.068543,-0.14062,0.010333,-0.0011774
704,0.00079584,0.025461,-0.026829,-0.0047949,-0.186,-0.28006,0.03434,-0.0067681
705,0.015924,0.034998,-0.0028217,0.023488,-0.33892,-0.39582,0.051113,-0.0097279
706,0.036971,0.030723,0.018884,0.056046,-0.35603,-0.45337,0.059334,-0.007097
707,0.059334,0.017568,0.031709,0.084657,-0.25605,-0.43232,0.067227,-0.0018351
708,0.080053,0.0017824,0.033354,0.10011,-0.083394,-0.35668,0.079066,0.0044134
709,0.094523,-0.013674,0.025132,0.099127,0.12083,-0.26032,0.089261,0.0050711
710,0.10274,-0.029789,0.010662,0.080711,0.32901,-0.15476,0.093208,-0.0031506
711,0.1034,-0.038997,-0.0064392,0.053743,0.51876,-0.030118,0.087946,-0.015976
712,0.099127,-0.033406,-0.022554,0.023159,0.67662,0.12609,0.073476,-0.025185
713,0.09255,-0.016305,-0.033735,-0.0077547,0.79665,0.31782,0.050126,-0.027158
714,0.079395,-0.0018351,-0.039984,-0.039655,0.88052,0.53159,0.020528,-0.025842
715,0.058676,-0.00019077,-0.04689,-0.06432,0.91636,0.7197,-0.0067681,-0.025842
716,0.031709,-0.015976,-0.060045,-0.076159,0.87788,0.82494,-0.0265,-0.029789
717,0.002769,-0.049192,-0.077146,-0.078461,0.75259,0.80126,-0.036695,-0.038011
718,-0.024856,-0.093589,-0.090958,-0.075501,0.55033,0.6513,-0.040641,-0.045903
719,-0.049521,-0.12713,-0.090958,-0.071555,0.2948,0.4178,-0.041628,-0.047219
720,-0.070897,-0.12779,-0.076488,-0.064649,0.011648,0.16885,-0.040313,-0.042286
721,-0.085367,-0.092603,-0.048534,-0.047548,-0.26065,-0.033406,-0.037682,-0.031104
722,-0.088985,-0.033406,-0.0057815,-0.013017,-0.46784,-0.14029,-0.0265,-0.01795
723,-0.074844,0.030065,0.049797,0.04026,-0.56749,-0.14654,-0.00051963,-0.0087413
724,-0.040313,0.087288,0.10735,0.11195,-0.56551,-0.085367,0.044864,-0.0097279
725,0.014937,0.13826,0.15306,0.18397,-0.50763,-0.004466,0.10077,-0.023211
726,0.079395,0.18661,0.1797,0.23035,-0.44449,0.065912,0.15306,-0.049521
727,0.133,0.23495,0.1843,0.23331,-0.40897,0.11393,0.18233,-0.077146
728,0.16326,0.28296,0.17115,0.1991,-0.41259,0.12544,0.18102,-0.097207
729,0.16687,0.31684,0.14912,0.16063,-0.44449,0.080711,0.16095,-0.10477
730,0.15273,0.32374,0.12905,0.15569,-0.49316,-0.022883,0.13793,-0.099838
731,0.13432,0.29217,0.11787,0.2014,-0.54512,-0.16462,0.1284,-0.085367
732,0.12741,0.22804,0.11491,0.2777,-0.57472,-0.2942,0.13464,-0.068266
733,0.13234,0.15306,0.11524,0.35005,-0.55532,-0.34813,0.15471,-0.052152
734,0.14352,0.081368,0.11557,0.38656,-0.47442,-0.29124,0.18233,-0.042286
735,0.15503,0.026776,0.11031,0.37932,-0.35011,-0.13305,0.20765,-0.041957
736,0.15964,-0.0087413,0.10242,0.34512,-0.21922,0.074791,0.22245,-0.049192
737,0.15569,-0.024856,0.095181,0.30598,-0.10346,0.26849,0.22081,-0.059716
738,0.14089,-0.021567,0.087617,0.27014,0.0024402,0.39215,0.20173,-0.067937
739,0.1205,-0.0067681,0.076435,0.24054,0.091563,0.42767,0.17312,-0.074515
740,0.098469,0.014608,0.065912,0.21522,0.12642,0.37439,0.13826,-0.076817
741,0.079724,0.038616,0.059334,0.18299,0.065583,0.23462,0.10274,-0.073528
742,0.064267,0.060979,0.053086,0.13695,-0.10773,0.016581,0.074133,-0.062676
743,0.049468,0.078409,0.043877,0.079066,-0.35504,-0.25177,0.047495,-0.047877
744,0.035327,0.087617,0.031709,0.020857,-0.59182,-0.51849,0.022501,-0.031433
745,0.021186,0.082684,0.015924,-0.024198,-0.7283,-0.72732,-0.00019077,-0.014661
746,0.01132,0.058019,-0.0015062,-0.050836,-0.70627,-0.84078,-0.017621,-0.0008485
747,0.002769,0.01987,-0.016963,-0.063333,-0.53756,-0.8536,-0.028802,0.0096753
748,-0.0057815,-0.019594,-0.028802,-0.07024,-0.29749,-0.78618,-0.03242,0.016253
749,-0.018607,-0.053467,-0.034722,-0.079119,-0.077475,-0.66878,-0.034393,0.023488
750,-0.035051,-0.083065,-0.038011,-0.093589,0.058676,-0.53855,-0.040641,0.033025
751,-0.052481,-0.10773,-0.04097,-0.10839,0.10801,-0.41917,-0.054125,0.04322
752,-0.066293,-0.12549,-0.047219,-0.11924,0.1136,-0.32281,-0.075173,0.053086
753,-0.071884,-0.13174,-0.054125,-0.12187,0.13169,-0.24914,-0.098522,0.059992
754,-0.069253,-0.12286,-0.056756,-0.11858,0.19614,-0.18567,-0.11661,0.065583
755,-0.063004,-0.099838,-0.051494,-0.11398,0.29974,-0.12615,-0.12549,0.071831
756,-0.058729,-0.069582,-0.040641,-0.11398,0.41451,-0.07024,-0.12417,0.077422
757,-0.058071,-0.037353,-0.031433,-0.12089,0.51087,-0.021567,-0.11464,0.080382
758,-0.060702,-0.007097,-0.027487,-0.13437,0.57303,0.011648,-0.10477,0.078737
759,-0.06432,0.017568,-0.029789,-0.15279,0.6046,0.021843,-0.097536,0.075449
760,-0.06728,0.03434,-0.038339,-0.17153,0.61216,0.0086887,-0.093918,0.075449
761,-0.069582,0.04026,-0.04985,-0.186,0.58848,-0.018278,-0.089314,0.077751
762,-0.072542,0.030065,-0.057085,-0.19028,0.52238,-0.039326,-0.07879,0.079395
763,-0.081421,0.0001381,-0.056427,-0.1814,0.41287,-0.039326,-0.065964,0.077751
764,-0.094247,-0.047219,-0.052152,-0.1564,0.26751,-0.012359,-0.056756,0.074791
765,-0.1074,-0.10609,-0.044588,-0.11562,0.11689,0.037958,-0.059058,0.071502
766,-0.11891,-0.1587,-0.028802,-0.068266,-0.0024928,0.11327,-0.071226,0.068871
767,-0.12089,-0.18271,-0.0018351,-0.027158,-0.064649,0.2139,-0.084052,0.0692
768,-0.1051,-0.1666,0.026776,0.00046697,-0.067609,0.33295,-0.087669,0.076764
769,-0.073528,-0.11661,0.045522,0.0093464,-0.020581,0.45924,-0.081421,0.087617
770,-0.038339,-0.053467,0.047495,0.0001381,0.059005,0.57434,-0.070568,0.1011
771,-0.013674,0.0030979,0.033354,-0.021896,0.13728,0.64735,-0.065964,0.1159
772,-0.0031506,0.039931,0.0063866,-0.048534,0.18299,0.64932,-0.071884,0.12675
773,-0.0067681,0.046837,-0.022554,-0.07024,0.18299,0.57467,-0.089972,0.13037
774,-0.015319,0.029736,-0.04097,-0.078461,0.14648,0.44575,-0.11858,0.12281
775,-0.021567,-0.0015062,-0.04393,-0.070568,0.10011,0.3073,-0.14818,0.10669
776,-0.019594,-0.037024,-0.030447,-0.044917,0.071502,0.1991,-0.16166,0.088603
777,-0.010057,-0.06432,-0.0047949,-0.0024928,0.079724,0.14944,-0.14884,0.070187
778,0.0077021,-0.074186,0.027105,0.045522,0.13169,0.1649,-0.11168,0.052757
779,0.026776,-0.069582,0.055059,0.088932,0.2162,0.22969,-0.059716,0.033354
780,0.042891,-0.054783,0.070187,0.11524,0.30631,0.31059,-0.0057815,0.013293
781,0.053743,-0.038011,0.069529,0.12248,0.36551,0.3711,0.037629,-0.0061104
782,0.063281,-0.02354,0.055717,0.11426,0.37866,0.38623,0.061307,-0.01795
783,0.07512,-0.016963,0.036971,0.098798,0.35663,0.3586,0.066569,-0.024856
784,0.085972,-0.017621,0.015595,0.082026,0.32111,0.30829,0.060321,-0.028473
785,0.091892,-0.026171,-0.0031506,0.065254,0.28757,0.25633,0.052757,-0.033406
786,0.093536,-0.038339,-0.015319,0.053086,0.2606,0.20831,0.051441,-0.037024
787,0.093208,-0.044917,-0.018607,0.044206,0.23528,0.15799,0.055717,-0.037353
788,0.091892,-0.038011,-0.012359,0.035985,0.20897,0.10406,0.063938,-0.035051
789,0.089919,-0.014332,0.00046697,0.023817,0.18628,0.056703,0.073476,-0.034722
790,0.081368,0.023159,0.014608,0.010662,0.16786,0.035656,0.082026,-0.036695
791,0.062294,0.070845,0.024803,0.0034268,0.14813,0.050126,0.084328,-0.036366
792,0.030394,0.12642,0.027434,0.0070443,0.11689,0.096825,0.078737,-0.033735
793,-0.0090702,0.18496,0.026119,0.024145,0.072818,0.15076,0.062623,-0.030775
794,-0.043601,0.23462,0.020199,0.045522,0.015924,0.18069,0.03434,-0.028144
795,-0.063662,0.26192,0.0093464,0.053743,-0.04393,0.16885,0.002769,-0.028802
796,-0.076488,0.25534,-0.004466,0.046508,-0.0903,0.1159,-0.025842,-0.027487
797,-0.088327,0.20963,-0.013345,0.030394,-0.11398,0.052099,-0.041299,-0.020909
798,-0.10346,0.133,-0.0047949,0.019541,-0.11924,0.0083598,-0.037682,-0.010386
799,-0.11825,0.042562,0.026447,0.019212,-0.12516,-0.0011774,-0.014003,0.0014536
800,-0.12384,-0.035708,0.07512,0.02579,-0.14456,0.018884,0.021186,0.012306
801,-0.10905,-0.077803,0.12675,0.032367,-0.17285,0.055388,0.05473,0.019212
802,-0.070568,-0.071226,0.1672,0.033354,-0.19883,0.091563,0.085972,0.016253
803,-0.021896,-0.019594,0.18693,0.02875,-0.21132,0.11491,0.11228,0.0080309
804,0.020199,0.059663,0.18759,0.019541,-0.21132,0.12083,0.12675,0.0021113
805,0.041247,0.13201,0.17707,0.010333,-0.19685,0.11195,0.12379,0.0017824
806,0.0373,0.16819,0.16983,0.0034268,-0.15443,0.094852,0.10965,0.0077021
807,0.014937,0.15865,0.17279,0.0011247,-0.06728,0.07216,0.092221,0.015924
808,-0.013674,0.11491,0.18529,0.0034268,0.063281,0.041575,0.075778,0.02283
809,-0.032749,0.052099,0.19845,0.013622,0.21949,0.0037556,0.057032,0.025132
810,-0.037024,-0.018278,0.20371,0.029736,0.37011,-0.041299,0.033354,0.021843
811,-0.027487,-0.084052,0.1945,0.046837,0.48686,-0.08471,0.010662,0.015924
812,-0.010715,-0.12812,0.17411,0.060979,0.55264,-0.11003,0.0024402,0.0080309
813,0.0077021,-0.12746,0.14747,0.075449,0.56349,-0.10313,0.010333,-0.0028217
814,0.025461,-0.074844,0.12511,0.092879,0.52205,-0.054454,0.029078,-0.01499
815,0.041575,0.017568,0.11754,0.11524,0.43655,0.030723,0.050784,-0.028473
816,0.056374,0.12379,0.12642,0.13958,0.3175,0.12708,0.073147,-0.039326
817,0.06624,0.21226,0.13991,0.15799,0.16918,0.20436,0.099785,-0.042944
818,0.073476,0.25764,0.14517,0.15997,-0.0074258,0.23857,0.12642,-0.041957
819,0.077751,0.2481,0.13234,0.14089,-0.19916,0.21686,0.14747,-0.041299
820,0.080382,0.19483,0.096825,0.10274,-0.38529,0.13432,0.15339,-0.041299
821,0.085644,0.12281,0.047166,0.048153,-0.53723,-0.0047949,0.13826,-0.044588
822,0.09255,0.055388,-0.0064392,-0.0097279,-0.64082,-0.17515,0.10834,-0.046232
823,0.10274,0.0060577,-0.049521,-0.057085,-0.70594,-0.34583,0.075778,-0.041628
824,0.1136,-0.022225,-0.071884,-0.082736,-0.75067,-0.48132,0.048153,-0.0265
825,0.12412,-0.031104,-0.073857,-0.084052,-0.78816,-0.56749,0.030065,-0.0057815
826,0.1376,-0.023211,-0.062018,-0.063333,-0.82433,-0.60662,0.022172,0.011977
827,0.14912,-0.004466,-0.045246,-0.033735,-0.85426,-0.60465,0.01987,0.018884
828,0.15438,0.018884,-0.028144,-0.012359,-0.87169,-0.57768,0.018226,0.015595
829,0.1501,0.038944,-0.016634,-0.0084125,-0.8786,-0.54381,0.01132,0.012306
830,0.13267,0.048482,-0.017292,-0.017621,-0.87728,-0.5129,-0.002164,0.013293
831,0.10077,0.044864,-0.027158,-0.033735,-0.86347,-0.48297,-0.020581,0.017239
832,0.058676,0.028092,-0.041299,-0.050836,-0.8148,-0.44383,-0.036037,0.023817
833,0.01987,0.0034268,-0.05281,-0.061689,-0.68851,-0.38365,-0.042944,0.032696
834,-0.002164,-0.016963,-0.054783,-0.059716,-0.45863,-0.28466,-0.037024,0.044535
835,0.0014536,-0.0265,-0.045246,-0.040313,-0.13174,-0.12253,-0.015648,0.050784
836,0.028421,-0.025842,-0.027158,-0.0011774,0.24843,0.11261,0.024803,0.049468
837,0.070516,-0.024198,-0.0080836,0.053743,0.60887,0.40793,0.076106,0.044206
838,0.11689,-0.027158,0.0086887,0.11426,0.86144,0.7243,0.12774,0.040589
839,0.16063,-0.028473,0.024474,0.16687,0.95089,1.0012,0.17674,0.038944
840,0.19943,-0.010715,0.043877,0.21061,0.87986,1.1873,0.22147,0.037958
841,0.24021,0.048153,0.063938,0.2481,0.71049,1.2686,0.26093,0.031052
842,0.28954,0.15865,0.082026,0.2777,0.50824,1.2531,0.29349,0.020857
843,0.34052,0.29579,0.09551,0.29612,0.31651,1.1587,0.31454,0.011977
844,0.37307,0.41056,0.10011,0.30007,0.15799,1.0012,0.31848,0.002769
845,0.37274,0.45759,0.09255,0.28494,0.066569,0.79501,0.30039,-0.0093991
846,0.33624,0.42339,0.070516,0.25468,0.097812,0.56053,0.26652,-0.022883
847,0.27737,0.32769,0.040918,0.22015,0.29513,0.33493,0.2287,-0.030775
848,0.21686,0.21028,0.016581,0.19022,0.64176,0.15767,0.19812,-0.030118
849,0.16786,0.11031,0.0040845,0.17214,1.0532,0.039602,0.1797,-0.021896
850,0.1307,0.051113,0.0063866,0.16654,1.3991,-0.02354,0.17115,-0.014661
851,0.10274,0.036642,0.019541,0.16852,1.5642,-0.030775,0.16753,-0.014003
852,0.085315,0.048482,0.036314,0.17411,1.5064,0.019212,0.16457,-0.016963
853,0.07512,0.064925,0.048153,0.17806,1.2709,0.12083,0.15832,-0.020909
854,0.071173,0.069858,0.047824,0.17378,0.95813,0.23692,0.14944,-0.020581
855,0.071173,0.057361,0.032038,0.15438,0.66281,0.31881,0.14221,-0.019594
856,0.07216,0.029078,0.0047422,0.12379,0.43622,0.32736,0.13103,-0.018936
857,0.070845,-0.0034794,-0.025842,0.086959,0.27376,0.25074,0.11327,-0.020581
858,0.069858,-0.026829,-0.05544,0.051113,0.14747,0.11426,0.090248,-0.025185
859,0.067227,-0.034393,-0.076159,0.024474,0.033683,-0.041628,0.068214,-0.030447
860,0.060321,-0.034064,-0.083065,0.0093464,-0.084381,-0.17581,0.052099,-0.038011
861,0.050784,-0.02946,-0.080106,0.0060577,-0.21297,-0.26328,0.038616,-0.046232
862,0.043549,-0.025514,-0.071884,0.012306,-0.34616,-0.30045,0.027105,-0.056427
863,0.038616,-0.024856,-0.063333,0.026119,-0.45633,-0.29223,0.019212,-0.067609
864,0.038616,-0.029789,-0.057743,0.044206,-0.51191,-0.25408,0.014279,-0.076488
865,0.035985,-0.040641,-0.050836,0.063281,-0.49251,-0.21034,0.013293,-0.07879
866,0.026119,-0.059058,-0.04097,0.076106,-0.39976,-0.18469,0.016581,-0.073199
867,0.0083598,-0.084052,-0.031104,0.074133,-0.25802,-0.19324,0.014937,-0.065307
868,-0.019923,-0.10707,-0.02354,0.05769,-0.097864,-0.23434,0.0030979,-0.062018
869,-0.056427,-0.11266,-0.025514,0.032696,0.048153,-0.28499,-0.017621,-0.065964
870,-0.095233,-0.10115,-0.037024,0.0057288,0.14188,-0.32084,-0.039984,-0.070897
871,-0.12746,-0.07879,-0.054125,-0.018607,0.15076,-0.33629,-0.0584,-0.073199
872,-0.15015,-0.054783,-0.069253,-0.032749,0.061965,-0.33629,-0.070897,-0.07287
873,-0.16594,-0.037024,-0.072213,-0.037024,-0.10543,-0.33465,-0.081092,-0.06728
874,-0.17778,-0.027158,-0.064649,-0.039326,-0.29913,-0.34254,-0.091287,-0.05281
875,-0.18534,-0.021896,-0.050507,-0.043601,-0.45633,-0.35701,-0.099838,-0.038011
876,-0.18666,-0.01499,-0.035708,-0.053467,-0.53033,-0.36556,-0.10115,-0.030775
877,-0.1814,-0.0011774,-0.023869,-0.063662,-0.51783,-0.35109,-0.09918,-0.031433
878,-0.16857,0.023817,-0.013017,-0.069253,-0.44844,-0.30604,-0.096878,-0.038339
879,-0.15246,0.055388,-0.0011774,-0.067937,-0.3603,-0.23467,-0.092931,-0.044917
880,-0.13174,0.081368,0.0077021,-0.065307,-0.28071,-0.15443,-0.090958,-0.045903
881,-0.10641,0.091234,0.012306,-0.066622,-0.21001,-0.077803,-0.096549,-0.037353
882,-0.078132,0.085972,0.01132,-0.071226,-0.13897,-0.0038083,-0.10905,-0.025514
883,-0.046232,0.07216,0.0054,-0.077803,-0.073528,0.067556,-0.11924,-0.015976
884,-0.014003,0.053086,-0.0067681,-0.089643,-0.037682,0.12313,-0.11858,-0.012359
885,0.0067154,0.026776,-0.024856,-0.11003,-0.059058,0.14287,-0.10806,-0.014661
886,0.010662,-0.0061104,-0.04689,-0.13799,-0.14456,0.11557,-0.094576,-0.019265
887,-0.00051963,-0.03538,-0.068924,-0.16857,-0.2692,0.049468,-0.084052,-0.020909
888,-0.018936,-0.049192,-0.085039,-0.19587,-0.38891,-0.038011,-0.084381,-0.018936
889,-0.032749,-0.041957,-0.092274,-0.21132,-0.4754,-0.13338,-0.092931,-0.012359
890,-0.037353,-0.011372,-0.095233,-0.21165,-0.52013,-0.23862,-0.11003,-0.0041372
891,-0.038011,0.0373,-0.09326,-0.19916,-0.52802,-0.3478,-0.13075,0.0040845
892,-0.041957,0.093536,-0.087998,-0.18534,-0.50928,-0.4435,-0.14654,0.014937
893,-0.05281,0.15306,-0.080763,-0.17581,-0.46948,-0.49579,-0.15509,0.025461
894,-0.077146,0.21127,-0.07287,-0.16758,-0.41785,-0.48297,-0.16134,0.036314
895,-0.11398,0.26521,-0.06136,-0.15673,-0.36326,-0.40009,-0.16561,0.045522
896,-0.15311,0.30697,-0.04689,-0.14292,-0.3159,-0.26296,-0.16462,0.056046
897,-0.18008,0.32999,-0.028473,-0.13042,-0.284,-0.11069,-0.15344,0.067885
898,-0.18567,0.3244,-0.0097279,-0.12023,-0.27118,0.010662,-0.12713,0.075449
899,-0.16726,0.28066,0.013622,-0.10609,-0.26526,0.069858,-0.088327,0.076435
900,-0.13437,0.19976,0.041247,-0.085367,-0.22678,0.066569,-0.048205,0.070516
901,-0.10247,0.095181,0.071831,-0.056427,-0.12812,0.030394,-0.015976,0.063938
902,-0.07879,-0.01499,0.10077,-0.0265,-0.0024928,0.0021113,0.0063866,0.060321
903,-0.059387,-0.11694,0.12412,-0.0018351,0.092879,0.0083598,0.018884,0.061636
904,-0.037682,-0.2031,0.13958,0.02283,0.12544,0.052757,0.022172,0.06361
905,-0.0093991,-0.26986,0.1432,0.055388,0.10406,0.10472,0.020199,0.063938
906,0.021843,-0.31492,0.1432,0.10538,0.051441,0.12774,0.017568,0.063281
907,0.045193,-0.33399,0.14484,0.16983,-0.021567,0.10274,0.021186,0.06361
908,0.054401,-0.3261,0.14287,0.23396,-0.1176,0.017239,0.032367,0.063281
909,0.050126,-0.29255,0.13201,0.27935,-0.25473,-0.13371,0.049139,0.063281
910,0.039273,-0.24224,0.1136,0.29382,-0.42969,-0.33235,0.070187,0.062623
911,0.031052,-0.19126,0.090248,0.27737,-0.60596,-0.53657,0.096167,0.060979
912,0.029407,-0.14621,0.06624,0.23626,-0.7214,-0.69213,0.12774,0.062623
913,0.03434,-0.11168,0.044864,0.18726,-0.72041,-0.75659,0.15964,0.068543
914,0.041247,-0.087669,0.030723,0.14813,-0.58722,-0.73061,0.18726,0.079066
915,0.052428,-0.074844,0.023817,0.12577,-0.35241,-0.64378,0.20502,0.088932
916,0.067885,-0.065307,0.027763,0.12083,-0.079119,-0.52868,0.21653,0.094523
917,0.085972,-0.040313,0.044864,0.13234,0.17279,-0.41029,0.22541,0.098469
918,0.10834,0.020199,0.077751,0.15635,0.36979,-0.29453,0.23133,0.10209
919,0.13234,0.11031,0.11952,0.19351,0.50199,-0.16726,0.23594,0.1057
920,0.15503,0.207,0.15832,0.23626,0.58125,-0.013017,0.23857,0.10603
921,0.17345,0.28296,0.18529,0.27376,0.62959,0.16983,0.23495,0.10406
922,0.18726,0.31322,0.19746,0.29415,0.66313,0.36683,0.22804,0.10307
923,0.19417,0.29151,0.19581,0.29283,0.6878,0.54573,0.21653,0.10143
924,0.19351,0.23298,0.18167,0.27047,0.69076,0.67826,0.20009,0.099785
925,0.18726,0.1626,0.15931,0.23594,0.65294,0.75489,0.18365,0.097154
926,0.18365,0.10011,0.13169,0.19746,0.57171,0.77824,0.17082,0.091563
927,0.18693,0.059334,0.10307,0.16128,0.46187,0.7493,0.15668,0.084328
928,0.1945,0.0373,0.076106,0.12215,0.36025,0.66905,0.1376,0.071831
929,0.1968,0.030723,0.054072,0.076106,0.29184,0.5477,0.11491,0.054072
930,0.18628,0.033683,0.038287,0.026447,0.25534,0.40695,0.090248,0.038287
931,0.16326,0.036971,0.026447,-0.019923,0.22771,0.27244,0.062952,0.02875
932,0.13103,0.0373,0.016253,-0.05544,0.18332,0.15734,0.035985,0.025132
933,0.099127,0.031709,0.0044134,-0.081092,0.10866,0.075778,0.011977,0.021514
934,0.076106,0.020528,-0.0093991,-0.10082,0.014608,0.029078,-0.0077547,0.015924
935,0.064596,0.0090175,-0.023869,-0.11497,-0.075501,0.0063866,-0.023869,0.0086887
936,0.062623,-0.0038083,-0.040641,-0.12648,-0.13799,-0.0051238,-0.036037,0.002769
937,0.064925,-0.012688,-0.056756,-0.13404,-0.15969,-0.021896,-0.044917,0.002769
938,0.06065,-0.017621,-0.072542,-0.137,-0.13766,-0.053796,-0.051823,0.002769
939,0.048153,-0.021896,-0.086354,-0.13437,-0.074844,-0.10674,-0.06432,-0.0015062
940,0.030394,-0.027816,-0.09622,-0.1268,0.011648,-0.1814,-0.08471,-0.011372
941,0.011977,-0.027487,-0.094576,-0.11233,0.093208,-0.26427,-0.1097,-0.021567
942,0.0001381,-0.016963,-0.081421,-0.091945,0.15635,-0.33169,-0.13371,-0.02946
943,0.0001381,0.0021113,-0.060045,-0.062018,0.20601,-0.35931,-0.14456,-0.030447
944,0.01132,0.027105,-0.035051,-0.019923,0.26422,-0.32708,-0.137,-0.027158
945,0.030065,0.05473,-0.0077547,0.030723,0.3415,-0.23895,-0.1097,-0.024198
946,0.048153,0.084986,0.020199,0.073804,0.42569,-0.11299,-0.065635,-0.025185
947,0.061965,0.10834,0.047166,0.090905,0.49673,0.023159,-0.011372,-0.030447
948,0.0692,0.11919,0.070187,0.084328,0.53948,0.14287,0.043877,-0.039326
949,0.069858,0.11031,0.087946,0.071173,0.54343,0.21423,0.089261,-0.050507
950,0.06065,0.085315,0.09551,0.071831,0.49574,0.23199,0.11952,-0.06432
951,0.051441,0.056374,0.096496,0.091234,0.39346,0.21719,0.13596,-0.078132
952,0.051113,0.039931,0.096825,0.11919,0.23265,0.19943,0.14024,-0.089314
953,0.059992,0.037958,0.097483,0.14385,0.02875,0.20338,0.13497,-0.095562
954,0.069529,0.051113,0.098798,0.15043,-0.16265,0.23528,0.12182,-0.095233
955,0.071502,0.076435,0.098798,0.13432,-0.27743,0.2777,0.10505,-0.09326
956,0.064596,0.11261,0.09255,0.10472,-0.2965,0.2948,0.082684,-0.090629
957,0.050784,0.1501,0.080053,0.074133,-0.2521,0.27014,0.056703,-0.0903
958,0.036642,0.17378,0.062623,0.048482,-0.20146,0.22179,0.029407,-0.092274
959,0.027434,0.17641,0.042233,0.035656,-0.17942,0.19121,0.0050711,-0.096549
960,0.023159,0.16293,0.02579,0.034669,-0.18765,0.22377,-0.0097279,-0.09918
961,0.021186,0.14944,0.014279,0.039273,-0.21099,0.32769,-0.015319,-0.094247
962,0.017897,0.14451,0.013293,0.044535,-0.23599,0.45693,-0.011043,-0.082079
963,0.0057288,0.14944,0.024145,0.049139,-0.25243,0.54704,-0.0038083,-0.062676
964,-0.020581,0.16095,0.046508,0.048482,-0.25243,0.55461,0.0021113,-0.043601
965,-0.051823,0.1672,0.07216,0.040589,-0.22612,0.47732,0.0040845,-0.028473
966,-0.074186,0.16523,0.092221,0.030723,-0.17285,0.34446,-0.0047949,-0.020581
967,-0.078132,0.15668,0.097483,0.026119,-0.10641,0.20963,-0.023869,-0.023211
968,-0.063333,0.14254,0.084657,0.021186,-0.044917,0.11261,-0.047877,-0.033078
969,-0.037353,0.11886,0.059663,0.011648,-0.0047949,0.067556,-0.071555,-0.041957
970,-0.013017,0.083342,0.034011,-0.002164,0.016581,0.058019,-0.090958,-0.047219
971,-0.0011774,0.038287,0.01691,-0.011372,0.039931,0.05769,-0.10773,-0.04689
972,-0.0054526,-0.0028217,0.014608,-0.01203,0.095839,0.052099,-0.12121,-0.04393
973,-0.024527,-0.029789,0.023159,0.0014536,0.18825,0.04618,-0.12516,-0.039655
974,-0.048534,-0.038668,0.033354,0.027434,0.29382,0.04881,-0.11299,-0.035708
975,-0.071884,-0.036366,0.036642,0.049797,0.38162,0.055388,-0.089972,-0.031762
976,-0.086683,-0.032091,0.024803,0.057361,0.42734,0.057361,-0.068266,-0.028144
977,-0.084381,-0.039984,0.0037556,0.048482,0.42734,0.055388,-0.05544,-0.021238
978,-0.066951,-0.065635,-0.017621,0.028092,0.39182,0.062623,-0.049521,-0.011372
979,-0.044259,-0.10609,-0.035708,0.0037556,0.33986,0.097483,-0.04689,0.00046697
980,-0.025842,-0.14851,-0.051165,-0.020581,0.28658,0.1672,-0.042615,0.014279
981,-0.01795,-0.17581,-0.060373,-0.041628,0.23495,0.25435,-0.036037,0.030065
982,-0.015648,-0.17975,-0.057085,-0.055112,0.18167,0.32835,-0.026171,0.045522
983,-0.014661,-0.15936,-0.042615,-0.063004,0.12149,0.36814,-0.013674,0.057361
984,-0.015319,-0.12089,-0.023211,-0.060373,0.057032,0.37538,0.00079584,0.065254
985,-0.01499,-0.075501,-0.0057815,-0.04985,-0.0077547,0.36617,0.015924,0.066569
986,-0.013345,-0.035051,0.0037556,-0.036366,-0.066622,0.3494,0.031709,0.06361
987,-0.010715,-0.0093991,0.0044134,-0.025842,-0.10872,0.31848,0.040918,0.060321
988,-0.0067681,-0.00051963,0.00079584,-0.021238,-0.12154,0.27047,0.041904,0.061965
989,-0.0015062,0.0014536,-0.0018351,-0.020252,-0.095891,0.20996,0.035985,0.066569
990,0.0011247,0.0021113,-0.0034794,-0.019265,-0.047219,0.14484,0.027763,0.068214
991,0.00046697,0.00046697,-0.0034794,-0.015648,-0.013017,0.084328,0.019212,0.066898
992,-0.0047949,-0.0057815,-0.0054526,-0.012359,-0.027158,0.032367,0.0090175,0.06361
993,-0.01499,-0.014003,-0.0090702,-0.007097,-0.10214,-0.015648,-0.0057815,0.061965
994,-0.026171,-0.021896,-0.011701,-0.0028217,-0.22678,-0.067937,-0.01795,0.058019
995,-0.036366,-0.024527,-0.011701,-0.002164,-0.3626,-0.1245,-0.018607,0.052757
996,-0.046232,-0.016963,-0.0084125,-0.011372,-0.45107,-0.17712,-0.0041372,0.045851
997,-0.054783,-0.0018351,-0.0031506,-0.027158,-0.44383,-0.21889,0.013622,0.041247
998,-0.057414,0.010662,-0.0047949,-0.046561,-0.32676,-0.25046,0.023817,0.038616
999,-0.052481,0.013293,-0.016305,-0.066293,-0.12417,-0.26657,0.02283,0.041247
1000,-0.048534,0.0034268,-0.03538,-0.082079,0.11261,-0.26592,0.012964,0.043549
1001,-0.04985,-0.011043,-0.053138,-0.094247,0.31881,-0.2521,0.0030979,0.043877
1002,-0.052152,-0.019923,-0.064649,-0.10214,0.44115,-0.23303,0.0001381,0.044535
1003,-0.044588,-0.016963,-0.06728,-0.10444,0.45595,-0.21955,0.0096753,0.047166
1004,-0.024527,-0.0051238,-0.059716,-0.097864,0.37373,-0.21099,0.026776,0.052757
1005,0.0001381,0.013622,-0.046232,-0.082408,0.23561,-0.20343,0.042233,0.058676
1006,0.015266,0.031052,-0.033078,-0.066622,0.10242,-0.18436,0.050784,0.061965
1007,0.0080309,0.039602,-0.021567,-0.056756,0.026447,-0.13634,0.053086,0.063938
1008,-0.020252,0.029407,-0.010057,-0.052152,0.023488,-0.044259,0.052099,0.064925
1009,-0.053796,0.0037556,0.0047422,-0.045903,0.081368,0.087617,0.049797,0.064925
1010,-0.073857,-0.025842,0.018884,-0.035708,0.1797,0.2287,0.045193,0.062623
1011,-0.075173,-0.050836,0.030723,-0.019265,0.29447,0.3346,0.033683,0.06065
1012,-0.061031,-0.068924,0.036314,0.0014536,0.40629,0.38426,0.014608,0.059005
1013,-0.044259,-0.087341,0.035985,0.028421,0.50988,0.39544,-0.0038083,0.059992
1014,-0.030447,-0.10214,0.034669,0.06065,0.5921,0.40136,-0.010386,0.059663
1015,-0.021238,-0.10773,0.032367,0.10077,0.62005,0.41681,0.0037556,0.054072
1016,-0.012359,-0.095562,0.034669,0.14517,0.54145,0.4132,0.034011,0.042891
1017,-0.00019077,-0.061689,0.042233,0.18332,0.31782,0.33821,0.069529,0.032696
1018,0.01691,-0.010386,0.056703,0.21028,-0.037353,0.15273,0.098141,0.02579
1019,0.04026,0.041904,0.077093,0.22739,-0.44515,-0.13042,0.11623,0.023488
1020,0.065583,0.087288,0.096496,0.23495,-0.80624,-0.45173,0.12412,0.021843
1021,0.091234,0.13201,0.11327,0.23331,-1.0401,-0.7283,0.12642,0.018884
1022,0.11294,0.18266,0.12741,0.22739,-1.1062,-0.89142,0.13267,0.014279
1023,0.12905,0.24021,0.14254,0.22377,-1.0128,-0.9105,0.14846,0.0090175
1024,0.13695,0.29447,0.15865,0.22311,-0.80065,-0.80361,0.16589,0.0047422
1025,0.13596,0.32013,0.17016,0.22114,-0.53033,-0.63918,0.17477,-0.0015062
1026,0.12182,0.29875,0.16556,0.20634,-0.24849,-0.49481,0.16194,-0.013674
1027,0.094194,0.23429,0.13728,0.17542,0.02283,-0.42279,0.12708,-0.028802
1028,0.056046,0.14648,0.089261,0.13563,0.27573,-0.41522,0.082684,-0.042944
1029,0.022172,0.056703,0.034011,0.095839,0.50331,-0.4241,0.049139,-0.056098
1030,0.010333,-0.011043,-0.0077547,0.069858,0.67037,-0.39417,0.042562,-0.070568
1031,0.031052,-0.042286,-0.027158,0.066898,0.72661,-0.30637,0.070187,-0.081421
1032,0.081697,-0.035708,-0.024527,0.085315,0.65294,-0.18008,0.12116,-0.086025
1033,0.14484,-0.0024928,-0.012359,0.11195,0.49344,-0.046232,0.17806,-0.085039
1034,0.20568,0.032696,-0.0028217,0.13563,0.33164,0.072818,0.22212,-0.079448
1035,0.25797,0.051441,0.0011247,0.15175,0.23166,0.17181,0.24613,-0.07024
1036,0.30072,0.05177,0.0080309,0.16227,0.19121,0.23857,0.24975,-0.057743
1037,0.32933,0.034669,0.024803,0.17214,0.16161,0.2458,0.22903,-0.048205
1038,0.33854,0.0067154,0.050784,0.18167,0.065254,0.18858,0.18365,-0.041957
1039,0.3221,-0.025185,0.079066,0.18496,-0.14325,0.093536,0.12281,-0.04689
1040,0.28724,-0.052152,0.1034,0.17806,-0.42838,0.0054,0.060979,-0.0584
1041,0.24778,-0.066951,0.11458,0.16687,-0.70791,-0.037353,0.013951,-0.063662
1042,0.21357,-0.06136,0.11064,0.15405,-0.89438,-0.013017,-0.01203,-0.062018
1043,0.18036,-0.025842,0.093865,0.14287,-0.9174,0.083013,-0.017292,-0.060373
1044,0.14451,0.047824,0.065254,0.1307,-0.73488,0.23199,-0.0054526,-0.064649
1045,0.10636,0.15372,0.039602,0.11721,-0.36984,0.38886,0.012635,-0.073199
1046,0.073804,0.27376,0.029736,0.10439,0.087617,0.50758,0.031052,-0.080434
1047,0.05473,0.37899,0.036642,0.09255,0.52797,0.56086,0.046508,-0.084052
1048,0.053743,0.4474,0.05473,0.081697,0.88446,0.55494,0.058019,-0.085367
1049,0.063281,0.46121,0.071173,0.064267,1.1453,0.52369,0.06361,-0.080106
1050,0.065254,0.40958,0.076764,0.04026,1.3228,0.49607,0.06624,-0.069582
1051,0.044206,0.29316,0.070845,0.012635,1.4166,0.47831,0.064925,-0.056427
1052,0.0034268,0.13958,0.058348,-0.0090702,1.3909,0.44641,0.06065,-0.044588
1053,-0.030118,-0.0015062,0.046508,-0.01795,1.2166,0.37406,0.05177,-0.037353
1054,-0.033735,-0.085039,0.038287,-0.017621,0.91242,0.2435,0.038616,-0.037353
1055,-0.0041372,-0.097207,0.032367,-0.013345,0.55198,0.069529,0.024145,-0.040641
1056,0.043877,-0.056756,0.023817,-0.0097279,0.23363,-0.11299,0.01132,-0.042286
1057,0.091892,0.0034268,0.0093464,-0.013345,0.032367,-0.25967,0.0017824,-0.039984
1058,0.12609,0.050784,-0.013674,-0.031433,-0.039984,-0.35142,-0.0057815,-0.033078
1059,0.14024,0.070187,-0.035051,-0.062676,-0.031762,-0.38858,-0.010715,-0.024198
1060,0.13497,0.063938,-0.051823,-0.10313,-0.012688,-0.38266,-0.014661,-0.016634
1061,0.11787,0.04322,-0.063991,-0.14095,-0.026829,-0.34649,-0.019923,-0.013345
1062,0.091892,0.01987,-0.070897,-0.16265,-0.062676,-0.28367,-0.022225,-0.010386
1063,0.06361,0.0037556,-0.07024,-0.16331,-0.079777,-0.19422,-0.01499,-0.0090702
1064,0.035985,-0.0054526,-0.062676,-0.14358,-0.05544,-0.087669,-0.0008485,-0.0080836
1065,0.0083598,-0.010057,-0.04689,-0.11102,0.0077021,0.014279,0.013951,-0.0051238
1066,-0.025514,-0.019594,-0.027816,-0.076159,0.082026,0.082026,0.02283,0.00046697
1067,-0.066293,-0.037682,-0.0080836,-0.04985,0.1376,0.1034,0.021186,0.010004
1068,-0.10773,-0.059058,0.0067154,-0.041957,0.14977,0.085644,0.010333,0.017897
1069,-0.14095,-0.07287,0.010004,-0.05281,0.11261,0.046508,-0.0054526,0.022172
1070,-0.16265,-0.07583,0.0021113,-0.072213,0.032367,0.0077021,-0.011701,0.025132
1071,-0.17581,-0.074186,-0.017292,-0.094905,-0.082408,-0.029131,-0.010386,0.030394
1072,-0.19028,-0.072213,-0.043272,-0.11398,-0.22448,-0.071555,-0.0074258,0.038944
1073,-0.20968,-0.07287,-0.069253,-0.12516,-0.38529,-0.13075,-0.014332,0.048482
1074,-0.22546,-0.069253,-0.085039,-0.12253,-0.54348,-0.20606,-0.031433,0.056703
1075,-0.23007,-0.05281,-0.084381,-0.10411,-0.67601,-0.284,-0.047219,0.06065
1076,-0.2156,-0.026829,-0.06728,-0.070568,-0.76152,-0.34484,-0.051494,0.058676
1077,-0.18534,-0.0031506,-0.039326,-0.026171,-0.78717,-0.37477,-0.038011,0.055717
1078,-0.14259,0.013293,-0.0074258,0.021186,-0.75889,-0.36754,-0.010057,0.054401
1079,-0.09622,0.020857,0.02283,0.065912,-0.70758,-0.33202,0.026119,0.052428
1080,-0.04985,0.022501,0.04618,0.10274,-0.66779,-0.27512,0.061965,0.052099
1081,-0.0097279,0.025461,0.062294,0.13169,-0.65595,-0.19324,0.094852,0.050455
1082,0.022501,0.031381,0.065912,0.15372,-0.66911,-0.092603,0.11919,0.049797
1083,0.047824,0.039931,0.055717,0.16819,-0.69015,0.014608,0.12741,0.055388
1084,0.068543,0.046508,0.036971,0.16819,-0.69575,0.10242,0.11919,0.06624
1085,0.079724,0.049468,0.019541,0.14813,-0.66779,0.15405,0.096167,0.076106
1086,0.080053,0.045851,0.010333,0.11261,-0.60465,0.16556,0.066898,0.080382
1087,0.074791,0.04026,0.010991,0.068214,-0.50895,0.14813,0.04026,0.080053
1088,0.072489,0.036314,0.018884,0.023159,-0.38562,0.12445,0.027105,0.079066
1089,0.074462,0.033354,0.027763,-0.016634,-0.25671,0.11261,0.021186,0.073147
1090,0.072818,0.029078,0.02875,-0.047548,-0.15344,0.1159,0.016581,0.062952
1091,0.063281,0.018884,0.021186,-0.070568,-0.1005,0.12609,0.0096753,0.052099
1092,0.044206,0.0070443,0.0083598,-0.082079,-0.10905,0.12774,-0.0031506,0.040918
1093,0.022172,-0.0028217,-0.007097,-0.082736,-0.17712,0.11327,-0.021567,0.031381
1094,0.002769,-0.0090702,-0.020581,-0.080763,-0.27447,0.081368,-0.041957,0.023817
1095,-0.0090702,-0.0097279,-0.028144,-0.08175,-0.358,0.041575,-0.061689,0.017897
1096,-0.015648,-0.0041372,-0.031433,-0.086025,-0.39911,-0.0015062,-0.082736,0.015266
1097,-0.021567,0.0014536,-0.031433,-0.089972,-0.38398,-0.053138,-0.10346,0.016581
1098,-0.027816,0.002769,-0.027816,-0.083394,-0.32051,-0.11529,-0.11793,0.022172
1099,-0.031104,0.0001381,-0.019594,-0.060702,-0.23402,-0.18962,-0.11858,0.026447
1100,-0.027487,-0.0090702,-0.0034794,-0.020909,-0.15772,-0.26065,-0.098851,0.029078
1101,-0.020909,-0.029131,0.020857,0.02875,-0.10609,-0.2965,-0.05544,0.02875
1102,-0.019594,-0.061031,0.050455,0.075778,-0.080434,-0.27907,0.0017824,0.02579
1103,-0.031104,-0.095233,0.076435,0.1034,-0.080763,-0.21231,0.051113,0.021843
1104,-0.053796,-0.12187,0.094194,0.1057,-0.09918,-0.1176,0.072489,0.019212
1105,-0.07583,-0.13503,0.10077,0.08959,-0.10674,-0.019265,0.058348,0.016581
1106,-0.085696,-0.13996,0.092879,0.059334,-0.075501,0.064596,0.021843,0.013293
1107,-0.07879,-0.14719,0.073804,0.02283,0.0050711,0.12544,-0.018936,0.0077021
1108,-0.058729,-0.1564,0.052099,-0.010386,0.11097,0.16391,-0.04985,0.0037556
1109,-0.024856,-0.14818,0.032367,-0.030775,0.19812,0.18529,-0.059716,0.0034268
1110,0.026119,-0.090629,0.020528,-0.034393,0.22936,0.19088,-0.051165,0.0047422
1111,0.093208,0.035656,0.013622,-0.028473,0.20206,0.18628,-0.030775,0.0070443
1112,0.16161,0.2093,0.016253,-0.013017,0.14977,0.19483,-0.00051963,0.0080309
1113,0.21916,0.37834,0.02875,0.017568,0.11886,0.25172,0.045522,0.0037556
1114,0.25764,0.48851,0.052428,0.066569,0.14024,0.36452,0.10439,-0.0047949
1115,0.27704,0.52304,0.083342,0.13169,0.21489,0.51054,0.16161,-0.018607
1116,0.27145,0.49837,0.11623,0.19746,0.32999,0.64834,0.20436,-0.034722
1117,0.24251,0.44411,0.1432,0.24449,0.45628,0.74141,0.22377,-0.049521
1118,0.19154,0.37998,0.16194,0.26521,0.56283,0.76015,0.22344,-0.058729
1119,0.13037,0.31059,0.17148,0.25633,0.60953,0.68681,0.207,-0.062676
1120,0.076764,0.23166,0.16983,0.22771,0.57763,0.5306,0.1797,-0.059058
1121,0.045193,0.1432,0.15536,0.19351,0.47206,0.33197,0.14681,-0.052152
1122,0.042562,0.053743,0.13103,0.16556,0.32572,0.14484,0.11162,-0.044917
1123,0.063281,-0.023869,0.10538,0.14879,0.17575,0.010662,0.078409,-0.040313
1124,0.093865,-0.079119,0.079724,0.13695,0.04618,-0.057085,0.052757,-0.040641
1125,0.1205,-0.11299,0.055059,0.12116,-0.042286,-0.071884,0.041575,-0.048863
1126,0.13333,-0.12713,0.034011,0.099456,-0.083065,-0.059716,0.047824,-0.061689
1127,0.12905,-0.12187,0.021514,0.077093,-0.080763,-0.04689,0.065254,-0.075501
1128,0.10801,-0.10148,0.020528,0.059992,-0.034722,-0.041299,0.088275,-0.082408
1129,0.07512,-0.072542,0.029078,0.046508,0.064925,-0.034064,0.10669,-0.080763
1130,0.042891,-0.039984,0.0373,0.040589,0.21061,-0.012359,0.11426,-0.076817
1131,0.022501,-0.011372,0.038944,0.041247,0.35466,0.019541,0.10702,-0.074844
1132,0.020528,0.0001381,0.031381,0.044864,0.44246,0.049139,0.08367,-0.07024
1133,0.033354,-0.015319,0.020199,0.049139,0.44806,0.059005,0.049139,-0.062676
1134,0.058348,-0.055112,0.010004,0.055717,0.37768,0.035985,0.014608,-0.054783
1135,0.083013,-0.10346,0.0037556,0.059992,0.26093,-0.011043,-0.01499,-0.049192
1136,0.097483,-0.1393,-0.0034794,0.051113,0.12807,-0.064978,-0.044588,-0.049192
1137,0.093536,-0.15048,-0.013345,0.024474,0.0060577,-0.11793,-0.074844,-0.050179
1138,0.071173,-0.13864,-0.025514,-0.015319,-0.09918,-0.17613,-0.10937,-0.046561
1139,0.034011,-0.11431,-0.041299,-0.062347,-0.1883,-0.25276,-0.14687,-0.03538
1140,-0.010386,-0.085039,-0.057743,-0.1074,-0.25737,-0.35175,-0.18501,-0.018607
1141,-0.053138,-0.053138,-0.070897,-0.14325,-0.30374,-0.4731,-0.22349,0.00046697
1142,-0.089314,-0.013674,-0.076817,-0.16561,-0.31755,-0.60399,-0.25243,0.018226
1143,-0.11431,0.03434,-0.07287,-0.17252,-0.29847,-0.72205,-0.26328,0.031381
1144,-0.1268,0.081039,-0.056098,-0.1587,-0.26328,-0.79868,-0.25112,0.039602
1145,-0.12582,0.11458,-0.032091,-0.12319,-0.2281,-0.81151,-0.21494,0.048482
1146,-0.11069,0.12478,-0.0077547,-0.073528,-0.18995,-0.76678,-0.15936,0.061965
1147,-0.085367,0.11064,0.010333,-0.022883,-0.14062,-0.69081,-0.099509,0.07512
1148,-0.062347,0.077751,0.016253,0.015595,-0.072542,-0.60564,-0.04689,0.086301
1149,-0.05281,0.029736,0.0090175,0.036314,0.010004,-0.51651,-0.0077547,0.096825
1150,-0.061689,-0.026829,-0.007097,0.039602,0.090577,-0.40404,0.013951,0.10307
1151,-0.081421,-0.081421,-0.025514,0.029078,0.15043,-0.24717,0.024474,0.10209
1152,-0.10082,-0.12187,-0.039655,0.012635,0.1843,-0.051165,0.031709,0.093865
1153,-0.10707,-0.13897,-0.04689,0.0011247,0.20732,0.14747,0.040589,0.081697
1154,-0.093589,-0.13141,-0.048205,0.0001381,0.24284,0.30007,0.054072,0.068871
1155,-0.066622,-0.10707,-0.045246,0.0070443,0.30927,0.37505,0.070516,0.05769
1156,-0.038339,-0.076159,-0.038339,0.020199,0.39379,0.37636,0.088603,0.050126
1157,-0.019265,-0.045574,-0.028144,0.045851,0.47765,0.33788,0.1011,0.048153
1158,-0.011043,-0.024527,-0.015648,0.077751,0.55987,0.31158,0.10011,0.049797
1159,-0.011701,-0.017292,-0.0047949,0.10439,0.65261,0.35367,0.088603,0.04881
1160,-0.018936,-0.018936,0.0047422,0.11656,0.76706,0.50528,0.074133,0.044206
1161,-0.032091,-0.02354,0.013293,0.12083,0.89433,0.75686,0.066569,0.03434
1162,-0.047219,-0.021567,0.020857,0.12544,1.0048,1.0403,0.070845,0.020857
1163,-0.0584,-0.0074258,0.027763,0.12971,1.0571,1.2689,0.085644,0.012306
1164,-0.061689,0.022172,0.034011,0.13103,1.0229,1.3834,0.10505,0.012306
1165,-0.054125,0.064596,0.040918,0.12445,0.90847,1.363,0.12379,0.018884
1166,-0.034722,0.11393,0.049139,0.10735,0.74963,1.2235,0.13662,0.02875
1167,-0.0047949,0.15734,0.059334,0.085644,0.58454,1.0022,0.14385,0.034669
1168,0.030394,0.1843,0.0692,0.066569,0.43161,0.73943,0.14418,0.033354
1169,0.069858,0.18957,0.072818,0.06065,0.28527,0.46845,0.13629,0.02875
1170,0.11195,0.17641,0.07216,0.074462,0.12774,0.21588,0.12609,0.024474
1171,0.15273,0.15207,0.07216,0.10472,-0.048534,0.0034268,0.12412,0.021186
1172,0.18332,0.12807,0.075449,0.14254,-0.24026,-0.1587,0.13497,0.01691
1173,0.20305,0.10998,0.079724,0.17674,-0.41884,-0.26328,0.15207,0.013293
1174,0.21094,0.10209,0.084986,0.20206,-0.53131,-0.31459,0.17214,0.0067154
1175,0.21028,0.1057,0.08959,0.21489,-0.53657,-0.31623,0.18759,0.00079584
1176,0.20469,0.12412,0.092879,0.21883,-0.43528,-0.27184,0.19516,-0.0031506
1177,0.19614,0.15372,0.095181,0.21324,-0.28006,-0.19652,0.19022,-0.0067681
1178,0.18661,0.18003,0.093865,0.19253,-0.14884,-0.11464,0.17016,-0.012359
1179,0.17115,0.19351,0.087288,0.15799,-0.088327,-0.051165,0.13596,-0.019594
1180,0.14188,0.19549,0.074462,0.11491,-0.092603,-0.023211,0.08959,-0.026829
1181,0.096496,0.18299,0.05473,0.068543,-0.12023,-0.023211,0.036971,-0.029789
1182,0.041904,0.15767,0.02875,0.026776,-0.12154,-0.020909,-0.01203,-0.025185
1183,-0.0057815,0.11689,-0.00051963,-0.0034794,-0.067937,0.016253,-0.045574,-0.018278
1184,-0.032749,0.068543,-0.024527,-0.022225,0.033354,0.10274,-0.058729,-0.015976
1185,-0.038011,0.02283,-0.035708,-0.035708,0.15142,0.22804,-0.060373,-0.022225
1186,-0.030118,-0.0097279,-0.036366,-0.048863,0.25139,0.35367,-0.059716,-0.031762
1187,-0.019265,-0.024198,-0.034064,-0.062676,0.30697,0.4326,-0.060702,-0.038011
1188,-0.013345,-0.024856,-0.035051,-0.082408,0.30401,0.45036,-0.063333,-0.038339
1189,-0.013674,-0.018278,-0.037024,-0.10576,0.25633,0.43293,-0.062676,-0.03538
1190,-0.016963,-0.0064392,-0.037353,-0.11858,0.18792,0.41484,-0.052481,-0.031762
1191,-0.019265,0.0093464,-0.031762,-0.10872,0.11294,0.40596,-0.035708,-0.033078
1192,-0.015976,0.030065,-0.016963,-0.083394,0.031052,0.38952,-0.019923,-0.039326
1193,-0.014003,0.05473,0.0070443,-0.060373,-0.064649,0.34413,-0.013345,-0.049521
1194,-0.018607,0.075778,0.033354,-0.054125,-0.17022,0.25731,-0.022554,-0.055112
1195,-0.027816,0.090248,0.056046,-0.06728,-0.2669,0.14188,-0.041299,-0.052152
1196,-0.038339,0.10406,0.070516,-0.093589,-0.33827,0.02283,-0.062018,-0.044588
1197,-0.047877,0.12445,0.075449,-0.12121,-0.37181,-0.072542,-0.080434,-0.034064
1198,-0.055112,0.14681,0.072489,-0.13864,-0.37872,-0.13404,-0.094247,-0.0265
1199,-0.055112,0.15372,0.060321,-0.14522,-0.38562,-0.1735,-0.10378,-0.022883
1200,-0.047219,0.1284,0.034669,-0.14358,-0.41884,-0.22185,-0.10937,-0.025514
1201,-0.038668,0.067556,0.00046697,-0.13963,-0.48922,-0.30834,-0.11233,-0.034064
1202,-0.042286,-0.014332,-0.027816,-0.13799,-0.58755,-0.43561,-0.11398,-0.04393
1203,-0.062018,-0.088327,-0.04097,-0.13503,-0.68522,-0.58031,-0.11661,-0.051494
1204,-0.089972,-0.12845,-0.037353,-0.13568,-0.75823,-0.71285,-0.1199,-0.053467
1205,-0.11233,-0.12549,-0.026171,-0.13667,-0.79802,-0.79309,-0.11825,-0.050836
1206,-0.11529,-0.094905,-0.014661,-0.13503,-0.80888,-0.79079,-0.10313,-0.042944
1207,-0.092274,-0.063991,-0.010057,-0.12483,-0.79177,-0.70594,-0.076817,-0.034722
1208,-0.048534,-0.050836,-0.011043,-0.10707,-0.751,-0.57768,-0.045574,-0.028802
1209,-0.0028217,-0.060702,-0.01203,-0.08471,-0.68621,-0.45337,-0.018278,-0.025842
1210,0.02283,-0.088656,-0.0093991,-0.060045,-0.59182,-0.36162,-0.00019077,-0.022883
1211,0.024803,-0.11562,0.0017824,-0.030775,-0.4662,-0.31459,0.016253,-0.018936
1212,0.018884,-0.11957,0.023817,0.010333,-0.31229,-0.30045,0.040589,-0.019265
1213,0.02579,-0.089314,0.056046,0.069529,-0.13864,-0.28894,0.080053,-0.019265
1214,0.05769,-0.030775,0.092221,0.14089,0.049797,-0.25934,0.13366,-0.016634
1215,0.10866,0.033683,0.11787,0.21324,0.25665,-0.21231,0.18496,-0.013345
1216,0.16523,0.080053,0.13103,0.27211,0.48292,-0.15542,0.21949,-0.0084125
1217,0.21193,0.10044,0.13234,0.30467,0.73318,-0.083394,0.22739,0.0011247
1218,0.24153,0.098798,0.12379,0.30598,1.0009,0.011977,0.21127,0.014608
1219,0.25337,0.083999,0.11162,0.27902,1.2449,0.11689,0.1797,0.027763
1220,0.24646,0.06361,0.099127,0.23692,1.387,0.18726,0.14418,0.035327
1221,0.22179,0.042233,0.087288,0.19055,1.3488,0.17937,0.10899,0.035656
1222,0.18397,0.024145,0.073804,0.14879,1.1064,0.080053,0.076435,0.030723
1223,0.13728,0.011648,0.059663,0.11656,0.71937,-0.080763,0.042562,0.028092
1224,0.090248,0.0080309,0.043549,0.094852,0.31782,-0.24947,0.0063866,0.030065
1225,0.051441,0.01132,0.024474,0.083999,0.015595,-0.36819,-0.029131,0.03434
1226,0.024803,0.014937,0.0040845,0.075449,-0.15048,-0.40601,-0.059716,0.043877
1227,0.0054,0.014279,-0.014332,0.061636,-0.20343,-0.37411,-0.086025,0.059663
1228,-0.010386,0.012635,-0.028802,0.04026,-0.18271,-0.30637,-0.10017,0.073147
1229,-0.021238,0.011977,-0.038668,0.019212,-0.12319,-0.23073,-0.097536,0.081697
1230,-0.026829,0.010991,-0.041957,0.0073732,-0.052152,-0.14917,-0.079777,0.085644
1231,-0.025185,0.0080309,-0.034722,0.01132,0.019212,-0.050836,-0.045574,0.08663
1232,-0.019265,0.0047422,-0.019594,0.033025,0.085644,0.078737,0.0044134,0.088275
1233,-0.007097,0.0054,0.0017824,0.070187,0.16194,0.23166,0.064925,0.093208
1234,0.0080309,0.012306,0.025132,0.11787,0.26422,0.38327,0.12248,0.099127
1235,0.024474,0.029736,0.046508,0.16326,0.38886,0.50199,0.16391,0.10209
1236,0.041247,0.053743,0.064596,0.19746,0.49903,0.55461,0.18102,0.1011
1237,0.055059,0.074133,0.077422,0.21719,0.54573,0.52139,0.17345,0.096825
1238,0.06361,0.079724,0.082355,0.22311,0.49212,0.40201,0.14846,0.092221
1239,0.066569,0.073476,0.084328,0.2162,0.3438,0.22147,0.11557,0.089261
1240,0.061636,0.059992,0.085644,0.20601,0.15372,0.017568,0.085972,0.089919
1241,0.055059,0.040918,0.088275,0.20371,-0.0061104,-0.15279,0.069529,0.091892
1242,0.054072,0.015266,0.088603,0.19877,-0.091287,-0.23895,0.068871,0.09551
1243,0.06624,-0.011701,0.082026,0.17115,-0.093918,-0.2054,0.081368,0.099127
1244,0.092879,-0.039655,0.064267,0.11689,-0.047219,-0.0584,0.097483,0.099127
1245,0.1307,-0.067609,0.033683,0.04322,0.0057288,0.13695,0.1113,0.097812
1246,0.17246,-0.093918,-0.0015062,-0.032091,0.032696,0.28823,0.12116,0.09551
1247,0.20436,-0.11168,-0.029789,-0.086683,0.029736,0.3369,0.12149,0.093536
1248,0.20864,-0.11036,-0.038011,-0.10543,0.0073732,0.27737,0.10768,0.093865
1249,0.17773,-0.079119,-0.024198,-0.087998,-0.01795,0.1478,0.07808,0.096496
1250,0.11557,-0.013017,0.0063866,-0.04393,-0.039655,0.0063866,0.040589,0.10143
1251,0.036971,0.083342,0.048153,0.00079584,-0.06728,-0.10707,0.0080309,0.10834
1252,-0.038997,0.19877,0.08959,0.024474,-0.11595,-0.18633,-0.020252,0.11623
1253,-0.094576,0.30927,0.11853,0.019212,-0.19455,-0.24783,-0.042615,0.11853
1254,-0.11529,0.3984,0.12905,-0.0074258,-0.30374,-0.3011,-0.059387,0.1136
1255,-0.099838,0.45693,0.11985,-0.041957,-0.42871,-0.34484,-0.069911,0.096496
1256,-0.062347,0.47765,0.094852,-0.074515,-0.54414,-0.36688,-0.075173,0.073147
1257,-0.021896,0.45759,0.06624,-0.10247,-0.6257,-0.36063,-0.074844,0.047495
1258,0.0090175,0.40267,0.047166,-0.12483,-0.6622,-0.33136,-0.072213,0.023159
1259,0.033683,0.32572,0.046508,-0.12944,-0.66352,-0.29025,-0.066293,0.002769
1260,0.06065,0.24054,0.057361,-0.10017,-0.64411,-0.24585,-0.057743,-0.010057
1261,0.090248,0.15799,0.071831,-0.030775,-0.61517,-0.20047,-0.049521,-0.019594
1262,0.11064,0.083342,0.078409,0.057361,-0.57702,-0.15311,-0.042944,-0.027487
1263,0.1113,0.017239,0.069529,0.1284,-0.52671,-0.10214,-0.036695,-0.039655
1264,0.087288,-0.042944,0.041904,0.15207,-0.46685,-0.048863,-0.027158,-0.053138
1265,0.041575,-0.10148,0.0054,0.12412,-0.39944,0.0054,-0.013017,-0.062676
1266,-0.013017,-0.15279,-0.029789,0.066569,-0.31886,0.064267,0.0014536,-0.067609
1267,-0.059716,-0.18896,-0.054454,0.0017824,-0.22283,0.12675,0.015924,-0.067937
1268,-0.0903,-0.20014,-0.06728,-0.054454,-0.1199,0.19121,0.032038,-0.06728
1269,-0.10247,-0.17877,-0.065635,-0.091287,-0.038997,0.25271,0.047495,-0.068266
1270,-0.098851,-0.12253,-0.045574,-0.1051,0.00079584,0.30302,0.060979,-0.068595
1271,-0.085696,-0.042286,-0.01499,-0.10214,0.0037556,0.33887,0.071831,-0.066622
1272,-0.07024,0.041247,0.013293,-0.089314,0.011977,0.35827,0.083013,-0.062676
1273,-0.058729,0.10439,0.029407,-0.074844,0.068871,0.36156,0.093208,-0.060702
1274,-0.04985,0.13563,0.027763,-0.064978,0.19647,0.35203,0.10044,-0.063333
1275,-0.039326,0.13563,0.011977,-0.058729,0.37965,0.3346,0.10866,-0.073528
1276,-0.026171,0.1136,-0.010057,-0.050179,0.57467,0.30894,0.11787,-0.084381
1277,-0.011701,0.083013,-0.030447,-0.031104,0.72989,0.27507,0.12675,-0.091945
1278,-0.0024928,0.057361,-0.042944,-0.0011774,0.80257,0.23955,0.133,-0.094905
1279,-0.00019077,0.038944,-0.041628,0.032367,0.76377,0.20206,0.13892,-0.092931
1280,-0.0077547,0.02875,-0.024198,0.063281,0.61052,0.15503,0.14188,-0.086354
1281,-0.018278,0.024145,0.0050711,0.09255,0.37866,0.09551,0.14254,-0.084052
1282,-0.021896,0.023159,0.033354,0.12083,0.12445,0.031052,0.14385,-0.090958
1283,-0.0090702,0.02579,0.052428,0.14681,-0.097536,-0.026171,0.14944,-0.1051
1284,0.020199,0.034998,0.061965,0.16457,-0.24717,-0.06432,0.15536,-0.12121
1285,0.056374,0.046837,0.065583,0.1672,-0.32051,-0.085367,0.15931,-0.13536
1286,0.084986,0.06065,0.066898,0.15668,-0.33399,-0.099509,0.15635,-0.14719
1287,0.095839,0.066569,0.060979,0.13234,-0.31557,-0.11398,0.14451,-0.15673
1288,0.092879,0.059663,0.051113,0.10242,-0.2942,-0.12944,0.12741,-0.16397
1289,0.087617,0.039273,0.041247,0.072818,-0.27973,-0.13864,0.11228,-0.16791
1290,0.089919,0.013293,0.035656,0.053415,-0.26427,-0.13075,0.10307,-0.1643
1291,0.095181,-0.010386,0.030723,0.048153,-0.23566,-0.10115,0.10077,-0.15147
1292,0.09551,-0.028144,0.02875,0.050784,-0.18436,-0.048534,0.1034,-0.13141
1293,0.085972,-0.034064,0.031709,0.05177,-0.1074,0.025461,0.10998,-0.11003
1294,0.066898,-0.028802,0.035327,0.044535,-0.010057,0.12445,0.11787,-0.091287
1295,0.044206,-0.01795,0.034998,0.030065,0.08367,0.24021,0.12379,-0.077803
1296,0.025461,-0.0093991,0.027763,0.01691,0.13201,0.354,0.12577,-0.070568
1297,0.01987,-0.0057815,0.013622,0.0067154,0.10373,0.4395,0.12511,-0.06432
1298,0.026447,-0.0028217,-0.002164,-0.0028217,0.010333,0.4793,0.12741,-0.051823
1299,0.042562,0.0037556,-0.017621,-0.013345,-0.10806,0.47009,0.1307,-0.037024
1300,0.05769,0.014608,-0.028144,-0.02354,-0.2031,0.42602,0.12905,-0.023211
1301,0.064596,0.028092,-0.035708,-0.03242,-0.24717,0.36321,0.11393,-0.012359
1302,0.060979,0.038287,-0.044917,-0.042944,-0.23336,0.29086,0.085972,-0.0034794
1303,0.046837,0.041904,-0.053796,-0.054125,-0.17778,0.20864,0.04881,0.0050711
1304,0.024474,0.040589,-0.062347,-0.062347,-0.11168,0.10998,0.0054,0.010333
1305,0.002769,0.030723,-0.068924,-0.067937,-0.06136,-0.0041372,-0.036037,0.013622
1306,-0.0084125,0.0073732,-0.071226,-0.068595,-0.033078,-0.1268,-0.070897,0.016581
1307,-0.0087413,-0.031433,-0.068924,-0.062347,-0.027158,-0.24454,-0.093918,0.020857
1308,-0.004466,-0.07583,-0.062347,-0.052481,-0.042286,-0.35142,-0.10346,0.026447
1309,0.0017824,-0.11233,-0.050507,-0.038668,-0.070568,-0.44613,-0.097864,0.032696
1310,0.0050711,-0.13305,-0.038668,-0.01795,-0.10773,-0.52539,-0.082736,0.040918
1311,0.0044134,-0.13371,-0.02946,0.0067154,-0.1564,-0.58327,-0.064978,0.049468
1312,0.0014536,-0.11793,-0.025185,0.02875,-0.22546,-0.61813,-0.055112,0.056046
1313,-0.0018351,-0.096549,-0.028473,0.038287,-0.30998,-0.63754,-0.05544,0.055388
1314,-0.0018351,-0.07879,-0.038997,0.028421,-0.39746,-0.64411,-0.066951,0.051113
1315,0.0044134,-0.065964,-0.05544,-0.00051963,-0.46225,-0.63359,-0.086025,0.047495
1316,0.018555,-0.057414,-0.070897,-0.036037,-0.48001,-0.5984,-0.10477,0.044535
1317,0.036314,-0.049192,-0.077146,-0.061689,-0.43101,-0.53888,-0.11924,0.049797
1318,0.051441,-0.039984,-0.071555,-0.072213,-0.31294,-0.46324,-0.12812,0.058676
1319,0.059992,-0.02946,-0.054783,-0.069911,-0.14983,-0.38036,-0.13174,0.064596
1320,0.064267,-0.019265,-0.031433,-0.057085,0.013622,-0.29847,-0.12944,0.062952
1321,0.065583,-0.012359,-0.0090702,-0.039326,0.13399,-0.21955,-0.1222,0.056703
1322,0.064596,-0.0084125,0.0080309,-0.020909,0.21785,-0.13272,-0.10609,0.048153
1323,0.059334,-0.0057815,0.017897,0.0011247,0.30862,-0.021896,-0.079448,0.036971
1324,0.049797,-0.00019077,0.025132,0.025461,0.43128,0.10965,-0.044588,0.027105
1325,0.039931,0.014937,0.032696,0.054072,0.56579,0.23363,-0.0074258,0.017239
1326,0.032367,0.04026,0.038287,0.083342,0.65689,0.30401,0.026447,0.010004
1327,0.023817,0.068871,0.041575,0.10834,0.66281,0.29119,0.049139,0.0057288
1328,0.010004,0.091234,0.041904,0.12313,0.59835,0.21785,0.053086,0.0073732
1329,-0.011043,0.097483,0.039602,0.12083,0.53521,0.1501,0.0373,0.017239
1330,-0.033735,0.084328,0.038616,0.10735,0.55823,0.14879,0.0083598,0.033683
1331,-0.051165,0.059663,0.039602,0.090905,0.7095,0.22673,-0.022554,0.052099
1332,-0.058071,0.043549,0.040918,0.078737,0.93774,0.354,-0.038997,0.065254
1333,-0.056098,0.055388,0.045193,0.081368,1.1291,0.48752,-0.030447,0.074133
1334,-0.047548,0.090248,0.053086,0.10176,1.1949,0.61117,0.0073732,0.079395
1335,-0.035708,0.13333,0.061965,0.14056,1.1199,0.72825,0.067885,0.081697
1336,-0.025514,0.1649,0.071502,0.18463,0.94991,0.85223,0.13662,0.078737
1337,-0.018607,0.17477,0.078409,0.22377,0.74009,0.9726,0.1922,0.070187
1338,-0.014332,0.16523,0.077751,0.23594,0.52468,1.0597,0.21949,0.058348
1339,-0.0077547,0.14451,0.064267,0.20996,0.3244,1.1018,0.22179,0.052099
1340,0.0054,0.11327,0.041904,0.15142,0.16095,1.1265,0.21226,0.051441
1341,0.028421,0.074462,0.018226,0.086959,0.051113,1.1693,0.20765,0.053743
1342,0.056703,0.031381,0.0054,0.046837,-0.020252,1.2291,0.21193,0.055059
1343,0.078737,-0.013674,0.016581,0.04881,-0.072213,1.2775,0.21851,0.050455
1344,0.08663,-0.050507,0.055717,0.091563,-0.10609,1.2886,0.22081,0.042562
1345,0.08663,-0.06432,0.11162,0.15273,-0.12352,1.2449,0.21423,0.032696
1346,0.08663,-0.040313,0.16687,0.20305,-0.1393,1.1406,0.19318,0.01987
1347,0.090248,0.010991,0.1991,0.22015,-0.17022,0.98049,0.15405,0.0086887
1348,0.086959,0.055717,0.1968,0.19877,-0.24026,0.76969,0.099456,0.0034268
1349,0.074133,0.06361,0.16326,0.15306,-0.35537,0.52534,0.044864,0.0011247
1350,0.059992,0.029078,0.1136,0.10373,-0.48363,0.27507,-0.00051963,0.0014536
1351,0.060979,-0.031433,0.068214,0.071173,-0.57308,0.047824,-0.031433,-0.0008485
1352,0.079395,-0.08471,0.043877,0.06361,-0.5767,-0.1416,-0.045574,-0.0093991
1353,0.10834,-0.10707,0.044535,0.075778,-0.456,-0.28104,-0.046232,-0.022883
1354,0.13662,-0.090629,0.068543,0.10307,-0.20277,-0.35109,-0.038997,-0.036366
1355,0.15438,-0.042944,0.10505,0.14122,0.14616,-0.32972,-0.021567,-0.04689
1356,0.15339,0.014937,0.13892,0.182,0.51186,-0.22448,0.0096753,-0.055112
1357,0.1353,0.059334,0.16293,0.22048,0.80093,-0.08471,0.050126,-0.057743
1358,0.11097,0.076435,0.17246,0.24383,0.92886,0.0073732,0.088932,-0.058071
1359,0.08663,0.062294,0.16457,0.23922,0.85388,-0.016634,0.1113,-0.060702
1360,0.064925,0.017897,0.14254,0.207,0.60821,-0.1689,0.10702,-0.067937
1361,0.045522,-0.044588,0.11557,0.15964,0.28428,-0.39944,0.081368,-0.074186
1362,0.033354,-0.10872,0.092221,0.11557,-0.01499,-0.62899,0.04881,-0.078132
1363,0.030394,-0.15476,0.077093,0.088275,-0.23106,-0.78651,0.023159,-0.079777
1364,0.043549,-0.15213,0.068871,0.079724,-0.35866,-0.83814,0.010333,-0.082736
1365,0.074791,-0.074844,0.059663,0.083013,-0.42969,-0.80033,0.0024402,-0.084052
1366,0.1113,0.063281,0.043877,0.081697,-0.48231,-0.71318,-0.011701,-0.084381
1367,0.133,0.2139,0.024474,0.061965,-0.53164,-0.61945,-0.035051,-0.077146
1368,0.12379,0.32506,0.0034268,0.023817,-0.57406,-0.54545,-0.068924,-0.06136
1369,0.084657,0.37143,-0.015976,-0.027816,-0.60432,-0.49415,-0.11003,-0.039984
1370,0.031052,0.35827,-0.032749,-0.084052,-0.62339,-0.45633,-0.15147,-0.015976
1371,-0.01795,0.31125,-0.044588,-0.13207,-0.63063,-0.41818,-0.18633,0.0096753
1372,-0.046232,0.25797,-0.047548,-0.16265,-0.62307,-0.37839,-0.20771,0.029407
1373,-0.054125,0.21818,-0.042615,-0.17482,-0.59445,-0.34649,-0.21198,0.037629
1374,-0.046232,0.19812,-0.029131,-0.1689,-0.54085,-0.34024,-0.20475,0.038616
1375,-0.034722,0.20108,-0.010715,-0.15476,-0.46159,-0.36852,-0.19751,0.038944
1376,-0.041957,0.21226,0.0067154,-0.14259,-0.3557,-0.42772,-0.20244,0.040918
1377,-0.082408,0.21719,0.011977,-0.1416,-0.22842,-0.49908,-0.22119,0.043877
1378,-0.1518,0.20272,0.0011247,-0.1541,-0.077475,-0.56683,-0.25079,0.048482
1379,-0.2304,0.15997,-0.022883,-0.17877,0.096167,-0.62142,-0.28663,0.055717
1380,-0.29453,0.088275,-0.053796,-0.21428,0.26389,-0.66089,-0.32347,0.066898
1381,-0.32741,-0.0024928,-0.087669,-0.2475,0.36814,-0.68917,-0.35635,0.080053
1382,-0.3284,-0.090958,-0.11957,-0.27447,0.36255,-0.70956,-0.3797,0.088932
1383,-0.30801,-0.15311,-0.14292,-0.2942,0.24646,-0.71285,-0.39056,0.095181
1384,-0.27841,-0.17975,-0.15509,-0.30505,0.070516,-0.69607,-0.3899,0.10307
1385,-0.24618,-0.17318,-0.15213,-0.30505,-0.084052,-0.65036,-0.37444,0.1113
1386,-0.2133,-0.14588,-0.1393,-0.2942,-0.14423,-0.5665,-0.34123,0.11491
1387,-0.17515,-0.11168,-0.11825,-0.26986,-0.077146,-0.43989,-0.28959,0.11721
1388,-0.13305,-0.078461,-0.087341,-0.22875,0.12215,-0.27315,-0.22283,0.11327
1389,-0.086025,-0.047877,-0.051165,-0.17383,0.41879,-0.080763,-0.14555,0.10274
1390,-0.039984,-0.01795,-0.013345,-0.10806,0.74436,0.11491,-0.063333,0.085972
1391,0.0047422,0.012306,0.019541,-0.031762,1.0071,0.27704,0.010662,0.066898
1392,0.047166,0.04026,0.044535,0.047824,1.1216,0.37176,0.065912,0.050126
1393,0.079395,0.058676,0.060321,0.11689,1.0456,0.37242,0.095839,0.038287
1394,0.09551,0.061307,0.065912,0.16687,0.77791,0.28559,0.10209,0.032367
1395,0.094852,0.052428,0.061636,0.18957,0.38162,0.14254,0.09551,0.032038
1396,0.082026,0.037629,0.048153,0.18792,-0.028144,-0.0077547,0.088275,0.036314
1397,0.06361,0.021843,0.029736,0.16885,-0.31459,-0.11102,0.093208,0.043877
1398,0.047166,0.0083598,0.014937,0.14122,-0.38529,-0.13503,0.11426,0.050784
1399,0.043877,-0.00051963,0.0093464,0.11557,-0.25079,-0.086354,0.14912,0.059334
1400,0.05769,-0.0028217,0.012306,0.097812,-0.015648,0.0021113,0.18924,0.066898
1401,0.085315,0.0021113,0.021843,0.092221,0.17641,0.086959,0.22739,0.070845
1402,0.11721,0.010991,0.03434,0.094523,0.23594,0.12313,0.25961,0.067885
1403,0.1432,0.01691,0.042233,0.098469,0.16983,0.094523,0.27672,0.059334
1404,0.15569,0.014937,0.045522,0.094194,0.049468,0.02579,0.27376,0.050126
1405,0.15471,0.0077021,0.04322,0.079395,-0.041628,-0.034722,0.25139,0.037958
1406,0.14484,-0.0018351,0.038944,0.061307,-0.051494,-0.043272,0.21588,0.025132
1407,0.1353,-0.010057,0.036971,0.048153,0.023488,0.012306,0.17871,0.011977
1408,0.13136,-0.015319,0.037629,0.046837,0.13695,0.11294,0.15372,0.002769
1409,0.1307,-0.015976,0.037958,0.055717,0.2241,0.22903,0.14484,-0.0034794
1410,0.12609,-0.011372,0.034011,0.067227,0.24054,0.33295,0.14089,-0.0067681
1411,0.11721,-0.0051238,0.026119,0.071502,0.17214,0.39971,0.13169,-0.013345
1412,0.10472,-0.00019077,0.018555,0.065254,0.040589,0.41451,0.11458,-0.019923
1413,0.088603,0.0040845,0.017568,0.049468,-0.10905,0.38064,0.095839,-0.022225
1414,0.068543,-0.0038083,0.021514,0.032367,-0.23566,0.31552,0.086301,-0.017292
1415,0.046508,-0.025185,0.025461,0.013951,-0.32051,0.23429,0.088932,-0.0051238
1416,0.025132,-0.053796,0.026447,0.00079584,-0.37082,0.14089,0.10011,0.0080309
1417,0.013622,-0.07879,0.025132,-0.0038083,-0.4047,0.038944,0.10866,0.012964
1418,0.015595,-0.088656,0.020528,0.0011247,-0.43364,-0.061689,0.11261,0.0096753
1419,0.033683,-0.080434,0.015266,0.01132,-0.4583,-0.14259,0.11787,0.0014536
1420,0.065583,-0.055112,0.014608,0.02283,-0.46883,-0.18337,0.12807,-0.0090702
1421,0.099785,-0.0265,0.018555,0.035656,-0.45567,-0.17285,0.14024,-0.01795
1422,0.12511,-0.0051238,0.02579,0.044535,-0.41292,-0.11957,0.14616,-0.024856
1423,0.13464,0.0077021,0.036971,0.045522,-0.35241,-0.045574,0.14221,-0.028473
1424,0.12971,0.020528,0.049468,0.037958,-0.29025,0.018555,0.13103,-0.028473
1425,0.11952,0.039602,0.060979,0.027763,-0.24158,0.058019,0.12017,-0.024527
1426,0.10899,0.060979,0.070187,0.018226,-0.21395,0.071831,0.11327,-0.018278
1427,0.10044,0.079066,0.0692,0.014608,-0.21132,0.067556,0.10866,-0.013674
1428,0.090905,0.084657,0.056046,0.015595,-0.23171,0.054401,0.10899,-0.014332
1429,0.083013,0.068543,0.029736,0.01987,-0.26592,0.040589,0.11985,-0.020252
1430,0.080053,0.024145,-0.0028217,0.029407,-0.29749,0.039931,0.13793,-0.031762
1431,0.08367,-0.041628,-0.032091,0.041247,-0.31853,0.057032,0.15339,-0.045574
1432,0.088275,-0.11135,-0.050507,0.049797,-0.33169,0.08663,0.15832,-0.059387
1433,0.088603,-0.15476,-0.054125,0.051441,-0.32643,0.11623,0.14912,-0.068266
1434,0.081368,-0.15279,-0.044588,0.050784,-0.27381,0.1501,0.13103,-0.068924
1435,0.073804,-0.11365,-0.025514,0.052757,-0.15311,0.20075,0.11327,-0.065964
1436,0.073476,-0.057414,-0.0028217,0.059334,0.014608,0.26882,0.099127,-0.063004
1437,0.077422,-0.0038083,0.017897,0.068543,0.16983,0.3346,0.092879,-0.065307
1438,0.080053,0.03434,0.033025,0.074133,0.26126,0.37669,0.088932,-0.071884
1439,0.071173,0.052428,0.042891,0.073476,0.27014,0.39511,0.090577,-0.079448
1440,0.050784,0.05769,0.051113,0.062623,0.20963,0.40432,0.1011,-0.084052
1441,0.026447,0.060321,0.06361,0.052428,0.12116,0.4178,0.12083,-0.084381
1442,0.0096753,0.063938,0.080382,0.052757,0.034669,0.43918,0.14287,-0.078461
1443,0.0080309,0.068871,0.098798,0.071173,-0.043272,0.45891,0.16095,-0.065307
1444,0.023159,0.070516,0.1136,0.099127,-0.11891,0.45661,0.17214,-0.042944
1445,0.05177,0.066569,0.11721,0.12083,-0.18567,0.41747,0.17246,-0.015648
1446,0.085644,0.056374,0.10505,0.12511,-0.22612,0.34446,0.15931,0.0086887
1447,0.11064,0.042233,0.079724,0.10998,-0.22711,0.25172,0.13464,0.02283
1448,0.11853,0.023488,0.049797,0.082355,-0.19159,0.16095,0.10176,0.021514
1449,0.10998,-0.00051963,0.024803,0.058676,-0.1393,0.090248,0.070845,0.0096753
1450,0.090248,-0.024198,0.010991,0.046837,-0.09326,0.051441,0.051441,-0.0064392
1451,0.061965,-0.040313,0.0096753,0.04322,-0.0584,0.05177,0.045851,-0.019265
1452,0.030394,-0.038668,0.013951,0.041575,-0.026829,0.088603,0.053086,-0.023211
1453,0.0024402,-0.021896,0.017239,0.041575,0.0017824,0.13991,0.061965,-0.019265
1454,-0.017292,0.0011247,0.01691,0.044864,0.021843,0.17378,0.064596,-0.010057
1455,-0.024527,0.018884,0.014279,0.047824,0.031709,0.17082,0.056703,0.0014536
1456,-0.017292,0.033025,0.010004,0.047495,0.041247,0.13497,0.042233,0.011648
1457,0.0057288,0.057032,0.0044134,0.044535,0.075778,0.097154,0.031381,0.018555
1458,0.040589,0.10176,0.0001381,0.04322,0.15602,0.086959,0.027763,0.021186
1459,0.076764,0.16556,-0.00019077,0.048153,0.28658,0.11689,0.03434,0.023159
1460,0.099456,0.22673,-0.0008485,0.059334,0.44575,0.1774,0.04618,0.027763
1461,0.1011,0.26159,0.0040845,0.072818,0.59868,0.2435,0.054072,0.034998
1462,0.08663,0.25961,0.017897,0.084986,0.71115,0.29184,0.053743,0.040918
1463,0.065583,0.22541,0.039273,0.094194,0.75489,0.30829,0.04618,0.045522
1464,0.049139,0.17411,0.059334,0.099785,0.7197,0.30007,0.033025,0.042891
1465,0.042891,0.12215,0.071173,0.10044,0.62433,0.27178,0.01691,0.035327
1466,0.036971,0.085972,0.068871,0.091563,0.50495,0.21982,0.0001381,0.027105
1467,0.016581,0.070187,0.052099,0.067556,0.38195,0.13958,-0.021896,0.02283
1468,-0.023211,0.068871,0.02579,0.032367,0.26323,0.042891,-0.050836,0.020199
1469,-0.076488,0.073804,-0.00051963,-0.0064392,0.15207,-0.051494,-0.08471,0.017568
1470,-0.13305,0.075778,-0.017621,-0.03538,0.055388,-0.12944,-0.11299,0.015924
1471,-0.17975,0.072818,-0.02354,-0.04689,-0.021896,-0.17909,-0.1245,0.015924
1472,-0.20836,0.065254,-0.017292,-0.046232,-0.079448,-0.19685,-0.11924,0.01987
1473,-0.21198,0.054401,-0.0074258,-0.041299,-0.12056,-0.18732,-0.10017,0.027105
1474,-0.19718,0.038287,0.0001381,-0.037353,-0.1518,-0.16166,-0.081421,0.038616
1475,-0.16956,0.016581,0.0030979,-0.035051,-0.17219,-0.13733,-0.071226,0.049139
1476,-0.13601,-0.0024928,0.0054,-0.039655,-0.17712,-0.13338,-0.06728,0.05473
1477,-0.10444,-0.013017,0.0030979,-0.05281,-0.17219,-0.15706,-0.066293,0.054072
1478,-0.076817,-0.011372,-0.0008485,-0.06728,-0.16528,-0.19751,-0.065307,0.045522
1479,-0.048534,0.0001381,-0.0054526,-0.076488,-0.16134,-0.24289,-0.063004,0.035985
1480,-0.016963,0.014608,-0.011043,-0.078461,-0.16265,-0.28663,-0.059716,0.031052
1481,0.014937,0.024145,-0.018278,-0.076488,-0.17679,-0.34254,-0.061031,0.032367
1482,0.037629,0.022172,-0.027158,-0.079777,-0.21856,-0.42081,-0.07287,0.04026
1483,0.036642,0.010991,-0.038668,-0.09326,-0.28499,-0.52013,-0.089972,0.05473
1484,0.010662,-0.0028217,-0.050836,-0.11233,-0.36227,-0.62011,-0.10378,0.07216
1485,-0.033078,-0.012359,-0.059387,-0.11891,-0.42443,-0.68917,-0.1097,0.086959
1486,-0.076817,-0.010386,-0.053796,-0.10247,-0.43627,-0.68424,-0.098193,0.093865
1487,-0.095233,0.0073732,-0.029131,-0.053138,-0.37609,-0.57078,-0.060702,0.094523
1488,-0.077475,0.038616,0.015924,0.033354,-0.24914,-0.35043,0.0044134,0.085315
1489,-0.028473,0.069529,0.073147,0.14714,-0.07879,-0.063662,0.09255,0.0692
1490,0.033025,0.091563,0.13103,0.26586,0.12675,0.23363,0.18463,0.051113
1491,0.088275,0.098798,0.17411,0.35663,0.38327,0.49278,0.25633,0.033683
1492,0.12642,0.093536,0.19351,0.39544,0.69306,0.67958,0.29316,0.013951
1493,0.1478,0.088275,0.19285,0.38426,1.019,0.77824,0.29447,-0.0028217
1494,0.15668,0.087946,0.18397,0.35071,1.2926,0.79271,0.27704,-0.017621
1495,0.16359,0.094194,0.18134,0.32539,1.4435,0.72825,0.26389,-0.028802
1496,0.18003,0.10472,0.19088,0.32736,1.4264,0.57401,0.26192,-0.038997
1497,0.207,0.12248,0.21094,0.34841,1.2265,0.32374,0.26488,-0.04689
1498,0.23692,0.15043,0.22706,0.36814,0.86769,0.0021113,0.26356,-0.056756
1499,0.25369,0.18825,0.22377,0.37044,0.40464,-0.33333,0.25008,-0.068595
1500,0.24909,0.22508,0.20009,0.35071,-0.093918,-0.6178,0.2264,-0.079119
1501,0.22673,0.24021,0.16654,0.31782,-0.54216,-0.79967,0.20075,-0.086025
1502,0.1922,0.21851,0.13629,0.28296,-0.85097,-0.8536,0.17542,-0.086354
1503,0.15109,0.16523,0.11458,0.25106,-0.94404,-0.78158,0.14977,-0.08175
1504,0.10801,0.099456,0.10143,0.22015,-0.79243,-0.59676,0.12544,-0.076817
1505,0.0692,0.048153,0.092221,0.19022,-0.44975,-0.32577,0.10834,-0.074844
1506,0.042233,0.027105,0.085315,0.16786,-0.038011,-0.0090702,0.10307,-0.073528
1507,0.032696,0.039602,0.079395,0.15734,0.31585,0.30039,0.10768,-0.071555
1508,0.036314,0.076764,0.075778,0.15536,0.5306,0.55987,0.1205,-0.065635
1509,0.045522,0.12445,0.074462,0.15701,0.58125,0.73549,0.13103,-0.061689
1510,0.04881,0.17806,0.075449,0.16128,0.48851,0.8108,0.12873,-0.062347
1511,0.040918,0.23331,0.074791,0.16095,0.30039,0.78449,0.10932,-0.067937
1512,0.024474,0.27968,0.068871,0.15076,0.07808,0.66313,0.07512,-0.072213
1513,0.0086887,0.30697,0.06065,0.12741,-0.11825,0.46812,0.032367,-0.07024
1514,-0.002164,0.30796,0.050126,0.090905,-0.25769,0.23396,-0.016305,-0.059058
1515,-0.013017,0.28954,0.04026,0.041575,-0.33827,0.0093464,-0.063004,-0.044588
1516,-0.024856,0.25435,0.030065,-0.013017,-0.38003,-0.16265,-0.097864,-0.030118
1517,-0.034064,0.1991,0.015266,-0.061689,-0.41292,-0.2646,-0.11858,-0.024856
1518,-0.040313,0.11754,-0.0047949,-0.099509,-0.47475,-0.31459,-0.12845,-0.027816
1519,-0.038997,0.014608,-0.029789,-0.1245,-0.5767,-0.34024,-0.12746,-0.034064
1520,-0.025842,-0.090629,-0.052152,-0.1347,-0.69015,-0.358,-0.1222,-0.038668
1521,0.00046697,-0.18469,-0.068266,-0.13108,-0.76086,-0.3626,-0.11529,-0.045574
1522,0.038944,-0.25473,-0.077475,-0.11562,-0.77073,-0.33596,-0.10346,-0.053138
1523,0.074133,-0.2919,-0.078461,-0.095562,-0.73883,-0.27348,-0.092931,-0.057743
1524,0.093208,-0.29124,-0.070568,-0.073199,-0.69476,-0.1837,-0.085039,-0.059058
1525,0.083342,-0.25243,-0.056427,-0.054783,-0.65168,-0.07583,-0.082736,-0.0584
1526,0.047495,-0.18205,-0.039326,-0.048205,-0.60531,0.041904,-0.08471,-0.059716
1527,-0.0018351,-0.093918,-0.022883,-0.054783,-0.53263,0.14813,-0.089972,-0.064978
1528,-0.050836,-0.00051963,-0.0090702,-0.07287,-0.40338,0.22278,-0.095233,-0.069911
1529,-0.094576,0.079395,-0.0024928,-0.11003,-0.21034,0.25468,-0.10017,-0.067609
1530,-0.12483,0.12905,-0.011043,-0.17285,0.0001381,0.24745,-0.11135,-0.058071
1531,-0.14292,0.14188,-0.033735,-0.26164,0.15668,0.2093,-0.13141,-0.04689
1532,-0.15015,0.12116,-0.066622,-0.35208,0.21489,0.14912,-0.15969,-0.038997
1533,-0.14719,0.076106,-0.10082,-0.42114,0.1843,0.077751,-0.18995,-0.035708
1534,-0.13864,0.018884,-0.1268,-0.45304,0.10636,0.012635,-0.21527,-0.035051
1535,-0.13141,-0.042615,-0.13799,-0.44449,0.030394,-0.03242,-0.22711,-0.028802
1536,-0.12582,-0.098522,-0.1347,-0.39779,-0.0077547,-0.057414,-0.22152,-0.01203
1537,-0.11825,-0.14095,-0.12319,-0.32939,0.0054,-0.066622,-0.19916,0.010333
1538,-0.10214,-0.15838,-0.11036,-0.25967,0.073476,-0.0584,-0.16791,0.032038
1539,-0.077475,-0.15344,-0.099838,-0.20343,0.2014,-0.029789,-0.13305,0.045522
1540,-0.051165,-0.13042,-0.088656,-0.16956,0.39544,0.019541,-0.10214,0.047495
1541,-0.028473,-0.095233,-0.073857,-0.15213,0.63748,0.083013,-0.075173,0.041247
1542,-0.011701,-0.056756,-0.054454,-0.14226,0.86407,0.15438,-0.051494,0.032696
1543,0.002769,-0.024856,-0.030775,-0.12944,0.99891,0.22212,-0.026829,0.025461
1544,0.021186,-0.0028217,-0.0061104,-0.096878,1.0137,0.28198,0.0017824,0.020857
1545,0.044535,0.012964,0.020528,-0.022883,0.92623,0.32637,0.033683,0.020199
1546,0.066898,0.023159,0.04618,0.097812,0.77495,0.34348,0.062294,0.022501
1547,0.080382,0.025461,0.06624,0.23692,0.58914,0.31223,0.081697,0.024803
1548,0.079395,0.020528,0.077093,0.3517,0.39182,0.22508,0.087288,0.026119
1549,0.064596,0.0086887,0.076764,0.40399,0.19516,0.099456,0.085644,0.028421
1550,0.046508,-0.0084125,0.068214,0.38623,0.012306,-0.02946,0.086959,0.030723
1551,0.030723,-0.028473,0.056703,0.32013,-0.13766,-0.12845,0.097812,0.032038
1552,0.020528,-0.045246,0.044206,0.24087,-0.25441,-0.18074,0.11031,0.03434
1553,0.016581,-0.05281,0.035327,0.17806,-0.34616,-0.18501,0.11458,0.038287
1554,0.018555,-0.046561,0.027434,0.14089,-0.41818,-0.15739,0.11064,0.04322
1555,0.024145,-0.029131,0.018226,0.12544,-0.46817,-0.12089,0.098141,0.049468
1556,0.030065,-0.015319,0.0057288,0.1159,-0.47968,-0.087669,0.083013,0.054401
1557,0.030723,-0.01499,-0.010386,0.096496,-0.43199,-0.054125,0.065583,0.056374
1558,0.030065,-0.017621,-0.026171,0.066898,-0.3113,-0.0047949,0.045522,0.05769
1559,0.033025,-0.0064392,-0.03538,0.034998,-0.12286,0.072818,0.023159,0.061307
1560,0.044206,0.03434,-0.035051,0.0047422,0.11064,0.18299,0.0050711,0.06624
1561,0.065583,0.097483,-0.028144,-0.023211,0.35367,0.31717,-0.00051963,0.072489
1562,0.093208,0.15997,-0.023869,-0.043601,0.55625,0.4474,0.012306,0.079724
1563,0.12149,0.19614,-0.024527,-0.057085,0.67201,0.53981,0.04026,0.086301
1564,0.14352,0.18891,-0.031104,-0.065635,0.67662,0.56645,0.070516,0.089261
1565,0.15273,0.14188,-0.038997,-0.070897,0.5819,0.51482,0.089261,0.084328
1566,0.14681,0.076106,-0.042286,-0.072213,0.41813,0.39478,0.089261,0.075449
1567,0.12873,0.01987,-0.035051,-0.068266,0.23363,0.22837,0.07216,0.066569
1568,0.10307,-0.013674,-0.018607,-0.063004,0.065912,0.052428,0.043877,0.058019
1569,0.07512,-0.024856,0.0024402,-0.058071,-0.057743,-0.10313,0.01987,0.050455
1570,0.053743,-0.024198,0.025132,-0.04985,-0.13503,-0.2202,0.0096753,0.047166
1571,0.039273,-0.020909,0.043549,-0.034064,-0.17942,-0.30768,0.013622,0.050126
1572,0.023159,-0.024856,0.055717,-0.011043,-0.19258,-0.38201,0.024474,0.056703
1573,0.0021113,-0.039984,0.061307,0.013622,-0.16791,-0.45074,0.030394,0.06361
1574,-0.021567,-0.068924,0.060321,0.036642,-0.098193,-0.50895,0.023488,0.067885
1575,-0.036695,-0.1097,0.05177,0.050455,-0.004466,-0.55433,0.0030979,0.067227
1576,-0.038011,-0.15311,0.040918,0.05177,0.071502,-0.58525,-0.027487,0.061307
1577,-0.028802,-0.186,0.03434,0.04881,0.095181,-0.60136,-0.056098,0.053086
1578,-0.015976,-0.19817,0.034669,0.050455,0.071502,-0.60728,-0.07583,0.045522
1579,-0.011372,-0.1837,0.040589,0.056374,0.031709,-0.60333,-0.085039,0.044535
1580,-0.016963,-0.14456,0.045522,0.059334,0.0073732,-0.59774,-0.089314,0.049468
