,channel_1,channel_2,channel_3,channel_4,channel_5,channel_6,channel_7,channel_8
0,0.32999,0.34611,0.021843,-0.057743,0.34479,-0.074515,-0.28861,-0.21297
1,0.23692,0.1478,0.04026,-0.038997,0.27836,-0.095891,-0.25046,-0.24717
2,0.11327,-0.054783,0.068871,-0.0034794,0.22179,-0.11957,-0.20376,-0.27282
3,-0.012688,-0.21099,0.097154,0.038616,0.19253,-0.13174,-0.16002,-0.29354
4,-0.099509,-0.28861,0.1182,0.081697,0.18759,-0.1245,-0.11727,-0.31525
5,-0.11365,-0.28861,0.12182,0.1182,0.18726,-0.093918,-0.069253,-0.34451
6,-0.050836,-0.25112,0.10274,0.13958,0.15964,-0.044917,-0.016305,-0.37872
7,0.057361,-0.24454,0.056703,0.13662,0.088275,0.0044134,0.035656,-0.41489
8,0.16359,-0.32018,-0.012688,0.11064,-0.021238,0.032038,0.080053,-0.45567
9,0.23495,-0.47146,-0.089972,0.06361,-0.13864,0.022501,0.10965,-0.50073
10,0.25402,-0.64872,-0.15311,-0.0024928,-0.23763,-0.021567,0.11853,-0.54282
11,0.22771,-0.79802,-0.18863,-0.084381,-0.29058,-0.084381,0.10439,-0.57045
12,0.18661,-0.8855,-0.19225,-0.16035,-0.27808,-0.15147,0.078409,-0.57209
13,0.16227,-0.90326,-0.16726,-0.20672,-0.19981,-0.20803,0.052099,-0.54282
14,0.16819,-0.86643,-0.12516,-0.20771,-0.09326,-0.24684,0.031709,-0.48231
15,0.18397,-0.80559,-0.079777,-0.16298,-0.016963,-0.26559,0.019212,-0.39615
16,0.17148,-0.75034,-0.045246,-0.091287,-0.018607,-0.27019,0.0070443,-0.29486
17,0.10011,-0.70397,-0.02946,-0.019594,-0.10609,-0.27216,-0.0090702,-0.19324
18,-0.03538,-0.64642,-0.028802,0.027105,-0.2475,-0.27775,-0.032749,-0.10378
19,-0.20409,-0.52934,-0.026829,0.040918,-0.39878,-0.28269,-0.0584,-0.03538
20,-0.36063,-0.33399,-0.0057815,0.029078,-0.51816,-0.27775,-0.076817,0.014608
21,-0.47771,-0.12845,0.040589,0.0034268,-0.57834,-0.26032,-0.083065,0.058348
22,-0.56354,-0.025842,0.10505,-0.022883,-0.58229,-0.2304,-0.080106,0.10242
23,-0.62833,-0.10576,0.17016,-0.041957,-0.56321,-0.19751,-0.077803,0.14352
24,-0.67338,-0.35274,0.21555,-0.048205,-0.56518,-0.17153,-0.07583,0.17575
25,-0.69213,-0.67272,0.22804,-0.041957,-0.61188,-0.15969,-0.079777,0.19614
26,-0.67536,-0.93582,0.20732,-0.02946,-0.69936,-0.1643,-0.086683,0.19976
27,-0.61879,-1.045,0.16359,-0.022225,-0.8,-0.18534,-0.093918,0.18693
28,-0.52473,-0.9743,0.11557,-0.03538,-0.87103,-0.21395,-0.097536,0.16852
29,-0.4047,-0.77106,0.073476,-0.084052,-0.87465,-0.23566,-0.089643,0.15503
30,-0.28335,-0.53427,0.041904,-0.16561,-0.78914,-0.23928,-0.069253,0.15438
31,-0.19159,-0.35931,0.01691,-0.24717,-0.61419,-0.22415,-0.044588,0.17181
32,-0.15081,-0.27775,-0.0064392,-0.27184,-0.37872,-0.19587,-0.027487,0.20897
33,-0.15805,-0.22842,-0.031433,-0.18995,-0.14325,-0.16462,-0.021238,0.26126
34,-0.19455,-0.1051,-0.056756,-0.0087413,0.020199,-0.14226,-0.021238,0.31519
35,-0.22842,0.15503,-0.075501,0.207,0.073476,-0.12549,-0.020909,0.35729
36,-0.23533,0.50857,-0.082079,0.37176,0.023817,-0.10872,-0.01499,0.37899
37,-0.2031,0.83382,-0.080106,0.42832,-0.085367,-0.086683,-0.0051238,0.38031
38,-0.13568,1.016,-0.078132,0.3711,-0.18567,-0.059387,0.0063866,0.36814
39,-0.049521,1.013,-0.080763,0.2481,-0.23665,-0.028473,0.020857,0.3517
40,0.032367,0.85651,-0.086683,0.12313,-0.22119,0.0050711,0.037958,0.33493
41,0.088275,0.62268,-0.091616,0.045193,-0.1495,0.03434,0.051113,0.31881
42,0.11426,0.3882,-0.090958,0.024803,-0.034393,0.055388,0.05769,0.29974
43,0.11491,0.18924,-0.085039,0.047495,0.11656,0.066569,0.059334,0.27277
44,0.098798,0.030065,-0.072213,0.085644,0.30007,0.078737,0.059992,0.23561
45,0.076106,-0.094247,-0.057085,0.12116,0.50955,0.1011,0.06361,0.19022
46,0.057361,-0.18929,-0.041957,0.14484,0.72792,0.13497,0.068543,0.14155
47,0.050784,-0.25671,-0.025842,0.15602,0.93774,0.18003,0.076764,0.096167
48,0.061307,-0.29716,-0.013017,0.15339,1.1163,0.23429,0.092879,0.061307
49,0.08663,-0.32117,-0.0067681,0.14352,1.2337,0.29678,0.11919,0.037629
50,0.1136,-0.35043,-0.0093991,0.13103,1.2696,0.36321,0.14583,0.017897
51,0.12938,-0.40174,-0.020909,0.11426,1.214,0.4224,0.16391,-0.012359
52,0.13333,-0.47146,-0.037353,0.091563,1.0795,0.45825,0.16523,-0.055112
53,0.12577,-0.54184,-0.053467,0.067227,0.894,0.46713,0.14879,-0.10609
54,0.11261,-0.58985,-0.060045,0.042562,0.68648,0.4543,0.11721,-0.1587
55,0.098469,-0.60037,-0.060373,0.022501,0.47634,0.42767,0.076435,-0.20639
56,0.087288,-0.56255,-0.058071,0.0060577,0.28264,0.39577,0.03434,-0.24881
57,0.080382,-0.47179,-0.059716,-0.0084125,0.12412,0.36814,-0.0011774,-0.28302
58,0.077422,-0.31821,-0.065635,-0.018278,0.01691,0.354,-0.027158,-0.30933
59,0.082026,-0.082408,-0.069911,-0.019594,-0.031104,0.35959,-0.04393,-0.32873
60,0.096496,0.25731,-0.063991,-0.012688,-0.032091,0.38787,-0.049192,-0.33827
61,0.12116,0.67826,-0.043272,0.0014536,-0.030118,0.43161,-0.045574,-0.33596
62,0.14977,1.0982,-0.0084125,0.020199,-0.071884,0.47141,-0.038668,-0.31656
63,0.16687,1.4166,0.031052,0.039931,-0.17482,0.48851,-0.034722,-0.284
64,0.15898,1.5616,0.065912,0.055059,-0.3159,0.47502,-0.038339,-0.24059
65,0.12642,1.5386,0.082684,0.05473,-0.45271,0.43786,-0.04393,-0.19455
66,0.08663,1.4248,0.071502,0.03434,-0.55433,0.39478,-0.047877,-0.1564
67,0.0692,1.3288,0.028421,-0.00051963,-0.61221,0.36025,-0.045903,-0.12779
68,0.10274,1.3041,-0.040641,-0.042944,-0.63984,0.34117,-0.034722,-0.11135
69,0.19187,1.3301,-0.11529,-0.082736,-0.65924,0.3346,-0.017621,-0.10346
70,0.31223,1.3422,-0.17219,-0.1074,-0.66812,0.33657,-0.0047949,-0.1005
71,0.43161,1.29,-0.19028,-0.10905,-0.64148,0.3438,0.002769,-0.097207
72,0.51712,1.162,-0.16265,-0.087669,-0.55631,0.3438,0.0063866,-0.094247
73,0.55329,0.98477,-0.10543,-0.058071,-0.41555,0.32506,0.0093464,-0.095891
74,0.53619,0.79797,-0.042944,-0.034393,-0.24651,0.28494,0.014937,-0.10082
75,0.47667,0.62367,0.0077021,-0.030775,-0.088985,0.23133,0.021843,-0.10905
76,0.39182,0.46549,0.044864,-0.04689,0.036314,0.18332,0.035985,-0.11464
77,0.30204,0.32572,0.074791,-0.064649,0.12478,0.15734,0.05769,-0.11529
78,0.21653,0.21949,0.10702,-0.065964,0.17707,0.15339,0.077422,-0.10872
79,0.14813,0.16556,0.13728,-0.04985,0.19121,0.15799,0.086301,-0.094905
80,0.10472,0.1695,0.15602,-0.024198,0.1751,0.15569,0.077093,-0.074844
81,0.082355,0.2139,0.15701,0.0077021,0.14648,0.13991,0.052099,-0.053467
82,0.071831,0.26257,0.14681,0.049468,0.12971,0.11064,0.01987,-0.038668
83,0.055388,0.26619,0.14188,0.10702,0.13136,0.069858,-0.0061104,-0.036695
84,0.014608,0.19154,0.15142,0.17444,0.1284,0.021514,-0.025842,-0.045574
85,-0.063333,0.032367,0.16885,0.22837,0.087288,-0.031762,-0.047219,-0.053138
86,-0.17252,-0.19554,0.1774,0.24482,-0.011372,-0.086683,-0.079777,-0.053467
87,-0.28894,-0.46093,0.16128,0.21785,-0.16068,-0.13536,-0.12417,-0.051165
88,-0.38135,-0.71285,0.11853,0.15569,-0.33103,-0.16364,-0.16791,-0.051165
89,-0.41489,-0.89504,0.062952,0.071831,-0.48395,-0.16331,-0.19685,-0.05281
90,-0.36951,-0.96871,0.0093464,-0.028144,-0.58492,-0.13338,-0.2008,-0.054125
91,-0.25506,-0.93286,-0.029789,-0.13371,-0.61682,-0.083723,-0.18008,-0.053467
92,-0.10313,-0.81545,-0.04393,-0.22251,-0.58327,-0.039984,-0.14456,-0.050836
93,0.042891,-0.66352,-0.039326,-0.27545,-0.51355,-0.014003,-0.10609,-0.054125
94,0.15043,-0.51585,-0.028144,-0.28499,-0.44022,-0.0077547,-0.07583,-0.072542
95,0.20798,-0.39779,-0.020252,-0.25572,-0.37905,-0.016634,-0.057743,-0.10773
96,0.21916,-0.309,-0.013345,-0.20113,-0.31788,-0.03538,-0.049521,-0.15015
97,0.19877,-0.24257,-0.0080836,-0.13437,-0.23665,-0.059716,-0.045903,-0.18765
98,0.17246,-0.1962,-0.0011774,-0.058729,-0.13141,-0.082408,-0.041628,-0.21034
99,0.15569,-0.17022,0.0096753,0.022501,-0.020252,-0.097536,-0.036037,-0.21823
100,0.15076,-0.15772,0.024474,0.092221,0.068543,-0.10378,-0.028473,-0.21527
101,0.14813,-0.1495,0.037629,0.13464,0.11426,-0.10477,-0.015319,-0.20343
102,0.14089,-0.13601,0.042233,0.14714,0.11787,-0.1051,0.00079584,-0.18238
103,0.12313,-0.11299,0.034669,0.13399,0.093865,-0.10674,0.018884,-0.15344
104,0.096496,-0.084052,0.020199,0.10801,0.065583,-0.11069,0.038616,-0.1199
105,0.065912,-0.056098,0.0090175,0.077422,0.057361,-0.11661,0.057361,-0.084052
106,0.038944,-0.031104,0.0060577,0.050784,0.077422,-0.12089,0.072489,-0.042944
107,0.020857,-0.007097,0.011648,0.031709,0.12511,-0.12812,0.083342,0.0047422
108,0.0096753,0.015924,0.022172,0.019541,0.17773,-0.14456,0.087288,0.050455
109,0.0047422,0.036314,0.033025,0.012964,0.20897,-0.16956,0.08367,0.091563
110,0.0040845,0.049139,0.038944,0.0073732,0.207,-0.19291,0.078409,0.12609
111,-0.0008485,0.050455,0.041247,0.0044134,0.18365,-0.20738,0.077422,0.15273
112,-0.013674,0.035656,0.0373,0.0080309,0.16852,-0.20935,0.081697,0.17082
113,-0.031433,0.0054,0.02875,0.017897,0.18365,-0.19817,0.087946,0.17838
114,-0.04985,-0.033078,0.018884,0.023817,0.22147,-0.17745,0.097483,0.16918
115,-0.064978,-0.063991,0.014608,0.02579,0.25731,-0.15969,0.10866,0.13662
116,-0.074515,-0.080434,0.019212,0.026447,0.27606,-0.14785,0.11853,0.081039
117,-0.078461,-0.085367,0.031709,0.032038,0.27935,-0.14358,0.12478,0.015924
118,-0.081421,-0.079777,0.045851,0.044864,0.27376,-0.14127,0.12511,-0.039326
119,-0.082079,-0.064649,0.056703,0.058348,0.26422,-0.13733,0.11754,-0.07024
120,-0.079777,-0.048534,0.056703,0.065583,0.24383,-0.13634,0.10669,-0.075173
121,-0.074844,-0.038997,0.04881,0.060979,0.20173,-0.14193,0.10011,-0.06136
122,-0.070897,-0.040313,0.035656,0.047495,0.12938,-0.15377,0.10011,-0.030775
123,-0.074515,-0.049192,0.023488,0.026119,0.032696,-0.17087,0.10603,0.014937
124,-0.085039,-0.060373,0.017897,0.0030979,-0.06432,-0.18929,0.11393,0.069858
125,-0.097207,-0.067937,0.017239,-0.014661,-0.13207,-0.20343,0.11952,0.12445
126,-0.10247,-0.061689,0.020199,-0.023211,-0.15213,-0.20869,0.12346,0.16589
127,-0.098851,-0.034722,0.024474,-0.018936,-0.1268,-0.20573,0.12511,0.18233
128,-0.089643,0.0067154,0.027434,-0.0084125,-0.064649,-0.19389,0.12445,0.16918
129,-0.083065,0.041247,0.025461,0.0001381,0.0054,-0.17712,0.11656,0.12577
130,-0.079448,0.04618,0.019212,0.002769,0.055388,-0.16199,0.10143,0.061965
131,-0.077475,0.0096753,0.014279,0.0017824,0.073147,-0.15542,0.085972,-0.0034794
132,-0.071555,-0.048205,0.018884,0.0093464,0.065583,-0.15607,0.081039,-0.051823
133,-0.060045,-0.096878,0.033025,0.031381,0.052757,-0.1564,0.087946,-0.075501
134,-0.045903,-0.12516,0.053415,0.064267,0.050455,-0.15048,0.10209,-0.076159
135,-0.034064,-0.14423,0.069529,0.10274,0.066569,-0.13897,0.11689,-0.063004
136,-0.028473,-0.17252,0.075778,0.12873,0.096167,-0.12516,0.12379,-0.043601
137,-0.032749,-0.21264,0.070516,0.12445,0.13136,-0.11069,0.12248,-0.019594
138,-0.040313,-0.25375,0.056374,0.084986,0.16687,-0.09918,0.12017,0.01132
139,-0.047219,-0.28039,0.038287,0.013951,0.18924,-0.090958,0.12182,0.048482
140,-0.051494,-0.284,0.019541,-0.069253,0.18102,-0.086025,0.1284,0.090577
141,-0.05544,-0.2669,0.0034268,-0.14127,0.13826,-0.083065,0.13103,0.13234
142,-0.054783,-0.2281,-0.0077547,-0.18304,0.074133,-0.085367,0.12971,0.16556
143,-0.046561,-0.17285,-0.0047949,-0.18469,0.011648,-0.093589,0.12807,0.18858
144,-0.030447,-0.11168,0.010991,-0.14588,-0.031433,-0.099838,0.12577,0.20338
145,-0.0074258,-0.056427,0.037629,-0.080434,-0.043272,-0.095562,0.12248,0.2139
146,0.015595,-0.016634,0.067227,-0.0067681,-0.025842,-0.080106,0.12116,0.22607
147,0.036314,-0.007097,0.090905,0.065254,0.0077021,-0.056098,0.1284,0.24876
148,0.04322,-0.039655,0.099127,0.13201,0.028092,-0.029789,0.13793,0.27737
149,0.03434,-0.11003,0.08663,0.19187,0.0090175,-0.010715,0.14221,0.30368
150,0.012306,-0.19258,0.050126,0.23626,-0.063662,-0.0051238,0.13728,0.31552
151,-0.013017,-0.2452,0.0040845,0.25567,-0.17581,-0.010715,0.12248,0.31092
152,-0.028802,-0.22448,-0.033078,0.24909,-0.2919,-0.024527,0.10406,0.29711
153,-0.026171,-0.11793,-0.049521,0.22804,-0.37214,-0.038997,0.087288,0.28099
154,-0.0061104,0.047495,-0.041957,0.20239,-0.39976,-0.047877,0.077751,0.27244
155,0.02283,0.22311,-0.01795,0.1774,-0.37247,-0.047877,0.074791,0.27672
156,0.051441,0.35367,0.014608,0.15668,-0.29782,-0.038339,0.081039,0.29513
157,0.071831,0.40563,0.045522,0.1376,-0.19126,-0.027816,0.093865,0.31782
158,0.080053,0.37702,0.066898,0.1205,-0.073528,-0.021896,0.10801,0.33164
159,0.071831,0.29776,0.079066,0.10669,0.035985,-0.019265,0.12281,0.3244
160,0.052099,0.20864,0.083013,0.093536,0.1159,-0.020581,0.13497,0.29151
161,0.024803,0.14648,0.080053,0.079066,0.16326,-0.018936,0.13596,0.2389
162,-0.0015062,0.12511,0.070516,0.062623,0.18628,-0.012688,0.12971,0.17838
163,-0.021896,0.14846,0.058676,0.047495,0.19976,-0.0041372,0.11886,0.11458
164,-0.03242,0.20798,0.051441,0.040918,0.21489,-0.00051963,0.10899,0.045851
165,-0.032749,0.30335,0.049797,0.034669,0.23594,0.00046697,0.10011,-0.030447
166,-0.026829,0.42602,0.05473,0.024474,0.26652,0.0021113,0.091563,-0.11201
167,-0.016305,0.54639,0.061636,0.012635,0.31684,0.0093464,0.087946,-0.18403
168,-0.0024928,0.62531,0.06624,0.0096753,0.39215,0.023488,0.088603,-0.22349
169,0.018555,0.64373,0.068543,0.020199,0.49278,0.043877,0.087617,-0.21067
170,0.050126,0.62005,0.064596,0.041575,0.60953,0.06624,0.083342,-0.15147
171,0.090248,0.58618,0.05769,0.065912,0.73121,0.089261,0.077093,-0.069582
172,0.13432,0.5579,0.053743,0.082355,0.845,0.10702,0.07512,0.0070443
173,0.17049,0.5329,0.049139,0.07808,0.92919,0.11261,0.080711,0.06065
174,0.18595,0.50002,0.04026,0.041247,0.96503,0.10505,0.092221,0.087617
175,0.17246,0.44444,0.025461,-0.021567,0.93281,0.088932,0.10011,0.095181
176,0.13596,0.36551,0.0047422,-0.089972,0.8279,0.079066,0.1011,0.082355
177,0.088932,0.27672,-0.01203,-0.12352,0.65919,0.081368,0.097483,0.048482
178,0.043549,0.19483,-0.013674,-0.092603,0.45792,0.095181,0.09551,-0.0015062
179,0.0077021,0.13399,0.0021113,-0.0028217,0.26356,0.10834,0.096496,-0.056427
180,-0.013017,0.099127,0.035656,0.10702,0.11162,0.11195,0.094194,-0.09918
181,-0.013345,0.085315,0.077751,0.2014,0.018555,0.10439,0.089261,-0.11661
182,0.0034268,0.080053,0.12149,0.2583,-0.029131,0.08367,0.080711,-0.10609
183,0.02875,0.076435,0.15602,0.28165,-0.061031,0.058676,0.06624,-0.072213
184,0.060321,0.071173,0.17806,0.28494,-0.094576,0.0373,0.041247,-0.030118
185,0.091563,0.064267,0.18233,0.27803,-0.12746,0.024803,0.011977,0.0080309
186,0.11623,0.051441,0.16852,0.25041,-0.14785,0.021186,-0.014332,0.036642
187,0.13201,0.029078,0.13629,0.18233,-0.14785,0.018226,-0.033735,0.06065
188,0.14155,-0.0067681,0.088275,0.061636,-0.13503,0.013951,-0.04689,0.082684
189,0.15043,-0.048534,0.033354,-0.093918,-0.13009,0.0090175,-0.054454,0.10176
190,0.15734,-0.087341,-0.015319,-0.23994,-0.15048,0.010991,-0.056427,0.10965
191,0.15306,-0.1176,-0.051494,-0.31656,-0.19948,0.019541,-0.053467,0.09255
192,0.13333,-0.14259,-0.073528,-0.284,-0.26493,0.035656,-0.04393,0.054072
193,0.097154,-0.16594,-0.083065,-0.14917,-0.32774,0.054401,-0.031433,0.011648
194,0.049797,-0.19685,-0.080763,0.038944,-0.36754,0.071173,-0.022225,-0.017292
195,-0.00051963,-0.23895,-0.069582,0.21094,-0.37411,0.081697,-0.018278,-0.026171
196,-0.048205,-0.29124,-0.059058,0.31256,-0.34912,0.083342,-0.021896,-0.013017
197,-0.081421,-0.34123,-0.054125,0.32243,-0.30341,0.078737,-0.027487,0.017568
198,-0.093918,-0.37773,-0.052481,0.2583,-0.25441,0.070187,-0.035708,0.061307
199,-0.083723,-0.38628,-0.045903,0.16063,-0.21987,0.06361,-0.043272,0.11689
200,-0.056427,-0.36819,-0.031104,0.071502,-0.20672,0.058019,-0.044917,0.17871
201,-0.027816,-0.34057,-0.0074258,0.014937,-0.2179,0.053415,-0.038997,0.23594
202,-0.0093991,-0.31426,0.017568,-0.0008485,-0.25177,0.053743,-0.023869,0.28099
203,-0.0080836,-0.29486,0.038944,0.013622,-0.30176,0.061307,-0.0031506,0.31289
204,-0.018936,-0.27118,0.051113,0.042891,-0.3626,0.072818,0.013622,0.33361
205,-0.033078,-0.23237,0.051441,0.071831,-0.43627,0.082026,0.020857,0.33953
206,-0.034064,-0.17383,0.039931,0.091234,-0.51257,0.087946,0.01691,0.32966
207,-0.014332,-0.10576,0.022501,0.096825,-0.57867,0.096496,0.0077021,0.30927
208,0.027434,-0.036366,0.0060577,0.089919,-0.61419,0.10801,0.0014536,0.28395
209,0.079066,0.018555,-0.0047949,0.080053,-0.60103,0.11985,-0.0011774,0.25994
210,0.12412,0.044864,-0.013674,0.067556,-0.53131,0.12577,-0.002164,0.2412
211,0.15273,0.039602,-0.021896,0.045851,-0.40437,0.12215,-0.0041372,0.22475
212,0.16227,0.014608,-0.025842,0.0096753,-0.22119,0.10866,-0.0031506,0.20765
213,0.15306,-0.013017,-0.024856,-0.036366,0.0060577,0.090905,0.0050711,0.18628
214,0.12642,-0.03538,-0.02354,-0.085367,0.2412,0.074133,0.019212,0.16063
215,0.08367,-0.04689,-0.024527,-0.12352,0.42799,0.064267,0.032696,0.1307
216,0.030723,-0.048863,-0.021567,-0.13766,0.52534,0.06361,0.041247,0.10406
217,-0.018607,-0.037682,-0.01203,-0.12121,0.53422,0.066569,0.041247,0.082684
218,-0.047877,-0.0018351,0.0063866,-0.076159,0.48588,0.064596,0.032367,0.063938
219,-0.054125,0.056703,0.031381,-0.01795,0.41944,0.050455,0.020199,0.044864
220,-0.046232,0.10373,0.05473,0.03434,0.36058,0.021843,0.012306,0.025461
221,-0.030447,0.10998,0.064596,0.068214,0.33164,-0.015648,0.0080309,0.0054
222,-0.012688,0.070187,0.056703,0.080711,0.3392,-0.051165,0.0077021,-0.017621
223,0.0054,0.0021113,0.033025,0.068543,0.36156,-0.07879,0.0057288,-0.047877
224,0.021843,-0.07287,0.0044134,0.02875,0.35334,-0.10082,0.0024402,-0.087012
225,0.031709,-0.13963,-0.023211,-0.034064,0.27672,-0.12352,-0.0041372,-0.12845
226,0.036971,-0.18633,-0.04689,-0.10378,0.13169,-0.15147,-0.014332,-0.16002
227,0.040589,-0.21034,-0.063991,-0.1643,-0.046561,-0.1837,-0.027158,-0.16726
228,0.051113,-0.21461,-0.073857,-0.2031,-0.20277,-0.21034,-0.040313,-0.15114
229,0.068871,-0.20442,-0.076817,-0.21724,-0.2942,-0.22053,-0.050179,-0.11398
230,0.088275,-0.186,-0.07583,-0.21626,-0.31031,-0.20672,-0.049192,-0.063991
231,0.10307,-0.15772,-0.069911,-0.20935,-0.26953,-0.17219,-0.038339,-0.013017
232,0.11228,-0.12056,-0.059716,-0.20212,-0.20902,-0.12812,-0.022225,0.02579
233,0.11393,-0.081421,-0.048205,-0.19192,-0.16462,-0.080106,-0.0090702,0.055059
234,0.10538,-0.044917,-0.034064,-0.16265,-0.15772,-0.031433,-0.0015062,0.082026
235,0.088603,-0.014003,-0.023869,-0.09622,-0.1837,0.025132,-0.0015062,0.11195
236,0.070516,0.015924,-0.021567,0.0067154,-0.23599,0.088603,-0.0038083,0.14747
237,0.057361,0.050126,-0.0265,0.12379,-0.30308,0.15536,-0.0054526,0.1843
238,0.052757,0.091892,-0.033078,0.22114,-0.34846,0.22344,-0.004466,0.21094
239,0.057361,0.14254,-0.036037,0.27244,-0.33794,0.29415,-0.0015062,0.21916
240,0.0692,0.19581,-0.039326,0.26422,-0.2623,0.36748,0.0060577,0.20667
241,0.083013,0.23659,-0.04985,0.19943,-0.14095,0.4303,0.010004,0.17542
242,0.099456,0.25567,-0.064978,0.10307,-0.002164,0.47108,0.012964,0.12708
243,0.1159,0.25172,-0.075501,0.01691,0.13629,0.48949,0.020528,0.066898
244,0.13169,0.23298,-0.073857,-0.024198,0.26126,0.49607,0.04026,-0.0041372
245,0.13826,0.20996,-0.051494,-0.0074258,0.36913,0.4987,0.067556,-0.079448
246,0.12774,0.18661,-0.0093991,0.050126,0.45924,0.50199,0.087946,-0.1564
247,0.097154,0.15931,0.047824,0.12379,0.54836,0.5112,0.10011,-0.23599
248,0.053415,0.12215,0.11261,0.18792,0.67432,0.52863,0.10274,-0.31853
249,0.015595,0.076435,0.17049,0.23035,0.86276,0.5556,0.10011,-0.41226
250,0.0030979,0.022501,0.20831,0.25139,1.1032,0.58092,0.097812,-0.52145
251,0.021514,-0.031433,0.21522,0.26027,1.3432,0.58289,0.093208,-0.64477
252,0.058019,-0.07287,0.19845,0.26126,1.5231,0.55132,0.082355,-0.76711
253,0.096496,-0.089972,0.17246,0.25337,1.5997,0.48456,0.067227,-0.86741
254,0.12478,-0.079777,0.14977,0.23824,1.5478,0.39017,0.053086,-0.9322
255,0.13563,-0.04689,0.13464,0.21883,1.3505,0.27968,0.039931,-0.9618
256,0.12774,-0.0054526,0.12873,0.20009,1.0213,0.16391,0.022501,-0.96969
257,0.10242,0.030723,0.12478,0.17838,0.59999,0.047495,-0.00051963,-0.96871
258,0.064925,0.065583,0.12116,0.15438,0.15602,-0.061031,-0.028473,-0.97068
259,0.021514,0.11097,0.1136,0.1307,-0.23796,-0.16101,-0.055769,-0.9812
260,-0.011701,0.16589,0.10176,0.10801,-0.52605,-0.24849,-0.078461,-0.9914
261,-0.025185,0.21588,0.084328,0.083999,-0.68292,-0.32445,-0.096878,-0.98844
262,-0.022883,0.23955,0.058676,0.057032,-0.71909,-0.38398,-0.11069,-0.95325
263,-0.017621,0.22114,0.026447,0.026119,-0.67174,-0.42739,-0.11595,-0.87892
264,-0.021238,0.15799,-0.010715,-0.01203,-0.58097,-0.45469,-0.10937,-0.77336
265,-0.043601,0.055717,-0.047877,-0.055112,-0.47869,-0.4685,-0.094247,-0.64938
266,-0.087998,-0.076817,-0.070568,-0.099838,-0.38332,-0.4731,-0.077475,-0.51585
267,-0.1416,-0.20376,-0.066951,-0.14226,-0.29814,-0.47014,-0.062347,-0.38727
268,-0.18896,-0.27841,-0.030775,-0.16857,-0.22316,-0.45567,-0.045574,-0.26756
269,-0.21626,-0.26263,0.03434,-0.17449,-0.1518,-0.42969,-0.024527,-0.15706
270,-0.21626,-0.15903,0.10538,-0.16693,-0.081092,-0.39812,0.0011247,-0.050507
271,-0.19587,-0.01499,0.15076,-0.15673,-0.021896,-0.37477,0.026119,0.055717
272,-0.17252,0.10636,0.1501,-0.16364,0.0011247,-0.37181,0.04026,0.15503
273,-0.15279,0.16786,0.10143,-0.19554,-0.029789,-0.39483,0.033354,0.23429
274,-0.1393,0.16194,0.029078,-0.23171,-0.11398,-0.4343,0.0047422,0.28066
275,-0.1347,0.10702,-0.031104,-0.24355,-0.22185,-0.47968,-0.038339,0.29382
276,-0.137,0.039602,-0.055112,-0.20869,-0.31163,-0.51717,-0.082736,0.28592
277,-0.14062,0.0050711,-0.039655,-0.10839,-0.35339,-0.5346,-0.11529,0.27244
278,-0.1393,0.028092,0.002769,0.050784,-0.34846,-0.52243,-0.12812,0.26422
279,-0.13108,0.10044,0.056703,0.22936,-0.34616,-0.4833,-0.11793,0.26553
280,-0.12187,0.19483,0.10669,0.37702,-0.40897,-0.42213,-0.0903,0.27343
281,-0.12023,0.2731,0.14451,0.4497,-0.54808,-0.34879,-0.059716,0.28625
282,-0.12944,0.29349,0.16063,0.42372,-0.70791,-0.26855,-0.036366,0.3027
283,-0.14555,0.22804,0.14879,0.30631,-0.80164,-0.1814,-0.024856,0.32309
284,-0.15772,0.085644,0.11228,0.14056,-0.76908,-0.080434,-0.025185,0.34216
285,-0.15311,-0.095233,0.056374,-0.015976,-0.60892,0.039602,-0.033078,0.35729
286,-0.12319,-0.26065,-0.0057815,-0.11825,-0.36129,0.17148,-0.043272,0.36715
287,-0.07287,-0.37181,-0.060045,-0.15213,-0.087341,0.29776,-0.050836,0.36715
288,-0.018278,-0.41818,-0.094576,-0.13141,0.15701,0.40004,-0.048205,0.3517
289,0.018884,-0.407,-0.1028,-0.080763,0.32933,0.46417,-0.036695,0.31848
290,0.026447,-0.35372,-0.089972,-0.022883,0.40859,0.48489,-0.01795,0.27343
291,0.0080309,-0.26723,-0.062018,0.023159,0.38294,0.46581,0.0021113,0.23133
292,-0.017292,-0.15739,-0.031104,0.044535,0.25896,0.41451,0.018555,0.20601
293,-0.032749,-0.02946,-0.010715,0.038944,0.056374,0.3415,0.029736,0.20634
294,-0.031104,0.10209,-0.0067681,0.018555,-0.19685,0.25435,0.030723,0.22475
295,-0.014661,0.21588,-0.023869,-0.0061104,-0.47047,0.16424,0.024474,0.24975
296,0.014279,0.29382,-0.062676,-0.033735,-0.73685,0.080382,0.018555,0.27376
297,0.052099,0.3244,-0.11924,-0.07287,-0.95785,0.013622,0.019212,0.29415
298,0.096167,0.28987,-0.18765,-0.12582,-1.0953,-0.021896,0.029407,0.3096
299,0.14451,0.18102,-0.26,-0.18732,-1.118,-0.018607,0.051113,0.31322
300,0.18989,0.0060577,-0.32873,-0.24487,-1.0223,0.018555,0.083999,0.29743
301,0.22147,-0.21165,-0.3797,-0.27545,-0.84176,0.076435,0.12412,0.26521
302,0.23955,-0.43298,-0.39779,-0.26822,-0.62241,0.13991,0.16819,0.22804
303,0.24745,-0.61057,-0.3728,-0.21691,-0.41325,0.19877,0.20864,0.20404
304,0.24482,-0.70956,-0.30045,-0.13338,-0.24158,0.23824,0.24284,0.19877
305,0.21226,-0.71877,-0.18797,-0.039326,-0.10806,0.24975,0.26027,0.207
306,0.12873,-0.62899,-0.048863,0.046508,0.0014536,0.23035,0.24975,0.22344
307,-0.0011774,-0.42509,0.10472,0.11524,0.093865,0.18628,0.20996,0.24218
308,-0.13832,-0.12746,0.25501,0.18036,0.17312,0.12971,0.15372,0.25863
309,-0.23895,0.18957,0.38162,0.26521,0.24054,0.080382,0.10143,0.27178
310,-0.28367,0.44082,0.46154,0.37472,0.30927,0.04881,0.071831,0.28724
311,-0.28104,0.56382,0.48686,0.48949,0.39412,0.034669,0.06361,0.31322
312,-0.2452,0.52961,0.45233,0.58256,0.50363,0.029078,0.061307,0.354
313,-0.18271,0.35301,0.36387,0.62729,0.63617,0.021843,0.044535,0.3984
314,-0.092603,0.094194,0.23758,0.59144,0.78087,0.0086887,0.0090175,0.43095
315,0.017568,-0.13897,0.099456,0.43622,0.91899,-0.0077547,-0.033406,0.4395
316,0.13333,-0.22514,-0.022225,0.15405,1.019,-0.018278,-0.064649,0.42372
317,0.24745,-0.062676,-0.10181,-0.19422,1.0509,-0.019923,-0.075501,0.39511
318,0.36485,0.38787,-0.1268,-0.51224,0.98542,-0.018278,-0.063333,0.35992
319,0.49212,1.0515,-0.10411,-0.72863,0.80751,-0.017621,-0.036695,0.31848
320,0.60788,1.7491,-0.052481,-0.81545,0.53225,-0.026171,-0.0077547,0.27277
321,0.68221,2.2907,0.0067154,-0.77632,0.20404,-0.042286,0.014937,0.22377
322,0.68583,2.5643,0.060321,-0.62899,-0.11431,-0.0584,0.027763,0.18102
323,0.62301,2.5614,0.10965,-0.41785,-0.36425,-0.065307,0.031052,0.14944
324,0.53093,2.3328,0.15767,-0.19883,-0.51257,-0.059387,0.035327,0.12938
325,0.44214,1.9487,0.20173,-0.020581,-0.55828,-0.041628,0.049139,0.11327
326,0.3711,1.4692,0.24482,0.090905,-0.52671,-0.015648,0.067227,0.095839
327,0.31519,0.93873,0.29349,0.14155,-0.45501,0.0083598,0.078737,0.076106
328,0.26192,0.38689,0.34249,0.15569,-0.35438,0.021843,0.074133,0.049797
329,0.20963,-0.14226,0.37801,0.16128,-0.21297,0.017568,0.052757,0.010991
330,0.16523,-0.59972,0.37176,0.17279,-0.013674,-0.0084125,0.013622,-0.03538
331,0.13958,-0.9618,0.3096,0.18266,0.23495,-0.050507,-0.038011,-0.082079
332,0.13695,-1.2311,0.1991,0.17838,0.48588,-0.10115,-0.096549,-0.12582
333,0.1524,-1.3959,0.072489,0.15273,0.68813,-0.14719,-0.14423,-0.16594
334,0.1672,-1.3972,-0.032749,0.10801,0.79797,-0.18173,-0.16989,-0.19981
335,0.15865,-1.1736,-0.0903,0.05473,0.79172,-0.20409,-0.1712,-0.22875
336,0.11524,-0.73422,-0.092603,0.0060577,0.67695,-0.21856,-0.15246,-0.25079
337,0.041575,-0.17712,-0.055769,-0.026171,0.50594,-0.22415,-0.1199,-0.26789
338,-0.043272,0.34315,-0.0061104,-0.031104,0.34216,-0.21823,-0.083065,-0.28203
339,-0.1199,0.67859,0.032038,-0.01203,0.22475,-0.19685,-0.050507,-0.29749
340,-0.16758,0.76245,0.047824,0.024474,0.15799,-0.15673,-0.025842,-0.30998
341,-0.17942,0.61874,0.036314,0.068214,0.1136,-0.095233,-0.0064392,-0.30933
342,-0.15805,0.34052,0.0067154,0.11327,0.049797,-0.016634,0.016253,-0.28992
343,-0.1176,0.03434,-0.031104,0.15339,-0.068595,0.059663,0.047824,-0.25671
344,-0.079448,-0.2156,-0.063991,0.1797,-0.24849,0.11787,0.082026,-0.21527
345,-0.058071,-0.37543,-0.085039,0.18858,-0.44975,0.15043,0.10998,-0.17811
346,-0.056427,-0.44811,-0.097207,0.1774,-0.60268,0.16589,0.12511,-0.15114
347,-0.072213,-0.45205,-0.10313,0.15043,-0.65793,0.18102,0.12971,-0.13832
348,-0.1005,-0.40634,-0.1028,0.11491,-0.60498,0.21193,0.12971,-0.13601
349,-0.13141,-0.33103,-0.10313,0.077093,-0.47573,0.2629,0.12938,-0.137
350,-0.15443,-0.23961,-0.10477,0.039273,-0.32445,0.32374,0.1284,-0.13536
351,-0.16791,-0.13963,-0.10905,0.0073732,-0.19652,0.37735,0.12445,-0.13371
352,-0.17219,-0.037353,-0.11299,-0.010715,-0.10937,0.40925,0.12149,-0.1393
353,-0.16824,0.049139,-0.11266,-0.010715,-0.059716,0.41385,0.12313,-0.1541
354,-0.15969,0.09255,-0.1074,0.0030979,-0.028144,0.39609,0.12609,-0.17482
355,-0.15147,0.069858,-0.09622,0.025132,-0.0041372,0.36255,0.12905,-0.19192
356,-0.14456,-0.01499,-0.079119,0.042233,0.01691,0.31618,0.12905,-0.19948
357,-0.14292,-0.13568,-0.06432,0.052099,0.035985,0.26455,0.12248,-0.19455
358,-0.14555,-0.26263,-0.053796,0.055388,0.044864,0.21785,0.10965,-0.17778
359,-0.14588,-0.38135,-0.048534,0.059663,0.031709,0.18003,0.097154,-0.15575
360,-0.1393,-0.48757,-0.043272,0.067885,-0.0034794,0.15076,0.08959,-0.13042
361,-0.12417,-0.59215,-0.034722,0.07808,-0.039984,0.1307,0.090248,-0.1074
362,-0.10674,-0.72337,-0.024527,0.085972,-0.051823,0.12281,0.093536,-0.086683
363,-0.09326,-0.90852,-0.011701,0.088275,-0.030775,0.12281,0.097154,-0.07024
364,-0.0903,-1.1397,-0.0034794,0.086959,0.010662,0.1205,0.096825,-0.05281
365,-0.10247,-1.3683,-0.0031506,0.089919,0.047824,0.1057,0.090248,-0.036366
366,-0.1268,-1.5386,-0.011372,0.09551,0.053086,0.077422,0.079724,-0.018936
367,-0.1495,-1.6123,-0.022883,0.096825,0.012306,0.043549,0.070516,-0.00051963
368,-0.15575,-1.5857,-0.03242,0.091892,-0.064649,0.010004,0.066569,0.014608
369,-0.14127,-1.4794,-0.038997,0.087288,-0.13733,-0.016634,0.0692,0.016253
370,-0.11069,-1.3216,-0.041299,0.093865,-0.15147,-0.0265,0.077422,-0.0011774
371,-0.069253,-1.146,-0.040313,0.11721,-0.082079,-0.016963,0.08959,-0.036366
372,-0.025185,-0.98449,-0.037353,0.14879,0.055388,0.0057288,0.1034,-0.08175
373,0.015924,-0.84604,-0.03538,0.17181,0.21851,0.034669,0.11228,-0.13207
374,0.04618,-0.71252,-0.032749,0.17214,0.36288,0.065583,0.11721,-0.17548
375,0.061636,-0.54611,-0.025514,0.15306,0.46516,0.094852,0.11985,-0.2008
376,0.065912,-0.30275,-0.0097279,0.12609,0.51843,0.11754,0.12248,-0.20343
377,0.070516,0.060979,0.011977,0.11261,0.53192,0.13399,0.12379,-0.18633
378,0.088932,0.57664,0.038944,0.11886,0.52567,0.14385,0.12577,-0.16035
379,0.12971,1.241,0.07216,0.13497,0.50922,0.14846,0.12873,-0.13568
380,0.1922,1.9954,0.10899,0.14714,0.47404,0.14418,0.13201,-0.11299
381,0.26915,2.7149,0.14385,0.15109,0.39807,0.1307,0.1353,-0.087998
382,0.34413,3.2408,0.17345,0.14912,0.26849,0.11031,0.1376,-0.0584
383,0.4053,3.4345,0.18858,0.13958,0.093208,0.080711,0.13497,-0.02354
384,0.44345,3.2493,0.18825,0.12511,-0.098522,0.045193,0.12149,0.0093464
385,0.45595,2.7505,0.17279,0.1057,-0.26756,0.0050711,0.10307,0.032367
386,0.44181,2.0937,0.15043,0.08367,-0.38102,-0.035051,0.083342,0.039273
387,0.40432,1.4501,0.12905,0.062623,-0.4264,-0.06728,0.071502,0.032038
388,0.35236,0.93379,0.1113,0.049797,-0.41719,-0.084381,0.06624,0.018884
389,0.2925,0.57664,0.090905,0.045193,-0.38135,-0.08471,0.061307,0.0037556
390,0.23626,0.3494,0.066898,0.040589,-0.33991,-0.075173,0.055388,-0.0064392
391,0.19121,0.1991,0.041575,0.030065,-0.29782,-0.067937,0.047166,-0.0077547
392,0.15503,0.08663,0.020199,0.014279,-0.24355,-0.064978,0.036314,-0.0015062
393,0.12149,-0.0034794,0.0034268,-0.0008485,-0.16232,-0.073528,0.021186,0.010333
394,0.085972,-0.079448,-0.0064392,-0.0097279,-0.061689,-0.092274,0.0034268,0.020528
395,0.042891,-0.13996,-0.012688,-0.011372,0.03434,-0.11694,-0.011372,0.025461
396,0.0017824,-0.18173,-0.015319,-0.0093991,0.093865,-0.13667,-0.020252,0.028421
397,-0.024527,-0.20212,-0.015319,-0.004466,0.097154,-0.14259,-0.022554,0.035327
398,-0.027158,-0.20705,-0.012688,0.00079584,0.051441,-0.13799,-0.020581,0.049139
399,-0.002164,-0.2031,-0.0028217,0.0073732,-0.01203,-0.1245,-0.011701,0.065254
400,0.035985,-0.1985,0.017239,0.017897,-0.058729,-0.1051,0.0037556,0.078409
401,0.075778,-0.20376,0.043877,0.030394,-0.062347,-0.079448,0.021843,0.082684
402,0.10603,-0.22744,0.0692,0.040918,-0.024856,-0.051494,0.0373,0.081039
403,0.1159,-0.27315,0.085644,0.046837,0.030394,-0.027487,0.047495,0.083013
404,0.099456,-0.33366,0.087288,0.043877,0.08367,-0.011043,0.05177,0.094194
405,0.061965,-0.40042,0.076764,0.032038,0.13892,-0.0031506,0.047824,0.11097
406,0.016581,-0.45929,0.061636,0.016581,0.20206,-0.002164,0.034998,0.12675
407,-0.024856,-0.5004,0.049468,0.0060577,0.27277,-0.0028217,0.015266,0.13728
408,-0.058729,-0.5175,0.044535,0.0040845,0.34709,0.0001381,-0.0041372,0.14089
409,-0.082736,-0.51487,0.045193,0.0070443,0.41583,0.0073732,-0.021567,0.14056
410,-0.1005,-0.50303,0.052099,0.0093464,0.47371,0.02283,-0.034064,0.14089
411,-0.11957,-0.49349,0.060321,0.014608,0.52139,0.052757,-0.042944,0.14648
412,-0.14423,-0.49251,0.067885,0.024474,0.56316,0.091892,-0.049192,0.16161
413,-0.17252,-0.49875,0.068871,0.038287,0.59868,0.12873,-0.054783,0.18233
414,-0.20047,-0.50698,0.064596,0.050126,0.62499,0.15438,-0.057743,0.20009
415,-0.22086,-0.51158,0.053415,0.05769,0.62827,0.16227,-0.062347,0.20864
416,-0.23007,-0.51026,0.039931,0.061965,0.59703,0.15438,-0.069582,0.2093
417,-0.23204,-0.50599,0.029078,0.059005,0.5283,0.13728,-0.077146,0.20568
418,-0.23204,-0.49711,0.02283,0.049139,0.42635,0.11426,-0.081092,0.20206
419,-0.23369,-0.48034,0.015924,0.03434,0.31125,0.092221,-0.081092,0.1991
420,-0.24257,-0.45337,0.0054,0.016253,0.20404,0.071173,-0.076159,0.19384
421,-0.2521,-0.41621,-0.0077547,-0.0047949,0.11853,0.050784,-0.069582,0.18266
422,-0.25309,-0.37477,-0.018936,-0.025185,0.061636,0.033025,-0.062347,0.16556
423,-0.24191,-0.33564,-0.025842,-0.036366,0.034669,0.021514,-0.053138,0.1478
424,-0.21955,-0.29946,-0.028802,-0.03242,0.028421,0.015266,-0.043601,0.13826
425,-0.1883,-0.26789,-0.031104,-0.020252,0.029407,0.015924,-0.035051,0.13892
426,-0.1587,-0.23862,-0.030775,-0.011043,0.025461,0.021843,-0.031433,0.1455
427,-0.13601,-0.20771,-0.0265,-0.011701,0.002769,0.026447,-0.030118,0.14484
428,-0.1245,-0.17745,-0.021238,-0.020909,-0.034064,0.02283,-0.027487,0.12511
429,-0.11924,-0.15147,-0.016963,-0.037024,-0.075501,0.0063866,-0.021896,0.082684
430,-0.11694,-0.1347,-0.015319,-0.04985,-0.10937,-0.022883,-0.018936,0.024803
431,-0.11135,-0.12615,-0.016634,-0.053138,-0.13272,-0.062676,-0.022225,-0.043272
432,-0.10378,-0.12023,-0.020252,-0.046561,-0.15081,-0.1074,-0.03242,-0.11924
433,-0.09326,-0.11628,-0.025514,-0.04097,-0.1689,-0.14719,-0.04689,-0.19258
434,-0.083723,-0.11398,-0.030447,-0.043272,-0.19291,-0.17975,-0.060045,-0.24585
435,-0.078132,-0.11299,-0.034064,-0.04985,-0.21987,-0.20639,-0.069582,-0.26953
436,-0.077475,-0.11168,-0.033735,-0.055769,-0.2475,-0.23237,-0.077803,-0.27184
437,-0.082408,-0.11036,-0.030118,-0.057414,-0.27282,-0.25967,-0.084381,-0.27216
438,-0.0903,-0.11431,-0.0265,-0.06136,-0.2919,-0.28335,-0.090958,-0.28631
439,-0.095891,-0.12384,-0.029789,-0.070897,-0.29979,-0.29913,-0.092603,-0.32741
440,-0.097864,-0.1324,-0.042615,-0.079777,-0.29683,-0.30374,-0.085039,-0.39056
441,-0.093918,-0.13667,-0.060373,-0.082736,-0.28762,-0.29979,-0.068595,-0.45501
442,-0.08175,-0.13404,-0.079448,-0.08175,-0.2748,-0.29124,-0.048534,-0.49218
443,-0.063004,-0.12286,-0.092931,-0.079777,-0.26526,-0.27973,-0.028473,-0.48494
444,-0.042615,-0.10378,-0.097536,-0.077146,-0.26394,-0.26855,-0.016634,-0.43462
445,-0.0265,-0.077803,-0.090958,-0.07583,-0.26888,-0.25243,-0.011701,-0.35734
446,-0.019594,-0.040641,-0.071555,-0.069582,-0.2771,-0.22875,-0.011043,-0.26855
447,-0.018278,0.01132,-0.041957,-0.0584,-0.28499,-0.19981,-0.0064392,-0.17877
448,-0.015648,0.079066,-0.0051238,-0.044588,-0.28466,-0.16791,0.0073732,-0.090629
449,-0.010057,0.15438,0.039931,-0.023211,-0.27249,-0.13864,0.026776,-0.0061104
450,-0.0064392,0.22574,0.090577,0.0063866,-0.25473,-0.11398,0.042891,0.072489
451,-0.0047949,0.28099,0.14024,0.04322,-0.24454,-0.089972,0.052428,0.14221
452,0.00046697,0.3096,0.17246,0.077422,-0.25441,-0.063004,0.055717,0.19614
453,0.018226,0.30763,0.17674,0.098141,-0.28729,-0.034722,0.056046,0.22508
454,0.050455,0.27178,0.14944,0.10636,-0.32643,-0.0077547,0.056374,0.22574
455,0.088932,0.20996,0.10044,0.10307,-0.34451,0.012635,0.056374,0.2093
456,0.11919,0.13136,0.047824,0.092221,-0.31722,0.028421,0.056703,0.19351
457,0.13103,0.044864,0.0060577,0.076106,-0.24684,0.042233,0.056703,0.19121
458,0.12774,-0.033735,-0.01795,0.059005,-0.15147,0.06361,0.056703,0.20075
459,0.11919,-0.093918,-0.020909,0.044535,-0.05544,0.10373,0.056703,0.21982
460,0.11294,-0.1245,-0.0074258,0.037629,0.029407,0.16424,0.058019,0.2435
461,0.11458,-0.11825,0.014937,0.041247,0.10274,0.23791,0.060979,0.2606
462,0.12346,-0.078461,0.036971,0.052428,0.16194,0.3096,0.064596,0.27244
463,0.13333,-0.017292,0.053743,0.064925,0.20272,0.36584,0.067556,0.28198
464,0.13826,0.044864,0.066569,0.072818,0.22574,0.39544,0.071502,0.28691
465,0.13695,0.097812,0.074791,0.073476,0.23725,0.40037,0.078409,0.28165
466,0.13399,0.13596,0.076435,0.073804,0.24153,0.38656,0.088275,0.26488
467,0.13333,0.15997,0.073804,0.074791,0.24843,0.36321,0.098798,0.23692
468,0.13432,0.17477,0.070845,0.075778,0.26257,0.34084,0.10735,0.20173
469,0.13728,0.18693,0.074133,0.077751,0.27704,0.32374,0.11426,0.16589
470,0.14418,0.1991,0.079724,0.077093,0.28757,0.30829,0.1182,0.1307
471,0.15043,0.21028,0.083342,0.07216,0.28231,0.28724,0.11919,0.097483
472,0.15207,0.21719,0.079724,0.066569,0.25534,0.25633,0.1136,0.067556
473,0.14681,0.21982,0.0692,0.062952,0.20535,0.21456,0.10735,0.04026
474,0.13826,0.22081,0.060321,0.060321,0.13333,0.16523,0.098798,0.017897
475,0.13169,0.21982,0.05473,0.055388,0.05177,0.11623,0.085315,-0.00051963
476,0.12971,0.21588,0.055717,0.046508,-0.027487,0.076764,0.069858,-0.014661
477,0.1307,0.2116,0.058019,0.036642,-0.091287,0.047495,0.053743,-0.024198
478,0.13267,0.20897,0.058348,0.031381,-0.1268,0.027763,0.0373,-0.032091
479,0.13563,0.21127,0.056046,0.034998,-0.12648,0.01691,0.022172,-0.038668
480,0.14056,0.22147,0.055059,0.04618,-0.084052,0.016581,0.0090175,-0.044917
481,0.1478,0.23725,0.062294,0.058676,-0.0024928,0.02579,0.0001381,-0.055112
482,0.15109,0.25008,0.072818,0.067227,0.1113,0.041904,-0.0041372,-0.072542
483,0.15339,0.256,0.078409,0.068214,0.24317,0.060321,-0.0051238,-0.10115
484,0.15471,0.25929,0.078409,0.06361,0.36518,0.073476,-0.0038083,-0.13601
485,0.15207,0.26257,0.077093,0.057361,0.44312,0.083342,0.0001381,-0.16989
486,0.14254,0.26488,0.073804,0.054401,0.45398,0.089919,0.0030979,-0.19554
487,0.12971,0.26652,0.068214,0.053743,0.39412,0.097812,0.0070443,-0.20705
488,0.1159,0.26718,0.059334,0.053743,0.28033,0.10735,0.0080309,-0.19883
489,0.10472,0.26389,0.049468,0.051113,0.14385,0.11261,0.0080309,-0.17219
490,0.095181,0.25041,0.039931,0.044206,0.0090175,0.10373,0.0090175,-0.13305
491,0.088603,0.2287,0.030723,0.034011,-0.10707,0.082355,0.0096753,-0.091616
492,0.081697,0.20568,0.023159,0.024474,-0.18896,0.051441,0.0083598,-0.057085
493,0.071831,0.19088,0.019212,0.017239,-0.22645,0.020199,0.0077021,-0.03538
494,0.062952,0.19088,0.020528,0.015924,-0.2156,-0.0051238,0.0044134,-0.027487
495,0.058348,0.20075,0.02579,0.017239,-0.17087,-0.023211,-0.0024928,-0.02946
496,0.058348,0.21522,0.033025,0.018226,-0.11497,-0.031104,-0.0093991,-0.036037
497,0.061307,0.22706,0.040918,0.017897,-0.065635,-0.027158,-0.011043,-0.043601
498,0.061965,0.23067,0.044535,0.019541,-0.031433,-0.014332,-0.0090702,-0.046561
499,0.051113,0.22179,0.042233,0.021514,-0.012688,0.0014536,-0.0061104,-0.039984
500,0.030723,0.20831,0.036314,0.023159,-0.0038083,0.014279,-0.0047949,-0.025514
501,0.011977,0.19812,0.026119,0.01987,0.0044134,0.021843,-0.0038083,-0.0047949
502,0.0001381,0.19351,0.012635,0.0086887,0.019541,0.020199,-0.0024928,0.020857
503,-0.0018351,0.19417,-0.0034794,-0.0057815,0.042233,0.0093464,0.0021113,0.050784
504,0.0014536,0.19483,-0.017292,-0.019265,0.065254,-0.0084125,0.010333,0.082684
505,0.0054,0.19055,-0.02354,-0.0265,0.085972,-0.0265,0.025132,0.11097
506,0.0021113,0.18496,-0.020252,-0.025842,0.10472,-0.038339,0.04026,0.1284
507,-0.0090702,0.17838,-0.01203,-0.014332,0.12017,-0.043272,0.049468,0.12938
508,-0.018278,0.17214,-0.004466,0.0017824,0.13234,-0.045903,0.05177,0.11754
509,-0.017292,0.17016,-0.0034794,0.012635,0.14977,-0.049192,0.049468,0.10209
510,-0.0041372,0.17345,-0.011043,0.011648,0.18628,-0.051494,0.04618,0.097483
511,0.020857,0.18069,-0.016634,0.0060577,0.25172,-0.050507,0.046837,0.11031
512,0.057361,0.19121,-0.010386,0.0067154,0.33756,-0.047548,0.04881,0.14714
513,0.10077,0.20075,0.0024402,0.015266,0.41352,-0.040313,0.053086,0.19845
514,0.14056,0.21028,0.014608,0.027763,0.44707,-0.031104,0.059334,0.2458
515,0.16622,0.21982,0.024803,0.039602,0.40333,-0.026829,0.061307,0.26849
516,0.16983,0.2241,0.031381,0.04881,0.26784,-0.03242,0.051113,0.25896
517,0.15569,0.20996,0.039602,0.056374,0.058019,-0.051494,0.032038,0.22179
518,0.12675,0.16095,0.053415,0.06624,-0.17877,-0.089314,0.0096753,0.17345
519,0.08959,0.080053,0.073147,0.07808,-0.39056,-0.14621,-0.0018351,0.12905
520,0.055388,-0.01499,0.088275,0.08959,-0.53296,-0.20935,0.0014536,0.097483
521,0.036642,-0.092274,0.086959,0.093865,-0.5938,-0.26263,0.013951,0.080711
522,0.039602,-0.13075,0.068214,0.084328,-0.5859,-0.2988,0.030065,0.072818
523,0.06065,-0.13832,0.033354,0.06065,-0.54315,-0.31557,0.044206,0.064267
524,0.088275,-0.12944,-0.011372,0.027434,-0.50698,-0.31689,0.048482,0.045522
525,0.10538,-0.12023,-0.056427,-0.0051238,-0.51257,-0.30637,0.040589,0.010333
526,0.099456,-0.12023,-0.087669,-0.02946,-0.56683,-0.29091,0.024145,-0.044588
527,0.063281,-0.13141,-0.098193,-0.038339,-0.64905,-0.27085,0.0077021,-0.11464
528,0.002769,-0.14654,-0.089314,-0.032091,-0.72666,-0.24454,-0.0031506,-0.18567
529,-0.069582,-0.15903,-0.064649,-0.015648,-0.77073,-0.20376,-0.0061104,-0.24191
530,-0.13634,-0.15443,-0.030118,0.0050711,-0.74804,-0.14292,-0.0008485,-0.2771
531,-0.18337,-0.11825,0.0063866,0.032367,-0.62833,-0.062347,0.014937,-0.2942
532,-0.20212,-0.054783,0.037629,0.058348,-0.40108,0.031709,0.036314,-0.3136
533,-0.19389,0.015595,0.059992,0.064925,-0.098522,0.12577,0.059334,-0.36162
534,-0.16758,0.062952,0.074791,0.040589,0.20601,0.20831,0.081039,-0.44844
535,-0.12878,0.076764,0.082355,-0.0067681,0.44279,0.27606,0.099127,-0.55466
536,-0.082408,0.061636,0.083999,-0.048863,0.58256,0.32506,0.11031,-0.65233
537,-0.033406,0.023817,0.075778,-0.06136,0.64242,0.35433,0.11491,-0.70693
538,0.0040845,-0.036695,0.052428,-0.032091,0.64636,0.3665,0.11195,-0.70134
539,0.027434,-0.11299,0.017239,0.03434,0.61742,0.3688,0.1057,-0.63523
540,0.039602,-0.18337,-0.014003,0.12741,0.57927,0.3734,0.10011,-0.52408
541,0.048482,-0.22349,-0.029789,0.23232,0.54441,0.38656,0.10406,-0.39648
542,0.059663,-0.22185,-0.026829,0.33131,0.49969,0.40596,0.12149,-0.28433
543,0.073147,-0.18238,-0.017292,0.40333,0.42438,0.41944,0.14944,-0.20409
544,0.087288,-0.12286,-0.01499,0.43326,0.3027,0.40991,0.17838,-0.15673
545,0.097812,-0.062676,-0.028473,0.4132,0.14122,0.36354,0.19976,-0.13272
546,0.096496,-0.022883,-0.053467,0.35301,-0.031433,0.28231,0.20601,-0.12319
547,0.078409,-0.0090702,-0.071555,0.27112,-0.18304,0.18562,0.1991,-0.11661
548,0.053743,-0.02354,-0.060373,0.18628,-0.28959,0.10209,0.18759,-0.098851
549,0.034011,-0.064649,-0.014003,0.11195,-0.33498,0.049797,0.17707,-0.062018
550,0.032367,-0.11529,0.052757,0.052757,-0.30439,0.030394,0.16556,-0.0093991
551,0.050784,-0.14588,0.1136,0.012306,-0.18896,0.032038,0.14484,0.052428
552,0.075449,-0.13799,0.15043,-0.0087413,0.0040845,0.041247,0.11031,0.11853
553,0.091563,-0.10181,0.15964,-0.012688,0.25238,0.050126,0.073147,0.18036
554,0.094523,-0.062347,0.1501,0.0014536,0.51975,0.05769,0.048153,0.22739
555,0.087288,-0.044917,0.12905,0.023817,0.74173,0.064267,0.04026,0.25139
556,0.078409,-0.059387,0.10011,0.035327,0.84533,0.06361,0.045522,0.25139
557,0.073804,-0.098193,0.064267,0.017897,0.79567,0.046837,0.048482,0.23067
558,0.068214,-0.14522,0.026119,-0.038011,0.62696,0.012635,0.041904,0.19384
559,0.058348,-0.17581,-0.0051238,-0.11825,0.4224,-0.031433,0.024803,0.14944
560,0.046837,-0.16956,-0.021238,-0.19422,0.25008,-0.078132,0.0057288,0.1057
561,0.037958,-0.12384,-0.019594,-0.24059,0.15043,-0.11562,-0.0074258,0.064596
562,0.029736,-0.053138,0.0001381,-0.2452,0.11524,-0.13996,-0.011372,0.035656
563,0.023488,0.02579,0.02579,-0.2156,0.10176,-0.15509,-0.013345,0.027763
564,0.017897,0.10011,0.046508,-0.16726,0.062294,-0.16989,-0.016634,0.04322
565,0.0034268,0.16063,0.056374,-0.10247,-0.0265,-0.19488,-0.026171,0.07808
566,-0.030775,0.20173,0.055717,-0.015319,-0.15673,-0.23204,-0.042944,0.12083
567,-0.084381,0.22212,0.05177,0.086959,-0.29617,-0.26986,-0.062347,0.16293
568,-0.13667,0.22574,0.04881,0.18233,-0.40766,-0.28729,-0.076159,0.19713
569,-0.16791,0.22673,0.044535,0.23298,-0.47343,-0.27118,-0.081421,0.21851
570,-0.16331,0.22147,0.033354,0.21752,-0.49119,-0.22316,-0.081421,0.22771
571,-0.12352,0.18759,0.013293,0.14714,-0.47738,-0.15377,-0.083723,0.22903
572,-0.052152,0.11195,-0.01499,0.061636,-0.44844,-0.076488,-0.088985,0.23067
573,0.0373,0.011977,-0.04097,-0.0051238,-0.40108,0.0057288,-0.091945,0.23396
574,0.12412,-0.07287,-0.057414,-0.036695,-0.32478,0.098798,-0.083065,0.24021
575,0.18562,-0.11201,-0.059387,-0.03538,-0.21034,0.20305,-0.061031,0.24843
576,0.21588,-0.096549,-0.048863,-0.020581,-0.063991,0.31125,-0.033078,0.25764
577,0.22147,-0.035708,-0.032749,-0.013017,0.096825,0.40958,-0.0034794,0.26488
578,0.21193,0.039273,-0.017621,-0.020581,0.2629,0.48061,0.018555,0.26586
579,0.19943,0.098469,-0.004466,-0.021238,0.44279,0.50922,0.029078,0.25534
580,0.18496,0.12149,0.0067154,0.021514,0.63715,0.49278,0.030394,0.23462
581,0.17049,0.10866,0.021186,0.12774,0.82658,0.44477,0.023488,0.20963
582,0.15405,0.073147,0.038616,0.26849,0.9772,0.38557,0.01132,0.18858
583,0.13695,0.03434,0.058676,0.39445,1.0713,0.33197,0.0030979,0.16983
584,0.1182,0.0096753,0.07216,0.46845,1.1127,0.28855,0.0047422,0.15207
585,0.1011,0.0070443,0.074791,0.47469,1.0989,0.25435,0.015595,0.133
586,0.088275,0.019212,0.061307,0.39938,1.0084,0.22607,0.027763,0.1159
587,0.080053,0.036314,0.034669,0.25172,0.82691,0.19746,0.033354,0.10373
588,0.071831,0.05473,-0.0015062,0.063938,0.5648,0.16622,0.032038,0.097812
589,0.066898,0.069858,-0.036366,-0.11825,0.27145,0.1284,0.025132,0.097812
590,0.066569,0.082355,-0.063991,-0.26065,0.0024402,0.084657,0.018555,0.10472
591,0.068214,0.099785,-0.076488,-0.35274,-0.19587,0.041247,0.017239,0.11261
592,0.065912,0.11853,-0.070568,-0.39648,-0.29979,0.0040845,0.014937,0.11426
593,0.056046,0.13234,-0.049192,-0.39253,-0.32281,-0.024856,0.0080309,0.10538
594,0.036314,0.12971,-0.023211,-0.34188,-0.31919,-0.060045,-0.007097,0.084328
595,0.0070443,0.10472,-0.0047949,-0.2475,-0.35175,-0.1097,-0.026829,0.054401
596,-0.028802,0.058348,-0.0038083,-0.12154,-0.45271,-0.17975,-0.044259,0.021186
597,-0.062676,0.0044134,-0.024198,0.0083598,-0.59511,-0.25868,-0.054454,-0.0093991
598,-0.089314,-0.045574,-0.057743,0.11031,-0.71679,-0.32511,-0.059716,-0.036695
599,-0.1005,-0.08175,-0.088985,0.16293,-0.76744,-0.36425,-0.059387,-0.054783
600,-0.097864,-0.094576,-0.1051,0.16095,-0.73587,-0.37576,-0.055112,-0.056756
601,-0.087998,-0.087669,-0.10444,0.11853,-0.65135,-0.36556,-0.052481,-0.042615
602,-0.074844,-0.063333,-0.091287,0.056374,-0.5448,-0.34813,-0.052152,-0.019594
603,-0.060045,-0.02946,-0.074186,-0.0028217,-0.42344,-0.32741,-0.052152,0.0050711
604,-0.046232,0.0037556,-0.060373,-0.04097,-0.28828,-0.30637,-0.049192,0.028092
605,-0.038339,0.02579,-0.056098,-0.053138,-0.1541,-0.2817,-0.043601,0.04618
606,-0.030775,0.033354,-0.0584,-0.045574,-0.048205,-0.25638,-0.034393,0.055717
607,-0.012359,0.039931,-0.066293,-0.029789,-0.0015062,-0.2281,-0.024198,0.058348
608,0.030065,0.063938,-0.074844,-0.011701,-0.028802,-0.19718,-0.010386,0.062623
609,0.10077,0.1136,-0.087341,0.0001381,-0.12089,-0.16693,0.002769,0.072818
610,0.19581,0.18134,-0.10609,-0.0031506,-0.25079,-0.13864,0.01691,0.083013
611,0.29908,0.25468,-0.13207,-0.022225,-0.38957,-0.11233,0.031709,0.090248
612,0.39182,0.32013,-0.1564,-0.050179,-0.51257,-0.087341,0.049139,0.095839
613,0.45266,0.36946,-0.17613,-0.078132,-0.6109,-0.065964,0.067227,0.10373
614,0.46549,0.39083,-0.19422,-0.10937,-0.68292,-0.055112,0.079724,0.11458
615,0.4349,0.38393,-0.21889,-0.14588,-0.73159,-0.051494,0.083342,0.12642
616,0.38919,0.36419,-0.24881,-0.17877,-0.75461,-0.051494,0.086959,0.13366
617,0.3563,0.3517,-0.27578,-0.19916,-0.74212,-0.045574,0.099456,0.133
618,0.34512,0.35466,-0.28598,-0.20047,-0.70166,-0.026829,0.12577,0.12248
619,0.33493,0.36189,-0.26888,-0.18436,-0.66286,0.0017824,0.15799,0.11031
620,0.28198,0.3665,-0.2179,-0.1541,-0.64642,0.034669,0.19055,0.10669
621,0.1478,0.40004,-0.12319,-0.11661,-0.64181,0.063938,0.21851,0.1182
622,-0.066951,0.52731,0.015266,-0.083394,-0.61978,0.08959,0.23594,0.14287
623,-0.33564,0.77758,0.18792,-0.053796,-0.55565,0.1113,0.23659,0.17246
624,-0.62603,1.0857,0.38327,-0.021567,-0.44613,0.12609,0.21752,0.19483
625,-0.91543,1.3113,0.58848,0.027105,-0.29584,0.12905,0.17871,0.20469
626,-1.1772,1.2998,0.77857,0.099127,-0.11003,0.1136,0.12445,0.19647
627,-1.3811,0.97687,0.9259,0.19417,0.10077,0.08367,0.062294,0.16918
628,-1.4909,0.39511,1.0104,0.30204,0.32078,0.040589,0.0024402,0.12445
629,-1.4729,-0.30242,1.0058,0.39379,0.52238,-0.019594,-0.062676,0.069529
630,-1.3127,-0.95522,0.8963,0.4326,0.66577,-0.095562,-0.13996,0.011648
631,-1.0391,-1.4597,0.68977,0.40169,0.72496,-0.17482,-0.22842,-0.043272
632,-0.70035,-1.7836,0.42372,0.31782,0.69339,-0.23402,-0.31393,-0.089643
633,-0.35504,-1.9579,0.15109,0.20963,0.59506,-0.26394,-0.38036,-0.12746
634,-0.063333,-2.0428,-0.075501,0.10143,0.49508,-0.26065,-0.41358,-0.15081
635,0.12478,-2.0839,-0.22053,-0.00019077,0.47634,-0.22448,-0.40996,-0.15706
636,0.18529,-2.1033,-0.27249,-0.090958,0.59736,-0.16232,-0.37214,-0.15213
637,0.12971,-2.101,-0.24783,-0.16857,0.85848,-0.087341,-0.31261,-0.14752
638,-0.00019077,-2.0563,-0.17285,-0.22316,1.2018,-0.01203,-0.24289,-0.15081
639,-0.1518,-1.951,-0.08175,-0.24717,1.5323,0.049468,-0.17219,-0.16265
640,-0.27775,-1.7886,-0.0031506,-0.23138,1.7247,0.088275,-0.10674,-0.18699
641,-0.35208,-1.5939,0.044535,-0.17022,1.6672,0.099456,-0.051823,-0.22777
642,-0.36819,-1.3949,0.055388,-0.077803,1.3376,0.084986,-0.0041372,-0.28565
643,-0.33629,-1.2163,0.035656,0.020528,0.83415,0.051113,0.034998,-0.34715
644,-0.27743,-1.071,-0.004466,0.10077,0.31158,0.012306,0.070187,-0.40141
645,-0.20409,-0.95654,-0.051823,0.15175,-0.088327,-0.011372,0.10603,-0.44186
646,-0.12352,-0.85327,-0.09622,0.17838,-0.2988,-0.0093991,0.14024,-0.47146
647,-0.039326,-0.74508,-0.12648,0.19285,-0.33629,0.01691,0.17049,-0.50303
648,0.045193,-0.62866,-0.13568,0.20075,-0.25539,0.058019,0.1922,-0.54019
649,0.11787,-0.50895,-0.12746,0.19812,-0.1005,0.10472,0.20206,-0.57472
650,0.17181,-0.38003,-0.10609,0.18397,0.093865,0.14879,0.19746,-0.59478
651,0.20502,-0.19817,-0.079777,0.1626,0.28757,0.18529,0.17806,-0.58985
652,0.22311,0.12379,-0.050836,0.13859,0.43227,0.21719,0.14813,-0.55598
653,0.23594,0.63715,-0.021238,0.1182,0.48982,0.2412,0.11754,-0.49974
654,0.25304,1.2857,0.0090175,0.10834,0.42635,0.25008,0.097483,-0.43364
655,0.28362,1.9145,0.042233,0.11195,0.2435,0.24284,0.08959,-0.36721
656,0.3346,2.3512,0.077751,0.12379,-0.011372,0.23067,0.087617,-0.309
657,0.40464,2.4946,0.11426,0.13136,-0.26361,0.22443,0.087617,-0.26756
658,0.48686,2.3545,0.14846,0.13004,-0.4537,0.22706,0.091234,-0.24914
659,0.57303,2.0529,0.17246,0.12149,-0.55203,0.23758,0.097483,-0.25177
660,0.65294,1.7714,0.17871,0.10866,-0.57933,0.2458,0.10274,-0.26657
661,0.72529,1.6751,0.17115,0.091892,-0.57604,0.24218,0.10077,-0.28532
662,0.79435,1.823,0.15865,0.075449,-0.58492,0.22245,0.091892,-0.30209
663,0.86572,2.1315,0.14846,0.06361,-0.62274,0.19318,0.078737,-0.31097
664,0.93182,2.4137,0.14287,0.052428,-0.6645,0.16391,0.066569,-0.30406
665,0.97918,2.4903,0.13366,0.03434,-0.65398,0.14122,0.059005,-0.2748
666,0.99365,2.271,0.10866,0.0030979,-0.53986,0.12511,0.056703,-0.22218
667,0.97161,1.7935,0.066569,-0.036037,-0.31755,0.11426,0.055059,-0.14851
668,0.91834,1.1946,0.011648,-0.070568,-0.035051,0.10538,0.049468,-0.063004
669,0.84631,0.64472,-0.042286,-0.083065,0.22344,0.091892,0.042891,0.021843
670,0.76903,0.2754,-0.085039,-0.068924,0.3757,0.069858,0.033354,0.09255
671,0.69405,0.12708,-0.11036,-0.031104,0.38327,0.04026,0.025132,0.14089
672,0.62729,0.15207,-0.11891,0.016253,0.26455,0.010991,0.018555,0.16819
673,0.57204,0.26093,-0.11003,0.053743,0.072818,-0.0097279,0.0093464,0.18233
674,0.52106,0.36222,-0.090958,0.065254,-0.13667,-0.018278,0.0011247,0.19187
675,0.46549,0.40399,-0.070897,0.047495,-0.32281,-0.020252,0.0014536,0.20272
676,0.3984,0.37768,-0.06136,0.0086887,-0.44054,-0.016963,0.012964,0.21489
677,0.3244,0.2948,-0.06136,-0.034722,-0.456,-0.004466,0.033354,0.22936
678,0.24975,0.1774,-0.067937,-0.068595,-0.35635,0.017897,0.057032,0.2481
679,0.17806,0.047495,-0.076488,-0.079448,-0.15805,0.049139,0.079395,0.2708
680,0.11393,-0.075501,-0.080763,-0.066293,0.1057,0.088275,0.098141,0.29579
681,0.056703,-0.18436,-0.080763,-0.036695,0.38064,0.12642,0.1113,0.31717
682,0.0050711,-0.27841,-0.074844,-0.0077547,0.6046,0.15273,0.11426,0.33197
683,-0.042615,-0.36129,-0.066622,0.013622,0.71378,0.16128,0.11261,0.34052
684,-0.080106,-0.43134,-0.056098,0.02579,0.67103,0.15438,0.11162,0.34512
685,-0.10477,-0.4879,-0.040641,0.032367,0.49311,0.13793,0.1182,0.34676
686,-0.12023,-0.52671,-0.02354,0.03434,0.24153,0.1159,0.12971,0.34545
687,-0.13141,-0.54611,-0.0090702,0.032696,-0.0038083,0.096496,0.14155,0.33854
688,-0.14423,-0.55006,0.0014536,0.031381,-0.186,0.085972,0.14681,0.33164
689,-0.16298,-0.54841,0.0047422,0.034669,-0.29058,0.083342,0.14254,0.32802
690,-0.18896,-0.54808,0.0024402,0.043877,-0.33498,0.081039,0.13366,0.32769
691,-0.21724,-0.55039,-0.0024928,0.062294,-0.3455,0.071502,0.12577,0.33394
692,-0.24191,-0.55137,-0.010386,0.083013,-0.33465,0.049468,0.11952,0.34348
693,-0.25704,-0.54381,-0.019265,0.095181,-0.30604,0.018884,0.11162,0.35268
694,-0.25769,-0.51026,-0.028473,0.094523,-0.25506,-0.016634,0.10472,0.35531
695,-0.24289,-0.42476,-0.030118,0.084657,-0.17646,-0.054783,0.097483,0.35236
696,-0.21724,-0.27841,-0.02354,0.074791,-0.066293,-0.091945,0.094852,0.34578
697,-0.19192,-0.093589,-0.015319,0.072489,0.067227,-0.12319,0.099127,0.33558
698,-0.17482,0.077093,-0.0084125,0.079066,0.20404,-0.1416,0.10472,0.32605
699,-0.16364,0.18036,-0.0038083,0.090905,0.31618,-0.14752,0.10899,0.31454
700,-0.15377,0.19483,0.00046697,0.10143,0.36847,-0.14884,0.10965,0.3027
701,-0.14423,0.13103,0.0037556,0.10209,0.3346,-0.1495,0.10866,0.29974
702,-0.13733,0.029078,0.0037556,0.090577,0.21555,-0.15015,0.10505,0.31552
703,-0.137,-0.069253,0.0021113,0.064925,0.046508,-0.14752,0.096825,0.35104
704,-0.14292,-0.13897,0.002769,0.036314,-0.10839,-0.14391,0.084657,0.39741
705,-0.15443,-0.17318,0.0063866,0.011977,-0.19718,-0.1393,0.068214,0.44575
706,-0.16726,-0.18534,0.012964,-0.0028217,-0.20935,-0.13601,0.049797,0.48883
707,-0.17975,-0.19159,0.018555,-0.0087413,-0.17613,-0.13437,0.034998,0.52468
708,-0.19093,-0.20212,0.017897,-0.0084125,-0.13897,-0.13174,0.028421,0.55592
709,-0.20475,-0.21856,0.0067154,-0.0057815,-0.12121,-0.12648,0.027105,0.58914
710,-0.22514,-0.23369,-0.013345,-0.0034794,-0.13009,-0.11628,0.022501,0.624
711,-0.23895,-0.23467,-0.034064,-0.002164,-0.15706,-0.098522,0.014937,0.65031
712,-0.23106,-0.21494,-0.054783,-0.0008485,-0.19159,-0.076817,0.010662,0.65656
713,-0.1962,-0.18041,-0.076817,-0.0031506,-0.21757,-0.05544,0.014937,0.63715
714,-0.14193,-0.14818,-0.10444,-0.0034794,-0.22218,-0.037682,0.025461,0.5967
715,-0.08471,-0.1268,-0.13996,-0.002164,-0.19948,-0.023211,0.04026,0.54211
716,-0.039326,-0.11825,-0.17811,-0.0064392,-0.15509,-0.0097279,0.056046,0.48193
717,-0.016305,-0.11069,-0.20606,-0.02354,-0.10313,0.0030979,0.070845,0.42273
718,-0.011701,-0.091616,-0.21691,-0.047219,-0.056098,0.018884,0.082684,0.36156
719,-0.0077547,-0.054125,-0.20475,-0.060702,-0.012688,0.041904,0.099127,0.29513
720,0.010662,-0.0090702,-0.17252,-0.057085,0.04026,0.070187,0.12445,0.21818
721,0.054072,0.017897,-0.12878,-0.037353,0.10735,0.10209,0.16227,0.12412
722,0.11557,0.014937,-0.073199,-0.0061104,0.17641,0.13596,0.2139,0.00079584
723,0.16128,-0.033735,-0.0047949,0.027763,0.22673,0.16918,0.26356,-0.15607
724,0.14813,-0.14095,0.066569,0.054401,0.23462,0.19351,0.29151,-0.34583
725,0.051441,-0.30406,0.12971,0.063281,0.19483,0.19746,0.28658,-0.55696
726,-0.11266,-0.49579,0.17937,0.05177,0.1205,0.17838,0.25074,-0.77566
727,-0.30012,-0.68226,0.22212,0.033025,0.032696,0.14155,0.20075,-0.99173
728,-0.47277,-0.83782,0.27244,0.022501,-0.043601,0.097154,0.14813,-1.2002
729,-0.62833,-0.94174,0.34446,0.032038,-0.1005,0.044864,0.095181,-1.3887
730,-0.78355,-1.0046,0.43391,0.059663,-0.14818,-0.019923,0.024145,-1.5403
731,-0.94832,-1.0539,0.51843,0.091234,-0.19422,-0.10313,-0.079777,-1.6432
732,-1.095,-1.1075,0.55954,0.10998,-0.23994,-0.20113,-0.21297,-1.6962
733,-1.1739,-1.1726,0.52567,0.10636,-0.28137,-0.29584,-0.35208,-1.7047
734,-1.1516,-1.2548,0.41352,0.084986,-0.3113,-0.36852,-0.46751,-1.683
735,-1.0368,-1.3564,0.24876,0.051441,-0.32676,-0.41489,-0.54216,-1.6468
736,-0.8684,-1.4469,0.074791,0.014608,-0.32807,-0.4366,-0.57406,-1.61
737,-0.68917,-1.4278,-0.061689,-0.025842,-0.31689,-0.43726,-0.57176,-1.5705
738,-0.52835,-1.1716,-0.12746,-0.062676,-0.28269,-0.42476,-0.5448,-1.5225
739,-0.39023,-0.59972,-0.11727,-0.080763,-0.21494,-0.39713,-0.49645,-1.4643
740,-0.25704,0.24186,-0.052481,-0.066293,-0.11431,-0.3455,-0.43068,-1.3975
741,-0.11266,1.1564,0.031709,-0.024527,-0.0077547,-0.27184,-0.35438,-1.3153
742,0.052757,1.897,0.1011,0.030065,0.073476,-0.19126,-0.27315,-1.2098
743,0.23067,2.2762,0.12971,0.075778,0.10669,-0.1222,-0.19883,-1.0792
744,0.3984,2.2276,0.11195,0.096496,0.092221,-0.074844,-0.13799,-0.92168
745,0.53784,1.8184,0.06361,0.085644,0.050784,-0.053467,-0.091616,-0.7362
746,0.63419,1.2173,0.0034268,0.046837,0.00046697,-0.053467,-0.052481,-0.52112
747,0.68352,0.61841,-0.049192,-0.0090702,-0.054454,-0.060373,-0.014003,-0.28137
748,0.69569,0.17444,-0.085367,-0.068595,-0.11003,-0.062018,0.026119,-0.028802
749,0.67728,-0.050836,-0.10247,-0.1176,-0.16002,-0.051494,0.064267,0.22179
750,0.63156,-0.085696,-0.10444,-0.15213,-0.19258,-0.031762,0.096496,0.4543
751,0.56776,-0.0038083,-0.097207,-0.18008,-0.18995,-0.0047949,0.1182,0.65722
752,0.49969,0.11228,-0.087998,-0.20738,-0.13634,0.032367,0.12873,0.82264
753,0.4395,0.20667,-0.080763,-0.22711,-0.032749,0.083013,0.133,0.94662
754,0.39248,0.25008,-0.072542,-0.22645,0.10669,0.14352,0.133,1.0298
755,0.35663,0.24251,-0.057414,-0.18403,0.25402,0.20436,0.13497,1.0772
756,0.32703,0.19812,-0.036695,-0.085696,0.38557,0.25896,0.13958,1.0982
757,0.29842,0.13826,-0.014332,0.061307,0.49212,0.30894,0.14583,1.1002
758,0.27014,0.085315,0.00079584,0.22574,0.58815,0.35564,0.15339,1.089
759,0.24514,0.066898,0.0073732,0.36518,0.6901,0.41254,0.16063,1.0676
760,0.23002,0.10274,0.010662,0.45365,0.8131,0.48916,0.16983,1.0361
761,0.23002,0.20436,0.01987,0.49015,0.95451,0.5875,0.1774,0.99562
762,0.24745,0.35531,0.0373,0.48949,1.0992,0.7003,0.18365,0.94892
763,0.27704,0.51021,0.058019,0.47469,1.2143,0.80586,0.18989,0.90288
764,0.30697,0.61446,0.073804,0.46779,1.2735,0.88578,0.19318,0.8598
765,0.32736,0.61841,0.087617,0.46976,1.2706,0.92787,0.18825,0.81211
766,0.32901,0.50199,0.098141,0.44674,1.2087,0.92689,0.1774,0.75324
767,0.31059,0.29283,0.10209,0.3438,1.0877,0.8815,0.16556,0.68221
768,0.27902,0.049139,0.092221,0.13464,0.91801,0.79271,0.15503,0.61052
769,0.24383,-0.16265,0.069858,-0.14062,0.72233,0.67432,0.1455,0.54968
770,0.21522,-0.30472,0.045193,-0.39911,0.51942,0.54112,0.13596,0.50331
771,0.19877,-0.37806,0.027763,-0.56847,0.31486,0.40925,0.12445,0.47305
772,0.19746,-0.39944,0.022172,-0.61747,0.11195,0.29217,0.10801,0.45957
773,0.20798,-0.38497,0.02283,-0.55137,-0.082736,0.19351,0.088932,0.45924
774,0.22048,-0.34287,0.020199,-0.4047,-0.25276,0.10702,0.071831,0.46647
775,0.22081,-0.27973,0.010004,-0.22645,-0.38332,0.028092,0.056703,0.47469
776,0.20042,-0.20014,-0.0061104,-0.062347,-0.46455,-0.042944,0.047495,0.47502
777,0.16556,-0.1028,-0.017621,0.06065,-0.49481,-0.10148,0.042891,0.46516
778,0.12544,0.013951,-0.014332,0.14418,-0.48297,-0.14259,0.041575,0.45036
779,0.08959,0.133,0.0044134,0.20996,-0.44646,-0.16364,0.038287,0.43293
780,0.064596,0.23199,0.029078,0.27902,-0.40371,-0.16956,0.038944,0.41089
781,0.053743,0.31322,0.049797,0.35729,-0.37115,-0.17054,0.044206,0.38458
782,0.057361,0.39379,0.061307,0.42832,-0.35339,-0.17252,0.052099,0.3563
783,0.073147,0.49443,0.061965,0.46614,-0.3432,-0.17548,0.055717,0.32835
784,0.093865,0.60657,0.056046,0.45398,-0.33004,-0.18074,0.049797,0.29941
785,0.1136,0.70063,0.047495,0.39379,-0.31229,-0.18929,0.033354,0.27211
786,0.13136,0.74206,0.039602,0.30204,-0.29453,-0.19883,0.014608,0.24679
787,0.14418,0.71082,0.031052,0.20305,-0.2794,-0.20146,0.0021113,0.2264
788,0.14648,0.61084,0.021514,0.11689,-0.26756,-0.19718,-0.004466,0.207
789,0.13464,0.4691,0.0080309,0.058348,-0.25901,-0.19028,-0.01203,0.18562
790,0.10932,0.32572,-0.0067681,0.028421,-0.25243,-0.18469,-0.02354,0.15931
791,0.079066,0.21193,-0.022554,0.016581,-0.24651,-0.18501,-0.034064,0.13366
792,0.050784,0.14418,-0.034064,0.014937,-0.23928,-0.18995,-0.039984,0.10735
793,0.031052,0.1159,-0.040641,0.017568,-0.22842,-0.19356,-0.037024,0.078737
794,0.021843,0.10965,-0.038668,0.022501,-0.21428,-0.19291,-0.029131,0.04618
795,0.017568,0.1057,-0.026171,0.024474,-0.2008,-0.18995,-0.017621,0.012635
796,0.016253,0.088932,-0.0087413,0.022172,-0.18699,-0.18173,-0.0087413,-0.015976
797,0.012964,0.05473,0.0060577,0.018226,-0.16726,-0.16758,-0.0034794,-0.038997
798,0.0030979,0.0063866,0.010662,0.012306,-0.13996,-0.14654,-0.00051963,-0.056756
799,-0.01203,-0.041957,0.0083598,0.0011247,-0.10017,-0.11793,0.002769,-0.070897
800,-0.028802,-0.075173,0.0040845,-0.013345,-0.053467,-0.088327,0.0063866,-0.083065
801,-0.042944,-0.091616,0.0060577,-0.024856,-0.013017,-0.066951,0.0073732,-0.094905
802,-0.056427,-0.096549,0.011977,-0.026171,0.0063866,-0.0584,0.0063866,-0.10806
803,-0.070897,-0.097536,0.018555,-0.022225,0.0040845,-0.062018,0.0070443,-0.12713
804,-0.08471,-0.095891,0.01987,-0.017621,-0.017621,-0.076817,0.0073732,-0.15114
805,-0.09326,-0.095891,0.020199,-0.013345,-0.046561,-0.09326,0.0050711,-0.17877
806,-0.098851,-0.097207,0.021843,-0.01203,-0.070568,-0.10017,0.00079584,-0.20409
807,-0.10444,-0.097207,0.026776,-0.016305,-0.083394,-0.095891,-0.0034794,-0.22481
808,-0.10905,-0.09622,0.031709,-0.030775,-0.085367,-0.087669,-0.004466,-0.23961
809,-0.11102,-0.096549,0.035656,-0.047548,-0.083394,-0.079119,0.0014536,-0.24651
810,-0.11102,-0.098851,0.036642,-0.055769,-0.080106,-0.068595,0.012964,-0.24618
811,-0.10641,-0.099838,0.037958,-0.048534,-0.079119,-0.05544,0.025132,-0.24585
812,-0.09622,-0.10214,0.040918,-0.032749,-0.078461,-0.04393,0.030723,-0.24717
813,-0.083065,-0.10346,0.045193,-0.018936,-0.078132,-0.038339,0.023817,-0.25177
814,-0.068924,-0.1005,0.04618,-0.01499,-0.072213,-0.038997,0.0096753,-0.25868
815,-0.056756,-0.095233,0.042562,-0.021896,-0.065635,-0.039984,-0.0011774,-0.26559
816,-0.051165,-0.089972,0.034011,-0.035051,-0.061689,-0.037682,-0.004466,-0.27315
817,-0.050507,-0.085696,0.021186,-0.049192,-0.056756,-0.02946,-0.0024928,-0.28006
818,-0.051165,-0.083065,0.010991,-0.060045,-0.04689,-0.01795,-0.0015062,-0.28532
819,-0.050836,-0.086683,0.0047422,-0.058071,-0.030118,-0.0038083,-0.0064392,-0.29255
820,-0.048863,-0.094576,0.0011247,-0.041957,-0.012359,0.0073732,-0.010386,-0.30045
821,-0.047877,-0.099509,-0.0018351,-0.024198,0.0021113,0.011977,-0.010386,-0.30867
822,-0.046561,-0.097207,-0.007097,-0.016305,0.0086887,0.0083598,-0.0057815,-0.31689
823,-0.051494,-0.087669,-0.011372,-0.021567,0.0021113,0.0037556,-0.004466,-0.3238
824,-0.063004,-0.076488,-0.010386,-0.03242,-0.010386,0.00079584,-0.011372,-0.32774
825,-0.07879,-0.066622,-0.0090702,-0.043272,-0.023869,-0.0008485,-0.02354,-0.32445
826,-0.093918,-0.060702,-0.0084125,-0.048534,-0.034722,-0.0015062,-0.030118,-0.31426
827,-0.10181,-0.057743,-0.0080836,-0.040313,-0.042615,-0.0047949,-0.027816,-0.29749
828,-0.1005,-0.056098,-0.0087413,-0.023869,-0.052481,-0.0084125,-0.021896,-0.27874
829,-0.094576,-0.054783,-0.013017,-0.0090702,-0.069911,-0.013017,-0.020252,-0.26263
830,-0.089972,-0.054454,-0.018607,-0.0008485,-0.089972,-0.018936,-0.018936,-0.24717
831,-0.085367,-0.053138,-0.022554,0.002769,-0.1051,-0.027158,-0.015319,-0.23303
832,-0.080763,-0.051165,-0.025514,0.0093464,-0.10576,-0.036366,-0.0074258,-0.22448
833,-0.075173,-0.049192,-0.022225,0.014937,-0.088985,-0.043601,0.0047422,-0.2202
834,-0.068924,-0.04689,-0.010057,0.016253,-0.060045,-0.047219,0.015266,-0.21889
835,-0.061689,-0.043601,0.0067154,0.015266,-0.028802,-0.046232,0.022501,-0.21724
836,-0.055769,-0.041299,0.020199,0.011648,-0.0024928,-0.04393,0.027434,-0.21264
837,-0.053138,-0.039984,0.02579,0.0086887,0.016581,-0.041299,0.032038,-0.20113
838,-0.050836,-0.039326,0.024145,0.0054,0.02875,-0.042286,0.035656,-0.18238
839,-0.046232,-0.040313,0.020857,0.0014536,0.036314,-0.045246,0.041575,-0.16035
840,-0.034064,-0.042286,0.022172,0.00046697,0.041904,-0.048863,0.048482,-0.14029
841,-0.013017,-0.048205,0.027763,0.00046697,0.050784,-0.053796,0.055388,-0.12516
842,0.0093464,-0.056098,0.030723,0.0030979,0.062294,-0.060045,0.059334,-0.11201
843,0.026776,-0.062676,0.030723,0.010004,0.077751,-0.066951,0.058348,-0.099509
844,0.036971,-0.067937,0.031052,0.020857,0.099127,-0.075173,0.055059,-0.087012
845,0.041904,-0.068266,0.033683,0.032696,0.12708,-0.080434,0.054072,-0.077475
846,0.041247,-0.061689,0.039602,0.04618,0.15997,-0.07879,0.058348,-0.06728
847,0.040589,-0.049192,0.045522,0.059992,0.19713,-0.068266,0.068871,-0.052152
848,0.04026,-0.034064,0.050784,0.071831,0.23626,-0.053467,0.087288,-0.034393
849,0.037629,-0.020581,0.055717,0.080711,0.26586,-0.036037,0.10735,-0.018607
850,0.033025,-0.0074258,0.060321,0.086301,0.27441,-0.017621,0.12116,-0.010386
851,0.029078,0.0030979,0.06065,0.088275,0.25994,-0.002164,0.12445,-0.010715
852,0.025461,0.0086887,0.058348,0.085315,0.22706,0.0080309,0.11886,-0.01499
853,0.025132,0.010662,0.057361,0.076764,0.18628,0.0077021,0.11097,-0.022883
854,0.028421,0.012306,0.059334,0.066898,0.14616,0.0017824,0.10373,-0.03242
855,0.036314,0.01691,0.059334,0.057032,0.11294,-0.0038083,0.099456,-0.040313
856,0.045851,0.021843,0.054401,0.051113,0.08663,-0.0077547,0.098798,-0.041628
857,0.053743,0.024474,0.044535,0.048153,0.065254,-0.0077547,0.099456,-0.033735
858,0.056703,0.023817,0.034011,0.045522,0.053086,-0.0028217,0.10011,-0.018278
859,0.055388,0.021186,0.026776,0.042233,0.04881,0.0063866,0.10011,0.0017824
860,0.050126,0.025132,0.027105,0.039273,0.049468,0.014937,0.095181,0.018884
861,0.042233,0.034669,0.028092,0.038616,0.051441,0.021843,0.081697,0.024145
862,0.033354,0.043549,0.028092,0.039273,0.052757,0.031709,0.065912,0.014279
863,0.029736,0.049139,0.024145,0.044206,0.050784,0.045522,0.056374,-0.0067681
864,0.034998,0.052099,0.018226,0.054072,0.039273,0.060979,0.052757,-0.030118
865,0.049468,0.056374,0.013293,0.061307,0.019541,0.075449,0.053743,-0.046232
866,0.065254,0.063281,0.011648,0.062623,-0.0047949,0.088932,0.05769,-0.054454
867,0.079395,0.070516,0.015266,0.059334,-0.028144,0.099456,0.061307,-0.054783
868,0.088603,0.075778,0.023817,0.055717,-0.044259,0.10472,0.06361,-0.050507
869,0.093208,0.080053,0.033683,0.050784,-0.051823,0.10274,0.063938,-0.045903
870,0.093865,0.085644,0.039273,0.042562,-0.057743,0.098141,0.061307,-0.041957
871,0.089261,0.091234,0.038287,0.032696,-0.072542,0.095839,0.053415,-0.034722
872,0.084986,0.094852,0.029078,0.023817,-0.089643,0.099127,0.040918,-0.019594
873,0.084657,0.097812,0.018226,0.014608,-0.10082,0.10077,0.028421,-0.0018351
874,0.092221,0.1034,0.01132,0.0063866,-0.10247,0.096167,0.022501,0.010991
875,0.10538,0.11689,0.0093464,0.0034268,-0.09622,0.085644,0.020857,0.018226
876,0.11491,0.13793,0.0070443,0.0070443,-0.087669,0.07512,0.020857,0.019212
877,0.1113,0.16063,0.0001381,0.013293,-0.07879,0.065583,0.017897,0.019541
878,0.094523,0.17773,-0.0097279,0.023488,-0.074186,0.055717,0.012635,0.01987
879,0.069858,0.18036,-0.018278,0.031709,-0.07879,0.045522,0.010004,0.020199
880,0.048153,0.17115,-0.018936,0.035327,-0.093918,0.034998,0.013293,0.019541
881,0.036971,0.15734,-0.0090702,0.032696,-0.11694,0.023817,0.01987,0.020857
882,0.037958,0.1478,0.0093464,0.026776,-0.13864,0.014279,0.025132,0.02579
883,0.044535,0.14352,0.028421,0.021514,-0.15673,0.012306,0.027105,0.032696
884,0.049797,0.1376,0.043877,0.014937,-0.17679,0.016581,0.027763,0.037958
885,0.04881,0.12248,0.055059,0.002769,-0.2008,0.021186,0.027105,0.039602
886,0.042233,0.093865,0.053743,-0.016963,-0.21922,0.023817,0.025461,0.038944
887,0.029407,0.049139,0.039931,-0.042615,-0.22251,0.024474,0.022172,0.034011
888,0.013951,-0.0080836,0.018884,-0.068266,-0.20113,0.024803,0.015266,0.030065
889,-0.0015062,-0.072213,0.00046697,-0.080763,-0.15739,0.028092,0.0060577,0.029736
890,-0.015648,-0.13437,-0.0011774,-0.069911,-0.09918,0.03434,-0.0061104,0.02875
891,-0.030775,-0.1814,0.016581,-0.038011,-0.031762,0.042562,-0.018936,0.025132
892,-0.04689,-0.20212,0.053086,0.0077021,0.042233,0.053086,-0.031433,0.021514
893,-0.062676,-0.19455,0.094523,0.057361,0.11721,0.064596,-0.043601,0.021514
894,-0.069582,-0.1587,0.12741,0.096825,0.18463,0.071502,-0.05544,0.024803
895,-0.060373,-0.10214,0.14221,0.10834,0.22804,0.070845,-0.063004,0.029736
896,-0.036695,-0.039984,0.1353,0.090248,0.23331,0.058348,-0.072542,0.031709
897,-0.0041372,0.015924,0.10998,0.053415,0.20206,0.038944,-0.086354,0.033025
898,0.028092,0.053086,0.073476,0.014608,0.1672,0.022172,-0.097864,0.034998
899,0.05473,0.058676,0.037629,-0.015648,0.17773,0.014608,-0.10214,0.0373
900,0.07216,0.038944,0.011648,-0.025514,0.26817,0.021186,-0.098851,0.035985
901,0.077751,0.0050711,-0.00051963,-0.017621,0.42799,0.040589,-0.087341,0.032696
902,0.07512,-0.0265,-0.0008485,-0.007097,0.59506,0.072489,-0.067609,0.030065
903,0.066569,-0.048534,0.0067154,-0.0080836,0.69964,0.11031,-0.042286,0.032696
904,0.056046,-0.062347,0.015924,-0.021567,0.7072,0.14648,-0.016963,0.041575
905,0.04618,-0.066622,0.024803,-0.02946,0.63518,0.18134,0.0073732,0.052757
906,0.039931,-0.055769,0.033683,-0.0038083,0.53422,0.21324,0.030394,0.063281
907,0.034998,-0.030447,0.039931,0.061307,0.44115,0.24514,0.049797,0.07216
908,0.029736,0.0030979,0.042562,0.14517,0.36551,0.27606,0.061636,0.077422
909,0.022172,0.03434,0.039273,0.21226,0.29776,0.30138,0.060979,0.07808
910,0.014279,0.047824,0.034011,0.24054,0.23133,0.31947,0.051113,0.077093
911,0.0050711,0.034669,0.026447,0.22541,0.17641,0.32703,0.034998,0.076435
912,-0.0031506,-0.0093991,0.017897,0.18299,0.14122,0.31914,0.021843,0.07808
913,-0.013017,-0.076159,0.012964,0.13366,0.1284,0.28428,0.013951,0.081368
914,-0.026829,-0.14292,0.0093464,0.095839,0.12544,0.21883,0.0096753,0.085644
915,-0.042615,-0.18995,0.0057288,0.064925,0.10636,0.13037,0.011977,0.09255
916,-0.059058,-0.22316,-0.00051963,0.036314,0.045851,0.039931,0.021186,0.10274
917,-0.07583,-0.26657,-0.011701,0.0096753,-0.06136,-0.028144,0.035985,0.11294
918,-0.095233,-0.33761,-0.023211,-0.015319,-0.20639,-0.062676,0.05473,0.1182
919,-0.12023,-0.43331,-0.032749,-0.033406,-0.37346,-0.061689,0.071173,0.11524
920,-0.15279,-0.54874,-0.040641,-0.034064,-0.53098,-0.025185,0.081697,0.10669
921,-0.18699,-0.68259,-0.044917,-0.01203,-0.64082,0.032696,0.08367,0.099127
922,-0.21527,-0.81808,-0.048205,0.023817,-0.67141,0.096496,0.080382,0.097812
923,-0.22875,-0.91576,-0.050507,0.060979,-0.60498,0.15734,0.077422,0.10077
924,-0.22152,-0.92431,-0.047548,0.08959,-0.44548,0.21456,0.079724,0.10209
925,-0.19258,-0.81282,-0.036037,0.10603,-0.22678,0.26784,0.088275,0.10176
926,-0.14719,-0.59643,-0.019265,0.11623,0.011648,0.3119,0.10044,0.10077
927,-0.089314,-0.32676,-0.0024928,0.12313,0.23495,0.33558,0.11195,0.10176
928,-0.026829,-0.062676,0.013951,0.12741,0.41287,0.33229,0.12313,0.10636
929,0.036314,0.17214,0.030065,0.13169,0.52238,0.29908,0.133,0.11491
930,0.099456,0.38689,0.041575,0.13728,0.55033,0.24613,0.14089,0.12281
931,0.16326,0.60493,0.051441,0.14221,0.51218,0.18693,0.14254,0.12544
932,0.2264,0.84763,0.060321,0.14352,0.43786,0.13629,0.14089,0.11952
933,0.29415,1.1512,0.065254,0.14089,0.36288,0.10538,0.13793,0.1057
934,0.36847,1.5323,0.064596,0.13234,0.32078,0.097812,0.13793,0.090905
935,0.44806,1.9497,0.059334,0.11853,0.33887,0.10866,0.14254,0.083013
936,0.52402,2.2897,0.047824,0.10242,0.4178,0.12313,0.1501,0.08367
937,0.5875,2.4301,0.032696,0.08663,0.5306,0.1307,0.15471,0.090248
938,0.63419,2.3288,0.020857,0.077093,0.6286,0.12544,0.15043,0.096167
939,0.66149,2.0404,0.017568,0.073147,0.66379,0.11064,0.13892,0.098141
940,0.67103,1.6879,0.030394,0.068871,0.61413,0.086959,0.13169,0.09255
941,0.66708,1.382,0.064596,0.06624,0.49179,0.06065,0.13234,0.082684
942,0.65393,1.1689,0.11689,0.063938,0.32769,0.0373,0.13991,0.071502
943,0.62268,1.0275,0.17279,0.064925,0.15964,0.023817,0.1501,0.063281
944,0.56217,0.89531,0.2162,0.068871,0.020857,0.018555,0.15964,0.05473
945,0.47042,0.71641,0.23561,0.076435,-0.067937,0.01691,0.16128,0.045522
946,0.35729,0.49673,0.23265,0.08663,-0.11562,0.017239,0.15207,0.038944
947,0.24054,0.30664,0.22015,0.10011,-0.14983,0.021843,0.13366,0.038287
948,0.13596,0.22475,0.21259,0.1182,-0.20113,0.027434,0.10932,0.043877
949,0.051441,0.26488,0.21719,0.13333,-0.28927,0.024803,0.083342,0.054072
950,-0.013017,0.3563,0.22969,0.12938,-0.40305,0.0030979,0.056046,0.071173
951,-0.057414,0.38491,0.23594,0.096825,-0.51125,-0.038339,0.027763,0.094852
952,-0.083065,0.26619,0.21916,0.036971,-0.59018,-0.096549,-0.00051963,0.12017
953,-0.085039,0.0057288,0.17049,-0.033735,-0.63885,-0.16824,-0.026829,0.1376
954,-0.054125,-0.30637,0.091892,-0.094247,-0.66746,-0.2452,-0.051823,0.13859
955,0.011977,-0.54447,-0.0093991,-0.12976,-0.69048,-0.32774,-0.082408,0.12511
956,0.10538,-0.62471,-0.11694,-0.137,-0.71285,-0.40996,-0.12056,0.1034
957,0.19746,-0.55269,-0.21428,-0.12483,-0.72765,-0.48593,-0.16331,0.07808
958,0.25863,-0.40371,-0.29288,-0.1097,-0.7214,-0.54381,-0.19883,0.056703
959,0.27277,-0.27019,-0.34386,-0.10707,-0.69246,-0.56782,-0.2156,0.035985
960,0.24778,-0.21724,-0.36556,-0.1199,-0.65102,-0.55959,-0.20738,0.015266
961,0.20272,-0.26756,-0.35372,-0.14391,-0.62734,-0.52967,-0.17712,-0.0064392
962,0.15207,-0.39187,-0.31261,-0.17449,-0.6474,-0.49612,-0.13568,-0.025514
963,0.10439,-0.52506,-0.24881,-0.20836,-0.71844,-0.46948,-0.088985,-0.041299
964,0.06065,-0.58985,-0.17449,-0.23763,-0.81808,-0.45403,-0.043601,-0.057414
965,0.016253,-0.54249,-0.097536,-0.24947,-0.90096,-0.44548,-0.0077547,-0.076159
966,-0.030775,-0.40404,-0.021238,-0.23665,-0.92168,-0.43364,0.015924,-0.093589
967,-0.083065,-0.24947,0.048482,-0.20343,-0.85064,-0.40634,0.029736,-0.10543
968,-0.1416,-0.16166,0.10899,-0.15969,-0.68851,-0.36129,0.03434,-0.10806
969,-0.19948,-0.18304,0.15339,-0.11299,-0.45501,-0.30308,0.030723,-0.10247
970,-0.25408,-0.3113,0.17641,-0.065635,-0.1883,-0.24257,0.015266,-0.095562
971,-0.30702,-0.50566,0.17707,-0.012688,0.076764,-0.18896,-0.011372,-0.091945
972,-0.35997,-0.71679,0.15372,0.056374,0.31454,-0.14489,-0.047548,-0.095562
973,-0.40207,-0.90523,0.11228,0.14254,0.52074,-0.11036,-0.088656,-0.11201
974,-0.4218,-1.0476,0.06065,0.23298,0.68451,-0.07879,-0.12648,-0.13996
975,-0.41785,-1.1443,0.013951,0.30631,0.79402,-0.042615,-0.1495,-0.17219
976,-0.39976,-1.1953,-0.0084125,0.35005,0.83711,0.0054,-0.14785,-0.19652
977,-0.38562,-1.1917,0.0063866,0.36189,0.80356,0.056703,-0.12352,-0.20771
978,-0.38201,-1.1203,0.053086,0.34446,0.68747,0.10077,-0.088327,-0.2054
979,-0.38464,-0.98252,0.10932,0.29842,0.48423,0.12379,-0.053467,-0.19356
980,-0.38365,-0.80098,0.15306,0.22574,0.22179,0.11557,-0.025185,-0.17219
981,-0.37214,-0.61452,0.17181,0.13366,-0.002164,0.084986,-0.0080836,-0.14325
982,-0.35208,-0.47014,0.16161,0.036971,-0.068595,0.048153,-0.004466,-0.11628
983,-0.33925,-0.39812,0.12248,-0.050836,0.077422,0.017239,-0.010386,-0.10181
984,-0.33728,-0.39385,0.065583,-0.12352,0.39281,-0.0054526,-0.01795,-0.098851
985,-0.34353,-0.42673,0.0047422,-0.18271,0.7835,-0.014332,-0.021567,-0.097536
986,-0.34616,-0.46751,-0.04689,-0.235,1.1439,-0.00019077,-0.018936,-0.085696
987,-0.33761,-0.49152,-0.078132,-0.28269,1.387,0.045522,-0.0077547,-0.061689
988,-0.31163,-0.48461,-0.082736,-0.31229,1.4554,0.12149,0.010991,-0.031104
989,-0.27282,-0.4435,-0.067609,-0.28663,1.3386,0.21686,0.034998,0.0001381
990,-0.22974,-0.37806,-0.044917,-0.16462,1.0755,0.30927,0.061965,0.023488
991,-0.18962,-0.30702,-0.026171,0.05473,0.72562,0.37472,0.083342,0.036314
992,-0.15903,-0.24421,-0.017292,0.30302,0.34709,0.39544,0.091563,0.034011
993,-0.14292,-0.19324,-0.018607,0.48982,-0.0087413,0.37866,0.081697,0.015924
994,-0.13897,-0.14456,-0.026171,0.56053,-0.29946,0.3438,0.060979,-0.015976
995,-0.13897,-0.095562,-0.038011,0.51284,-0.49086,0.31322,0.042562,-0.054454
996,-0.1324,-0.049521,-0.050507,0.38623,-0.56058,0.30105,0.033683,-0.087012
997,-0.11793,-0.010386,-0.063004,0.23791,-0.51355,0.30434,0.03434,-0.099509
998,-0.09918,0.020528,-0.076488,0.11656,-0.38661,0.31454,0.041575,-0.086354
999,-0.083065,0.044864,-0.086354,0.039602,-0.23434,0.32835,0.044535,-0.051165
1000,-0.073199,0.062952,-0.088656,0.0011247,-0.10313,0.33887,0.042233,-0.0064392
1001,-0.07024,0.080711,-0.084381,-0.014661,-0.027816,0.33854,0.038944,0.029407
1002,-0.066622,0.10209,-0.079119,-0.019594,-0.033078,0.32013,0.037629,0.052757
1003,-0.06136,0.11426,-0.071555,-0.020581,-0.1222,0.28066,0.038616,0.064267
1004,-0.061031,0.08959,-0.060045,-0.020909,-0.27545,0.22508,0.039602,0.07512
1005,-0.075501,0.0014536,-0.052152,-0.024527,-0.46751,0.16457,0.037629,0.091234
1006,-0.10905,-0.15476,-0.054783,-0.02946,-0.65727,0.10866,0.033683,0.11656
1007,-0.1541,-0.34451,-0.063991,-0.032091,-0.79901,0.058676,0.027105,0.14813
1008,-0.19685,-0.51487,-0.076159,-0.030118,-0.8536,0.012635,0.019541,0.17477
1009,-0.2281,-0.6303,-0.087998,-0.028802,-0.79506,-0.027487,0.010333,0.19088
1010,-0.24092,-0.67667,-0.097207,-0.032091,-0.61024,-0.057743,0.0034268,0.19976
1011,-0.23467,-0.66286,-0.10346,-0.039984,-0.31557,-0.074844,0.0021113,0.19943
1012,-0.21823,-0.61484,-0.10609,-0.051823,0.028421,-0.080106,0.0044134,0.1945
1013,-0.20508,-0.56255,-0.10937,-0.067937,0.33262,-0.082736,0.0080309,0.19088
1014,-0.20639,-0.54644,-0.11529,-0.08471,0.5181,-0.091287,0.010991,0.18957
1015,-0.22875,-0.60827,-0.12779,-0.098522,0.55855,-0.11168,0.010333,0.18858
1016,-0.27512,-0.75132,-0.14489,-0.10872,0.48061,-0.13864,0.0070443,0.18397
1017,-0.33761,-0.93385,-0.15838,-0.11562,0.33953,-0.16693,0.0014536,0.16885
1018,-0.40634,-1.0881,-0.16002,-0.12056,0.182,-0.18995,-0.004466,0.1455
1019,-0.46554,-1.1591,-0.14555,-0.12417,0.039931,-0.19916,-0.0067681,0.11557
1020,-0.49711,-1.1016,-0.11661,-0.12549,-0.073199,-0.19192,-0.0018351,0.087617
1021,-0.48132,-0.86445,-0.076159,-0.11858,-0.15969,-0.17054,0.0090175,0.066569
1022,-0.40503,-0.42279,-0.030118,-0.097864,-0.22842,-0.14358,0.025132,0.052757
1023,-0.27151,0.16589,0.015595,-0.063991,-0.28631,-0.11727,0.040589,0.039273
1024,-0.10017,0.76245,0.058019,-0.027158,-0.33991,-0.093589,0.052428,0.021843
1025,0.074133,1.2189,0.091563,0.0021113,-0.38727,-0.071884,0.06065,-0.0015062
1026,0.2116,1.4425,0.11162,0.014937,-0.41555,-0.054454,0.063938,-0.028144
1027,0.29579,1.4465,0.12116,0.0077021,-0.41654,-0.044588,0.060979,-0.055769
1028,0.33427,1.3334,0.12741,-0.01203,-0.38628,-0.045246,0.056046,-0.085367
1029,0.35005,1.2423,0.13596,-0.02946,-0.32906,-0.05281,0.055059,-0.12056
1030,0.37209,1.286,0.15569,-0.033406,-0.25013,-0.060045,0.056703,-0.16232
1031,0.42207,1.5021,0.18891,-0.01795,-0.1564,-0.059387,0.063938,-0.20935
1032,0.50363,1.8425,0.22837,0.013622,-0.065635,-0.046232,0.07512,-0.25737
1033,0.6069,2.2236,0.26323,0.050784,0.0063866,-0.022554,0.088275,-0.30242
1034,0.72693,2.5702,0.28658,0.080053,0.044535,0.002769,0.099127,-0.33925
1035,0.85223,2.8392,0.29908,0.089919,0.052428,0.023159,0.10505,-0.36227
1036,0.96734,2.9866,0.29941,0.079724,0.036314,0.035656,0.10834,-0.35997
1037,1.0565,2.9399,0.28855,0.059005,0.0086887,0.041904,0.10932,-0.31886
1038,1.0979,2.6314,0.26488,0.03434,-0.020581,0.037629,0.1034,-0.23171
1039,1.0795,2.0667,0.22311,0.010662,-0.049521,0.020199,0.086301,-0.1176
1040,1.0114,1.3314,0.16391,-0.0097279,-0.076159,-0.0080836,0.058348,-0.0093991
1041,0.91505,0.55954,0.094852,-0.024856,-0.095891,-0.043272,0.02579,0.070845
1042,0.81573,-0.10839,0.032696,-0.033406,-0.10346,-0.076817,0.0001381,0.11721
1043,0.73022,-0.57801,-0.0064392,-0.031433,-0.095562,-0.10017,-0.0084125,0.13333
1044,0.66905,-0.84768,-0.019265,-0.019594,-0.073528,-0.10905,0.0014536,0.12938
1045,0.63255,-0.96279,-0.011701,-0.0034794,-0.043272,-0.10082,0.015595,0.11557
1046,0.60887,-0.96805,0.0040845,0.015924,-0.013017,-0.086025,0.026119,0.093865
1047,0.58158,-0.84406,0.015595,0.034998,0.0077021,-0.071884,0.031709,0.06361
1048,0.54968,-0.53624,0.022172,0.049797,0.0040845,-0.0584,0.03434,0.027434
1049,0.52041,-0.032091,0.025132,0.061965,-0.02354,-0.043272,0.040589,-0.0097279
1050,0.50199,0.5819,0.028092,0.070516,-0.060045,-0.024856,0.057032,-0.047548
1051,0.49212,1.1476,0.034669,0.076435,-0.085367,-0.004466,0.077751,-0.083065
1052,0.48324,1.5182,0.046837,0.076106,-0.085696,0.017239,0.091234,-0.12319
1053,0.47009,1.6415,0.061307,0.072818,-0.063333,0.039602,0.090577,-0.16166
1054,0.45167,1.5912,0.07808,0.070845,-0.027487,0.060979,0.078409,-0.18863
1055,0.43128,1.5087,0.094852,0.074462,0.0093464,0.080382,0.059334,-0.20409
1056,0.41352,1.509,0.10702,0.083999,0.041247,0.09255,0.039602,-0.21593
1057,0.4053,1.604,0.10965,0.095181,0.06624,0.097812,0.024803,-0.23204
1058,0.40662,1.7214,0.099456,0.096825,0.085644,0.098798,0.020199,-0.25605
1059,0.40201,1.7375,0.079395,0.085644,0.095181,0.099456,0.026776,-0.28302
1060,0.38162,1.5629,0.057032,0.063938,0.094852,0.10274,0.036971,-0.30571
1061,0.34216,1.189,0.040589,0.04618,0.093536,0.10866,0.045851,-0.31492
1062,0.28691,0.69832,0.037958,0.045522,0.098141,0.1159,0.050784,-0.30998
1063,0.21851,0.207,0.057032,0.068214,0.11524,0.12412,0.05473,-0.30045
1064,0.13958,-0.18666,0.09551,0.10439,0.14418,0.133,0.058348,-0.28959
1065,0.04881,-0.44252,0.1376,0.13958,0.17575,0.13925,0.056374,-0.27381
1066,-0.05281,-0.57604,0.16359,0.16095,0.19779,0.13793,0.047824,-0.24355
1067,-0.1564,-0.6326,0.16326,0.16589,0.20108,0.13596,0.03434,-0.19521
1068,-0.2498,-0.65957,0.13662,0.15372,0.18858,0.13925,0.016581,-0.13108
1069,-0.31821,-0.69114,0.090248,0.1284,0.16819,0.14977,0.0011247,-0.056098
1070,-0.35767,-0.74244,0.036642,0.092879,0.14188,0.16622,-0.0077547,0.023488
1071,-0.37082,-0.81315,-0.011372,0.053086,0.11097,0.18463,-0.0051238,0.10011
1072,-0.3705,-0.89011,-0.044259,0.017239,0.074462,0.19384,0.0047422,0.17082
1073,-0.37082,-0.95391,-0.060045,-0.0038083,0.044864,0.18759,0.017568,0.22607
1074,-0.37477,-0.99107,-0.062676,-0.011372,0.032367,0.17049,0.029736,0.26225
1075,-0.37642,-1.0016,-0.057743,-0.007097,0.035985,0.1501,0.036642,0.28296
1076,-0.36819,-0.99469,-0.04985,0.0070443,0.053415,0.13234,0.033025,0.29612
1077,-0.35635,-0.98219,-0.042286,0.025132,0.087946,0.12313,0.021186,0.31092
1078,-0.35175,-0.97791,-0.038339,0.041247,0.15306,0.13004,0.0090175,0.32999
1079,-0.36129,-0.98383,-0.037024,0.053415,0.25665,0.15109,0.0014536,0.35301
1080,-0.38431,-0.99041,-0.038339,0.061636,0.39346,0.17904,0.0011247,0.38228
1081,-0.41226,-0.9914,-0.041299,0.067227,0.54704,0.20502,0.0093464,0.41616
1082,-0.43956,-0.97693,-0.042944,0.074462,0.69503,0.22212,0.018555,0.45069
1083,-0.45863,-0.95062,-0.043601,0.081368,0.82099,0.2264,0.026447,0.47831
1084,-0.46554,-0.92069,-0.042615,0.08959,0.91965,0.21653,0.032367,0.49212
1085,-0.4583,-0.89603,-0.037353,0.10077,0.99332,0.19285,0.038287,0.48686
1086,-0.44318,-0.87794,-0.027487,0.10998,1.0456,0.15799,0.041247,0.46154
1087,-0.42871,-0.8684,-0.014332,0.1136,1.0798,0.11754,0.039602,0.42076
1088,-0.41983,-0.86511,-0.0011774,0.10735,1.094,0.079066,0.03434,0.37242
1089,-0.41292,-0.86413,0.0077021,0.089919,1.0762,0.052428,0.027434,0.32769
1090,-0.40503,-0.85886,0.0090175,0.068543,1.0157,0.03434,0.024474,0.2925
1091,-0.39417,-0.84637,0.0047422,0.05177,0.91373,0.01691,0.02875,0.27211
1092,-0.37576,-0.82663,-0.0024928,0.041575,0.77922,-0.0047949,0.035985,0.26521
1093,-0.35043,-0.8,-0.0084125,0.041575,0.63518,-0.028144,0.04322,0.26915
1094,-0.32314,-0.76448,-0.012359,0.046508,0.49344,-0.050507,0.049139,0.28066
1095,-0.30012,-0.72205,-0.013345,0.04881,0.35334,-0.065307,0.055717,0.28921
1096,-0.28499,-0.67207,-0.0087413,0.04881,0.20864,-0.067937,0.062952,0.28954
1097,-0.27644,-0.62175,0.0014536,0.052099,0.063938,-0.059716,0.067227,0.27672
1098,-0.26953,-0.57341,0.014937,0.063938,-0.065964,-0.043272,0.066569,0.25139
1099,-0.25901,-0.52671,0.027763,0.085972,-0.16726,-0.024856,0.061307,0.21588
1100,-0.2452,-0.48593,0.037629,0.11195,-0.22283,-0.0057815,0.058348,0.17279
1101,-0.22842,-0.44877,0.043549,0.13958,-0.2202,0.017568,0.057032,0.12445
1102,-0.21297,-0.41621,0.047166,0.16063,-0.14752,0.047495,0.059334,0.066569
1103,-0.1985,-0.38595,0.050455,0.16194,-0.013674,0.087288,0.067885,-0.0031506
1104,-0.18633,-0.35734,0.051441,0.14122,0.16194,0.13267,0.082684,-0.085367
1105,-0.17153,-0.32873,0.052099,0.10834,0.3244,0.17115,0.098141,-0.17186
1106,-0.15114,-0.30012,0.046837,0.076764,0.40662,0.18661,0.10998,-0.25177
1107,-0.12746,-0.26756,0.040589,0.05177,0.36321,0.17049,0.11623,-0.31722
1108,-0.10543,-0.23106,0.037629,0.038287,0.20042,0.1284,0.11689,-0.36589
1109,-0.085039,-0.19159,0.036971,0.036642,-0.038339,0.077422,0.11162,-0.4024
1110,-0.069911,-0.15279,0.0373,0.045522,-0.28959,0.030394,0.098141,-0.43693
1111,-0.058729,-0.1199,0.036314,0.064596,-0.49481,-0.0064392,0.080053,-0.47968
1112,-0.05281,-0.089972,0.031381,0.087288,-0.61583,-0.033406,0.062952,-0.52769
1113,-0.048863,-0.063333,0.026776,0.10143,-0.63293,-0.049521,0.052428,-0.56354
1114,-0.04393,-0.038997,0.022501,0.1011,-0.56091,-0.057743,0.04881,-0.57867
1115,-0.038011,-0.01499,0.021843,0.085315,-0.44778,-0.062347,0.04618,-0.56913
1116,-0.032091,0.0090175,0.022501,0.055717,-0.35767,-0.067609,0.041247,-0.5369
1117,-0.02946,0.030065,0.025461,0.021514,-0.33169,-0.076159,0.029078,-0.48724
1118,-0.028144,0.045522,0.02875,-0.010057,-0.37707,-0.089314,0.012635,-0.42509
1119,-0.029131,0.056374,0.032367,-0.036037,-0.46784,-0.10313,-0.0011774,-0.35438
1120,-0.0265,0.065912,0.036314,-0.054125,-0.56453,-0.11003,-0.0097279,-0.28236
1121,-0.017292,0.073804,0.040918,-0.059058,-0.63293,-0.10609,-0.014003,-0.21724
1122,-0.0038083,0.084328,0.040589,-0.056756,-0.66121,-0.091616,-0.016963,-0.16232
1123,0.010662,0.097812,0.037629,-0.048863,-0.65497,-0.076488,-0.018278,-0.11036
1124,0.018555,0.11097,0.035656,-0.038997,-0.62866,-0.066293,-0.015976,-0.057414
1125,0.017568,0.12577,0.032696,-0.034064,-0.60103,-0.061031,-0.014332,-0.0024928
1126,0.010333,0.14056,0.026119,-0.038011,-0.57998,-0.058071,-0.01499,0.052099
1127,0.010004,0.15109,0.011977,-0.047877,-0.56453,-0.05281,-0.015319,0.10735
1128,0.019541,0.1524,-0.0067681,-0.060373,-0.54677,-0.049521,-0.012359,0.15865
1129,0.035985,0.1455,-0.026829,-0.076159,-0.51849,-0.050836,-0.0080836,0.19812
1130,0.055717,0.13037,-0.046232,-0.081421,-0.47244,-0.054454,-0.0038083,0.22311
1131,0.070187,0.11064,-0.060373,-0.06728,-0.40009,-0.054454,0.0001381,0.23725
1132,0.074791,0.093208,-0.07024,-0.035051,-0.29321,-0.050836,-0.0034794,0.2458
1133,0.071502,0.085972,-0.076488,0.015266,-0.15147,-0.041628,-0.015976,0.25435
1134,0.070845,0.098141,-0.078461,0.070845,0.0070443,-0.031433,-0.030118,0.26126
1135,0.083999,0.14221,-0.076817,0.11656,0.14846,-0.021567,-0.039326,0.26422
1136,0.11721,0.22377,-0.069582,0.13859,0.23232,-0.011701,-0.039326,0.26323
1137,0.16391,0.34019,-0.053138,0.12149,0.2264,-0.0038083,-0.028802,0.25205
1138,0.21028,0.48127,-0.029131,0.067556,0.12379,0.0034268,-0.016305,0.23133
1139,0.2435,0.62696,0.00046697,-0.00019077,-0.046561,0.0067154,-0.0038083,0.20469
1140,0.2606,0.75686,0.028092,-0.053796,-0.23796,0.0017824,0.0040845,0.18167
1141,0.26257,0.84796,0.049139,-0.083394,-0.40404,-0.0087413,0.0057288,0.16687
1142,0.24843,0.88216,0.066898,-0.088327,-0.50829,-0.020909,0.0044134,0.16622
1143,0.22147,0.84467,0.08959,-0.07583,-0.53986,-0.032749,-0.0018351,0.18003
1144,0.19022,0.74272,0.11919,-0.048534,-0.51026,-0.046232,-0.01203,0.19713
1145,0.16359,0.59506,0.15339,-0.013674,-0.44318,-0.063662,-0.021567,0.20864
1146,0.14056,0.42767,0.18134,0.014937,-0.35274,-0.083065,-0.029131,0.20173
1147,0.12445,0.26751,0.19187,0.027434,-0.25342,-0.1005,-0.034722,0.17312
1148,0.11853,0.13366,0.18463,0.011648,-0.15936,-0.11299,-0.038668,0.12544
1149,0.1284,0.036314,0.16556,-0.033735,-0.080763,-0.11727,-0.037353,0.073147
1150,0.14813,-0.0265,0.13892,-0.093918,-0.027158,-0.11365,-0.030447,0.023488
1151,0.16391,-0.063991,0.10768,-0.13503,-0.0038083,-0.10181,-0.018936,-0.020252
1152,0.15865,-0.083394,0.0692,-0.13108,-0.010715,-0.087669,-0.0077547,-0.056427
1153,0.13169,-0.084052,0.025132,-0.086025,-0.041628,-0.074844,-0.0028217,-0.089972
1154,0.088603,-0.067609,-0.021896,-0.026171,-0.077803,-0.07024,-0.0054526,-0.12056
1155,0.043877,-0.033078,-0.060702,0.026776,-0.092603,-0.08175,-0.01499,-0.14588
1156,0.010333,0.014279,-0.080106,0.068871,-0.062676,-0.10773,-0.030118,-0.16495
1157,-0.0028217,0.070516,-0.07879,0.1034,0.012306,-0.13667,-0.049192,-0.18205
1158,0.0073732,0.12807,-0.059716,0.12642,0.10274,-0.15246,-0.06136,-0.2054
1159,0.033683,0.17838,-0.033406,0.12807,0.17312,-0.14818,-0.063004,-0.24289
1160,0.06361,0.21324,-0.0064392,0.11097,0.20535,-0.13042,-0.054783,-0.29617
1161,0.090248,0.23298,0.011977,0.086301,0.20009,-0.11069,-0.035708,-0.35208
1162,0.11195,0.24218,0.021186,0.067885,0.16589,-0.096878,-0.0097279,-0.39056
1163,0.12642,0.24482,0.026119,0.051113,0.11787,-0.091287,0.01691,-0.39944
1164,0.13399,0.24284,0.02579,0.034011,0.06065,-0.091287,0.041247,-0.38168
1165,0.13497,0.2389,0.020199,0.017897,-0.0074258,-0.093918,0.061636,-0.3455
1166,0.13563,0.23791,0.0086887,0.0037556,-0.082079,-0.09326,0.078409,-0.29486
1167,0.13991,0.24218,-0.0041372,-0.004466,-0.15213,-0.083723,0.094852,-0.22645
1168,0.14944,0.25139,-0.013345,-0.010057,-0.2054,-0.060045,0.10998,-0.14127
1169,0.16128,0.25698,-0.018936,-0.013674,-0.22875,-0.021238,0.12544,-0.056098
1170,0.17181,0.25468,-0.025842,-0.010386,-0.20738,0.029736,0.13892,-0.0011774
1171,0.18069,0.25041,-0.035708,0.0044134,-0.12878,0.085644,0.14944,0.0050711
1172,0.19088,0.25369,-0.04393,0.023159,0.0073732,0.14024,0.15569,-0.036037
1173,0.207,0.27244,-0.050836,0.027763,0.18069,0.18957,0.15997,-0.10444
1174,0.23002,0.30697,-0.061689,-0.0047949,0.35597,0.23035,0.16457,-0.1666
1175,0.26159,0.35499,-0.085367,-0.078461,0.50002,0.25863,0.17181,-0.19521
1176,0.29546,0.40629,-0.12483,-0.17581,0.58092,0.26849,0.1797,-0.18436
1177,0.32013,0.43687,-0.17581,-0.26296,0.57434,0.25534,0.18693,-0.15147
1178,0.32736,0.43161,-0.22251,-0.30834,0.48686,0.22377,0.19187,-0.11628
1179,0.31651,0.39544,-0.24421,-0.29223,0.36123,0.18924,0.19647,-0.089314
1180,0.29119,0.34512,-0.2281,-0.22218,0.25994,0.16819,0.20108,-0.074186
1181,0.24745,0.30796,-0.16397,-0.12286,0.22706,0.16194,0.20206,-0.068595
1182,0.17773,0.30204,-0.057743,-0.020909,0.26323,0.16095,0.1945,-0.067937
1183,0.085315,0.34676,0.07216,0.068543,0.33032,0.15865,0.18003,-0.063662
1184,-0.019265,0.44871,0.20042,0.14616,0.37044,0.1478,0.16424,-0.050507
1185,-0.12713,0.5898,0.30171,0.21193,0.34808,0.12807,0.15142,-0.025185
1186,-0.22711,0.7095,0.36091,0.26422,0.2708,0.1057,0.13991,0.010004
1187,-0.30439,0.74963,0.38064,0.29974,0.17674,0.089261,0.13169,0.047166
1188,-0.32708,0.69799,0.37011,0.32013,0.11064,0.081039,0.12741,0.082026
1189,-0.27216,0.59276,0.3369,0.3267,0.1057,0.079395,0.11721,0.10702
1190,-0.14358,0.48292,0.28329,0.3221,0.17148,0.079066,0.089919,0.11985
1191,0.018226,0.37866,0.20864,0.30302,0.28329,0.070187,0.040918,0.12149
1192,0.1695,0.25764,0.12445,0.26882,0.39149,0.047495,-0.025514,0.12149
1193,0.27244,0.10044,0.046508,0.22377,0.43161,0.0086887,-0.10082,0.12412
1194,0.31585,-0.07879,-0.0090702,0.17871,0.36025,-0.034393,-0.17153,0.13169
1195,0.31092,-0.23073,-0.028802,0.15734,0.19351,-0.065307,-0.22283,0.14385
1196,0.28691,-0.31229,-0.004466,0.1774,-0.0034794,-0.068924,-0.24224,0.15569
1197,0.26455,-0.31919,0.060321,0.231,-0.16824,-0.036037,-0.22514,0.1603
1198,0.25501,-0.29617,0.14517,0.29184,-0.25309,0.033354,-0.17285,0.15964
1199,0.26192,-0.28927,0.21851,0.33624,-0.23763,0.13432,-0.09918,0.15964
1200,0.27606,-0.31393,0.25337,0.34249,-0.13075,0.24613,-0.024856,0.16622
1201,0.28165,-0.35833,0.23791,0.29974,0.020199,0.33854,0.02579,0.18628
1202,0.25665,-0.40503,0.18365,0.20798,0.16095,0.38491,0.039602,0.22114
1203,0.19121,-0.43989,0.12182,0.080711,0.25468,0.3757,0.018555,0.26126
1204,0.10176,-0.45271,0.074462,-0.049192,0.30335,0.32506,-0.019265,0.29711
1205,0.015266,-0.4514,0.052428,-0.13832,0.3221,0.2606,-0.055769,0.31782
1206,-0.047877,-0.45271,0.045522,-0.16166,0.32572,0.21259,-0.082079,0.31881
1207,-0.077475,-0.46389,0.034998,-0.13371,0.32506,0.19812,-0.092603,0.30796
1208,-0.078132,-0.47968,0.010004,-0.095891,0.32276,0.20667,-0.089972,0.28823
1209,-0.063333,-0.48659,-0.030447,-0.087669,0.32177,0.21949,-0.076159,0.26356
1210,-0.039326,-0.47047,-0.07583,-0.11069,0.33098,0.22245,-0.057743,0.23232
1211,-0.012688,-0.42772,-0.1097,-0.14884,0.36518,0.2093,-0.042615,0.19581
1212,0.0096753,-0.36885,-0.12582,-0.17778,0.42865,0.18069,-0.037353,0.15043
1213,0.014608,-0.30078,-0.12023,-0.17285,0.50462,0.14287,-0.04097,0.10143
1214,-0.00019077,-0.22908,-0.094247,-0.12615,0.56053,0.10274,-0.048863,0.054072
1215,-0.036366,-0.15607,-0.057743,-0.053796,0.5625,0.067227,-0.058729,0.020857
1216,-0.087998,-0.083065,-0.026171,0.021843,0.51843,0.037629,-0.069253,0.0017824
1217,-0.13897,-0.023211,-0.0077547,0.08367,0.47371,0.010991,-0.07879,-0.0028217
1218,-0.17252,0.011977,0.0001381,0.12412,0.47469,-0.011701,-0.083723,-0.0011774
1219,-0.18107,0.021514,0.0044134,0.14287,0.53521,-0.022883,-0.078461,-0.0031506
1220,-0.16331,0.013951,0.011648,0.14484,0.62071,-0.016305,-0.065307,-0.016963
1221,-0.12812,-0.00019077,0.023159,0.13728,0.66675,0.0054,-0.049521,-0.043272
1222,-0.087012,-0.013017,0.032367,0.12412,0.61216,0.032038,-0.034722,-0.073199
1223,-0.052481,-0.020581,0.036314,0.10834,0.42997,0.049139,-0.022883,-0.095233
1224,-0.030118,-0.022554,0.034998,0.085315,0.13432,0.047824,-0.015648,-0.098193
1225,-0.022225,-0.021896,0.027434,0.053086,-0.22152,0.027105,-0.010057,-0.082408
1226,-0.0265,-0.02354,0.012306,0.011977,-0.56946,-0.0093991,-0.0057815,-0.04985
1227,-0.040313,-0.025842,-0.0093991,-0.029131,-0.83617,-0.04985,-0.0031506,-0.0074258
1228,-0.0584,-0.028802,-0.030118,-0.062676,-0.97791,-0.083394,0.00046697,0.033025
1229,-0.071555,-0.02946,-0.043601,-0.082408,-0.99337,-0.10017,0.0060577,0.058019
1230,-0.069582,-0.030775,-0.045574,-0.085696,-0.91576,-0.096549,0.013951,0.063281
1231,-0.04985,-0.031433,-0.037682,-0.07583,-0.79605,-0.074515,0.024474,0.05473
1232,-0.019594,-0.025514,-0.027816,-0.060045,-0.67601,-0.041299,0.039273,0.042233
1233,0.010662,-0.0084125,-0.023211,-0.041628,-0.57735,-0.002164,0.054401,0.032696
1234,0.036971,0.023817,-0.026171,-0.024856,-0.4879,0.037629,0.067227,0.027434
1235,0.055717,0.070187,-0.027158,-0.0077547,-0.38793,0.072489,0.07808,0.020528
1236,0.067227,0.11886,-0.020581,0.0070443,-0.26657,0.098141,0.088603,0.011648
1237,0.074462,0.15799,-0.0090702,0.023488,-0.13601,0.11261,0.09551,0.0017824
1238,0.075778,0.17838,0.0047422,0.038944,-0.013345,0.1159,0.096167,-0.0080836
1239,0.070516,0.18266,0.012306,0.049797,0.072489,0.10866,0.088932,-0.020252
1240,0.059663,0.17773,0.011648,0.054401,0.10209,0.090905,0.078409,-0.030775
1241,0.045851,0.16885,0.0030979,0.053743,0.0692,0.064267,0.0692,-0.032749
1242,0.036642,0.16654,-0.0097279,0.047495,-0.015319,0.033025,0.064925,-0.028144
1243,0.032696,0.17411,-0.02354,0.035656,-0.12417,0.0044134,0.067227,-0.01795
1244,0.029407,0.18661,-0.037024,0.018226,-0.23402,-0.019594,0.072489,-0.0084125
1245,0.021186,0.1968,-0.04985,-0.0011774,-0.33465,-0.044588,0.077751,-0.0018351
1246,0.010991,0.19779,-0.060045,-0.019594,-0.42673,-0.076817,0.083342,-0.0011774
1247,-0.0031506,0.18759,-0.068266,-0.034722,-0.51224,-0.11529,0.089261,-0.0064392
1248,-0.018607,0.16391,-0.072542,-0.042615,-0.58623,-0.15279,0.09255,-0.014661
1249,-0.032749,0.13399,-0.071884,-0.046561,-0.63589,-0.18567,0.086959,-0.016963
1250,-0.038011,0.10538,-0.06432,-0.052152,-0.65069,-0.20902,0.071502,-0.013017
1251,-0.036695,0.085315,-0.053467,-0.06432,-0.62866,-0.22415,0.054072,-0.0057815
1252,-0.031104,0.077751,-0.041628,-0.077146,-0.57801,-0.23204,0.041247,0.0037556
1253,-0.02354,0.081039,-0.033735,-0.084381,-0.51849,-0.23369,0.035327,0.010662
1254,-0.018278,0.08959,-0.028144,-0.084052,-0.46916,-0.22514,0.034669,0.012635
1255,-0.012688,0.098469,-0.024198,-0.080434,-0.43923,-0.20968,0.038944,0.012306
1256,-0.0018351,0.098798,-0.019265,-0.076159,-0.42509,-0.19324,0.04322,0.010662
1257,0.01132,0.084986,-0.011701,-0.075501,-0.41851,-0.18205,0.04881,0.0067154
1258,0.01691,0.059992,-0.007097,-0.074515,-0.40766,-0.17745,0.054401,-0.00051963
1259,0.0073732,0.03434,-0.0077547,-0.073199,-0.38069,-0.1814,0.058348,-0.0074258
1260,-0.015319,0.018226,-0.013017,-0.070897,-0.32445,-0.19159,0.059992,-0.01499
1261,-0.041628,0.013293,-0.015976,-0.067937,-0.22711,-0.2054,0.059992,-0.022883
1262,-0.0584,0.020857,-0.014003,-0.062347,-0.091616,-0.21527,0.059663,-0.026171
1263,-0.061689,0.034998,-0.010057,-0.045903,0.070187,-0.21297,0.063938,-0.025514
1264,-0.051823,0.049468,-0.0041372,-0.01795,0.23298,-0.19751,0.068214,-0.025842
1265,-0.037353,0.058348,0.0011247,0.01987,0.37669,-0.17548,0.071831,-0.027487
1266,-0.022883,0.059992,0.0070443,0.063938,0.49443,-0.15114,0.072489,-0.032749
1267,-0.014003,0.052099,0.014937,0.10965,0.59572,-0.1245,0.071502,-0.040313
1268,-0.010057,0.035656,0.024803,0.1501,0.68747,-0.092931,0.071831,-0.048863
1269,-0.0093991,0.014937,0.03434,0.17937,0.76443,-0.060045,0.07808,-0.059058
1270,-0.0051238,-0.0028217,0.044864,0.20042,0.80521,-0.035051,0.088932,-0.068595
1271,0.0030979,-0.0087413,0.054072,0.21489,0.77824,-0.027158,0.097154,-0.07583
1272,0.012306,-0.0034794,0.058019,0.21588,0.6684,-0.036695,0.098798,-0.078132
1273,0.023488,0.0077021,0.058019,0.19943,0.49475,-0.056098,0.094852,-0.078461
1274,0.033354,0.01987,0.054072,0.17148,0.30401,-0.079777,0.091892,-0.076817
1275,0.038616,0.033354,0.047824,0.1353,0.14418,-0.10148,0.092221,-0.075501
1276,0.040918,0.04618,0.039931,0.093865,0.038616,-0.11464,0.093536,-0.075173
1277,0.048482,0.061307,0.028421,0.05177,-0.020909,-0.11595,0.093865,-0.076817
1278,0.062623,0.079724,0.015924,0.013622,-0.063004,-0.10641,0.093208,-0.074515
1279,0.08367,0.1034,0.00079584,-0.016634,-0.10477,-0.089972,0.089261,-0.06728
1280,0.10801,0.12675,-0.014003,-0.035051,-0.14555,-0.07024,0.086959,-0.057414
1281,0.13464,0.13958,-0.027487,-0.038668,-0.17877,-0.041957,0.085644,-0.046561
1282,0.16063,0.14089,-0.044917,-0.038011,-0.19093,-0.0057815,0.083342,-0.038997
1283,0.18365,0.14221,-0.074186,-0.040313,-0.16265,0.033025,0.081039,-0.035051
1284,0.20404,0.15602,-0.12154,-0.051823,-0.077475,0.071831,0.081697,-0.034722
1285,0.22508,0.18792,-0.19291,-0.076159,0.066569,0.11524,0.090248,-0.033078
1286,0.25534,0.22048,-0.28598,-0.11003,0.25106,0.16786,0.10965,-0.027487
1287,0.29053,0.23199,-0.39319,-0.14719,0.43063,0.23067,0.133,-0.017621
1288,0.3119,0.20831,-0.49645,-0.18205,0.56579,0.29513,0.15405,-0.0024928
1289,0.29941,0.14616,-0.56551,-0.20968,0.63419,0.34907,0.17016,0.017897
1290,0.23725,0.052428,-0.56157,-0.2202,0.6365,0.38195,0.18463,0.050126
1291,0.12774,-0.047548,-0.44844,-0.19093,0.57434,0.38853,0.2014,0.096825
1292,-0.018607,-0.11825,-0.20376,-0.1074,0.45332,0.36847,0.21456,0.15273
1293,-0.18962,-0.12549,0.15635,0.022172,0.28165,0.32539,0.21292,0.20601
1294,-0.36951,-0.042944,0.5625,0.17049,0.095839,0.26488,0.19549,0.24778
1295,-0.53657,0.12445,0.92458,0.30796,-0.063004,0.19483,0.16622,0.26685
1296,-0.66023,0.31388,1.1693,0.41681,-0.15575,0.12445,0.12708,0.2583
1297,-0.70857,0.4303,1.2561,0.49344,-0.16693,0.05473,0.071173,0.2264
1298,-0.67042,0.40333,1.1847,0.53159,-0.13141,-0.022225,-0.0080836,0.18134
1299,-0.56321,0.21916,0.9874,0.52106,-0.11891,-0.11168,-0.11431,0.13004
1300,-0.41391,-0.098851,0.71312,0.44707,-0.18567,-0.21395,-0.23829,0.080711
1301,-0.24914,-0.48987,0.41517,0.3027,-0.33202,-0.3159,-0.36556,0.034998
1302,-0.096878,-0.86774,0.1455,0.096825,-0.50237,-0.39385,-0.47014,-0.0051238
1303,0.0044134,-1.1387,-0.061031,-0.137,-0.63458,-0.43134,-0.53164,-0.04097
1304,0.026447,-1.2344,-0.18666,-0.3261,-0.71153,-0.42871,-0.5471,-0.074186
1305,-0.037353,-1.1305,-0.235,-0.38365,-0.76053,-0.39253,-0.52572,-0.10773
1306,-0.17581,-0.85886,-0.22448,-0.27808,-0.80657,-0.33695,-0.4833,-0.14325
1307,-0.34123,-0.49941,-0.1814,-0.052481,-0.82104,-0.27512,-0.42871,-0.19093
1308,-0.47508,-0.15048,-0.1268,0.20436,-0.72896,-0.20508,-0.36392,-0.25441
1309,-0.52441,0.10998,-0.074186,0.41385,-0.4685,-0.12253,-0.28795,-0.32807
1310,-0.47277,0.24745,-0.027816,0.52994,-0.033735,-0.024198,-0.20376,-0.40207
1311,-0.34024,0.26915,0.0083598,0.54836,0.51909,0.082355,-0.11464,-0.46291
1312,-0.16857,0.21292,0.029736,0.49179,1.0933,0.18891,-0.030775,-0.50895
1313,-0.0011774,0.12609,0.035656,0.38689,1.5866,0.28954,0.039602,-0.54841
1314,0.13169,0.050126,0.029407,0.26356,1.9266,0.38952,0.091563,-0.59117
1315,0.22081,0.018884,0.019541,0.14879,2.0812,0.49311,0.12642,-0.63918
1316,0.27935,0.04618,0.015924,0.057032,2.0493,0.58782,0.14879,-0.68654
1317,0.31881,0.11952,0.020528,-0.0018351,1.8563,0.65097,0.16523,-0.72238
1318,0.34611,0.21127,0.034998,-0.028802,1.5396,0.6605,0.17937,-0.73225
1319,0.36683,0.28559,0.057032,-0.033406,1.141,0.61183,0.19055,-0.70956
1320,0.37899,0.31223,0.085315,-0.027487,0.71016,0.51482,0.19614,-0.64444
1321,0.38294,0.27968,0.11097,-0.020252,0.3027,0.39609,0.19976,-0.53756
1322,0.38097,0.19088,0.12971,-0.01795,-0.030118,0.28165,0.20305,-0.39911
1323,0.37801,0.062294,0.13596,-0.026171,-0.25375,0.19154,0.20173,-0.24816
1324,0.37735,-0.075173,0.12675,-0.043272,-0.35833,0.1307,0.19187,-0.11266
1325,0.37636,-0.18469,0.10209,-0.054783,-0.36885,0.095181,0.17148,-0.0090702
1326,0.3711,-0.24618,0.066898,-0.054454,-0.33728,0.074462,0.14681,0.059663
1327,0.35663,-0.26526,0.029407,-0.038339,-0.31031,0.056703,0.12248,0.10373
1328,0.32637,-0.26493,-0.0057815,-0.015319,-0.30867,0.038944,0.1011,0.14616
1329,0.27902,-0.26361,-0.036366,0.0034268,-0.32774,0.024474,0.08663,0.20667
1330,0.22443,-0.27052,-0.058071,0.010333,-0.35241,0.0083598,0.076435,0.29743
1331,0.17477,-0.28302,-0.073528,0.0057288,-0.3774,-0.014661,0.068214,0.40925
1332,0.13728,-0.29288,-0.087012,-0.0054526,-0.39385,-0.043272,0.062952,0.51975
1333,0.1159,-0.29946,-0.10082,-0.019594,-0.39976,-0.071226,0.060979,0.60624
1334,0.10406,-0.3067,-0.11299,-0.031104,-0.39516,-0.092274,0.060321,0.65853
1335,0.091563,-0.32084,-0.12187,-0.041299,-0.38069,-0.10181,0.058019,0.67399
1336,0.067885,-0.34484,-0.12878,-0.051165,-0.35964,-0.098522,0.052757,0.65886
1337,0.029736,-0.38332,-0.12976,-0.057085,-0.33432,-0.084381,0.050784,0.62827
1338,-0.018278,-0.4343,-0.12187,-0.054783,-0.30702,-0.06432,0.055717,0.59605
1339,-0.06432,-0.48165,-0.10905,-0.04689,-0.27841,-0.041957,0.065254,0.5648
1340,-0.096878,-0.505,-0.097536,-0.040641,-0.2498,-0.026171,0.072818,0.5329
1341,-0.11003,-0.48198,-0.089643,-0.037024,-0.23138,-0.020581,0.074791,0.49475
1342,-0.10477,-0.39976,-0.085367,-0.038997,-0.23204,-0.023211,0.073804,0.44904
1343,-0.087998,-0.25835,-0.079777,-0.04393,-0.25473,-0.026829,0.073147,0.40136
1344,-0.06432,-0.06432,-0.071226,-0.044588,-0.29387,-0.027158,0.074791,0.35827
1345,-0.038339,0.16457,-0.058729,-0.039984,-0.33596,-0.022883,0.075778,0.32078
1346,-0.010386,0.39017,-0.043601,-0.034064,-0.36885,-0.015648,0.073476,0.28691
1347,0.017239,0.56316,-0.026171,-0.02946,-0.38562,-0.010057,0.070516,0.25337
1348,0.045193,0.6559,-0.0097279,-0.028144,-0.38332,-0.0061104,0.070516,0.21127
1349,0.071831,0.67366,0.00046697,-0.031762,-0.36655,-0.0080836,0.071173,0.14616
1350,0.099456,0.65952,0.0070443,-0.039655,-0.3409,-0.01499,0.070187,0.057361
1351,0.13004,0.6684,0.010662,-0.051823,-0.31656,-0.024198,0.068543,-0.039655
1352,0.16687,0.75193,0.016253,-0.060045,-0.29387,-0.031104,0.065912,-0.12121
1353,0.21357,0.93544,0.026119,-0.057743,-0.2646,-0.030447,0.064925,-0.17153
1354,0.27145,1.1913,0.040589,-0.043601,-0.22053,-0.019923,0.068543,-0.19159
1355,0.33558,1.4356,0.054072,-0.024856,-0.16298,-0.004466,0.077093,-0.18863
1356,0.3905,1.5636,0.061307,-0.0034794,-0.10148,0.012635,0.084657,-0.16956
1357,0.42175,1.5077,0.05769,0.02283,-0.048205,0.031052,0.082684,-0.14391
1358,0.4224,1.2696,0.044864,0.052757,-0.0054526,0.04618,0.069858,-0.12319
1359,0.39511,0.92261,0.028092,0.077751,0.025132,0.052428,0.052099,-0.11201
1360,0.34808,0.56513,0.013951,0.093208,0.036642,0.048482,0.039273,-0.10674
1361,0.28855,0.28198,0.0040845,0.092221,0.029078,0.036971,0.033354,-0.10247
1362,0.22541,0.11393,-0.0015062,0.076106,0.0021113,0.024145,0.030723,-0.098522
1363,0.1649,0.054401,-0.0051238,0.049797,-0.040313,0.013622,0.023817,-0.089972
1364,0.1159,0.068543,-0.0074258,0.023159,-0.0903,0.0063866,0.01132,-0.076159
1365,0.084657,0.11458,-0.011372,0.0063866,-0.13371,-0.00051963,-0.00051963,-0.062676
1366,0.063938,0.15569,-0.014332,-0.00019077,-0.16528,-0.010715,-0.0047949,-0.060373
1367,0.044864,0.16556,-0.016634,-0.0018351,-0.18271,-0.020581,-0.0018351,-0.075501
1368,0.023488,0.13267,-0.017621,-0.0061104,-0.19356,-0.026171,0.0034268,-0.11562
1369,-0.0024928,0.069529,-0.019594,-0.016634,-0.20442,-0.02354,0.0034268,-0.18337
1370,-0.031433,-0.0057815,-0.024856,-0.031104,-0.21593,-0.014003,-0.0051238,-0.27282
1371,-0.057414,-0.073199,-0.030447,-0.046561,-0.22251,-0.0018351,-0.018278,-0.3649
1372,-0.080106,-0.12516,-0.033406,-0.063333,-0.22053,0.0034268,-0.037024,-0.43627
1373,-0.099509,-0.1587,-0.031762,-0.082408,-0.20836,-0.0031506,-0.053467,-0.46422
1374,-0.11529,-0.17416,-0.029789,-0.10148,-0.186,-0.018607,-0.06136,-0.43923
1375,-0.12713,-0.17745,-0.031433,-0.11299,-0.15476,-0.038997,-0.063004,-0.3649
1376,-0.13634,-0.17383,-0.037024,-0.11497,-0.12187,-0.056756,-0.059387,-0.25572
1377,-0.14292,-0.16693,-0.043272,-0.10609,-0.094247,-0.067609,-0.050836,-0.13437
1378,-0.14785,-0.16199,-0.046232,-0.091945,-0.068595,-0.069582,-0.039655,-0.018278
1379,-0.14654,-0.16035,-0.041957,-0.079448,-0.04393,-0.072213,-0.028144,0.084328
1380,-0.13996,-0.16199,-0.031762,-0.070568,-0.014661,-0.07583,-0.019594,0.17115
1381,-0.12878,-0.16791,-0.016963,-0.063991,0.032367,-0.078132,-0.016634,0.2412
1382,-0.12121,-0.17383,-0.0057815,-0.055112,0.11557,-0.076159,-0.016305,0.2925
1383,-0.12023,-0.17942,0.0001381,-0.041299,0.24646,-0.07024,-0.016305,0.32769
1384,-0.12582,-0.18469,0.002769,-0.015319,0.41221,-0.061031,-0.017621,0.35005
1385,-0.13207,-0.18567,0.0037556,0.018884,0.56875,-0.048863,-0.017621,0.36354
1386,-0.13371,-0.18337,0.0073732,0.056374,0.66577,-0.038668,-0.013017,0.37011
1387,-0.1268,-0.18107,0.018226,0.090577,0.67267,-0.028473,-0.0077547,0.36584
1388,-0.10937,-0.18008,0.033683,0.11721,0.59144,-0.012688,-0.0074258,0.35696
1389,-0.088656,-0.17942,0.050126,0.1432,0.46318,0.01132,-0.0097279,0.35367
1390,-0.070568,-0.17877,0.062952,0.17082,0.32835,0.039931,-0.0074258,0.35827
1391,-0.058071,-0.17482,0.07216,0.19614,0.20864,0.069858,0.0047422,0.36748
1392,-0.052481,-0.16726,0.078737,0.20568,0.099785,0.095181,0.023488,0.37176
1393,-0.050179,-0.15838,0.083999,0.19417,-0.010386,0.11097,0.045193,0.36913
1394,-0.050507,-0.15279,0.085972,0.1649,-0.11497,0.1159,0.065912,0.35795
1395,-0.053467,-0.15311,0.083013,0.12379,-0.18205,0.11754,0.079724,0.34282
1396,-0.057743,-0.15706,0.078737,0.083342,-0.18238,0.12577,0.084657,0.32407
1397,-0.062018,-0.16134,0.075449,0.054072,-0.11694,0.14089,0.078409,0.29809
1398,-0.064978,-0.16364,0.071502,0.038944,-0.01499,0.15997,0.067227,0.26027
1399,-0.065964,-0.15936,0.065254,0.033683,0.089919,0.18167,0.057032,0.20831
1400,-0.062347,-0.14752,0.055388,0.033354,0.17049,0.20075,0.050126,0.15207
1401,-0.056098,-0.13437,0.044864,0.036971,0.21851,0.21324,0.050126,0.10242
1402,-0.047219,-0.12648,0.038616,0.045522,0.24514,0.22015,0.058676,0.064925
1403,-0.037353,-0.1268,0.037629,0.055717,0.27408,0.22969,0.072818,0.036314
1404,-0.029789,-0.12845,0.04026,0.06624,0.32341,0.25271,0.081697,0.013293
1405,-0.025185,-0.12615,0.042562,0.074133,0.39313,0.28888,0.082355,-0.0041372
1406,-0.024527,-0.11924,0.041904,0.076106,0.45891,0.32769,0.07808,-0.015648
1407,-0.0265,-0.11003,0.04026,0.076106,0.49278,0.3563,0.07216,-0.017292
1408,-0.026829,-0.10609,0.038616,0.072818,0.48193,0.36255,0.070516,-0.013017
1409,-0.025514,-0.10378,0.04026,0.069529,0.42701,0.34052,0.074462,-0.0061104
1410,-0.021567,-0.10247,0.043877,0.066898,0.34282,0.29053,0.082026,0.0001381
1411,-0.015319,-0.097864,0.047824,0.064267,0.25633,0.22048,0.086301,0.0040845
1412,-0.0087413,-0.086025,0.052099,0.062294,0.18661,0.1455,0.081697,0.0030979
1413,-0.0047949,-0.065307,0.055388,0.064267,0.13826,0.074133,0.06361,-0.0038083
1414,-0.0051238,-0.041957,0.056046,0.066569,0.10834,0.011977,0.038616,-0.016634
1415,-0.0074258,-0.019265,0.053086,0.062294,0.088932,-0.041957,0.013622,-0.03242
1416,-0.011372,0.0011247,0.048482,0.043549,0.071831,-0.090958,-0.007097,-0.049521
1417,-0.016305,0.02283,0.048153,0.015924,0.052428,-0.1347,-0.019594,-0.062018
1418,-0.01795,0.047166,0.051113,-0.012359,0.029407,-0.16956,-0.022883,-0.068266
1419,-0.010715,0.071173,0.056374,-0.032749,0.0030979,-0.19192,-0.018936,-0.066951
1420,0.012635,0.09255,0.063281,-0.041957,-0.021238,-0.20014,-0.01203,-0.058729
1421,0.043877,0.10834,0.0692,-0.043272,-0.046561,-0.19652,-0.0038083,-0.038997
1422,0.07216,0.11327,0.073476,-0.041299,-0.070897,-0.18501,0.0057288,-0.0097279
1423,0.090577,0.10505,0.077093,-0.039326,-0.096878,-0.17087,0.017239,0.023817
1424,0.10274,0.080711,0.079395,-0.042615,-0.12582,-0.15575,0.029407,0.057361
1425,0.11195,0.038287,0.073476,-0.04985,-0.16101,-0.13897,0.038944,0.088275
1426,0.11886,-0.014661,0.053086,-0.044259,-0.20113,-0.12549,0.038616,0.11261
1427,0.11952,-0.071884,0.015266,-0.0090702,-0.23796,-0.11595,0.028092,0.12412
1428,0.10735,-0.13075,-0.028802,0.054401,-0.26493,-0.10773,0.014279,0.12313
1429,0.084986,-0.18238,-0.063333,0.12281,-0.27775,-0.094905,0.0034268,0.11031
1430,0.063938,-0.20836,-0.077803,0.16885,-0.27348,-0.079119,0.002769,0.088275
1431,0.050126,-0.19554,-0.070897,0.17904,-0.24849,-0.063662,0.0077021,0.061307
1432,0.046508,-0.14259,-0.046232,0.16194,-0.20113,-0.052152,0.01987,0.036642
1433,0.045851,-0.0584,-0.010715,0.1376,-0.14456,-0.04689,0.032367,0.017897
1434,0.035656,0.034998,0.024474,0.1182,-0.098522,-0.043601,0.039602,0.0040845
1435,0.011648,0.11491,0.051113,0.10505,-0.079777,-0.04097,0.040918,-0.010057
1436,-0.032091,0.1695,0.061307,0.094194,-0.095891,-0.040641,0.038944,-0.031104
1437,-0.090958,0.20108,0.048153,0.077422,-0.14489,-0.056427,0.03434,-0.069911
1438,-0.15443,0.21883,0.015266,0.053086,-0.21461,-0.10247,0.030723,-0.13305
1439,-0.20047,0.22541,-0.02946,0.024803,-0.28006,-0.17646,0.034011,-0.21132
1440,-0.20935,0.21127,-0.072213,0.0014536,-0.32051,-0.25967,0.044206,-0.28795
1441,-0.18205,0.15536,-0.10247,-0.018936,-0.33037,-0.32774,0.057032,-0.34616
1442,-0.13667,0.045193,-0.11825,-0.032749,-0.31459,-0.3649,0.06624,-0.38727
1443,-0.10543,-0.11595,-0.11003,-0.046232,-0.28104,-0.37017,0.072818,-0.42279
1444,-0.10378,-0.30571,-0.064978,-0.057085,-0.2452,-0.34912,0.077751,-0.45666
1445,-0.12352,-0.48231,0.024803,-0.0584,-0.2202,-0.30867,0.089261,-0.48889
1446,-0.14193,-0.58097,0.14352,-0.047219,-0.21231,-0.25901,0.10505,-0.51618
1447,-0.14226,-0.5369,0.26981,-0.028144,-0.21264,-0.21395,0.11458,-0.53263
1448,-0.11825,-0.33465,0.38327,-0.0054526,-0.20376,-0.18403,0.099456,-0.53296
1449,-0.068595,-0.038997,0.4668,0.013951,-0.18041,-0.17416,0.055717,-0.51717
1450,-0.0024928,0.23002,0.49739,0.035327,-0.15213,-0.17909,-0.0097279,-0.48691
1451,0.062623,0.37242,0.46516,0.071173,-0.12319,-0.18403,-0.077803,-0.44581
1452,0.11952,0.35926,0.37406,0.12182,-0.085367,-0.17548,-0.13042,-0.39976
1453,0.17707,0.23561,0.2389,0.17378,-0.019265,-0.14851,-0.16002,-0.35372
1454,0.25633,0.08959,0.084986,0.21259,0.09255,-0.10674,-0.16364,-0.30768
1455,0.35531,-0.0028217,-0.04985,0.22771,0.23035,-0.050836,-0.15081,-0.26131
1456,0.44608,-0.010715,-0.13536,0.21818,0.34578,0.01691,-0.12417,-0.20836
1457,0.48982,0.044864,-0.16035,0.18858,0.38985,0.088603,-0.094576,-0.14884
1458,0.45825,0.11458,-0.13272,0.1478,0.35236,0.15109,-0.070568,-0.085696
1459,0.35367,0.1649,-0.074186,0.1034,0.26718,0.1991,-0.060045,-0.025514
1460,0.20568,0.19647,-0.010715,0.067227,0.19318,0.23035,-0.056098,0.020857
1461,0.059334,0.23462,0.039931,0.052099,0.17641,0.2481,-0.04985,0.047824
1462,-0.048534,0.30105,0.071502,0.061636,0.23955,0.25665,-0.036366,0.049468
1463,-0.1028,0.39544,0.08663,0.084657,0.3836,0.25896,-0.013017,0.030723
1464,-0.10609,0.4862,0.091234,0.11524,0.58618,0.25402,0.010662,0.00046697
1465,-0.079119,0.52665,0.090905,0.14747,0.79731,0.24186,0.031381,-0.031104
1466,-0.041628,0.48588,0.091234,0.1751,0.96931,0.22969,0.046508,-0.058071
1467,-0.0034794,0.37899,0.091234,0.18858,1.0703,0.22607,0.05473,-0.085367
1468,0.033354,0.24909,0.083013,0.1843,1.0778,0.23659,0.055717,-0.11233
1469,0.070516,0.14714,0.06361,0.16293,0.98707,0.25863,0.052099,-0.13338
1470,0.11064,0.097483,0.033683,0.13037,0.82461,0.28592,0.056046,-0.14456
1471,0.1524,0.099127,-0.0008485,0.094523,0.64143,0.32144,0.070516,-0.15081
1472,0.19187,0.13991,-0.030775,0.060979,0.48489,0.36814,0.093208,-0.15969
1473,0.2241,0.19976,-0.051165,0.034669,0.3757,0.42536,0.11097,-0.17449
1474,0.24843,0.26027,-0.056098,0.017239,0.30631,0.49048,0.11787,-0.18995
1475,0.25994,0.30368,-0.049521,0.0037556,0.25929,0.55954,0.11623,-0.19554
1476,0.25172,0.30993,-0.037353,-0.0064392,0.22015,0.62466,0.11195,-0.18304
1477,0.22212,0.26257,-0.030775,-0.01499,0.18693,0.67563,0.10735,-0.15246
1478,0.18069,0.16227,-0.034064,-0.022554,0.15964,0.70655,0.10307,-0.10609
1479,0.13432,0.026447,-0.045903,-0.028802,0.13464,0.71082,0.10209,-0.049192
1480,0.090577,-0.10937,-0.063004,-0.034393,0.10373,0.68451,0.10242,0.0093464
1481,0.05177,-0.21297,-0.077146,-0.037024,0.066898,0.6263,0.10406,0.061965
1482,0.019212,-0.2669,-0.085039,-0.036037,0.030065,0.54441,0.10373,0.10932
1483,-0.0097279,-0.27677,-0.088656,-0.033735,0.0050711,0.45003,0.097483,0.15306
1484,-0.034393,-0.25802,-0.088656,-0.036695,0.0030979,0.3586,0.086301,0.19088
1485,-0.054125,-0.22382,-0.089643,-0.050179,0.024803,0.27869,0.07512,0.21851
1486,-0.071555,-0.18008,-0.095562,-0.067937,0.059663,0.21851,0.068543,0.23626
1487,-0.087341,-0.1268,-0.10148,-0.083065,0.088275,0.17575,0.065254,0.24646
1488,-0.10017,-0.056098,-0.10313,-0.091287,0.085972,0.13991,0.059992,0.25534
1489,-0.10576,0.025461,-0.097536,-0.086354,0.041575,0.099456,0.049468,0.26192
1490,-0.10313,0.10702,-0.089314,-0.073528,-0.033406,0.05177,0.033025,0.26619
1491,-0.087669,0.18397,-0.079777,-0.060702,-0.11858,0.0014536,0.016581,0.26849
1492,-0.060702,0.26192,-0.065307,-0.053796,-0.19225,-0.043601,0.0080309,0.27145
1493,-0.027158,0.34413,-0.04097,-0.053796,-0.24355,-0.070568,0.010991,0.27704
1494,0.0063866,0.42175,-0.007097,-0.055769,-0.26361,-0.07879,0.020857,0.28362
1495,0.037629,0.47831,0.02875,-0.055112,-0.25704,-0.078132,0.029407,0.2902
1496,0.065912,0.49706,0.055388,-0.054454,-0.2452,-0.08175,0.033354,0.29415
1497,0.085972,0.47568,0.067227,-0.056098,-0.2475,-0.097207,0.033025,0.29349
1498,0.09255,0.41352,0.060321,-0.063004,-0.27775,-0.12483,0.028092,0.28559
1499,0.087288,0.31684,0.039273,-0.076159,-0.3307,-0.15706,0.023159,0.27376
1500,0.080053,0.20601,0.011648,-0.0903,-0.3899,-0.18666,0.021186,0.26126
1501,0.078737,0.11294,-0.014003,-0.1028,-0.43364,-0.21198,0.02283,0.24843
1502,0.08959,0.05473,-0.033078,-0.11595,-0.44909,-0.23073,0.021843,0.23824
1503,0.1136,0.031381,-0.042944,-0.13404,-0.44449,-0.24487,0.017239,0.23002
1504,0.1455,0.030723,-0.04689,-0.15213,-0.43528,-0.25539,0.012964,0.22212
1505,0.17542,0.042233,-0.045903,-0.15246,-0.43232,-0.26361,0.0060577,0.21127
1506,0.19746,0.064267,-0.04097,-0.11825,-0.43462,-0.27184,-0.0031506,0.19976
1507,0.21094,0.095839,-0.03538,-0.045903,-0.43166,-0.27677,-0.011372,0.18858
1508,0.21982,0.13037,-0.030447,0.047166,-0.41983,-0.2771,-0.012688,0.17937
1509,0.22673,0.16095,-0.025514,0.13169,-0.39713,-0.27381,-0.0074258,0.16918
1510,0.231,0.1797,-0.019594,0.18463,-0.3626,-0.27151,0.0024402,0.1501
1511,0.22837,0.17444,-0.013674,0.20009,-0.31985,-0.27151,0.0077021,0.12149
1512,0.21357,0.14287,-0.007097,0.18628,-0.28071,-0.27216,0.0083598,0.091563
1513,0.18496,0.097483,-0.0018351,0.15701,-0.25046,-0.27216,0.0034268,0.066898
1514,0.14418,0.051441,-0.00019077,0.12248,-0.22842,-0.27578,-0.0077547,0.049139
1515,0.093865,0.017897,-0.0031506,0.084328,-0.21165,-0.28729,-0.021238,0.038287
1516,0.046837,-0.0064392,-0.010386,0.046508,-0.19356,-0.30374,-0.028802,0.033025
1517,0.014608,-0.023211,-0.01795,0.014937,-0.16364,-0.32281,-0.0265,0.032696
1518,-0.0034794,-0.034722,-0.023869,-0.0074258,-0.11431,-0.33662,-0.019265,0.033683
1519,-0.013674,-0.043601,-0.026829,-0.020909,-0.048205,-0.34024,-0.011043,0.034998
1520,-0.022225,-0.053138,-0.029789,-0.031433,0.023488,-0.33432,-0.0015062,0.038616
1521,-0.030118,-0.060045,-0.035051,-0.033406,0.088275,-0.31952,0.0083598,0.039273
1522,-0.03242,-0.060373,-0.045903,-0.027487,0.13629,-0.30045,0.016581,0.035327
1523,-0.028473,-0.052481,-0.062676,-0.014332,0.16326,-0.27841,0.020857,0.023159
1524,-0.019923,-0.036366,-0.083394,-0.002164,0.1774,-0.24881,0.02579,0.0057288
1525,-0.012359,-0.0097279,-0.10707,0.0050711,0.19121,-0.21395,0.03434,-0.011701
1526,-0.0034794,0.024803,-0.12812,0.0077021,0.21752,-0.17515,0.050455,-0.019265
1527,0.0090175,0.06624,-0.13733,0.011648,0.25961,-0.13009,0.076106,-0.01499
1528,0.024803,0.10899,-0.12384,0.023159,0.31289,-0.07879,0.10702,-0.00019077
1529,0.035656,0.13826,-0.089314,0.0373,0.35531,-0.025185,0.14056,0.024474
1530,0.033025,0.13728,-0.04393,0.050126,0.35334,0.021514,0.16852,0.050126
1531,0.015595,0.097154,0.0044134,0.058348,0.28888,0.051441,0.18693,0.068543
1532,-0.0090702,0.024803,0.046837,0.064267,0.16523,0.062623,0.19187,0.074462
1533,-0.030447,-0.056756,0.07512,0.07216,0.013293,0.052428,0.18365,0.070516
1534,-0.038997,-0.12286,0.080711,0.086959,-0.12944,0.026776,0.16424,0.056374
1535,-0.016634,-0.15344,0.06624,0.1057,-0.23632,-0.0061104,0.13662,0.032367
1536,0.043549,-0.15344,0.04026,0.13563,-0.29683,-0.039984,0.10834,0.0054
1537,0.13234,-0.13963,0.020857,0.17082,-0.32084,-0.072542,0.083999,-0.019594
1538,0.22903,-0.12976,0.022501,0.20075,-0.3386,-0.10181,0.064925,-0.045574
1539,0.30829,-0.13503,0.047166,0.22081,-0.38168,-0.12384,0.049468,-0.074186
1540,0.34545,-0.16923,0.092221,0.23495,-0.45469,-0.13207,0.037958,-0.10543
1541,0.32177,-0.2475,0.15142,0.23725,-0.53394,-0.12089,0.028092,-0.13667
1542,0.22771,-0.38332,0.21259,0.22245,-0.58623,-0.098193,0.014937,-0.16693
1543,0.072818,-0.56782,0.26422,0.18891,-0.59347,-0.076159,-0.002164,-0.18633
1544,-0.11431,-0.75922,0.29842,0.15799,-0.54315,-0.066951,-0.025842,-0.19028
1545,-0.29749,-0.88188,0.31158,0.1626,-0.43495,-0.071884,-0.057414,-0.17745
1546,-0.4514,-0.87892,0.3096,0.21653,-0.2771,-0.076159,-0.088656,-0.14818
1547,-0.56847,-0.75593,0.30566,0.30401,-0.091616,-0.060373,-0.10937,-0.10247
1548,-0.64839,-0.58097,0.30368,0.38261,0.088932,-0.015319,-0.11398,-0.041957
1549,-0.69311,-0.45337,0.29645,0.39445,0.21883,0.046508,-0.10214,0.021186
1550,-0.7066,-0.46817,0.26586,0.29217,0.25074,0.10472,-0.082736,0.068871
1551,-0.69706,-0.66516,0.20108,0.082355,0.16786,0.14155,-0.066951,0.092221
1552,-0.67272,-0.98811,0.10735,-0.16956,-0.013674,0.15142,-0.062018,0.088275
1553,-0.63951,-1.2956,0.0070443,-0.38299,-0.26526,0.13464,-0.066622,0.067556
1554,-0.60169,-1.459,-0.075173,-0.49316,-0.55006,0.10044,-0.076817,0.045193
1555,-0.56223,-1.4311,-0.11727,-0.48856,-0.81841,0.067556,-0.085696,0.033354
1556,-0.51783,-1.2486,-0.11661,-0.4024,-1.0259,0.042562,-0.091616,0.035327
1557,-0.46916,-0.98646,-0.083723,-0.29025,-1.1203,0.029736,-0.089972,0.04026
1558,-0.40897,-0.70594,-0.037024,-0.19422,-1.0591,0.030065,-0.079448,0.04026
1559,-0.32774,-0.43857,0.010991,-0.12713,-0.8513,0.038944,-0.063004,0.029078
1560,-0.22415,-0.19554,0.05769,-0.071226,-0.5665,0.053415,-0.040641,0.0037556
1561,-0.10313,0.024474,0.10209,-0.0028217,-0.30308,0.075778,-0.01795,-0.040313
1562,0.02283,0.22607,0.14221,0.087288,-0.1222,0.10274,0.0044134,-0.10247
1563,0.1432,0.42668,0.17411,0.19516,-0.004466,0.13037,0.026447,-0.17515
1564,0.24679,0.66017,0.19318,0.31026,0.12281,0.15503,0.048153,-0.24914
1565,0.33295,0.96668,0.19877,0.40958,0.30993,0.17214,0.064925,-0.31853
1566,0.40103,1.3636,0.1922,0.46779,0.55,0.18595,0.074462,-0.37477
1567,0.45924,1.8102,0.17773,0.46845,0.80027,0.19549,0.073804,-0.40832
1568,0.50791,2.2384,0.16063,0.40859,1.0157,0.2014,0.065254,-0.4195
1569,0.54869,2.5883,0.14287,0.29546,1.1515,0.20009,0.057032,-0.42344
1570,0.57862,2.8238,0.12346,0.14188,1.1755,0.18957,0.05177,-0.4412
1571,0.5875,2.9129,0.09551,-0.032749,1.091,0.17345,0.050455,-0.48494
1572,0.57105,2.8297,0.055717,-0.20047,0.94991,0.15536,0.049468,-0.55006
1573,0.5306,2.5568,0.0080309,-0.33004,0.81836,0.13991,0.047495,-0.6155
1574,0.47404,2.1105,-0.03538,-0.39483,0.73877,0.1284,0.045193,-0.64905
1575,0.40958,1.5573,-0.06728,-0.38858,0.70556,0.12215,0.043549,-0.63129
1576,0.34907,0.99529,-0.079777,-0.32676,0.67991,0.11853,0.042891,-0.55992
1577,0.29743,0.51449,-0.076159,-0.23862,0.61446,0.11261,0.045193,-0.45205
1578,0.256,0.16687,-0.068266,-0.1541,0.49245,0.099127,0.052757,-0.32511
1579,0.22114,-0.045246,-0.063991,-0.087998,0.33262,0.076435,0.060321,-0.19126
1580,0.18989,-0.15213,-0.06432,-0.041957,0.17641,0.048153,0.06624,-0.063991
1581,0.16161,-0.19751,-0.065964,-0.010386,0.059663,0.021843,0.066898,0.047495
1582,0.14089,-0.22218,-0.06432,0.010662,0.0070443,0.0040845,0.06624,0.14385
1583,0.13464,-0.25704,-0.058071,0.02283,0.031709,-0.010715,0.068543,0.22475
1584,0.14385,-0.32149,-0.050507,0.031052,0.12511,-0.020909,0.074791,0.29612
1585,0.16227,-0.4195,-0.042286,0.037629,0.24745,-0.025514,0.08367,0.36025
1586,0.17904,-0.5323,-0.032091,0.04618,0.3438,-0.0265,0.094852,0.41912
1587,0.18332,-0.63556,-0.020581,0.055059,0.37636,-0.026171,0.1011,0.4691
1588,0.17378,-0.71614,-0.011372,0.062294,0.34348,-0.023869,0.1011,0.50429
1589,0.1524,-0.77434,-0.0080836,0.066569,0.26817,-0.020581,0.096167,0.52369
