,channel_1,channel_2,channel_3,channel_4,channel_5,channel_6,channel_7,channel_8
0,0.002769,-0.074186,-0.0028217,0.019541,0.0080309,-0.13042,-0.056427,0.16589
1,0.011977,-0.074515,-0.0067681,0.013622,0.010991,-0.11332,-0.033406,0.15602
2,0.015595,-0.068266,-0.0087413,0.010333,0.017897,-0.086354,-0.0087413,0.1501
3,0.020199,-0.053467,-0.0031506,0.016253,0.029407,-0.043272,0.02283,0.14484
4,0.030394,-0.030775,0.0086887,0.031709,0.038944,0.016253,0.054072,0.13234
5,0.041247,-0.0077547,0.022501,0.046837,0.043549,0.080711,0.077093,0.10176
6,0.049139,0.0093464,0.034669,0.053415,0.038944,0.13859,0.088275,0.055717
7,0.049797,0.021514,0.041575,0.047166,0.024474,0.17773,0.086959,0.0021113
8,0.05177,0.029736,0.041247,0.02875,0.0063866,0.1945,0.076435,-0.044588
9,0.052428,0.034669,0.034998,0.0083598,-0.01203,0.19285,0.06065,-0.07879
10,0.052757,0.036642,0.025132,-0.0090702,-0.025185,0.182,0.041904,-0.10082
11,0.053743,0.03434,0.013622,-0.019594,-0.03242,0.1672,0.023159,-0.11299
12,0.056703,0.033025,0.0044134,-0.025185,-0.030118,0.15339,0.0083598,-0.1176
13,0.061307,0.039602,0.0047422,-0.031104,-0.021896,0.14254,-0.0018351,-0.11694
14,0.068543,0.055717,0.013293,-0.038997,-0.010057,0.1376,-0.0093991,-0.1199
15,0.075449,0.079724,0.021843,-0.042615,0.0044134,0.14056,-0.016305,-0.12845
16,0.079395,0.10373,0.02875,-0.040641,0.021843,0.15076,-0.024856,-0.14358
17,0.080382,0.12083,0.033354,-0.028144,0.036971,0.1626,-0.034722,-0.15476
18,0.080053,0.13136,0.040918,-0.0038083,0.046508,0.17148,-0.039326,-0.15903
19,0.081697,0.13859,0.049468,0.029078,0.052099,0.17477,-0.036037,-0.15509
20,0.081697,0.14024,0.059663,0.059992,0.058676,0.17246,-0.02946,-0.14687
21,0.077093,0.13662,0.068871,0.07512,0.064596,0.16457,-0.028473,-0.13897
22,0.064267,0.12675,0.071831,0.069858,0.069529,0.15734,-0.03242,-0.12944
23,0.04322,0.11426,0.06624,0.05177,0.07216,0.15372,-0.033406,-0.11891
24,0.020857,0.10801,0.057361,0.033354,0.073476,0.15471,-0.024198,-0.10543
25,0.0040845,0.11261,0.04881,0.017897,0.075449,0.15668,-0.0041372,-0.089314
26,0.00079584,0.12544,0.042891,0.0070443,0.076764,0.15799,0.027434,-0.076817
27,0.012635,0.13399,0.040918,0.00079584,0.077751,0.15405,0.06361,-0.069253
28,0.033354,0.13136,0.039602,0.0030979,0.080053,0.14155,0.091892,-0.063333
29,0.054072,0.12017,0.036314,0.0077021,0.080053,0.12083,0.1057,-0.056427
30,0.06361,0.10406,0.026447,0.011977,0.076106,0.10274,0.10505,-0.046232
31,0.059005,0.087946,0.011977,0.011648,0.064925,0.090248,0.094523,-0.027158
32,0.046837,0.067556,-0.0031506,0.0073732,0.050126,0.084657,0.084328,0.0014536
33,0.036971,0.039273,-0.01203,0.0073732,0.036971,0.081697,0.082026,0.031381
34,0.033354,0.0083598,-0.0077547,0.013951,0.028421,0.079724,0.08959,0.052099
35,0.037629,-0.014003,0.010004,0.028092,0.030723,0.075449,0.10801,0.059005
36,0.048153,-0.021238,0.043549,0.046837,0.046837,0.073147,0.12905,0.057032
37,0.058348,-0.014661,0.083342,0.062952,0.069858,0.069858,0.14056,0.048482
38,0.062623,0.00046697,0.11623,0.073804,0.084328,0.059992,0.14024,0.037629
39,0.06065,0.012635,0.12511,0.075778,0.077751,0.038287,0.13037,0.031052
40,0.056703,0.0080309,0.10242,0.0692,0.052428,0.0083598,0.11261,0.032367
41,0.056374,-0.019265,0.055388,0.054072,0.01691,-0.018936,0.092221,0.041247
42,0.061307,-0.05544,0.002769,0.034011,-0.014332,-0.037024,0.071831,0.050455
43,0.067556,-0.082408,-0.04097,0.017568,-0.031762,-0.045246,0.059992,0.058676
44,0.07216,-0.090629,-0.065635,0.010333,-0.031433,-0.050507,0.058676,0.060321
45,0.071831,-0.081421,-0.06728,0.014608,-0.021896,-0.055112,0.065254,0.060979
46,0.068214,-0.062347,-0.051823,0.028421,-0.013017,-0.062347,0.073476,0.064925
47,0.062623,-0.040313,-0.027816,0.043877,-0.010386,-0.071555,0.079724,0.075449
48,0.055717,-0.02354,-0.0087413,0.054072,-0.015319,-0.08471,0.079395,0.090905
49,0.046508,-0.016634,-0.0008485,0.05473,-0.021238,-0.10378,0.074791,0.10669
50,0.031709,-0.021896,-0.004466,0.049797,-0.0265,-0.12845,0.073147,0.12116
51,0.012306,-0.030447,-0.0090702,0.042233,-0.030118,-0.14851,0.076764,0.13333
52,-0.0051238,-0.036037,-0.010386,0.032367,-0.033078,-0.16101,0.089261,0.14254
53,-0.010715,-0.030775,-0.0077547,0.02283,-0.033735,-0.16298,0.10932,0.14846
54,-0.0018351,-0.017621,-0.0038083,0.014937,-0.03242,-0.15476,0.13103,0.14944
55,0.014608,-0.0051238,-0.0011774,0.0096753,-0.027158,-0.14095,0.1455,0.14583
56,0.030394,0.0011247,-0.0011774,0.0060577,-0.019923,-0.12812,0.14583,0.13925
57,0.044864,-0.0011774,-0.0011774,0.0047422,-0.01203,-0.11595,0.1307,0.13267
58,0.051441,-0.0097279,-0.0018351,0.0080309,-0.0054526,-0.10707,0.10472,0.12544
59,0.051113,-0.018936,-0.0024928,0.017897,0.002769,-0.09918,0.077093,0.11985
60,0.044206,-0.025185,-0.0015062,0.027434,0.015266,-0.087998,0.058019,0.11557
61,0.036314,-0.028802,-0.00019077,0.034011,0.027105,-0.07024,0.051441,0.11393
62,0.028421,-0.036366,0.002769,0.033354,0.033025,-0.046232,0.05473,0.11261
63,0.021514,-0.04689,0.0080309,0.032696,0.029736,-0.021896,0.062952,0.11064
64,0.014608,-0.054125,0.016581,0.03434,0.018555,-0.0051238,0.072489,0.10373
65,0.0083598,-0.051823,0.023817,0.036971,0.0086887,0.0014536,0.082684,0.091892
66,0.0047422,-0.042944,0.028092,0.038287,0.0057288,0.0030979,0.093536,0.081697
67,0.0037556,-0.035708,0.02875,0.033354,0.010004,0.00079584,0.098141,0.080053
68,0.0047422,-0.033735,0.025132,0.026447,0.012635,-0.0047949,0.088603,0.083342
69,0.0077021,-0.036037,0.022501,0.021514,0.014937,-0.014332,0.072489,0.084328
70,0.010991,-0.040641,0.023159,0.025461,0.015595,-0.026171,0.056703,0.076435
71,0.011977,-0.047548,0.027434,0.037958,0.017897,-0.033406,0.04881,0.062294
72,0.010004,-0.054125,0.034669,0.050126,0.01987,-0.033078,0.051441,0.047824
73,0.0030979,-0.057743,0.041247,0.054401,0.02283,-0.031104,0.058348,0.034669
74,-0.0084125,-0.055769,0.043549,0.052757,0.026776,-0.027487,0.062952,0.024474
75,-0.020252,-0.051165,0.044535,0.046837,0.028421,-0.02354,0.063938,0.01691
76,-0.028802,-0.04393,0.044206,0.037629,0.030065,-0.01795,0.063938,0.014608
77,-0.035051,-0.037353,0.045851,0.028421,0.031709,-0.01499,0.063938,0.012635
78,-0.040641,-0.033735,0.046837,0.022172,0.033683,-0.01499,0.061965,0.010004
79,-0.048863,-0.02946,0.047495,0.018884,0.036642,-0.013674,0.054072,0.0080309
80,-0.063333,-0.024527,0.044535,0.014937,0.043549,-0.010057,0.041904,0.0096753
81,-0.076488,-0.01795,0.036642,0.010333,0.054401,-0.0093991,0.031052,0.016253
82,-0.082736,-0.0090702,0.026776,0.0047422,0.06065,-0.012359,0.02579,0.027434
83,-0.078132,0.0021113,0.01691,0.0001381,0.058019,-0.016634,0.028092,0.039602
84,-0.066951,0.014279,0.01132,0.002769,0.050784,-0.026171,0.037629,0.047495
85,-0.051823,0.023817,0.010662,0.010991,0.042891,-0.039326,0.04881,0.04881
86,-0.034722,0.02579,0.015266,0.01987,0.036314,-0.051823,0.054401,0.045851
87,-0.022883,0.017239,0.02283,0.023159,0.03434,-0.06432,0.045851,0.038287
88,-0.016634,0.0030979,0.029736,0.021843,0.036642,-0.075173,0.024145,0.026447
89,-0.013345,-0.013345,0.032696,0.017568,0.041904,-0.085696,-0.0034794,0.01987
90,-0.011372,-0.030118,0.032038,0.015266,0.04881,-0.09918,-0.027487,0.022172
91,-0.0064392,-0.047548,0.023159,0.017568,0.05177,-0.11398,-0.042286,0.033354
92,0.0011247,-0.064978,0.012306,0.024145,0.047166,-0.12648,-0.042615,0.044864
93,0.0080309,-0.083065,0.00079584,0.033354,0.032038,-0.13503,-0.033406,0.056046
94,0.01132,-0.097864,-0.0057815,0.042233,0.0093464,-0.1393,-0.021238,0.06624
95,0.013293,-0.10609,-0.0054526,0.047495,-0.010386,-0.14489,-0.01203,0.073476
96,0.017897,-0.10905,-0.0064392,0.05177,-0.023211,-0.1518,-0.0084125,0.075778
97,0.02875,-0.10477,-0.010057,0.055388,-0.02354,-0.15838,-0.0074258,0.074133
98,0.042233,-0.092274,-0.014003,0.054401,-0.012359,-0.15607,-0.0047949,0.075449
99,0.055717,-0.073528,-0.018278,0.044864,0.0093464,-0.14917,0.0001381,0.079066
100,0.063281,-0.047548,-0.022225,0.02579,0.035656,-0.1393,0.012635,0.083999
101,0.061307,-0.014332,-0.0265,-0.00019077,0.060321,-0.12746,0.034011,0.089261
102,0.050455,0.027434,-0.028144,-0.028802,0.072489,-0.11891,0.058019,0.096167
103,0.032696,0.079724,-0.024856,-0.053138,0.071173,-0.11562,0.081697,0.10636
104,0.014608,0.13596,-0.014003,-0.06432,0.058348,-0.11233,0.10472,0.11886
105,-0.0018351,0.182,0.002769,-0.057414,0.04026,-0.10641,0.12938,0.12807
106,-0.019594,0.20535,0.022501,-0.039326,0.020199,-0.098193,0.15372,0.13169
107,-0.045903,0.1991,0.041575,-0.020909,0.002769,-0.090629,0.16687,0.13267
108,-0.077475,0.16654,0.058019,-0.0061104,-0.013017,-0.085039,0.16391,0.13366
109,-0.10247,0.11426,0.068871,0.0083598,-0.019594,-0.080106,0.15043,0.13662
110,-0.11036,0.054072,0.07512,0.027763,-0.019923,-0.079777,0.13366,0.13793
111,-0.096549,0.0014536,0.079395,0.050784,-0.015976,-0.081092,0.12182,0.13464
112,-0.068266,-0.036695,0.084657,0.073476,-0.014003,-0.083394,0.11985,0.133
113,-0.040313,-0.058071,0.08663,0.092879,-0.012688,-0.085039,0.12281,0.13004
114,-0.025185,-0.068266,0.080382,0.10209,-0.010057,-0.085367,0.12675,0.12544
115,-0.025842,-0.071884,0.066569,0.1011,-0.0051238,-0.084381,0.12544,0.11754
116,-0.031762,-0.071226,0.053086,0.09255,0.0011247,-0.079777,0.11886,0.10538
117,-0.027816,-0.059387,0.043877,0.080711,0.0096753,-0.069253,0.10439,0.086959
118,-0.0064392,-0.023211,0.042891,0.069529,0.01987,-0.05281,0.085315,0.0692
119,0.028092,0.036314,0.045851,0.059663,0.028092,-0.036037,0.065254,0.059334
120,0.062623,0.10834,0.047495,0.051441,0.031052,-0.024527,0.048153,0.057032
121,0.084328,0.17246,0.046508,0.048482,0.030723,-0.021896,0.038287,0.052428
122,0.090905,0.21259,0.046508,0.050784,0.023488,-0.020581,0.039602,0.042891
123,0.088603,0.2241,0.047495,0.058348,0.0080309,-0.020909,0.04322,0.029407
124,0.085972,0.2116,0.047495,0.06624,-0.010715,-0.014332,0.044864,0.013622
125,0.089261,0.18332,0.043549,0.067885,-0.02354,-0.0038083,0.044535,-0.0028217
126,0.098798,0.1501,0.034998,0.061636,-0.026171,0.0093464,0.040589,-0.018936
127,0.10834,0.11491,0.024803,0.050126,-0.023211,0.022501,0.034998,-0.035708
128,0.11327,0.083013,0.014937,0.038287,-0.018607,0.034669,0.027763,-0.055112
129,0.11294,0.058019,0.010991,0.035656,-0.018278,0.047495,0.020528,-0.074844
130,0.11426,0.041904,0.017568,0.047824,-0.020909,0.067227,0.012635,-0.090629
131,0.11689,0.032367,0.030723,0.067885,-0.024198,0.094523,0.0086887,-0.097207
132,0.11853,0.02283,0.044206,0.083342,-0.029131,0.12642,0.0080309,-0.095891
133,0.1136,0.0090175,0.053086,0.086959,-0.031762,0.15536,0.010991,-0.092603
134,0.10406,-0.014003,0.058676,0.075778,-0.02946,0.17608,0.011648,-0.09622
135,0.092221,-0.038668,0.06065,0.05473,-0.020909,0.18858,0.0086887,-0.10872
136,0.08367,-0.056756,0.059663,0.036642,-0.010057,0.19976,0.0017824,-0.1268
137,0.082026,-0.059716,0.053415,0.02875,-0.0028217,0.21127,-0.0080836,-0.14654
138,0.086959,-0.048205,0.041904,0.030723,0.00079584,0.21851,-0.020252,-0.16726
139,0.093536,-0.027487,0.026119,0.036642,0.0037556,0.21982,-0.030775,-0.18501
140,0.094194,0.0021113,0.013622,0.043877,0.0086887,0.21818,-0.036366,-0.19554
141,0.090248,0.038944,0.012635,0.050784,0.015266,0.2162,-0.038997,-0.19916
142,0.084986,0.080711,0.020199,0.055059,0.02283,0.21653,-0.041299,-0.20244
143,0.07808,0.11689,0.029078,0.057032,0.027434,0.21555,-0.04393,-0.20935
144,0.070187,0.14221,0.031381,0.052757,0.032367,0.20568,-0.046561,-0.21922
145,0.06361,0.15668,0.027763,0.044535,0.036642,0.18924,-0.039984,-0.22481
146,0.063938,0.15997,0.024803,0.038616,0.038944,0.17477,-0.021896,-0.21955
147,0.06624,0.15668,0.025461,0.03434,0.038287,0.16589,0.0021113,-0.20146
148,0.065583,0.14648,0.030723,0.033025,0.036314,0.16194,0.025461,-0.17219
149,0.059992,0.13432,0.036314,0.031052,0.032038,0.15536,0.042233,-0.1393
150,0.052099,0.12116,0.040589,0.026447,0.029078,0.14517,0.053086,-0.11595
151,0.044535,0.10801,0.041904,0.022172,0.029078,0.13464,0.053743,-0.10905
152,0.037629,0.096167,0.036642,0.015266,0.031052,0.12774,0.044206,-0.11365
153,0.030723,0.088603,0.027105,0.0086887,0.034669,0.12412,0.029078,-0.11858
154,0.029078,0.085972,0.015924,0.0093464,0.036314,0.12215,0.015266,-0.11694
155,0.032696,0.087617,0.0047422,0.018226,0.035327,0.12083,0.012964,-0.10937
156,0.039273,0.090248,-0.0031506,0.032367,0.032696,0.12807,0.023817,-0.098193
157,0.044535,0.088603,-0.0087413,0.044864,0.029736,0.1432,0.038944,-0.092603
158,0.048482,0.083013,-0.0077547,0.048482,0.031709,0.15767,0.04881,-0.095233
159,0.050784,0.077751,-0.0028217,0.042233,0.031709,0.16227,0.048153,-0.1028
160,0.048482,0.074133,0.0011247,0.030394,0.025132,0.15175,0.0373,-0.11595
161,0.04322,0.075778,0.0044134,0.023159,0.018555,0.1353,0.024803,-0.12878
162,0.038616,0.081697,0.0073732,0.022501,0.014279,0.12281,0.0090175,-0.14687
163,0.041575,0.08959,0.0096753,0.029078,0.0086887,0.12938,-0.014003,-0.17285
164,0.050455,0.09551,0.0054,0.036314,0.0014536,0.15471,-0.047877,-0.20179
165,0.059005,0.097483,-0.0011774,0.034998,-0.004466,0.18661,-0.085039,-0.22941
166,0.06361,0.098469,-0.0090702,0.027105,-0.0051238,0.21423,-0.11661,-0.25309
167,0.061965,0.10044,-0.013017,0.017239,-0.0047949,0.23363,-0.13601,-0.27348
168,0.055717,0.10209,-0.013674,0.013293,-0.0080836,0.2458,-0.14687,-0.29157
169,0.045522,0.10274,-0.011372,0.018555,-0.013345,0.25764,-0.15377,-0.30702
170,0.033354,0.10274,-0.011043,0.027105,-0.020909,0.27112,-0.1689,-0.31492
171,0.019541,0.10176,-0.012688,0.03434,-0.026829,0.28264,-0.19324,-0.31492
172,0.0073732,0.097483,-0.016634,0.03434,-0.030775,0.28559,-0.22119,-0.31064
173,-0.0077547,0.087617,-0.020252,0.027434,-0.038339,0.28,-0.24585,-0.30768
174,-0.02354,0.071831,-0.026829,0.01987,-0.043601,0.26422,-0.2669,-0.30242
175,-0.032091,0.05769,-0.033406,0.017568,-0.045574,0.2435,-0.28367,-0.2919
176,-0.027158,0.049468,-0.038339,0.017897,-0.040641,0.22147,-0.29518,-0.27611
177,-0.016305,0.050784,-0.041628,0.017568,-0.031762,0.19943,-0.30308,-0.25868
178,-0.0084125,0.058676,-0.042286,0.015924,-0.021567,0.17904,-0.30768,-0.24454
179,-0.0097279,0.065912,-0.041299,0.0040845,-0.011043,0.15931,-0.3113,-0.23467
180,-0.022883,0.0692,-0.042286,-0.0064392,-0.0011774,0.14254,-0.3113,-0.2281
181,-0.04393,0.063938,-0.046232,-0.014003,0.0080309,0.12971,-0.30538,-0.21889
182,-0.065964,0.048153,-0.052152,-0.015976,0.014279,0.12116,-0.29486,-0.20146
183,-0.084381,0.028421,-0.059387,-0.013674,0.01132,0.11195,-0.28039,-0.17416
184,-0.095891,0.015266,-0.068924,-0.01499,0.0017824,0.1034,-0.26361,-0.13832
185,-0.095562,0.011977,-0.075501,-0.021896,-0.0047949,0.099456,-0.24487,-0.098851
186,-0.087012,0.015595,-0.071884,-0.032091,-0.0041372,0.10373,-0.22382,-0.060702
187,-0.072213,0.022501,-0.057414,-0.038339,0.0073732,0.11064,-0.20047,-0.029789
188,-0.054454,0.029078,-0.035708,-0.032091,0.024474,0.11393,-0.17909,-0.0097279
189,-0.036695,0.031381,-0.01203,-0.01203,0.042233,0.11327,-0.15706,0.0054
190,-0.026171,0.027105,0.0060577,0.013622,0.053086,0.10866,-0.13667,0.018884
191,-0.025514,0.016581,0.013622,0.033354,0.052099,0.10176,-0.11858,0.028421
192,-0.0265,0.0014536,0.01691,0.046837,0.04618,0.097483,-0.097864,0.034669
193,-0.03242,-0.023211,0.011648,0.047824,0.035656,0.096496,-0.079448,0.033683
194,-0.032091,-0.047219,-0.0018351,0.0373,0.031381,0.093536,-0.067609,0.033354
195,-0.024527,-0.062018,-0.018607,0.015266,0.031709,0.084657,-0.056427,0.04026
196,-0.0077547,-0.063991,-0.029789,-0.010386,0.033025,0.064267,-0.037024,0.054401
197,0.01132,-0.055769,-0.030775,-0.027158,0.032696,0.035985,-0.0080836,0.070187
198,0.029407,-0.04393,-0.014661,-0.029131,0.035656,0.0083598,0.025132,0.087617
199,0.037629,-0.030118,0.011648,-0.018278,0.039931,-0.010715,0.05769,0.10538
200,0.034998,-0.021567,0.038616,-0.0011774,0.045522,-0.022554,0.089261,0.12313
201,0.022501,-0.018278,0.059005,0.012306,0.049468,-0.028473,0.1159,0.14155
202,0.0040845,-0.01499,0.071831,0.020857,0.046837,-0.033406,0.14287,0.15701
203,-0.013345,-0.011372,0.080711,0.024803,0.041904,-0.036366,0.16983,0.16457
204,-0.024856,-0.0084125,0.085972,0.028421,0.040918,-0.041628,0.19417,0.16819
205,-0.026171,-0.0090702,0.085315,0.032696,0.042891,-0.047877,0.20732,0.17016
206,-0.018936,-0.011043,0.076764,0.038287,0.052428,-0.057414,0.20831,0.17641
207,-0.0031506,-0.0093991,0.06065,0.045193,0.064925,-0.067937,0.20798,0.19022
208,0.019212,0.0001381,0.042891,0.053415,0.074791,-0.07879,0.21423,0.20765
209,0.04026,0.015595,0.029736,0.056374,0.081697,-0.094905,0.22475,0.2241
210,0.053086,0.033025,0.02283,0.053086,0.085972,-0.11529,0.23626,0.23561
211,0.05473,0.049468,0.030394,0.048482,0.08367,-0.13864,0.2412,0.2412
212,0.042891,0.062294,0.050455,0.046508,0.076106,-0.16068,0.2389,0.24317
213,0.021514,0.068871,0.077751,0.054401,0.060321,-0.17811,0.22837,0.24383
214,-0.00051963,0.0692,0.10307,0.076435,0.038287,-0.19028,0.21357,0.24383
215,-0.010386,0.064267,0.11952,0.10143,0.018555,-0.19652,0.20239,0.24251
216,-0.00051963,0.058348,0.12116,0.11689,0.0063866,-0.20244,0.19713,0.24021
217,0.024474,0.049797,0.10242,0.11393,0.0011247,-0.21034,0.19417,0.23331
218,0.057032,0.028421,0.0692,0.097483,0.0047422,-0.21889,0.18595,0.22443
219,0.088603,-0.011043,0.032038,0.07808,0.014608,-0.22612,0.17378,0.21357
220,0.11327,-0.057414,0.0021113,0.063281,0.023488,-0.22875,0.16326,0.20601
221,0.12675,-0.096549,-0.011043,0.054401,0.024803,-0.2281,0.15865,0.20239
222,0.12971,-0.11497,-0.0090702,0.048482,0.020528,-0.2281,0.16359,0.20042
223,0.12478,-0.1028,0.0040845,0.043549,0.015595,-0.22875,0.17838,0.19943
224,0.11393,-0.064978,0.019212,0.036971,0.011648,-0.2281,0.19713,0.19779
225,0.10044,-0.014003,0.02875,0.029736,0.011977,-0.22842,0.20864,0.19549
226,0.086301,0.033354,0.029078,0.02283,0.013293,-0.22941,0.20765,0.19351
227,0.070516,0.062623,0.021514,0.012964,0.016581,-0.22711,0.1968,0.19285
228,0.053086,0.069858,0.010662,0.0054,0.017239,-0.22119,0.18397,0.19022
229,0.037958,0.058019,-0.00019077,0.0040845,0.01691,-0.21395,0.17312,0.18463
230,0.028092,0.031052,-0.007097,0.011648,0.014937,-0.20968,0.16359,0.17378
231,0.025461,-0.00019077,-0.0084125,0.024145,0.012635,-0.21132,0.15306,0.16293
232,0.027434,-0.025514,-0.0031506,0.03434,0.010004,-0.21494,0.14122,0.15569
233,0.031709,-0.037353,0.0047422,0.032696,0.0054,-0.21626,0.12905,0.15339
234,0.034998,-0.035708,0.010662,0.017897,0.0001381,-0.21001,0.11985,0.15602
235,0.038616,-0.025514,0.0090175,-0.0034794,-0.0061104,-0.20146,0.11327,0.1603
236,0.041247,-0.015976,0.0034268,-0.017292,-0.012359,-0.18896,0.10965,0.16359
237,0.042562,-0.0084125,-0.002164,-0.019923,-0.013017,-0.17285,0.10965,0.16227
238,0.043877,-0.0028217,-0.0054526,-0.012359,-0.0067681,-0.15706,0.11721,0.15635
239,0.04618,0.002769,-0.004466,0.002769,0.002769,-0.14391,0.12544,0.14879
240,0.047495,0.0047422,-0.0024928,0.017239,0.011977,-0.13832,0.1284,0.14418
241,0.047824,0.0017824,-0.0028217,0.026776,0.017568,-0.13963,0.12511,0.15076
242,0.047495,-0.0051238,-0.0054526,0.030394,0.01691,-0.14062,0.12017,0.16457
243,0.047495,-0.0097279,-0.0074258,0.020199,0.016581,-0.13733,0.11524,0.1797
244,0.048153,-0.0087413,-0.0054526,0.0060577,0.019541,-0.12746,0.11689,0.18891
245,0.052428,-0.0018351,0.002769,-0.004466,0.026447,-0.11135,0.12182,0.18989
246,0.059334,0.0090175,0.015266,-0.004466,0.034011,-0.095562,0.13464,0.18102
247,0.067556,0.020199,0.027434,0.0040845,0.039602,-0.086025,0.15142,0.16885
248,0.074133,0.030394,0.038616,0.014608,0.039273,-0.079448,0.16885,0.1524
249,0.07808,0.035656,0.044206,0.021843,0.033683,-0.071226,0.17904,0.13432
250,0.080053,0.031052,0.045851,0.024474,0.027763,-0.058071,0.17838,0.11985
251,0.083013,0.015924,0.04618,0.023817,0.028092,-0.04393,0.1695,0.11031
252,0.087288,-0.0038083,0.04618,0.022172,0.030394,-0.030775,0.16128,0.10373
253,0.088603,-0.019594,0.041247,0.016581,0.032038,-0.022883,0.15207,0.094852
254,0.082355,-0.029789,0.032038,0.010662,0.029736,-0.019923,0.15076,0.083342
255,0.068871,-0.038997,0.024145,0.010991,0.02283,-0.017621,0.15339,0.070516
256,0.052099,-0.051823,0.021514,0.017897,0.0086887,-0.014661,0.15438,0.059992
257,0.037958,-0.061689,0.024145,0.025461,-0.0074258,-0.010057,0.14944,0.055388
258,0.029078,-0.063991,0.02875,0.032038,-0.017621,-0.0034794,0.14122,0.056703
259,0.027105,-0.057743,0.03434,0.038944,-0.01795,0.00046697,0.133,0.059663
260,0.027105,-0.044917,0.042233,0.044864,-0.0084125,0.0034268,0.12807,0.061307
261,0.024145,-0.030118,0.052428,0.046837,0.0063866,0.0057288,0.12905,0.061636
262,0.017239,-0.018607,0.063281,0.045193,0.019541,0.0096753,0.12807,0.059334
263,0.0057288,-0.011043,0.071831,0.042891,0.023817,0.017897,0.12215,0.055717
264,-0.0090702,-0.0077547,0.074133,0.040918,0.023159,0.030065,0.10998,0.053415
265,-0.020252,-0.0087413,0.071173,0.037958,0.020857,0.042562,0.096167,0.051441
266,-0.027487,-0.011372,0.06361,0.034011,0.024145,0.049797,0.082355,0.042233
267,-0.030118,-0.01203,0.055388,0.030065,0.030394,0.049468,0.06624,0.018884
268,-0.033406,-0.0077547,0.049468,0.028421,0.036314,0.049468,0.046837,-0.01499
269,-0.039984,0.0014536,0.04618,0.028421,0.036642,0.061307,0.023817,-0.054783
270,-0.045903,0.013622,0.046508,0.026447,0.032038,0.08959,-0.002164,-0.095233
271,-0.051165,0.02875,0.050126,0.025132,0.026447,0.13596,-0.031104,-0.13832
272,-0.052152,0.044206,0.055717,0.027105,0.022172,0.20206,-0.059387,-0.18633
273,-0.055769,0.049139,0.054072,0.029736,0.01691,0.27376,-0.097207,-0.24553
274,-0.064649,0.050126,0.044864,0.030723,0.014937,0.33986,-0.13897,-0.30702
275,-0.07879,0.05473,0.030394,0.028092,0.019541,0.38458,-0.17252,-0.3603
276,-0.09622,0.065254,0.018555,0.023817,0.023488,0.40464,-0.19126,-0.39648
277,-0.11003,0.079066,0.013951,0.019541,0.024145,0.39971,-0.19883,-0.40536
278,-0.11924,0.091892,0.017897,0.018226,0.018884,0.37209,-0.1962,-0.39089
279,-0.1245,0.10538,0.025132,0.016253,0.013293,0.33493,-0.18469,-0.35866
280,-0.12417,0.11721,0.033025,0.010662,0.012964,0.29513,-0.1666,-0.31853
281,-0.11793,0.12807,0.038616,-0.0011774,0.016581,0.2606,-0.14423,-0.27414
282,-0.10641,0.13629,0.038944,-0.014661,0.019212,0.22574,-0.12056,-0.23237
283,-0.09326,0.14188,0.031381,-0.026829,0.02283,0.18759,-0.10017,-0.19225
284,-0.077475,0.14385,0.01987,-0.034064,0.031709,0.14287,-0.078132,-0.15147
285,-0.064649,0.13464,0.0073732,-0.039984,0.037629,0.094852,-0.060045,-0.10872
286,-0.053796,0.11064,-0.0064392,-0.047548,0.039602,0.04322,-0.044588,-0.063004
287,-0.04097,0.070516,-0.025514,-0.059387,0.035656,-0.014332,-0.028802,-0.010057
288,-0.027816,0.021843,-0.04689,-0.069911,0.023159,-0.079119,-0.0057815,0.047824
289,-0.015319,-0.024527,-0.064978,-0.070897,0.0073732,-0.13996,0.024803,0.10603
290,-0.0057815,-0.0584,-0.075173,-0.063991,-0.0064392,-0.19093,0.055388,0.15931
291,0.0047422,-0.068924,-0.072213,-0.04689,-0.010715,-0.23073,0.081039,0.20272
292,0.021843,-0.054125,-0.047219,-0.023211,-0.0051238,-0.25967,0.10143,0.23002
293,0.046837,-0.021567,-0.0067681,0.0037556,0.0024402,-0.2817,0.11623,0.2458
294,0.076435,0.019212,0.04026,0.030723,0.0060577,-0.29518,0.12609,0.26126
295,0.10735,0.061307,0.081697,0.053086,0.0047422,-0.30275,0.13399,0.27639
296,0.13103,0.092879,0.11228,0.068214,0.0044134,-0.31031,0.14221,0.28987
297,0.1353,0.10866,0.12905,0.077422,0.0067154,-0.31656,0.15175,0.30007
298,0.12248,0.1034,0.12741,0.080711,0.0096753,-0.31525,0.1603,0.30664
299,0.099456,0.080382,0.10965,0.074791,0.011977,-0.30571,0.1626,0.30368
300,0.07512,0.039602,0.081368,0.062294,0.011648,-0.28992,0.15865,0.29119
301,0.054401,-0.0097279,0.050784,0.050455,0.0086887,-0.27249,0.15142,0.2777
302,0.038287,-0.054454,0.027105,0.040918,0.0040845,-0.25769,0.14648,0.26586
303,0.028421,-0.085039,0.014608,0.031052,-0.0015062,-0.24618,0.14352,0.25271
304,0.026776,-0.094247,0.012306,0.022172,-0.0074258,-0.23402,0.14056,0.23988
305,0.032038,-0.082736,0.012306,0.016581,-0.013674,-0.21856,0.13629,0.23133
306,0.044206,-0.0584,0.012306,0.020199,-0.01795,-0.20409,0.12642,0.22311
307,0.05769,-0.031433,0.011648,0.03434,-0.023869,-0.19455,0.1136,0.21259
308,0.067227,-0.013017,0.014608,0.05177,-0.03242,-0.18765,0.098469,0.19483
309,0.067556,-0.0034794,0.021843,0.064925,-0.039984,-0.18074,0.086959,0.1695
310,0.06065,-0.0051238,0.025461,0.070187,-0.04393,-0.17252,0.078409,0.13859
311,0.04881,-0.015319,0.023817,0.070187,-0.047548,-0.1643,0.070187,0.1113
312,0.038287,-0.030118,0.022501,0.067556,-0.04985,-0.15443,0.057361,0.093536
313,0.029736,-0.040641,0.024474,0.06624,-0.053138,-0.1416,0.038616,0.083342
314,0.02579,-0.045903,0.029407,0.065254,-0.057414,-0.12911,0.019541,0.073147
315,0.026119,-0.054783,0.034669,0.062294,-0.060702,-0.1176,0.0047422,0.062294
316,0.022501,-0.078132,0.039931,0.059663,-0.063333,-0.10707,-0.0047949,0.05177
317,0.018884,-0.11793,0.042562,0.057361,-0.062347,-0.096878,-0.0087413,0.041904
318,0.021514,-0.16265,0.040589,0.054401,-0.059716,-0.082736,-0.0077547,0.029078
319,0.031709,-0.18995,0.031052,0.052428,-0.05544,-0.066951,-0.0067681,0.011977
320,0.049468,-0.18469,0.019541,0.049468,-0.046232,-0.051494,-0.0087413,-0.0038083
321,0.068871,-0.14127,0.011977,0.047824,-0.033406,-0.038011,-0.011043,-0.015976
322,0.083013,-0.073857,0.0054,0.049139,-0.019594,-0.029789,-0.01203,-0.021238
323,0.083999,-0.0074258,-0.0018351,0.046508,-0.01203,-0.032749,-0.011043,-0.019265
324,0.076106,0.037958,-0.010057,0.039273,-0.0093991,-0.047219,-0.0090702,-0.0074258
325,0.059992,0.051113,-0.01795,0.028092,-0.011701,-0.06728,-0.002164,0.011648
326,0.039931,0.036971,-0.021896,0.015595,-0.014661,-0.082408,0.010662,0.032696
327,0.020857,0.0060577,-0.020252,0.0070443,-0.015319,-0.088985,0.025132,0.049139
328,0.0073732,-0.023211,-0.018278,0.0017824,-0.007097,-0.092931,0.036642,0.058676
329,0.0001381,-0.042286,-0.011043,-0.002164,0.0054,-0.091945,0.039273,0.061307
330,-0.0038083,-0.045246,-0.0031506,-0.0051238,0.020199,-0.086354,0.039931,0.056374
331,-0.0018351,-0.034722,0.0030979,-0.0054526,0.031381,-0.073528,0.042233,0.045193
332,0.0060577,-0.017621,0.0044134,-0.0008485,0.036314,-0.055769,0.04618,0.035656
333,0.013293,-0.0024928,0.0017824,0.010662,0.033354,-0.031762,0.047166,0.031381
334,0.012306,0.0070443,-0.002164,0.028421,0.028092,-0.0011774,0.042891,0.029736
335,0.0060577,0.012635,-0.0051238,0.049139,0.025461,0.032367,0.032696,0.014937
336,-0.0008485,0.017568,-0.0051238,0.06361,0.024145,0.067227,0.01691,-0.019594
337,-0.002164,0.023817,-0.0047949,0.070187,0.02579,0.1057,0.0011247,-0.065635
338,0.002769,0.038287,-0.0054526,0.065254,0.031709,0.14451,-0.013017,-0.11069
339,0.010991,0.054401,-0.0018351,0.055388,0.041575,0.17773,-0.022225,-0.14489
340,0.01987,0.061965,0.0063866,0.050126,0.050126,0.20535,-0.02946,-0.16923
341,0.028092,0.063938,0.01691,0.05177,0.05177,0.23232,-0.039655,-0.19093
342,0.03434,0.067885,0.02579,0.057361,0.049797,0.26225,-0.055769,-0.2156
343,0.035656,0.07808,0.026119,0.062623,0.049139,0.28954,-0.073528,-0.2452
344,0.035327,0.09255,0.01691,0.063281,0.048482,0.30993,-0.091287,-0.28006
345,0.034998,0.10439,0.002769,0.056374,0.051113,0.32177,-0.10937,-0.31459
346,0.040589,0.10274,-0.014003,0.045851,0.059992,0.32539,-0.12549,-0.34517
347,0.04881,0.085644,-0.02946,0.034669,0.069529,0.3221,-0.13864,-0.36392
348,0.059005,0.058019,-0.041957,0.030394,0.075449,0.31651,-0.15015,-0.37017
349,0.064596,0.028421,-0.048534,0.031381,0.079066,0.31486,-0.1587,-0.36589
350,0.060321,0.0040845,-0.045903,0.034011,0.080382,0.31717,-0.16199,-0.35734
351,0.045522,-0.011372,-0.031433,0.032696,0.077751,0.32177,-0.1587,-0.34978
352,0.023817,-0.0097279,-0.0080836,0.0373,0.074462,0.32637,-0.14818,-0.34517
353,0.0001381,0.017568,0.014608,0.05177,0.072818,0.33229,-0.13667,-0.34254
354,-0.018278,0.070187,0.026119,0.067885,0.076435,0.3369,-0.12417,-0.3432
355,-0.022225,0.13695,0.022501,0.074791,0.079066,0.34117,-0.11365,-0.34386
356,-0.0090702,0.21028,0.0093464,0.071502,0.077422,0.34742,-0.10872,-0.34156
357,0.01987,0.28527,-0.0054526,0.062294,0.073147,0.354,-0.11036,-0.33794
358,0.062952,0.35597,-0.0064392,0.050126,0.070516,0.35893,-0.11233,-0.32939
359,0.10636,0.41714,0.01132,0.038944,0.066569,0.35795,-0.11201,-0.31196
360,0.13793,0.45924,0.042233,0.031052,0.06065,0.35268,-0.11036,-0.28631
361,0.14681,0.46713,0.070845,0.028421,0.054072,0.3438,-0.10674,-0.25704
362,0.13136,0.43391,0.087946,0.032367,0.049797,0.33525,-0.10181,-0.22875
363,0.096496,0.36518,0.087288,0.038616,0.050455,0.32901,-0.09622,-0.20244
364,0.050126,0.27737,0.074133,0.039602,0.051113,0.3221,-0.092931,-0.1814
365,-0.002164,0.18792,0.052099,0.037629,0.041904,0.31322,-0.093918,-0.1689
366,-0.048205,0.11294,0.030723,0.033025,0.020199,0.29579,-0.098522,-0.1666
367,-0.082408,0.05769,0.021186,0.029736,-0.0038083,0.27343,-0.099838,-0.16857
368,-0.098193,0.015595,0.024803,0.032038,-0.014003,0.24646,-0.093918,-0.17186
369,-0.093918,-0.026829,0.036314,0.040589,-0.0080836,0.22245,-0.07879,-0.17252
370,-0.073857,-0.077803,0.047166,0.048153,0.0067154,0.20667,-0.061031,-0.16824
371,-0.047219,-0.13536,0.051441,0.054401,0.024145,0.20535,-0.046561,-0.15969
372,-0.021567,-0.18633,0.050126,0.058676,0.039273,0.21588,-0.035051,-0.14818
373,-0.0015062,-0.21067,0.045851,0.061965,0.047824,0.23495,-0.024856,-0.137
374,0.014937,-0.19981,0.041904,0.066569,0.046508,0.25567,-0.015648,-0.13009
375,0.024474,-0.16232,0.039273,0.071831,0.0373,0.26784,-0.0090702,-0.12944
376,0.027763,-0.11529,0.037629,0.080053,0.021514,0.27014,-0.0077547,-0.13437
377,0.028092,-0.070897,0.0373,0.091234,0.0060577,0.26257,-0.016305,-0.14062
378,0.025132,-0.030775,0.033683,0.10538,-0.0064392,0.24679,-0.031762,-0.14719
379,0.027434,0.010991,0.029407,0.11426,-0.016963,0.22804,-0.043601,-0.1518
380,0.034669,0.062623,0.02579,0.11195,-0.025514,0.20798,-0.04985,-0.15246
381,0.039602,0.12577,0.02283,0.097483,-0.0265,0.18365,-0.050836,-0.14226
382,0.034669,0.18825,0.019541,0.073804,-0.017292,0.1501,-0.045574,-0.11694
383,0.020199,0.23659,0.015266,0.049139,0.0024402,0.10472,-0.027487,-0.07287
384,0.0047422,0.25106,0.015924,0.029078,0.02283,0.054072,0.002769,-0.01499
385,-0.007097,0.22771,0.018226,0.016253,0.040918,-0.00051963,0.043877,0.044535
386,-0.0097279,0.17378,0.019212,0.0060577,0.05177,-0.051494,0.085315,0.096167
387,-0.0031506,0.10998,0.015595,-0.011043,0.050455,-0.096878,0.11952,0.133
388,0.0063866,0.056374,0.0086887,-0.042615,0.04026,-0.13404,0.14122,0.15734
389,0.015266,0.027763,0.0001381,-0.080763,0.030394,-0.15739,0.15372,0.17279
390,0.018884,0.022501,-0.0087413,-0.11233,0.023488,-0.16758,0.15865,0.1843
391,0.015266,0.030394,-0.017621,-0.12582,0.020199,-0.17252,0.15865,0.19285
392,0.0057288,0.044206,-0.025514,-0.11464,0.021186,-0.17679,0.15635,0.20206
393,-0.0047949,0.059992,-0.032749,-0.085696,0.028421,-0.18436,0.15799,0.22048
394,-0.010386,0.068543,-0.037353,-0.051823,0.0373,-0.20212,0.16194,0.24613
395,-0.0008485,0.071502,-0.034393,-0.016634,0.048153,-0.22514,0.17246,0.27376
396,0.021514,0.064596,-0.024856,0.012635,0.053086,-0.24191,0.182,0.28625
397,0.049139,0.05473,-0.0093991,0.030723,0.050784,-0.24026,0.182,0.26882
398,0.07512,0.045851,0.0060577,0.035327,0.04618,-0.22086,0.16326,0.21949
399,0.09551,0.035656,0.018555,0.029736,0.042891,-0.18765,0.12412,0.15503
400,0.10274,0.020528,0.02283,0.021843,0.042562,-0.15015,0.072489,0.093865
401,0.099127,0.0037556,0.021843,0.01987,0.041575,-0.11135,0.023817,0.042562
402,0.089261,-0.013017,0.017897,0.023817,0.035656,-0.074515,-0.01499,0.0040845
403,0.07808,-0.024856,0.012635,0.030065,0.029407,-0.042615,-0.040641,-0.02354
404,0.073147,-0.026829,0.0073732,0.033025,0.025132,-0.016963,-0.053796,-0.04393
405,0.074133,-0.017292,0.00046697,0.032038,0.022172,0.0011247,-0.059716,-0.063991
406,0.080382,0.0011247,-0.0051238,0.027434,0.021843,0.012306,-0.060702,-0.083394
407,0.088275,0.021514,-0.0064392,0.023159,0.026776,0.020199,-0.056756,-0.098851
408,0.093536,0.036642,-0.002164,0.02579,0.033683,0.026447,-0.04985,-0.10674
409,0.093536,0.04322,0.0011247,0.033354,0.038616,0.02875,-0.044588,-0.1097
410,0.090248,0.047495,0.0034268,0.037958,0.035327,0.031052,-0.046232,-0.11299
411,0.081039,0.056374,0.0054,0.036314,0.024474,0.034011,-0.04985,-0.11891
412,0.068871,0.0692,0.010662,0.024474,0.012635,0.036642,-0.047877,-0.12417
413,0.05473,0.084657,0.014608,0.0037556,0.0060577,0.038287,-0.038668,-0.12746
414,0.041575,0.097483,0.015924,-0.013674,0.0067154,0.03434,-0.027487,-0.12582
415,0.033683,0.10209,0.014608,-0.017621,0.0086887,0.026119,-0.014332,-0.11891
416,0.027105,0.097154,0.013622,-0.0047949,0.0050711,0.014937,-0.00019077,-0.10806
417,0.018884,0.090248,0.015266,0.010991,-0.0077547,0.0067154,0.01132,-0.09326
418,0.0080309,0.085644,0.019541,0.020199,-0.021238,0.0047422,0.023159,-0.079119
419,-0.0018351,0.077751,0.027105,0.01987,-0.026829,0.0083598,0.033354,-0.067937
420,-0.0087413,0.065583,0.036642,0.013622,-0.021238,0.012964,0.038287,-0.062347
421,-0.012359,0.055388,0.044864,0.010333,-0.010057,0.015924,0.034998,-0.059387
422,-0.012688,0.050455,0.046837,0.010991,-0.00019077,0.016253,0.029078,-0.057743
423,-0.0077547,0.04881,0.04026,0.012635,0.00079584,0.010991,0.023817,-0.055112
424,-0.0008485,0.045522,0.030394,0.014937,-0.0064392,0.0001381,0.020528,-0.04985
425,0.0063866,0.0373,0.020857,0.015266,-0.016634,-0.010386,0.022172,-0.040313
426,0.0096753,0.027105,0.018884,0.014279,-0.025185,-0.016305,0.029407,-0.027816
427,0.012306,0.018555,0.023159,0.013293,-0.024527,-0.01499,0.039602,-0.018936
428,0.012964,0.013622,0.031052,0.017239,-0.013017,-0.0084125,0.047166,-0.0090702
429,0.010333,0.010004,0.0373,0.029407,0.002769,0.00046697,0.048153,0.0067154
430,0.0040845,0.0093464,0.042891,0.045851,0.0093464,0.0083598,0.042562,0.021843
431,-0.0051238,0.010991,0.045193,0.06065,0.00079584,0.01132,0.033354,0.034011
432,-0.013674,0.013951,0.042562,0.065254,-0.016963,0.0080309,0.02875,0.042891
433,-0.023211,0.020528,0.034998,0.057032,-0.031433,0.0030979,0.032038,0.050455
434,-0.02946,0.030065,0.020199,0.039602,-0.036037,-0.0057815,0.04618,0.063938
435,-0.032091,0.036314,-0.00051963,0.025461,-0.031762,-0.01795,0.067556,0.07808
436,-0.032749,0.039602,-0.021896,0.022501,-0.021896,-0.030775,0.08663,0.093536
437,-0.034393,0.044206,-0.037682,0.02579,-0.014661,-0.04097,0.10011,0.10834
438,-0.037024,0.04881,-0.045903,0.025461,-0.014003,-0.045574,0.10801,0.12248
439,-0.042286,0.049797,-0.044259,0.01691,-0.018607,-0.045246,0.11195,0.13728
440,-0.043601,0.044206,-0.034393,0.0093464,-0.024856,-0.038668,0.11261,0.15372
441,-0.035708,0.029736,-0.014003,0.0096753,-0.023869,-0.029789,0.11393,0.16918
442,-0.021238,0.010662,0.015595,0.02283,-0.011043,-0.020252,0.11623,0.18036
443,-0.0097279,-0.0087413,0.045851,0.044535,0.013622,-0.013017,0.11721,0.18529
444,-0.0057815,-0.021567,0.065912,0.072489,0.037629,-0.01499,0.1136,0.18332
445,-0.0090702,-0.031762,0.067556,0.097483,0.050455,-0.023869,0.10702,0.1774
446,-0.013017,-0.046232,0.055059,0.10834,0.04881,-0.032091,0.1034,0.17345
447,-0.013674,-0.066293,0.034998,0.099127,0.04026,-0.038668,0.10307,0.17214
448,-0.0084125,-0.090629,0.014279,0.073147,0.025461,-0.042944,0.10143,0.17312
449,0.00046697,-0.11036,0.0011247,0.043877,0.0034268,-0.045574,0.094852,0.17246
450,0.0096753,-0.11891,-0.00051963,0.024474,-0.020581,-0.049192,0.085972,0.16819
451,0.018226,-0.11201,0.0080309,0.021514,-0.038997,-0.052481,0.079066,0.15767
452,0.025132,-0.083723,0.019212,0.032696,-0.045246,-0.051823,0.075778,0.14517
453,0.030723,-0.034064,0.032367,0.050126,-0.039326,-0.049521,0.075449,0.1353
454,0.03434,0.022501,0.041247,0.06065,-0.028473,-0.041957,0.073147,0.12544
455,0.034011,0.064267,0.042891,0.06065,-0.016634,-0.033078,0.070187,0.11426
456,0.027763,0.076764,0.03434,0.052428,-0.0090702,-0.024856,0.068871,0.1034
457,0.014608,0.062623,0.018555,0.044864,-0.0034794,-0.016634,0.071502,0.09255
458,-0.0008485,0.033354,0.0011247,0.042891,-0.0008485,-0.011372,0.076764,0.088603
459,-0.014003,-0.0074258,-0.013017,0.047495,0.0014536,-0.0097279,0.082355,0.091234
460,-0.017621,-0.054125,-0.019923,0.04881,0.0021113,-0.0074258,0.085315,0.10011
461,-0.0097279,-0.097864,-0.018278,0.044535,0.0024402,-0.002164,0.082684,0.11195
462,0.0021113,-0.13009,-0.010386,0.03434,0.00079584,0.0017824,0.074133,0.12083
463,0.0080309,-0.14489,0.0021113,0.020857,-0.0034794,0.0030979,0.060979,0.12412
464,0.0037556,-0.13996,0.014279,0.010333,-0.0084125,-0.0051238,0.046508,0.11853
465,-0.0074258,-0.11661,0.020857,0.0030979,-0.0087413,-0.016963,0.034011,0.1034
466,-0.017621,-0.085696,0.02283,0.0001381,-0.0067681,-0.031433,0.02579,0.083342
467,-0.019594,-0.057743,0.020857,-0.00051963,-0.0034794,-0.037682,0.021843,0.067227
468,-0.012688,-0.036366,0.019212,-0.00019077,0.0060577,-0.032091,0.021843,0.056374
469,0.0011247,-0.01499,0.021514,0.0014536,0.018555,-0.016305,0.025461,0.050455
470,0.022172,0.013293,0.030394,0.010004,0.032367,0.0070443,0.033683,0.047495
471,0.041904,0.049468,0.043549,0.024803,0.04618,0.025461,0.044206,0.04618
472,0.051441,0.091563,0.059005,0.038616,0.059992,0.034011,0.056703,0.041904
473,0.050455,0.13629,0.073147,0.047166,0.069529,0.038287,0.068871,0.032038
474,0.045851,0.18102,0.084328,0.046508,0.072489,0.04026,0.074791,0.019212
475,0.04026,0.21489,0.088275,0.032367,0.070516,0.038287,0.068214,0.0060577
476,0.034669,0.22706,0.082355,0.011977,0.06361,0.031052,0.053743,-0.004466
477,0.032038,0.20634,0.065912,-0.0087413,0.054072,0.01691,0.035656,-0.010386
478,0.031709,0.14879,0.042233,-0.018607,0.045193,0.0037556,0.01987,-0.0087413
479,0.034011,0.070187,0.018884,-0.016963,0.039931,-0.002164,0.0096753,-0.0038083
480,0.037629,-0.0038083,0.0011247,-0.0077547,0.041247,-0.00051963,0.0080309,0.0014536
481,0.039931,-0.053467,-0.010386,0.0040845,0.047495,0.0021113,0.011977,0.0070443
482,0.044864,-0.069253,-0.011372,0.01691,0.055388,0.0054,0.019212,0.0080309
483,0.053086,-0.057414,-0.002164,0.032038,0.061965,0.010333,0.029407,0.0034268
484,0.061307,-0.027487,0.022172,0.04322,0.069529,0.017897,0.039931,-0.0047949
485,0.069858,0.0086887,0.053086,0.050784,0.079395,0.029407,0.050126,-0.014003
486,0.076435,0.037629,0.07512,0.055388,0.088275,0.04026,0.062952,-0.023869
487,0.076435,0.054401,0.076435,0.059005,0.090577,0.045851,0.071502,-0.034064
488,0.069858,0.058348,0.059334,0.063281,0.085644,0.043877,0.068543,-0.040641
489,0.059992,0.050455,0.036314,0.065254,0.076435,0.034011,0.053415,-0.04393
490,0.050455,0.037629,0.017239,0.071831,0.061965,0.022172,0.025461,-0.045574
491,0.045193,0.027763,0.0086887,0.080053,0.041247,0.010991,-0.0054526,-0.048534
492,0.04322,0.026776,0.010333,0.087617,0.017897,0.00046697,-0.035051,-0.049192
493,0.04026,0.027105,0.017568,0.087617,0.002769,-0.010057,-0.060373,-0.045903
494,0.033354,0.022501,0.025132,0.079395,-0.0024928,-0.023211,-0.083723,-0.038668
495,0.022501,0.014937,0.032038,0.067885,0.00046697,-0.038011,-0.1051,-0.031433
496,0.010662,0.01132,0.035985,0.059334,0.0030979,-0.051823,-0.12615,-0.019594
497,0.0017824,0.012306,0.039602,0.059663,-0.0018351,-0.062018,-0.14654,-0.0008485
498,0.0021113,0.018555,0.044206,0.064925,-0.0084125,-0.064649,-0.16331,0.020528
499,0.010004,0.025461,0.04881,0.068543,-0.012359,-0.060373,-0.17449,0.0373
500,0.025461,0.031052,0.051113,0.064267,-0.0067681,-0.050836,-0.17285,0.044206
501,0.046837,0.029078,0.048153,0.053743,0.0047422,-0.041957,-0.1587,0.039602
502,0.067556,0.020199,0.039602,0.038944,0.014608,-0.03242,-0.13503,0.029078
503,0.080382,0.0034268,0.026447,0.026447,0.017897,-0.02354,-0.1028,0.012306
504,0.080053,-0.011701,0.013293,0.018226,0.013622,-0.015976,-0.063004,-0.0074258
505,0.067885,-0.020581,0.0024402,0.013293,0.0054,-0.010057,-0.022225,-0.027816
506,0.050126,-0.021238,-0.0024928,0.013622,-0.0015062,-0.0028217,0.011648,-0.042944
507,0.033025,-0.015648,-0.0034794,0.015924,-0.0011774,0.0047422,0.035327,-0.048205
508,0.023817,-0.0090702,-0.00019077,0.014608,0.0037556,0.0037556,0.048153,-0.042286
509,0.021514,-0.0084125,0.0063866,0.0070443,0.0086887,-0.0061104,0.052428,-0.032091
510,0.021186,-0.01203,0.015266,-0.0074258,0.0080309,-0.022554,0.056703,-0.025514
511,0.018226,-0.018278,0.023817,-0.020252,-0.00019077,-0.041628,0.062294,-0.020909
512,0.013951,-0.023869,0.02875,-0.028473,-0.0090702,-0.057743,0.068214,-0.020252
513,0.0070443,-0.024856,0.031381,-0.028473,-0.019265,-0.070568,0.069529,-0.019594
514,0.0021113,-0.020581,0.030723,-0.021896,-0.025185,-0.082408,0.062952,-0.015976
515,0.0040845,-0.010715,0.027434,-0.013345,-0.025185,-0.092603,0.048482,-0.010386
516,0.0093464,-0.0008485,0.022501,-0.0084125,-0.01795,-0.099838,0.031052,-0.0077547
517,0.015266,0.0067154,0.017568,-0.0067681,-0.0018351,-0.10017,0.020528,-0.0067681
518,0.015924,0.0080309,0.012306,-0.0087413,0.013293,-0.093589,0.020857,-0.0077547
519,0.015924,0.002769,0.0093464,-0.014661,0.023817,-0.081092,0.028421,-0.010386
520,0.017239,-0.0054526,0.015266,-0.021238,0.029078,-0.067609,0.043549,-0.013345
521,0.022501,-0.01203,0.027434,-0.024856,0.029407,-0.055769,0.062952,-0.019923
522,0.031052,-0.014003,0.043877,-0.023211,0.023159,-0.047219,0.082026,-0.024527
523,0.043877,-0.011372,0.057032,-0.015648,0.010991,-0.038997,0.098469,-0.031104
524,0.054072,-0.0018351,0.061307,-0.0087413,-0.0011774,-0.025185,0.10899,-0.03538
525,0.059005,0.0093464,0.057032,-0.007097,-0.0077547,-0.0074258,0.11162,-0.03538
526,0.058676,0.014608,0.047824,-0.012688,-0.0080836,0.0096753,0.10866,-0.034064
527,0.05177,0.013951,0.034669,-0.018278,-0.0057815,0.018555,0.1034,-0.031104
528,0.041575,0.012306,0.024145,-0.019923,-0.00019077,0.021514,0.099456,-0.025842
529,0.029407,0.010991,0.022172,-0.01499,0.0044134,0.020528,0.098141,-0.01795
530,0.016581,0.010662,0.024474,-0.0084125,0.0060577,0.017239,0.10176,-0.010386
531,0.0050711,0.013293,0.024145,-0.007097,0.0047422,0.014279,0.11031,-0.0064392
532,-0.0018351,0.017897,0.019212,-0.012688,0.0014536,0.015595,0.11491,-0.0064392
533,-0.0051238,0.020528,0.011977,-0.021567,-0.0011774,0.020857,0.11228,-0.0084125
534,-0.0061104,0.024145,0.0047422,-0.027816,0.0014536,0.030394,0.10307,-0.0087413
535,-0.0093991,0.031052,0.0024402,-0.028802,0.0080309,0.039931,0.094194,-0.0038083
536,-0.016963,0.038616,0.0030979,-0.023869,0.016581,0.047495,0.087288,0.0057288
537,-0.027816,0.039931,0.0044134,-0.012359,0.024803,0.050455,0.079066,0.018226
538,-0.039326,0.031709,0.0070443,0.0001381,0.030394,0.049797,0.068214,0.02875
539,-0.048205,0.012635,0.0093464,0.0073732,0.029407,0.044206,0.062952,0.03434
540,-0.050507,-0.011043,0.010991,0.0067154,0.027434,0.034011,0.065912,0.036314
541,-0.04985,-0.034722,0.0086887,0.0037556,0.024803,0.022501,0.075449,0.037629
542,-0.049192,-0.054454,0.0021113,0.0040845,0.019212,0.011977,0.085315,0.036971
543,-0.04689,-0.064649,-0.0064392,0.0077021,0.012306,0.0017824,0.090577,0.034011
544,-0.042944,-0.064978,-0.014332,0.010662,0.0057288,-0.0057815,0.089261,0.028092
545,-0.038997,-0.057085,-0.021896,0.010662,-0.00051963,-0.0084125,0.085315,0.02283
546,-0.033078,-0.042286,-0.030775,0.010333,-0.0041372,-0.0074258,0.078409,0.01987
547,-0.022554,-0.02354,-0.039984,0.012306,-0.0038083,-0.0051238,0.068871,0.01691
548,-0.01203,-0.0067681,-0.045246,0.018555,0.0001381,-0.0011774,0.056374,0.014937
549,-0.0080836,0.0047422,-0.04393,0.026776,0.0073732,0.0017824,0.044864,0.011648
550,-0.0084125,0.0093464,-0.032749,0.03434,0.014279,0.0037556,0.038287,0.0080309
551,-0.0080836,0.0060577,-0.017621,0.042562,0.017568,0.0073732,0.037629,0.0057288
552,-0.0047949,-0.0028217,-0.0024928,0.058676,0.020199,0.020528,0.040918,0.0044134
553,0.0030979,-0.012359,0.0086887,0.086301,0.022172,0.04322,0.038944,0.0040845
554,0.012635,-0.015648,0.014279,0.12017,0.020857,0.068214,0.032367,0.0070443
555,0.020199,-0.0077547,0.017239,0.14879,0.021514,0.091892,0.020528,0.0080309
556,0.02579,0.011648,0.022172,0.16194,0.028421,0.1136,0.0093464,0.0021113
557,0.029736,0.036642,0.030723,0.16063,0.039602,0.12708,0.0001381,-0.0090702
558,0.033683,0.060321,0.035985,0.1501,0.04881,0.1307,-0.0077547,-0.020581
559,0.035985,0.079724,0.037958,0.13728,0.051113,0.12774,-0.014661,-0.025514
560,0.040918,0.093865,0.034998,0.12905,0.047495,0.12116,-0.01795,-0.021567
561,0.046837,0.10472,0.030723,0.12642,0.04322,0.11458,-0.015648,-0.013017
562,0.057361,0.1159,0.025461,0.12642,0.042233,0.10801,-0.010057,-0.0054526
563,0.067556,0.12675,0.020857,0.12642,0.045851,0.10439,-0.0034794,-0.0041372
564,0.076435,0.13169,0.020857,0.12807,0.045522,0.10866,0.0034268,-0.0097279
565,0.080711,0.12708,0.024474,0.12708,0.034998,0.11458,0.0096753,-0.017621
566,0.080053,0.11195,0.031052,0.12313,0.020199,0.11261,0.012964,-0.024856
567,0.074462,0.087617,0.034669,0.11327,0.0060577,0.10176,0.012964,-0.030118
568,0.065583,0.063281,0.033683,0.096825,0.0021113,0.085972,0.0083598,-0.035708
569,0.057361,0.049139,0.02283,0.070845,0.0096753,0.072489,0.002769,-0.044259
570,0.049468,0.04618,0.0060577,0.044535,0.023159,0.062623,-0.0011774,-0.052481
571,0.044864,0.052757,-0.0090702,0.026447,0.031052,0.061307,-0.0038083,-0.059716
572,0.044535,0.063938,-0.015976,0.017239,0.027763,0.068543,-0.0097279,-0.064978
573,0.048153,0.076106,-0.012688,0.015266,0.016253,0.082026,-0.015648,-0.069582
574,0.046837,0.085644,-0.0067681,0.016253,0.0060577,0.097154,-0.024856,-0.068924
575,0.041247,0.08959,0.0001381,0.018884,0.0044134,0.10768,-0.033078,-0.066951
576,0.033683,0.088275,0.0037556,0.017568,0.013293,0.10965,-0.038997,-0.066293
577,0.028092,0.088275,0.0011247,0.013293,0.02875,0.10439,-0.042944,-0.066951
578,0.026447,0.093208,-0.0051238,0.0067154,0.041575,0.10044,-0.04097,-0.069253
579,0.026119,0.10472,-0.0077547,0.00079584,0.045193,0.1011,-0.033735,-0.069582
580,0.028092,0.11524,-0.0051238,-0.0034794,0.0373,0.10505,-0.021896,-0.066951
581,0.03434,0.12642,0.0017824,-0.0034794,0.023159,0.10998,-0.0077547,-0.063991
582,0.042891,0.13892,0.012635,0.002769,0.0093464,0.11195,0.0054,-0.065635
583,0.052757,0.15438,0.023159,0.0093464,0.0014536,0.11195,0.015924,-0.074186
584,0.06065,0.16556,0.031381,0.018226,-0.0028217,0.10373,0.019212,-0.086683
585,0.062294,0.1672,0.037629,0.031052,-0.0054526,0.089919,0.013622,-0.095562
586,0.058348,0.15898,0.042562,0.043549,-0.0041372,0.069858,0.00079584,-0.093589
587,0.051113,0.14254,0.047166,0.053086,-0.002164,0.042562,-0.014332,-0.078461
588,0.044535,0.12116,0.047824,0.057032,-0.00051963,0.013622,-0.024198,-0.0584
589,0.042233,0.10209,0.041575,0.056374,0.0024402,-0.012359,-0.029789,-0.037682
590,0.048482,0.08663,0.030065,0.051441,0.0077021,-0.030447,-0.029131,-0.024527
591,0.059334,0.076435,0.015924,0.041575,0.011648,-0.037682,-0.022554,-0.022225
592,0.066569,0.067556,0.0086887,0.021514,0.0090175,-0.036037,-0.01795,-0.027158
593,0.070516,0.05769,0.011977,-0.0024928,0.0047422,-0.031433,-0.016963,-0.033406
594,0.070845,0.050126,0.022172,-0.022225,0.00079584,-0.026171,-0.016963,-0.036366
595,0.071502,0.048482,0.031381,-0.031433,-0.002164,-0.021238,-0.01795,-0.03242
596,0.074462,0.056703,0.035985,-0.030775,-0.0015062,-0.014003,-0.01499,-0.027487
597,0.080711,0.070516,0.037958,-0.023211,0.0014536,-0.0038083,-0.0084125,-0.024198
598,0.089919,0.087288,0.038616,-0.01795,0.0014536,0.0083598,0.0014536,-0.02354
599,0.10011,0.10044,0.04026,-0.016305,0.0001381,0.020528,0.012306,-0.020581
600,0.1034,0.10603,0.042233,-0.017292,-0.00019077,0.029078,0.018884,-0.014332
601,0.097812,0.10307,0.042562,-0.018607,0.0034268,0.035327,0.020528,-0.0031506
602,0.082684,0.093865,0.041575,-0.020581,0.013951,0.044864,0.01987,0.0080309
603,0.061636,0.079066,0.039931,-0.019265,0.024145,0.059334,0.021843,0.0096753
604,0.041575,0.060321,0.035656,-0.013674,0.029736,0.071173,0.02579,0.0001381
605,0.031052,0.044535,0.029407,-0.0041372,0.031381,0.074791,0.032367,-0.011701
606,0.031381,0.0373,0.024803,0.0024402,0.030723,0.064267,0.040918,-0.016305
607,0.034998,0.036642,0.02283,0.0037556,0.030065,0.043877,0.04618,-0.01203
608,0.035985,0.040918,0.022501,0.002769,0.025132,0.020199,0.045193,-0.0028217
609,0.030723,0.045522,0.023159,-0.0011774,0.017568,0.0021113,0.040589,0.0063866
610,0.01987,0.047495,0.020857,-0.0051238,0.002769,-0.01203,0.030723,0.0096753
611,0.0093464,0.046508,0.017568,-0.0051238,-0.011043,-0.021567,0.02283,0.0070443
612,0.0030979,0.042562,0.016581,0.00079584,-0.018278,-0.027487,0.021514,0.0054
613,0.0050711,0.03434,0.020199,0.013951,-0.013674,-0.025842,0.029078,0.0073732
614,0.011648,0.025461,0.027763,0.03434,-0.002164,-0.019265,0.042562,0.012306
615,0.018555,0.021514,0.034669,0.053086,0.012635,-0.011701,0.057032,0.022172
616,0.022501,0.023159,0.039602,0.061636,0.022172,-0.0024928,0.069858,0.034998
617,0.018555,0.025132,0.042891,0.058348,0.022172,0.01132,0.080711,0.04881
618,0.0063866,0.024474,0.041904,0.049139,0.013951,0.027105,0.088932,0.058019
619,-0.014332,0.021186,0.035327,0.040918,0.0050711,0.039931,0.09255,0.065583
620,-0.039326,0.0083598,0.029078,0.036642,0.0044134,0.048482,0.087617,0.071502
621,-0.065307,-0.013674,0.023817,0.035985,0.012635,0.050126,0.079724,0.074791
622,-0.089314,-0.039984,0.018226,0.036314,0.025461,0.041904,0.070845,0.073804
623,-0.1097,-0.065307,0.015266,0.036314,0.036642,0.02579,0.062294,0.069858
624,-0.11661,-0.077475,0.017568,0.036642,0.042233,0.0077021,0.054072,0.061965
625,-0.10477,-0.066293,0.022172,0.036314,0.040589,-0.0041372,0.046508,0.052757
626,-0.076488,-0.039984,0.027105,0.033683,0.034011,-0.007097,0.043549,0.044206
627,-0.04097,-0.012359,0.027105,0.028421,0.026119,-0.0047949,0.041575,0.0373
628,-0.012359,0.002769,0.023159,0.02283,0.020528,-0.0024928,0.04026,0.033354
629,0.0047422,-0.002164,0.019541,0.021514,0.020857,-0.002164,0.03434,0.033354
630,0.013622,-0.021567,0.014608,0.028092,0.024474,-0.0067681,0.022172,0.03434
631,0.016581,-0.045903,0.012635,0.036642,0.026447,-0.016305,0.0050711,0.037958
632,0.021186,-0.063333,0.015924,0.038616,0.028421,-0.030775,-0.0093991,0.043549
633,0.031381,-0.065307,0.019541,0.033025,0.029736,-0.046561,-0.015648,0.050784
634,0.046508,-0.048534,0.021514,0.021514,0.026119,-0.06136,-0.015319,0.053743
635,0.060321,-0.012688,0.019212,0.010991,0.015595,-0.072213,-0.010386,0.051113
636,0.065254,0.030394,0.015595,0.0080309,0.0073732,-0.078132,-0.0008485,0.046508
637,0.060321,0.065254,0.011977,0.0093464,0.0063866,-0.076817,0.0093464,0.042891
638,0.046508,0.077422,0.010991,0.01132,0.010991,-0.075501,0.015595,0.039273
639,0.032367,0.06624,0.010004,0.012635,0.015595,-0.071555,0.011648,0.033683
640,0.020857,0.041575,0.0080309,0.013622,0.017897,-0.06136,-0.00051963,0.022501
641,0.011648,0.013951,0.0024402,0.016253,0.017897,-0.046232,-0.015648,0.0077021
642,0.0054,-0.014003,-0.004466,0.020199,0.014279,-0.033406,-0.027158,-0.0077547
643,-0.00019077,-0.040641,-0.012359,0.017897,0.0077021,-0.026829,-0.028473,-0.020909
644,-0.010057,-0.066293,-0.01795,0.0080309,-0.0011774,-0.028144,-0.024527,-0.025185
645,-0.018278,-0.086025,-0.022225,-0.00051963,-0.0074258,-0.031104,-0.023869,-0.0265
646,-0.022225,-0.09622,-0.021567,-0.0011774,-0.011043,-0.033406,-0.032091,-0.025514
647,-0.01795,-0.095233,-0.016305,0.0060577,-0.0057815,-0.029789,-0.045903,-0.021238
648,-0.0047949,-0.082079,-0.0077547,0.014937,0.0047422,-0.016963,-0.054125,-0.016305
649,0.0054,-0.062347,0.00046697,0.021186,0.015266,0.0054,-0.054125,-0.017621
650,0.0093464,-0.040641,0.0057288,0.023817,0.021186,0.036314,-0.048534,-0.022554
651,0.0083598,-0.023211,0.0086887,0.024474,0.023817,0.06361,-0.036695,-0.026829
652,0.0080309,-0.016634,0.012964,0.026447,0.028421,0.079066,-0.023211,-0.028144
653,0.013951,-0.021896,0.015595,0.032367,0.038944,0.081697,-0.015648,-0.027487
654,0.022501,-0.032749,0.018555,0.037629,0.054401,0.077093,-0.017292,-0.0265
655,0.033683,-0.038997,0.021186,0.039602,0.068214,0.071502,-0.022883,-0.029789
656,0.046508,-0.033406,0.020528,0.036971,0.072489,0.070187,-0.027487,-0.037353
657,0.059334,-0.022554,0.017568,0.036642,0.065912,0.075778,-0.031762,-0.047877
658,0.069858,-0.010057,0.017239,0.042891,0.054072,0.084328,-0.032091,-0.057743
659,0.073147,0.00046697,0.01987,0.05177,0.041575,0.08959,-0.025514,-0.067937
660,0.070187,0.0060577,0.020528,0.059334,0.032696,0.089261,-0.015319,-0.077146
661,0.066898,0.0093464,0.019212,0.06361,0.029078,0.081039,-0.0008485,-0.079777
662,0.06361,0.013622,0.01691,0.069858,0.027763,0.067885,0.016581,-0.075173
663,0.057361,0.023817,0.015924,0.077093,0.026119,0.057361,0.030723,-0.068266
664,0.054072,0.035327,0.016581,0.078409,0.024145,0.053086,0.0373,-0.066951
665,0.055388,0.039273,0.01691,0.071173,0.022501,0.053415,0.0373,-0.074515
666,0.05769,0.033025,0.017897,0.062623,0.024145,0.054401,0.032367,-0.079119
667,0.054072,0.020528,0.021843,0.055388,0.029736,0.049468,0.029407,-0.073857
668,0.042562,0.0054,0.027763,0.050126,0.032696,0.04026,0.028092,-0.057414
669,0.031052,-0.0067681,0.031052,0.043877,0.024803,0.031381,0.031709,-0.041957
670,0.02875,-0.014332,0.028092,0.041247,0.0096753,0.024803,0.038944,-0.034064
671,0.037958,-0.021567,0.017239,0.042233,-0.004466,0.020857,0.049468,-0.036366
672,0.056374,-0.031433,-0.0008485,0.041575,-0.013017,0.018226,0.059005,-0.042944
673,0.074791,-0.037353,-0.015319,0.04026,-0.015319,0.011648,0.058676,-0.047548
674,0.088603,-0.039326,-0.018936,0.038287,-0.011701,0.0017824,0.04881,-0.049192
675,0.091563,-0.033735,-0.011701,0.035656,-0.0064392,-0.007097,0.031709,-0.04985
676,0.08663,-0.021238,0.002769,0.031381,-0.0041372,-0.014661,0.017239,-0.047219
677,0.079066,-0.0018351,0.018226,0.031709,-0.0047949,-0.019265,0.012964,-0.042286
678,0.068543,0.020857,0.030394,0.037629,-0.0034794,-0.017621,0.018884,-0.036366
679,0.055717,0.041575,0.037958,0.045851,-0.00051963,-0.010715,0.030065,-0.027487
680,0.04026,0.055388,0.041904,0.048482,0.00079584,-0.0024928,0.039602,-0.015976
681,0.023488,0.061636,0.039931,0.046837,0.0011247,0.0017824,0.045851,-0.0015062
682,0.0093464,0.058676,0.034998,0.04322,-0.0008485,-0.0018351,0.05177,0.017568
683,-0.0015062,0.049139,0.030394,0.041575,0.0014536,-0.0093991,0.056703,0.042562
684,-0.0074258,0.037958,0.029078,0.039602,0.0021113,-0.016305,0.06065,0.073147
685,-0.0087413,0.028421,0.030723,0.035985,-0.0034794,-0.019265,0.064596,0.10505
686,-0.0067681,0.021514,0.033025,0.023817,-0.013674,-0.015319,0.068214,0.1307
687,-0.0028217,0.017568,0.033683,0.0083598,-0.020252,-0.0074258,0.069529,0.14583
688,0.0011247,0.014608,0.027763,-0.0074258,-0.021567,0.0014536,0.068214,0.14616
689,0.0021113,0.01132,0.016581,-0.020909,-0.019923,0.0060577,0.064925,0.13366
690,0.0024402,0.0054,0.0034268,-0.029131,-0.014332,0.0060577,0.062294,0.11524
691,0.0044134,-0.0024928,-0.004466,-0.030118,-0.0047949,0.0090175,0.068871,0.096496
692,0.0060577,-0.0041372,-0.0051238,-0.024198,0.0057288,0.016581,0.076435,0.085315
693,0.0077021,0.0021113,-0.0018351,-0.015319,0.0086887,0.025461,0.080711,0.085644
694,0.0090175,0.014937,0.0037556,-0.0061104,0.0047422,0.032367,0.080711,0.10077
695,0.0080309,0.023159,0.0090175,0.0073732,-0.0018351,0.032367,0.078409,0.12281
696,0.0050711,0.025132,0.012635,0.019212,-0.0024928,0.026776,0.075778,0.13728
697,-0.00019077,0.023488,0.013622,0.027763,0.0030979,0.021186,0.074133,0.14056
698,-0.0061104,0.020857,0.012306,0.033354,0.011648,0.012306,0.07216,0.13234
699,-0.010386,0.019212,0.011977,0.04026,0.019212,0.0040845,0.073804,0.1159
700,-0.0093991,0.015924,0.015266,0.049139,0.023159,-0.00019077,0.081039,0.099127
701,-0.007097,0.018555,0.023159,0.058019,0.021843,0.0024402,0.091234,0.091563
702,-0.0028217,0.032038,0.036314,0.067227,0.020528,0.012306,0.10077,0.088932
703,0.0037556,0.05177,0.052428,0.073476,0.026776,0.029078,0.10669,0.088932
704,0.012306,0.069858,0.064267,0.075778,0.041575,0.050126,0.10834,0.086959
705,0.018226,0.084328,0.067227,0.071831,0.057361,0.073147,0.1057,0.082684
706,0.017239,0.092221,0.063281,0.064596,0.06624,0.09551,0.098798,0.077422
707,0.011648,0.094194,0.056374,0.06065,0.064267,0.1136,0.090905,0.068543
708,0.0047422,0.092221,0.053086,0.064267,0.058019,0.12116,0.083999,0.057032
709,-0.002164,0.092879,0.052757,0.073804,0.052757,0.11426,0.07512,0.044864
710,-0.01203,0.10176,0.054072,0.079724,0.050126,0.098798,0.063281,0.03434
711,-0.024856,0.12182,0.055059,0.077093,0.046508,0.083342,0.048482,0.021843
712,-0.037353,0.14977,0.055717,0.068214,0.038944,0.072818,0.03434,0.010004
713,-0.042615,0.17378,0.056703,0.058676,0.028092,0.066569,0.026119,0.0001381
714,-0.04097,0.18365,0.057032,0.048482,0.023817,0.062952,0.024145,-0.010057
715,-0.038997,0.17411,0.054401,0.040589,0.029078,0.061965,0.029078,-0.021896
716,-0.039326,0.14484,0.046508,0.036642,0.039931,0.063281,0.041247,-0.03538
717,-0.039984,0.10603,0.030065,0.030723,0.052757,0.062952,0.053415,-0.044588
718,-0.036366,0.072489,0.010991,0.01987,0.062294,0.058676,0.065583,-0.044259
719,-0.022883,0.05177,-0.007097,0.0037556,0.064925,0.049797,0.068871,-0.036037
720,-0.0067681,0.047166,-0.022883,-0.018278,0.063281,0.032696,0.060321,-0.030775
721,0.0017824,0.049468,-0.036695,-0.042286,0.061307,0.011648,0.035656,-0.028802
722,0.0001381,0.056046,-0.042615,-0.062018,0.05473,-0.0090702,0.0044134,-0.028473
723,-0.014332,0.060321,-0.039655,-0.073857,0.043877,-0.026829,-0.021896,-0.028473
724,-0.040641,0.058019,-0.029789,-0.077475,0.033683,-0.037024,-0.031104,-0.029789
725,-0.062676,0.052757,-0.0097279,-0.07024,0.030065,-0.036695,-0.019594,-0.027158
726,-0.077146,0.053743,0.022172,-0.046232,0.034998,-0.025842,0.0017824,-0.019265
727,-0.08175,0.059992,0.061307,-0.0077547,0.045193,-0.0097279,0.02283,-0.014332
728,-0.085039,0.06065,0.10077,0.03434,0.057032,0.0073732,0.0373,-0.020581
729,-0.092603,0.05177,0.13695,0.070845,0.062952,0.021514,0.042891,-0.035708
730,-0.10839,0.035656,0.16128,0.09255,0.058348,0.033025,0.039931,-0.053467
731,-0.12713,0.017897,0.16523,0.096825,0.047824,0.040918,0.028092,-0.069582
732,-0.13667,-0.002164,0.14484,0.083342,0.033683,0.043549,0.010991,-0.079119
733,-0.13536,-0.026829,0.10242,0.06065,0.022172,0.039273,-0.0041372,-0.080106
734,-0.12549,-0.049192,0.05473,0.037958,0.014608,0.030394,-0.013017,-0.074844
735,-0.11266,-0.062676,0.014279,0.018884,0.010004,0.017568,-0.015976,-0.06432
736,-0.090958,-0.059387,-0.010386,0.0060577,0.0073732,0.0050711,-0.022225,-0.055112
737,-0.062676,-0.041299,-0.016634,0.0014536,0.0054,-0.00019077,-0.036366,-0.054783
738,-0.033735,-0.016963,-0.012359,0.0034268,0.0030979,0.0014536,-0.053796,-0.063004
739,-0.0087413,-0.0015062,-0.0034794,0.0063866,0.00079584,0.0044134,-0.067937,-0.07287
740,0.0096753,0.002769,0.0024402,0.0060577,0.0030979,0.0011247,-0.073528,-0.085039
741,0.028092,0.0017824,0.00079584,0.0021113,0.0080309,-0.0054526,-0.073528,-0.099838
742,0.047824,0.00079584,-0.007097,-0.0038083,0.010662,-0.0074258,-0.070897,-0.11497
743,0.071831,-0.0008485,-0.017621,-0.0097279,0.010004,-0.0031506,-0.068924,-0.12713
744,0.096167,-0.0057815,-0.024856,-0.011701,0.0040845,0.0096753,-0.065964,-0.13404
745,0.11294,-0.015976,-0.028473,-0.010715,-0.00051963,0.026447,-0.059716,-0.13733
746,0.11721,-0.03538,-0.030118,-0.0051238,-0.0011774,0.041575,-0.047548,-0.13634
747,0.11393,-0.062018,-0.028144,0.0080309,0.0001381,0.04881,-0.034064,-0.13174
748,0.10603,-0.084052,-0.022554,0.023488,0.0047422,0.043549,-0.021567,-0.12845
749,0.098141,-0.094576,-0.016305,0.037629,0.012635,0.032038,-0.010057,-0.12384
750,0.098798,-0.094576,-0.0090702,0.047824,0.019212,0.020199,-0.0008485,-0.11661
751,0.10965,-0.080106,-0.002164,0.052099,0.026119,0.014279,0.0060577,-0.10872
752,0.12609,-0.042615,0.0080309,0.051113,0.030723,0.018226,0.013951,-0.10082
753,0.14747,0.028421,0.023817,0.047495,0.029078,0.029078,0.022501,-0.095891
754,0.17312,0.12445,0.043549,0.047166,0.021843,0.045522,0.029407,-0.091945
755,0.19713,0.22443,0.058676,0.049468,0.013951,0.061307,0.036314,-0.087998
756,0.21061,0.30302,0.064267,0.05177,0.0096753,0.072818,0.041575,-0.081421
757,0.2116,0.33525,0.059663,0.048482,0.0080309,0.072489,0.043549,-0.073199
758,0.20108,0.31684,0.046508,0.040918,0.0083598,0.061636,0.042233,-0.066951
759,0.182,0.256,0.030065,0.027434,0.0040845,0.042562,0.035327,-0.062676
760,0.16293,0.17904,0.011648,0.011648,-0.0031506,0.025461,0.026776,-0.0584
761,0.15306,0.11031,-0.0028217,0.0001381,-0.011043,0.013293,0.019541,-0.048534
762,0.15142,0.061636,-0.0093991,-0.0051238,-0.011701,0.0054,0.014937,-0.033078
763,0.15273,0.032367,-0.011043,-0.0038083,-0.0061104,-0.00019077,0.013951,-0.015648
764,0.15471,0.018884,-0.010386,0.0057288,0.0011247,-0.0018351,0.020199,-0.00051963
765,0.15569,0.01691,-0.0080836,0.020199,0.0067154,0.0030979,0.031709,0.010004
766,0.15043,0.018555,-0.0031506,0.035985,0.0050711,0.013951,0.044864,0.016581
767,0.13629,0.024474,0.0037556,0.050784,-0.0024928,0.02875,0.059663,0.019541
768,0.11393,0.031381,0.012964,0.060979,-0.0084125,0.039931,0.071831,0.018884
769,0.090248,0.034669,0.020528,0.06361,-0.0087413,0.046837,0.078737,0.016253
770,0.070187,0.03434,0.026776,0.058348,-0.0047949,0.049139,0.082026,0.015595
771,0.055717,0.031709,0.029736,0.052428,-0.0034794,0.04618,0.082026,0.022172
772,0.04618,0.031052,0.029736,0.045193,-0.011701,0.03434,0.076435,0.030723
773,0.041247,0.033354,0.027105,0.035656,-0.024527,0.013622,0.062294,0.036314
774,0.04026,0.037958,0.021186,0.023817,-0.03538,-0.014003,0.044535,0.039602
775,0.037958,0.047166,0.012306,0.015924,-0.041957,-0.044259,0.027434,0.041904
776,0.030723,0.052757,0.0067154,0.014608,-0.042944,-0.069582,0.013293,0.044864
777,0.020528,0.053415,0.0040845,0.021186,-0.039984,-0.085367,0.0054,0.049797
778,0.0067154,0.043877,0.0014536,0.030394,-0.034722,-0.090958,0.0034268,0.056703
779,-0.0061104,0.017568,-0.007097,0.033354,-0.028473,-0.089972,0.0044134,0.061965
780,-0.017292,-0.027158,-0.020909,0.029078,-0.023211,-0.087669,0.0054,0.070516
781,-0.026171,-0.075501,-0.033735,0.020199,-0.018936,-0.087669,0.0070443,0.082026
782,-0.02946,-0.10839,-0.041299,0.012306,-0.017621,-0.091287,0.013293,0.094852
783,-0.026829,-0.11266,-0.038997,0.0093464,-0.022883,-0.093918,0.022172,0.10834
784,-0.017621,-0.093589,-0.026829,0.013951,-0.030118,-0.095233,0.030723,0.12116
785,-0.0074258,-0.059058,-0.010057,0.022501,-0.037682,-0.093918,0.0373,0.133
786,0.00046697,-0.022883,0.0021113,0.031709,-0.04097,-0.089972,0.043877,0.14089
787,-0.00051963,0.0021113,0.0070443,0.036314,-0.039655,-0.086354,0.048153,0.1432
788,-0.0093991,0.0067154,0.0050711,0.041904,-0.033078,-0.08175,0.054072,0.13563
789,-0.025185,-0.0054526,0.0011247,0.052757,-0.023211,-0.074844,0.06361,0.12281
790,-0.041299,-0.022225,-0.0024928,0.06065,-0.013674,-0.069253,0.074133,0.11261
791,-0.051165,-0.031104,-0.0018351,0.057361,-0.007097,-0.066951,0.081697,0.10768
792,-0.048534,-0.027816,0.0024402,0.04618,-0.0051238,-0.065635,0.082684,0.10603
793,-0.036695,-0.01795,0.0090175,0.028092,-0.0047949,-0.065635,0.081039,0.10702
794,-0.019923,-0.0067681,0.017897,0.014608,-0.0011774,-0.060702,0.082026,0.11228
795,-0.0054526,0.0037556,0.025461,0.012635,0.0037556,-0.052481,0.087617,0.1182
796,0.0044134,0.0083598,0.030723,0.020199,0.0063866,-0.041628,0.09551,0.1205
797,0.012306,0.011648,0.030723,0.027763,0.0047422,-0.031433,0.10176,0.11458
798,0.017897,0.021514,0.026447,0.031381,-0.0008485,-0.022883,0.098141,0.10373
799,0.023159,0.046508,0.017897,0.029078,-0.0057815,-0.015976,0.085644,0.085972
800,0.029078,0.085972,0.01132,0.025132,-0.002164,-0.0093991,0.067227,0.062952
801,0.035327,0.12708,0.010662,0.019541,0.0080309,-0.0011774,0.051113,0.038616
802,0.036971,0.15175,0.015924,0.016253,0.017239,0.0057288,0.040918,0.01987
803,0.030394,0.15207,0.023817,0.016253,0.022501,0.0090175,0.033683,0.0090175
804,0.016253,0.13366,0.029078,0.017897,0.01987,0.012306,0.026119,0.0024402
805,-0.0015062,0.10834,0.03434,0.017239,0.013622,0.017239,0.018555,-0.0018351
806,-0.01499,0.083013,0.033354,0.016581,0.010004,0.01987,0.0093464,-0.0051238
807,-0.019923,0.063938,0.027434,0.020857,0.011648,0.021514,0.0011247,-0.0087413
808,-0.015976,0.050126,0.017897,0.029407,0.018555,0.02579,-0.0057815,-0.012359
809,-0.0093991,0.041247,0.0090175,0.035985,0.02579,0.034011,-0.011372,-0.01795
810,-0.0041372,0.033354,0.0044134,0.035327,0.027434,0.040589,-0.01499,-0.022554
811,-0.0008485,0.027105,0.0050711,0.028421,0.02579,0.045851,-0.016634,-0.025842
812,0.0001381,0.01987,0.0080309,0.020199,0.023817,0.044535,-0.017621,-0.028802
813,-0.0018351,0.010004,0.013622,0.011977,0.019541,0.040918,-0.016634,-0.033078
814,0.00046697,-0.010386,0.019212,0.0070443,0.017239,0.0373,-0.015976,-0.038668
815,0.012635,-0.042944,0.023159,0.0070443,0.020528,0.036642,-0.014003,-0.04393
816,0.036314,-0.089972,0.022501,0.013622,0.023817,0.040589,-0.0077547,-0.048863
817,0.065912,-0.137,0.022172,0.022501,0.027763,0.051441,0.002769,-0.04985
818,0.09255,-0.16857,0.021843,0.032696,0.036314,0.063938,0.016253,-0.048534
819,0.10932,-0.16989,0.021186,0.037629,0.047824,0.075778,0.026776,-0.046561
820,0.11689,-0.13568,0.019541,0.035656,0.053743,0.081697,0.030394,-0.050179
821,0.11426,-0.077146,0.016253,0.033025,0.051441,0.081697,0.02579,-0.063004
822,0.10373,-0.011701,0.013293,0.032696,0.044206,0.080053,0.012635,-0.081092
823,0.089261,0.041247,0.0090175,0.034669,0.035327,0.077751,-0.0038083,-0.098193
824,0.074462,0.071173,0.0030979,0.034998,0.028421,0.072489,-0.019594,-0.11135
825,0.059663,0.07808,-0.0034794,0.035656,0.023817,0.067227,-0.032749,-0.11957
826,0.043877,0.070187,-0.0093991,0.040918,0.018884,0.064267,-0.038997,-0.1222
827,0.032038,0.058676,-0.011043,0.048153,0.014937,0.065583,-0.037682,-0.11694
828,0.022501,0.050784,-0.0097279,0.052757,0.017239,0.0692,-0.031104,-0.10806
829,0.013622,0.049468,-0.0097279,0.050784,0.028092,0.074462,-0.020581,-0.098522
830,0.0047422,0.052757,-0.010386,0.047824,0.041247,0.079395,-0.0067681,-0.090629
831,-0.0008485,0.059005,-0.0087413,0.050784,0.052099,0.088932,0.0057288,-0.084052
832,-0.0024928,0.065912,-0.0031506,0.06065,0.058019,0.10505,0.015266,-0.078461
833,0.0021113,0.06624,0.0050711,0.074791,0.057361,0.12741,0.022172,-0.07583
834,0.0073732,0.061307,0.016253,0.087617,0.050455,0.15043,0.028092,-0.076488
835,0.010991,0.048153,0.026119,0.096496,0.039602,0.16852,0.032696,-0.079777
836,0.013293,0.027763,0.034669,0.098469,0.034669,0.17641,0.029078,-0.08175
837,0.012306,0.0047422,0.039931,0.093208,0.041904,0.17115,0.019212,-0.082079
838,0.0090175,-0.011372,0.043549,0.08367,0.056374,0.15865,0.0070443,-0.080106
839,0.0047422,-0.01203,0.048153,0.065912,0.064925,0.1432,-0.0028217,-0.073199
840,0.0050711,0.0030979,0.053086,0.047166,0.064267,0.13103,-0.0061104,-0.062676
841,0.010004,0.026776,0.058348,0.036642,0.056703,0.1284,-0.0034794,-0.048863
842,0.016581,0.048482,0.060321,0.033683,0.050455,0.12971,0.0047422,-0.034064
843,0.019541,0.062623,0.057032,0.03434,0.045851,0.12708,0.012306,-0.020252
844,0.016581,0.068214,0.050455,0.035656,0.045851,0.11162,0.014279,-0.0087413
845,0.0083598,0.066898,0.041575,0.040918,0.049797,0.083999,0.012306,0.0011247
846,-0.0057815,0.063281,0.034669,0.048482,0.05769,0.053743,0.0093464,0.013293
847,-0.021896,0.059005,0.028092,0.055717,0.068871,0.025461,0.0057288,0.027434
848,-0.035051,0.052428,0.021843,0.05769,0.075449,-0.00019077,0.002769,0.041904
849,-0.042944,0.046508,0.014937,0.053415,0.076435,-0.021567,0.0024402,0.052757
850,-0.041299,0.039602,0.010662,0.044535,0.069858,-0.035708,0.0070443,0.056703
851,-0.033406,0.032696,0.0057288,0.035985,0.055717,-0.042944,0.013293,0.056046
852,-0.025842,0.026776,-0.0008485,0.027763,0.039602,-0.044917,0.017239,0.053086
853,-0.019594,0.024803,-0.0028217,0.020528,0.026119,-0.044259,0.02283,0.050455
854,-0.015976,0.024803,0.0001381,0.01691,0.016581,-0.043272,0.029078,0.048482
855,-0.012688,0.024474,0.0073732,0.013951,0.0077021,-0.04393,0.033025,0.049139
856,-0.0051238,0.024474,0.015924,0.011648,-0.002164,-0.049521,0.033354,0.05177
857,0.0063866,0.020528,0.021514,0.0093464,-0.013674,-0.057414,0.029407,0.056046
858,0.016253,0.016581,0.020528,0.0080309,-0.023869,-0.065635,0.020199,0.061307
859,0.023159,0.018884,0.017239,0.011648,-0.025185,-0.069582,0.0073732,0.067885
860,0.024145,0.027105,0.015924,0.013951,-0.019265,-0.073857,-0.0018351,0.074133
861,0.013293,0.039602,0.019541,0.012964,-0.0051238,-0.080763,0.0021113,0.082026
862,-0.0074258,0.048153,0.027105,0.0083598,0.0096753,-0.0903,0.019212,0.097154
863,-0.030775,0.049139,0.036314,0.0044134,0.017568,-0.10017,0.042562,0.11787
864,-0.053467,0.037629,0.047495,0.002769,0.015924,-0.10576,0.062294,0.13662
865,-0.070897,0.013951,0.055059,0.002769,0.0011247,-0.10674,0.0692,0.14681
866,-0.080106,-0.016963,0.052757,0.0040845,-0.020252,-0.10346,0.067885,0.14221
867,-0.080763,-0.047877,0.040918,0.0093464,-0.038339,-0.09622,0.070187,0.12873
868,-0.073199,-0.06728,0.025132,0.016253,-0.044917,-0.085367,0.081368,0.11721
869,-0.059058,-0.064649,0.012635,0.021186,-0.037682,-0.069582,0.096167,0.11294
870,-0.04097,-0.043601,0.0070443,0.021843,-0.016963,-0.054125,0.10373,0.10899
871,-0.026171,-0.017292,0.0067154,0.021843,0.01132,-0.041299,0.097483,0.099127
872,-0.019594,0.0030979,0.0047422,0.020857,0.035985,-0.034722,0.080711,0.087288
873,-0.01795,0.011977,-0.0034794,0.015924,0.044535,-0.033406,0.064267,0.076764
874,-0.019265,0.0086887,-0.012359,0.0050711,0.035985,-0.033406,0.054072,0.072489
875,-0.020909,0.002769,-0.014003,-0.01203,0.020857,-0.031762,0.053743,0.070187
876,-0.022554,0.0021113,-0.0034794,-0.03242,0.0057288,-0.027816,0.052757,0.067885
877,-0.024527,0.0063866,0.017568,-0.050179,-0.0031506,-0.021567,0.047495,0.062623
878,-0.025842,0.01691,0.040918,-0.060045,-0.0031506,-0.013017,0.033025,0.060979
879,-0.028802,0.030065,0.060321,-0.059058,0.0001381,-0.0034794,0.017897,0.06065
880,-0.030775,0.04322,0.07512,-0.047548,0.0050711,0.0096753,0.0093464,0.056703
881,-0.028802,0.056703,0.080053,-0.027158,0.014608,0.030065,0.011648,0.048153
882,-0.021896,0.064596,0.074791,-0.0047949,0.032038,0.05473,0.01987,0.037629
883,-0.014661,0.059005,0.06065,0.013293,0.056046,0.070845,0.026776,0.023159
884,-0.0051238,0.041575,0.041575,0.025461,0.077093,0.07512,0.024474,0.0030979
885,0.0063866,0.020528,0.023488,0.029736,0.083999,0.073147,0.021186,-0.013674
886,0.01691,0.0086887,0.010662,0.028092,0.073804,0.067885,0.023817,-0.018607
887,0.021186,0.01132,0.0047422,0.024803,0.050784,0.064925,0.030394,-0.012688
888,0.016581,0.030394,0.0054,0.020528,0.025461,0.059992,0.037958,0.0001381
889,0.0086887,0.057361,0.0093464,0.014608,0.0067154,0.047495,0.042562,0.012964
890,-0.0011774,0.082355,0.013951,0.010333,-0.007097,0.029078,0.039273,0.02283
891,-0.0051238,0.093865,0.017568,0.0034268,-0.013345,0.0093464,0.025461,0.028421
892,0.002769,0.088275,0.018226,-0.002164,-0.011701,-0.004466,0.0054,0.031709
893,0.023817,0.068214,0.016253,-0.0064392,-0.0015062,-0.011043,-0.011701,0.030065
894,0.05177,0.04618,0.015266,-0.0031506,0.01691,-0.014003,-0.020581,0.027434
895,0.077751,0.029407,0.015924,0.0054,0.0373,-0.013017,-0.022225,0.020528
896,0.095181,0.028092,0.013622,0.017239,0.046837,-0.011701,-0.021238,0.0090175
897,0.1034,0.041575,0.010662,0.031709,0.042233,-0.011043,-0.024527,-0.0087413
898,0.10274,0.061307,0.0060577,0.046837,0.027434,-0.010057,-0.03242,-0.028802
899,0.09551,0.076764,0.0030979,0.059334,0.0090175,-0.0047949,-0.042286,-0.048534
900,0.082684,0.083999,0.0054,0.064267,-0.0047949,0.0083598,-0.051494,-0.068266
901,0.072489,0.079066,0.014937,0.061965,-0.0054526,0.029078,-0.054783,-0.085696
902,0.070516,0.064267,0.029078,0.050455,0.0060577,0.053415,-0.05281,-0.10181
903,0.081697,0.044535,0.044864,0.035985,0.01987,0.079066,-0.048863,-0.11694
904,0.1011,0.027763,0.057032,0.024803,0.028092,0.10307,-0.044588,-0.13141
905,0.12182,0.021514,0.061636,0.020857,0.032367,0.12215,-0.038668,-0.14621
906,0.13662,0.029078,0.054401,0.023817,0.033354,0.13892,-0.029789,-0.16331
907,0.14089,0.041575,0.039931,0.031052,0.031052,0.15076,-0.019594,-0.17646
908,0.13563,0.053086,0.028092,0.039273,0.024803,0.15734,-0.007097,-0.18436
909,0.12511,0.05769,0.021514,0.044535,0.017568,0.15865,0.0077021,-0.18633
910,0.11689,0.057361,0.019541,0.044864,0.015266,0.15602,0.025461,-0.18403
911,0.11393,0.052099,0.021514,0.043549,0.019212,0.15734,0.04322,-0.18041
912,0.11623,0.046837,0.024145,0.040918,0.026119,0.16194,0.058348,-0.17482
913,0.1205,0.042233,0.027434,0.042891,0.029736,0.16293,0.068871,-0.1689
914,0.1182,0.040918,0.031709,0.050455,0.029407,0.15799,0.074462,-0.16265
915,0.10834,0.042233,0.036642,0.058019,0.025132,0.14484,0.074462,-0.1541
916,0.09551,0.043877,0.039273,0.065912,0.018226,0.12741,0.068214,-0.14358
917,0.082684,0.042891,0.036314,0.070187,0.0077021,0.10636,0.059005,-0.12944
918,0.067885,0.040589,0.030723,0.073476,-0.0041372,0.07808,0.053086,-0.11661
919,0.052428,0.039931,0.025461,0.077751,-0.015976,0.050126,0.052428,-0.1051
920,0.040918,0.041575,0.018884,0.082026,-0.025842,0.027105,0.053086,-0.093918
921,0.033025,0.044535,0.013293,0.085644,-0.032749,0.010991,0.056703,-0.07879
922,0.032367,0.050126,0.010004,0.084657,-0.038011,-0.0024928,0.060979,-0.060702
923,0.036314,0.062623,0.0083598,0.079066,-0.04097,-0.017621,0.060979,-0.040641
924,0.041247,0.08367,0.0086887,0.068214,-0.041628,-0.031104,0.053415,-0.019594
925,0.039273,0.11097,0.015266,0.056374,-0.037682,-0.038011,0.04322,0.00046697
926,0.028421,0.13629,0.026447,0.04881,-0.028473,-0.033406,0.035656,0.021186
927,0.010333,0.14879,0.035985,0.049797,-0.016634,-0.019923,0.030394,0.040589
928,-0.007097,0.14451,0.042562,0.059334,-0.0061104,-0.0077547,0.031052,0.054072
929,-0.017621,0.12544,0.045193,0.072489,0.0044134,-0.0054526,0.03434,0.057032
930,-0.018607,0.097483,0.042891,0.082026,0.013293,-0.016634,0.035656,0.049468
931,-0.013345,0.069529,0.038287,0.083342,0.01691,-0.030775,0.032038,0.037629
932,-0.0090702,0.052757,0.031052,0.079395,0.015266,-0.036366,0.025132,0.031381
933,-0.0084125,0.045522,0.021843,0.068871,0.013622,-0.034722,0.01987,0.031709
934,-0.0051238,0.041904,0.012635,0.058676,0.014279,-0.030775,0.021843,0.036971
935,0.0021113,0.036642,0.0050711,0.048153,0.019212,-0.025514,0.030723,0.044535
936,0.0077021,0.032038,-0.00019077,0.042562,0.028421,-0.01795,0.045522,0.050126
937,0.002769,0.02875,-0.002164,0.044864,0.036971,-0.013017,0.060321,0.051441
938,-0.0090702,0.026119,-0.0008485,0.053415,0.04618,-0.01203,0.070516,0.046508
939,-0.021567,0.021514,0.0034268,0.061965,0.052428,-0.013674,0.074791,0.036971
940,-0.031104,0.011977,0.0063866,0.06361,0.057361,-0.015976,0.072489,0.029078
941,-0.039984,-0.0024928,0.010333,0.058348,0.062623,-0.020909,0.067227,0.024145
942,-0.046561,-0.01499,0.013293,0.051441,0.068214,-0.02946,0.061636,0.027763
943,-0.049192,-0.024856,0.013622,0.042562,0.07216,-0.044917,0.061307,0.040589
944,-0.045574,-0.028473,0.012306,0.032696,0.069529,-0.063004,0.066898,0.058348
945,-0.038339,-0.024856,0.012306,0.023159,0.058019,-0.078132,0.078409,0.075449
946,-0.030118,-0.013017,0.016581,0.020528,0.040589,-0.084381,0.084657,0.090248
947,-0.024198,0.00079584,0.024474,0.025461,0.025461,-0.082408,0.079066,0.099456
948,-0.021567,0.011977,0.030065,0.036642,0.015595,-0.075501,0.06624,0.1011
949,-0.019923,0.01132,0.029078,0.047824,0.0086887,-0.066622,0.049797,0.095181
950,-0.013017,-0.0034794,0.021186,0.057032,0.0037556,-0.061031,0.033683,0.081368
951,-0.002164,-0.031104,0.01132,0.067227,0.0037556,-0.059058,0.018226,0.065254
952,0.013951,-0.06432,0.00079584,0.081368,0.0080309,-0.062347,0.0070443,0.053415
953,0.032696,-0.089972,-0.0074258,0.094194,0.018226,-0.066293,0.0044134,0.049797
954,0.050126,-0.10346,-0.0087413,0.095181,0.033354,-0.065964,0.010662,0.058348
955,0.06624,-0.10641,-0.0031506,0.080382,0.049139,-0.059716,0.023817,0.074791
956,0.077422,-0.10346,0.0057288,0.058676,0.061307,-0.050507,0.036314,0.096825
957,0.083342,-0.098522,0.015266,0.038944,0.065254,-0.041628,0.041247,0.11393
958,0.084328,-0.094905,0.021843,0.02283,0.059663,-0.036037,0.041575,0.12478
959,0.083999,-0.094247,0.022172,0.0030979,0.047166,-0.034393,0.041575,0.12774
960,0.084657,-0.093918,0.016253,-0.026171,0.029078,-0.036695,0.042891,0.12379
961,0.086959,-0.084381,0.0086887,-0.065307,0.014608,-0.038011,0.044206,0.11195
962,0.086301,-0.060045,0.0057288,-0.10214,0.0040845,-0.036366,0.044535,0.096496
963,0.081039,-0.019265,0.010991,-0.12615,-0.0074258,-0.034722,0.045851,0.082684
964,0.069529,0.026447,0.020857,-0.1268,-0.018936,-0.034722,0.04618,0.071173
965,0.050126,0.064596,0.030065,-0.1051,-0.028144,-0.030775,0.04618,0.059663
966,0.026447,0.09255,0.035656,-0.068266,-0.031104,-0.020581,0.04618,0.048153
967,-0.00019077,0.11524,0.0373,-0.029789,-0.030447,-0.0061104,0.047166,0.039602
968,-0.022883,0.12577,0.037958,-0.0051238,-0.025185,0.0067154,0.050455,0.033025
969,-0.036366,0.12609,0.036314,0.002769,-0.019265,0.01691,0.050455,0.024145
970,-0.045246,0.11787,0.035656,0.0014536,-0.014332,0.024474,0.04322,0.014279
971,-0.053467,0.10044,0.037629,-0.00051963,-0.01203,0.033354,0.02875,0.0044134
972,-0.066951,0.069858,0.039273,-0.0011774,-0.014003,0.045851,0.013622,-0.0054526
973,-0.078132,0.026119,0.037629,0.0011247,-0.015976,0.059334,0.0011247,-0.016634
974,-0.077475,-0.019265,0.034669,0.0060577,-0.016634,0.067885,-0.0077547,-0.02946
975,-0.057414,-0.054125,0.033683,0.014608,-0.013017,0.068543,-0.014661,-0.041299
976,-0.018607,-0.066622,0.034669,0.025132,-0.011043,0.065254,-0.018936,-0.049521
977,0.033025,-0.056427,0.034669,0.035327,-0.0077547,0.062294,-0.02354,-0.056427
978,0.084986,-0.027158,0.032038,0.043549,-0.0064392,0.06624,-0.023869,-0.063662
979,0.12313,0.010333,0.027763,0.047824,-0.0077547,0.079724,-0.020581,-0.069582
980,0.14089,0.043549,0.024803,0.041575,-0.010057,0.10044,-0.015319,-0.081092
981,0.13859,0.066898,0.025461,0.023817,-0.0090702,0.12017,-0.011701,-0.095233
982,0.12116,0.076435,0.027105,0.00079584,-0.0024928,0.1307,-0.015648,-0.11233
983,0.097812,0.072818,0.024474,-0.020252,0.0083598,0.13004,-0.027158,-0.12549
984,0.077422,0.062623,0.015924,-0.031762,0.018226,0.12149,-0.043601,-0.13272
985,0.059663,0.050126,0.0040845,-0.033406,0.021514,0.10932,-0.052481,-0.13272
986,0.045522,0.036642,-0.004466,-0.02946,0.018884,0.098141,-0.046561,-0.12779
987,0.038616,0.030394,-0.0064392,-0.025842,0.011648,0.091234,-0.027158,-0.11825
988,0.04026,0.031709,-0.002164,-0.020581,0.0037556,0.085972,-0.0038083,-0.10477
989,0.04618,0.039931,0.0044134,-0.016305,-0.00019077,0.084328,0.014608,-0.091945
990,0.050784,0.048482,0.011977,-0.014661,0.0040845,0.089919,0.031052,-0.077475
991,0.05177,0.055388,0.018555,-0.012359,0.010662,0.10242,0.046508,-0.067937
992,0.046837,0.058019,0.020199,-0.0051238,0.015266,0.1182,0.060979,-0.065964
993,0.036642,0.055388,0.014937,0.010333,0.015266,0.13201,0.071831,-0.071226
994,0.027105,0.049797,0.0054,0.027105,0.013951,0.13925,0.077422,-0.081421
995,0.016581,0.041247,-0.0057815,0.034669,0.013293,0.14089,0.081368,-0.094905
996,0.0037556,0.031052,-0.01795,0.029407,0.016253,0.13662,0.084657,-0.1074
997,-0.0051238,0.021186,-0.026171,0.014937,0.02579,0.12938,0.093208,-0.11595
998,-0.0038083,0.011977,-0.028473,0.0011247,0.040918,0.12609,0.10834,-0.11793
999,0.002769,0.0093464,-0.022225,-0.0051238,0.052099,0.12609,0.12116,-0.11562
1000,0.0080309,0.012306,-0.011043,0.0017824,0.055059,0.12511,0.12412,-0.10773
1001,0.0086887,0.017239,-0.0008485,0.014937,0.050784,0.12083,0.11656,-0.094576
1002,0.0044134,0.021514,0.0054,0.026776,0.047166,0.10834,0.10373,-0.078132
1003,0.00046697,0.02283,0.0047422,0.030394,0.052757,0.090905,0.093536,-0.059387
1004,-0.00051963,0.02283,0.0014536,0.030394,0.062952,0.072489,0.085644,-0.042615
1005,0.0017824,0.025461,-0.0015062,0.029736,0.07216,0.056046,0.078409,-0.030775
1006,0.0077021,0.032038,-0.002164,0.02579,0.077422,0.044864,0.071831,-0.020252
1007,0.013293,0.044206,-0.0024928,0.01987,0.079395,0.039273,0.065254,-0.012359
1008,0.015924,0.057361,-0.0028217,0.014279,0.07512,0.038616,0.057032,-0.010386
1009,0.013293,0.067227,-0.0011774,0.0044134,0.065912,0.034669,0.049139,-0.0090702
1010,0.0044134,0.067885,-0.0008485,-0.010715,0.052757,0.021514,0.038616,-0.0067681
1011,-0.0087413,0.059663,-0.002164,-0.027816,0.041575,0.0040845,0.01987,0.0014536
1012,-0.018607,0.046508,-0.0090702,-0.041299,0.032367,-0.01203,-0.0038083,0.018555
1013,-0.024527,0.034669,-0.014661,-0.045574,0.022172,-0.020909,-0.026829,0.0373
1014,-0.030118,0.027434,-0.018278,-0.036695,0.0083598,-0.021567,-0.042615,0.05473
1015,-0.033406,0.026119,-0.021238,-0.02354,-0.002164,-0.019265,-0.054125,0.071502
1016,-0.03242,0.028092,-0.023211,-0.0084125,-0.0061104,-0.019594,-0.063004,0.087288
1017,-0.024198,0.032038,-0.021896,0.0070443,-0.0015062,-0.0265,-0.076159,0.10307
1018,-0.011372,0.036642,-0.01795,0.023817,0.0080309,-0.036695,-0.094905,0.11689
1019,0.0034268,0.044206,-0.007097,0.035985,0.019212,-0.04689,-0.11398,0.12544
1020,0.017897,0.056374,0.0093464,0.041247,0.029078,-0.053796,-0.1268,0.12609
1021,0.03434,0.071173,0.025461,0.04618,0.033683,-0.055769,-0.12746,0.12544
1022,0.054401,0.081039,0.037958,0.060321,0.032367,-0.057743,-0.1176,0.12544
1023,0.073804,0.080382,0.04618,0.086301,0.02579,-0.06136,-0.098522,0.12445
1024,0.084657,0.068214,0.051113,0.11721,0.014937,-0.063991,-0.074186,0.11985
1025,0.08367,0.049468,0.054401,0.14385,0.0040845,-0.066951,-0.04985,0.1136
1026,0.072489,0.030394,0.055717,0.15997,-0.0038083,-0.067609,-0.028473,0.11261
1027,0.054401,0.012964,0.057361,0.1626,-0.0074258,-0.066951,-0.01203,0.11491
1028,0.02875,-0.00019077,0.059334,0.15536,-0.0067681,-0.06728,0.00079584,0.1159
1029,0.00046697,-0.012688,0.06065,0.14451,-0.0074258,-0.068266,0.010662,0.10834
1030,-0.024856,-0.026829,0.060321,0.13826,-0.010386,-0.070897,0.013622,0.099127
1031,-0.042944,-0.043601,0.059334,0.13826,-0.014661,-0.074844,0.0080309,0.08959
1032,-0.054783,-0.059058,0.055717,0.14385,-0.016963,-0.079448,-0.0015062,0.085972
1033,-0.054783,-0.069582,0.050126,0.14451,-0.014661,-0.08471,-0.0057815,0.087617
1034,-0.044259,-0.076159,0.042891,0.13234,-0.0097279,-0.088327,-0.0015062,0.090248
1035,-0.031433,-0.079777,0.036314,0.11064,-0.0080836,-0.093918,0.012635,0.087288
1036,-0.018278,-0.080106,0.029736,0.087617,-0.0084125,-0.1005,0.031052,0.081368
1037,-0.010715,-0.075501,0.025461,0.069858,-0.007097,-0.10543,0.052428,0.075778
1038,-0.011043,-0.066951,0.01987,0.057361,-0.0031506,-0.11036,0.07216,0.068871
1039,-0.014332,-0.05544,0.013951,0.049468,-0.0015062,-0.11727,0.086959,0.058676
1040,-0.014003,-0.039984,0.0080309,0.041575,-0.0024928,-0.12121,0.096825,0.044206
1041,-0.010057,-0.024856,0.0037556,0.034998,-0.0080836,-0.11661,0.099127,0.028092
1042,-0.0008485,-0.013674,0.0017824,0.031381,-0.013017,-0.10313,0.093536,0.018884
1043,0.0063866,-0.007097,0.0037556,0.026776,-0.016634,-0.088985,0.083999,0.021186
1044,0.0077021,-0.0024928,0.010991,0.015266,-0.017621,-0.082079,0.075778,0.031709
1045,0.0070443,0.0001381,0.018884,0.0024402,-0.016963,-0.081421,0.072818,0.044864
1046,0.0086887,0.0014536,0.023159,-0.0034794,-0.014332,-0.079448,0.078409,0.054401
1047,0.011648,0.0030979,0.026119,0.002769,-0.0064392,-0.070897,0.090905,0.058019
1048,0.013293,0.0017824,0.029736,0.01132,0.0024402,-0.058729,0.10077,0.055388
1049,0.010004,-0.0011774,0.034011,0.021186,0.0086887,-0.044917,0.10307,0.044535
1050,0.0050711,-0.0087413,0.035656,0.030723,0.01132,-0.033735,0.098798,0.032038
1051,0.0054,-0.019923,0.034011,0.036642,0.012964,-0.026171,0.096167,0.020528
1052,0.015595,-0.030118,0.028421,0.038944,0.016253,-0.019923,0.097154,0.010004
1053,0.030394,-0.034393,0.021514,0.0373,0.025132,-0.0074258,0.10077,-0.004466
1054,0.042562,-0.0265,0.014937,0.033683,0.0373,0.0080309,0.10044,-0.020581
1055,0.049468,-0.0038083,0.013622,0.026776,0.043549,0.018884,0.097483,-0.038997
1056,0.054401,0.029078,0.018226,0.016581,0.038616,0.024145,0.086301,-0.056098
1057,0.056703,0.059334,0.02579,0.0050711,0.026776,0.025132,0.065912,-0.071884
1058,0.058019,0.079395,0.033025,-0.0047949,0.016253,0.029078,0.043549,-0.086354
1059,0.05769,0.08367,0.0373,-0.0080836,0.011648,0.038287,0.023488,-0.10148
1060,0.056374,0.073147,0.037629,-0.0024928,0.012964,0.057032,0.0080309,-0.11661
1061,0.054072,0.053086,0.033683,0.0073732,0.018555,0.077751,-0.0011774,-0.13141
1062,0.052757,0.031709,0.029736,0.014937,0.024474,0.096496,-0.0074258,-0.14818
1063,0.05473,0.018555,0.027434,0.016581,0.030394,0.11261,-0.011701,-0.1689
1064,0.05473,0.016253,0.025461,0.0093464,0.037629,0.12675,-0.013674,-0.19028
1065,0.048153,0.023488,0.021514,-0.0015062,0.040589,0.13892,-0.014332,-0.20475
1066,0.033025,0.035327,0.018884,-0.012688,0.034669,0.14912,-0.014003,-0.20968
1067,0.01132,0.045851,0.020199,-0.018607,0.024474,0.15767,-0.014661,-0.20606
1068,-0.007097,0.055388,0.02283,-0.015648,0.017239,0.16457,-0.015976,-0.19554
1069,-0.012688,0.059992,0.026447,-0.0028217,0.010333,0.16687,-0.016634,-0.17942
1070,-0.0031506,0.064596,0.028421,0.013951,0.0017824,0.16227,-0.016305,-0.1564
1071,0.013622,0.073804,0.027105,0.028092,-0.0080836,0.15668,-0.016634,-0.13042
1072,0.029736,0.091563,0.02579,0.032038,-0.010057,0.15405,-0.018607,-0.1051
1073,0.042562,0.10932,0.026447,0.027434,-0.0024928,0.15471,-0.018936,-0.089314
1074,0.047824,0.12017,0.031381,0.020528,0.0057288,0.15701,-0.015648,-0.087012
1075,0.049468,0.1205,0.038616,0.016253,0.0093464,0.15865,-0.013017,-0.095233
1076,0.053086,0.11393,0.044864,0.017897,0.0080309,0.15471,-0.016305,-0.10872
1077,0.055717,0.10044,0.046508,0.02579,-0.0008485,0.14451,-0.02354,-0.12089
1078,0.055388,0.077422,0.040918,0.032696,-0.01499,0.13103,-0.031762,-0.12845
1079,0.050126,0.046837,0.027105,0.03434,-0.027158,0.11656,-0.038339,-0.13108
1080,0.044206,0.017897,0.0050711,0.029407,-0.03242,0.10274,-0.041628,-0.12615
1081,0.036971,0.0090175,-0.01795,0.017897,-0.034064,0.094194,-0.038997,-0.11727
1082,0.030065,0.027105,-0.033078,0.0083598,-0.027158,0.091892,-0.030447,-0.10839
1083,0.027434,0.063938,-0.041628,0.010004,-0.011043,0.093865,-0.01795,-0.10082
1084,0.032038,0.10768,-0.04097,0.02579,0.012306,0.098141,-0.0031506,-0.091287
1085,0.038287,0.1432,-0.03242,0.04881,0.039931,0.10538,0.012964,-0.076817
1086,0.041575,0.16095,-0.017621,0.071502,0.063281,0.1159,0.025461,-0.057414
1087,0.036642,0.15536,0.0001381,0.087946,0.077751,0.12642,0.033683,-0.037353
1088,0.022501,0.12708,0.019541,0.096167,0.078737,0.13267,0.033354,-0.021896
1089,-0.0028217,0.088932,0.038616,0.094523,0.067885,0.13103,0.020857,-0.013674
1090,-0.035708,0.04881,0.051113,0.081368,0.047824,0.12149,0.0034268,-0.010715
1091,-0.064978,0.013293,0.053743,0.056703,0.023488,0.10603,-0.013017,-0.0084125
1092,-0.081092,-0.013017,0.048153,0.027434,0.0030979,0.08959,-0.026171,0.0017824
1093,-0.073199,-0.021567,0.039273,0.0030979,-0.0067681,0.075449,-0.034064,0.020199
1094,-0.040641,-0.0008485,0.030394,-0.011043,-0.0087413,0.063938,-0.037682,0.041575
1095,0.0080309,0.047495,0.022501,-0.016963,-0.0064392,0.05177,-0.041299,0.061636
1096,0.054401,0.10538,0.015924,-0.01795,-0.0054526,0.034998,-0.047219,0.079395
1097,0.08367,0.1501,0.0090175,-0.017292,-0.0067681,0.013951,-0.057414,0.094194
1098,0.093208,0.16391,0.0034268,-0.017292,-0.0093991,-0.0067681,-0.065307,0.10406
1099,0.084328,0.14517,-0.002164,-0.01203,-0.0067681,-0.025842,-0.063004,0.11656
1100,0.064925,0.097812,-0.0077547,-0.0034794,-0.00019077,-0.043601,-0.050179,0.13826
1101,0.046508,0.039602,-0.0097279,0.0044134,0.0077021,-0.059058,-0.027816,0.16918
1102,0.035985,-0.011701,-0.0087413,0.0093464,0.0096753,-0.073857,-0.0024928,0.20371
1103,0.03434,-0.045246,-0.0061104,0.0080309,0.0054,-0.091616,0.018555,0.23363
1104,0.034998,-0.059058,-0.0047949,-0.0008485,-0.0008485,-0.11266,0.031709,0.25501
1105,0.031709,-0.056098,-0.0031506,-0.010715,-0.0064392,-0.13141,0.039602,0.26225
1106,0.023817,-0.043601,-0.0008485,-0.01795,-0.0084125,-0.14358,0.042891,0.25698
1107,0.014279,-0.028473,0.00079584,-0.019594,-0.0057815,-0.14818,0.045522,0.24284
1108,0.0060577,-0.015648,0.0021113,-0.013674,0.0030979,-0.14522,0.051113,0.22574
1109,0.002769,-0.0067681,-0.00019077,-0.0031506,0.014279,-0.13371,0.063281,0.20831
1110,0.0017824,-0.0008485,-0.0054526,0.0057288,0.023159,-0.11825,0.078737,0.1945
1111,0.0014536,0.0067154,-0.01203,0.0093464,0.022501,-0.10148,0.090905,0.18463
1112,-0.0008485,0.016253,-0.01499,0.011648,0.017239,-0.086683,0.094523,0.17904
1113,-0.0031506,0.029078,-0.012688,0.015595,0.0090175,-0.075501,0.093865,0.17641
1114,-0.0034794,0.04322,-0.002164,0.023488,0.0044134,-0.071555,0.096496,0.17707
1115,-0.0018351,0.055388,0.0096753,0.031052,0.002769,-0.076159,0.10209,0.18233
1116,0.00079584,0.062294,0.018555,0.035656,0.0050711,-0.086683,0.10932,0.18825
1117,0.0060577,0.062623,0.024803,0.035985,0.0086887,-0.097864,0.11787,0.18562
1118,0.011648,0.054401,0.028092,0.032367,0.012306,-0.10641,0.1284,0.17312
1119,0.018884,0.04026,0.025461,0.031709,0.016253,-0.10872,0.13497,0.15142
1120,0.030394,0.030065,0.01987,0.036314,0.01987,-0.10609,0.13728,0.12642
1121,0.047824,0.023817,0.016581,0.04618,0.024803,-0.10313,0.13695,0.10274
1122,0.06624,0.015595,0.014279,0.053743,0.02875,-0.099838,0.13037,0.080382
1123,0.081039,0.0093464,0.014937,0.055388,0.034669,-0.094576,0.11787,0.057361
1124,0.088275,0.0096753,0.017239,0.05473,0.042233,-0.082408,0.10209,0.0373
1125,0.089919,0.017897,0.022501,0.05769,0.044864,-0.06136,0.09255,0.022501
1126,0.081368,0.030394,0.031381,0.063938,0.042891,-0.035051,0.088603,0.013951
1127,0.059334,0.04322,0.041247,0.064596,0.037629,-0.010715,0.091563,0.0050711
1128,0.029736,0.049139,0.045193,0.060979,0.032367,0.0014536,0.099127,-0.004466
1129,0.0034268,0.049139,0.04026,0.054072,0.030065,0.002769,0.10834,-0.016963
1130,-0.012359,0.045193,0.026776,0.045193,0.034998,-0.004466,0.1182,-0.024856
1131,-0.013674,0.035985,0.0096753,0.036314,0.045193,-0.015976,0.12313,-0.023869
1132,-0.0090702,0.01987,-0.002164,0.031709,0.059992,-0.025842,0.12017,-0.01499
1133,-0.0097279,-0.0038083,-0.00019077,0.030065,0.075449,-0.028144,0.10834,-0.0041372
1134,-0.013345,-0.032091,0.016253,0.030394,0.08663,-0.019265,0.093208,0.0011247
1135,-0.014003,-0.053796,0.039273,0.031381,0.088932,-0.0047949,0.077422,-0.00019077
1136,-0.0093991,-0.059058,0.056046,0.032367,0.083342,0.0063866,0.061636,-0.0077547
1137,0.0030979,-0.042286,0.060979,0.033025,0.073804,0.013293,0.047166,-0.020581
1138,0.020199,-0.015319,0.055059,0.037629,0.062623,0.01987,0.031381,-0.039326
1139,0.035985,0.012306,0.044206,0.045851,0.050126,0.029736,0.014937,-0.059716
1140,0.050784,0.038287,0.039602,0.053415,0.034998,0.042562,-0.0008485,-0.083065
1141,0.059663,0.065912,0.044206,0.058019,0.013951,0.053086,-0.014003,-0.10411
1142,0.061307,0.097483,0.052428,0.058019,-0.0087413,0.058348,-0.029789,-0.12319
1143,0.055388,0.12642,0.056046,0.050784,-0.027487,0.056374,-0.052481,-0.13963
1144,0.041575,0.1478,0.052099,0.036971,-0.041299,0.050455,-0.079448,-0.15542
1145,0.01987,0.15405,0.043877,0.022501,-0.050179,0.041575,-0.10346,-0.17318
1146,-0.0047949,0.14846,0.03434,0.013622,-0.052152,0.038944,-0.11891,-0.1883
1147,-0.0265,0.13925,0.031709,0.015266,-0.041957,0.045193,-0.12582,-0.20244
1148,-0.038339,0.13629,0.037958,0.021843,-0.022554,0.061307,-0.12352,-0.21461
1149,-0.038668,0.14122,0.053086,0.027105,-0.0008485,0.084986,-0.11102,-0.22185
1150,-0.027816,0.14944,0.073804,0.030065,0.017239,0.11064,-0.092931,-0.22316
1151,-0.013345,0.15569,0.094852,0.030723,0.02875,0.13432,-0.074186,-0.22185
1152,0.00046697,0.15668,0.10801,0.030065,0.033683,0.15207,-0.058071,-0.22152
1153,0.010662,0.14648,0.10834,0.029407,0.034669,0.16391,-0.046232,-0.22251
1154,0.022501,0.1182,0.094523,0.030065,0.034998,0.17246,-0.038668,-0.22415
1155,0.034998,0.075449,0.071173,0.029736,0.036314,0.18496,-0.030775,-0.2281
1156,0.045193,0.033025,0.050455,0.028092,0.039602,0.19483,-0.02354,-0.23369
1157,0.050784,0.0067154,0.0373,0.02283,0.046508,0.1968,-0.018936,-0.23796
1158,0.059005,0.0067154,0.03434,0.016253,0.052099,0.18989,-0.020252,-0.23928
1159,0.073147,0.032367,0.036642,0.013622,0.055388,0.17871,-0.028473,-0.23303
1160,0.088932,0.070845,0.039602,0.021514,0.053086,0.1649,-0.042286,-0.2202
1161,0.10044,0.10472,0.039273,0.039273,0.047166,0.14912,-0.051494,-0.19948
1162,0.1011,0.12017,0.03434,0.058019,0.040918,0.13037,-0.052152,-0.17318
1163,0.092879,0.11458,0.026119,0.062952,0.036642,0.10702,-0.04689,-0.14456
1164,0.077093,0.095181,0.019541,0.046837,0.034669,0.082684,-0.042286,-0.11562
1165,0.06065,0.071831,0.016253,0.012306,0.030065,0.061636,-0.038339,-0.091945
1166,0.04322,0.048153,0.014608,-0.028144,0.024803,0.051441,-0.033406,-0.077803
1167,0.029736,0.028421,0.014608,-0.057414,0.02283,0.051113,-0.028144,-0.071884
1168,0.023817,0.013293,0.015266,-0.059058,0.028421,0.055717,-0.021238,-0.069582
1169,0.024145,0.0001381,0.012635,-0.037682,0.037958,0.064925,-0.014661,-0.065635
1170,0.026776,-0.013017,0.0070443,-0.0074258,0.044535,0.077751,-0.0093991,-0.053467
1171,0.033025,-0.023869,0.00046697,0.015924,0.046837,0.092879,-0.0054526,-0.036695
1172,0.037958,-0.033406,-0.0038083,0.026119,0.049797,0.10965,0.0001381,-0.022225
1173,0.040589,-0.042286,-0.0067681,0.027763,0.052428,0.12609,0.013951,-0.014332
1174,0.036971,-0.051494,-0.0093991,0.026776,0.050455,0.13695,0.037629,-0.0064392
1175,0.033354,-0.056427,-0.011701,0.031052,0.043877,0.1353,0.068214,0.0083598
1176,0.034998,-0.056098,-0.018278,0.039273,0.036642,0.12248,0.099127,0.025461
1177,0.04322,-0.04985,-0.026171,0.047166,0.036314,0.1011,0.12379,0.041575
1178,0.050126,-0.039984,-0.029131,0.051113,0.040918,0.082026,0.13958,0.054401
1179,0.048482,-0.031433,-0.024856,0.050126,0.04881,0.067885,0.14944,0.065254
1180,0.039931,-0.025185,-0.013345,0.048153,0.056703,0.053086,0.15536,0.081368
1181,0.029736,-0.025185,-0.0034794,0.04881,0.06065,0.035656,0.15898,0.10406
1182,0.02283,-0.026171,0.0044134,0.050784,0.059005,0.015266,0.15964,0.13234
1183,0.020857,-0.027487,0.0093464,0.051441,0.049468,-0.010057,0.15832,0.16194
1184,0.026776,-0.028144,0.013293,0.053743,0.037629,-0.042286,0.15668,0.18759
1185,0.03434,-0.027158,0.018884,0.05769,0.027105,-0.082408,0.15865,0.20765
1186,0.04026,-0.024856,0.027434,0.061965,0.018555,-0.12023,0.1626,0.22212
1187,0.043877,-0.019594,0.032038,0.064267,0.010991,-0.14588,0.16622,0.23035
1188,0.044864,-0.011372,0.032038,0.061965,0.0054,-0.15673,0.1672,0.23199
1189,0.043877,-0.0061104,0.029078,0.056046,0.0011247,-0.15377,0.16359,0.22837
1190,0.042891,-0.0061104,0.028092,0.048482,-0.00019077,-0.14127,0.15635,0.22114
1191,0.035985,-0.013674,0.027763,0.04026,0.00046697,-0.12582,0.14681,0.21292
1192,0.021514,-0.02354,0.026776,0.030723,0.0030979,-0.11595,0.13366,0.20469
1193,0.0057288,-0.032091,0.023817,0.022501,0.0021113,-0.1176,0.12182,0.19417
1194,-0.0090702,-0.037353,0.018226,0.015266,-0.0028217,-0.13338,0.11721,0.18661
1195,-0.016634,-0.038997,0.013293,0.010004,-0.0057815,-0.15476,0.12116,0.18989
1196,-0.018607,-0.040313,0.011977,0.0044134,-0.0061104,-0.17449,0.13004,0.20108
1197,-0.018278,-0.040641,0.015266,-0.0011774,-0.0074258,-0.18501,0.13366,0.21555
1198,-0.013674,-0.040313,0.018884,-0.0038083,-0.012688,-0.18271,0.13103,0.22936
1199,-0.0051238,-0.038668,0.021843,0.0011247,-0.01795,-0.17153,0.12083,0.23396
1200,0.0024402,-0.037353,0.023488,0.0083598,-0.016963,-0.1564,0.1057,0.22903
1201,0.0077021,-0.035708,0.023817,0.016581,-0.0057815,-0.14193,0.087946,0.21489
1202,0.010004,-0.033078,0.020857,0.023817,0.0086887,-0.12944,0.069529,0.19812
1203,0.0096753,-0.028144,0.013293,0.027434,0.020528,-0.11562,0.052757,0.18003
1204,0.0054,-0.021238,-0.00051963,0.030394,0.024145,-0.10378,0.037629,0.16227
1205,-0.0038083,-0.015648,-0.017292,0.035327,0.018226,-0.095891,0.024145,0.14484
1206,-0.011701,-0.0084125,-0.027816,0.039273,0.0054,-0.093918,0.014937,0.12642
1207,-0.013017,0.0014536,-0.029789,0.039273,-0.0093991,-0.092603,0.010004,0.10801
1208,-0.0057815,0.010333,-0.025514,0.038944,-0.017621,-0.085367,0.012635,0.086301
1209,0.0034268,0.01987,-0.018936,0.043549,-0.017621,-0.068266,0.019212,0.0692
1210,0.010662,0.029736,-0.016634,0.052099,-0.014332,-0.047877,0.029407,0.056046
1211,0.016581,0.040918,-0.018936,0.062294,-0.0084125,-0.029131,0.045851,0.041904
1212,0.023488,0.048153,-0.022225,0.065912,-0.0008485,-0.011043,0.05769,0.027434
1213,0.031709,0.049468,-0.023869,0.062952,0.0024402,0.0017824,0.061636,0.010662
1214,0.038616,0.046837,-0.021567,0.057361,0.0017824,0.010991,0.053086,-0.0061104
1215,0.041575,0.038944,-0.013017,0.053415,0.0011247,0.017568,0.034669,-0.022883
1216,0.03434,0.027763,-0.002164,0.054401,0.0060577,0.026447,0.012964,-0.038339
1217,0.021514,0.020528,0.0060577,0.06065,0.018884,0.037629,-0.0061104,-0.053138
1218,0.011977,0.023488,0.011977,0.066898,0.030065,0.054072,-0.020909,-0.069582
1219,0.0080309,0.029078,0.015595,0.067885,0.030723,0.074133,-0.035708,-0.087012
1220,0.0093464,0.032696,0.018884,0.066569,0.018555,0.097812,-0.053138,-0.1074
1221,0.013951,0.031709,0.02283,0.068871,0.0067154,0.1205,-0.069911,-0.1347
1222,0.017568,0.030065,0.02875,0.074791,0.0011247,0.14056,-0.086354,-0.16726
1223,0.017568,0.031381,0.034669,0.077093,0.0021113,0.15898,-0.10247,-0.19718
1224,0.017239,0.036314,0.037629,0.074791,0.0057288,0.17806,-0.11957,-0.2179
1225,0.017568,0.038944,0.03434,0.067556,0.011977,0.19549,-0.13536,-0.22744
1226,0.021514,0.042562,0.020199,0.056374,0.018555,0.20864,-0.1518,-0.23073
1227,0.027434,0.044535,0.00079584,0.042233,0.021843,0.21193,-0.17054,-0.23434
1228,0.031709,0.046837,-0.018607,0.027763,0.022172,0.20436,-0.1906,-0.24125
1229,0.030394,0.054401,-0.031762,0.013293,0.017568,0.18989,-0.20639,-0.24816
1230,0.024474,0.068871,-0.032749,0.0030979,0.0067154,0.1774,-0.20771,-0.25177
1231,0.017897,0.091234,-0.022554,0.00079584,-0.0041372,0.17082,-0.19652,-0.24947
1232,0.014937,0.12478,-0.004466,0.0037556,-0.010386,0.17279,-0.18008,-0.24125
1233,0.014937,0.16589,0.014937,0.0030979,-0.01203,0.18003,-0.16561,-0.22941
1234,0.011648,0.20305,0.027105,-0.0018351,-0.014003,0.18332,-0.15936,-0.21691
1235,0.0047422,0.22015,0.030394,-0.0097279,-0.016963,0.17477,-0.15903,-0.21067
1236,-0.004466,0.207,0.022501,-0.015319,-0.019265,0.15405,-0.15673,-0.21198
1237,-0.013345,0.16227,0.0060577,-0.018936,-0.024527,0.12675,-0.14687,-0.21231
1238,-0.021567,0.094194,-0.013674,-0.01795,-0.032091,0.10242,-0.13174,-0.20442
1239,-0.0265,0.022172,-0.027158,-0.013017,-0.034393,0.086301,-0.11365,-0.18469
1240,-0.024527,-0.034064,-0.029131,-0.007097,-0.02946,0.082355,-0.09622,-0.16002
1241,-0.015648,-0.066951,-0.021238,-0.0008485,-0.017621,0.080711,-0.078461,-0.13667
1242,-0.0015062,-0.073199,-0.0051238,0.0040845,-0.0024928,0.077093,-0.058071,-0.11661
1243,0.010333,-0.058729,0.015266,0.0093464,0.010662,0.070845,-0.036366,-0.10082
1244,0.019212,-0.028473,0.035327,0.013622,0.016581,0.062294,-0.01795,-0.086683
1245,0.026119,0.0083598,0.052099,0.015595,0.015266,0.054072,-0.0057815,-0.070897
1246,0.029078,0.045851,0.065912,0.015924,0.013293,0.048482,0.0017824,-0.051823
1247,0.030065,0.073147,0.075449,0.016253,0.011648,0.041247,0.010662,-0.032091
1248,0.029736,0.086301,0.079724,0.016253,0.012635,0.032367,0.020199,-0.018936
1249,0.026776,0.084328,0.074791,0.015924,0.018226,0.025132,0.027763,-0.014003
1250,0.021186,0.068543,0.062623,0.015266,0.025461,0.020857,0.034998,-0.014661
1251,0.014279,0.045522,0.044206,0.013622,0.029078,0.01691,0.041575,-0.018936
1252,0.0096753,0.020857,0.026447,0.0096753,0.02579,0.010662,0.050455,-0.022225
1253,0.010991,0.00079584,0.015924,0.0054,0.015924,0.0011247,0.061307,-0.022225
1254,0.018555,-0.012359,0.0096753,0.0021113,0.0017824,-0.010715,0.065583,-0.015976
1255,0.027434,-0.020581,0.0077021,0.0014536,-0.010057,-0.020581,0.062623,-0.0051238
1256,0.03434,-0.023869,0.0050711,0.0001381,-0.013345,-0.028144,0.054072,0.011648
1257,0.036314,-0.02354,0.0034268,-0.0018351,-0.011701,-0.033406,0.049139,0.030065
1258,0.029407,-0.027816,0.0047422,-0.004466,-0.0080836,-0.037024,0.053743,0.047495
1259,0.019541,-0.034393,0.0070443,-0.0047949,-0.0061104,-0.041957,0.06624,0.065254
1260,0.0086887,-0.044588,0.0070443,-0.0011774,-0.0054526,-0.045903,0.080382,0.084986
1261,-0.00019077,-0.055112,0.0057288,0.0057288,-0.0047949,-0.049192,0.090248,0.10538
1262,-0.0061104,-0.058071,0.0037556,0.012306,-0.0031506,-0.052152,0.10077,0.12609
1263,-0.0067681,-0.056098,0.0054,0.016581,-0.010057,-0.061031,0.1113,0.1478
1264,-0.0038083,-0.051823,0.010991,0.016581,-0.022883,-0.074186,0.12116,0.16918
1265,0.0017824,-0.043601,0.018884,0.013293,-0.029131,-0.089643,0.12774,0.18562
1266,0.0070443,-0.030118,0.029078,0.010991,-0.021567,-0.10576,0.13136,0.19581
1267,0.010333,-0.014332,0.036971,0.0090175,-0.0080836,-0.11825,0.13267,0.19746
1268,0.012964,-0.0024928,0.038287,0.0096753,0.0030979,-0.12352,0.13201,0.19384
1269,0.015595,-0.0018351,0.034669,0.019212,0.0017824,-0.12253,0.13169,0.18661
1270,0.021843,-0.012359,0.030065,0.038616,-0.010057,-0.11891,0.13333,0.17937
1271,0.027105,-0.02946,0.026447,0.059992,-0.019594,-0.11497,0.13497,0.17279
1272,0.026447,-0.047548,0.022172,0.074133,-0.016634,-0.11562,0.1353,0.17181
1273,0.025461,-0.062018,0.015595,0.081039,0.0040845,-0.12023,0.13859,0.17707
1274,0.026776,-0.071226,0.0086887,0.080382,0.034998,-0.1268,0.14418,0.18957
1275,0.027434,-0.070897,0.0054,0.073804,0.061307,-0.13305,0.15175,0.20305
1276,0.024145,-0.063662,0.0093464,0.059663,0.073804,-0.137,0.15668,0.21061
1277,0.01987,-0.050507,0.016581,0.039602,0.07216,-0.13832,0.16063,0.21259
1278,0.013293,-0.036695,0.023817,0.021514,0.062623,-0.13667,0.16326,0.20798
1279,0.0040845,-0.023211,0.027434,0.011977,0.05473,-0.1347,0.1626,0.19779
1280,-0.0057815,-0.013345,0.027105,0.0093464,0.049468,-0.1393,0.15635,0.18233
1281,-0.013017,-0.0097279,0.023159,0.012635,0.044206,-0.15213,0.14681,0.16391
1282,-0.014661,-0.011372,0.017239,0.014937,0.038616,-0.16298,0.13826,0.14977
1283,-0.010057,-0.011701,0.014608,0.016581,0.03434,-0.16791,0.12642,0.13826
1284,-0.0038083,-0.0087413,0.013622,0.020528,0.029407,-0.16462,0.10998,0.12708
1285,-0.0015062,-0.0038083,0.012964,0.026776,0.02579,-0.15015,0.08959,0.11458
1286,-0.0038083,-0.00019077,0.012306,0.036971,0.02579,-0.13174,0.071831,0.10373
1287,-0.0057815,0.00046697,0.012964,0.043877,0.027763,-0.1074,0.055717,0.094852
1288,-0.0064392,-0.002164,0.014279,0.046508,0.026119,-0.085039,0.042233,0.084986
1289,-0.0018351,-0.0067681,0.015266,0.044535,0.021186,-0.072213,0.030394,0.07216
1290,0.0057288,-0.010057,0.016581,0.041575,0.014937,-0.063991,0.024474,0.056046
1291,0.013951,-0.0041372,0.018884,0.037958,0.012964,-0.054125,0.020857,0.042562
1292,0.021843,0.0096753,0.023488,0.03434,0.011648,-0.038011,0.023817,0.037629
1293,0.029078,0.030394,0.029407,0.031381,0.010333,-0.013674,0.029078,0.038944
1294,0.035985,0.053086,0.034669,0.030394,0.012635,0.017239,0.031052,0.039931
1295,0.04618,0.074791,0.038616,0.023488,0.013951,0.051113,0.026447,0.037629
1296,0.059005,0.087946,0.041575,0.014937,0.011648,0.083999,0.019541,0.030723
1297,0.070516,0.090905,0.042562,0.0093464,0.0077021,0.10932,0.014937,0.014937
1298,0.080053,0.085972,0.041904,0.0054,0.0030979,0.1307,0.012306,-0.011372
1299,0.091563,0.079066,0.039602,0.002769,0.0034268,0.15207,0.013293,-0.044588
1300,0.10274,0.07808,0.036971,0.0034268,0.010004,0.1774,0.012306,-0.07583
1301,0.10965,0.084328,0.034998,0.0080309,0.02283,0.20634,0.0050711,-0.1051
1302,0.10899,0.093536,0.037629,0.018884,0.039931,0.23594,-0.0087413,-0.13503
1303,0.10176,0.098798,0.046508,0.027763,0.053086,0.26257,-0.025842,-0.16824
1304,0.092221,0.098798,0.058348,0.032367,0.056046,0.28099,-0.041957,-0.2008
1305,0.086959,0.093536,0.067885,0.03434,0.051441,0.29053,-0.053796,-0.23434
1306,0.089919,0.083013,0.069529,0.03434,0.042562,0.29349,-0.062018,-0.26789
1307,0.09255,0.067227,0.061965,0.031709,0.032367,0.29382,-0.068266,-0.29486
1308,0.089919,0.046837,0.049468,0.026119,0.02283,0.29316,-0.077475,-0.31064
1309,0.079395,0.026447,0.034669,0.020199,0.013293,0.28855,-0.087669,-0.31656
1310,0.065912,0.01132,0.023159,0.014279,0.0073732,0.27737,-0.095891,-0.3113
1311,0.058019,0.010004,0.012964,0.012306,0.0070443,0.26126,-0.1005,-0.30242
1312,0.051113,0.023159,-0.00051963,0.010004,0.0073732,0.24613,-0.10477,-0.29453
1313,0.048482,0.047495,-0.014003,0.010991,0.0096753,0.23331,-0.10872,-0.28729
1314,0.050126,0.076106,-0.020252,0.014608,0.015595,0.21916,-0.10609,-0.27381
1315,0.057361,0.10143,-0.014003,0.013293,0.020528,0.20173,-0.095562,-0.25276
1316,0.063281,0.11985,0.0017824,0.0080309,0.020199,0.17674,-0.080763,-0.22415
1317,0.05769,0.12675,0.017239,0.0001381,0.015266,0.14846,-0.066293,-0.19258
1318,0.042562,0.12478,0.028421,-0.0051238,0.0080309,0.1205,-0.056098,-0.16068
1319,0.025461,0.1136,0.035656,-0.002164,0.0017824,0.094194,-0.045246,-0.13437
1320,0.012964,0.10209,0.043549,0.011648,-0.00051963,0.070187,-0.032091,-0.11727
1321,0.0060577,0.092879,0.054401,0.034011,0.0040845,0.049468,-0.016634,-0.10937
1322,0.0057288,0.084657,0.068214,0.051441,0.013293,0.034998,0.002769,-0.10148
1323,0.0067154,0.076764,0.074791,0.058019,0.021514,0.02875,0.01987,-0.089643
1324,0.0096753,0.062952,0.073147,0.056703,0.028092,0.028421,0.029736,-0.075173
1325,0.013293,0.039602,0.063281,0.050784,0.034998,0.031381,0.034011,-0.057414
1326,0.018555,0.0044134,0.044864,0.041575,0.040589,0.032038,0.035327,-0.038339
1327,0.024145,-0.041957,0.026447,0.029407,0.044206,0.031381,0.038287,-0.022225
1328,0.031381,-0.094905,0.014608,0.017897,0.044206,0.026776,0.039931,-0.0093991
1329,0.041575,-0.14226,0.010662,0.010004,0.047495,0.015924,0.0373,0.0044134
1330,0.055388,-0.16857,0.0083598,0.0073732,0.052099,-0.0061104,0.029407,0.021514
1331,0.071831,-0.16693,0.0057288,0.011648,0.056703,-0.031433,0.024474,0.040589
1332,0.083013,-0.13503,0.002769,0.018226,0.056374,-0.051494,0.026776,0.052428
1333,0.085972,-0.081421,-0.00051963,0.025132,0.051113,-0.065635,0.033025,0.05473
1334,0.076435,-0.016634,-0.0018351,0.031052,0.041247,-0.076159,0.042233,0.046837
1335,0.053415,0.043549,-0.0047949,0.034998,0.036971,-0.084052,0.05177,0.03434
1336,0.027105,0.08663,-0.007097,0.035985,0.037629,-0.086683,0.057032,0.024145
1337,0.0070443,0.10834,-0.007097,0.03434,0.039931,-0.084381,0.05769,0.024145
1338,-0.0041372,0.11557,-0.0018351,0.032367,0.039602,-0.079777,0.058348,0.038287
1339,-0.011372,0.11787,0.010991,0.033025,0.036642,-0.074515,0.064267,0.060321
1340,-0.019594,0.1159,0.029736,0.0373,0.034998,-0.069253,0.075449,0.082684
1341,-0.030775,0.10669,0.051113,0.044206,0.035985,-0.060373,0.09255,0.096825
1342,-0.038668,0.085972,0.071173,0.053415,0.046508,-0.048863,0.10866,0.1011
1343,-0.036366,0.056703,0.088275,0.065254,0.064267,-0.032749,0.12017,0.095181
1344,-0.027158,0.023817,0.097812,0.077751,0.081039,-0.013674,0.12379,0.084328
1345,-0.017292,-0.0067681,0.098798,0.087288,0.085972,0.0080309,0.12215,0.073804
1346,-0.0087413,-0.027487,0.08959,0.092879,0.080711,0.026447,0.11787,0.06361
1347,-0.0077547,-0.03538,0.071173,0.091234,0.074462,0.035327,0.11064,0.056703
1348,-0.0077547,-0.030775,0.046837,0.081368,0.074791,0.028421,0.10044,0.053743
1349,-0.0031506,-0.013345,0.021514,0.063281,0.080382,0.0096753,0.083013,0.054072
1350,0.0073732,0.012306,0.0014536,0.041575,0.080382,-0.013017,0.058676,0.059992
1351,0.015266,0.036971,-0.012688,0.01987,0.066898,-0.033735,0.031381,0.069529
1352,0.013622,0.049797,-0.021567,0.0014536,0.046508,-0.048205,0.0086887,0.082355
1353,-0.0008485,0.046508,-0.024856,-0.012688,0.031052,-0.053467,-0.00051963,0.094523
1354,-0.023869,0.026776,-0.017621,-0.016634,0.026447,-0.047548,0.0080309,0.10406
1355,-0.044917,-0.0024928,-0.0015062,-0.011701,0.030394,-0.037024,0.02875,0.10932
1356,-0.058071,-0.032749,0.017239,0.0047422,0.030065,-0.024527,0.052099,0.10899
1357,-0.058071,-0.060045,0.031052,0.030394,0.021186,-0.0093991,0.068214,0.10669
1358,-0.047548,-0.082079,0.037629,0.059005,0.0057288,0.0044134,0.071831,0.10176
1359,-0.034722,-0.095562,0.04026,0.077751,-0.0074258,0.015595,0.062952,0.093865
1360,-0.023869,-0.087012,0.044864,0.083013,-0.012688,0.022501,0.04881,0.080711
1361,-0.014003,-0.038668,0.05177,0.079395,-0.015648,0.020199,0.034998,0.065254
1362,-0.0028217,0.054072,0.057361,0.071831,-0.023211,0.0067154,0.020857,0.050455
1363,0.010662,0.17279,0.059005,0.06624,-0.036037,-0.012359,0.0083598,0.038287
1364,0.028092,0.28329,0.053086,0.056703,-0.049192,-0.02946,-0.0018351,0.026776
1365,0.044206,0.3494,0.039931,0.045522,-0.057085,-0.038997,-0.007097,0.018226
1366,0.055059,0.35268,0.023817,0.032038,-0.059716,-0.037682,-0.0057815,0.014279
1367,0.056374,0.29809,0.0083598,0.02283,-0.056756,-0.028802,0.0047422,0.018555
1368,0.047824,0.20765,-0.0074258,0.021843,-0.047877,-0.015976,0.020199,0.029736
1369,0.033354,0.10899,-0.020252,0.024474,-0.034722,-0.0057815,0.034669,0.045522
1370,0.016581,0.025132,-0.0265,0.024803,-0.025514,-0.0018351,0.038616,0.062623
1371,-0.0011774,-0.028144,-0.024856,0.02283,-0.023869,-0.0041372,0.036314,0.076435
1372,-0.017292,-0.041957,-0.017621,0.019541,-0.029131,-0.012359,0.030723,0.079724
1373,-0.02946,-0.025514,-0.0087413,0.01987,-0.035708,-0.020581,0.027434,0.070187
1374,-0.031433,0.0093464,-0.0031506,0.026119,-0.038997,-0.022225,0.02283,0.049468
1375,-0.024527,0.039931,0.0014536,0.036314,-0.033406,-0.014003,0.01132,0.025132
1376,-0.013674,0.061307,0.0037556,0.044864,-0.021567,-0.002164,-0.00051963,0.0077021
1377,-0.0064392,0.072489,0.0047422,0.04618,-0.0084125,0.0080309,-0.0051238,0.00079584
1378,-0.002164,0.070187,0.0011247,0.04026,0.002769,0.013293,-0.0008485,0.0060577
1379,-0.00019077,0.055388,-0.0034794,0.029736,0.0047422,0.015924,0.0040845,0.016581
1380,0.0011247,0.036642,-0.0067681,0.021514,-0.00051963,0.015266,0.0044134,0.024474
1381,0.0034268,0.019212,-0.0097279,0.016253,-0.011701,0.0096753,0.00079584,0.026776
1382,0.0067154,0.0086887,-0.012359,0.012306,-0.019265,0.0014536,-0.00051963,0.022501
1383,0.0060577,0.0057288,-0.015648,0.015266,-0.021896,-0.0084125,-0.0031506,0.013622
1384,0.0001381,0.0067154,-0.018936,0.019212,-0.020581,-0.01499,-0.0067681,0.0047422
1385,-0.0077547,0.011977,-0.021567,0.023159,-0.014003,-0.017621,-0.0080836,-0.0038083
1386,-0.013345,0.023159,-0.021567,0.026119,-0.0041372,-0.020252,-0.0038083,-0.01499
1387,-0.015976,0.036314,-0.019923,0.025461,0.0057288,-0.020909,0.0096753,-0.02354
1388,-0.01499,0.047495,-0.018607,0.023159,0.012306,-0.017292,0.027105,-0.024198
1389,-0.01203,0.059334,-0.019923,0.020199,0.017568,-0.011701,0.039602,-0.016634
1390,-0.0041372,0.071173,-0.025185,0.021843,0.020528,-0.0051238,0.045193,-0.0064392
1391,0.010662,0.080711,-0.030118,0.021186,0.020199,-0.00019077,0.042233,0.00046697
1392,0.025461,0.085972,-0.033406,0.015924,0.015924,0.0024402,0.033025,0.0017824
1393,0.034998,0.08663,-0.033078,0.011977,0.0070443,0.0070443,0.021186,-0.00051963
1394,0.036642,0.085644,-0.026171,0.0086887,-0.0057815,0.013622,0.011977,-0.0034794
1395,0.030394,0.08959,-0.019923,0.0050711,-0.014332,0.021186,0.0096753,-0.002164
1396,0.019212,0.096825,-0.012688,-0.002164,-0.0093991,0.027434,0.014937,0.0024402
1397,0.0093464,0.1034,-0.0074258,-0.0090702,0.0080309,0.032038,0.02579,0.0093464
1398,0.0057288,0.10801,-0.0018351,-0.012688,0.02579,0.035656,0.038616,0.018555
1399,0.0037556,0.11064,0.0050711,-0.0047949,0.036971,0.0373,0.051113,0.027434
1400,0.0017824,0.11031,0.014279,0.0093464,0.038944,0.037958,0.059005,0.03434
1401,0.00046697,0.10965,0.021843,0.016581,0.038944,0.036642,0.061307,0.039273
1402,0.0017824,0.1057,0.029736,0.013951,0.033683,0.03434,0.059005,0.040589
1403,0.0044134,0.097812,0.034998,0.0057288,0.021186,0.028092,0.055717,0.039273
1404,0.0057288,0.084328,0.034669,-0.0015062,0.0057288,0.020528,0.054401,0.039602
1405,0.01132,0.070845,0.024145,-0.0011774,-0.0054526,0.016253,0.056046,0.046508
1406,0.023488,0.058019,0.0044134,0.0080309,-0.0093991,0.017568,0.061965,0.058019
1407,0.040589,0.044864,-0.017621,0.020528,-0.0024928,0.023817,0.070187,0.070187
1408,0.056046,0.023159,-0.035051,0.031052,0.010333,0.029407,0.076106,0.073476
1409,0.066898,-0.0087413,-0.046232,0.037629,0.021843,0.033354,0.070845,0.067885
1410,0.071831,-0.043272,-0.047877,0.041904,0.026119,0.032038,0.053743,0.055717
1411,0.073147,-0.063991,-0.040641,0.047824,0.022501,0.026119,0.030065,0.044535
1412,0.072489,-0.063333,-0.027158,0.056703,0.015266,0.017568,0.010991,0.036642
1413,0.068871,-0.042615,-0.0064392,0.067885,0.0090175,0.0070443,0.0080309,0.03434
1414,0.060321,-0.0054526,0.021186,0.081697,0.010991,-0.0031506,0.020199,0.038944
1415,0.053415,0.045522,0.051113,0.093536,0.021186,-0.0077547,0.041904,0.046508
1416,0.04881,0.1011,0.078409,0.10044,0.032696,-0.002164,0.062952,0.051113
1417,0.057361,0.15372,0.097812,0.098798,0.042233,0.012964,0.076435,0.04881
1418,0.080053,0.18957,0.10702,0.09255,0.050455,0.032367,0.083013,0.041904
1419,0.11195,0.20173,0.10768,0.087946,0.055717,0.050126,0.088275,0.03434
1420,0.13958,0.18628,0.099456,0.082684,0.056703,0.062623,0.095181,0.027105
1421,0.14944,0.1455,0.087288,0.074462,0.051113,0.063281,0.099127,0.022172
1422,0.13432,0.089919,0.074791,0.065254,0.038287,0.053415,0.09551,0.01691
1423,0.097154,0.039273,0.064267,0.058676,0.019541,0.036971,0.080382,0.010991
1424,0.048153,0.012635,0.058348,0.056374,-0.0031506,0.016581,0.056046,0.002769
1425,0.00046697,0.012635,0.057032,0.056703,-0.024527,-0.0038083,0.027434,-0.0093991
1426,-0.033078,0.027105,0.056374,0.054401,-0.033078,-0.020581,-0.0008485,-0.026171
1427,-0.041628,0.044535,0.053743,0.045851,-0.028802,-0.032091,-0.022883,-0.045574
1428,-0.022883,0.055059,0.049468,0.033354,-0.015319,-0.034722,-0.031433,-0.060373
1429,0.014608,0.052099,0.040918,0.023817,0.0040845,-0.029131,-0.029789,-0.064978
1430,0.053086,0.031381,0.025461,0.017897,0.027105,-0.019594,-0.021238,-0.060373
1431,0.076435,-0.0077547,0.0073732,0.01132,0.044864,-0.0097279,-0.0097279,-0.05544
1432,0.082026,-0.058071,-0.0077547,-0.00019077,0.054072,0.00079584,0.0011247,-0.053796
1433,0.076106,-0.10378,-0.018278,-0.01203,0.052757,0.0093464,0.010333,-0.057085
1434,0.062952,-0.13207,-0.024856,-0.017292,0.044535,0.014608,0.015266,-0.057743
1435,0.045851,-0.13667,-0.027158,-0.011372,0.036971,0.017239,0.01691,-0.053138
1436,0.029407,-0.12023,-0.024856,0.0014536,0.035327,0.021186,0.016253,-0.046232
1437,0.01691,-0.091287,-0.01499,0.01691,0.039273,0.031052,0.017239,-0.044259
1438,0.010333,-0.057414,0.0024402,0.030065,0.04881,0.044864,0.023159,-0.048205
1439,0.010333,-0.029789,0.024474,0.039931,0.061636,0.056374,0.027763,-0.05544
1440,0.015266,-0.020581,0.049468,0.045522,0.070516,0.059334,0.033683,-0.060702
1441,0.017568,-0.028144,0.072818,0.049139,0.068543,0.053415,0.04026,-0.062018
1442,0.012964,-0.039984,0.09255,0.051113,0.057361,0.041904,0.042233,-0.059058
1443,0.0024402,-0.04393,0.1034,0.053743,0.043549,0.027105,0.034011,-0.055112
1444,-0.015319,-0.035051,0.10439,0.057032,0.026447,0.015595,0.018884,-0.047219
1445,-0.033735,-0.015648,0.095839,0.053086,0.0044134,0.0090175,-0.00019077,-0.039984
1446,-0.049521,0.0070443,0.085315,0.041904,-0.017621,0.0050711,-0.015976,-0.039984
1447,-0.055769,0.01987,0.076435,0.026119,-0.033406,0.0011247,-0.022225,-0.046561
1448,-0.048863,0.012635,0.068871,0.013293,-0.04097,-0.0038083,-0.019923,-0.056427
1449,-0.027487,-0.0080836,0.06065,0.0044134,-0.037353,-0.0090702,-0.011372,-0.066622
1450,0.0057288,-0.031762,0.050455,0.0001381,-0.027816,-0.012359,-0.0051238,-0.076488
1451,0.040918,-0.043272,0.036971,0.0014536,-0.015976,-0.013017,-0.0061104,-0.086683
1452,0.069858,-0.042286,0.021186,0.0054,-0.0024928,-0.011043,-0.013017,-0.09918
1453,0.085644,-0.035708,0.0073732,0.010333,0.01132,-0.0077547,-0.025842,-0.10674
1454,0.08959,-0.030118,-0.00051963,0.01132,0.023817,-0.0080836,-0.040641,-0.10839
1455,0.085644,-0.031104,-0.0034794,0.0063866,0.032367,-0.0087413,-0.053138,-0.10214
1456,0.07808,-0.034393,-0.002164,0.0040845,0.035327,-0.0064392,-0.057414,-0.088656
1457,0.067556,-0.033078,0.0021113,0.0044134,0.032696,0.0001381,-0.055112,-0.076159
1458,0.056703,-0.021896,0.0083598,0.0050711,0.026447,0.01691,-0.042286,-0.071555
1459,0.047495,-0.002164,0.015924,0.0096753,0.021186,0.036642,-0.029131,-0.074186
1460,0.044535,0.015266,0.024474,0.020199,0.017239,0.056046,-0.017292,-0.076817
1461,0.046837,0.026776,0.029736,0.032696,0.010991,0.070516,-0.010715,-0.075173
1462,0.052099,0.029407,0.031052,0.036314,0.0030979,0.076435,-0.0064392,-0.069253
1463,0.055388,0.020857,0.026776,0.030723,-0.0011774,0.073804,-0.002164,-0.057414
1464,0.055059,0.0034268,0.018226,0.020199,-0.0008485,0.065254,0.0011247,-0.041957
1465,0.052757,-0.01499,0.0073732,0.0086887,0.0063866,0.055388,0.0030979,-0.027487
1466,0.046508,-0.0265,-0.0011774,0.0001381,0.020199,0.046837,0.0077021,-0.020252
1467,0.0373,-0.028802,-0.0067681,-0.0084125,0.036642,0.042562,0.013951,-0.019594
1468,0.029078,-0.023869,-0.010386,-0.017292,0.049139,0.047495,0.019541,-0.024527
1469,0.024145,-0.015648,-0.0097279,-0.020909,0.050126,0.057032,0.023817,-0.031433
1470,0.017568,-0.0097279,-0.0031506,-0.016305,0.041904,0.067556,0.026776,-0.035051
1471,0.0090175,-0.0047949,0.0037556,-0.0061104,0.028092,0.076435,0.025461,-0.031762
1472,-0.0031506,0.0014536,0.010333,0.0040845,0.01987,0.079724,0.021514,-0.02354
1473,-0.010057,0.0086887,0.014608,0.01132,0.020199,0.079724,0.019541,-0.010386
1474,-0.0090702,0.013622,0.012635,0.015595,0.026119,0.075778,0.022172,0.0080309
1475,-0.0031506,0.017568,0.0063866,0.013293,0.031709,0.067227,0.025461,0.028421
1476,0.0001381,0.020528,-0.0011774,0.0086887,0.037958,0.055717,0.029078,0.042233
1477,-0.0018351,0.02283,-0.0061104,0.0021113,0.042891,0.042562,0.029407,0.046508
1478,-0.013017,0.024803,-0.010386,-0.0031506,0.039602,0.029736,0.02875,0.045193
1479,-0.029789,0.028421,-0.014003,-0.0034794,0.028092,0.02283,0.027434,0.039273
1480,-0.046232,0.030723,-0.01795,0.0021113,0.019212,0.020528,0.026447,0.030394
1481,-0.051823,0.029078,-0.020581,0.010662,0.018884,0.021186,0.031381,0.021186
1482,-0.04393,0.023817,-0.021567,0.019212,0.025132,0.023817,0.038287,0.013951
1483,-0.022883,0.020199,-0.018936,0.027105,0.034669,0.027105,0.042891,0.011977
1484,0.0057288,0.023817,-0.015648,0.034998,0.043549,0.029736,0.044206,0.013293
1485,0.034669,0.034669,-0.0093991,0.04322,0.050455,0.030394,0.044864,0.014608
1486,0.056703,0.050784,0.0014536,0.050784,0.053743,0.02875,0.04618,0.017897
1487,0.065912,0.068543,0.017239,0.05769,0.051113,0.024145,0.047166,0.024474
1488,0.067556,0.084986,0.031709,0.067885,0.041247,0.018226,0.04881,0.032367
1489,0.066569,0.10077,0.041247,0.079066,0.027434,0.010662,0.054401,0.038616
1490,0.061965,0.11064,0.043877,0.088603,0.013293,0.0057288,0.066898,0.04322
1491,0.056374,0.10998,0.044864,0.094194,0.0037556,0.0057288,0.084986,0.047495
1492,0.054072,0.098798,0.044206,0.09551,-0.0008485,0.0086887,0.10702,0.046508
1493,0.056703,0.077751,0.038944,0.093536,0.0014536,0.014279,0.12379,0.039931
1494,0.056374,0.051441,0.028421,0.09255,0.010004,0.021186,0.12905,0.030065
1495,0.049139,0.026119,0.012306,0.086959,0.020857,0.029407,0.12379,0.021843
1496,0.035985,0.0096753,-0.0031506,0.07808,0.030394,0.034998,0.11327,0.016253
1497,0.023488,0.0060577,-0.011043,0.067885,0.039602,0.035656,0.10505,0.012635
1498,0.017239,0.0070443,-0.0087413,0.058348,0.047824,0.027763,0.10307,0.010991
1499,0.023159,0.0086887,0.002769,0.051113,0.052099,0.020528,0.10669,0.010004
1500,0.039602,0.01132,0.014608,0.050455,0.048482,0.019212,0.11393,0.0096753
1501,0.058348,0.017897,0.028092,0.055059,0.035656,0.025132,0.11754,0.010004
1502,0.070845,0.02579,0.038944,0.055059,0.020857,0.038616,0.11294,0.0090175
1503,0.071173,0.027105,0.045851,0.04618,0.014937,0.05473,0.10077,0.0063866
1504,0.063938,0.015595,0.048153,0.03434,0.018555,0.067885,0.086959,0.0054
1505,0.051441,-0.010386,0.047495,0.02579,0.027105,0.076106,0.073147,0.0063866
1506,0.034011,-0.049192,0.04618,0.021186,0.034011,0.076106,0.059663,0.0090175
1507,0.0083598,-0.093589,0.039602,0.016253,0.035327,0.0692,0.043549,0.0086887
1508,-0.02354,-0.13009,0.031052,0.0047422,0.024145,0.053743,0.026776,0.0070443
1509,-0.056756,-0.14456,0.022172,-0.012359,0.0044134,0.031709,0.010333,0.0011247
1510,-0.081092,-0.13305,0.013622,-0.031433,-0.012688,0.0083598,-0.012688,-0.0064392
1511,-0.087341,-0.1005,0.0044134,-0.041628,-0.018278,-0.0097279,-0.036366,-0.016963
1512,-0.076817,-0.062018,0.0017824,-0.036037,-0.013674,-0.017292,-0.053467,-0.027816
1513,-0.057414,-0.028802,0.0060577,-0.015648,-0.0074258,-0.014332,-0.060373,-0.033735
1514,-0.038997,-0.010386,0.014608,0.010991,-0.0038083,-0.0047949,-0.059058,-0.036695
1515,-0.02946,-0.0064392,0.021514,0.035327,-0.0061104,0.0067154,-0.054125,-0.036366
1516,-0.028473,-0.014332,0.024145,0.054072,-0.012359,0.015924,-0.052152,-0.031762
1517,-0.034722,-0.023211,0.020528,0.068214,-0.015976,0.024145,-0.048534,-0.022883
1518,-0.04393,-0.024856,0.014937,0.079395,-0.015319,0.032696,-0.041299,-0.013674
1519,-0.048205,-0.015976,0.0096753,0.086301,-0.013017,0.039931,-0.029131,-0.012359
1520,-0.044259,-0.002164,0.0054,0.092221,-0.013674,0.043549,-0.01795,-0.017292
1521,-0.033078,0.0044134,-0.00051963,0.10077,-0.017621,0.038287,-0.012359,-0.024198
1522,-0.019594,-0.002164,-0.002164,0.11524,-0.024856,0.027434,-0.0084125,-0.028144
1523,-0.012359,-0.018936,0.00046697,0.13333,-0.032749,0.014937,-0.0031506,-0.030775
1524,-0.011372,-0.042615,0.0060577,0.14517,-0.040313,0.0054,0.0030979,-0.030775
1525,-0.0031506,-0.072213,0.0070443,0.14089,-0.047877,0.0024402,0.002769,-0.029131
1526,0.017568,-0.10444,0.0001381,0.11754,-0.054125,0.0024402,-0.0047949,-0.027158
1527,0.052428,-0.12878,-0.01499,0.083999,-0.060373,-0.00051963,-0.017292,-0.022225
1528,0.094523,-0.13404,-0.030118,0.049139,-0.065964,-0.011701,-0.034393,-0.017621
1529,0.13004,-0.11562,-0.040313,0.020199,-0.068595,-0.033406,-0.053138,-0.011701
1530,0.14385,-0.082079,-0.04393,-0.0034794,-0.069582,-0.062018,-0.071884,-0.0061104
1531,0.12905,-0.047877,-0.039326,-0.025185,-0.068595,-0.091616,-0.092931,-0.0008485
1532,0.094194,-0.023869,-0.028473,-0.04689,-0.066951,-0.11266,-0.11299,0.0070443
