,channel_1,channel_2,channel_3,channel_4,channel_5,channel_6,channel_7
0,0.073476,0.2583,0.080382,0.028421,-0.77698,-0.33465,0.01691
1,0.073804,0.24482,0.081368,0.044864,-0.92299,-0.54578,0.04026
2,0.062952,0.21357,0.078737,0.059334,-0.9789,-0.77895,0.055717
3,0.04322,0.1649,0.07808,0.074462,-0.92398,-0.99567,0.066898
4,0.021843,0.10307,0.080053,0.09551,-0.74869,-1.1598,0.079066
5,0.012635,0.044535,0.08663,0.12182,-0.46751,-1.2446,0.097483
6,0.020199,0.0044134,0.098141,0.14714,-0.11661,-1.2417,0.1205
7,0.04026,-0.0077547,0.10669,0.15865,0.24778,-1.1542,0.14616
8,0.058348,0.0021113,0.10505,0.14879,0.575,-0.97989,0.16852
9,0.06065,0.016581,0.091892,0.12248,0.84039,-0.71186,0.18661
10,0.04618,0.022501,0.07512,0.08959,1.0377,-0.3603,0.20272
11,0.02283,0.017239,0.056703,0.062623,1.1637,0.030723,0.2139
12,0.0001381,0.017568,0.037629,0.048482,1.2084,0.39774,0.21883
13,-0.01499,0.038287,0.018226,0.043877,1.1571,0.69142,0.21292
14,-0.015319,0.077751,0.0011247,0.038287,1.0025,0.88512,0.19055
15,-0.0067681,0.11853,-0.014332,0.024145,0.75423,0.97983,0.15734
16,0.00046697,0.14155,-0.028473,0.0021113,0.44279,0.99858,0.11853
17,0.0011247,0.14155,-0.039326,-0.022225,0.11623,0.97128,0.086301
18,0.00079584,0.13136,-0.046232,-0.048534,-0.17548,0.92228,0.067885
19,0.0040845,0.12577,-0.048863,-0.071555,-0.3968,0.86901,0.064267
20,0.018555,0.14188,-0.049192,-0.083723,-0.53164,0.81244,0.068871
21,0.044864,0.1843,-0.051165,-0.082736,-0.58656,0.73779,0.073476
22,0.078737,0.24317,-0.055112,-0.074186,-0.58327,0.63091,0.077422
23,0.11097,0.29875,-0.060702,-0.062347,-0.5494,0.48489,0.073147
24,0.13103,0.33328,-0.07024,-0.058071,-0.50336,0.31125,0.058019
25,0.13333,0.34084,-0.077803,-0.06136,-0.45699,0.13464,0.036642
26,0.12379,0.32703,-0.077803,-0.072213,-0.42081,-0.018278,0.015924
27,0.10998,0.29875,-0.069911,-0.082079,-0.39812,-0.1268,0.0037556
28,0.094523,0.26323,-0.0584,-0.083723,-0.38102,-0.18567,-0.0015062
29,0.078737,0.22311,-0.051823,-0.078132,-0.35635,-0.20244,-0.0047949
30,0.06624,0.17641,-0.04985,-0.068595,-0.31886,-0.19258,-0.011043
31,0.050784,0.12346,-0.05281,-0.059058,-0.2623,-0.1735,-0.019594
32,0.029078,0.060979,-0.054783,-0.047219,-0.18337,-0.16101,-0.022225
33,0.0001381,-0.0054526,-0.049521,-0.032091,-0.087341,-0.16495,-0.02354
34,-0.02946,-0.07583,-0.037682,-0.019923,0.017897,-0.19028,-0.027816
35,-0.054454,-0.14292,-0.024856,-0.0097279,0.11656,-0.22842,-0.033735
36,-0.071884,-0.19981,-0.012688,0.0017824,0.20864,-0.27085,-0.036695
37,-0.085367,-0.23961,-0.0008485,0.018555,0.30598,-0.309,-0.030118
38,-0.091616,-0.25737,0.0060577,0.036971,0.4178,-0.34156,-0.015648
39,-0.087669,-0.24553,0.0070443,0.048482,0.51975,-0.37477,0.0040845
40,-0.07287,-0.20968,0.0044134,0.039602,0.57763,-0.42542,0.023817
41,-0.04985,-0.16265,0.00046697,0.0063866,0.57664,-0.505,0.038616
42,-0.024527,-0.12121,-0.0008485,-0.02946,0.54047,-0.60991,0.045522
43,-0.004466,-0.096549,0.002769,-0.054125,0.50528,-0.71022,0.045522
44,0.0047422,-0.090629,0.0090175,-0.06432,0.49278,-0.76152,0.043877
45,0.0050711,-0.097207,0.013622,-0.06728,0.50199,-0.73093,0.044864
46,0.00046697,-0.11168,0.014937,-0.072542,0.50067,-0.61616,0.045851
47,0.0011247,-0.1245,0.01691,-0.082408,0.44937,-0.4366,0.047824
48,0.010333,-0.1324,0.022501,-0.086025,0.32966,-0.23895,0.04618
49,0.023488,-0.13897,0.032038,-0.076159,0.15865,-0.073528,0.041247
50,0.03434,-0.14983,0.043549,-0.051165,-0.015648,0.029078,0.033683
51,0.034669,-0.16693,0.05473,-0.018278,-0.15147,0.062623,0.025461
52,0.020199,-0.18567,0.057361,0.017239,-0.23829,0.04026,0.017239
53,-0.0028217,-0.19488,0.047495,0.06361,-0.30045,-0.015648,0.010991
54,-0.027487,-0.1837,0.022501,0.13366,-0.36984,-0.086683,0.00079584
55,-0.04393,-0.14687,-0.010715,0.22048,-0.46488,-0.15246,-0.015976
56,-0.048863,-0.095233,-0.042944,0.29908,-0.57045,-0.20146,-0.041299
57,-0.041628,-0.045903,-0.066622,0.34446,-0.65233,-0.22941,-0.07024
58,-0.027816,-0.013017,-0.07583,0.34282,-0.68522,-0.235,-0.094905
59,-0.013017,-0.0034794,-0.072542,0.29908,-0.66253,-0.22119,-0.11135
60,0.0001381,-0.010386,-0.063004,0.23396,-0.59117,-0.19554,-0.1222
61,0.0054,-0.016963,-0.054454,0.16786,-0.49218,-0.17581,-0.12944
62,0.0070443,-0.01203,-0.052481,0.11261,-0.3922,-0.17844,-0.13404
63,0.0070443,0.0080309,-0.055112,0.071173,-0.31031,-0.21527,-0.13141
64,0.0080309,0.036314,-0.057414,0.039602,-0.25342,-0.27874,-0.1245
65,0.010333,0.067227,-0.054783,0.013293,-0.2156,-0.34616,-0.12121
66,0.015266,0.093865,-0.047219,-0.0061104,-0.18863,-0.39385,-0.12352
67,0.019212,0.11491,-0.034064,-0.015648,-0.16693,-0.40404,-0.12549
68,0.024145,0.13201,-0.018936,-0.011043,-0.14259,-0.37576,-0.12089
69,0.031381,0.14583,-0.0051238,-0.0011774,-0.11168,-0.32347,-0.10477
70,0.042891,0.15701,0.0067154,0.0096753,-0.077146,-0.26888,-0.082736
71,0.058019,0.16819,0.015266,0.011977,-0.039655,-0.22678,-0.059058
72,0.070516,0.17674,0.018226,0.0067154,-0.0090702,-0.19685,-0.036695
73,0.077093,0.18266,0.020528,-0.0054526,0.0054,-0.17383,-0.022225
74,0.074462,0.18167,0.021186,-0.014332,0.0050711,-0.15903,-0.015976
75,0.066569,0.17312,0.020199,-0.015319,-0.007097,-0.15048,-0.015976
76,0.059992,0.16194,0.018555,-0.0097279,-0.028144,-0.14588,-0.017621
77,0.055388,0.15142,0.013951,-0.0034794,-0.053467,-0.13272,-0.017292
78,0.05473,0.14681,0.011977,-0.00051963,-0.074186,-0.089314,-0.01203
79,0.060321,0.14385,0.01132,0.00046697,-0.087341,0.0030979,-0.0034794
80,0.069858,0.133,0.018555,-0.0034794,-0.098193,0.15175,0.0073732
81,0.076435,0.11261,0.033683,-0.013017,-0.11102,0.35795,0.017568
82,0.07808,0.082684,0.054072,-0.029789,-0.12713,0.60262,0.030394
83,0.073147,0.044864,0.074133,-0.048534,-0.14325,0.86177,0.043549
84,0.06065,0.0014536,0.086301,-0.066622,-0.15443,1.1081,0.057032
85,0.042233,-0.036037,0.085644,-0.091287,-0.14917,1.3228,0.069529
86,0.024474,-0.057743,0.074462,-0.12976,-0.11497,1.4985,0.079395
87,0.010662,-0.054125,0.058019,-0.17581,-0.037024,1.6168,0.091892
88,0.0034268,-0.027487,0.043877,-0.21659,0.08663,1.6484,0.1113
89,0.0080309,0.010333,0.035985,-0.23961,0.25501,1.578,0.14024
90,0.02283,0.04881,0.034998,-0.23895,0.46088,1.434,0.17608
91,0.042562,0.086301,0.038287,-0.21593,0.67169,1.2577,0.20864
92,0.06361,0.13004,0.040918,-0.18041,0.83349,1.0673,0.22443
93,0.081039,0.18233,0.041904,-0.13272,0.88775,0.86341,0.21522
94,0.08959,0.23725,0.036642,-0.059058,0.80126,0.64636,0.1797
95,0.089261,0.2879,0.024474,0.041575,0.58355,0.43622,0.12675
96,0.083013,0.32473,0.0093464,0.14188,0.29415,0.26586,0.069529
97,0.07512,0.33887,-0.0041372,0.20897,0.013293,0.15306,0.023817
98,0.068543,0.32637,-0.010715,0.22903,-0.19751,0.088275,-0.00051963
99,0.059663,0.28954,-0.011701,0.21028,-0.31097,0.042562,-0.0077547
100,0.042891,0.23232,-0.0080836,0.17115,-0.34057,-0.01795,-0.0087413
101,0.019541,0.1672,-0.0015062,0.12741,-0.31557,-0.11233,-0.0064392
102,-0.0054526,0.10011,0.0060577,0.085315,-0.2748,-0.24026,-0.0008485
103,-0.031104,0.037629,0.0083598,0.045522,-0.24322,-0.38825,0.0047422
104,-0.056098,-0.013017,0.0057288,0.010991,-0.22711,-0.53065,0.0096753
105,-0.079777,-0.047548,-0.00051963,-0.013674,-0.21395,-0.64017,0.015595
106,-0.10411,-0.069911,-0.007097,-0.029131,-0.18732,-0.70035,0.017897
107,-0.13042,-0.086354,-0.01203,-0.039984,-0.13207,-0.71449,0.011648
108,-0.15377,-0.11003,-0.013674,-0.046232,-0.042615,-0.69542,-0.007097
109,-0.16956,-0.15048,-0.01203,-0.043601,0.069858,-0.6497,-0.027816
110,-0.18107,-0.20475,-0.0087413,-0.029789,0.18759,-0.57998,-0.036037
111,-0.18929,-0.26065,-0.0047949,-0.0061104,0.29349,-0.48889,-0.027816
112,-0.19422,-0.30472,-0.0015062,0.019541,0.38261,-0.38365,-0.0077547
113,-0.1883,-0.33268,-0.0008485,0.044535,0.43983,-0.2771,0.015595
114,-0.17054,-0.34386,-0.0011774,0.06361,0.45332,-0.18633,0.03434
115,-0.14127,-0.3455,-0.0054526,0.073147,0.42339,-0.13305,0.039931
116,-0.11168,-0.34254,-0.011372,0.07216,0.35795,-0.12089,0.027763
117,-0.092274,-0.33366,-0.015976,0.059005,0.27047,-0.13634,0.0030979
118,-0.083394,-0.31623,-0.018936,0.039273,0.182,-0.15607,-0.027487
119,-0.078461,-0.28992,-0.017621,0.025461,0.10538,-0.1564,-0.055769
120,-0.07024,-0.25441,-0.013017,0.023817,0.047166,-0.12056,-0.071226
121,-0.056756,-0.21165,-0.007097,0.032696,0.010333,-0.047219,-0.071884
122,-0.041957,-0.16758,-0.0018351,0.045193,-0.0051238,0.047824,-0.061031
123,-0.031762,-0.12911,0.0001381,0.053086,-0.010057,0.12182,-0.050507
124,-0.025842,-0.10082,-0.0024928,0.054072,-0.013017,0.11919,-0.047219
125,-0.02354,-0.080763,-0.0093991,0.044535,-0.024527,0.017897,-0.05281
126,-0.021896,-0.065635,-0.014332,0.023488,-0.045903,-0.16101,-0.063662
127,-0.014661,-0.048205,-0.017621,0.0011247,-0.073857,-0.37115,-0.076817
128,0.0017824,-0.017292,-0.019923,-0.013345,-0.099838,-0.56518,-0.083065
129,0.02875,0.033354,-0.018278,-0.022883,-0.11628,-0.70989,-0.082736
130,0.062623,0.096496,-0.013017,-0.030775,-0.12319,-0.79671,-0.077475
131,0.099127,0.15734,-0.0067681,-0.033078,-0.12483,-0.83716,-0.068924
132,0.12905,0.19976,-0.0038083,-0.031762,-0.12878,-0.83716,-0.06136
133,0.14747,0.21555,-0.0090702,-0.026171,-0.1393,-0.81315,-0.051823
134,0.15372,0.20996,-0.022225,-0.018607,-0.15903,-0.78026,-0.039655
135,0.15536,0.19779,-0.039984,-0.01203,-0.18271,-0.74804,-0.027816
136,0.15668,0.18924,-0.055769,-0.0064392,-0.19948,-0.71252,-0.016305
137,0.15602,0.18628,-0.062347,-0.0018351,-0.20277,-0.64214,-0.00051963
138,0.14912,0.18562,-0.062018,-0.0024928,-0.19521,-0.48955,0.021186
139,0.13596,0.17838,-0.057743,-0.0087413,-0.18501,-0.23303,0.041247
140,0.11557,0.15076,-0.051494,-0.020581,-0.17252,0.10702,0.057361
141,0.092221,0.095181,-0.045903,-0.037682,-0.15673,0.46384,0.068543
142,0.070516,0.020528,-0.041299,-0.0584,-0.13338,0.77166,0.071831
143,0.055388,-0.060045,-0.033735,-0.076488,-0.095233,0.99891,0.067885
144,0.044535,-0.13733,-0.019265,-0.087341,-0.036366,1.1472,0.064267
145,0.032038,-0.20705,0.0011247,-0.087998,0.045522,1.2377,0.069529
146,0.010333,-0.26986,0.020199,-0.080106,0.14484,1.2896,0.083342
147,-0.024198,-0.32741,0.035656,-0.072542,0.24021,1.2995,0.095839
148,-0.06432,-0.36885,0.045522,-0.068595,0.31223,1.24,0.098798
149,-0.10378,-0.37017,0.051113,-0.066951,0.35795,1.0857,0.093865
150,-0.13108,-0.3159,0.051113,-0.062018,0.37702,0.84467,0.081697
151,-0.14062,-0.2031,0.044535,-0.042615,0.37932,0.55954,0.058676
152,-0.12779,-0.053467,0.033025,0.0017824,0.37735,0.28954,0.02579
153,-0.097207,0.095839,0.018226,0.068543,0.37834,0.086959,-0.010715
154,-0.05544,0.2116,0.0070443,0.14944,0.37768,-0.026171,-0.037682
155,-0.0087413,0.27408,0.0034268,0.23331,0.37044,-0.06728,-0.043601
156,0.031052,0.27902,0.013293,0.30566,0.34512,-0.070897,-0.02946
157,0.057361,0.23922,0.033354,0.35137,0.28658,-0.080763,-0.0041372
158,0.067556,0.17641,0.052428,0.36288,0.182,-0.12615,0.017568
159,0.062623,0.11162,0.059005,0.33032,0.014937,-0.20968,0.027434
160,0.048153,0.053743,0.04881,0.24843,-0.2281,-0.31821,0.025132
161,0.030723,0.0070443,0.02579,0.13399,-0.54216,-0.43166,0.014937
162,0.014608,-0.027158,0.002769,0.024145,-0.86643,-0.53033,0.00046697
163,0.0044134,-0.049521,-0.0038083,-0.045574,-1.1026,-0.5984,-0.013017
164,0.00046697,-0.064649,0.010004,-0.054783,-1.1483,-0.62668,-0.019594
165,-0.004466,-0.081421,0.0373,-0.011372,-0.95621,-0.6132,-0.014003
166,-0.016634,-0.11595,0.067556,0.056046,-0.57275,-0.5642,0.0014536
167,-0.039326,-0.17613,0.091234,0.11162,-0.1347,-0.48889,0.018555
168,-0.070568,-0.25835,0.10439,0.13333,0.20798,-0.40799,0.034998
169,-0.10346,-0.35175,0.10768,0.12313,0.39248,-0.33366,0.045851
170,-0.13272,-0.43791,0.10274,0.093536,0.45463,-0.26822,0.047495
171,-0.15509,-0.49514,0.090905,0.056046,0.45661,-0.21297,0.038944
172,-0.16956,-0.49974,0.073476,0.021843,0.42767,-0.17186,0.024145
173,-0.17449,-0.44054,0.054401,-0.007097,0.37307,-0.14226,0.0093464
174,-0.16462,-0.32544,0.034669,-0.037024,0.28066,-0.12615,-0.0011774
175,-0.14588,-0.17844,0.013293,-0.073199,0.14648,-0.11924,-0.0051238
176,-0.1199,-0.032749,-0.0080836,-0.11299,-0.018278,-0.11858,-0.0038083
177,-0.091287,0.082355,-0.028473,-0.15081,-0.19422,-0.1176,0.002769
178,-0.061031,0.15306,-0.038997,-0.17811,-0.36063,-0.10609,0.01691
179,-0.029789,0.18529,-0.042286,-0.19258,-0.49941,-0.084381,0.0373
180,0.0073732,0.19384,-0.038997,-0.19817,-0.60399,-0.060373,0.057032
181,0.045193,0.19746,-0.031433,-0.19916,-0.66121,-0.042615,0.07216
182,0.079395,0.20601,-0.021238,-0.20244,-0.65529,-0.038997,0.074791
183,0.10702,0.22837,-0.0061104,-0.21264,-0.57472,-0.046232,0.06361
184,0.1284,0.26356,0.01132,-0.23007,-0.4241,-0.05544,0.047166
185,0.14155,0.29974,0.028092,-0.25013,-0.21659,-0.063991,0.032367
186,0.14484,0.32901,0.038287,-0.2669,0.032038,-0.063991,0.020528
187,0.13432,0.35268,0.038616,-0.27611,0.29809,-0.057085,0.012964
188,0.10998,0.37899,0.02875,-0.27677,0.57105,-0.041957,0.010004
189,0.078737,0.42043,0.01132,-0.26592,0.86703,-0.027487,0.010991
190,0.049139,0.48818,-0.0077547,-0.24289,1.1827,-0.024198,0.0093464
191,0.032367,0.57138,-0.025185,-0.20343,1.437,-0.037024,0.002769
192,0.030394,0.64077,-0.041628,-0.13634,1.507,-0.065307,-0.0041372
193,0.038287,0.65886,-0.051823,-0.033078,1.314,-0.094905,-0.0034794
194,0.050784,0.60986,-0.05544,0.10439,0.8894,-0.11069,0.0040845
195,0.064267,0.50791,-0.050179,0.25468,0.35531,-0.10937,0.0080309
196,0.075449,0.3859,-0.04097,0.38491,-0.13371,-0.098522,-0.0018351
197,0.081039,0.27902,-0.033735,0.46187,-0.46751,-0.087341,-0.021238
198,0.080053,0.20305,-0.030775,0.47141,-0.61583,-0.080106,-0.042615
199,0.077751,0.15898,-0.029131,0.41879,-0.60629,-0.075173,-0.050836
200,0.07808,0.13695,-0.026829,0.32374,-0.49316,-0.071226,-0.045903
201,0.082355,0.12116,-0.021567,0.21456,-0.34945,-0.063991,-0.032749
202,0.085315,0.10176,-0.013674,0.11393,-0.23796,-0.051823,-0.019923
203,0.081039,0.072489,-0.0074258,0.036642,-0.1962,-0.036695,-0.018278
204,0.066898,0.032038,-0.002164,-0.017621,-0.22349,-0.01795,-0.028144
205,0.042891,-0.01795,-0.0024928,-0.050179,-0.29255,0.0093464,-0.036366
206,0.015595,-0.077803,-0.011043,-0.068266,-0.37214,0.056703,-0.039326
207,-0.0064392,-0.14292,-0.025185,-0.077803,-0.43561,0.12971,-0.04097
208,-0.021896,-0.2054,-0.041628,-0.08471,-0.46784,0.22541,-0.044917
209,-0.031104,-0.25375,-0.056427,-0.092603,-0.46028,0.32933,-0.050507
210,-0.036366,-0.27775,-0.066951,-0.096549,-0.41095,0.42898,-0.051823
211,-0.033735,-0.27512,-0.072542,-0.090958,-0.32741,0.51679,-0.049521
212,-0.021896,-0.2475,-0.073199,-0.068595,-0.20968,0.59506,-0.041957
213,-0.0015062,-0.1985,-0.066951,-0.028473,-0.049192,0.67234,-0.028473
214,0.021843,-0.1393,-0.053796,0.024474,0.15536,0.75094,-0.0077547
215,0.048482,-0.081421,-0.033406,0.08367,0.38327,0.82823,0.020857
216,0.07808,-0.031104,-0.010386,0.13662,0.60098,0.89433,0.05769
217,0.1057,0.016581,0.0080309,0.17345,0.7687,0.93905,0.10044
218,0.12807,0.066898,0.020528,0.18858,0.85059,0.94267,0.13859
219,0.14188,0.12017,0.026447,0.18792,0.83579,0.88676,0.1626
220,0.15273,0.17477,0.027763,0.17773,0.73614,0.75982,0.16753
221,0.16753,0.22706,0.030394,0.16457,0.58486,0.56349,0.15997
222,0.18299,0.26882,0.034998,0.1524,0.4201,0.30829,0.14944
223,0.19187,0.29151,0.039273,0.14451,0.27803,0.021514,0.14254
224,0.18924,0.29316,0.040918,0.14056,0.17411,-0.24092,0.13892
225,0.18036,0.27606,0.041904,0.13563,0.10406,-0.39648,0.13464
226,0.17148,0.25074,0.041247,0.12544,0.052757,-0.3705,0.13103
227,0.16063,0.22081,0.038944,0.10768,0.011977,-0.14259,0.12905
228,0.14352,0.18726,0.03434,0.080053,-0.01795,0.2287,0.12774
229,0.11294,0.14977,0.024474,0.04881,-0.042286,0.6217,0.12281
230,0.070187,0.11064,0.012635,0.021186,-0.063991,0.9213,0.11228
231,0.024145,0.0692,0.0047422,-0.002164,-0.087012,1.0749,0.099785
232,-0.012688,0.030065,0.00046697,-0.015319,-0.11135,1.0877,0.088275
233,-0.032749,-0.007097,0.00046697,-0.015319,-0.12582,0.9943,0.07808
234,-0.034722,-0.048534,0.0040845,-0.0054526,-0.12713,0.83415,0.063281
235,-0.031104,-0.10115,0.0063866,0.0037556,-0.11891,0.63913,0.041575
236,-0.035051,-0.16232,0.0077021,0.0073732,-0.11858,0.43194,0.014937
237,-0.056098,-0.22448,0.0057288,0.0054,-0.14654,0.22311,-0.015648
238,-0.091287,-0.28039,-0.00051963,-0.0015062,-0.20771,0.018884,-0.048534
239,-0.13305,-0.32314,-0.0093991,-0.015648,-0.2919,-0.17285,-0.082736
240,-0.17054,-0.3455,-0.019265,-0.036695,-0.37477,-0.34123,-0.1176
241,-0.19356,-0.34353,-0.026171,-0.054125,-0.42936,-0.47869,-0.14752
242,-0.19488,-0.31393,-0.024527,-0.0584,-0.42969,-0.57867,-0.15936
243,-0.1735,-0.2623,-0.011043,-0.047219,-0.37411,-0.64082,-0.14456
244,-0.13864,-0.20146,0.013293,-0.027487,-0.27907,-0.67996,-0.10806
245,-0.10313,-0.13799,0.040918,-0.0074258,-0.17054,-0.72008,-0.064649
246,-0.07583,-0.072542,0.059005,0.0060577,-0.070897,-0.78421,-0.028802
247,-0.057085,0.0001381,0.060979,0.010333,0.0037556,-0.8809,-0.0077547
248,-0.04393,0.078409,0.050455,0.0067154,0.046837,-1.0013,-0.0008485
249,-0.02946,0.15536,0.031052,-0.0011774,0.06065,-1.1249,-0.0054526
250,-0.010057,0.2241,0.0083598,-0.011043,0.047495,-1.2173,-0.016963
251,0.012635,0.27573,-0.015648,-0.024856,0.013951,-1.2443,-0.026171
252,0.029407,0.29842,-0.036037,-0.039326,-0.031433,-1.1884,-0.024527
253,0.034998,0.29283,-0.048534,-0.05281,-0.080434,-1.0614,-0.0097279
254,0.031709,0.27145,-0.046561,-0.062018,-0.12154,-0.90425,0.016253
255,0.027763,0.25205,-0.0265,-0.068266,-0.14588,-0.7727,0.043877
256,0.027434,0.25008,0.0047422,-0.071226,-0.1587,-0.70134,0.064925
257,0.038944,0.27408,0.0373,-0.075501,-0.17646,-0.68522,0.07512
258,0.061965,0.3096,0.058676,-0.079448,-0.21626,-0.68588,0.080053
259,0.091892,0.33131,0.06361,-0.085039,-0.28071,-0.66417,0.08367
260,0.11985,0.32078,0.05769,-0.088656,-0.35833,-0.60136,0.086301
261,0.13695,0.26488,0.049139,-0.091616,-0.4343,-0.49152,0.088275
262,0.13497,0.16885,0.042562,-0.092274,-0.49316,-0.34813,0.091892
263,0.11064,0.043877,0.04026,-0.084052,-0.5198,-0.19685,0.093865
264,0.061965,-0.090629,0.040918,-0.062676,-0.50204,-0.068266,0.091563
265,-0.0047949,-0.21527,0.041575,-0.032749,-0.44515,0.017897,0.084328
266,-0.076817,-0.30702,0.036314,-0.0090702,-0.36786,0.052757,0.074462
267,-0.13963,-0.3557,0.021843,-0.002164,-0.2942,0.045851,0.063938
268,-0.1814,-0.36392,-0.00051963,-0.011701,-0.24224,0.018555,0.052757
269,-0.19981,-0.34616,-0.022225,-0.035051,-0.22218,0.0067154,0.042891
270,-0.20376,-0.32774,-0.036037,-0.063333,-0.23895,0.040918,0.033025
271,-0.20343,-0.33761,-0.038997,-0.088656,-0.28762,0.12675,0.025132
272,-0.20475,-0.38924,-0.034393,-0.10115,-0.36129,0.23955,0.022501
273,-0.21099,-0.48034,-0.026829,-0.096549,-0.44613,0.34907,0.020199
274,-0.23073,-0.59478,-0.023211,-0.085039,-0.52802,0.42898,0.0093464
275,-0.26723,-0.69607,-0.026829,-0.076488,-0.5961,0.47765,-0.020252
276,-0.309,-0.75198,-0.042944,-0.07583,-0.64148,0.5089,-0.065635
277,-0.33662,-0.74014,-0.068924,-0.083723,-0.64872,0.53586,-0.11365
278,-0.33596,-0.66089,-0.098522,-0.096878,-0.60136,0.56283,-0.15081
279,-0.30242,-0.52868,-0.1199,-0.10609,-0.49875,0.57927,-0.16627
280,-0.24487,-0.37378,-0.12352,-0.10115,-0.35109,0.55658,-0.15607
281,-0.17449,-0.22612,-0.11168,-0.075501,-0.16989,0.46976,-0.12911
282,-0.1028,-0.10674,-0.089643,-0.031433,0.038616,0.31092,-0.10115
283,-0.041299,-0.024198,-0.058729,0.020857,0.26652,0.097812,-0.083065
284,-0.00019077,0.025461,-0.023211,0.071502,0.49015,-0.12944,-0.081092
285,0.017239,0.050126,0.0086887,0.11524,0.6924,-0.32544,-0.087669
286,0.018884,0.059334,0.035327,0.15207,0.85454,-0.46225,-0.094247
287,0.020528,0.054401,0.056374,0.17773,0.94629,-0.54216,-0.093589
288,0.030723,0.032696,0.071173,0.18693,0.94201,-0.58821,-0.088656
289,0.043549,-0.010386,0.079066,0.17312,0.8348,-0.62011,-0.083394
290,0.050784,-0.073857,0.079724,0.13464,0.64406,-0.63885,-0.082736
291,0.046508,-0.14522,0.073476,0.080711,0.41714,-0.62833,-0.086354
292,0.029736,-0.21034,0.063938,0.02875,0.22739,-0.56749,-0.091616
293,0.0090175,-0.26263,0.052099,-0.0024928,0.13201,-0.45567,-0.093918
294,-0.0057815,-0.30571,0.041575,0.0037556,0.15536,-0.32215,-0.09326
295,-0.0077547,-0.34287,0.035656,0.046837,0.27277,-0.20869,-0.089972
296,0.0021113,-0.36392,0.031381,0.10801,0.41846,-0.14785,-0.084052
297,0.020199,-0.35931,0.026119,0.15471,0.51383,-0.14785,-0.081421
298,0.042891,-0.32511,0.016581,0.16852,0.5089,-0.19883,-0.080763
299,0.062952,-0.26756,0.0060577,0.14879,0.40399,-0.27743,-0.083394
300,0.078409,-0.19784,-0.0051238,0.10899,0.24153,-0.35372,-0.085367
301,0.086959,-0.12483,-0.01795,0.068543,0.077422,-0.40075,-0.082736
302,0.08959,-0.053796,-0.027487,0.039931,-0.042944,-0.39878,-0.072213
303,0.090577,0.01132,-0.032091,0.027763,-0.10905,-0.33564,-0.055112
304,0.090577,0.070516,-0.030775,0.029736,-0.137,-0.19718,-0.032091
305,0.084657,0.12971,-0.026171,0.042562,-0.14719,0.030723,-0.0084125
306,0.075449,0.19022,-0.019594,0.061965,-0.137,0.33854,0.015266
307,0.073476,0.25008,-0.013345,0.082355,-0.088656,0.68418,0.039273
308,0.084328,0.30894,-0.0097279,0.094194,0.0063866,1.016,0.064267
309,0.11393,0.36617,-0.0054526,0.09551,0.13037,1.2788,0.09255
310,0.15832,0.42503,0.0014536,0.080711,0.25008,1.4393,0.1205
311,0.20502,0.48193,0.010991,0.047495,0.33953,1.5057,0.14385
312,0.23232,0.53093,0.023159,0.0011247,0.39511,1.5221,0.16391
313,0.23429,0.56415,0.033683,-0.046561,0.44082,1.559,0.17904
314,0.21456,0.57927,0.04026,-0.08175,0.50495,1.6721,0.18858
315,0.18102,0.57566,0.040589,-0.10411,0.60229,1.875,0.19121
316,0.14254,0.55362,0.033683,-0.11793,0.72989,2.1194,0.18693
317,0.11097,0.50922,0.024474,-0.11266,0.85388,2.3137,0.17806
318,0.090248,0.44148,0.011977,-0.072213,0.92426,2.3759,0.16457
319,0.073147,0.35104,-0.0024928,0.01691,0.90255,2.267,0.15109
320,0.059663,0.2481,-0.015648,0.14451,0.77627,1.9964,0.13728
321,0.050126,0.15471,-0.025842,0.27704,0.56513,1.603,0.12708
322,0.042891,0.090248,-0.032749,0.3757,0.30434,1.1239,0.11393
323,0.0373,0.060321,-0.034722,0.41583,0.043877,0.59013,0.098141
324,0.0373,0.05769,-0.03242,0.39577,-0.17416,0.040918,0.08367
325,0.04322,0.071173,-0.02946,0.32933,-0.31985,-0.44844,0.074791
326,0.053086,0.08959,-0.031104,0.23955,-0.3774,-0.79112,0.069858
327,0.062623,0.11162,-0.040641,0.1501,-0.34813,-0.93845,0.063281
328,0.067227,0.13497,-0.053467,0.073147,-0.25079,-0.90819,0.050784
329,0.067885,0.15602,-0.059058,0.017568,-0.11562,-0.77698,0.034998
330,0.068543,0.17082,-0.052152,-0.018607,0.022501,-0.64609,0.023159
331,0.07216,0.18036,-0.029131,-0.037024,0.1284,-0.59182,0.023159
332,0.07808,0.18891,0.0017824,-0.041957,0.18003,-0.63458,0.033025
333,0.083342,0.19516,0.033025,-0.03538,0.17444,-0.73981,0.045851
334,0.083013,0.19746,0.06065,-0.020581,0.12412,-0.84045,0.055717
335,0.080382,0.19384,0.079395,-0.0057815,0.04026,-0.89438,0.059005
336,0.077422,0.19154,0.08367,0.0021113,-0.067937,-0.89635,0.054401
337,0.071173,0.18891,0.077093,-0.002164,-0.18173,-0.86248,0.038944
338,0.059663,0.17838,0.06361,-0.014003,-0.27907,-0.81512,0.019541
339,0.045522,0.15207,0.048153,-0.033735,-0.34254,-0.77402,0.0050711
340,0.031381,0.11985,0.036642,-0.054783,-0.37017,-0.74409,-0.002164
341,0.02283,0.09551,0.033354,-0.071226,-0.37576,-0.72469,-0.0041372
342,0.024803,0.088603,0.037629,-0.082736,-0.36951,-0.70528,-0.0041372
343,0.036642,0.10307,0.046508,-0.090958,-0.35241,-0.68456,-0.0080836
344,0.056046,0.1307,0.054401,-0.095562,-0.32676,-0.66615,-0.014332
345,0.072818,0.1603,0.059334,-0.096549,-0.29847,-0.64872,-0.018278
346,0.078409,0.17641,0.062623,-0.094576,-0.27118,-0.62833,-0.021238
347,0.068214,0.17477,0.06361,-0.090629,-0.24553,-0.59741,-0.021896
348,0.04881,0.16063,0.061307,-0.082408,-0.22678,-0.55367,-0.022554
349,0.030723,0.1432,0.05473,-0.071555,-0.21955,-0.49711,-0.019923
350,0.017568,0.12642,0.045851,-0.0584,-0.22349,-0.43528,-0.015976
351,0.010004,0.11031,0.037958,-0.042944,-0.23171,-0.37181,-0.013017
352,0.0063866,0.091563,0.026776,-0.028802,-0.23073,-0.30834,-0.014661
353,-0.0034794,0.0692,0.013293,-0.024856,-0.20376,-0.24158,-0.021567
354,-0.019594,0.043877,-0.0011774,-0.030775,-0.15015,-0.17318,-0.0265
355,-0.037682,0.014937,-0.013345,-0.050179,-0.095891,-0.11036,-0.025514
356,-0.054454,-0.015319,-0.027816,-0.093918,-0.093589,-0.062347,-0.020909
357,-0.069582,-0.048534,-0.046561,-0.16166,-0.1735,-0.032091,-0.016963
358,-0.084052,-0.081421,-0.064978,-0.22974,-0.30341,-0.01795,-0.017292
359,-0.098522,-0.11431,-0.077475,-0.26526,-0.41292,-0.020909,-0.022883
360,-0.1074,-0.14062,-0.084381,-0.24421,-0.44646,-0.043272,-0.029789
361,-0.10806,-0.15575,-0.08471,-0.17416,-0.39648,-0.085039,-0.038997
362,-0.10346,-0.1541,-0.078132,-0.083065,-0.30078,-0.137,-0.048534
363,-0.098193,-0.14127,-0.067937,-0.0051238,-0.20738,-0.18995,-0.057085
364,-0.089643,-0.12944,-0.054454,0.040918,-0.14884,-0.23402,-0.059387
365,-0.079777,-0.12648,-0.036695,0.053086,-0.12944,-0.25802,-0.05544
366,-0.067609,-0.13832,-0.015648,0.043877,-0.12121,-0.2521,-0.047219
367,-0.05544,-0.16364,0.0080309,0.030723,-0.088656,-0.20672,-0.033735
368,-0.044588,-0.20014,0.033025,0.025461,-0.018936,-0.11924,-0.016963
369,-0.035708,-0.24553,0.053415,0.028092,0.077751,-0.0084125,-0.0018351
370,-0.03242,-0.2988,0.065254,0.031709,0.16424,0.085315,0.0057288
371,-0.043272,-0.35537,0.06624,0.038287,0.20108,0.12708,0.0001381
372,-0.063662,-0.4116,0.05769,0.044206,0.17181,0.10242,-0.017621
373,-0.086683,-0.46258,0.042233,0.042233,0.090577,0.023488,-0.039984
374,-0.10773,-0.50171,0.026776,0.032696,-0.013674,-0.078461,-0.058729
375,-0.1222,-0.52441,0.015924,0.01987,-0.11036,-0.16002,-0.068595
376,-0.12845,-0.52605,0.011648,0.0096753,-0.17975,-0.19718,-0.069253
377,-0.12812,-0.50566,0.0083598,0.0080309,-0.21165,-0.18633,-0.066293
378,-0.11694,-0.46159,0.0014536,0.018226,-0.20376,-0.14423,-0.063004
379,-0.095891,-0.40042,-0.0084125,0.036642,-0.15607,-0.092274,-0.056756
380,-0.074515,-0.33169,-0.016963,0.056703,-0.078132,-0.045246,-0.048205
381,-0.056756,-0.26328,-0.020909,0.073476,0.014608,-0.010715,-0.041628
382,-0.043601,-0.19784,-0.022883,0.087946,0.099456,0.011648,-0.036037
383,-0.036366,-0.13305,-0.024856,0.097483,0.15799,0.029078,-0.029789
384,-0.031104,-0.06728,-0.02946,0.097483,0.18693,0.045522,-0.019265
385,-0.021896,0.0034268,-0.034064,0.091563,0.19812,0.068214,-0.0057815
386,-0.0041372,0.081368,-0.037353,0.081697,0.20634,0.093865,0.0083598
387,0.02283,0.17016,-0.036037,0.071502,0.22212,0.11261,0.019541
388,0.048153,0.26389,-0.031762,0.066569,0.24745,0.10735,0.030394
389,0.068543,0.3438,-0.029789,0.067556,0.27112,0.060321,0.041904
390,0.082026,0.39577,-0.028144,0.071173,0.27639,-0.038339,0.050784
391,0.08663,0.41451,-0.024856,0.067227,0.25271,-0.18863,0.055388
392,0.083999,0.40629,-0.021896,0.051113,0.19581,-0.37806,0.053086
393,0.075449,0.38031,-0.018936,0.023159,0.11393,-0.59215,0.042233
394,0.061307,0.3494,-0.015648,-0.0047949,0.028092,-0.80065,0.025461
395,0.04322,0.31585,-0.011043,-0.02354,-0.043272,-0.95983,0.014937
396,0.026447,0.28132,-0.004466,-0.029789,-0.091945,-1.0082,0.015924
397,0.016253,0.23824,0.0011247,-0.021567,-0.12089,-0.89471,0.025461
398,0.013622,0.17246,0.0034268,-0.0057815,-0.14423,-0.62076,0.038616
399,0.011977,0.079395,0.0030979,0.0080309,-0.17186,-0.23928,0.056703
400,0.00046697,-0.031433,-0.00051963,0.016253,-0.19718,0.16786,0.078409
401,-0.026829,-0.137,-0.004466,0.01987,-0.20113,0.52008,0.097812
402,-0.062018,-0.20803,-0.0067681,0.022501,-0.16726,0.76837,0.10998
403,-0.09622,-0.23763,-0.0038083,0.02875,-0.10378,0.90354,0.11393
404,-0.12056,-0.23138,0.0044134,0.033025,-0.037682,0.93708,0.11162
405,-0.13437,-0.19422,0.014608,0.033025,0.0014536,0.88644,0.10274
406,-0.13963,-0.1268,0.024803,0.029078,0.0030979,0.7664,0.088275
407,-0.13568,-0.038668,0.032367,0.023817,-0.019594,0.59637,0.070516
408,-0.11727,0.056046,0.035327,0.020528,-0.043272,0.40662,0.052428
409,-0.082079,0.14813,0.030394,0.016253,-0.057743,0.23462,0.039602
410,-0.039326,0.22837,0.020199,0.01132,-0.063333,0.11097,0.029736
411,-0.0011774,0.28494,0.010662,0.0086887,-0.056756,0.055388,0.020857
412,0.023159,0.31256,0.0054,0.010333,-0.017621,0.074133,0.016253
413,0.037629,0.31388,0.0070443,0.010004,0.066898,0.15405,0.019212
414,0.049139,0.30237,0.013622,-0.0047949,0.18233,0.26323,0.032367
415,0.058019,0.28625,0.020528,-0.037353,0.29349,0.37242,0.055388
416,0.061307,0.2754,0.025461,-0.08175,0.37636,0.46516,0.080053
417,0.055717,0.26948,0.026776,-0.1222,0.4349,0.53981,0.098469
418,0.046508,0.26455,0.02875,-0.14456,0.49048,0.59506,0.10998
419,0.038616,0.24547,0.030394,-0.13897,0.55066,0.63058,0.11327
420,0.033683,0.19845,0.03434,-0.10773,0.60525,0.63683,0.11031
421,0.026447,0.11557,0.041904,-0.063662,0.64242,0.61249,0.10044
422,0.012635,0.0017824,0.052428,-0.022554,0.65064,0.5602,0.085315
423,-0.0034794,-0.1245,0.0692,0.011977,0.61972,0.4987,0.066898
424,-0.021567,-0.24881,0.086301,0.051113,0.54343,0.44904,0.054072
425,-0.039984,-0.36326,0.10242,0.093865,0.41451,0.42997,0.048482
426,-0.061031,-0.46291,0.11261,0.13366,0.23199,0.44937,0.04881
427,-0.085039,-0.5323,0.11557,0.15865,-0.0041372,0.49377,0.050455
428,-0.1028,-0.55302,0.10866,0.16359,-0.28499,0.53751,0.047824
429,-0.10148,-0.51092,0.092879,0.14352,-0.58261,0.55132,0.04026
430,-0.074844,-0.40996,0.073476,0.10735,-0.85459,0.51613,0.031052
431,-0.028473,-0.27282,0.055717,0.065254,-1.0509,0.42701,0.020857
432,0.020528,-0.13437,0.043549,0.025461,-1.1361,0.29151,0.0096753
433,0.060979,-0.024856,0.038287,-0.0038083,-1.0983,0.13004,-0.0031506
434,0.086959,0.042562,0.035656,-0.019265,-0.96476,-0.031104,-0.014332
435,0.099785,0.072489,0.031381,-0.019923,-0.79769,-0.16528,-0.022883
436,0.1011,0.082684,0.021514,-0.017621,-0.65036,-0.25605,-0.030775
437,0.093536,0.09551,0.0057288,-0.019265,-0.54776,-0.30472,-0.038668
438,0.080382,0.12511,-0.01499,-0.031433,-0.48593,-0.32774,-0.046232
439,0.066898,0.17542,-0.036037,-0.056098,-0.44581,-0.34451,-0.054125
440,0.059005,0.23133,-0.050836,-0.083394,-0.40799,-0.37214,-0.060702
441,0.05769,0.27343,-0.05281,-0.10444,-0.36326,-0.41851,-0.068266
442,0.062952,0.28592,-0.04393,-0.11365,-0.30801,-0.47573,-0.079448
443,0.0692,0.26849,-0.028473,-0.11299,-0.24783,-0.52145,-0.086354
444,0.0692,0.22541,-0.014332,-0.11003,-0.18205,-0.52802,-0.087669
445,0.063281,0.16589,-0.0067681,-0.10641,-0.1028,-0.47771,-0.089314
446,0.053086,0.1011,-0.0024928,-0.10378,-0.0097279,-0.37937,-0.090629
447,0.039602,0.047495,0.0021113,-0.10017,0.086959,-0.25473,-0.0903
448,0.027105,0.010333,0.010991,-0.090629,0.17115,-0.12911,-0.085367
449,0.023159,-0.010386,0.018884,-0.071555,0.23067,-0.024856,-0.076159
450,0.032367,-0.013017,0.023159,-0.038011,0.26981,0.057032,-0.062018
451,0.052757,0.0011247,0.02579,0.016581,0.33394,0.13399,-0.04393
452,0.080711,0.029078,0.032696,0.095839,0.47963,0.207,-0.024856
453,0.11162,0.063938,0.041575,0.19253,0.70063,0.26586,-0.0051238
454,0.13728,0.093208,0.049139,0.28592,0.92491,0.29678,0.0067154
455,0.14813,0.10176,0.047824,0.35071,1.0558,0.29579,0.0034268
456,0.13892,0.083013,0.036642,0.36979,1.0331,0.26192,-0.013345
457,0.1113,0.038944,0.019212,0.34282,0.87558,0.19483,-0.030775
458,0.071502,-0.014661,-0.0008485,0.27803,0.66609,0.10472,-0.034393
459,0.026447,-0.067609,-0.020252,0.19121,0.49771,0.017568,-0.020581
460,-0.012359,-0.11201,-0.036366,0.099127,0.42931,-0.0265,0.0040845
461,-0.038011,-0.14851,-0.048205,0.024803,0.46187,0.016253,0.038616
462,-0.04985,-0.18238,-0.05281,-0.021567,0.56053,0.15471,0.077422
463,-0.054454,-0.21593,-0.05281,-0.039984,0.67662,0.3438,0.1136
464,-0.053467,-0.25079,-0.04689,-0.036366,0.77067,0.51482,0.13728
465,-0.050836,-0.28499,-0.037682,-0.024856,0.82066,0.6115,0.14418
466,-0.050179,-0.31097,-0.02946,-0.011372,0.81836,0.61676,0.13234
467,-0.04985,-0.32281,-0.024198,0.011977,0.75851,0.54869,0.10965
468,-0.046561,-0.31886,-0.022225,0.058019,0.63847,0.44279,0.084328
469,-0.036366,-0.29453,-0.025842,0.12379,0.45562,0.32473,0.062294
470,-0.021896,-0.25013,-0.03538,0.18891,0.22212,0.20765,0.041575
471,-0.0087413,-0.18962,-0.050179,0.23166,-0.034064,0.096167,0.020857
472,-0.00051963,-0.12121,-0.066951,0.23955,-0.27216,-0.007097,-0.0041372
473,0.0054,-0.051165,-0.081421,0.21489,-0.45238,-0.1005,-0.028802
474,0.0080309,0.018555,-0.090958,0.17148,-0.55433,-0.18173,-0.052152
475,0.010333,0.086301,-0.094247,0.12215,-0.58229,-0.24684,-0.07583
476,0.014608,0.14912,-0.095562,0.073804,-0.55598,-0.28894,-0.095891
477,0.018555,0.19647,-0.094905,0.027434,-0.50237,-0.30933,-0.11069
478,0.025132,0.22377,-0.090629,-0.013345,-0.44778,-0.32018,-0.11332
479,0.034669,0.23495,-0.086025,-0.044259,-0.40733,-0.33531,-0.097207
480,0.045522,0.23824,-0.079448,-0.062676,-0.37937,-0.36589,-0.064649
481,0.056703,0.24087,-0.072213,-0.066293,-0.35504,-0.41358,-0.0265
482,0.060321,0.24153,-0.065307,-0.061031,-0.32774,-0.47343,0.0030979
483,0.056703,0.2389,-0.059716,-0.055112,-0.30308,-0.53657,0.014937
484,0.044206,0.23166,-0.054454,-0.057414,-0.28729,-0.58755,0.0096753
485,0.030065,0.21851,-0.050507,-0.070568,-0.27907,-0.61452,-0.0018351
486,0.020857,0.19746,-0.04393,-0.089314,-0.27447,-0.61123,-0.0084125
487,0.019541,0.17411,-0.034064,-0.10444,-0.27216,-0.58229,-0.0097279
488,0.025461,0.1455,-0.022225,-0.10576,-0.27775,-0.54085,-0.0064392
489,0.0373,0.10801,-0.0090702,-0.098851,-0.29157,-0.50369,-0.0018351
490,0.044535,0.052099,0.00079584,-0.0903,-0.30965,-0.48955,0.0030979
491,0.0373,-0.021896,0.002769,-0.09326,-0.32445,-0.50237,0.0054
492,0.016581,-0.097207,-0.0031506,-0.11036,-0.33629,-0.53526,0.0063866
493,-0.014332,-0.1518,-0.017621,-0.13371,-0.3455,-0.56749,0.0063866
494,-0.042615,-0.16726,-0.036366,-0.1564,-0.35109,-0.58196,0.0047422
495,-0.059058,-0.13536,-0.052152,-0.17087,-0.35109,-0.57078,0.0001381
496,-0.057743,-0.065307,-0.06136,-0.17613,-0.3455,-0.5346,-0.007097
497,-0.040641,0.02283,-0.057743,-0.17153,-0.3261,-0.47869,-0.01203
498,-0.015648,0.10603,-0.043601,-0.15575,-0.28927,-0.41391,-0.010715
499,0.0063866,0.17049,-0.024198,-0.13075,-0.23599,-0.35043,-0.0015062
500,0.023817,0.21094,-0.0080836,-0.10674,-0.17646,-0.2942,0.010662
501,0.032038,0.23199,0.0014536,-0.091616,-0.12384,-0.25112,0.017897
502,0.02875,0.23626,0.0034268,-0.086354,-0.0903,-0.22349,0.020199
503,0.018226,0.23692,0.0044134,-0.085367,-0.081421,-0.2054,0.019212
504,0.0077021,0.24186,0.0086887,-0.083723,-0.090958,-0.20014,0.016253
505,0.0034268,0.24745,0.014279,-0.07879,-0.10313,-0.20935,0.010991
506,0.0050711,0.24284,0.014608,-0.070897,-0.09622,-0.22612,0.013622
507,0.0057288,0.22212,0.0070443,-0.063004,-0.059716,-0.23106,0.027434
508,0.0024402,0.1843,-0.010715,-0.052152,0.0057288,-0.20672,0.048482
509,-0.0080836,0.14254,-0.028802,-0.035708,0.088932,-0.14687,0.068871
510,-0.018278,0.11393,-0.038997,-0.014003,0.17148,-0.063991,0.085315
511,-0.018936,0.10702,-0.03538,0.0086887,0.22739,0.022172,0.096825
512,-0.0011774,0.11985,-0.022225,0.026447,0.2389,0.10044,0.10505
513,0.028092,0.14254,-0.0084125,0.035985,0.20305,0.17411,0.10834
514,0.054401,0.1649,-0.00051963,0.03434,0.14024,0.25238,0.10406
515,0.069858,0.182,0.002769,0.023817,0.081368,0.35005,0.095181
516,0.076106,0.19088,0.0037556,0.01691,0.050126,0.47667,0.088603
517,0.075778,0.18924,0.0021113,0.018226,0.049468,0.62433,0.088603
518,0.068214,0.17542,0.00079584,0.028092,0.075449,0.7687,0.095181
519,0.051441,0.15273,0.0070443,0.039931,0.11985,0.87427,0.098469
520,0.025461,0.12741,0.01987,0.051441,0.16786,0.91538,0.09255
521,-0.007097,0.096496,0.038287,0.063938,0.21456,0.8792,0.078409
522,-0.040313,0.053415,0.056046,0.080382,0.25205,0.77331,0.059992
523,-0.069911,-0.0077547,0.068214,0.10077,0.27639,0.61972,0.042891
524,-0.094905,-0.082079,0.070187,0.11919,0.27737,0.44148,0.032367
525,-0.11365,-0.16561,0.06624,0.12905,0.25402,0.24876,0.024803
526,-0.12516,-0.25145,0.061636,0.12379,0.21094,0.054072,0.01691
527,-0.12812,-0.33169,0.058676,0.097812,0.1672,-0.12417,0.0040845
528,-0.12549,-0.40108,0.057361,0.050784,0.14089,-0.26296,-0.018278
529,-0.11529,-0.45173,0.051113,-0.0090702,0.13728,-0.34287,-0.047219
530,-0.099838,-0.47014,0.037958,-0.067937,0.15076,-0.35405,-0.074844
531,-0.082079,-0.44679,0.018226,-0.11102,0.16983,-0.31229,-0.09326
532,-0.061689,-0.38003,-0.0018351,-0.12944,0.18102,-0.24585,-0.095891
533,-0.034722,-0.2817,-0.01795,-0.12483,0.18233,-0.17613,-0.081421
534,0.0001381,-0.16693,-0.026829,-0.1051,0.17115,-0.11694,-0.058071
535,0.037629,-0.054454,-0.028144,-0.075173,0.1376,-0.076817,-0.033406
536,0.0692,0.041904,-0.027816,-0.030447,0.06361,-0.062018,-0.013017
537,0.096167,0.11853,-0.031433,0.041575,-0.071884,-0.075173,-0.004466
538,0.1205,0.18397,-0.040641,0.12807,-0.27578,-0.11595,-0.0061104
539,0.14385,0.24251,-0.050507,0.20042,-0.51816,-0.16726,-0.015648
540,0.16391,0.29283,-0.053796,0.23659,-0.74212,-0.20573,-0.027816
541,0.182,0.33164,-0.043601,0.22969,-0.88484,-0.20705,-0.033735
542,0.20173,0.35236,-0.01795,0.19253,-0.89997,-0.1518,-0.0265
543,0.22081,0.35268,0.020857,0.15273,-0.78586,-0.029131,-0.0080836
544,0.22837,0.32637,0.06624,0.13136,-0.57933,0.15865,0.01691
545,0.21061,0.27211,0.10702,0.13267,-0.34517,0.40037,0.036314
546,0.16326,0.182,0.13136,0.14813,-0.14522,0.67366,0.046837
547,0.08663,0.050126,0.13267,0.16523,-0.018936,0.95451,0.045851
548,-0.013345,-0.11825,0.1113,0.17279,0.02283,1.2321,0.035985
549,-0.12154,-0.29749,0.07808,0.16687,-0.0067681,1.5031,0.02875
550,-0.21494,-0.44712,0.047166,0.15306,-0.067609,1.7244,0.035985
551,-0.27184,-0.53624,0.029407,0.13892,-0.10707,1.8263,0.057032
552,-0.28466,-0.56683,0.027763,0.12905,-0.068595,1.756,0.088275
553,-0.26493,-0.55894,0.041247,0.11985,0.079395,1.5195,0.12248
554,-0.23171,-0.54414,0.06624,0.11195,0.32835,1.1791,0.1501
555,-0.20672,-0.54052,0.094523,0.10834,0.62367,0.82165,0.16128
556,-0.19751,-0.55367,0.12017,0.11097,0.90025,0.50791,0.15273
557,-0.20212,-0.57242,0.13662,0.11787,1.088,0.2583,0.1284
558,-0.21132,-0.57933,0.13793,0.12445,1.1393,0.059334,0.094523
559,-0.21165,-0.55894,0.12478,0.12675,1.044,-0.11957,0.054072
560,-0.19916,-0.50369,0.10176,0.12083,0.82691,-0.29913,0.010662
561,-0.17416,-0.40766,0.076106,0.10472,0.53553,-0.47968,-0.027487
562,-0.14259,-0.28137,0.05473,0.074462,0.21292,-0.65233,-0.053467
563,-0.10773,-0.14522,0.036314,0.030065,-0.099838,-0.79934,-0.062347
564,-0.078132,-0.018607,0.017897,-0.020909,-0.36425,-0.90293,-0.060702
565,-0.057743,0.084657,0.0011247,-0.07024,-0.55466,-0.95292,-0.057743
566,-0.043601,0.15734,-0.015976,-0.11168,-0.65628,-0.9493,-0.053796
567,-0.03242,0.20239,-0.030447,-0.13766,-0.67503,-0.90491,-0.048205
568,-0.017292,0.22673,-0.040641,-0.14423,-0.62504,-0.83255,-0.041628
569,0.0047422,0.23824,-0.047219,-0.13338,-0.52079,-0.7408,-0.036695
570,0.030394,0.24613,-0.050179,-0.11266,-0.37411,-0.62701,-0.033406
571,0.053086,0.25665,-0.049192,-0.086025,-0.19554,-0.49382,-0.03242
572,0.0692,0.26849,-0.041628,-0.0584,0.0096753,-0.35109,-0.03242
573,0.07808,0.26948,-0.029131,-0.030775,0.22245,-0.21363,-0.024527
574,0.086301,0.26225,-0.015319,-0.0077547,0.42043,-0.086354,-0.0061104
575,0.097812,0.25139,-0.0028217,0.0021113,0.56974,0.023159,0.013293
576,0.11195,0.24514,0.0054,-0.0031506,0.63979,0.098469,0.020857
577,0.12313,0.24679,0.0070443,-0.014661,0.61578,0.12577,0.014279
578,0.13103,0.25172,-0.0008485,-0.029789,0.50166,0.10209,-0.0015062
579,0.12774,0.25271,-0.013345,-0.046561,0.32341,0.042891,-0.018936
580,0.11327,0.24613,-0.024856,-0.062676,0.11557,-0.024198,-0.036366
581,0.091892,0.23166,-0.029789,-0.077803,-0.087998,-0.07879,-0.048534
582,0.070187,0.21061,-0.025842,-0.086683,-0.26559,-0.11365,-0.057085
583,0.05473,0.18891,-0.016634,-0.084381,-0.38398,-0.13733,-0.057743
584,0.049797,0.17148,-0.007097,-0.07583,-0.40404,-0.17449,-0.048534
585,0.054072,0.15668,0.00046697,-0.063991,-0.27907,-0.24322,-0.02946
586,0.061965,0.14681,0.0073732,-0.052481,0.0093464,-0.35537,-0.0054526
587,0.067556,0.13826,0.012306,-0.044917,0.40859,-0.50632,0.015595
588,0.068871,0.13596,0.017568,-0.042944,0.8029,-0.67766,0.024803
589,0.067885,0.13728,0.023817,-0.043272,1.0604,-0.82795,0.026776
590,0.065583,0.1353,0.026447,-0.045903,1.0841,-0.89603,0.027105
591,0.065254,0.12511,0.023817,-0.053796,0.85388,-0.83387,0.024474
592,0.064596,0.10669,0.014608,-0.060702,0.43983,-0.64082,0.01987
593,0.062294,0.085972,0.0021113,-0.063991,-0.022554,-0.35734,0.022172
594,0.060979,0.071502,-0.0090702,-0.06432,-0.40371,-0.053796,0.029078
595,0.058676,0.069858,-0.016963,-0.065307,-0.63622,0.20338,0.0373
596,0.050455,0.08367,-0.020581,-0.065635,-0.72633,0.36584,0.042233
597,0.042562,0.10834,-0.018278,-0.063991,-0.72501,0.40728,0.038944
598,0.044535,0.13793,-0.013017,-0.064978,-0.68424,0.3221,0.024803
599,0.055717,0.17214,-0.0074258,-0.075501,-0.6405,0.13497,0.0034268
600,0.069858,0.20864,-0.0061104,-0.095891,-0.60761,-0.11529,-0.01795
601,0.079724,0.24679,-0.0074258,-0.12089,-0.58952,-0.38069,-0.035051
602,0.080053,0.27935,-0.010057,-0.14456,-0.57735,-0.62241,-0.048863
603,0.070845,0.29513,-0.014332,-0.16364,-0.55729,-0.80986,-0.062018
604,0.057361,0.28888,-0.022225,-0.17679,-0.51388,-0.9276,-0.072213
605,0.044535,0.26356,-0.028473,-0.17811,-0.42772,-0.9789,-0.072213
606,0.037629,0.23067,-0.031433,-0.16594,-0.28828,-0.98153,-0.058729
607,0.036314,0.20272,-0.026171,-0.14555,-0.11464,-0.94536,-0.037682
608,0.036971,0.17871,-0.015648,-0.11529,0.07216,-0.85393,-0.015648
609,0.039931,0.15471,-0.0038083,-0.065635,0.25074,-0.67338,0.0063866
610,0.044864,0.12116,0.0047422,0.010662,0.4007,-0.39089,0.02579
611,0.047824,0.080711,0.0070443,0.11195,0.50791,-0.033406,0.041247
612,0.048482,0.04322,0.0080309,0.22344,0.55691,0.32703,0.054072
613,0.049797,0.020199,0.014937,0.32144,0.5306,0.61216,0.063938
614,0.05473,0.011648,0.029407,0.37702,0.41188,0.78679,0.07216
615,0.065583,0.0093464,0.043877,0.3711,0.19154,0.87493,0.076435
616,0.079724,0.0037556,0.050784,0.3073,-0.1074,0.93346,0.069858
617,0.086301,-0.0084125,0.043877,0.21226,-0.42015,1.0055,0.050784
618,0.083342,-0.028144,0.024803,0.11886,-0.6645,1.1078,0.026119
619,0.073147,-0.048863,-0.0008485,0.054401,-0.78092,1.2173,0.0073732
620,0.060321,-0.063662,-0.019923,0.026119,-0.75165,1.2985,0.0017824
621,0.046508,-0.073199,-0.030118,0.027434,-0.60333,1.3202,0.0096753
622,0.035656,-0.080106,-0.031104,0.043877,-0.3899,1.265,0.023817
623,0.026447,-0.091616,-0.023211,0.060321,-0.17318,1.1295,0.034011
624,0.01987,-0.11003,-0.013674,0.068543,-0.00019077,0.92327,0.033683
625,0.014279,-0.13601,-0.0031506,0.063938,0.11393,0.66938,0.021514
626,0.0067154,-0.17022,0.0054,0.052099,0.19022,0.40333,0.0011247
627,-0.0057815,-0.20902,0.013293,0.038287,0.25929,0.1626,-0.018278
628,-0.01499,-0.24059,0.018555,0.028421,0.32276,-0.037024,-0.028802
629,-0.01203,-0.24684,0.020199,0.024474,0.34479,-0.2031,-0.024527
630,0.0057288,-0.22448,0.01691,0.023817,0.28,-0.35471,-0.0097279
631,0.035327,-0.17745,0.0093464,0.020857,0.11754,-0.50434,0.0063866
632,0.068543,-0.11957,-0.0061104,0.0070443,-0.098193,-0.64773,0.017239
633,0.091563,-0.0584,-0.026829,-0.018936,-0.29518,-0.75757,0.025132
634,0.09551,-0.0057815,-0.048534,-0.052152,-0.41818,-0.80065,0.032367
635,0.082355,0.029078,-0.066622,-0.079119,-0.44186,-0.75922,0.037958
636,0.05473,0.045193,-0.075173,-0.091287,-0.36425,-0.6405,0.034669
637,0.021843,0.048153,-0.068266,-0.080434,-0.20803,-0.4685,0.024474
638,-0.01203,0.042891,-0.042944,-0.051165,-0.0038083,-0.28565,0.016253
639,-0.041299,0.030065,-0.0077547,-0.016305,0.22147,-0.12878,0.016253
640,-0.06432,0.019212,0.027105,0.012306,0.45924,-0.019594,0.02579
641,-0.078461,0.025132,0.052428,0.031381,0.70194,0.041247,0.036971
642,-0.086025,0.049468,0.064267,0.045851,0.92689,0.072818,0.042891
643,-0.087998,0.073804,0.067227,0.060321,1.092,0.096496,0.04026
644,-0.091945,0.06361,0.065254,0.074791,1.1581,0.13037,0.034669
645,-0.10576,-0.0047949,0.065912,0.087617,1.0999,0.18496,0.02579
646,-0.13042,-0.1245,0.067556,0.095839,0.91866,0.27178,0.01987
647,-0.15805,-0.26493,0.068871,0.097154,0.63617,0.3905,0.024803
648,-0.17811,-0.38595,0.064925,0.087617,0.28987,0.51843,0.037629
649,-0.18238,-0.4514,0.055388,0.068543,-0.065307,0.61874,0.052099
650,-0.17285,-0.44778,0.039931,0.043877,-0.37082,0.64702,0.055388
651,-0.15673,-0.38661,0.020199,0.01691,-0.57998,0.57894,0.048482
652,-0.1393,-0.29814,-0.0038083,-0.0097279,-0.6747,0.42372,0.035985
653,-0.12154,-0.21428,-0.026829,-0.031433,-0.66944,0.21489,0.021843
654,-0.10247,-0.14917,-0.049192,-0.04985,-0.60004,-0.0018351,0.0063866
655,-0.078132,-0.10905,-0.062676,-0.06728,-0.51092,-0.19126,-0.0080836
656,-0.055769,-0.088985,-0.065635,-0.082736,-0.43594,-0.33531,-0.016305
657,-0.038997,-0.083723,-0.058729,-0.090629,-0.38661,-0.43134,-0.015319
658,-0.027816,-0.087341,-0.044259,-0.086683,-0.3557,-0.4879,-0.0084125
659,-0.02354,-0.09326,-0.027487,-0.077146,-0.32708,-0.51487,0.0014536
660,-0.031433,-0.098193,-0.01203,-0.072213,-0.29255,-0.52638,0.010662
661,-0.050836,-0.092274,-0.0051238,-0.074515,-0.25243,-0.53394,0.017568
662,-0.073199,-0.06728,-0.0064392,-0.073857,-0.20277,-0.54808,0.024474
663,-0.088985,-0.023869,-0.010057,-0.057743,-0.13305,-0.57966,0.032038
664,-0.088327,0.028421,-0.0097279,-0.024527,-0.024856,-0.62964,0.042562
665,-0.070568,0.073804,-0.0018351,0.022172,0.12577,-0.67634,0.056703
666,-0.041299,0.099127,0.01132,0.071173,0.30533,-0.68588,0.074791
667,-0.01203,0.099785,0.021514,0.11261,0.47897,-0.63556,0.092879
668,0.01132,0.080382,0.025132,0.13629,0.60493,-0.52112,0.10866
669,0.027105,0.05769,0.020857,0.13267,0.65261,-0.35899,0.11458
670,0.033354,0.044206,0.013622,0.096496,0.6138,-0.17581,0.10998
671,0.033025,0.043877,0.0044134,0.029078,0.49607,-0.0061104,0.096825
672,0.031052,0.054401,-0.0041372,-0.054783,0.31552,0.1307,0.079724
673,0.033025,0.078409,-0.01499,-0.13601,0.10406,0.23594,0.061636
674,0.047495,0.11886,-0.025842,-0.1906,-0.089643,0.32901,0.044864
675,0.074791,0.17871,-0.033735,-0.20113,-0.21264,0.42207,0.032367
676,0.10439,0.24416,-0.036695,-0.16791,-0.24388,0.50561,0.030394
677,0.13004,0.30039,-0.036695,-0.10641,-0.20771,0.55428,0.039931
678,0.14616,0.33229,-0.034722,-0.036366,-0.1564,0.54869,0.056046
679,0.14879,0.33821,-0.031104,0.020199,-0.12615,0.48324,0.068214
680,0.13464,0.32177,-0.027487,0.056046,-0.12516,0.37834,0.070187
681,0.10899,0.29184,-0.025185,0.070845,-0.14029,0.26915,0.058676
682,0.081697,0.25929,-0.022225,0.072489,-0.16265,0.18858,0.033683
683,0.060979,0.231,-0.016963,0.068871,-0.18567,0.14813,0.0014536
684,0.047166,0.20502,-0.0034794,0.065912,-0.2054,0.133,-0.023211
685,0.036642,0.17312,0.017568,0.062952,-0.22053,0.11228,-0.037353
686,0.024474,0.1307,0.036971,0.061636,-0.23138,0.06361,-0.04689
687,0.010662,0.07808,0.051441,0.062952,-0.23467,-0.020252,-0.056098
688,-0.0061104,0.017239,0.056046,0.066569,-0.22678,-0.12384,-0.066622
689,-0.021567,-0.044259,0.049139,0.07216,-0.20113,-0.22251,-0.078132
690,-0.030775,-0.096549,0.031709,0.075778,-0.15673,-0.28367,-0.087998
691,-0.034393,-0.13272,0.0057288,0.077751,-0.091945,-0.29288,-0.09326
692,-0.033078,-0.15048,-0.018936,0.082026,-0.014332,-0.2646,-0.087998
693,-0.026171,-0.14423,-0.034064,0.090577,0.063281,-0.23303,-0.068924
694,-0.012688,-0.1176,-0.038011,0.10077,0.12149,-0.22546,-0.038339
695,0.0073732,-0.075501,-0.033078,0.1057,0.14879,-0.23369,-0.0057815
696,0.029078,-0.032091,-0.026829,0.10603,0.14451,-0.20343,0.014608
697,0.050126,-0.002164,-0.022554,0.10735,0.12544,-0.069911,0.02283
698,0.061965,0.0040845,-0.015648,0.1136,0.10866,0.19187,0.020528
699,0.06065,-0.016963,-0.0054526,0.12017,0.10077,0.53553,0.011648
700,0.047166,-0.058729,0.0060577,0.12083,0.093536,0.85717,-0.0051238
701,0.019541,-0.11266,0.013951,0.11491,0.076435,1.0611,-0.027158
702,-0.01499,-0.17318,0.016253,0.099785,0.044864,1.1045,-0.053796
703,-0.04985,-0.24092,0.015595,0.080382,0.010004,1.0157,-0.079777
704,-0.079119,-0.31525,0.013622,0.061636,-0.016963,0.86309,-0.097207
705,-0.10214,-0.38332,0.013951,0.049139,-0.030447,0.71904,-0.1028
706,-0.12056,-0.42936,0.015924,0.044206,-0.030775,0.63123,-0.095891
707,-0.13174,-0.4514,0.018884,0.046837,-0.019923,0.60197,-0.082079
708,-0.13437,-0.45304,0.018884,0.055717,-0.0011774,0.59572,-0.071555
709,-0.13207,-0.43824,0.013293,0.06624,0.020528,0.57335,-0.068924
710,-0.12417,-0.40667,0.0037556,0.071831,0.034011,0.5158,-0.071555
711,-0.11003,-0.35339,-0.0077547,0.067227,0.029407,0.41977,-0.076159
712,-0.092274,-0.28203,-0.019265,0.05177,0.0083598,0.29776,-0.086683
713,-0.072542,-0.19718,-0.028473,0.027763,-0.024198,0.16622,-0.10346
714,-0.056098,-0.10313,-0.036366,0.0011247,-0.063991,0.041575,-0.11891
715,-0.041299,-0.0038083,-0.038668,-0.020909,-0.11595,-0.063662,-0.1268
716,-0.02354,0.096496,-0.036037,-0.034393,-0.17778,-0.14522,-0.1199
717,-0.0041372,0.18957,-0.027816,-0.039984,-0.23632,-0.2031,-0.10247
718,0.018226,0.26652,-0.019265,-0.041299,-0.27808,-0.23796,-0.081092
719,0.042233,0.32506,-0.013674,-0.042286,-0.29716,-0.24849,-0.066622
720,0.06361,0.36518,-0.011372,-0.047877,-0.29584,-0.24388,-0.063333
721,0.082684,0.38393,-0.0084125,-0.059058,-0.27808,-0.24289,-0.060045
722,0.096167,0.37768,-0.0074258,-0.06728,-0.24421,-0.26263,-0.046232
723,0.10373,0.3415,-0.010057,-0.069911,-0.19784,-0.30242,-0.022554
724,0.10801,0.28362,-0.016963,-0.074186,-0.14226,-0.34386,0.0047422
725,0.11195,0.22212,-0.0265,-0.091287,-0.075501,-0.36786,0.027763
726,0.11491,0.17444,-0.037353,-0.12384,-0.00051963,-0.36819,0.043877
727,0.11064,0.14418,-0.045246,-0.16528,0.07512,-0.358,0.053415
728,0.094523,0.12642,-0.045246,-0.20409,0.14188,-0.358,0.05473
729,0.069529,0.1136,-0.039984,-0.22941,0.18924,-0.38398,0.04618
730,0.045522,0.097812,-0.028144,-0.23665,0.21719,-0.44416,0.025132
731,0.030394,0.07512,-0.011701,-0.2304,0.23298,-0.52145,0.0037556
732,0.026776,0.050126,0.0080309,-0.21691,0.24317,-0.58294,-0.0067681
733,0.030723,0.028092,0.026119,-0.17942,0.24186,-0.60169,-0.0034794
734,0.030394,0.017568,0.038944,-0.09326,0.22015,-0.57275,0.010004
735,0.017568,0.018884,0.04322,0.04618,0.16918,-0.50698,0.027763
736,-0.007097,0.031052,0.041247,0.20897,0.086959,-0.42344,0.045193
737,-0.034393,0.04322,0.032038,0.34117,-0.016634,-0.34419,0.058019
738,-0.062018,0.041247,0.014279,0.41024,-0.11102,-0.29288,0.060979
739,-0.087998,0.024145,-0.0074258,0.40826,-0.16331,-0.28532,0.050455
740,-0.10378,0.0083598,-0.028473,0.34907,-0.16265,-0.32018,0.035327
741,-0.10543,0.010333,-0.046232,0.25863,-0.12549,-0.38102,0.023159
742,-0.087998,0.040589,-0.056098,0.1626,-0.08471,-0.44877,0.018555
743,-0.0584,0.098141,-0.0584,0.081039,-0.06136,-0.51158,0.021514
744,-0.024856,0.17115,-0.052152,0.020528,-0.05281,-0.56387,0.03434
745,0.0077021,0.24482,-0.039326,-0.020909,-0.047548,-0.59117,0.056374
746,0.03434,0.30072,-0.019594,-0.04097,-0.028802,-0.5711,0.085644
747,0.053086,0.32473,0.0021113,-0.042286,0.0057288,-0.47146,0.11787
748,0.061636,0.31223,0.020199,-0.029789,0.053743,-0.26624,0.1501
749,0.061307,0.27803,0.032367,-0.010386,0.096825,0.02579,0.18069
750,0.056046,0.23955,0.040918,0.0083598,0.1159,0.3415,0.20206
751,0.050126,0.20502,0.049468,0.015924,0.10406,0.61216,0.20864
752,0.050455,0.17707,0.059005,0.0083598,0.074133,0.79238,0.19746
753,0.056703,0.15832,0.071831,-0.012359,0.039602,0.87591,0.17082
754,0.060321,0.14616,0.083342,-0.039326,0.01987,0.86572,0.13958
755,0.05769,0.13037,0.087946,-0.065635,0.024803,0.76508,0.11162
756,0.045851,0.10011,0.084657,-0.078461,0.045851,0.57434,0.093865
757,0.033354,0.052757,0.07512,-0.074186,0.07808,0.32637,0.081368
758,0.030065,-0.002164,0.062623,-0.057414,0.11458,0.095839,0.074133
759,0.040589,-0.055112,0.050126,-0.03538,0.15569,-0.035051,0.074791
760,0.057032,-0.098522,0.042233,-0.01499,0.21127,-0.029789,0.085972
761,0.065254,-0.13174,0.040918,0.002769,0.28461,0.086301,0.10209
762,0.061965,-0.16134,0.044206,0.021186,0.36551,0.25731,0.11721
763,0.049139,-0.18995,0.047495,0.038287,0.4372,0.4224,0.13267
764,0.031381,-0.21757,0.050784,0.05473,0.47963,0.54507,0.1501
765,0.015266,-0.2327,0.056046,0.077422,0.48292,0.6046,0.16227
766,0.0057288,-0.22941,0.060321,0.10965,0.45069,0.60624,0.16293
767,0.002769,-0.21264,0.056703,0.14418,0.40629,0.5727,0.1501
768,0.0083598,-0.18797,0.04618,0.17214,0.38162,0.52337,0.13234
769,0.023488,-0.15903,0.033683,0.18365,0.36354,0.45989,0.11327
770,0.048153,-0.12615,0.025132,0.17279,0.31289,0.3734,0.093536
771,0.075449,-0.086025,0.018555,0.14122,0.1991,0.26192,0.070187
772,0.096496,-0.045246,0.01132,0.096825,0.023159,0.1307,0.039602
773,0.10702,-0.012359,0.0047422,0.047824,-0.16693,-0.002164,0.0034268
774,0.10998,0.0057288,-0.0024928,0.0034268,-0.30308,-0.11036,-0.031104
775,0.10932,0.0077021,-0.0097279,-0.024856,-0.358,-0.1689,-0.058729
776,0.1057,0.00079584,-0.010057,-0.03242,-0.38003,-0.17186,-0.073857
777,0.10044,-0.004466,0.0014536,-0.020909,-0.42311,-0.13174,-0.07287
778,0.092879,0.0001381,0.023817,-0.00051963,-0.48395,-0.074186,-0.061689
779,0.084986,0.014279,0.051441,0.022501,-0.53328,-0.0265,-0.047877
780,0.072489,0.026776,0.078409,0.032367,-0.55959,-0.018278,-0.04097
781,0.04618,0.025132,0.092221,0.024474,-0.57933,-0.068595,-0.047877
782,0.0017824,0.0034268,0.082684,-0.0047949,-0.60596,-0.16989,-0.07024
783,-0.051823,-0.03242,0.052099,-0.049521,-0.64017,-0.29979,-0.10115
784,-0.1005,-0.068924,0.012635,-0.097864,-0.66582,-0.4264,-0.13305
785,-0.13272,-0.089972,-0.02354,-0.14127,-0.66154,-0.51553,-0.15936
786,-0.15147,-0.086683,-0.047877,-0.17087,-0.60892,-0.55466,-0.17482
787,-0.15903,-0.055769,-0.057085,-0.17745,-0.49185,-0.5369,-0.17877
788,-0.15607,0.0034268,-0.05281,-0.15673,-0.3067,-0.46389,-0.17252
789,-0.14621,0.086301,-0.037024,-0.11628,-0.071555,-0.34419,-0.15476
790,-0.12944,0.18167,-0.01499,-0.068266,0.17181,-0.20771,-0.12615
791,-0.10674,0.26455,0.0080309,-0.027158,0.37899,-0.087341,-0.094247
792,-0.078132,0.31158,0.024474,0.002769,0.52929,0.0080309,-0.073199
793,-0.046561,0.30368,0.029407,0.026776,0.6388,0.092221,-0.058729
794,-0.014332,0.24712,0.025132,0.055388,0.7368,0.19187,-0.041957
795,0.015266,0.16852,0.017568,0.090905,0.84631,0.31848,-0.014332
796,0.041904,0.096496,0.011977,0.12971,0.96898,0.46022,0.021843
797,0.067556,0.044206,0.0083598,0.16359,1.0897,0.5967,0.062294
798,0.092221,0.010004,0.0063866,0.19318,1.2008,0.70359,0.098798
799,0.11426,-0.01499,0.0086887,0.22147,1.3005,0.77199,0.12675
800,0.13234,-0.031433,0.015924,0.24547,1.3896,0.80389,0.14648
801,0.1432,-0.031762,0.02579,0.256,1.4557,0.79896,0.16194
802,0.14583,-0.0074258,0.037629,0.23922,1.4629,0.75061,0.17049
803,0.14254,0.045522,0.042562,0.18726,1.3626,0.64702,0.17181
804,0.13892,0.1205,0.033025,0.10636,1.1374,0.48653,0.16424
805,0.133,0.20009,0.0050711,0.016581,0.8177,0.28132,0.14024
806,0.12281,0.26553,-0.03242,-0.0584,0.46417,0.051113,0.10143
807,0.10143,0.30105,-0.065964,-0.10247,0.13826,-0.17877,0.054401
808,0.067556,0.3027,-0.089314,-0.11694,-0.11661,-0.38299,0.0067154
809,0.027105,0.27376,-0.099509,-0.11398,-0.28894,-0.55631,-0.034393
810,-0.011043,0.22147,-0.10181,-0.10477,-0.38793,-0.71087,-0.064978
811,-0.041628,0.15405,-0.095562,-0.091287,-0.43791,-0.8559,-0.086354
812,-0.063662,0.082026,-0.078461,-0.079448,-0.45962,-0.99074,-0.10181
813,-0.082079,0.018555,-0.052481,-0.075173,-0.47804,-1.1035,-0.11003
814,-0.099838,-0.02354,-0.016963,-0.074844,-0.51092,-1.1838,-0.11036
815,-0.11497,-0.041957,0.023488,-0.08175,-0.57012,-1.2229,-0.10641
816,-0.12384,-0.039655,0.060321,-0.09918,-0.65727,-1.2203,-0.10017
817,-0.12615,-0.026171,0.087288,-0.12352,-0.7579,-1.1792,-0.092931
818,-0.12384,-0.007097,0.098141,-0.14588,-0.85327,-1.1114,-0.077475
819,-0.12549,0.0073732,0.090577,-0.15509,-0.92431,-1.0345,-0.056098
820,-0.13272,0.0093464,0.069858,-0.14917,-0.96015,-0.9595,-0.040641
821,-0.1393,-0.002164,0.045851,-0.13996,-0.95621,-0.88287,-0.034064
822,-0.13437,-0.014332,0.026119,-0.13634,-0.90951,-0.79737,-0.035708
823,-0.11201,-0.01203,0.016253,-0.14127,-0.82663,-0.68851,-0.036695
824,-0.078132,0.0093464,0.01132,-0.14687,-0.71745,-0.53855,-0.034722
825,-0.042615,0.040589,0.0080309,-0.14719,-0.59544,-0.34616,-0.028802
826,-0.019265,0.064267,0.0057288,-0.14029,-0.47113,-0.1199,-0.022225
827,-0.012359,0.07216,0.0037556,-0.12615,-0.35504,0.11919,-0.015648
828,-0.015319,0.066569,-0.0011774,-0.10477,-0.25769,0.34709,-0.0067681
829,-0.017621,0.056703,-0.013017,-0.082079,-0.18995,0.55527,0.002769
830,-0.012359,0.050455,-0.029131,-0.063662,-0.15377,0.74765,0.010662
831,0.0001381,0.044535,-0.043601,-0.049192,-0.14127,0.92886,0.018884
832,0.017568,0.033683,-0.053467,-0.035708,-0.14391,1.0976,0.028092
833,0.033683,0.0080309,-0.056098,-0.028802,-0.15575,1.2462,0.039602
834,0.04026,-0.036695,-0.056427,-0.0265,-0.17416,1.3689,0.063281
835,0.033354,-0.093918,-0.056427,-0.025842,-0.19587,1.4445,0.097154
836,0.017239,-0.14654,-0.056427,-0.0265,-0.21626,1.4386,0.13333
837,-0.0047949,-0.18107,-0.051823,-0.028144,-0.22974,1.3409,0.15503
838,-0.027158,-0.19225,-0.044259,-0.028802,-0.23402,1.1749,0.15109
839,-0.047219,-0.19028,-0.032749,-0.025514,-0.2304,0.98181,0.12281
840,-0.062347,-0.19093,-0.020581,-0.01499,-0.22842,0.79435,0.086959
841,-0.068595,-0.21198,-0.010057,0.0034268,-0.23106,0.62203,0.061965
842,-0.067937,-0.26164,-0.0024928,0.026119,-0.23632,0.4543,0.051441
843,-0.066622,-0.33662,0.00046697,0.047495,-0.24454,0.26948,0.049797
844,-0.067609,-0.42279,-0.0041372,0.058348,-0.26263,0.059663,0.049139
845,-0.071226,-0.50204,-0.013674,0.057361,-0.29486,-0.15673,0.047824
846,-0.075173,-0.55565,-0.02946,0.048482,-0.33827,-0.33235,0.037629
847,-0.078132,-0.5688,-0.047219,0.036314,-0.37674,-0.4195,0.013951
848,-0.078461,-0.5323,-0.059387,0.027763,-0.38727,-0.40272,-0.017292
849,-0.076488,-0.45041,-0.063991,0.028092,-0.35438,-0.30374,-0.04393
850,-0.071555,-0.34353,-0.063991,0.034011,-0.284,-0.16923,-0.059058
851,-0.06432,-0.24125,-0.06432,0.044206,-0.19751,-0.0584,-0.062676
852,-0.05281,-0.16068,-0.062676,0.058348,-0.11497,-0.011372,-0.053138
853,-0.037682,-0.10839,-0.058729,0.070187,-0.051823,-0.039326,-0.038997
854,-0.020909,-0.08471,-0.049521,0.076435,-0.012359,-0.12483,-0.030775
855,-0.0008485,-0.079448,-0.039655,0.074133,0.0063866,-0.235,-0.037682
856,0.018226,-0.078461,-0.032091,0.065912,0.012635,-0.34451,-0.056427
857,0.033354,-0.066293,-0.029131,0.055717,0.014279,-0.43166,-0.074515
858,0.044864,-0.041299,-0.028802,0.047495,0.014608,-0.4856,-0.081092
859,0.056703,-0.0041372,-0.029789,0.043877,0.020528,-0.5004,-0.073857
860,0.07216,0.040918,-0.030447,0.043549,0.038287,-0.47212,-0.0584
861,0.085972,0.088275,-0.030775,0.046508,0.065583,-0.40174,-0.044588
862,0.090248,0.12938,-0.032091,0.050126,0.093208,-0.29288,-0.038997
863,0.085972,0.15602,-0.036695,0.05473,0.11064,-0.15805,-0.04393
864,0.07808,0.16523,-0.04097,0.064267,0.12083,-0.014003,-0.053467
865,0.07216,0.1649,-0.041628,0.077751,0.13629,0.12445,-0.057743
866,0.070845,0.16654,-0.039655,0.090905,0.17378,0.23857,-0.049521
867,0.077093,0.17674,-0.035051,0.099456,0.23298,0.30072,-0.02946
868,0.091563,0.19121,-0.025842,0.10801,0.30401,0.29316,-0.0054526
869,0.10669,0.19746,-0.01499,0.11985,0.3734,0.22179,0.014608
870,0.11557,0.18858,-0.0064392,0.13333,0.41846,0.11031,0.02283
871,0.1113,0.1649,-0.00019077,0.13859,0.42438,-0.013017,0.015924
872,0.096167,0.13169,0.0070443,0.13037,0.38656,-0.12319,-0.0011774
873,0.074133,0.090248,0.012635,0.11162,0.32243,-0.20475,-0.017292
874,0.055388,0.044206,0.018555,0.089919,0.25665,-0.26032,-0.02946
875,0.044864,-0.0054526,0.023159,0.070845,0.20272,-0.30176,-0.036037
876,0.039273,-0.051823,0.025461,0.05769,0.16128,-0.34715,-0.034722
877,0.03434,-0.088656,0.023817,0.04881,0.12248,-0.40272,-0.031433
878,0.023817,-0.10839,0.020857,0.044535,0.068543,-0.4662,-0.031433
879,0.0070443,-0.10641,0.020857,0.045522,-0.013345,-0.52145,-0.033735
880,-0.013345,-0.087012,0.024145,0.054401,-0.13075,-0.5471,-0.037024
881,-0.028473,-0.062347,0.027434,0.070516,-0.27216,-0.53822,-0.041299
882,-0.036037,-0.045246,0.029078,0.08663,-0.40272,-0.50336,-0.040313
883,-0.037024,-0.039984,0.026119,0.09551,-0.49448,-0.45666,-0.033406
884,-0.03242,-0.044588,0.017897,0.092221,-0.53493,-0.40338,-0.01795
885,-0.020581,-0.04689,0.0090175,0.077751,-0.50632,-0.34583,0.0067154
886,-0.0018351,-0.037024,0.0050711,0.056374,-0.3899,-0.28433,0.034011
887,0.018884,-0.0084125,0.0096753,0.032367,-0.1883,-0.22119,0.052099
888,0.037629,0.0373,0.020199,0.0070443,0.061965,-0.16824,0.060979
889,0.052099,0.089919,0.034011,-0.01203,0.30862,-0.137,0.062294
890,0.059334,0.13925,0.045193,-0.021238,0.49837,-0.1347,0.062623
891,0.06065,0.17937,0.052099,-0.022554,0.60262,-0.15805,0.068543
892,0.057032,0.20404,0.053743,-0.019594,0.62499,-0.19159,0.083013
893,0.056374,0.21456,0.050126,-0.01203,0.59243,-0.19948,0.10307
894,0.059663,0.21226,0.043877,-0.0047949,0.53718,-0.13897,0.11985
895,0.059005,0.19943,0.036642,-0.0047949,0.47897,0.0083598,0.12708
896,0.048482,0.1751,0.029407,-0.011043,0.42865,0.21588,0.12708
897,0.028092,0.14583,0.021843,-0.016634,0.39313,0.42701,0.12248
898,0.0070443,0.12149,0.01691,-0.019594,0.3711,0.57697,0.11754
899,-0.0090702,0.10702,0.015266,-0.024527,0.35038,0.62564,0.11524
900,-0.014661,0.094852,0.017239,-0.02946,0.32572,0.57171,0.11886
901,-0.011372,0.080053,0.022172,-0.030447,0.29678,0.44049,0.12379
902,-0.0047949,0.061965,0.02579,-0.025514,0.26553,0.27902,0.12445
903,-0.0018351,0.039273,0.024145,-0.01795,0.23495,0.13464,0.12346
904,-0.0067681,0.014608,0.01987,-0.0064392,0.20798,0.041575,0.12609
905,-0.019594,-0.0093991,0.015924,0.0077021,0.18924,0.0083598,0.13333
906,-0.035708,-0.024856,0.014937,0.020199,0.18069,0.017897,0.14188
907,-0.045903,-0.0265,0.014937,0.030394,0.18167,0.042233,0.14846
908,-0.045246,-0.0061104,0.017568,0.040918,0.18726,0.05177,0.15142
909,-0.035051,0.038287,0.023817,0.052099,0.19384,0.038287,0.14912
910,-0.016305,0.094523,0.030723,0.061307,0.19187,0.0037556,0.1455
911,0.0040845,0.1501,0.03434,0.060979,0.1751,-0.033735,0.13793
912,0.022172,0.19154,0.03434,0.04881,0.14648,-0.054783,0.12379
913,0.035656,0.21719,0.030394,0.031052,0.11294,-0.049521,0.10373
914,0.046508,0.23133,0.025461,0.010662,0.081697,-0.025514,0.080711
915,0.053086,0.23824,0.020199,-0.0064392,0.058019,0.0047422,0.058348
916,0.05473,0.23857,0.015924,-0.019265,0.047166,0.032696,0.035656
917,0.048153,0.231,0.013622,-0.0265,0.050455,0.052757,0.011648
918,0.035985,0.21423,0.012635,-0.028802,0.065912,0.065583,-0.012688
919,0.025461,0.18957,0.0077021,-0.024198,0.082684,0.074462,-0.035708
920,0.01987,0.16128,-0.0031506,-0.015648,0.087946,0.088275,-0.052152
921,0.021186,0.12708,-0.016305,-0.0067681,0.071831,0.11491,-0.063004
922,0.026119,0.087617,-0.02354,-0.0018351,0.033683,0.14352,-0.069911
923,0.029736,0.049139,-0.024527,0.00079584,-0.013674,0.16326,-0.073857
924,0.027105,0.015266,-0.018607,0.0001381,-0.058071,0.17246,-0.074844
925,0.015924,-0.0077547,-0.0090702,-0.004466,-0.10214,0.17707,-0.072213
926,0.0037556,-0.018936,-0.0018351,-0.011701,-0.14456,0.18891,-0.061689
927,-0.0018351,-0.021567,0.002769,-0.01203,-0.17383,0.21292,-0.044588
928,0.0017824,-0.020581,0.0083598,0.00079584,-0.18765,0.23331,-0.028144
929,0.010333,-0.022225,0.016581,0.026447,-0.19685,0.23626,-0.019265
930,0.014279,-0.033406,0.026119,0.055388,-0.22744,0.21259,-0.024198
931,0.010333,-0.055769,0.035985,0.076435,-0.30933,0.16983,-0.04393
932,-0.0028217,-0.082408,0.043549,0.085644,-0.44416,0.12577,-0.068924
933,-0.017292,-0.097207,0.047166,0.082355,-0.60202,0.098798,-0.091945
934,-0.027816,-0.086025,0.045522,0.071502,-0.73981,0.091234,-0.10378
935,-0.0265,-0.045903,0.040589,0.058676,-0.82269,0.092221,-0.10017
936,-0.0077547,0.016581,0.032696,0.049797,-0.83058,0.090905,-0.085367
937,0.025132,0.088603,0.02283,0.043549,-0.76645,0.082026,-0.065635
938,0.061965,0.15602,0.013951,0.031381,-0.6497,0.061965,-0.043272
939,0.093865,0.20963,0.0096753,0.0080309,-0.50994,0.024803,-0.025842
940,0.11689,0.24876,0.0086887,-0.024856,-0.36721,-0.034722,-0.015319
941,0.13432,0.28329,0.01132,-0.061689,-0.22218,-0.1199,-0.011701
942,0.14648,0.32506,0.01691,-0.095233,-0.065635,-0.22119,-0.01203
943,0.15701,0.37274,0.024803,-0.11727,0.11162,-0.3284,-0.013345
944,0.1649,0.4224,0.030394,-0.12779,0.33229,-0.42903,-0.013017
945,0.16556,0.46022,0.031052,-0.12417,0.5921,-0.50763,-0.013345
946,0.15175,0.46713,0.023817,-0.093918,0.83151,-0.54776,-0.011701
947,0.11787,0.42207,0.0086887,-0.029789,0.96109,-0.52473,-0.0028217
948,0.065583,0.31454,-0.016305,0.056703,0.92787,-0.41193,0.013622
949,-0.00051963,0.15438,-0.04393,0.1353,0.74239,-0.21691,0.034011
950,-0.068595,-0.036695,-0.065307,0.17279,0.46483,0.019212,0.054401
951,-0.13305,-0.23632,-0.069911,0.16424,0.18463,0.24547,0.074462
952,-0.18567,-0.4241,-0.056098,0.13333,-0.0084125,0.42832,0.095839
953,-0.21691,-0.57801,-0.024198,0.10702,-0.06136,0.56382,0.11458
954,-0.22086,-0.68719,0.017239,0.098469,0.018884,0.65623,0.12083
955,-0.20573,-0.751,0.056703,0.10603,0.17378,0.70983,0.1113
956,-0.18633,-0.78849,0.082355,0.1205,0.33361,0.72825,0.090577
957,-0.17285,-0.81874,0.091892,0.1307,0.45134,0.71115,0.060979
958,-0.17613,-0.85262,0.091234,0.13432,0.50692,0.66445,0.023817
959,-0.20014,-0.88978,0.084986,0.13399,0.49969,0.5967,-0.012688
960,-0.23632,-0.91707,0.074791,0.1353,0.44115,0.5181,-0.045574
961,-0.27216,-0.91444,0.061965,0.14122,0.35268,0.45102,-0.073528
962,-0.29255,-0.86347,0.043877,0.14944,0.27211,0.41681,-0.092931
963,-0.28696,-0.75001,0.024803,0.15635,0.24218,0.42898,-0.09918
964,-0.25802,-0.58229,0.0057288,0.15471,0.30927,0.48949,-0.092274
965,-0.21231,-0.39121,-0.012359,0.14352,0.48686,0.575,-0.074515
966,-0.15805,-0.20902,-0.032749,0.11754,0.72693,0.64834,-0.05281
967,-0.10773,-0.060045,-0.054783,0.076435,0.93215,0.67432,-0.034722
968,-0.064649,0.043877,-0.073528,0.026447,0.99628,0.63189,-0.022554
969,-0.033735,0.10669,-0.082736,-0.020581,0.86144,0.52369,-0.015319
970,-0.014332,0.14287,-0.080434,-0.062018,0.54145,0.36847,-0.015648
971,-0.004466,0.17082,-0.071884,-0.091945,0.10998,0.19055,-0.022883
972,0.002769,0.20404,-0.062347,-0.11398,-0.34188,0.015924,-0.035051
973,0.015266,0.2458,-0.051494,-0.13075,-0.73455,-0.13437,-0.045246
974,0.036642,0.29645,-0.038997,-0.14259,-1.0276,-0.24881,-0.049192
975,0.062294,0.34413,-0.027816,-0.14851,-1.1946,-0.32741,-0.04097
976,0.084657,0.37636,-0.01795,-0.14391,-1.2249,-0.39089,-0.019923
977,0.10274,0.39017,-0.0077547,-0.13272,-1.1269,-0.45962,0.0096753
978,0.11787,0.39445,0.0034268,-0.11464,-0.93023,-0.53197,0.047166
979,0.1284,0.39971,0.012635,-0.095891,-0.68095,-0.57966,0.081697
980,0.13037,0.40793,0.016581,-0.083065,-0.43693,-0.56486,0.10274
981,0.12807,0.41352,0.013622,-0.084381,-0.23928,-0.48198,0.10899
982,0.12971,0.41846,0.0077021,-0.094247,-0.1051,-0.36984,0.10538
983,0.14155,0.42701,0.0073732,-0.099509,-0.02354,-0.27775,0.098469
984,0.15898,0.44312,0.017568,-0.093589,0.036314,-0.23007,0.099456
985,0.17641,0.45792,0.036314,-0.082736,0.10011,-0.22086,0.11261
986,0.18463,0.45693,0.058676,-0.079119,0.17378,-0.23171,0.13103
987,0.17312,0.42569,0.073147,-0.095891,0.24153,-0.24684,0.14254
988,0.14287,0.3586,0.074791,-0.13667,0.28198,-0.25506,0.13596
989,0.10768,0.2629,0.064925,-0.1906,0.28954,-0.24947,0.10932
990,0.078737,0.15635,0.051113,-0.2327,0.27737,-0.22514,0.078737
991,0.063281,0.063938,0.041575,-0.23829,0.26817,-0.18534,0.056046
992,0.063281,-0.00019077,0.039602,-0.20376,0.26257,-0.14423,0.044206
993,0.071173,-0.034722,0.043549,-0.14818,0.24876,-0.11727,0.035985
994,0.077093,-0.044917,0.046508,-0.092603,0.20502,-0.11891,0.025132
995,0.073804,-0.037024,0.039931,-0.038339,0.10801,-0.15344,0.010991
996,0.061965,-0.013674,0.020528,0.027434,-0.056427,-0.21659,-0.0034794
997,0.054072,0.020528,-0.0067681,0.10472,-0.28335,-0.29058,-0.018278
998,0.059005,0.059005,-0.034722,0.17838,-0.53822,-0.35307,-0.031104
999,0.074462,0.095839,-0.05544,0.22739,-0.76382,-0.3876,-0.038011
1000,0.096825,0.12609,-0.063333,0.23429,-0.90491,-0.39089,-0.042286
1001,0.11689,0.14714,-0.055112,0.20404,-0.9345,-0.36819,-0.043601
1002,0.12708,0.15372,-0.038011,0.15175,-0.86413,-0.32577,-0.042615
1003,0.12379,0.15175,-0.019923,0.10011,-0.72699,-0.27644,-0.042286
1004,0.10932,0.14352,-0.0080836,0.056046,-0.5642,-0.23073,-0.042615
1005,0.09255,0.13169,-0.0028217,0.01987,-0.40832,-0.18896,-0.038997
1006,0.074791,0.11426,-0.0038083,-0.0097279,-0.28006,-0.13667,-0.029789
1007,0.059005,0.085972,-0.0090702,-0.03242,-0.18403,-0.05544,-0.017621
1008,0.043549,0.041904,-0.013345,-0.045246,-0.11266,0.077093,-0.007097
1009,0.028092,-0.018607,-0.01499,-0.046232,-0.058729,0.26849,0.0014536
1010,0.0093464,-0.091945,-0.017292,-0.037024,-0.017621,0.49147,0.0050711
1011,-0.014332,-0.16166,-0.019265,-0.02354,0.0034268,0.6924,0.0014536
1012,-0.038011,-0.21626,-0.021238,-0.012688,-0.0047949,0.81014,-0.0080836
1013,-0.059387,-0.24585,-0.023211,-0.014332,-0.050507,0.80521,-0.017621
1014,-0.073199,-0.25177,-0.026829,-0.031433,-0.13141,0.67465,-0.027816
1015,-0.083065,-0.24191,-0.035708,-0.058071,-0.2304,0.45759,-0.043601
1016,-0.088985,-0.22382,-0.049521,-0.08471,-0.32149,0.21588,-0.063991
1017,-0.088656,-0.19817,-0.06432,-0.094576,-0.3774,0.002769,-0.086683
1018,-0.076159,-0.16002,-0.073528,-0.081092,-0.38003,-0.15279,-0.10609
1019,-0.049192,-0.10477,-0.074844,-0.051494,-0.3307,-0.2498,-0.11529
1020,-0.01203,-0.036695,-0.068266,-0.020909,-0.24881,-0.30867,-0.11266
1021,0.026119,0.035656,-0.060373,-0.0031506,-0.16035,-0.36655,-0.10313
1022,0.052099,0.1011,-0.05544,-0.0008485,-0.090629,-0.45107,-0.09326
1023,0.061965,0.14944,-0.05544,-0.011372,-0.057085,-0.58722,-0.088656
1024,0.058348,0.17148,-0.059058,-0.022883,-0.07024,-0.78224,-0.091616
1025,0.049797,0.17016,-0.059387,-0.023211,-0.13108,-1.0128,-0.10115
1026,0.042233,0.15142,-0.052481,-0.004466,-0.23402,-1.2387,-0.11694
1027,0.035656,0.12149,-0.03538,0.029407,-0.36556,-1.4137,-0.13667
1028,0.028421,0.084986,-0.01499,0.071502,-0.50763,-1.512,-0.15311
1029,0.018884,0.04618,0.002769,0.10702,-0.64905,-1.538,-0.15903
1030,0.0063866,0.0011247,0.012635,0.12544,-0.78618,-1.5054,-0.14983
1031,-0.0047949,-0.051494,0.013951,0.11557,-0.91609,-1.4202,-0.1268
1032,-0.015648,-0.11036,0.0077021,0.083342,-1.0286,-1.2759,-0.096878
1033,-0.032091,-0.17153,-0.0015062,0.04026,-1.0963,-1.0631,-0.069253
1034,-0.055112,-0.22777,-0.0097279,-0.0008485,-1.0789,-0.78026,-0.053796
1035,-0.081092,-0.27315,-0.015319,-0.033406,-0.94503,-0.43627,-0.046232
1036,-0.10444,-0.30275,-0.01795,-0.057743,-0.69048,-0.05544,-0.038668
1037,-0.12187,-0.31722,-0.017621,-0.073199,-0.33596,0.33065,-0.020581
1038,-0.1347,-0.31919,-0.016963,-0.079448,0.07512,0.69438,0.0054
1039,-0.14193,-0.30637,-0.020252,-0.076817,0.477,1.02,0.0373
1040,-0.14062,-0.27775,-0.025842,-0.069582,0.82527,1.2949,0.073147
1041,-0.12878,-0.23434,-0.032749,-0.061689,1.112,1.509,0.10866
1042,-0.11299,-0.17745,-0.038668,-0.048534,1.3222,1.6645,0.14024
1043,-0.097207,-0.11036,-0.040313,-0.027487,1.4235,1.7806,0.16293
1044,-0.086683,-0.045903,-0.03538,0.0030979,1.3939,1.8852,0.17707
1045,-0.074515,0.010333,-0.020252,0.043877,1.2712,2.0036,0.18759
1046,-0.053138,0.056046,0.0096753,0.094852,1.1403,2.1539,0.2093
1047,-0.020581,0.099127,0.049468,0.15438,1.0982,2.3272,0.25402
1048,0.025132,0.14155,0.088603,0.21588,1.1788,2.4768,0.30697
1049,0.072818,0.18365,0.11426,0.26389,1.3465,2.5265,0.35005
1050,0.1113,0.2264,0.12017,0.28165,1.5142,2.4222,0.3688
1051,0.12938,0.26553,0.10834,0.26488,1.5997,2.1568,0.35696
1052,0.12938,0.29316,0.088603,0.22475,1.5616,1.7701,0.32013
1053,0.11853,0.30598,0.0692,0.17806,1.4014,1.3232,0.27047
1054,0.10406,0.30566,0.055717,0.13464,1.1578,0.87493,0.22048
1055,0.091892,0.29842,0.04618,0.09255,0.87558,0.47173,0.17674
1056,0.077422,0.28724,0.036971,0.050455,0.59045,0.14583,0.13728
1057,0.059005,0.27014,0.029736,0.010991,0.33098,-0.092931,0.10077
1058,0.036971,0.25172,0.026119,-0.018278,0.11787,-0.24849,0.068871
1059,0.016581,0.23232,0.028421,-0.028802,-0.024856,-0.34057,0.04026
1060,0.00079584,0.21292,0.034998,-0.019923,-0.084381,-0.39516,0.015266
1061,-0.01203,0.19253,0.044535,-0.002164,-0.084381,-0.44186,-0.0061104
1062,-0.023211,0.16819,0.055388,0.011977,-0.074515,-0.50073,-0.024198
1063,-0.038997,0.13201,0.064925,0.013293,-0.093918,-0.5859,-0.040641
1064,-0.060045,0.081368,0.066569,0.00079584,-0.15081,-0.68884,-0.057085
1065,-0.085039,0.026447,0.054401,-0.016634,-0.21395,-0.79177,-0.075501
1066,-0.1074,-0.018936,0.032038,-0.029131,-0.23928,-0.87268,-0.094576
1067,-0.12056,-0.033406,0.01132,-0.032749,-0.20475,-0.91214,-0.1097
1068,-0.11858,-0.011701,0.002769,-0.022225,-0.11036,-0.89931,-0.11201
1069,-0.10017,0.033354,0.0073732,0.0001381,0.031709,-0.83584,-0.10313
1070,-0.073528,0.08367,0.01987,0.026447,0.19154,-0.74179,-0.082408
1071,-0.046232,0.12182,0.031052,0.043549,0.32736,-0.63918,-0.056756
1072,-0.025185,0.14155,0.036314,0.042891,0.40859,-0.54414,-0.030775
1073,-0.0084125,0.1478,0.0373,0.028092,0.43655,-0.46225,-0.0064392
1074,0.002769,0.14846,0.034669,0.0077021,0.43622,-0.40305,0.010662
1075,0.0093464,0.1501,0.031052,-0.010715,0.42635,-0.37937,0.017897
1076,0.016581,0.15536,0.028092,-0.021896,0.40234,-0.40371,0.020528
1077,0.025461,0.15832,0.027434,-0.02354,0.34249,-0.48922,0.019541
1078,0.035656,0.15076,0.028092,-0.01795,0.21851,-0.64247,0.014937
1079,0.045193,0.12642,0.024145,-0.010386,0.018226,-0.86117,0.0050711
1080,0.050455,0.092221,0.012635,-0.004466,-0.23928,-1.119,-0.0080836
1081,0.050126,0.056374,-0.0011774,-0.004466,-0.51421,-1.3755,-0.019594
1082,0.048482,0.026447,-0.0097279,-0.010386,-0.75889,-1.5942,-0.028473
1083,0.048482,0.0030979,-0.01203,-0.023211,-0.9424,-1.7504,-0.039655
1084,0.050784,-0.014332,-0.010715,-0.044259,-1.0529,-1.8251,-0.052152
1085,0.052099,-0.033078,-0.0061104,-0.068595,-1.0917,-1.809,-0.061689
1086,0.05177,-0.052481,-0.0031506,-0.091945,-1.0654,-1.6745,-0.063333
1087,0.044864,-0.074515,-0.0047949,-0.11003,-0.98712,-1.4028,-0.059716
1088,0.030723,-0.10543,-0.010715,-0.12187,-0.87366,-1.0121,-0.053467
1089,0.013622,-0.1495,-0.01499,-0.13009,-0.7431,-0.56782,-0.044259
1090,0.0030979,-0.20409,-0.01499,-0.13075,-0.61287,-0.15936,-0.032091
1091,0.0050711,-0.26526,-0.012688,-0.12746,-0.49514,0.13432,-0.017621
1092,0.017897,-0.32445,-0.014003,-0.12286,-0.39089,0.27869,-0.0051238
1093,0.036314,-0.37148,-0.020909,-0.11562,-0.2942,0.2925,-0.002164
1094,0.052099,-0.39976,-0.031433,-0.099509,-0.2054,0.21916,-0.0074258
1095,0.064267,-0.40568,-0.041299,-0.061031,-0.13207,0.10307,-0.018278
1096,0.075449,-0.39023,-0.04985,0.002769,-0.087669,-0.035051,-0.028802
1097,0.082684,-0.36162,-0.060702,0.08663,-0.082408,-0.18732,-0.040641
1098,0.084328,-0.32676,-0.071555,0.17477,-0.10411,-0.34451,-0.047877
1099,0.078737,-0.29058,-0.076159,0.25041,-0.13667,-0.4879,-0.047548
1100,0.067227,-0.25901,-0.067937,0.29711,-0.1666,-0.59314,-0.042615
1101,0.051113,-0.23763,-0.046232,0.31026,-0.18929,-0.62734,-0.027158
1102,0.027763,-0.2304,-0.01499,0.2948,-0.20475,-0.56551,-0.0064392
1103,-0.0015062,-0.23369,0.017568,0.25994,-0.20639,-0.41588,0.014279
1104,-0.031104,-0.23106,0.044206,0.21653,-0.19324,-0.20212,0.030723
1105,-0.047877,-0.20902,0.055388,0.17148,-0.16594,0.033354,0.040918
1106,-0.047877,-0.16331,0.050784,0.13333,-0.13601,0.23199,0.038944
1107,-0.036366,-0.094576,0.035985,0.1034,-0.11069,0.35334,0.025132
1108,-0.024527,-0.01499,0.017568,0.081039,-0.097207,0.39478,0.0017824
1109,-0.015319,0.061307,0.0037556,0.061307,-0.091945,0.3813,-0.024527
1110,-0.0054526,0.12313,-0.00019077,0.041575,-0.091616,0.34315,-0.049192
1111,0.01132,0.16983,0.0090175,0.020199,-0.091945,0.30368,-0.065307
1112,0.032367,0.20009,0.022172,-0.0038083,-0.086025,0.27441,-0.07024
1113,0.049139,0.20831,0.033354,-0.024856,-0.074515,0.25567,-0.066622
1114,0.058348,0.19614,0.037958,-0.037353,-0.063662,0.24284,-0.061031
1115,0.059992,0.16852,0.0373,-0.038339,-0.055769,0.23331,-0.055769
1116,0.052099,0.13629,0.035656,-0.030775,-0.042286,0.22936,-0.049192
1117,0.038287,0.10307,0.034669,-0.023869,-0.020581,0.23035,-0.044259
1118,0.023159,0.071831,0.036642,-0.020581,0.0086887,0.23626,-0.039984
1119,0.0096753,0.043877,0.037958,-0.017292,0.042562,0.24514,-0.040313
1120,-0.0038083,0.023159,0.03434,-0.0097279,0.073147,0.24876,-0.043272
1121,-0.015319,0.0093464,0.023817,-0.0008485,0.095181,0.2389,-0.044259
1122,-0.027158,0.0001381,0.010004,0.0047422,0.10538,0.22015,-0.039326
1123,-0.044588,-0.0077547,-0.0011774,0.0011247,0.10274,0.1991,-0.030118
1124,-0.066622,-0.023211,-0.0061104,-0.014003,0.092879,0.18496,-0.019923
1125,-0.087012,-0.041957,-0.004466,-0.040313,0.07512,0.18069,-0.0084125
1126,-0.098522,-0.054125,0.0001381,-0.075501,0.045522,0.18299,0.0050711
1127,-0.10148,-0.054125,0.0021113,-0.10313,-0.0018351,0.18266,0.017897
1128,-0.10181,-0.047548,0.0011247,-0.10872,-0.060702,0.16622,0.026776
1129,-0.10214,-0.038011,0.002769,-0.088656,-0.10674,0.13234,0.038287
1130,-0.10411,-0.028144,0.010662,-0.053467,-0.11299,0.11097,0.056703
1131,-0.10214,-0.01795,0.021843,-0.01203,-0.062347,0.16523,0.083342
1132,-0.091945,-0.0064392,0.025461,0.024474,0.032696,0.35696,0.11195
1133,-0.069253,0.0070443,0.017897,0.050126,0.13169,0.69701,0.13366
1134,-0.04097,0.017239,0.002769,0.060979,0.20206,1.1216,0.15076
1135,-0.015319,0.024803,-0.014661,0.055388,0.2241,1.5162,0.15865
1136,0.0044134,0.032038,-0.0265,0.032696,0.1945,1.7652,0.15635
1137,0.013951,0.04618,-0.036695,-0.0093991,0.11952,1.8142,0.14484
1138,0.01132,0.067227,-0.046561,-0.071884,-0.0015062,1.6764,0.13169
1139,-0.0015062,0.094852,-0.057414,-0.14719,-0.1666,1.4116,0.11754
1140,-0.018278,0.12609,-0.066622,-0.21626,-0.35241,1.094,0.10143
1141,-0.030447,0.15701,-0.071555,-0.25638,-0.51257,0.78054,0.080711
1142,-0.033406,0.18463,-0.073528,-0.25046,-0.59741,0.50067,0.059334
1143,-0.026171,0.20996,-0.070897,-0.20573,-0.58492,0.26948,0.039273
1144,-0.011043,0.23659,-0.064978,-0.14062,-0.48593,0.091234,0.023817
1145,0.0060577,0.26586,-0.059058,-0.085696,-0.33235,-0.033406,0.014608
1146,0.026447,0.2948,-0.052481,-0.059058,-0.15936,-0.10905,0.015924
1147,0.05177,0.32637,-0.047548,-0.058729,0.0024402,-0.14752,0.029407
1148,0.082026,0.35959,-0.04393,-0.065964,0.13432,-0.15805,0.051441
1149,0.11195,0.39346,-0.039326,-0.064649,0.23626,-0.15081,0.07808
1150,0.13991,0.42536,-0.030447,-0.04985,0.32078,-0.14423,0.10274
1151,0.16589,0.45003,-0.018936,-0.019265,0.39478,-0.14884,0.11919
1152,0.18496,0.46088,-0.0054526,0.017239,0.45069,-0.16824,0.12577
1153,0.18628,0.45102,0.0037556,0.045522,0.47798,-0.20113,0.11919
1154,0.16753,0.42043,0.0070443,0.056374,0.47239,-0.24388,0.099456
1155,0.13497,0.37373,0.0080309,0.049797,0.41879,-0.2942,0.067227
1156,0.09551,0.31947,0.0060577,0.034011,0.31289,-0.35241,0.029078
1157,0.059663,0.26093,-0.0008485,0.019541,0.16753,-0.41588,-0.0057815
1158,0.035656,0.20075,-0.0087413,0.014279,0.013293,-0.46488,-0.034393
1159,0.023159,0.14155,-0.013017,0.017239,-0.1245,-0.47639,-0.055112
1160,0.020199,0.083342,-0.010386,0.023488,-0.23402,-0.43594,-0.066951
1161,0.018226,0.026119,-0.0093991,0.02579,-0.31821,-0.3455,-0.07024
1162,0.015266,-0.037682,-0.015319,0.02283,-0.37707,-0.21955,-0.064649
1163,0.0044134,-0.11102,-0.0265,0.01987,-0.41456,-0.067937,-0.053138
1164,-0.013674,-0.18962,-0.038339,0.023159,-0.42673,0.099127,-0.036366
1165,-0.03538,-0.25967,-0.04393,0.032696,-0.40371,0.26455,-0.019923
1166,-0.055769,-0.31525,-0.037682,0.048153,-0.33498,0.40695,-0.0074258
1167,-0.073528,-0.35372,-0.021896,0.066569,-0.21955,0.51613,0.0034268
1168,-0.093918,-0.38661,-0.0008485,0.088275,-0.063991,0.58717,0.0073732
1169,-0.11562,-0.42706,0.021186,0.10932,0.12116,0.63123,0.0017824
1170,-0.13009,-0.47179,0.034998,0.13037,0.31815,0.65327,-0.0097279
1171,-0.13437,-0.50961,0.036314,0.14714,0.52172,0.66149,-0.018278
1172,-0.12944,-0.52342,0.026776,0.15964,0.73055,0.67201,-0.018936
1173,-0.11825,-0.505,0.012306,0.16687,0.91077,0.69339,-0.015648
1174,-0.1074,-0.45633,-0.00019077,0.16819,1.0015,0.72069,-0.01203
1175,-0.094905,-0.38233,-0.0038083,0.16589,0.95583,0.73384,-0.0093991
1176,-0.080434,-0.2965,-0.0008485,0.16128,0.78514,0.71016,-0.0031506
1177,-0.062676,-0.22053,0.0070443,0.15635,0.56908,0.64603,0.0057288
1178,-0.048205,-0.17416,0.010991,0.15306,0.40464,0.55231,0.014937
1179,-0.038997,-0.16002,0.010991,0.14747,0.35531,0.44279,0.022501
1180,-0.037682,-0.1643,0.0073732,0.13728,0.42438,0.32506,0.021843
1181,-0.039326,-0.1666,0.0017824,0.12215,0.56513,0.2014,0.012306
1182,-0.031433,-0.1518,-0.0024928,0.10472,0.71575,0.071173,0.00079584
1183,-0.007097,-0.11398,-0.004466,0.090577,0.82132,-0.063991,-0.0074258
1184,0.029736,-0.055769,0.00046697,0.075778,0.86144,-0.20639,-0.011043
1185,0.0692,0.011977,0.010662,0.054401,0.85256,-0.34978,-0.0064392
1186,0.10406,0.073804,0.019541,0.025461,0.82066,-0.47738,0.002769
1187,0.12511,0.11853,0.026776,-0.0064392,0.77725,-0.57834,0.010662
1188,0.12544,0.13695,0.033683,-0.036366,0.72003,-0.65365,0.015595
1189,0.10801,0.12971,0.036642,-0.059058,0.63748,-0.71383,0.015595
1190,0.077751,0.10932,0.033354,-0.07583,0.51218,-0.7681,0.0080309
1191,0.046508,0.09255,0.029407,-0.085696,0.33032,-0.8171,-0.0038083
1192,0.021514,0.086301,0.029736,-0.074186,0.081697,-0.84801,-0.020252
1193,0.0060577,0.086959,0.029736,-0.019923,-0.22612,-0.849,-0.039984
1194,-0.0064392,0.083342,0.027105,0.084986,-0.54874,-0.8148,-0.0584
1195,-0.016634,0.065912,0.018884,0.21719,-0.82762,-0.75231,-0.068266
1196,-0.020252,0.038616,0.0073732,0.34117,-1.0177,-0.67864,-0.066951
1197,-0.013345,0.01132,-0.002164,0.41977,-1.1029,-0.61452,-0.059387
1198,0.0044134,-0.0057815,-0.004466,0.43622,-1.0914,-0.5767,-0.048863
1199,0.026776,-0.0093991,-0.0041372,0.39248,-1.0092,-0.56124,-0.039326
1200,0.046837,0.0011247,-0.004466,0.3096,-0.88254,-0.54611,-0.028473
1201,0.059992,0.026119,-0.0077547,0.21061,-0.72962,-0.50599,-0.015648
1202,0.065254,0.062623,-0.011701,0.11853,-0.58163,-0.43265,-0.0011774
1203,0.063938,0.10932,-0.013674,0.046837,-0.47639,-0.34254,0.015924
1204,0.062952,0.16983,-0.013345,-0.0011774,-0.43627,-0.2623,0.032696
1205,0.068543,0.24218,-0.010057,-0.032091,-0.45501,-0.21165,0.045193
1206,0.082355,0.31815,-0.002164,-0.057414,-0.50369,-0.19422,0.051441
1207,0.098141,0.37801,0.012306,-0.075173,-0.53624,-0.19981,0.055388
1208,0.10801,0.4053,0.031381,-0.088656,-0.50204,-0.21428,0.056374
1209,0.10307,0.38228,0.049797,-0.10214,-0.38595,-0.21955,0.053086
1210,0.081697,0.30204,0.058019,-0.11793,-0.19455,-0.19981,0.050455
1211,0.04618,0.17279,0.057032,-0.13174,0.030394,-0.15114,0.051441
1212,0.0017824,0.013293,0.045851,-0.14095,0.2241,-0.080763,0.053743
1213,-0.046561,-0.15147,0.029078,-0.14588,0.33295,-0.0018351,0.052757
1214,-0.095233,-0.29551,0.012964,-0.14489,0.36683,0.072489,0.050455
1215,-0.13667,-0.39319,0.0034268,-0.13897,0.38689,0.13892,0.048153
1216,-0.16002,-0.43397,0.0017824,-0.13568,0.43983,0.20239,0.045193
1217,-0.15936,-0.4264,0.0073732,-0.13897,0.51383,0.2708,0.04026
1218,-0.14884,-0.39746,0.015595,-0.1495,0.55527,0.34315,0.035327
1219,-0.14489,-0.36622,0.026447,-0.16397,0.52008,0.41056,0.033683
1220,-0.15147,-0.33268,0.039273,-0.17942,0.39412,0.4622,0.037958
1221,-0.15772,-0.28137,0.047166,-0.18962,0.19647,0.48324,0.048482
1222,-0.15213,-0.21264,0.04618,-0.186,-0.040641,0.45989,0.064267
1223,-0.13503,-0.14062,0.035656,-0.1689,-0.2794,0.38689,0.079395
1224,-0.11233,-0.083065,0.019212,-0.14555,-0.4902,0.27836,0.088275
1225,-0.097207,-0.055112,0.002769,-0.12483,-0.65891,0.15536,0.081697
1226,-0.089972,-0.04985,-0.012359,-0.11299,-0.78257,0.03434,0.062623
1227,-0.086683,-0.050836,-0.021896,-0.10576,-0.85755,-0.066951,0.041575
1228,-0.078461,-0.049521,-0.024198,-0.095233,-0.87465,-0.13568,0.030065
1229,-0.065635,-0.041299,-0.020909,-0.08175,-0.81808,-0.16693,0.030394
1230,-0.048863,-0.026171,-0.015319,-0.063004,-0.66253,-0.17219,0.035985
1231,-0.031762,-0.0031506,-0.0061104,-0.041628,-0.3876,-0.1712,0.036971
1232,-0.016634,0.020857,0.0086887,-0.020581,-0.010057,-0.17942,0.030394
1233,-0.0054526,0.035656,0.026776,0.0001381,0.40333,-0.20442,0.017897
1234,-0.00019077,0.039602,0.044535,0.020528,0.75588,-0.25276,0.0024402
1235,0.0040845,0.035985,0.064925,0.0373,0.96767,-0.32741,-0.014003
1236,0.011977,0.029736,0.083342,0.042233,1.0012,-0.42081,-0.027816
1237,0.024803,0.022172,0.096825,0.034998,0.86736,-0.52046,-0.034722
1238,0.039931,0.017239,0.099785,0.024803,0.61315,-0.60596,-0.033735
1239,0.05473,0.015595,0.091563,0.017568,0.32111,-0.6576,-0.028144
1240,0.064925,0.015595,0.076764,0.01691,0.074462,-0.67009,-0.021567
1241,0.07512,0.01691,0.058348,0.025461,-0.065307,-0.63984,-0.019594
1242,0.080053,0.023159,0.043549,0.043549,-0.080434,-0.55104,-0.020252
1243,0.082026,0.033683,0.033354,0.064267,0.010333,-0.38003,-0.019923
1244,0.080711,0.053415,0.029078,0.086301,0.15997,-0.11891,-0.017292
1245,0.085972,0.098798,0.030394,0.10768,0.32276,0.20338,-0.01203
1246,0.10209,0.17575,0.033683,0.11952,0.45595,0.52008,-0.007097
1247,0.12313,0.27112,0.031052,0.10866,0.52435,0.76344,-0.0080836
1248,0.1432,0.36419,0.021186,0.074462,0.51317,0.89433,-0.017621
1249,0.16227,0.43556,0.0083598,0.033683,0.43556,0.92524,-0.031104
1250,0.18036,0.48193,-0.0031506,0.0057288,0.32045,0.90123,-0.042286
1251,0.1945,0.5112,-0.011701,-0.0015062,0.19779,0.86407,-0.048205
1252,0.1991,0.53356,-0.015319,0.015924,0.088932,0.83415,-0.053796
1253,0.18792,0.55198,-0.013345,0.045193,0.0054,0.80192,-0.060702
1254,0.16852,0.56546,-0.010386,0.073147,-0.049521,0.75028,-0.063333
1255,0.14747,0.56743,-0.0080836,0.090905,-0.082408,0.66708,-0.062018
1256,0.12971,0.55264,-0.0038083,0.094194,-0.10313,0.54376,-0.059387
1257,0.11524,0.52337,0.0017824,0.082026,-0.11661,0.37603,-0.057414
1258,0.10143,0.47634,0.0093464,0.057361,-0.12878,0.17477,-0.053138
1259,0.078737,0.39741,0.01691,0.031381,-0.13733,-0.04393,-0.048534
1260,0.04881,0.27244,0.020857,0.012635,-0.14456,-0.26164,-0.045246
1261,0.015595,0.099456,0.021186,0.0083598,-0.15081,-0.47508,-0.045903
1262,-0.016305,-0.10214,0.017897,0.018884,-0.14785,-0.68917,-0.046232
1263,-0.042944,-0.30078,0.014608,0.039273,-0.1347,-0.90589,-0.038668
1264,-0.061689,-0.46356,0.012635,0.06361,-0.11924,-1.1039,-0.02354
1265,-0.069582,-0.56354,0.013622,0.080711,-0.11201,-1.2229,-0.0015062
1266,-0.068266,-0.59084,0.018555,0.086959,-0.10905,-1.2022,0.024145
1267,-0.057414,-0.55367,0.01987,0.087288,-0.096549,-1.0312,0.056046
1268,-0.041299,-0.47475,0.020199,0.089919,-0.063662,-0.75461,0.084986
1269,-0.022883,-0.38595,0.021186,0.10011,-0.0097279,-0.44778,0.10011
1270,-0.0054526,-0.3011,0.023488,0.11919,0.045193,-0.16397,0.098469
1271,0.0060577,-0.2304,0.020199,0.14254,0.066569,0.08663,0.087617
1272,0.013293,-0.17416,0.0083598,0.15602,0.020528,0.31947,0.075778
1273,0.013622,-0.13141,-0.0080836,0.14484,-0.11431,0.53718,0.064267
1274,0.010991,-0.098193,-0.024527,0.098469,-0.33498,0.72003,0.049797
1275,0.0044134,-0.068924,-0.037353,0.02283,-0.60498,0.83053,0.029736
1276,-0.0031506,-0.045574,-0.048205,-0.063991,-0.86906,0.84204,0.0080309
1277,-0.010057,-0.027816,-0.056427,-0.1393,-1.07,0.74864,-0.013345
1278,-0.0097279,-0.01203,-0.064649,-0.1837,-1.1608,0.57368,-0.031433
1279,0.0001381,0.0070443,-0.068924,-0.18797,-1.1206,0.36222,-0.043601
1280,0.012635,0.032038,-0.066951,-0.1564,-0.95983,0.15372,-0.051165
1281,0.022501,0.06361,-0.062018,-0.10346,-0.72304,-0.024856,-0.050507
1282,0.028421,0.10439,-0.056427,-0.048534,-0.46981,-0.16495,-0.038997
1283,0.032367,0.15372,-0.050507,-0.0067681,-0.25539,-0.26657,-0.015319
1284,0.038944,0.20206,-0.045903,0.010004,-0.11661,-0.33037,0.011977
1285,0.052099,0.24284,-0.044588,-0.00051963,-0.053467,-0.3649,0.032367
1286,0.066569,0.26915,-0.048863,-0.03242,-0.039326,-0.38497,0.04026
1287,0.079395,0.26915,-0.058071,-0.072542,-0.046232,-0.40404,0.035985
1288,0.087288,0.22508,-0.073857,-0.10641,-0.052152,-0.43068,0.027434
1289,0.08959,0.13497,-0.091287,-0.12352,-0.048534,-0.46948,0.020857
1290,0.082026,0.017568,-0.10444,-0.12319,-0.028473,-0.50303,0.021514
1291,0.064596,-0.097207,-0.10773,-0.11299,0.0060577,-0.48264,0.027434
1292,0.039273,-0.18436,-0.10017,-0.099509,0.037629,-0.35043,0.039273
1293,0.010662,-0.23171,-0.083723,-0.087998,0.039602,-0.091287,0.052428
1294,-0.014661,-0.23994,-0.06432,-0.081092,-0.011701,0.2481,0.064925
1295,-0.033735,-0.21593,-0.048863,-0.077475,-0.11464,0.57039,0.074462
1296,-0.048863,-0.18271,-0.038011,-0.07583,-0.235,0.7789,0.077093
1297,-0.060373,-0.16265,-0.028144,-0.075173,-0.32051,0.82855,0.071173
1298,-0.073199,-0.1643,-0.016634,-0.074844,-0.33037,0.73614,0.059334
1299,-0.086354,-0.18732,-0.0077547,-0.068266,-0.26526,0.55888,0.042233
1300,-0.09622,-0.21363,-0.0061104,-0.055769,-0.16594,0.36321,0.022172
1301,-0.10082,-0.21527,-0.013017,-0.036695,-0.07583,0.19285,-0.00019077
1302,-0.095562,-0.16693,-0.024198,-0.016634,-0.021567,0.065912,-0.019594
1303,-0.081092,-0.06136,-0.035708,-0.00051963,-0.0074258,-0.014661,-0.031104
1304,-0.060373,0.083999,-0.04097,0.00079584,-0.016305,-0.056427,-0.030447
1305,-0.04097,0.23199,-0.041957,-0.013017,-0.01499,-0.072213,-0.020581
1306,-0.02946,0.35696,-0.039655,-0.032749,0.01987,-0.075501,-0.0080836
1307,-0.025514,0.44773,-0.038668,-0.047548,0.085644,-0.084052,0.0011247
1308,-0.026171,0.50298,-0.039984,-0.053796,0.16391,-0.11266,0.0040845
1309,-0.029131,0.52337,-0.041628,-0.054454,0.23363,-0.15838,-0.00019077
1310,-0.031433,0.51843,-0.039326,-0.051165,0.28231,-0.20606,-0.010057
1311,-0.030447,0.50232,-0.037353,-0.045246,0.30927,-0.2452,-0.018278
1312,-0.026829,0.48127,-0.038339,-0.038997,0.32111,-0.2748,-0.015319
1313,-0.022554,0.45792,-0.038997,-0.036695,0.32901,-0.29584,0.0017824
1314,-0.018936,0.43359,-0.037024,-0.037682,0.34183,-0.30637,0.026119
1315,-0.010715,0.41287,-0.028802,-0.037353,0.35827,-0.30538,0.048153
1316,0.0040845,0.40136,-0.017292,-0.031762,0.36551,-0.30374,0.062952
1317,0.025132,0.39577,-0.002164,-0.022883,0.34874,-0.30834,0.068871
1318,0.050784,0.38524,0.015266,-0.013674,0.30171,-0.3113,0.065254
1319,0.077422,0.35827,0.034998,-0.0031506,0.23035,-0.30078,0.05769
1320,0.098798,0.31059,0.059334,0.010662,0.1376,-0.26065,0.049468
1321,0.10735,0.25074,0.086301,0.030723,0.033683,-0.18666,0.04026
1322,0.10538,0.19121,0.11294,0.057032,-0.066293,-0.07287,0.029078
1323,0.10044,0.14056,0.13399,0.085644,-0.14456,0.074133,0.019212
1324,0.093208,0.097154,0.14484,0.1113,-0.19422,0.22574,0.018226
1325,0.082026,0.059005,0.1455,0.12609,-0.21691,0.33591,0.02579
1326,0.070516,0.026447,0.14254,0.12544,-0.22053,0.36419,0.035656
1327,0.06065,0.0001381,0.13859,0.11097,-0.2202,0.30204,0.044206
1328,0.050455,-0.021567,0.1353,0.082684,-0.23698,0.18858,0.052428
1329,0.04026,-0.040641,0.13004,0.044206,-0.27282,0.078737,0.063281
1330,0.028421,-0.062347,0.12281,0.0050711,-0.30768,0.012306,0.072489
1331,0.013293,-0.093589,0.11162,-0.023211,-0.31294,0.0054,0.076435
1332,-0.0024928,-0.14358,0.095181,-0.027487,-0.24783,0.047824,0.062952
1333,-0.018278,-0.20606,0.076435,0.0054,-0.063662,0.11919,0.037629
1334,-0.032749,-0.27085,0.056374,0.084328,0.26652,0.18924,0.010333
1335,-0.042615,-0.32708,0.038944,0.20996,0.69964,0.23758,-0.010057
1336,-0.044917,-0.36359,0.031052,0.3586,1.1416,0.26192,-0.019923
1337,-0.036366,-0.37378,0.029736,0.49081,1.507,0.26784,-0.020581
1338,-0.020252,-0.35175,0.031381,0.56645,1.7359,0.26882,-0.01795
1339,-0.0008485,-0.29551,0.031709,0.56875,1.7803,0.27441,-0.011372
1340,0.019541,-0.21001,0.033025,0.50495,1.6149,0.27836,-0.00019077
1341,0.034669,-0.11628,0.0373,0.40037,1.2646,0.26488,0.015924
1342,0.045193,-0.038668,0.04322,0.28757,0.81803,0.22771,0.027763
1343,0.048482,0.0070443,0.047166,0.18989,0.39281,0.18003,0.027763
1344,0.042891,0.018226,0.049468,0.11853,0.080053,0.1353,0.013293
1345,0.035327,0.0040845,0.045193,0.072489,-0.082079,0.11162,-0.0084125
1346,0.030394,-0.021567,0.034998,0.042233,-0.11201,0.12149,-0.029131
1347,0.024803,-0.046561,0.017897,0.019541,-0.056098,0.16819,-0.041299
1348,0.017239,-0.066293,-0.0024928,0.0001381,0.031052,0.24218,-0.04393
1349,0.0077021,-0.082736,-0.024527,-0.016305,0.10702,0.32045,-0.036366
1350,0.0021113,-0.098522,-0.043601,-0.028802,0.15076,0.36584,-0.022554
1351,-0.0041372,-0.12286,-0.059387,-0.038011,0.16161,0.35005,-0.0047949
1352,-0.016634,-0.16561,-0.06728,-0.04393,0.14681,0.25994,0.012635
1353,-0.037682,-0.22316,-0.06728,-0.044917,0.11557,0.11327,0.021186
1354,-0.061689,-0.28039,-0.061689,-0.041957,0.066898,-0.046232,0.017568
1355,-0.077146,-0.31821,-0.052152,-0.038339,0.00046697,-0.16989,0.0077021
1356,-0.073199,-0.32807,-0.044917,-0.03538,-0.082079,-0.22974,-0.0008485
1357,-0.054454,-0.31229,-0.040641,-0.036037,-0.18074,-0.22053,-0.0057815
1358,-0.033078,-0.284,-0.037353,-0.040641,-0.29288,-0.15969,-0.011701
1359,-0.025514,-0.26197,-0.029789,-0.047219,-0.41095,-0.083723,-0.020909
1360,-0.036695,-0.26,-0.021896,-0.053138,-0.51881,-0.024527,-0.033735
1361,-0.062347,-0.28203,-0.01795,-0.059058,-0.59709,0.0077021,-0.046561
1362,-0.086683,-0.3261,-0.020909,-0.06432,-0.62964,0.021514,-0.056098
1363,-0.096878,-0.38497,-0.028473,-0.069582,-0.60728,0.030723,-0.057743
1364,-0.094576,-0.44087,-0.034393,-0.075501,-0.53394,0.045193,-0.04985
1365,-0.086354,-0.47869,-0.036695,-0.083723,-0.42377,0.070187,-0.035051
1366,-0.081421,-0.49086,-0.034393,-0.092931,-0.29946,0.10307,-0.015648
1367,-0.085696,-0.48724,-0.028473,-0.10313,-0.18238,0.13629,0.0021113
1368,-0.10181,-0.48757,-0.017621,-0.11299,-0.0903,0.15767,0.014937
1369,-0.12911,-0.49777,-0.0077547,-0.11727,-0.027816,0.15536,0.024145
1370,-0.16397,-0.5129,-0.0034794,-0.10872,0.018884,0.13169,0.035985
1371,-0.19422,-0.51487,-0.0054526,-0.088327,0.067885,0.10209,0.047495
1372,-0.20836,-0.48264,-0.013017,-0.061031,0.12971,0.092221,0.053743
1373,-0.2031,-0.40799,-0.024198,-0.037353,0.20042,0.12248,0.057032
1374,-0.18271,-0.29979,-0.030775,-0.024527,0.26619,0.19779,0.057361
1375,-0.15542,-0.1814,-0.028802,-0.021238,0.31125,0.29842,0.055717
1376,-0.13207,-0.080434,-0.019923,-0.022554,0.32078,0.38952,0.055059
1377,-0.11793,-0.01499,-0.010386,-0.033078,0.29612,0.4451,0.056046
1378,-0.11299,0.012306,-0.0057815,-0.060045,0.24942,0.45069,0.061307
1379,-0.10872,0.013951,-0.0087413,-0.10247,0.19713,0.40432,0.073804
1380,-0.095562,0.0073732,-0.015976,-0.15509,0.14912,0.3175,0.08959
1381,-0.068595,0.01132,-0.019594,-0.20376,0.10669,0.20601,0.10439
1382,-0.034722,0.036642,-0.018278,-0.23599,0.065254,0.081368,0.11327
1383,-0.0015062,0.083342,-0.015648,-0.24585,0.021186,-0.060045,0.10965
1384,0.024145,0.14089,-0.014003,-0.23796,-0.032091,-0.22875,0.087946
1385,0.0373,0.2014,-0.015976,-0.21231,-0.10214,-0.42509,0.049797
1386,0.0373,0.256,-0.01795,-0.15805,-0.20606,-0.63556,0.0021113
1387,0.031052,0.30171,-0.020252,-0.068595,-0.35668,-0.83387,-0.044917
1388,0.029736,0.33262,-0.022883,0.036314,-0.54184,-0.98975,-0.087669
1389,0.037958,0.35104,-0.025185,0.12544,-0.726,-1.0802,-0.11924
1390,0.05473,0.35696,-0.02354,0.17049,-0.86544,-1.1026,-0.13272
1391,0.078409,0.3517,-0.019923,0.16852,-0.92464,-1.0697,-0.13009
1392,0.10669,0.33887,-0.01499,0.13234,-0.90326,-1.0022,-0.11529
1393,0.13234,0.3221,-0.011372,0.082355,-0.82696,-0.92464,-0.090958
1394,0.1501,0.31026,-0.0084125,0.035656,-0.72173,-0.85196,-0.06728
1395,0.15997,0.31092,-0.0057815,-0.0011774,-0.60465,-0.79046,-0.045246
1396,0.16326,0.32407,-0.0028217,-0.030447,-0.48659,-0.7408,-0.027158
1397,0.1626,0.34446,-0.0008485,-0.052152,-0.37609,-0.69246,-0.013017
1398,0.1626,0.36683,-0.0008485,-0.066622,-0.28795,-0.63589,-0.0077547
1399,0.16095,0.38195,-0.0011774,-0.077475,-0.23204,-0.5665,-0.0087413
1400,0.15503,0.38327,-0.0041372,-0.088656,-0.21231,-0.48067,-0.010715
1401,0.14484,0.36847,-0.0080836,-0.098193,-0.21659,-0.36688,-0.0077547
1402,0.1353,0.33657,-0.013674,-0.098851,-0.2202,-0.21691,-0.0008485
1403,0.12873,0.29119,-0.021896,-0.086683,-0.20146,-0.021567,0.0057288
1404,0.12116,0.23692,-0.031433,-0.063991,-0.14127,0.21588,0.0083598
1405,0.10176,0.18069,-0.038668,-0.032091,-0.029131,0.48259,0.0080309
1406,0.066569,0.12905,-0.038339,0.0047422,0.13103,0.76179,0.0080309
1407,0.028421,0.09551,-0.028144,0.037958,0.3175,1.0371,0.013293
1408,0.00079584,0.090248,-0.014332,0.065254,0.51021,1.3041,0.028421
1409,-0.0057815,0.11853,-0.0015062,0.090248,0.7049,1.535,0.055717
1410,0.010004,0.1695,0.0080309,0.11853,0.89795,1.6698,0.092221
1411,0.040918,0.2241,0.01691,0.14977,1.0907,1.6589,0.12873
1412,0.077093,0.25961,0.026447,0.18036,1.2893,1.4896,0.15405
1413,0.10505,0.2629,0.036971,0.20634,1.4672,1.2012,0.15898
1414,0.11458,0.23791,0.044864,0.22179,1.553,0.8644,0.14352
1415,0.10406,0.19417,0.04881,0.22311,1.4777,0.54803,0.1113
1416,0.076764,0.14254,0.052428,0.20963,1.2242,0.30467,0.067227
1417,0.039931,0.090577,0.053743,0.18891,0.84664,0.15273,0.019541
1418,-0.0015062,0.047824,0.052757,0.1672,0.43095,0.089261,-0.024198
1419,-0.04097,0.01691,0.050126,0.14583,0.054072,0.098798,-0.0584
1420,-0.069911,-0.0067681,0.043877,0.12609,-0.23928,0.15931,-0.083394
1421,-0.083723,-0.025185,0.038616,0.10669,-0.43824,0.24646,-0.10082
1422,-0.086683,-0.042615,0.034998,0.090577,-0.55959,0.32966,-0.11266
1423,-0.082079,-0.063991,0.03434,0.073804,-0.62964,0.37669,-0.11793
1424,-0.068595,-0.09326,0.032696,0.054401,-0.66713,0.36419,-0.11299
1425,-0.04985,-0.1324,0.02875,0.034998,-0.68358,0.28329,-0.099509
1426,-0.032091,-0.17811,0.024145,0.018884,-0.68522,0.14944,-0.080434
1427,-0.025842,-0.22218,0.019541,0.0060577,-0.68391,0.0040845,-0.0584
1428,-0.032749,-0.25506,0.012306,-0.0038083,-0.68851,-0.10576,-0.035708
1429,-0.045246,-0.26953,0.0024402,-0.011701,-0.70068,-0.14917,-0.020909
1430,-0.05281,-0.26032,-0.0077547,-0.017292,-0.70989,-0.13634,-0.016634
1431,-0.055769,-0.22546,-0.013674,-0.024198,-0.69344,-0.10609,-0.024527
1432,-0.053467,-0.17054,-0.012688,-0.034722,-0.63984,-0.10609,-0.036037
1433,-0.044588,-0.1028,-0.0090702,-0.04393,-0.54085,-0.1643,-0.04097
1434,-0.032091,-0.036695,-0.007097,-0.050179,-0.40503,-0.28039,-0.029789
1435,-0.020909,0.0090175,-0.0061104,-0.047219,-0.25473,-0.43627,-0.0031506
1436,-0.012359,0.02283,-0.0041372,-0.034064,-0.11793,-0.60169,0.029736
1437,-0.0067681,0.0034268,0.0024402,-0.011701,-0.013017,-0.75823,0.060321
1438,-0.0018351,-0.042615,0.013622,0.012635,0.067227,-0.88123,0.085644
1439,0.00079584,-0.10214,0.026119,0.031381,0.1478,-0.94009,0.1034
1440,0.00079584,-0.16265,0.036971,0.045522,0.2389,-0.89175,0.12182
1441,-0.0054526,-0.21691,0.043549,0.056374,0.32605,-0.70627,0.13925
1442,-0.020909,-0.25835,0.045522,0.065254,0.37866,-0.40568,0.15109
1443,-0.041957,-0.27644,0.040918,0.068871,0.37801,-0.05281,0.15931
1444,-0.060045,-0.26427,0.030723,0.064596,0.32966,0.26586,0.15865
1445,-0.065307,-0.21823,0.017568,0.052757,0.25041,0.48752,0.15076
1446,-0.052152,-0.14127,0.0063866,0.038944,0.14714,0.59111,0.13629
1447,-0.022225,-0.052152,0.0017824,0.027105,0.034011,0.58388,0.11623
1448,0.014937,0.031709,0.0030979,0.016253,-0.06728,0.47732,0.098798
1449,0.046508,0.096496,0.0080309,0.0080309,-0.12648,0.29283,0.089919
1450,0.067556,0.14155,0.017239,0.0030979,-0.12417,0.058348,0.088932
1451,0.076435,0.16852,0.026119,-0.0011774,-0.061031,-0.18765,0.088932
1452,0.076435,0.1843,0.030394,-0.0077547,0.038944,-0.40667,0.088275
1453,0.07216,0.19187,0.030723,-0.014661,0.14089,-0.57374,0.085972
1454,0.066898,0.19417,0.027434,-0.021896,0.21324,-0.68719,0.084986
1455,0.059334,0.19384,0.022172,-0.026171,0.24186,-0.76119,0.077751
1456,0.052099,0.19417,0.015266,-0.023211,0.22771,-0.80953,0.061307
1457,0.047495,0.20042,0.0086887,-0.016963,0.18102,-0.83617,0.034998
1458,0.052428,0.21686,0.002769,-0.015976,0.11031,-0.83387,0.002769
1459,0.068214,0.24547,-0.00051963,-0.022225,0.013622,-0.79375,-0.025514
1460,0.092879,0.28888,-0.00019077,-0.031762,-0.10411,-0.71712,-0.041628
1461,0.1205,0.34315,0.0001381,-0.037682,-0.22349,-0.6155,-0.04393
1462,0.14648,0.40399,-0.00051963,-0.042286,-0.32018,-0.50303,-0.036695
1463,0.16819,0.46187,-0.0064392,-0.055769,-0.3797,-0.39253,-0.026171
1464,0.18299,0.50462,-0.016305,-0.079777,-0.39385,-0.28959,-0.018936
1465,0.1843,0.52994,-0.024527,-0.11003,-0.35997,-0.19685,-0.015976
1466,0.17411,0.53586,-0.027487,-0.1347,-0.27841,-0.1028,-0.01203
1467,0.15767,0.52633,-0.024527,-0.14687,-0.15081,0.0067154,-0.0057815
1468,0.13958,0.50955,-0.014332,-0.15015,0.019212,0.14385,-0.0028217
1469,0.12182,0.49147,0.0014536,-0.15114,0.23166,0.31256,-0.002164
1470,0.10603,0.46845,0.023817,-0.15344,0.47765,0.501,0.0024402
1471,0.096496,0.4349,0.049468,-0.15279,0.73187,0.69273,0.013622
1472,0.09255,0.38721,0.070516,-0.15048,0.95287,0.8621,0.028421
1473,0.091234,0.32769,0.074462,-0.14851,1.092,0.98575,0.04026
1474,0.091234,0.25994,0.060979,-0.14588,1.1166,1.0453,0.046508
1475,0.088275,0.1968,0.034669,-0.1416,1.0246,1.038,0.050455
1476,0.083342,0.13695,0.0054,-0.1347,0.83184,0.95977,0.051441
1477,0.073476,0.074791,-0.020252,-0.11266,0.55691,0.81672,0.047166
1478,0.059334,0.0093464,-0.036037,-0.050836,0.23331,0.63058,0.035985
1479,0.042233,-0.053796,-0.042615,0.058676,-0.10247,0.42339,0.017897
1480,0.024145,-0.098851,-0.038011,0.19351,-0.41325,0.2139,-0.0038083
1481,0.0037556,-0.11825,-0.022883,0.30829,-0.66582,0.01987,-0.028802
1482,-0.024198,-0.11266,0.00046697,0.36748,-0.83288,-0.15279,-0.055112
1483,-0.060373,-0.095891,0.02283,0.35992,-0.90491,-0.30801,-0.080763
1484,-0.090958,-0.089643,0.04026,0.30237,-0.90556,-0.44778,-0.10346
1485,-0.10905,-0.12023,0.050126,0.22574,-0.86643,-0.55663,-0.1176
1486,-0.11891,-0.20113,0.054072,0.15635,-0.80756,-0.59807,-0.12187
1487,-0.12648,-0.32445,0.046837,0.1011,-0.73258,-0.54118,-0.11825
1488,-0.13536,-0.46883,0.031052,0.062623,-0.63852,-0.38661,-0.11168
1489,-0.14785,-0.60366,0.012635,0.035985,-0.52177,-0.17844,-0.10477
1490,-0.15739,-0.71449,-0.0051238,0.01987,-0.38069,0.0096753,-0.097864
1491,-0.16002,-0.79243,-0.01795,0.013293,-0.21922,0.10636,-0.091945
1492,-0.15706,-0.82959,-0.026829,0.016581,-0.052152,0.08367,-0.087012
1493,-0.15015,-0.82466,-0.032091,0.02579,0.099456,-0.019923,-0.080763
1494,-0.14456,-0.77961,-0.036366,0.0373,0.21555,-0.11102,-0.073528
1495,-0.13634,-0.70693,-0.039326,0.048482,0.29086,-0.1028,-0.067609
1496,-0.11957,-0.61287,-0.039984,0.053743,0.32802,0.022172,-0.060373
1497,-0.094576,-0.50336,-0.036695,0.055388,0.32572,0.19285,-0.05281
1498,-0.068266,-0.38891,-0.029789,0.053415,0.28329,0.30401,-0.042615
1499,-0.051165,-0.284,-0.021238,0.047824,0.20305,0.28625,-0.029789
1500,-0.045903,-0.20376,-0.010386,0.039273,0.083342,0.13103,-0.011372
1501,-0.052481,-0.15673,0.0011247,0.033025,-0.069582,-0.11924,0.0083598
1502,-0.063004,-0.13601,0.01691,0.02875,-0.24289,-0.4024,0.028092
1503,-0.070568,-0.12187,0.03434,0.020857,-0.407,-0.66187,0.04618
1504,-0.073199,-0.097207,0.049468,0.0030979,-0.51355,-0.86149,0.06065
1505,-0.069582,-0.052481,0.054401,-0.027158,-0.52934,-0.98416,0.072818
1506,-0.057743,0.0054,0.048153,-0.063004,-0.45337,-1.0328,0.079066
1507,-0.040641,0.063281,0.032367,-0.0903,-0.31557,-1.0384,0.080711
1508,-0.028473,0.10702,0.015266,-0.10115,-0.16232,-1.0365,0.078409
1509,-0.024527,0.13037,0.0014536,-0.10082,-0.025842,-1.0427,0.070845
1510,-0.031433,0.13563,-0.0093991,-0.093918,0.07808,-1.0457,0.058019
1511,-0.042615,0.12905,-0.01499,-0.072542,0.13366,-1.0124,0.042562
1512,-0.050179,0.12116,-0.016963,-0.01203,0.1432,-0.91773,0.027763
1513,-0.047219,0.12445,-0.019594,0.1011,0.12971,-0.76086,0.010662
1514,-0.033735,0.14714,-0.026829,0.24843,0.14879,-0.56847,-0.0087413
1515,-0.011701,0.18957,-0.033078,0.38623,0.24547,-0.37609,-0.025842
1516,0.012635,0.24186,-0.034722,0.47338,0.41418,-0.21231,-0.033406
1517,0.033354,0.29711,-0.030447,0.47996,0.58651,-0.089643,-0.034064
1518,0.051113,0.34775,-0.024856,0.40267,0.66971,-0.0028217,-0.029789
1519,0.067885,0.3836,-0.024856,0.26356,0.60525,0.058019,-0.024527
1520,0.083342,0.3882,-0.030775,0.10965,0.41287,0.090905,-0.01795
1521,0.094523,0.35236,-0.04097,-0.01203,0.1774,0.10011,-0.0077547
1522,0.099785,0.27672,-0.047548,-0.071226,-0.0031506,0.093865,0.0021113
1523,0.096496,0.17115,-0.045574,-0.073857,-0.069253,0.088603,0.0083598
1524,0.083013,0.052757,-0.039655,-0.053138,-0.029789,0.10077,0.010004
1525,0.061965,-0.057085,-0.032749,-0.044588,0.062294,0.1478,0.011648
1526,0.038287,-0.13996,-0.025842,-0.063662,0.14616,0.23298,0.013622
1527,0.011977,-0.18567,-0.016963,-0.10609,0.18069,0.34611,0.014608
1528,-0.01203,-0.19028,-0.012688,-0.16364,0.15175,0.46351,0.014608
1529,-0.032091,-0.16298,-0.011372,-0.22086,0.074462,0.55264,0.010333
1530,-0.046561,-0.11957,-0.01499,-0.26361,-0.025842,0.59407,0.0040845
1531,-0.058071,-0.08175,-0.017292,-0.28466,-0.1347,0.58355,-0.0015062
1532,-0.064978,-0.067609,-0.013674,-0.28006,-0.24585,0.53093,0.0037556
1533,-0.063991,-0.075501,-0.0057815,-0.25539,-0.35635,0.4543,0.020857
1534,-0.054125,-0.092603,0.00046697,-0.21001,-0.4685,0.37242,0.040918
1535,-0.041957,-0.10641,0.0021113,-0.14785,-0.5836,0.30368,0.053743
1536,-0.032749,-0.11069,-0.0018351,-0.068595,-0.68292,0.25501,0.052757
1537,-0.027158,-0.10313,-0.010057,0.021186,-0.73324,0.23035,0.04322
1538,-0.022883,-0.086354,-0.018607,0.10834,-0.6941,0.23857,0.029407
1539,-0.017621,-0.059716,-0.021896,0.1751,-0.55433,0.28888,0.022172
1540,-0.010715,-0.021238,-0.015648,0.21094,-0.35076,0.38294,0.026447
1541,-0.0011774,0.02875,-0.0031506,0.20831,-0.14095,0.5158,0.044864
1542,0.013951,0.090905,0.010004,0.17378,0.031052,0.67267,0.073804
1543,0.031709,0.16819,0.021843,0.12017,0.1455,0.83119,0.10636
1544,0.049797,0.25402,0.032367,0.070845,0.20667,0.97523,0.13432
1545,0.064596,0.34052,0.039931,0.045851,0.23002,1.1051,0.15043
1546,0.079395,0.4132,0.04618,0.045851,0.24383,1.2278,0.15372
1547,0.099456,0.46022,0.052428,0.056703,0.28461,1.3462,0.1501
1548,0.12379,0.47732,0.057361,0.068214,0.3757,1.4412,0.14681
1549,0.1478,0.46351,0.058019,0.07512,0.50528,1.4781,0.14747
1550,0.1626,0.42734,0.054072,0.074133,0.63452,1.434,0.14846
1551,0.16063,0.3757,0.04881,0.058676,0.72036,1.3008,0.14352
1552,0.14287,0.31651,0.041904,0.018884,0.73187,1.0867,0.12741
1553,0.11426,0.25764,0.032038,-0.050179,0.64373,0.81803,0.10505
1554,0.083342,0.20568,0.019541,-0.1416,0.45233,0.54047,0.079066
1555,0.057032,0.1649,0.0060577,-0.2281,0.19877,0.29908,0.05473
1556,0.041575,0.1376,-0.0061104,-0.27775,-0.033406,0.12905,0.033683
1557,0.036642,0.12544,-0.016634,-0.27282,-0.17613,0.04322,0.017239
1558,0.038616,0.12445,-0.02946,-0.22119,-0.20343,0.026447,0.010004
1559,0.041904,0.12577,-0.040641,-0.14127,-0.14391,0.033683,0.012306
1560,0.038944,0.12346,-0.043601,-0.061031,-0.054454,0.021843,0.011648
1561,0.032696,0.11097,-0.035051,-0.0038083,0.010991,-0.030447,0.0047422
1562,0.027105,0.083342,-0.01795,0.015924,0.030394,-0.12352,-0.0064392
1563,0.021186,0.040589,0.0017824,0.0057288,0.013293,-0.24191,-0.019265
1564,0.010662,-0.010057,0.018555,-0.019594,-0.01499,-0.36096,-0.034064
1565,-0.0067681,-0.055112,0.024474,-0.042944,-0.036366,-0.45501,-0.048205
1566,-0.027816,-0.083065,0.01987,-0.055769,-0.04393,-0.50829,-0.063662
1567,-0.043272,-0.090958,0.0067154,-0.061031,-0.038668,-0.5221,-0.079119
1568,-0.045903,-0.081092,-0.011372,-0.0584,-0.020581,-0.51158,-0.088985
1569,-0.036695,-0.061031,-0.0265,-0.050507,0.002769,-0.49185,-0.088985
1570,-0.021238,-0.042944,-0.034064,-0.040313,0.021843,-0.46389,-0.083394
1571,-0.0054526,-0.031104,-0.035051,-0.032749,0.033354,-0.42838,-0.077146
1572,0.0093464,-0.020252,-0.033078,-0.028144,0.0373,-0.3774,-0.070897
1573,0.026776,0.0021113,-0.035708,-0.026171,0.035985,-0.3067,-0.069253
1574,0.050784,0.041247,-0.045574,-0.023869,0.032696,-0.21494,-0.078461
1575,0.074462,0.085972,-0.060045,-0.022554,0.030723,-0.11168,-0.093918
1576,0.091892,0.12412,-0.071226,-0.024198,0.034011,-0.0051238,-0.10839
1577,0.1011,0.14846,-0.073199,-0.022883,0.0373,0.093865,-0.11694
1578,0.10176,0.15043,-0.061689,-0.015319,0.034669,0.17246,-0.11793
1579,0.09551,0.12708,-0.037353,0.00046697,0.026119,0.22475,-0.11398
1580,0.079066,0.074462,-0.0090702,0.021843,0.021186,0.25139,-0.10905
1581,0.053743,-0.0097279,0.013951,0.04618,0.027763,0.26159,-0.10115
1582,0.021514,-0.11365,0.030394,0.07216,0.048153,0.26455,-0.090629
1583,-0.015648,-0.22283,0.041904,0.094523,0.069529,0.25961,-0.082408
1584,-0.052152,-0.33136,0.050126,0.11228,0.067556,0.24251,-0.076159
1585,-0.089972,-0.43397,0.056046,0.12149,0.021514,0.20371,-0.07024
1586,-0.13108,-0.52605,0.05769,0.11919,-0.074844,0.13859,-0.059058
1587,-0.17449,-0.61254,0.055059,0.10538,-0.19784,0.053086,-0.042286
1588,-0.21461,-0.69377,0.047495,0.086301,-0.29716,-0.04689,-0.022554
1589,-0.24618,-0.76316,0.036642,0.070187,-0.32149,-0.16134,-0.0057815
1590,-0.26526,-0.81282,0.024145,0.064596,-0.25342,-0.2965,0.0040845
1591,-0.27249,-0.84341,0.011648,0.074791,-0.10806,-0.4583,0.0096753
1592,-0.26789,-0.8513,0.0044134,0.094852,0.073147,-0.64115,0.020199
1593,-0.24651,-0.82367,0.0037556,0.10965,0.2435,-0.82269,0.042233
1594,-0.21034,-0.751,0.0080309,0.11097,0.36551,-0.95489,0.069858
1595,-0.16693,-0.64017,0.0096753,0.10274,0.42306,-0.98219,0.096825
1596,-0.1199,-0.51125,0.0086887,0.088932,0.42273,-0.87827,0.12182
1597,-0.074515,-0.38398,0.0060577,0.074791,0.37965,-0.66023,0.14385
1598,-0.038668,-0.26953,0.00079584,0.066898,0.31421,-0.39154,0.16391
1599,-0.015319,-0.17153,-0.0041372,0.067227,0.23495,-0.14719,0.1751
1600,0.0024402,-0.090958,-0.002164,0.073476,0.14254,0.0077021,0.17411
1601,0.013622,-0.019594,0.0086887,0.078737,0.0373,0.055388,0.16128
1602,0.021186,0.046837,0.025132,0.077093,-0.07583,0.021186,0.13991
1603,0.02875,0.11195,0.041575,0.067227,-0.18567,-0.051494,0.11195
1604,0.038616,0.17575,0.056046,0.054401,-0.27841,-0.12089,0.082355
1605,0.048153,0.23528,0.064267,0.039931,-0.34057,-0.1689,0.053086
1606,0.053743,0.28757,0.064596,0.026447,-0.37082,-0.19356,0.025132
1607,0.053415,0.32572,0.058019,0.010333,-0.38299,-0.2031,0.0011247
1608,0.04618,0.34611,0.046837,-0.0097279,-0.39319,-0.20047,-0.018278
1609,0.034669,0.34578,0.034011,-0.033078,-0.41193,-0.19455,-0.025514
1610,0.026776,0.3415,0.023159,-0.055112,-0.43298,-0.1906,-0.020581
1611,0.032038,0.35597,0.013293,-0.069582,-0.43791,-0.19883,-0.0074258
1612,0.051441,0.40333,0.0054,-0.074515,-0.41193,-0.21856,0.0044134
1613,0.076435,0.477,0.0001381,-0.073199,-0.33958,-0.24125,0.0070443
1614,0.099456,0.55757,-0.0015062,-0.068924,-0.22645,-0.25572,0.0011247
1615,0.11623,0.62038,-0.0024928,-0.067609,-0.092931,-0.26098,-0.010715
1616,0.12675,0.64801,-0.0041372,-0.072542,0.028092,-0.2646,-0.026829
1617,0.13267,0.63551,-0.0028217,-0.083723,0.099456,-0.27578,-0.038011
1618,0.13728,0.59341,0.0001381,-0.093918,0.094852,-0.29387,-0.038997
1619,0.14254,0.5408,0.002769,-0.092603,0.038287,-0.31656,-0.029789
1620,0.14747,0.49311,0.0080309,-0.071884,-0.0031506,-0.34484,-0.014661
1621,0.14648,0.45661,0.018226,-0.036695,0.033025,-0.37806,-0.0018351
1622,0.1353,0.42931,0.030723,-0.00019077,0.14418,-0.42147,0.0054
1623,0.11031,0.40037,0.04026,0.023817,0.27145,-0.48067,0.0077021
1624,0.077751,0.36123,0.042891,0.030065,0.34545,-0.554,0.0060577
1625,0.045522,0.31125,0.033025,0.024474,0.32243,-0.61419,0.0024402
1626,0.020528,0.25698,0.010004,0.013293,0.21226,-0.6303,-0.0015062
1627,0.0063866,0.20469,-0.016634,0.00046697,0.069529,-0.58722,-0.0054526
1628,0.0034268,0.16326,-0.037024,-0.004466,-0.051494,-0.49415,-0.0077547
1629,0.0044134,0.13267,-0.047548,0.00079584,-0.10872,-0.37773,-0.010057
1630,0.010662,0.1136,-0.047219,0.018884,-0.082408,-0.26624,-0.0087413
1631,0.020199,0.097483,-0.037353,0.04618,0.020528,-0.17186,0.0001381
1632,0.030723,0.079724,-0.022225,0.065254,0.16095,-0.095562,0.016253
1633,0.035985,0.059992,-0.0077547,0.059334,0.27573,-0.03242,0.032367
1634,0.03434,0.040589,0.0037556,0.027434,0.30007,0.031709,0.04322
1635,0.025461,0.023817,0.011977,-0.014003,0.21752,0.10834,0.044206
1636,0.011977,0.013293,0.018555,-0.044917,0.065912,0.19845,0.03434
1637,-0.0011774,0.010662,0.021186,-0.048534,-0.085039,0.29316,0.012964
1638,-0.011701,0.011648,0.019212,-0.026171,-0.17416,0.37998,-0.01203
1639,-0.016963,0.0090175,0.012964,0.010004,-0.16397,0.44115,-0.028802
1640,-0.014661,-0.0041372,0.0044134,0.047824,-0.060373,0.47108,-0.033735
1641,-0.0047949,-0.02946,-0.0047949,0.081368,0.10472,0.47469,-0.029789
1642,0.01132,-0.065307,-0.012359,0.11064,0.28625,0.47338,-0.016305
1643,0.02875,-0.10707,-0.015976,0.13695,0.44904,0.49245,0.0014536
1644,0.043877,-0.15246,-0.01499,0.15898,0.57368,0.5431,0.017239
1645,0.051113,-0.19488,-0.013674,0.17641,0.6582,0.62893,0.029736
1646,0.047166,-0.22875,-0.018278,0.18299,0.71181,0.74436,0.044864
1647,0.031381,-0.24618,-0.027816,0.16556,0.73943,0.8838,0.067556
1648,0.0090175,-0.2452,-0.038668,0.11721,0.73088,1.0285,0.09551
1649,-0.0084125,-0.23303,-0.049192,0.045522,0.65754,1.1288,0.12774
1650,-0.016963,-0.2156,-0.056427,-0.027158,0.49114,1.1206,0.15832
1651,-0.019265,-0.20836,-0.059716,-0.074844,0.2287,0.96339,0.17773
1652,-0.022225,-0.21724,-0.059716,-0.08175,-0.086025,0.67037,0.17904
1653,-0.035051,-0.23895,-0.054125,-0.050836,-0.37806,0.30533,0.15964
1654,-0.0584,-0.25868,-0.040313,0.0057288,-0.57406,-0.044588,0.12774
1655,-0.083394,-0.26361,-0.019594,0.066569,-0.64872,-0.29683,0.092221
1656,-0.1028,-0.25802,0.0034268,0.11327,-0.62931,-0.39746,0.064596
1657,-0.11595,-0.25671,0.022172,0.13366,-0.56913,-0.31886,0.049468
1658,-0.12319,-0.27414,0.030723,0.12873,-0.51125,-0.080763,0.04322
1659,-0.12483,-0.31623,0.027763,0.1034,-0.47508,0.25172,0.044206
1660,-0.12352,-0.36984,0.016581,0.066569,-0.46554,0.59835,0.04618
1661,-0.12154,-0.41029,0.0047422,0.030065,-0.47508,0.88709,0.044535
1662,-0.11793,-0.41522,-0.0011774,0.0001381,-0.48724,1.0762,0.040918
1663,-0.11036,-0.37148,0.0001381,-0.015976,-0.49218,1.137,0.032696
1664,-0.098193,-0.284,0.0050711,-0.019594,-0.48593,1.0545,0.020857
1665,-0.083394,-0.16923,0.010662,-0.015648,-0.47047,0.85059,-0.0011774
1666,-0.070568,-0.052152,0.015266,-0.011043,-0.45074,0.57204,-0.030447
1667,-0.058729,0.04618,0.017897,-0.010715,-0.42015,0.27343,-0.058071
1668,-0.044917,0.11985,0.01691,-0.016963,-0.37674,0.0047422,-0.076817
1669,-0.025842,0.16918,0.013951,-0.02354,-0.31722,-0.2008,-0.083394
1670,-0.002164,0.1991,0.013293,-0.019265,-0.23599,-0.33136,-0.078461
1671,0.028421,0.22081,0.018884,0.0040845,-0.12352,-0.39385,-0.06728
1672,0.064267,0.24646,0.027763,0.050784,0.024474,-0.40733,-0.04985
1673,0.1011,0.27803,0.036971,0.1113,0.20371,-0.3876,-0.025185
1674,0.13333,0.31421,0.043877,0.16852,0.39642,-0.34517,0.0047422
1675,0.15997,0.34479,0.048153,0.20239,0.56546,-0.29255,0.034011
1676,0.17904,0.36419,0.045522,0.20404,0.66642,-0.24454,0.051441
1677,0.18759,0.37176,0.039602,0.1751,0.67366,-0.2156,0.053086
1678,0.1922,0.37439,0.037629,0.13103,0.58914,-0.21757,0.040918
1679,0.1922,0.3734,0.042562,0.088275,0.45365,-0.24914,0.021514
1680,0.18365,0.36617,0.049797,0.059334,0.32177,-0.29288,-0.0015062
1681,0.16391,0.34578,0.054072,0.041575,0.22739,-0.3261,-0.021567
1682,0.13695,0.31125,0.052757,0.034998,0.17477,-0.3386,-0.035051
1683,0.10965,0.2606,0.04322,0.033025,0.15306,-0.32445,-0.044917
1684,0.08663,0.19318,0.030394,0.034998,0.14287,-0.29255,-0.056756
1685,0.070516,0.1205,0.018555,0.033025,0.12708,-0.25177,-0.069253
1686,0.059334,0.057032,0.010662,0.02283,0.099785,-0.21034,-0.073857
1687,0.052428,0.012635,0.0073732,0.0083598,0.060321,-0.18107,-0.064978
1688,0.046837,-0.014003,0.010004,-0.0061104,0.01132,-0.18074,-0.042615
1689,0.036314,-0.03242,0.016253,-0.015976,-0.045574,-0.22218,-0.014661
1690,0.017568,-0.054783,0.020857,-0.023869,-0.11168,-0.29979,0.0090175
1691,-0.0080836,-0.089643,0.021843,-0.032091,-0.19093,-0.38431,0.020857
1692,-0.034064,-0.12976,0.024145,-0.042615,-0.284,-0.44811,0.02283
1693,-0.053796,-0.16726,0.029407,-0.05544,-0.3751,-0.46685,0.018884
1694,-0.069253,-0.19159,0.033683,-0.071226,-0.4343,-0.4366,0.014608
1695,-0.079448,-0.20508,0.031381,-0.087998,-0.44449,-0.37181,0.010991
1696,-0.091287,-0.21823,0.018884,-0.10082,-0.41128,-0.29354,0.0067154
1697,-0.10313,-0.23402,-0.0011774,-0.1074,-0.35241,-0.21527,-0.0008485
1698,-0.11003,-0.24421,-0.024198,-0.11135,-0.28894,-0.14292,-0.007097
1699,-0.10674,-0.23303,-0.040641,-0.11694,-0.24158,-0.076488,-0.0064392
1700,-0.092603,-0.18666,-0.049521,-0.12615,-0.22316,-0.016634,0.0001381
1701,-0.067937,-0.11003,-0.051165,-0.13404,-0.24289,0.031381,0.0057288
1702,-0.03538,-0.017621,-0.04985,-0.13733,-0.28927,0.067556,0.0030979
1703,-0.0024928,0.072818,-0.046561,-0.13503,-0.3432,0.097483,-0.0087413
1704,0.024803,0.14879,-0.042615,-0.13075,-0.3876,0.12807,-0.024198
1705,0.041904,0.19845,-0.043272,-0.13009,-0.40832,0.16687,-0.033735
1706,0.051441,0.21719,-0.047877,-0.13042,-0.40733,0.20897,-0.034393
1707,0.055059,0.207,-0.053467,-0.13042,-0.39976,0.2435,-0.025185
1708,0.052428,0.17542,-0.0584,-0.13009,-0.40667,0.25929,-0.014661
1709,0.043877,0.133,-0.060702,-0.12812,-0.44219,0.25698,-0.0090702
1710,0.033025,0.094194,-0.0584,-0.12384,-0.50204,0.24613,-0.0093991
1711,0.019541,0.068871,-0.048534,-0.11727,-0.56617,0.21883,-0.012688
1712,0.0063866,0.06065,-0.036037,-0.10609,-0.61254,0.1501,-0.012688
1713,-0.0031506,0.061307,-0.027158,-0.094247,-0.63885,0.010004,-0.011372
1714,-0.011372,0.056703,-0.023211,-0.087998,-0.65497,-0.20869,-0.014661
1715,-0.022225,0.035985,-0.020909,-0.090629,-0.6576,-0.48067,-0.02354
1716,-0.041628,-0.0057815,-0.019265,-0.095891,-0.62997,-0.75922,-0.038668
1717,-0.070897,-0.071884,-0.016963,-0.093918,-0.54216,-0.99567,-0.059716
1718,-0.10148,-0.15607,-0.01499,-0.084052,-0.36359,-1.1568,-0.082736
1719,-0.12746,-0.24454,-0.014661,-0.071226,-0.075501,-1.242,-0.10115
1720,-0.1416,-0.32478,-0.015976,-0.06136,0.33098,-1.265,-0.11003
1721,-0.14456,-0.38233,-0.018278,-0.053796,0.82954,-1.243,-0.10806
1722,-0.14029,-0.41325,-0.019265,-0.041957,1.3317,-1.1956,-0.10576
1723,-0.1324,-0.40996,-0.018936,-0.016634,1.7458,-1.1315,-0.10411
1724,-0.12549,-0.36622,-0.014332,0.026447,2.0454,-1.0371,-0.096878
1725,-0.11497,-0.28663,-0.0054526,0.079724,2.2262,-0.87498,-0.080763
1726,-0.09918,-0.1906,0.0024402,0.13333,2.2631,-0.62011,-0.059387
1727,-0.077803,-0.093918,0.0083598,0.18036,2.1194,-0.29913,-0.035051
1728,-0.054125,-0.0093991,0.013951,0.21555,1.7974,0.016581,-0.013674
1729,-0.029131,0.049797,0.019212,0.24087,1.3541,0.25534,0.0050711
1730,-0.0038083,0.075449,0.022172,0.25534,0.87065,0.40037,0.023817
1731,0.017568,0.067227,0.021843,0.25764,0.42273,0.48653,0.04322
1732,0.030065,0.037958,0.018884,0.25139,0.054072,0.55658,0.066898
1733,0.031709,-0.002164,0.017568,0.23495,-0.22908,0.62729,0.090577
1734,0.023159,-0.04097,0.020199,0.207,-0.42772,0.68747,0.1057
1735,0.012306,-0.071226,0.026447,0.17181,-0.54545,0.71773,0.10998
1736,0.0077021,-0.087669,0.033025,0.13497,-0.59117,0.69668,0.10439
1737,0.010662,-0.090629,0.036314,0.10702,-0.57637,0.62104,0.088275
1738,0.014608,-0.080434,0.033354,0.090577,-0.50369,0.51186,0.065912
1739,0.019212,-0.062676,0.027434,0.081697,-0.37543,0.40826,0.039602
1740,0.022501,-0.040641,0.017568,0.076764,-0.19948,0.34183,0.015924
1741,0.024803,-0.01795,0.0057288,0.073804,0.00079584,0.31717,-0.0028217
1742,0.029078,0.0024402,-0.0057815,0.066898,0.18759,0.31848,-0.013674
1743,0.036971,0.017897,-0.014661,0.054072,0.3221,0.31486,-0.013345
1744,0.047495,0.026119,-0.018278,0.036314,0.38623,0.28165,-0.0028217
1745,0.055059,0.03434,-0.016963,0.020199,0.38327,0.22245,0.013622
1746,0.06065,0.049139,-0.011372,0.0070443,0.3346,0.17246,0.028421
1747,0.067227,0.074462,-0.004466,-0.0018351,0.26685,0.17806,0.035656
1748,0.077751,0.10768,0.00079584,-0.0057815,0.19845,0.25797,0.036971
1749,0.091563,0.14254,0.0057288,-0.0034794,0.12248,0.39807,0.038944
1750,0.1034,0.16983,0.010004,0.0047422,0.015595,0.55757,0.045522
1751,0.11097,0.18365,0.013951,0.017897,-0.13634,0.69799,0.055388
1752,0.11393,0.18825,0.016581,0.032367,-0.31163,0.80027,0.064267
1753,0.1159,0.1945,0.015924,0.04026,-0.46817,0.86374,0.067227
1754,0.12313,0.21193,0.012635,0.035656,-0.56387,0.8963,0.061965
1755,0.13662,0.24383,0.0070443,0.017568,-0.58196,0.90781,0.053415
1756,0.15109,0.28033,0.0063866,-0.0054526,-0.53493,0.89926,0.047166
1757,0.16293,0.30927,0.013293,-0.020909,-0.44909,0.86276,0.047166
1758,0.16391,0.32111,0.027763,-0.025514,-0.34682,0.78712,0.058676
1759,0.15865,0.31223,0.044864,-0.018607,-0.24651,0.67465,0.081039
1760,0.15306,0.28296,0.06065,-0.0064392,-0.16923,0.53356,0.10801
1761,0.14254,0.23429,0.070845,0.0086887,-0.13108,0.37538,0.13333
1762,0.11985,0.17049,0.076764,0.01987,-0.12187,0.21588,0.14813
1763,0.090248,0.094523,0.080711,0.022501,-0.11464,0.06624,0.14714
1764,0.058676,0.0086887,0.084328,0.020199,-0.086683,-0.061689,0.13333
1765,0.027434,-0.080763,0.083013,0.014937,-0.046561,-0.15805,0.11393
1766,-0.0034794,-0.16265,0.071173,0.0040845,-0.012688,-0.22645,0.092221
1767,-0.034722,-0.23073,0.048482,-0.011372,-0.00051963,-0.27348,0.068871
1768,-0.06728,-0.27282,0.02283,-0.03242,-0.017292,-0.30571,0.044864
1769,-0.096878,-0.29025,-0.0034794,-0.054454,-0.065307,-0.32413,0.020857
1770,-0.12187,-0.28696,-0.025514,-0.072213,-0.13536,-0.33564,-0.0038083
1771,-0.14226,-0.27282,-0.042615,-0.085039,-0.21461,-0.3409,-0.022883
1772,-0.1564,-0.2521,-0.054783,-0.092603,-0.29124,-0.33892,-0.036037
1773,-0.16002,-0.22119,-0.062018,-0.10082,-0.35339,-0.32413,-0.043272
1774,-0.14917,-0.17416,-0.06432,-0.11003,-0.39746,-0.29058,-0.048534
1775,-0.12615,-0.10576,-0.066951,-0.11825,-0.43627,-0.2373,-0.047219
1776,-0.099509,-0.020909,-0.071884,-0.12713,-0.47672,-0.16232,-0.038339
1777,-0.077146,0.069858,-0.070568,-0.13404,-0.51849,-0.065307,-0.026171
1778,-0.066293,0.14813,-0.060045,-0.13634,-0.55499,0.044206,-0.013674
1779,-0.068595,0.19088,-0.037682,-0.12615,-0.57538,0.14287,-0.0034794
