,channel_1,channel_2,channel_3,channel_4,channel_5,channel_6,channel_7
0,0.13366,0.4007,0.036314,0.0096753,0.79961,0.2458,0.087617
1,0.15175,0.44608,0.032696,0.0373,0.58782,0.47667,0.067556
2,0.17838,0.48949,0.023817,0.087946,0.36255,0.63584,0.047166
3,0.20469,0.52633,0.013622,0.1626,0.15635,0.69865,0.029407
4,0.22212,0.5556,0.0060577,0.25172,-0.002164,0.64439,0.010333
5,0.22508,0.57434,0.0021113,0.3369,-0.10247,0.4691,-0.0064392
6,0.20798,0.57631,-0.0034794,0.39971,-0.15936,0.1968,-0.019594
7,0.17345,0.5602,-0.0084125,0.41385,-0.19159,-0.12648,-0.03538
8,0.12741,0.52435,-0.0077547,0.36617,-0.20639,-0.44942,-0.057085
9,0.081368,0.47173,0.0017824,0.26652,-0.19093,-0.72633,-0.07879
10,0.049468,0.40662,0.019541,0.14056,-0.14095,-0.94338,-0.089972
11,0.037629,0.33493,0.040589,0.020857,-0.064978,-1.1121,-0.087998
12,0.036971,0.25534,0.058676,-0.067609,0.010004,-1.2565,-0.081092
13,0.032696,0.16326,0.070187,-0.11497,0.056703,-1.3943,-0.080434
14,0.019212,0.056703,0.072489,-0.12615,0.067227,-1.5324,-0.087341
15,0.0037556,-0.060702,0.065583,-0.12089,0.045522,-1.6587,-0.10082
16,-0.0084125,-0.18765,0.051113,-0.11299,0.0090175,-1.7445,-0.11365
17,-0.022554,-0.31853,0.032038,-0.089643,-0.035708,-1.7586,-0.11727
18,-0.044917,-0.44712,0.01132,-0.034393,-0.087998,-1.6537,-0.10806
19,-0.073857,-0.56288,-0.011372,0.044864,-0.14719,-1.3781,-0.086683
20,-0.1028,-0.65398,-0.033406,0.12083,-0.20705,-0.90688,-0.052152
21,-0.12417,-0.71022,-0.050507,0.16457,-0.24914,-0.2692,-0.0051238
22,-0.13272,-0.7214,-0.058729,0.16194,-0.24125,0.46713,0.052757
23,-0.1245,-0.67667,-0.057414,0.12971,-0.1564,1.214,0.11294
24,-0.10543,-0.58097,-0.048534,0.11393,-0.010386,1.8944,0.15964
25,-0.081421,-0.45238,-0.038011,0.15569,0.14254,2.4443,0.18693
26,-0.06136,-0.31722,-0.027158,0.2606,0.2412,2.8218,0.19121
27,-0.051165,-0.20014,-0.014332,0.38787,0.25961,3.0037,0.17345
28,-0.049192,-0.11661,-0.0018351,0.48588,0.20667,2.9941,0.14352
29,-0.049521,-0.067937,0.0086887,0.52731,0.12017,2.8172,0.11557
30,-0.050179,-0.040313,0.012635,0.50988,0.041904,2.4995,0.1011
31,-0.047548,-0.01203,0.015266,0.45266,0.0077021,2.0723,0.097154
32,-0.03538,0.034669,0.018884,0.38195,0.023488,1.5833,0.096167
33,-0.011043,0.097154,0.022501,0.31684,0.070516,1.0877,0.093865
34,0.022501,0.15734,0.023488,0.25797,0.11623,0.64702,0.086959
35,0.055388,0.19384,0.016581,0.19943,0.13497,0.29382,0.073804
36,0.074791,0.19318,0.0040845,0.13925,0.11458,0.028092,0.060979
37,0.080711,0.15767,-0.013017,0.07808,0.064925,-0.17087,0.051441
38,0.077751,0.10307,-0.027487,0.018884,0.0067154,-0.32807,0.048153
39,0.068871,0.052099,-0.033406,-0.036366,-0.048863,-0.46916,0.045522
40,0.052099,0.015924,-0.032749,-0.087998,-0.1005,-0.60268,0.038287
41,0.030394,-0.007097,-0.026829,-0.13404,-0.13864,-0.71614,0.026447
42,0.0083598,-0.021238,-0.020581,-0.17285,-0.15246,-0.7852,0.010991
43,-0.010057,-0.028802,-0.013674,-0.19981,-0.14391,-0.80394,-0.0077547
44,-0.020252,-0.028802,-0.0080836,-0.21198,-0.13075,-0.78684,-0.026829
45,-0.023211,-0.013017,-0.0015062,-0.20573,-0.12845,-0.76316,-0.039326
46,-0.022554,0.018555,0.0030979,-0.18501,-0.13536,-0.75034,-0.042615
47,-0.022225,0.05769,0.0070443,-0.15838,-0.14555,-0.75757,-0.044588
48,-0.021896,0.092879,0.0096753,-0.13963,-0.15607,-0.78487,-0.051165
49,-0.022225,0.11787,0.0073732,-0.13601,-0.17482,-0.82598,-0.057743
50,-0.019265,0.13103,-0.0028217,-0.14588,-0.21001,-0.86577,-0.058729
51,-0.010386,0.13399,-0.018936,-0.16594,-0.25638,-0.88912,-0.054783
52,0.0017824,0.13169,-0.036037,-0.18896,-0.29354,-0.88715,-0.046232
53,0.015595,0.12412,-0.049521,-0.2054,-0.30604,-0.86478,-0.039984
54,0.023488,0.11294,-0.060045,-0.20606,-0.28302,-0.82203,-0.040641
55,0.021843,0.096825,-0.066951,-0.19093,-0.22053,-0.75593,-0.044588
56,0.010991,0.076435,-0.065635,-0.16791,-0.11431,-0.6599,-0.043272
57,-0.0028217,0.050784,-0.057085,-0.14391,0.024145,-0.53,-0.028144
58,-0.017621,0.021186,-0.044917,-0.12549,0.16622,-0.37609,-0.0084125
59,-0.034064,-0.0074258,-0.03242,-0.11628,0.28559,-0.21527,0.0073732
60,-0.053467,-0.028144,-0.018936,-0.10905,0.36617,-0.06432,0.012306
61,-0.068595,-0.036695,-0.00051963,-0.093918,0.40991,0.062623,0.0080309
62,-0.07287,-0.031104,0.018884,-0.067937,0.43194,0.15898,0.0017824
63,-0.066622,-0.0090702,0.031709,-0.037353,0.44806,0.22179,-0.0028217
64,-0.04985,0.021843,0.031381,-0.014332,0.46483,0.25534,-0.0024928
65,-0.022225,0.050784,0.019541,-0.0080836,0.48028,0.26948,0.0040845
66,0.013293,0.076435,0.0054,-0.019594,0.49015,0.27343,0.018555
67,0.052428,0.096825,-0.0057815,-0.040641,0.47371,0.27244,0.038944
68,0.084657,0.11097,-0.012688,-0.063004,0.39971,0.26356,0.059663
69,0.10702,0.12215,-0.014332,-0.080106,0.25008,0.23988,0.067885
70,0.11524,0.1307,-0.012359,-0.087341,0.033025,0.19483,0.056374
71,0.10702,0.1353,-0.0064392,-0.085039,-0.21626,0.12873,0.027763
72,0.084657,0.12774,0.0030979,-0.072542,-0.44811,0.056046,-0.0011774
73,0.053086,0.09551,0.014279,-0.050179,-0.60761,-0.0064392,-0.017621
74,0.021843,0.044864,0.02283,-0.021896,-0.66154,-0.042286,-0.016963
75,-0.0061104,-0.013017,0.026776,0.0047422,-0.60892,-0.043601,-0.0080836
76,-0.030775,-0.071555,0.027763,0.014608,-0.49218,-0.018607,-0.004466
77,-0.055769,-0.13009,0.025461,-0.0018351,-0.37082,0.01987,-0.013017
78,-0.080434,-0.19258,0.021514,-0.04097,-0.28466,0.056703,-0.029131
79,-0.098522,-0.25737,0.01987,-0.081421,-0.24585,0.079724,-0.044588
80,-0.10674,-0.3113,0.020199,-0.1051,-0.23533,0.081039,-0.056098
81,-0.10641,-0.34057,0.019212,-0.10346,-0.22316,0.062952,-0.062347
82,-0.10115,-0.3409,0.010662,-0.083065,-0.19028,0.035656,-0.065635
83,-0.094576,-0.31623,-0.0047949,-0.056427,-0.13174,0.0077021,-0.065635
84,-0.089972,-0.27348,-0.025842,-0.037682,-0.053467,-0.024527,-0.062676
85,-0.0903,-0.22283,-0.051494,-0.033078,0.027763,-0.064649,-0.062676
86,-0.092603,-0.17252,-0.079119,-0.038011,0.093536,-0.11431,-0.062347
87,-0.092603,-0.13371,-0.097536,-0.042286,0.13037,-0.17219,-0.059058
88,-0.088985,-0.10543,-0.10247,-0.039655,0.13826,-0.22908,-0.053467
89,-0.084052,-0.078132,-0.093918,-0.030118,0.12774,-0.26789,-0.050507
90,-0.079448,-0.04393,-0.07583,-0.019923,0.11031,-0.26855,-0.052152
91,-0.076159,-0.0051238,-0.058729,-0.01499,0.094194,-0.22645,-0.055769
92,-0.070568,0.02875,-0.050836,-0.015976,0.083013,-0.15246,-0.058071
93,-0.0584,0.056046,-0.054125,-0.020252,0.073804,-0.072213,-0.051165
94,-0.036037,0.079066,-0.061689,-0.019923,0.05769,0.0034268,-0.03538
95,-0.0064392,0.099127,-0.063333,-0.012359,0.022172,0.080711,-0.015319
96,0.027105,0.12346,-0.051165,0.0037556,-0.044917,0.16391,0.0067154
97,0.059663,0.1603,-0.024527,0.026119,-0.14423,0.24843,0.031381
98,0.085972,0.20963,0.011977,0.048153,-0.25934,0.30007,0.059992
99,0.10011,0.26159,0.053086,0.070845,-0.36754,0.27376,0.087617
100,0.10472,0.29941,0.088275,0.096167,-0.45271,0.14977,0.10899
101,0.1057,0.30829,0.11162,0.12905,-0.50895,-0.046232,0.11919
102,0.1057,0.27836,0.12017,0.16523,-0.53756,-0.24585,0.11623
103,0.1034,0.21061,0.11064,0.19746,-0.5448,-0.37707,0.10669
104,0.099456,0.11787,0.083342,0.21456,-0.53559,-0.39845,0.091234
105,0.094523,0.015595,0.043549,0.20634,-0.51684,-0.3238,0.074791
106,0.086301,-0.077146,0.0024402,0.17641,-0.49875,-0.20212,0.05769
107,0.071173,-0.14621,-0.018936,0.13662,-0.48659,-0.091945,0.04026
108,0.054401,-0.19192,-0.0041372,0.10406,-0.47014,-0.031104,0.02579
109,0.041247,-0.21889,0.05473,0.090248,-0.43627,-0.028473,0.014937
110,0.036314,-0.23895,0.15339,0.10044,-0.37017,-0.064978,0.0063866
111,0.038616,-0.26164,0.26784,0.13103,-0.26953,-0.10411,0.002769
112,0.038616,-0.28828,0.35926,0.17575,-0.14029,-0.11398,0.0083598
113,0.028421,-0.31064,0.39642,0.23002,0.013293,-0.074186,0.020199
114,0.010004,-0.31196,0.37044,0.28296,0.17641,0.014937,0.029078
115,-0.0077547,-0.2794,0.29382,0.31815,0.32276,0.13037,0.031052
116,-0.011043,-0.20705,0.19351,0.32078,0.42536,0.23791,0.027105
117,0.0070443,-0.10313,0.097483,0.2879,0.46121,0.31256,0.023817
118,0.043549,0.018226,0.025461,0.22936,0.4349,0.34512,0.026119
119,0.085972,0.13662,-0.018278,0.16161,0.36222,0.33756,0.034669
120,0.11952,0.22969,-0.033735,0.10044,0.26323,0.29908,0.046508
121,0.13728,0.27968,-0.026829,0.056703,0.16161,0.24942,0.058019
122,0.13629,0.28362,-0.015319,0.029407,0.078409,0.2093,0.062294
123,0.11721,0.25534,-0.014003,0.012306,0.030723,0.18595,0.060979
124,0.088603,0.21653,-0.029789,0.0001381,0.021843,0.17444,0.056046
125,0.058676,0.18989,-0.060045,-0.016305,0.041247,0.16983,0.053086
126,0.036642,0.19154,-0.09622,-0.043601,0.068543,0.1649,0.05473
127,0.024145,0.21686,-0.12812,-0.07879,0.085644,0.15503,0.058019
128,0.014937,0.24416,-0.14884,-0.11661,0.082355,0.13925,0.058676
129,-0.0008485,0.24482,-0.15739,-0.14391,0.065912,0.12544,0.054401
130,-0.024856,0.2014,-0.15838,-0.15476,0.065912,0.12511,0.04881
131,-0.04985,0.11327,-0.15772,-0.14654,0.11458,0.15273,0.049797
132,-0.071555,-0.0015062,-0.1564,-0.11924,0.23462,0.22443,0.060979
133,-0.088656,-0.12154,-0.14687,-0.072213,0.4224,0.34972,0.079724
134,-0.10247,-0.2304,-0.12417,-0.0093991,0.64834,0.51087,0.10538
135,-0.11562,-0.32347,-0.089643,0.055717,0.85815,0.66017,0.12675
136,-0.12976,-0.40009,-0.053138,0.10899,0.9897,0.74075,0.13497
137,-0.14522,-0.44844,-0.02354,0.13892,0.99792,0.71773,0.12905
138,-0.15739,-0.45666,-0.0064392,0.13925,0.8769,0.59769,0.11064
139,-0.15739,-0.42081,-0.0018351,0.1136,0.66412,0.4201,0.084657
140,-0.14259,-0.34451,-0.0028217,0.072818,0.42438,0.23495,0.058019
141,-0.1222,-0.2373,-0.0051238,0.023488,0.22015,0.079395,0.039273
142,-0.10444,-0.11825,-0.0061104,-0.022883,0.083013,-0.032091,0.032367
143,-0.089643,-0.0064392,-0.007097,-0.053138,0.0077021,-0.10411,0.033025
144,-0.076817,0.097812,-0.0090702,-0.063991,-0.02946,-0.14752,0.034998
145,-0.065635,0.19779,-0.0061104,-0.062018,-0.05281,-0.18304,0.031381
146,-0.051494,0.29086,0.0021113,-0.057414,-0.076159,-0.22711,0.025461
147,-0.035051,0.37011,0.015924,-0.056756,-0.10773,-0.28696,0.023488
148,-0.017621,0.42832,0.02579,-0.061689,-0.14423,-0.35339,0.027434
149,0.0014536,0.45463,0.026447,-0.067937,-0.17679,-0.4093,0.034669
150,0.017568,0.44838,0.020528,-0.073857,-0.19948,-0.44318,0.041247
151,0.027105,0.41583,0.01132,-0.082079,-0.21395,-0.45074,0.038616
152,0.022501,0.37143,0.0030979,-0.094247,-0.2281,-0.44449,0.023488
153,0.0090175,0.32078,-0.0011774,-0.1074,-0.24158,-0.43265,0.0021113
154,-0.0054526,0.2629,-0.0034794,-0.11529,-0.25112,-0.41917,-0.017621
155,-0.0097279,0.19581,-0.0064392,-0.11135,-0.25177,-0.40075,-0.030775
156,-0.0028217,0.12248,-0.013345,-0.097536,-0.24191,-0.3774,-0.035051
157,0.010991,0.044206,-0.026171,-0.084052,-0.22744,-0.35241,-0.034064
158,0.024145,-0.034722,-0.041628,-0.07879,-0.2156,-0.32478,-0.033406
159,0.029407,-0.10477,-0.056098,-0.082736,-0.20869,-0.29321,-0.036366
160,0.023159,-0.15772,-0.063991,-0.089643,-0.20672,-0.26032,-0.045246
161,0.0080309,-0.18633,-0.063662,-0.091287,-0.20508,-0.22645,-0.0584
162,-0.0087413,-0.18238,-0.053796,-0.087012,-0.20113,-0.186,-0.071555
163,-0.020252,-0.1518,-0.041299,-0.07287,-0.20179,-0.12746,-0.080106
164,-0.025514,-0.11562,-0.033735,-0.053796,-0.22481,-0.039326,-0.082079
165,-0.023869,-0.093918,-0.030447,-0.037682,-0.27447,0.084328,-0.074515
166,-0.01795,-0.092603,-0.028144,-0.026171,-0.33596,0.23791,-0.063991
167,-0.0080836,-0.097207,-0.023211,-0.01499,-0.38201,0.40596,-0.053467
168,0.0080309,-0.090958,-0.014661,-0.0024928,-0.38957,0.57105,-0.044259
169,0.035327,-0.060045,-0.0051238,0.016253,-0.34846,0.71838,-0.034064
170,0.074462,0.002769,-0.00019077,0.033683,-0.26263,0.82954,-0.026171
171,0.11919,0.089261,-0.0008485,0.038616,-0.14292,0.88742,-0.01795
172,0.15964,0.17904,-0.0090702,0.025461,-0.007097,0.8894,-0.011043
173,0.18562,0.256,-0.021567,0.00079584,0.12741,0.84533,-0.0093991
174,0.1968,0.31421,-0.034064,-0.022225,0.25402,0.77561,-0.015319
175,0.19516,0.36025,-0.040641,-0.033406,0.37801,0.70293,-0.025842
176,0.18595,0.40169,-0.039984,-0.025185,0.50396,0.63748,-0.037682
177,0.17411,0.44148,-0.031433,0.0014536,0.6217,0.58421,-0.049192
178,0.16227,0.47535,-0.017621,0.033683,0.71279,0.5431,-0.060702
179,0.15043,0.49278,-0.0015062,0.057032,0.75324,0.51021,-0.06728
180,0.14418,0.49048,0.017568,0.067227,0.73154,0.47798,-0.067609
181,0.14089,0.45957,0.040918,0.074133,0.64472,0.43687,-0.06136
182,0.13563,0.39478,0.064267,0.079395,0.49114,0.37932,-0.050179
183,0.11853,0.29743,0.078737,0.077093,0.28461,0.3073,-0.041957
184,0.082026,0.17378,0.079724,0.068543,0.055059,0.23067,-0.041628
185,0.029407,0.041247,0.071173,0.059334,-0.15279,0.15602,-0.045246
186,-0.032091,-0.08471,0.060979,0.056703,-0.30768,0.071502,-0.049521
187,-0.0903,-0.19126,0.055388,0.061636,-0.39483,-0.042944,-0.053467
188,-0.13601,-0.27644,0.059663,0.072489,-0.42015,-0.19883,-0.050179
189,-0.15903,-0.34419,0.076106,0.085972,-0.40338,-0.38694,-0.038997
190,-0.16594,-0.40371,0.099127,0.099785,-0.35734,-0.58229,-0.021238
191,-0.1666,-0.46488,0.11886,0.11458,-0.30045,-0.74277,-0.0034794
192,-0.17054,-0.53328,0.12708,0.12511,-0.24585,-0.82466,0.0083598
193,-0.17909,-0.61123,0.12379,0.13037,-0.20869,-0.81151,0.011977
194,-0.19126,-0.69344,0.10801,0.12675,-0.19981,-0.72041,0.0060577
195,-0.20573,-0.7704,0.080711,0.11261,-0.21955,-0.59248,-0.0077547
196,-0.22185,-0.82762,0.039602,0.086301,-0.25835,-0.48428,-0.027487
197,-0.23369,-0.8536,-0.015648,0.05177,-0.3067,-0.44416,-0.048205
198,-0.23665,-0.83847,-0.075501,0.015924,-0.36326,-0.48264,-0.066622
199,-0.23073,-0.77467,-0.12845,-0.013017,-0.42015,-0.58261,-0.081421
200,-0.21297,-0.65661,-0.16726,-0.032749,-0.46817,-0.71285,-0.092931
201,-0.1814,-0.50073,-0.18633,-0.045903,-0.50204,-0.84505,-0.097536
202,-0.13503,-0.32741,-0.18765,-0.059058,-0.52177,-0.9618,-0.09622
203,-0.078132,-0.16101,-0.17877,-0.076817,-0.52671,-1.0529,-0.092931
204,-0.018936,-0.021896,-0.1689,-0.10082,-0.51816,-1.1141,-0.087998
205,0.033354,0.085644,-0.16134,-0.12648,-0.49941,-1.1374,-0.075501
206,0.070845,0.16326,-0.1564,-0.15246,-0.4685,-1.1045,-0.053467
207,0.090905,0.21949,-0.14917,-0.17482,-0.41423,-0.99567,-0.028802
208,0.10077,0.26192,-0.12779,-0.18633,-0.31821,-0.81118,-0.0034794
209,0.1011,0.29316,-0.082408,-0.18074,-0.17975,-0.57571,0.020199
210,0.098798,0.30566,-0.016634,-0.16068,-0.021567,-0.33629,0.034998
211,0.095181,0.29283,0.057032,-0.13864,0.12412,-0.14423,0.038287
212,0.090905,0.25501,0.12248,-0.13075,0.22771,-0.024198,0.034998
213,0.085644,0.20272,0.17312,-0.14259,0.27968,0.045851,0.035985
214,0.074133,0.14944,0.20864,-0.16594,0.29612,0.11787,0.050455
215,0.056703,0.10077,0.23594,-0.18666,0.29053,0.23659,0.079066
216,0.038616,0.059992,0.25665,-0.20244,0.25731,0.41221,0.10603
217,0.028421,0.034998,0.27376,-0.21593,0.18726,0.62499,0.12511
218,0.027105,0.027434,0.29086,-0.21626,0.087946,0.83283,0.13925
219,0.033354,0.036314,0.31092,-0.18008,-0.014003,0.9897,0.14846
220,0.044864,0.058019,0.33558,-0.080106,-0.092274,1.0588,0.15175
221,0.059663,0.090905,0.35564,0.091563,-0.1245,1.0275,0.14944
222,0.071173,0.13333,0.35268,0.305,-0.099509,0.90617,0.14254
223,0.076764,0.1797,0.31355,0.50166,-0.011372,0.72924,0.133
224,0.073476,0.22673,0.23133,0.62762,0.13464,0.55691,0.12511
225,0.063938,0.27047,0.11919,0.65458,0.32045,0.47173,0.12609
226,0.053086,0.30631,-0.0024928,0.58947,0.52501,0.5306,0.13958
227,0.048153,0.32933,-0.10313,0.46713,0.73877,0.74108,0.1672
228,0.05177,0.34413,-0.16726,0.33624,0.96536,1.0594,0.20568
229,0.066898,0.35729,-0.18962,0.2389,1.2117,1.4011,0.24778
230,0.087946,0.36584,-0.17383,0.19055,1.4741,1.6695,0.28691
231,0.11031,0.35663,-0.13174,0.1797,1.7313,1.7994,0.31552
232,0.12642,0.31585,-0.082408,0.18167,1.9372,1.756,0.32243
233,0.12938,0.23758,-0.038339,0.17444,2.0358,1.5406,0.30204
234,0.11952,0.1353,-0.007097,0.14912,1.9865,1.19,0.26422
235,0.10077,0.027763,0.0083598,0.10834,1.7579,0.7687,0.21851
236,0.079395,-0.059058,0.011977,0.058348,1.3501,0.34874,0.17214
237,0.058019,-0.10444,0.011977,0.010333,0.8006,-0.0047949,0.13004
238,0.036314,-0.098851,0.017568,-0.028802,0.19516,-0.25473,0.1011
239,0.017239,-0.055112,0.030394,-0.053467,-0.34221,-0.41654,0.086301
240,0.0001381,0.0011247,0.044535,-0.063333,-0.70923,-0.54118,0.075778
241,-0.013345,0.042233,0.047824,-0.069253,-0.87235,-0.67371,0.060321
242,-0.02354,0.053743,0.037629,-0.078132,-0.86084,-0.81907,0.036971
243,-0.030775,0.032696,0.015595,-0.086025,-0.74968,-0.94766,0.0057288
244,-0.03538,-0.014003,-0.011701,-0.086354,-0.62109,-1.023,-0.0265
245,-0.039984,-0.07024,-0.038011,-0.081092,-0.52539,-1.0318,-0.054125
246,-0.048205,-0.12417,-0.060373,-0.080434,-0.47573,-0.98614,-0.074186
247,-0.059387,-0.16199,-0.077475,-0.093918,-0.46258,-0.90918,-0.083723
248,-0.069582,-0.17515,-0.088327,-0.11464,-0.46685,-0.824,-0.085367
249,-0.071884,-0.15903,-0.092931,-0.12976,-0.47014,-0.73916,-0.088327
250,-0.063991,-0.12089,-0.089314,-0.12812,-0.46258,-0.6497,-0.096549
251,-0.045246,-0.072542,-0.081421,-0.10641,-0.44909,-0.5369,-0.11266
252,-0.020909,-0.028802,-0.071226,-0.070568,-0.43561,-0.38464,-0.13338
253,0.00079584,0.0017824,-0.059387,-0.023869,-0.42311,-0.1837,-0.14917
254,0.015266,0.015595,-0.04689,0.022501,-0.40634,0.062623,-0.15048
255,0.023488,0.012635,-0.041628,0.05473,-0.38562,0.3369,-0.13404
256,0.028421,-0.0051238,-0.04985,0.070845,-0.37082,0.60723,-0.1074
257,0.031709,-0.035051,-0.073199,0.074462,-0.37082,0.83941,-0.075173
258,0.033354,-0.069253,-0.10576,0.076106,-0.38727,0.98871,-0.043601
259,0.032038,-0.10346,-0.13536,0.081697,-0.41391,1.013,-0.017621
260,0.030394,-0.1324,-0.1564,0.092879,-0.4389,0.89268,-0.002164
261,0.028421,-0.15443,-0.16232,0.10307,-0.45074,0.64439,0.002769
262,0.023488,-0.16857,-0.15607,0.10899,-0.44778,0.31158,-0.0031506
263,0.016581,-0.17449,-0.14719,0.10932,-0.43232,-0.039326,-0.018936
264,0.015595,-0.17844,-0.14391,0.098798,-0.41292,-0.34682,-0.04097
265,0.020528,-0.19028,-0.15607,0.071831,-0.39648,-0.57143,-0.065635
266,0.027763,-0.20376,-0.1837,0.03434,-0.38036,-0.70397,-0.089643
267,0.031052,-0.20343,-0.21889,-0.0031506,-0.3626,-0.75691,-0.1097
268,0.027105,-0.17383,-0.24158,-0.035051,-0.33564,-0.75823,-0.12483
269,0.020528,-0.11431,-0.23763,-0.063662,-0.29387,-0.74179,-0.1324
270,0.016253,-0.041957,-0.20343,-0.090958,-0.24947,-0.73093,-0.137
271,0.018226,0.028092,-0.15476,-0.12056,-0.21297,-0.73028,-0.14095
272,0.025132,0.081039,-0.11266,-0.15311,-0.18732,-0.73817,-0.14391
273,0.033025,0.11327,-0.090629,-0.18929,-0.17318,-0.7431,-0.14391
274,0.036642,0.12774,-0.0903,-0.22612,-0.16627,-0.73685,-0.13864
275,0.039602,0.13629,-0.10872,-0.25704,-0.16166,-0.71811,-0.12779
276,0.045851,0.15799,-0.13536,-0.2692,-0.15607,-0.69114,-0.11562
277,0.05769,0.20338,-0.15607,-0.26,-0.14785,-0.67009,-0.1074
278,0.074133,0.26948,-0.16232,-0.23336,-0.13568,-0.6599,-0.10148
279,0.091234,0.34512,-0.15246,-0.1985,-0.12121,-0.6576,-0.092931
280,0.10274,0.41254,-0.12187,-0.16166,-0.10707,-0.65595,-0.079448
281,0.10899,0.46384,-0.05544,-0.12648,-0.094576,-0.65332,-0.063991
282,0.11327,0.50331,0.058019,-0.088327,-0.086683,-0.64773,-0.048534
283,0.11097,0.53521,0.22114,-0.046232,-0.082408,-0.63326,-0.037682
284,0.10373,0.5648,0.41484,-0.0041372,-0.087341,-0.60465,-0.034064
285,0.090577,0.58717,0.60788,0.030065,-0.11365,-0.56223,-0.035708
286,0.074791,0.59341,0.75555,0.049468,-0.16265,-0.50434,-0.037024
287,0.062952,0.57138,0.82099,0.052428,-0.23994,-0.43923,-0.035708
288,0.056374,0.5112,0.78778,0.041575,-0.35603,-0.3797,-0.032091
289,0.050455,0.40859,0.66478,0.015266,-0.49875,-0.33235,-0.031433
290,0.04322,0.27935,0.4862,-0.020909,-0.6303,-0.29683,-0.034393
291,0.024474,0.15471,0.2948,-0.059058,-0.71778,-0.2669,-0.042944
292,-0.0080836,0.055059,0.12642,-0.091616,-0.74376,-0.23632,-0.048205
293,-0.048863,-0.018278,0.0037556,-0.11201,-0.71153,-0.20705,-0.04985
294,-0.087998,-0.07879,-0.069253,-0.11036,-0.63951,-0.18436,-0.044259
295,-0.11431,-0.13864,-0.10576,-0.085367,-0.55269,-0.16923,-0.035051
296,-0.12549,-0.19356,-0.11529,-0.048205,-0.46916,-0.15706,-0.026171
297,-0.12713,-0.23303,-0.10839,-0.0080836,-0.39779,-0.14588,-0.019923
298,-0.12417,-0.25177,-0.099838,0.027434,-0.32511,-0.13733,-0.016963
299,-0.1222,-0.25079,-0.096878,0.052099,-0.2281,-0.13108,-0.01499
300,-0.1245,-0.23796,-0.09918,0.065583,-0.089314,-0.11497,-0.0084125
301,-0.12878,-0.21659,-0.1051,0.067885,0.08663,-0.077146,0.0057288
302,-0.13141,-0.18403,-0.11168,0.06361,0.28757,-0.023869,0.029407
303,-0.12516,-0.13766,-0.11793,0.058348,0.48653,0.024474,0.058348
304,-0.11233,-0.083065,-0.12483,0.057032,0.66774,0.04618,0.086301
305,-0.09918,-0.028144,-0.13207,0.05769,0.83053,0.029078,0.10307
306,-0.0903,0.018226,-0.1347,0.063938,0.97786,-0.010715,0.10932
307,-0.08175,0.048482,-0.1245,0.079395,1.1216,-0.031762,0.11031
308,-0.071555,0.062952,-0.096878,0.1057,1.2752,0.0057288,0.11985
309,-0.056427,0.064925,-0.053138,0.14254,1.4274,0.11195,0.14352
310,-0.033735,0.061307,-0.00019077,0.1843,1.5307,0.25271,0.17246
311,-0.0087413,0.051441,0.049139,0.22377,1.5267,0.37209,0.18759
312,0.0080309,0.03434,0.081368,0.24482,1.3718,0.42832,0.17904
313,0.0083598,0.0060577,0.087946,0.23725,1.0699,0.40925,0.14846
314,-0.0067681,-0.03538,0.068214,0.19779,0.6776,0.33887,0.10834
315,-0.03538,-0.086683,0.026447,0.13234,0.26948,0.25304,0.067885
316,-0.070897,-0.13667,-0.025514,0.056374,-0.091616,0.18661,0.033683
317,-0.10214,-0.17186,-0.076817,-0.016634,-0.37674,0.15701,0.0054
318,-0.11825,-0.17712,-0.11793,-0.077146,-0.58689,0.15898,-0.01499
319,-0.11102,-0.14851,-0.14456,-0.1176,-0.74277,0.17016,-0.023211
320,-0.081092,-0.091945,-0.15739,-0.13536,-0.849,0.18003,-0.019265
321,-0.033078,-0.024198,-0.15838,-0.12911,-0.88748,0.18891,-0.0087413
322,0.019541,0.039931,-0.15081,-0.10477,-0.84176,0.19713,0.002769
323,0.063281,0.089261,-0.14127,-0.078132,-0.72633,0.20371,0.013951
324,0.088275,0.1182,-0.13503,-0.062347,-0.57341,0.20732,0.025132
325,0.097154,0.12708,-0.12944,-0.063004,-0.42311,0.20897,0.036971
326,0.090577,0.12215,-0.1222,-0.075501,-0.30308,0.21423,0.042562
327,0.077422,0.11097,-0.11299,-0.087669,-0.21428,0.23166,0.041247
328,0.065912,0.10077,-0.10181,-0.088327,-0.14456,0.26356,0.042233
329,0.063281,0.08959,-0.089972,-0.075501,-0.072213,0.31158,0.04881
330,0.069858,0.0692,-0.076159,-0.048863,0.023488,0.37077,0.061965
331,0.07808,0.04026,-0.061031,-0.0097279,0.15635,0.43687,0.081368
332,0.085972,0.002769,-0.044917,0.041575,0.32473,0.50232,0.10636
333,0.089261,-0.044588,-0.028802,0.099127,0.50922,0.54672,0.12938
334,0.085644,-0.099838,-0.014661,0.15142,0.69372,0.54869,0.13958
335,0.071831,-0.16232,-0.0061104,0.18759,0.85256,0.49147,0.12807
336,0.050784,-0.23434,-0.0054526,0.19943,0.95681,0.38393,0.10143
337,0.02283,-0.31623,-0.014003,0.182,0.99661,0.26126,0.069529
338,-0.015319,-0.4024,-0.026829,0.14418,0.99332,0.17542,0.041575
339,-0.0584,-0.47639,-0.040641,0.1057,0.98115,0.17049,0.01987
340,-0.10017,-0.5198,-0.04985,0.082355,0.98411,0.27211,0.010004
341,-0.12549,-0.5175,-0.04985,0.080053,1.0078,0.47272,0.018555
342,-0.12582,-0.46751,-0.035051,0.092879,1.0361,0.73121,0.040918
343,-0.097207,-0.3797,-0.0097279,0.11031,1.0453,0.99891,0.072818
344,-0.045574,-0.27677,0.019541,0.12313,1.0111,1.2242,0.10636
345,0.013951,-0.18534,0.041575,0.13004,0.91768,1.3607,0.13563
346,0.064925,-0.11891,0.052099,0.13859,0.76048,1.3771,0.15207
347,0.091892,-0.078132,0.051441,0.14912,0.55527,1.2725,0.15109
348,0.09255,-0.053796,0.045193,0.15339,0.34084,1.0676,0.13103
349,0.077751,-0.039655,0.034669,0.14221,0.15438,0.80685,0.099785
350,0.058348,-0.033735,0.021186,0.10866,0.0096753,0.53455,0.065912
351,0.044864,-0.033078,0.011648,0.056374,-0.097536,0.29217,0.04026
352,0.038616,-0.031762,0.0090175,-0.0008485,-0.18074,0.11557,0.027105
353,0.040589,-0.030775,0.013293,-0.042944,-0.25375,0.035985,0.02579
354,0.049468,-0.026829,0.02579,-0.059716,-0.32084,0.053743,0.037629
355,0.063281,-0.019265,0.049139,-0.048863,-0.37214,0.14484,0.054401
356,0.073476,-0.0097279,0.076106,-0.016305,-0.39154,0.26422,0.065254
357,0.074133,-0.0015062,0.10274,0.036642,-0.3774,0.36025,0.063281
358,0.063938,0.0034268,0.12478,0.11886,-0.34912,0.39083,0.050455
359,0.047495,0.0054,0.13728,0.23133,-0.32873,0.34676,0.035656
360,0.027105,0.0021113,0.13728,0.35926,-0.31327,0.24909,0.02283
361,0.002769,-0.0034794,0.12412,0.46877,-0.27743,0.13464,0.010662
362,-0.023869,-0.0067681,0.099785,0.52698,-0.21034,0.029736,-0.007097
363,-0.054783,-0.00051963,0.065912,0.50857,-0.14193,-0.052481,-0.028802
364,-0.08471,0.018226,0.027763,0.40991,-0.11595,-0.11036,-0.04689
365,-0.10773,0.047166,-0.0034794,0.25501,-0.15476,-0.15048,-0.054783
366,-0.11562,0.080711,-0.024198,0.082026,-0.24454,-0.17975,-0.053138
367,-0.1074,0.11393,-0.033406,-0.070568,-0.35109,-0.20475,-0.043601
368,-0.083065,0.14155,-0.034064,-0.18008,-0.44054,-0.22612,-0.028473
369,-0.045903,0.15865,-0.029131,-0.24224,-0.49579,-0.24585,-0.013017
370,-0.0015062,0.16326,-0.019923,-0.2623,-0.5129,-0.26065,-0.0018351
371,0.037958,0.15701,-0.011372,-0.25177,-0.50533,-0.26624,0.0054
372,0.060979,0.15372,-0.0038083,-0.22514,-0.48593,-0.25901,0.0034268
373,0.065254,0.1695,0.0060577,-0.19258,-0.46521,-0.23599,-0.0093991
374,0.052428,0.20436,0.01987,-0.16528,-0.45074,-0.19948,-0.0265
375,0.02875,0.23824,0.036642,-0.15838,-0.44054,-0.15903,-0.039655
376,0.0017824,0.2481,0.054401,-0.17416,-0.42443,-0.12483,-0.045574
377,-0.021896,0.21982,0.066898,-0.21001,-0.39944,-0.10346,-0.047877
378,-0.04393,0.15799,0.07216,-0.25769,-0.36852,-0.099509,-0.051165
379,-0.065635,0.075449,0.067227,-0.3011,-0.33596,-0.11694,-0.057743
380,-0.082736,-0.016963,0.055059,-0.33004,-0.30604,-0.15048,-0.066293
381,-0.091616,-0.10707,0.042891,-0.33794,-0.28203,-0.18765,-0.071884
382,-0.085696,-0.1735,0.035656,-0.3261,-0.26624,-0.21987,-0.073857
383,-0.063991,-0.19817,0.032696,-0.28992,-0.27052,-0.24618,-0.07287
384,-0.034064,-0.17844,0.026119,-0.21363,-0.309,-0.28236,-0.069582
385,-0.0080836,-0.13108,0.0093464,-0.10214,-0.39154,-0.3455,-0.067937
386,0.0060577,-0.074186,-0.013674,0.015595,-0.505,-0.4389,-0.067609
387,0.011648,-0.015976,-0.036037,0.10373,-0.62339,-0.55367,-0.065307
388,0.010991,0.04026,-0.056427,0.14254,-0.71285,-0.67897,-0.062347
389,0.0040845,0.094194,-0.068266,0.13169,-0.74672,-0.80526,-0.060702
390,-0.0028217,0.14155,-0.067609,0.087288,-0.71614,-0.92595,-0.060045
391,-0.0031506,0.17773,-0.057743,0.035985,-0.62964,-1.022,-0.053138
392,0.0073732,0.19022,-0.045903,-0.011043,-0.50599,-1.0634,-0.039984
393,0.023159,0.16852,-0.037353,-0.04985,-0.37444,-1.0032,-0.018278
394,0.033683,0.1136,-0.034393,-0.079448,-0.26065,-0.81085,0.0086887
395,0.031709,0.044535,-0.03538,-0.10411,-0.17778,-0.51026,0.037629
396,0.024145,-0.012688,-0.037024,-0.12319,-0.12549,-0.16364,0.059005
397,0.017897,-0.039655,-0.036037,-0.13305,-0.091616,0.15175,0.064925
398,0.016581,-0.035051,-0.027816,-0.13042,-0.051823,0.37735,0.057361
399,0.018884,-0.014332,-0.01499,-0.11497,0.0034268,0.50265,0.042562
400,0.024145,0.0054,-0.002164,-0.094247,0.077422,0.54902,0.024803
401,0.031709,0.021514,0.010662,-0.07583,0.16852,0.55033,0.011648
402,0.043877,0.040589,0.023817,-0.057414,0.27639,0.53751,0.011648
403,0.06065,0.072489,0.0373,-0.038339,0.39708,0.52731,0.024145
404,0.081368,0.11491,0.050126,-0.016963,0.50857,0.50692,0.039931
405,0.10373,0.16095,0.062294,0.0014536,0.57697,0.45332,0.048153
406,0.1205,0.1945,0.067885,0.010333,0.57894,0.35071,0.046508
407,0.12412,0.20371,0.065583,0.01132,0.51613,0.20173,0.03434
408,0.1113,0.17674,0.06065,0.0073732,0.40925,0.022172,0.017239
409,0.079066,0.1113,0.056046,0.0017824,0.28494,-0.16265,-0.0018351
410,0.033354,0.013293,0.050126,0.0034268,0.16687,-0.3284,-0.018936
411,-0.01795,-0.10247,0.043549,0.0096753,0.070845,-0.44942,-0.031433
412,-0.061689,-0.21922,0.035327,0.016253,0.0054,-0.5175,-0.035051
413,-0.092603,-0.32347,0.029407,0.020199,-0.034722,-0.52309,-0.03538
414,-0.11266,-0.4024,0.026776,0.026119,-0.04985,-0.46652,-0.037024
415,-0.12056,-0.44778,0.025461,0.035985,-0.044917,-0.35866,-0.040641
416,-0.11299,-0.45238,0.026776,0.05177,-0.021567,-0.22711,-0.045574
417,-0.0903,-0.41555,0.032038,0.068871,0.017568,-0.097536,-0.048534
418,-0.059387,-0.34221,0.04026,0.081368,0.071502,0.0077021,-0.048534
419,-0.027816,-0.25145,0.046837,0.087617,0.14517,0.080382,-0.044917
420,-0.0061104,-0.15936,0.050126,0.090248,0.24021,0.13234,-0.037353
421,0.0037556,-0.078461,0.049139,0.091892,0.34545,0.16983,-0.025842
422,0.0077021,-0.0077547,0.04322,0.096825,0.43885,0.1991,-0.010057
423,0.010004,0.056374,0.0373,0.10899,0.501,0.22541,0.0060577
424,0.014608,0.1159,0.036314,0.12544,0.51613,0.25369,0.017239
425,0.025132,0.17246,0.044864,0.14287,0.4691,0.28132,0.01987
426,0.044206,0.2287,0.057361,0.15997,0.36123,0.29908,0.012635
427,0.066898,0.28099,0.067885,0.17246,0.22706,0.30302,-0.00019077
428,0.089919,0.32473,0.070845,0.17904,0.1205,0.30039,-0.0093991
429,0.10998,0.3563,0.067885,0.1774,0.069858,0.29316,-0.013017
430,0.12379,0.37834,0.058019,0.1695,0.06361,0.28,-0.01203
431,0.13629,0.40497,0.041575,0.15503,0.073147,0.26093,-0.0090702
432,0.15405,0.44838,0.018884,0.1307,0.079066,0.23462,-0.0028217
433,0.17411,0.50265,-0.0028217,0.097812,0.074791,0.20042,0.0067154
434,0.19055,0.54902,-0.021567,0.062294,0.070187,0.1649,0.019541
435,0.19779,0.57335,-0.032749,0.029736,0.082355,0.12807,0.033683
436,0.19384,0.56908,-0.038011,0.0021113,0.10899,0.079395,0.039273
437,0.17904,0.54047,-0.037353,-0.020252,0.14385,0.0073732,0.036642
438,0.15207,0.49673,-0.033406,-0.034393,0.16687,-0.089643,0.032038
439,0.11261,0.43983,-0.027487,-0.040313,0.16128,-0.19948,0.029736
440,0.067227,0.3711,-0.018278,-0.033406,0.12873,-0.3011,0.032367
441,0.025461,0.28823,-0.0038083,-0.012688,0.084657,-0.36786,0.041904
442,-0.0054526,0.19351,0.016253,0.018555,0.04881,-0.38464,0.061965
443,-0.019594,0.092221,0.040918,0.05473,0.022172,-0.35997,0.087946
444,-0.018278,-0.004466,0.065254,0.090577,-0.0080836,-0.30209,0.10768
445,-0.0067681,-0.084381,0.082355,0.11952,-0.048863,-0.21659,0.11426
446,0.0057288,-0.14621,0.085315,0.13892,-0.088656,-0.11201,0.10439
447,-0.00019077,-0.2008,0.072489,0.14451,-0.11135,-0.013017,0.081039
448,-0.030775,-0.25243,0.044206,0.1353,-0.11003,0.055388,0.049139
449,-0.077803,-0.29223,0.0077021,0.10932,-0.092931,0.078409,0.015595
450,-0.1199,-0.30078,-0.02946,0.07512,-0.072213,0.050784,-0.007097
451,-0.13963,-0.26624,-0.059716,0.038616,-0.04985,-0.019594,-0.013017
452,-0.13207,-0.19422,-0.079119,-0.0011774,-0.028473,-0.10937,-0.0054526
453,-0.10872,-0.1074,-0.085367,-0.044917,-0.016963,-0.19685,0.0073732
454,-0.085039,-0.032091,-0.08175,-0.097536,-0.026829,-0.27282,0.017568
455,-0.074186,0.012306,-0.071555,-0.15772,-0.058729,-0.34123,0.018555
456,-0.079777,0.022172,-0.056427,-0.21691,-0.10576,-0.40568,0.0086887
457,-0.09622,0.0057288,-0.038011,-0.26559,-0.15772,-0.46652,-0.0057815
458,-0.11464,-0.031762,-0.016963,-0.2942,-0.20376,-0.51914,-0.017292
459,-0.12878,-0.094576,0.0050711,-0.30505,-0.235,-0.55729,-0.018278
460,-0.14095,-0.19028,0.023159,-0.30078,-0.23994,-0.58064,-0.0097279
461,-0.15015,-0.31261,0.034011,-0.28236,-0.2179,-0.59281,0.002769
462,-0.15903,-0.44646,0.036314,-0.25276,-0.1712,-0.5984,0.015595
463,-0.16824,-0.56255,0.026447,-0.20672,-0.10609,-0.58853,0.02875
464,-0.17383,-0.63293,0.0086887,-0.13634,-0.033078,-0.54743,0.038944
465,-0.17811,-0.64115,-0.011372,-0.041299,0.02875,-0.47442,0.045522
466,-0.17975,-0.59182,-0.028802,0.063938,0.056703,-0.39286,0.04618
467,-0.17449,-0.50237,-0.044259,0.15142,0.035985,-0.33827,0.034669
468,-0.15903,-0.40009,-0.057414,0.19976,-0.027158,-0.32741,0.0077021
469,-0.13897,-0.30933,-0.064978,0.20305,-0.11365,-0.34484,-0.027816
470,-0.11727,-0.24487,-0.067937,0.17181,-0.19652,-0.35339,-0.0584
471,-0.09326,-0.20771,-0.066622,0.12412,-0.24783,-0.32051,-0.072213
472,-0.07024,-0.19028,-0.065635,0.078409,-0.24947,-0.22579,-0.064978
473,-0.047877,-0.18205,-0.066622,0.045522,-0.19981,-0.065964,-0.04097
474,-0.028802,-0.17285,-0.06728,0.027434,-0.11168,0.14583,-0.011701
475,-0.018278,-0.15377,-0.065307,0.02283,0.0001381,0.39083,0.012635
476,-0.013674,-0.12121,-0.060702,0.033683,0.12281,0.65524,0.029407
477,-0.010715,-0.075501,-0.053138,0.055388,0.24613,0.92952,0.04618
478,-0.004466,-0.020252,-0.042286,0.083013,0.36387,1.2104,0.069858
479,0.013622,0.038287,-0.028802,0.11031,0.47108,1.4741,0.099127
480,0.043549,0.097154,-0.013017,0.13366,0.55592,1.6606,0.12807
481,0.076435,0.14846,0.0014536,0.14813,0.59901,1.7204,0.14451
482,0.10603,0.19121,0.011648,0.15372,0.58322,1.6379,0.14385
483,0.12905,0.22212,0.015924,0.15109,0.50988,1.4333,0.12708
484,0.14122,0.23758,0.011977,0.14385,0.39642,1.1601,0.10636
485,0.14287,0.24251,0.0040845,0.13399,0.26718,0.87394,0.087946
486,0.13366,0.24087,-0.0057815,0.11985,0.14418,0.61249,0.076435
487,0.1205,0.23857,-0.01499,0.099456,0.044206,0.39149,0.070516
488,0.10899,0.23758,-0.022225,0.073476,-0.0265,0.21193,0.070187
489,0.10735,0.23857,-0.028144,0.04881,-0.074844,0.071502,0.068871
490,0.11623,0.24514,-0.030775,0.034998,-0.1074,-0.034064,0.059334
491,0.13267,0.2583,-0.02946,0.035327,-0.13503,-0.11793,0.037629
492,0.15142,0.27178,-0.027487,0.042233,-0.16561,-0.19817,0.0090175
493,0.16523,0.28296,-0.027816,0.050455,-0.20146,-0.2965,-0.017292
494,0.17279,0.29184,-0.034064,0.053086,-0.23369,-0.41983,-0.038997
495,0.17904,0.29546,-0.042615,0.050784,-0.24026,-0.54677,-0.05544
496,0.18825,0.29184,-0.046561,0.046837,-0.20869,-0.65069,-0.063662
497,0.19877,0.28428,-0.035708,0.052428,-0.13272,-0.70989,-0.062018
498,0.19943,0.26882,-0.0090702,0.069529,-0.027158,-0.72008,-0.056098
499,0.17378,0.23232,0.022501,0.084328,0.062952,-0.70101,-0.054783
500,0.11557,0.16457,0.045193,0.079066,0.087288,-0.68128,-0.069582
501,0.033354,0.073476,0.050455,0.049139,0.021514,-0.68654,-0.097864
502,-0.047548,-0.021238,0.04026,-0.00051963,-0.11793,-0.72008,-0.13042
503,-0.10937,-0.10115,0.019541,-0.054783,-0.28104,-0.77369,-0.15706
504,-0.13963,-0.15607,-0.00051963,-0.094905,-0.4093,-0.82696,-0.16989
505,-0.13963,-0.18633,-0.016634,-0.11431,-0.46948,-0.8559,-0.16561
506,-0.11661,-0.20277,-0.024198,-0.11036,-0.46389,-0.84242,-0.14851
507,-0.086025,-0.21494,-0.023211,-0.090958,-0.41621,-0.79145,-0.12549
508,-0.057743,-0.22514,-0.01499,-0.063333,-0.36162,-0.71745,-0.1005
509,-0.035708,-0.21955,0.002769,-0.039326,-0.32445,-0.63359,-0.076159
510,-0.017621,-0.18469,0.023817,-0.027158,-0.31755,-0.5369,-0.054125
511,0.0034268,-0.11957,0.044206,-0.034064,-0.3284,-0.41489,-0.033406
512,0.024474,-0.041628,0.062623,-0.052481,-0.34682,-0.24849,-0.016963
513,0.038287,0.025461,0.074462,-0.071884,-0.36721,-0.036366,-0.01499
514,0.035327,0.06361,0.069858,-0.083065,-0.39056,0.20732,-0.028473
515,0.017897,0.068543,0.049468,-0.083723,-0.40766,0.45463,-0.049521
516,-0.0051238,0.051113,0.023817,-0.07287,-0.40075,0.67991,-0.060702
517,-0.022225,0.03434,0.0060577,-0.051165,-0.34978,0.87229,-0.046232
518,-0.028473,0.033354,0.0040845,-0.019594,-0.25342,1.019,-0.0028217
519,-0.021896,0.053086,0.01691,0.021186,-0.12352,1.1064,0.057361
520,-0.0077547,0.083013,0.035327,0.06361,0.013293,1.1199,0.12281
521,0.0080309,0.11031,0.049468,0.098798,0.12445,1.0394,0.17904
522,0.025132,0.12445,0.058019,0.11754,0.1797,0.85552,0.21324
523,0.043549,0.12741,0.058676,0.11787,0.16424,0.59835,0.22344
524,0.056703,0.12313,0.05177,0.10735,0.088932,0.32572,0.20963
525,0.060979,0.1159,0.039931,0.094523,-0.026171,0.11491,0.18134
526,0.057032,0.11031,0.026447,0.084328,-0.16035,0.01987,0.15043
527,0.049797,0.1011,0.017568,0.084328,-0.27118,0.042891,0.12873
528,0.041575,0.089261,0.014937,0.093208,-0.31952,0.13201,0.12215
529,0.03434,0.079395,0.013951,0.096825,-0.30045,0.20996,0.12511
530,0.02283,0.073804,0.010662,0.07512,-0.24849,0.21555,0.13037
531,0.0073732,0.072489,-0.00019077,0.022501,-0.19883,0.13859,0.13004
532,-0.0074258,0.08367,-0.018936,-0.049192,-0.15903,0.013622,0.11557
533,-0.011701,0.11393,-0.038997,-0.11299,-0.10674,-0.10872,0.088932
534,0.002769,0.16457,-0.051823,-0.13897,-0.0067681,-0.1962,0.065254
535,0.036314,0.22311,-0.056756,-0.11825,0.1751,-0.23895,0.059992
536,0.081039,0.27507,-0.051165,-0.060702,0.45693,-0.23566,0.076435
537,0.12248,0.31454,-0.034064,0.013293,0.83119,-0.19126,0.10669
538,0.14912,0.34282,-0.0074258,0.085315,1.2465,-0.12023,0.13596
539,0.15602,0.36781,0.020528,0.14616,1.6241,-0.035708,0.1524
540,0.14616,0.39116,0.041575,0.18299,1.876,0.046508,0.15635
541,0.12905,0.40662,0.05177,0.18562,1.951,0.10899,0.14879
542,0.10899,0.40892,0.051441,0.15931,1.8365,0.13563,0.13201
543,0.091234,0.39609,0.045193,0.11721,1.5623,0.12149,0.1057
544,0.080711,0.36288,0.036642,0.071173,1.1765,0.073147,0.07216
545,0.072818,0.30204,0.031709,0.030723,0.73614,0.0070443,0.035656
546,0.059005,0.2162,0.029407,-0.0011774,0.29711,-0.063333,0.0001381
547,0.035327,0.11787,0.029078,-0.022554,-0.088985,-0.12812,-0.033735
548,-0.00019077,0.022501,0.027434,-0.038339,-0.39417,-0.18271,-0.062347
549,-0.038011,-0.059716,0.024474,-0.051823,-0.60202,-0.23402,-0.084381
550,-0.06728,-0.12286,0.021843,-0.062347,-0.70561,-0.29058,-0.097207
551,-0.082408,-0.16956,0.015924,-0.068595,-0.70857,-0.35767,-0.1005
552,-0.091287,-0.20836,0.00079584,-0.069911,-0.63392,-0.42739,-0.096878
553,-0.098851,-0.24618,-0.023869,-0.067937,-0.51684,-0.48823,-0.091945
554,-0.10773,-0.28006,-0.055112,-0.06728,-0.39549,-0.52934,-0.090629
555,-0.11497,-0.30472,-0.085039,-0.074844,-0.29716,-0.54545,-0.094247
556,-0.11661,-0.31623,-0.1074,-0.094576,-0.22941,-0.54085,-0.097207
557,-0.11529,-0.30998,-0.11694,-0.12582,-0.19488,-0.51816,-0.095562
558,-0.10806,-0.28696,-0.12352,-0.16002,-0.18995,-0.48034,-0.091616
559,-0.095562,-0.25342,-0.1324,-0.18699,-0.20935,-0.43068,-0.091616
560,-0.080434,-0.22218,-0.14062,-0.20047,-0.2452,-0.37872,-0.098193
561,-0.071884,-0.21231,-0.14456,-0.19784,-0.27677,-0.33235,-0.10905
562,-0.076817,-0.22974,-0.13601,-0.17581,-0.26493,-0.29551,-0.11924
563,-0.088327,-0.26328,-0.10378,-0.13766,-0.19422,-0.26624,-0.1268
564,-0.09622,-0.29223,-0.034393,-0.088327,-0.082736,-0.23533,-0.12779
565,-0.09622,-0.30209,0.070187,-0.032749,0.024474,-0.20047,-0.12352
566,-0.087669,-0.29223,0.18167,0.025461,0.080053,-0.15279,-0.11793
567,-0.073199,-0.26789,0.25961,0.081039,0.066569,-0.080106,-0.11398
568,-0.056427,-0.24092,0.28494,0.12511,0.0070443,0.029407,-0.11036
569,-0.045903,-0.22744,0.25534,0.14912,-0.062347,0.1751,-0.10247
570,-0.048863,-0.23402,0.19351,0.15832,-0.10905,0.33493,-0.094247
571,-0.06136,-0.25473,0.13103,0.15635,-0.12187,0.4793,-0.086683
572,-0.075173,-0.27578,0.085972,0.14944,-0.10214,0.58026,-0.079448
573,-0.084052,-0.28729,0.067885,0.14221,-0.06136,0.62038,-0.069582
574,-0.083723,-0.28039,0.067556,0.14056,-0.021567,0.59933,-0.060373
575,-0.076817,-0.25046,0.06361,0.14221,-0.0077547,0.526,-0.059387
576,-0.071555,-0.19784,0.035656,0.14418,-0.037353,0.41846,-0.066622
577,-0.068924,-0.13601,-0.018936,0.14089,-0.11825,0.29612,-0.074186
578,-0.064978,-0.079119,-0.086025,0.12873,-0.23599,0.18299,-0.074515
579,-0.056756,-0.037353,-0.14292,0.10801,-0.35307,0.093865,-0.064978
580,-0.042944,-0.0097279,-0.17383,0.083013,-0.43331,0.036314,-0.053138
581,-0.020909,0.013622,-0.17449,0.056703,-0.46356,0.0090175,-0.041957
582,0.0040845,0.033354,-0.15311,0.03434,-0.456,-0.0061104,-0.034393
583,0.026447,0.049468,-0.12121,0.019541,-0.43561,-0.03242,-0.028802
584,0.04026,0.059992,-0.089972,0.0096753,-0.42311,-0.083394,-0.021896
585,0.044864,0.068214,-0.068266,-0.00051963,-0.41193,-0.16561,-0.016305
586,0.043877,0.08959,-0.058071,-0.015648,-0.38233,-0.27414,-0.012688
587,0.048482,0.14056,-0.050179,-0.044588,-0.32182,-0.40009,-0.0067681
588,0.062623,0.22377,-0.038011,-0.090958,-0.23961,-0.52177,0.0070443
589,0.084986,0.31848,-0.019923,-0.14193,-0.15048,-0.60629,0.029736
590,0.10768,0.39511,-0.0031506,-0.17942,-0.068924,-0.59248,0.058019
591,0.12675,0.42898,0.012964,-0.19028,-0.00019077,-0.43495,0.087946
592,0.13991,0.41254,0.023817,-0.17416,0.062952,-0.14062,0.11327
593,0.14484,0.36255,0.027763,-0.14358,0.12774,0.23495,0.13497
594,0.14451,0.30631,0.021186,-0.11233,0.19154,0.60262,0.1524
595,0.13728,0.26455,0.0090175,-0.089643,0.24153,0.88479,0.16457
596,0.12445,0.24416,-0.0024928,-0.069582,0.26159,1.04,0.16457
597,0.11031,0.24284,-0.0090702,-0.04097,0.24514,1.0647,0.15142
598,0.097483,0.25106,-0.010715,-0.0034794,0.19022,0.97589,0.13563
599,0.088932,0.25994,-0.0054526,0.034669,0.096167,0.80751,0.12083
600,0.084328,0.25896,0.0060577,0.064596,-0.031433,0.60164,0.10143
601,0.080711,0.24514,0.022172,0.078737,-0.17219,0.39807,0.079724
602,0.073147,0.22114,0.038616,0.075778,-0.29683,0.23199,0.060979
603,0.061307,0.19516,0.048153,0.059334,-0.38431,0.11721,0.052757
604,0.046837,0.16918,0.043549,0.032038,-0.41983,0.05473,0.058676
605,0.03434,0.14024,0.028092,-0.0031506,-0.38957,0.041575,0.070516
606,0.01987,0.10274,0.0037556,-0.04097,-0.28894,0.068871,0.082684
607,-0.0031506,0.053086,-0.022554,-0.069582,-0.13108,0.12379,0.087946
608,-0.034064,-0.0008485,-0.045246,-0.080434,0.040589,0.18693,0.084986
609,-0.06728,-0.041628,-0.06136,-0.072542,0.18167,0.23035,0.085315
610,-0.087012,-0.059716,-0.07024,-0.051823,0.26849,0.22969,0.089919
611,-0.085039,-0.054454,-0.073857,-0.028144,0.29842,0.17575,0.095181
612,-0.063662,-0.035708,-0.068924,-0.010386,0.2777,0.074462,0.091892
613,-0.035708,-0.01499,-0.058071,-0.0064392,0.22443,-0.059387,0.074462
614,-0.010386,0.0014536,-0.041299,-0.018936,0.15142,-0.21231,0.048153
615,0.0030979,0.015924,-0.020252,-0.041628,0.070845,-0.36852,0.01691
616,0.0030979,0.031381,0.00079584,-0.063662,-0.0084125,-0.50796,-0.0087413
617,-0.0018351,0.051441,0.023488,-0.070568,-0.069253,-0.60465,-0.022554
618,-0.002164,0.073476,0.051113,-0.052481,-0.1005,-0.64214,-0.022554
619,0.0040845,0.086959,0.092879,-0.0077547,-0.10543,-0.62734,-0.010057
620,0.012306,0.078737,0.14287,0.049139,-0.098851,-0.57933,0.012964
621,0.012964,0.042562,0.18726,0.10735,-0.090629,-0.51684,0.041247
622,-0.00019077,-0.016634,0.20798,0.15471,-0.081092,-0.45238,0.06361
623,-0.022225,-0.0903,0.19976,0.182,-0.067609,-0.38628,0.0692
624,-0.043601,-0.17022,0.16589,0.18003,-0.047548,-0.30801,0.060979
625,-0.056098,-0.25145,0.11557,0.1478,-0.018278,-0.21034,0.047166
626,-0.064978,-0.32117,0.058348,0.09551,0.023817,-0.088656,0.031381
627,-0.074515,-0.36885,0.0011247,0.034998,0.080053,0.051441,0.020199
628,-0.087341,-0.38529,-0.047877,-0.024527,0.13925,0.20732,0.016253
629,-0.10017,-0.3626,-0.080106,-0.075173,0.19351,0.37242,0.015266
630,-0.10674,-0.30374,-0.089972,-0.11398,0.24021,0.54014,0.014608
631,-0.10609,-0.22842,-0.080106,-0.13437,0.27869,0.7026,0.016581
632,-0.099838,-0.16397,-0.063991,-0.13536,0.31421,0.85421,0.018884
633,-0.095562,-0.14292,-0.055112,-0.12648,0.34775,0.98707,0.022172
634,-0.098851,-0.1814,-0.061031,-0.11595,0.36979,1.0828,0.02579
635,-0.11332,-0.26526,-0.083723,-0.11003,0.36354,1.1183,0.02579
636,-0.13371,-0.36425,-0.11464,-0.10674,0.32276,1.0762,0.024474
637,-0.1518,-0.4412,-0.14358,-0.10115,0.25994,0.95813,0.025461
638,-0.16331,-0.4685,-0.15936,-0.089314,0.1922,0.7789,0.030065
639,-0.16265,-0.44219,-0.15509,-0.064649,0.133,0.55987,0.030723
640,-0.14423,-0.37576,-0.12746,-0.019594,0.086959,0.32703,0.024145
641,-0.11365,-0.30012,-0.080434,0.037629,0.046508,0.1113,0.012306
642,-0.080106,-0.24158,-0.0265,0.08959,-0.0008485,-0.07287,-0.0015062
643,-0.059058,-0.21297,0.022501,0.12511,-0.065635,-0.22382,-0.016963
644,-0.058071,-0.21165,0.05769,0.14517,-0.14752,-0.34451,-0.038668
645,-0.074844,-0.22514,0.071831,0.15207,-0.23665,-0.44219,-0.064978
646,-0.1005,-0.23566,0.067556,0.14583,-0.31722,-0.51914,-0.090958
647,-0.11858,-0.22777,0.049139,0.12905,-0.37214,-0.57538,-0.1074
648,-0.12056,-0.19554,0.02579,0.10439,-0.38793,-0.61024,-0.10839
649,-0.10214,-0.14851,0.0021113,0.076106,-0.35833,-0.62208,-0.094905
650,-0.06728,-0.10115,-0.014661,0.054072,-0.27249,-0.60103,-0.073199
651,-0.021896,-0.064978,-0.017621,0.047166,-0.12187,-0.53526,-0.044588
652,0.021514,-0.041628,-0.0028217,0.061307,0.092221,-0.41818,-0.0067681
653,0.059992,-0.022554,0.023817,0.098469,0.34874,-0.25539,0.038287
654,0.087946,0.002769,0.053743,0.14616,0.59013,-0.081421,0.078737
655,0.10406,0.032367,0.075449,0.19121,0.7493,0.048153,0.10472
656,0.10439,0.058019,0.081368,0.22015,0.78186,0.080711,0.10866
657,0.092221,0.077422,0.073476,0.23002,0.69142,0.0047422,0.088932
658,0.077422,0.08959,0.057361,0.22179,0.52106,-0.14029,0.050455
659,0.070516,0.095181,0.039931,0.20404,0.33624,-0.29946,0.00046697
660,0.07512,0.10242,0.026447,0.18167,0.19022,-0.43068,-0.045903
661,0.088932,0.1136,0.017239,0.16293,0.10899,-0.51026,-0.070568
662,0.10801,0.12938,0.015924,0.15142,0.085972,-0.53394,-0.07024
663,0.12412,0.1501,0.020857,0.14813,0.097154,-0.51257,-0.049192
664,0.13662,0.1751,0.030065,0.15273,0.11656,-0.46291,-0.017292
665,0.14583,0.19877,0.041247,0.16326,0.13267,-0.40141,0.013293
666,0.15273,0.21522,0.046508,0.16983,0.14188,-0.3386,0.035985
667,0.15503,0.22311,0.044535,0.1672,0.14484,-0.28236,0.04618
668,0.15536,0.22804,0.035985,0.15438,0.1524,-0.23533,0.049139
669,0.15635,0.23659,0.027105,0.13662,0.17773,-0.18896,0.052757
670,0.15898,0.25435,0.02283,0.11919,0.21982,-0.11957,0.061636
671,0.15734,0.27507,0.024474,0.10209,0.26027,-0.015648,0.072818
672,0.1478,0.28691,0.027105,0.083013,0.27672,0.10801,0.080053
673,0.13037,0.28296,0.031709,0.06361,0.25731,0.21456,0.080382
674,0.10965,0.26257,0.039273,0.049797,0.2014,0.27047,0.071502
675,0.08959,0.23331,0.045851,0.044864,0.11458,0.26751,0.052757
676,0.077093,0.20469,0.050784,0.04618,0.010004,0.22344,0.030394
677,0.069529,0.18134,0.054401,0.041575,-0.087341,0.16786,0.0093464
678,0.064267,0.1649,0.055717,0.031052,-0.15969,0.12544,-0.0077547
679,0.059005,0.15405,0.051441,0.015924,-0.20047,0.10998,-0.021896
680,0.056703,0.14648,0.042891,0.00079584,-0.20869,0.12379,-0.032091
681,0.056374,0.14484,0.03434,-0.0087413,-0.19488,0.16063,-0.04097
682,0.054401,0.15372,0.026776,-0.01203,-0.16298,0.20634,-0.045903
683,0.052099,0.16556,0.019541,-0.011372,-0.11957,0.2481,-0.042286
684,0.048153,0.1751,0.0073732,-0.010715,-0.076488,0.27211,-0.027487
685,0.042562,0.18036,-0.0080836,-0.015648,-0.044588,0.26488,-0.0090702
686,0.036642,0.17904,-0.022225,-0.025514,-0.032091,0.22443,0.0034268
687,0.031709,0.17246,-0.029789,-0.040313,-0.043272,0.15734,0.0073732
688,0.02579,0.16063,-0.028473,-0.057085,-0.076488,0.077422,0.0040845
689,0.017897,0.14681,-0.021238,-0.076817,-0.12648,-0.0064392,-0.0024928
690,0.010991,0.13267,-0.013017,-0.095891,-0.18271,-0.088656,-0.0093991
691,0.0037556,0.12083,-0.0074258,-0.11003,-0.23106,-0.16101,-0.015976
692,0.00046697,0.11623,-0.0064392,-0.11825,-0.27118,-0.20869,-0.020581
693,0.0021113,0.12248,-0.011701,-0.12319,-0.31031,-0.23073,-0.021238
694,0.010991,0.13629,-0.016634,-0.13404,-0.35899,-0.2304,-0.016963
695,0.022501,0.1501,-0.016305,-0.15246,-0.4218,-0.22251,-0.0067681
696,0.032038,0.15767,-0.011701,-0.17285,-0.49711,-0.2281,0.0044134
697,0.037958,0.15668,-0.0090702,-0.18962,-0.57571,-0.25868,0.013951
698,0.033025,0.15175,-0.013345,-0.20508,-0.64872,-0.31031,0.01987
699,0.017897,0.14287,-0.02354,-0.21428,-0.71646,-0.36754,0.017568
700,-0.0047949,0.12807,-0.034393,-0.21724,-0.78125,-0.42081,0.002769
701,-0.031762,0.1113,-0.04097,-0.21297,-0.84209,-0.46488,-0.02354
702,-0.055112,0.094852,-0.043272,-0.20705,-0.88649,-0.49481,-0.050836
703,-0.07024,0.085644,-0.042286,-0.2054,-0.89438,-0.50829,-0.069582
704,-0.069911,0.092221,-0.041957,-0.21132,-0.84933,-0.5073,-0.07879
705,-0.056427,0.11985,-0.041957,-0.21659,-0.75527,-0.49875,-0.079448
706,-0.032749,0.16293,-0.043272,-0.21527,-0.6303,-0.48691,-0.072213
707,-0.0074258,0.2116,-0.04097,-0.20343,-0.48626,-0.46291,-0.058071
708,0.014279,0.25337,-0.036037,-0.18041,-0.32445,-0.42311,-0.038668
709,0.031052,0.28395,-0.028802,-0.14423,-0.12121,-0.36754,-0.019265
710,0.044864,0.30171,-0.016634,-0.099509,0.1432,-0.29946,-0.0015062
711,0.057032,0.30829,-0.0015062,-0.053467,0.47568,-0.21724,0.020199
712,0.06624,0.30993,0.015595,-0.011372,0.85684,-0.12286,0.04618
713,0.073804,0.31914,0.031381,0.023159,1.2258,-0.030118,0.068214
714,0.080711,0.34512,0.04322,0.047166,1.4912,0.044864,0.081697
715,0.088932,0.38689,0.05473,0.061307,1.5823,0.095839,0.086959
716,0.097483,0.42865,0.061965,0.067227,1.4876,0.12313,0.087946
717,0.1034,0.45036,0.062952,0.067227,1.2587,0.1307,0.087617
718,0.10373,0.43589,0.057361,0.064925,0.97753,0.13728,0.083999
719,0.094194,0.38195,0.04881,0.065912,0.71312,0.15701,0.078737
720,0.073476,0.28855,0.038616,0.066898,0.50495,0.18924,0.076106
721,0.041575,0.16293,0.029407,0.064925,0.36222,0.22212,0.072818
722,0.0060577,0.016581,0.022501,0.059992,0.27803,0.25369,0.06624
723,-0.024527,-0.13371,0.019541,0.053415,0.231,0.28757,0.057032
724,-0.04985,-0.27249,0.018555,0.044864,0.19713,0.32637,0.049797
725,-0.068595,-0.37872,0.020528,0.036971,0.14879,0.36847,0.042891
726,-0.078461,-0.44153,0.021843,0.033683,0.072818,0.39971,0.033354
727,-0.077146,-0.4662,0.023817,0.036314,-0.025185,0.40991,0.017239
728,-0.073857,-0.46883,0.023817,0.042891,-0.12911,0.38754,-0.0031506
729,-0.078132,-0.4685,0.020199,0.054072,-0.22875,0.3346,-0.027816
730,-0.094247,-0.47376,0.012964,0.064267,-0.31919,0.27474,-0.04985
731,-0.11727,-0.48494,0.0034268,0.071831,-0.40075,0.22936,-0.062347
732,-0.13667,-0.49316,-0.0015062,0.073476,-0.46718,0.21292,-0.059716
733,-0.14029,-0.48856,-0.0051238,0.0692,-0.51322,0.22673,-0.045903
734,-0.13305,-0.47014,-0.0077547,0.061307,-0.5323,0.26882,-0.034722
735,-0.11924,-0.44285,-0.012688,0.051113,-0.51322,0.33328,-0.034722
736,-0.10346,-0.41884,-0.025514,0.040918,-0.45501,0.40892,-0.046232
737,-0.087669,-0.41029,-0.04393,0.030723,-0.36819,0.48357,-0.056427
738,-0.071226,-0.4264,-0.063991,0.015595,-0.27052,0.5408,-0.055112
739,-0.056756,-0.46093,-0.077146,-0.0051238,-0.17416,0.56612,-0.036695
740,-0.048205,-0.4981,-0.080763,-0.028473,-0.088985,0.54935,-0.0074258
741,-0.048205,-0.52177,-0.075501,-0.051494,-0.021567,0.48818,0.021843
742,-0.053138,-0.52342,-0.063004,-0.07583,0.026119,0.39577,0.042891
743,-0.060045,-0.50106,-0.043601,-0.10346,0.050126,0.28954,0.048153
744,-0.064649,-0.45501,-0.023869,-0.13338,0.049468,0.18628,0.038287
745,-0.063333,-0.39483,-0.0047949,-0.16232,0.028092,0.09551,0.021514
746,-0.055112,-0.32906,0.014937,-0.18041,-0.010057,0.022172,0.0057288
747,-0.043601,-0.26822,0.031709,-0.16265,-0.067937,-0.042944,-0.010057
748,-0.036037,-0.21724,0.04026,-0.078461,-0.14029,-0.10872,-0.026171
749,-0.038011,-0.17679,0.038616,0.0692,-0.21856,-0.18205,-0.042615
750,-0.048534,-0.14456,0.030065,0.24087,-0.28367,-0.2623,-0.054783
751,-0.061689,-0.11135,0.019212,0.37998,-0.31985,-0.33925,-0.059716
752,-0.073199,-0.067609,0.013293,0.45233,-0.31788,-0.39417,-0.055769
753,-0.075173,-0.013017,0.013622,0.45134,-0.27907,-0.39976,-0.044917
754,-0.065964,0.038287,0.021186,0.39511,-0.21724,-0.33564,-0.033078
755,-0.047548,0.06624,0.032696,0.30894,-0.1587,-0.20738,-0.024198
756,-0.022883,0.065254,0.041247,0.21785,-0.12154,-0.055112,-0.021238
757,0.0030979,0.048482,0.046508,0.13991,-0.1199,0.078409,-0.025842
758,0.023817,0.03434,0.046837,0.084328,-0.16199,0.16095,-0.033078
759,0.040918,0.033354,0.044535,0.048482,-0.24191,0.17477,-0.040641
760,0.051113,0.044864,0.035656,0.026119,-0.33629,0.11491,-0.045574
761,0.049139,0.05473,0.017568,0.0073732,-0.42575,-0.013017,-0.052152
762,0.032038,0.059005,-0.0054526,-0.011043,-0.48889,-0.18008,-0.063991
763,0.0060577,0.063938,-0.023869,-0.028802,-0.51487,-0.34353,-0.085039
764,-0.01499,0.083013,-0.033078,-0.043601,-0.50467,-0.45896,-0.11036
765,-0.022883,0.12544,-0.033406,-0.056098,-0.46587,-0.50171,-0.13108
766,-0.01795,0.18628,-0.031433,-0.067609,-0.40864,-0.47902,-0.1393
767,-0.0051238,0.25501,-0.03242,-0.080106,-0.33399,-0.42147,-0.13371
768,0.011977,0.31914,-0.037353,-0.091945,-0.24059,-0.36162,-0.11529
769,0.031381,0.37143,-0.048205,-0.10148,-0.13338,-0.32577,-0.086683
770,0.052099,0.40629,-0.062347,-0.11069,-0.028802,-0.32676,-0.050836
771,0.071831,0.42109,-0.074186,-0.11924,0.065912,-0.35833,-0.0074258
772,0.087946,0.41977,-0.080434,-0.1222,0.16128,-0.40207,0.044206
773,0.098469,0.40333,-0.078132,-0.11431,0.27672,-0.44318,0.1011
774,0.10077,0.38195,-0.065635,-0.093918,0.41616,-0.48067,0.16227
775,0.093536,0.36321,-0.036695,-0.066951,0.55954,-0.5323,0.21752
776,0.082026,0.35729,0.0011247,-0.038668,0.66281,-0.61188,0.2583
777,0.070845,0.35893,0.036314,-0.012359,0.68287,-0.70298,0.27836
778,0.061965,0.3586,0.056046,0.0044134,0.61052,-0.75691,0.27803
779,0.060979,0.34742,0.062294,0.0044134,0.47535,-0.70331,0.2606
780,0.0692,0.31881,0.058348,-0.0077547,0.3221,-0.48659,0.23561
781,0.080053,0.27244,0.048153,-0.021238,0.20009,-0.088656,0.2139
782,0.086301,0.21423,0.038287,-0.027158,0.12807,0.45957,0.20173
783,0.087946,0.15799,0.030065,-0.019923,0.11162,1.0893,0.20075
784,0.089919,0.11491,0.023159,-0.0061104,0.14385,1.7329,0.21423
785,0.096496,0.093865,0.018884,0.012964,0.20239,2.3071,0.24087
786,0.10702,0.097483,0.024474,0.03434,0.25994,2.711,0.27507
787,0.1205,0.11919,0.042233,0.057032,0.2925,2.86,0.3027
788,0.13103,0.1432,0.059663,0.074462,0.28757,2.7261,0.31026
789,0.13004,0.15175,0.067227,0.082026,0.26093,2.3584,0.29217
790,0.11458,0.13366,0.063938,0.075778,0.23067,1.8549,0.25369
791,0.090577,0.088932,0.052428,0.058676,0.20469,1.312,0.20371
792,0.064925,0.02579,0.038287,0.042891,0.18792,0.81244,0.14287
793,0.042891,-0.046232,0.02875,0.040918,0.18102,0.40399,0.081039
794,0.022172,-0.11464,0.021514,0.050126,0.18069,0.096167,0.031709
795,0.0001381,-0.16824,0.013622,0.057361,0.17838,-0.11858,-0.0015062
796,-0.022883,-0.19948,0.0057288,0.053086,0.16128,-0.26427,-0.024527
797,-0.045246,-0.20376,-0.0024928,0.035656,0.12412,-0.36786,-0.043272
798,-0.062018,-0.18797,-0.012688,0.0090175,0.0692,-0.45403,-0.05544
799,-0.069911,-0.16594,-0.023869,-0.018607,0.0030979,-0.53197,-0.066951
800,-0.066622,-0.137,-0.04097,-0.039655,-0.063662,-0.59643,-0.079777
801,-0.045574,-0.091616,-0.0584,-0.053138,-0.12746,-0.63786,-0.096549
802,-0.0057815,-0.022883,-0.068924,-0.057414,-0.18534,-0.64872,-0.11727
803,0.045851,0.059005,-0.07024,-0.052481,-0.22711,-0.63523,-0.13963
804,0.09255,0.14122,-0.065307,-0.039326,-0.24355,-0.60761,-0.15542
805,0.11853,0.20732,-0.057085,-0.020252,-0.23467,-0.57439,-0.16232
806,0.11754,0.25238,-0.048534,-0.0015062,-0.21231,-0.54184,-0.16166
807,0.096496,0.27474,-0.039655,0.0096753,-0.2031,-0.51257,-0.15673
808,0.068543,0.27408,-0.0265,0.015266,-0.22546,-0.48132,-0.14522
809,0.040589,0.24778,-0.0074258,0.019541,-0.27315,-0.4412,-0.12713
810,0.018555,0.19549,0.011648,0.026447,-0.31656,-0.3899,-0.10477
811,-0.004466,0.12346,0.025132,0.034669,-0.32972,-0.33432,-0.082408
812,-0.029131,0.048153,0.02875,0.041575,-0.309,-0.28466,-0.066951
813,-0.053796,-0.01203,0.021514,0.036971,-0.26855,-0.25572,-0.06136
814,-0.07287,-0.050179,0.0070443,0.015266,-0.235,-0.25375,-0.068595
815,-0.081421,-0.081092,-0.010715,-0.015648,-0.2281,-0.27841,-0.080763
816,-0.081421,-0.13272,-0.024856,-0.033735,-0.23599,-0.32774,-0.090958
817,-0.085039,-0.22875,-0.028144,-0.016963,-0.21428,-0.39582,-0.097536
818,-0.099509,-0.36589,-0.019594,0.038616,-0.11069,-0.47376,-0.10543
819,-0.12944,-0.52276,-0.002164,0.11656,0.081697,-0.56223,-0.11497
820,-0.17087,-0.66253,0.015924,0.18595,0.31651,-0.65858,-0.12615
821,-0.20573,-0.74869,0.024803,0.22212,0.52797,-0.75297,-0.13404
822,-0.21987,-0.75659,0.021843,0.2116,0.6582,-0.8319,-0.137
823,-0.21165,-0.69048,0.0083598,0.1603,0.67695,-0.88682,-0.13371
824,-0.1837,-0.57176,-0.0077547,0.083999,0.59736,-0.91115,-0.12154
825,-0.14555,-0.43331,-0.018936,0.0070443,0.46055,-0.89603,-0.10477
826,-0.10806,-0.30143,-0.019923,-0.054125,0.31618,-0.8319,-0.082408
827,-0.080434,-0.19718,-0.014661,-0.098851,0.20535,-0.72041,-0.059716
828,-0.065307,-0.12352,-0.0057815,-0.13568,0.14517,-0.57472,-0.039326
829,-0.056756,-0.072213,0.0014536,-0.16956,0.12017,-0.41259,-0.024856
830,-0.052152,-0.036366,0.002769,-0.19389,0.11097,-0.24849,-0.016963
831,-0.046561,-0.016305,0.00079584,-0.18929,0.10077,-0.097536,-0.010057
832,-0.039984,-0.0097279,-0.0024928,-0.13601,0.082355,0.034669,-0.0024928
833,-0.030775,-0.013017,-0.0024928,-0.024198,0.052428,0.15372,0.002769
834,-0.022883,-0.022225,0.0017824,0.13169,0.013293,0.26422,0.0044134
835,-0.016963,-0.031104,0.0070443,0.29743,-0.020252,0.37044,0.0001381
836,-0.016305,-0.038011,0.015924,0.42964,-0.041628,0.47371,-0.0054526
837,-0.018278,-0.045574,0.029078,0.49804,-0.045574,0.57007,-0.0097279
838,-0.021238,-0.055112,0.049139,0.48982,-0.033735,0.65886,-0.0087413
839,-0.022225,-0.06728,0.069529,0.4155,-0.016305,0.73318,-0.0008485
840,-0.018278,-0.073857,0.080053,0.30566,-0.00051963,0.77627,0.017897
841,-0.0054526,-0.069582,0.076435,0.19121,0.015266,0.76771,0.047495
842,0.013951,-0.047877,0.062294,0.091234,0.030065,0.69405,0.079066
843,0.033025,-0.007097,0.045193,0.016581,0.032038,0.55724,0.10439
844,0.053086,0.050126,0.02875,-0.027158,0.012964,0.37768,0.11886
845,0.072818,0.12182,0.012306,-0.044588,-0.024527,0.18496,0.12182
846,0.091563,0.207,-0.0067681,-0.04689,-0.072213,0.0080309,0.11261
847,0.1113,0.30204,-0.024198,-0.044259,-0.11694,-0.12878,0.097812
848,0.13826,0.39511,-0.036695,-0.045246,-0.14489,-0.21987,0.080053
849,0.17082,0.47831,-0.042615,-0.050507,-0.1495,-0.28071,0.061965
850,0.19943,0.54211,-0.041957,-0.058729,-0.13503,-0.33728,0.045193
851,0.21028,0.57829,-0.037024,-0.068266,-0.11102,-0.40042,0.031381
852,0.20173,0.58651,-0.028802,-0.077475,-0.094905,-0.4708,0.023159
853,0.18266,0.57039,-0.020252,-0.085039,-0.10905,-0.54611,0.020528
854,0.15964,0.53817,-0.012359,-0.094247,-0.16528,-0.61846,0.018884
855,0.13464,0.501,-0.010386,-0.11102,-0.25901,-0.67996,0.01691
856,0.10932,0.46318,-0.010057,-0.13667,-0.36622,-0.72271,0.016581
857,0.087617,0.42372,-0.0097279,-0.1666,-0.44844,-0.74343,0.017239
858,0.069858,0.37669,-0.010057,-0.19389,-0.47902,-0.73455,0.019541
859,0.055388,0.31782,-0.015319,-0.21297,-0.44778,-0.68719,0.021514
860,0.044206,0.2458,-0.02354,-0.21922,-0.35635,-0.59413,0.025132
861,0.031709,0.16095,-0.028802,-0.21034,-0.21856,-0.45403,0.03434
862,0.011977,0.06361,-0.027816,-0.19685,-0.0584,-0.28367,0.051441
863,-0.013674,-0.039984,-0.021238,-0.1906,0.09255,-0.11562,0.070516
864,-0.047877,-0.1393,-0.0093991,-0.19817,0.19845,0.022172,0.081368
865,-0.086354,-0.22218,0.0017824,-0.21626,0.23692,0.12445,0.078737
866,-0.12615,-0.27775,0.010991,-0.23632,0.21456,0.20469,0.067556
867,-0.15509,-0.30275,0.014608,-0.25375,0.15668,0.27968,0.050455
868,-0.16594,-0.2988,0.010004,-0.2692,0.099456,0.37505,0.033025
869,-0.15903,-0.27907,-0.0024928,-0.27348,0.079066,0.50626,0.020857
870,-0.14456,-0.26986,-0.016634,-0.24816,0.1057,0.67004,0.017239
871,-0.13207,-0.29288,-0.025185,-0.17153,0.17016,0.84368,0.02579
872,-0.12582,-0.34879,-0.027816,-0.034722,0.25402,1.0055,0.04618
873,-0.1199,-0.41522,-0.022225,0.13267,0.34874,1.1321,0.077751
874,-0.11003,-0.46258,-0.0093991,0.29151,0.46581,1.2064,0.11656
875,-0.095891,-0.47047,0.0067154,0.40662,0.60657,1.2107,0.15438
876,-0.078461,-0.43134,0.020528,0.46022,0.73483,1.1367,0.18069
877,-0.058729,-0.35372,0.027105,0.45134,0.80126,0.98838,0.18891
878,-0.038997,-0.25934,0.022501,0.39379,0.77331,0.79238,0.17477
879,-0.021896,-0.16824,0.0083598,0.30697,0.6536,0.57993,0.14024
880,-0.0074258,-0.093589,-0.0087413,0.21588,0.47996,0.38557,0.099127
881,0.0030979,-0.030447,-0.017621,0.14484,0.30138,0.23692,0.062952
882,0.014608,0.026776,-0.012359,0.099456,0.15569,0.14352,0.036642
883,0.032367,0.082026,0.0070443,0.077422,0.053086,0.090248,0.017897
884,0.061636,0.133,0.034011,0.074791,-0.018607,0.049139,0.0030979
885,0.094852,0.17378,0.05473,0.082684,-0.080106,-0.00051963,-0.0097279
886,0.11952,0.19581,0.065583,0.09255,-0.14917,-0.06728,-0.020252
887,0.12774,0.19812,0.068871,0.098798,-0.22283,-0.14785,-0.032749
888,0.12017,0.1922,0.06361,0.099456,-0.29157,-0.22678,-0.046232
889,0.10143,0.19055,0.046508,0.093536,-0.34188,-0.29025,-0.061689
890,0.084657,0.20436,0.020528,0.08663,-0.37082,-0.33235,-0.071884
891,0.078409,0.24251,-0.0057815,0.080053,-0.37247,-0.35109,-0.07287
892,0.088603,0.30138,-0.022554,0.072818,-0.3261,-0.33892,-0.069253
893,0.11458,0.36485,-0.024856,0.067556,-0.21099,-0.28828,-0.062347
894,0.14714,0.41287,-0.014332,0.070845,-0.030447,-0.2054,-0.054454
895,0.1751,0.42767,0.00079584,0.075778,0.17674,-0.11233,-0.04393
896,0.18989,0.40399,0.010991,0.073804,0.34084,-0.039984,-0.03538
897,0.18496,0.35005,0.012306,0.053086,0.39281,-0.013674,-0.02946
898,0.16424,0.28066,0.0054,0.019212,0.30302,-0.04097,-0.024856
899,0.13399,0.21094,-0.00051963,-0.011372,0.10011,-0.11069,-0.021238
900,0.10538,0.15043,-0.00051963,-0.025185,-0.13536,-0.19718,-0.01795
901,0.082026,0.097812,0.0044134,-0.020581,-0.31919,-0.2623,-0.014661
902,0.056703,0.046508,0.010333,-0.0018351,-0.39911,-0.27611,-0.014332
903,0.021514,-0.014332,0.012964,0.026119,-0.33991,-0.23829,-0.016634
904,-0.021567,-0.094576,0.013622,0.056046,-0.13503,-0.17054,-0.018936
905,-0.064978,-0.19324,0.015266,0.07216,0.15898,-0.10609,-0.01499
906,-0.10082,-0.29716,0.020199,0.067227,0.44542,-0.065635,-0.0057815
907,-0.12516,-0.38727,0.027434,0.045193,0.6388,-0.059716,0.0014536
908,-0.13963,-0.45469,0.032038,0.018226,0.69931,-0.076488,-0.0008485
909,-0.15048,-0.48922,0.032696,0.0001381,0.64274,-0.098193,-0.011701
910,-0.16134,-0.48626,0.025132,-0.0051238,0.51021,-0.11661,-0.026171
911,-0.1666,-0.4412,0.013951,-0.0018351,0.34117,-0.13075,-0.038668
912,-0.16331,-0.35767,0.002769,0.0001381,0.15438,-0.14818,-0.046232
913,-0.15081,-0.25375,-0.0067681,0.00079584,-0.050836,-0.17712,-0.052481
914,-0.13207,-0.14785,-0.016963,0.0014536,-0.27743,-0.21132,-0.060045
915,-0.11102,-0.05544,-0.026171,0.0001381,-0.52276,-0.23862,-0.068595
916,-0.088656,0.014937,-0.033078,-0.0041372,-0.77402,-0.25243,-0.068924
917,-0.068266,0.057361,-0.037353,-0.016634,-0.99567,-0.25046,-0.057085
918,-0.051823,0.077751,-0.041628,-0.042286,-1.1486,-0.22875,-0.036366
919,-0.038011,0.085972,-0.043272,-0.074186,-1.2088,-0.17548,-0.016963
920,-0.02354,0.087288,-0.041957,-0.1051,-1.1765,-0.079777,-0.0015062
921,-0.010057,0.088603,-0.038011,-0.12154,-1.0703,0.044206,0.010991
922,-0.0038083,0.089919,-0.031433,-0.1199,-0.91444,0.16227,0.018555
923,-0.0031506,0.094852,-0.021567,-0.10674,-0.73916,0.23265,0.022501
924,-0.004466,0.10077,-0.0097279,-0.0903,-0.57242,0.23035,0.027434
925,-0.0031506,0.10505,-0.00051963,-0.081421,-0.4264,0.1501,0.038944
926,-0.0024928,0.10801,0.0017824,-0.082736,-0.30801,0.010662,0.052428
927,-0.0051238,0.10899,-0.002164,-0.086025,-0.2202,-0.14358,0.069529
928,-0.0097279,0.11097,-0.0028217,-0.081092,-0.15838,-0.26065,0.089261
929,-0.0067681,0.11919,0.0047422,-0.066622,-0.11168,-0.30275,0.10965
930,0.0093464,0.13695,0.01987,-0.04689,-0.070568,-0.26855,0.12544
931,0.0373,0.16457,0.035327,-0.026171,-0.041299,-0.19159,0.13136
932,0.067556,0.19285,0.049139,-0.012359,-0.031762,-0.10905,0.12544
933,0.088932,0.21555,0.056046,-0.015648,-0.046561,-0.047877,0.11524
934,0.093536,0.22673,0.050455,-0.039655,-0.073857,-0.020909,0.10932
935,0.081368,0.22804,0.038287,-0.07583,-0.093918,-0.019265,0.10735
936,0.060979,0.22147,0.024803,-0.10641,-0.095891,-0.025842,0.10011
937,0.041904,0.2139,0.013293,-0.12023,-0.081092,-0.028473,0.085315
938,0.027763,0.20897,0.0044134,-0.1176,-0.061689,-0.018936,0.067885
939,0.02283,0.207,-0.002164,-0.1097,-0.044917,-0.00019077,0.056046
940,0.024803,0.20436,-0.0093991,-0.10543,-0.029789,0.021186,0.053415
941,0.029078,0.19516,-0.013345,-0.10707,-0.014661,0.044864,0.054401
942,0.033025,0.17707,-0.012688,-0.11628,-0.002164,0.078737,0.059334
943,0.042233,0.15536,-0.011043,-0.12516,-0.0061104,0.1353,0.063938
944,0.057361,0.13497,-0.0097279,-0.12976,-0.032749,0.22081,0.066569
945,0.0692,0.11557,-0.011701,-0.13042,-0.074515,0.33624,0.06361
946,0.068214,0.094852,-0.013017,-0.12812,-0.1074,0.47601,0.047824
947,0.047824,0.080053,-0.013674,-0.12089,-0.1097,0.62433,0.017568
948,0.016253,0.081697,-0.014332,-0.11365,-0.077803,0.75292,-0.023211
949,-0.014003,0.10044,-0.016963,-0.1051,-0.016634,0.82888,-0.064978
950,-0.027158,0.13563,-0.024198,-0.092274,0.057032,0.82823,-0.09326
951,-0.020252,0.1797,-0.031762,-0.079119,0.12642,0.74831,-0.10115
952,0.0034268,0.22245,-0.035708,-0.065635,0.17641,0.60558,-0.087012
953,0.033354,0.25238,-0.033406,-0.051823,0.20042,0.43556,-0.060045
954,0.062294,0.25863,-0.022883,-0.038011,0.20404,0.27376,-0.031433
955,0.077422,0.24153,-0.0074258,-0.027158,0.19055,0.14352,-0.011372
956,0.076106,0.20798,0.0073732,-0.015319,0.16885,0.047824,-0.0031506
957,0.060979,0.17279,0.018226,-0.0077547,0.14747,-0.024856,-0.0057815
958,0.039602,0.14418,0.027105,-0.0054526,0.1353,-0.09326,-0.014661
959,0.020528,0.12774,0.034669,-0.004466,0.11952,-0.1712,-0.022225
960,0.0054,0.11557,0.038944,-0.002164,0.077093,-0.27216,-0.023211
961,-0.0074258,0.097483,0.035656,-0.0008485,-0.0011774,-0.39648,-0.015976
962,-0.018278,0.063938,0.024145,-0.004466,-0.096878,-0.5369,-0.0090702
963,-0.020909,0.010004,0.0086887,-0.012359,-0.18041,-0.68095,-0.0093991
964,-0.012688,-0.062347,-0.0031506,-0.016305,-0.23073,-0.81743,-0.014003
965,0.0021113,-0.15081,-0.0074258,-0.0041372,-0.23007,-0.93977,-0.016305
966,0.014608,-0.25177,-0.0015062,0.023817,-0.16989,-1.0256,-0.014332
967,0.015595,-0.34879,0.010004,0.061636,-0.053796,-1.0279,-0.0090702
968,-0.002164,-0.42805,0.019541,0.098798,0.10176,-0.90326,-0.0008485
969,-0.030447,-0.47738,0.022501,0.12478,0.27869,-0.6497,0.0080309
970,-0.055769,-0.48955,0.017239,0.13103,0.46088,-0.31163,0.016253
971,-0.065307,-0.46061,0.0083598,0.11853,0.63354,0.036642,0.024803
972,-0.055112,-0.40009,0.00046697,0.095181,0.77791,0.32276,0.026776
973,-0.032091,-0.32182,-0.0038083,0.074791,0.86966,0.50725,0.01691
974,-0.0057815,-0.24618,-0.0034794,0.065912,0.8894,0.58026,-0.0061104
975,0.013293,-0.186,0.0037556,0.067227,0.83349,0.55987,-0.035051
976,0.019212,-0.14983,0.012635,0.075449,0.71773,0.49147,-0.065307
977,0.011648,-0.1393,0.017568,0.087617,0.5648,0.41188,-0.087669
978,-0.0011774,-0.14588,0.016581,0.099456,0.39577,0.34874,-0.09918
979,-0.0097279,-0.16134,0.013951,0.10669,0.22475,0.31026,-0.099509
980,-0.0084125,-0.17548,0.013293,0.10965,0.067227,0.29809,-0.093918
981,-0.0015062,-0.18403,0.013293,0.11261,-0.057743,0.29941,-0.085696
982,0.00079584,-0.18501,0.012964,0.11689,-0.13503,0.30434,-0.07879
983,-0.0054526,-0.18304,0.013293,0.12412,-0.16265,0.30302,-0.077146
984,-0.01499,-0.18008,0.013293,0.13037,-0.14292,0.2902,-0.07879
985,-0.025185,-0.17712,0.01132,0.13464,-0.084381,0.26027,-0.081421
986,-0.031104,-0.17054,0.0080309,0.13859,-0.0051238,0.21719,-0.081421
987,-0.030775,-0.15772,0.0044134,0.14221,0.073476,0.1649,-0.075501
988,-0.023211,-0.14358,0.0034268,0.14583,0.13004,0.10965,-0.067609
989,-0.012688,-0.12944,0.0090175,0.15043,0.15964,0.061636,-0.060045
990,-0.0067681,-0.11661,0.018884,0.15306,0.17312,0.027434,-0.052152
991,-0.007097,-0.10378,0.026776,0.15273,0.17871,0.0073732,-0.045246
992,-0.0093991,-0.089314,0.029736,0.14813,0.18036,-0.0028217,-0.041628
993,-0.0097279,-0.073857,0.026447,0.13695,0.17378,-0.0077547,-0.042944
994,-0.0077547,-0.062676,0.019541,0.11656,0.15372,-0.01499,-0.042286
995,-0.0077547,-0.054125,0.010662,0.092879,0.11261,-0.040313,-0.033735
996,-0.010057,-0.047548,-0.002164,0.072818,0.045193,-0.10214,-0.01499
997,-0.014003,-0.042944,-0.01499,0.059992,-0.045246,-0.20738,0.010662
998,-0.015976,-0.044259,-0.022554,0.053086,-0.1495,-0.358,0.035656
999,-0.016963,-0.048205,-0.021238,0.046508,-0.25276,-0.54151,0.057361
1000,-0.015319,-0.045246,-0.010715,0.04026,-0.33991,-0.72469,0.073804
1001,-0.010057,-0.028802,0.0011247,0.036971,-0.39187,-0.85623,0.085644
1002,-0.0051238,0.0001381,0.010004,0.034998,-0.39417,-0.89668,0.089919
1003,0.0001381,0.033354,0.015924,0.031709,-0.34287,-0.83058,0.09255
1004,0.0044134,0.065254,0.01987,0.020528,-0.25375,-0.67766,0.093208
1005,0.0063866,0.08959,0.023817,0.002769,-0.15147,-0.47968,0.091892
1006,0.0086887,0.10801,0.028421,-0.01795,-0.065307,-0.28959,0.089261
1007,0.014279,0.1205,0.030723,-0.038668,-0.020581,-0.15344,0.087946
1008,0.025461,0.1307,0.032038,-0.059387,-0.028802,-0.098193,0.093865
1009,0.041247,0.13991,0.030723,-0.082736,-0.088985,-0.11694,0.10702
1010,0.058676,0.1501,0.023159,-0.10773,-0.17844,-0.17745,0.12215
1011,0.070845,0.16457,0.010991,-0.13338,-0.26888,-0.22744,0.13037
1012,0.075449,0.18496,-0.0051238,-0.16134,-0.33596,-0.22546,0.12511
1013,0.0692,0.20601,-0.023869,-0.18863,-0.36523,-0.16232,0.10768
1014,0.052099,0.2241,-0.041628,-0.20836,-0.35997,-0.05544,0.088275
1015,0.028421,0.23725,-0.058071,-0.2054,-0.33596,0.055717,0.073804
1016,0.0083598,0.2458,-0.071555,-0.16923,-0.32018,0.13333,0.062294
1017,-0.0067681,0.24778,-0.086354,-0.099838,-0.32906,0.15438,0.046508
1018,-0.014661,0.23988,-0.1074,-0.013017,-0.36063,0.1182,0.020857
1019,-0.018278,0.2241,-0.13404,0.064596,-0.39483,0.051441,-0.012359
1020,-0.021896,0.20502,-0.16002,0.10965,-0.4024,-0.0090702,-0.043601
1021,-0.025185,0.18693,-0.17613,0.11458,-0.36096,-0.034722,-0.0584
1022,-0.030118,0.17477,-0.18041,0.095839,-0.2669,-0.01203,-0.050507
1023,-0.033078,0.16391,-0.16824,0.069529,-0.12878,0.056046,-0.025514
1024,-0.02946,0.14188,-0.14127,0.048482,0.041247,0.15438,0.0021113
1025,-0.021896,0.10274,-0.10477,0.042233,0.23495,0.26027,0.023488
1026,-0.013017,0.051441,-0.06728,0.056374,0.44707,0.35729,0.039602
1027,-0.004466,-0.0018351,-0.035708,0.088932,0.65689,0.45003,0.052099
1028,-0.0015062,-0.045574,-0.01795,0.12971,0.83086,0.55592,0.066898
1029,-0.00019077,-0.070897,-0.0038083,0.17312,0.92557,0.68254,0.091234
1030,0.010333,-0.072213,0.030065,0.21686,0.92162,0.82921,0.12346
1031,0.03434,-0.047219,0.090248,0.2606,0.85026,0.97753,0.15635
1032,0.065254,0.00079584,0.15898,0.30631,0.771,1.1012,0.18069
1033,0.092221,0.061636,0.20601,0.35104,0.72299,1.1696,0.18661
1034,0.10505,0.11623,0.21028,0.38261,0.7095,1.1627,0.17477
1035,0.10176,0.1432,0.17082,0.38952,0.70687,1.0765,0.15076
1036,0.085972,0.13728,0.099127,0.36222,0.68056,0.93313,0.11985
1037,0.060321,0.10702,0.016581,0.30105,0.60493,0.76574,0.090905
1038,0.032367,0.065912,-0.048205,0.21752,0.49443,0.60394,0.066898
1039,0.010333,0.023488,-0.072213,0.13169,0.3859,0.45957,0.046837
1040,-0.0054526,-0.01795,-0.054454,0.058676,0.30533,0.32506,0.028092
1041,-0.01795,-0.057743,-0.0028217,0.015595,0.25337,0.1968,0.0070443
1042,-0.023869,-0.10247,0.065912,0.0034268,0.21423,0.077093,-0.016305
1043,-0.024198,-0.1518,0.133,0.011648,0.16063,-0.03538,-0.029789
1044,-0.027158,-0.21428,0.18891,0.026776,0.081368,-0.1393,-0.031433
1045,-0.038997,-0.28663,0.22837,0.039931,-0.0051238,-0.22875,-0.02354
1046,-0.061031,-0.36162,0.25172,0.045522,-0.071555,-0.30143,-0.015976
1047,-0.086683,-0.42542,0.256,0.042233,-0.10576,-0.36096,-0.021896
1048,-0.10641,-0.4662,0.25304,0.034998,-0.10872,-0.41522,-0.041628
1049,-0.11398,-0.47277,0.25863,0.023817,-0.086354,-0.47014,-0.070568
1050,-0.11036,-0.43824,0.28264,0.0060577,-0.045246,-0.52408,-0.097864
1051,-0.098851,-0.36556,0.32243,-0.018607,0.013622,-0.56518,-0.11595
1052,-0.078132,-0.26427,0.35564,-0.047548,0.098798,-0.58853,-0.11858
1053,-0.050836,-0.1564,0.34972,-0.07287,0.2241,-0.58853,-0.10707
1054,-0.023869,-0.062347,0.29053,-0.089314,0.39971,-0.55466,-0.088656
1055,0.0014536,0.002769,0.18529,-0.095233,0.59703,-0.47836,-0.068595
1056,0.022501,0.036314,0.058676,-0.089314,0.75588,-0.35603,-0.048863
1057,0.037629,0.044535,-0.061689,-0.081092,0.81968,-0.19093,-0.026171
1058,0.048482,0.037958,-0.15509,-0.074186,0.76673,0.01132,-0.004466
1059,0.059005,0.027105,-0.21198,-0.073857,0.61676,0.24909,0.012306
1060,0.071502,0.018884,-0.23237,-0.077803,0.40793,0.51317,0.021843
1061,0.081368,0.018884,-0.22316,-0.084381,0.18102,0.79041,0.027434
1062,0.083013,0.02875,-0.19685,-0.091945,-0.038668,1.063,0.030723
1063,0.076435,0.043877,-0.16627,-0.10017,-0.24849,1.2998,0.033354
1064,0.068871,0.057361,-0.14292,-0.11069,-0.44975,1.4636,0.043877
1065,0.06065,0.067556,-0.13108,-0.1222,-0.63063,1.5116,0.063281
1066,0.058348,0.079724,-0.12713,-0.13075,-0.77434,1.407,0.079724
1067,0.062952,0.099127,-0.12384,-0.13667,-0.8684,1.1351,0.083342
1068,0.073147,0.12445,-0.11398,-0.14259,-0.9128,0.71641,0.077751
1069,0.083342,0.15142,-0.094576,-0.14752,-0.91444,0.21061,0.065583
1070,0.088275,0.17246,-0.074186,-0.15081,-0.89668,-0.30078,0.048482
1071,0.084657,0.17838,-0.057085,-0.15048,-0.88057,-0.74508,0.023817
1072,0.07216,0.17115,-0.049521,-0.14522,-0.88221,-1.0838,-0.0061104
1073,0.055717,0.15701,-0.053138,-0.14062,-0.90491,-1.3134,-0.037353
1074,0.037629,0.14352,-0.065635,-0.1416,-0.94009,-1.4567,-0.069253
1075,0.020528,0.13267,-0.082408,-0.14983,-0.96969,-1.5436,-0.098193
1076,0.0086887,0.12116,-0.099838,-0.15838,-0.98515,-1.5991,-0.11793
1077,0.0037556,0.10899,-0.1199,-0.16495,-0.98449,-1.6429,-0.12812
1078,0.0011247,0.10274,-0.14259,-0.16627,-0.9664,-1.6745,-0.12779
1079,-0.00019077,0.10801,-0.16364,-0.16298,-0.9276,-1.6754,-0.12121
1080,-0.00051963,0.12412,-0.16594,-0.15509,-0.85821,-1.6232,-0.11233
1081,-0.00051963,0.14583,-0.13864,-0.137,-0.75198,-1.4998,-0.10543
1082,-0.0008485,0.1649,-0.087341,-0.10115,-0.61484,-1.3084,-0.098851
1083,-0.0015062,0.17444,-0.029789,-0.05544,-0.47179,-1.0782,-0.092603
1084,-0.0041372,0.17082,0.01691,-0.0097279,-0.35241,-0.84966,-0.085367
1085,-0.010386,0.15438,0.041575,0.028421,-0.2771,-0.65135,-0.078132
1086,-0.018936,0.12905,0.043549,0.058348,-0.23204,-0.47146,-0.071884
1087,-0.030447,0.099785,0.028092,0.081039,-0.18699,-0.2748,-0.062347
1088,-0.041628,0.064596,0.0086887,0.093208,-0.10773,-0.034722,-0.04689
1089,-0.051165,0.023159,-0.0031506,0.092879,0.016253,0.23922,-0.026829
1090,-0.055769,-0.018278,-0.0031506,0.083013,0.16654,0.51251,-0.0028217
1091,-0.056756,-0.053467,0.0060577,0.067227,0.31552,0.74996,0.018884
1092,-0.056427,-0.081421,0.018555,0.051113,0.44345,0.92162,0.032038
1093,-0.056756,-0.1074,0.027763,0.032367,0.54277,1.0134,0.037629
1094,-0.058729,-0.13338,0.031381,0.0083598,0.61479,1.0262,0.042891
1095,-0.057085,-0.15377,0.025461,-0.027816,0.66445,0.98674,0.052099
1096,-0.052152,-0.16627,0.0077021,-0.076817,0.69142,0.93083,0.063938
1097,-0.043601,-0.16002,-0.018278,-0.13272,0.68155,0.88841,0.076106
1098,-0.032749,-0.13141,-0.045574,-0.18666,0.62762,0.86703,0.087617
1099,-0.020909,-0.08175,-0.06432,-0.22842,0.54474,0.86243,0.098798
1100,-0.004466,-0.018936,-0.065635,-0.25112,0.46022,0.8644,0.11327
1101,0.014608,0.052757,-0.051494,-0.24224,0.39642,0.8644,0.13004
1102,0.029407,0.13037,-0.028802,-0.18041,0.3517,0.84894,0.14879
1103,0.039273,0.2093,-0.0051238,-0.05544,0.30237,0.80652,0.16227
1104,0.045193,0.28099,0.011648,0.1113,0.22673,0.73154,0.16326
1105,0.048153,0.3415,0.017897,0.26981,0.11919,0.63354,0.15076
1106,0.052428,0.3859,0.017239,0.37472,-0.0093991,0.52698,0.13169
1107,0.057361,0.41418,0.014279,0.40596,-0.13864,0.41188,0.11228
1108,0.061307,0.4326,0.0093464,0.37472,-0.24487,0.27507,0.090577
1109,0.059005,0.44641,0.00079584,0.30467,-0.32708,0.098469,0.067556
1110,0.054401,0.45365,-0.011701,0.22278,-0.39385,-0.11727,0.041904
1111,0.051441,0.44937,-0.019923,0.14484,-0.45699,-0.34517,0.015924
1112,0.047824,0.42964,-0.020909,0.085315,-0.51355,-0.53592,-0.0057815
1113,0.039273,0.40333,-0.019594,0.053743,-0.54085,-0.64082,-0.020909
1114,0.024803,0.3734,-0.019923,0.049797,-0.50106,-0.6349,-0.025185
1115,0.0083598,0.34249,-0.024198,0.065583,-0.37214,-0.53098,-0.019923
1116,-0.0057815,0.3119,-0.026829,0.088275,-0.16397,-0.3751,-0.010715
1117,-0.014332,0.27968,-0.02354,0.10176,0.070845,-0.22185,-0.00051963
1118,-0.015648,0.23659,-0.011372,0.087617,0.25501,-0.12253,0.010333
1119,-0.0090702,0.17115,0.0034268,0.038287,0.32078,-0.1028,0.014937
1120,0.0021113,0.083342,0.019212,-0.037353,0.24679,-0.16166,0.0077021
1121,0.017568,0.00046697,0.030065,-0.12089,0.061965,-0.27644,-0.0051238
1122,0.036314,-0.057085,0.033354,-0.18732,-0.1712,-0.40174,-0.017292
1123,0.059992,-0.082408,0.031381,-0.21955,-0.37609,-0.4902,-0.030775
1124,0.083013,-0.083394,0.026447,-0.21428,-0.50007,-0.51026,-0.049192
1125,0.10143,-0.069582,0.020199,-0.18107,-0.52473,-0.46685,-0.071884
1126,0.10768,-0.053467,0.0070443,-0.13996,-0.46883,-0.39385,-0.09326
1127,0.097812,-0.041957,-0.014003,-0.10444,-0.37214,-0.33761,-0.10641
1128,0.075778,-0.041957,-0.039655,-0.08471,-0.27118,-0.33399,-0.10806
1129,0.04618,-0.057414,-0.06432,-0.081092,-0.1883,-0.39483,-0.10082
1130,0.014937,-0.088327,-0.084381,-0.083065,-0.13009,-0.5129,-0.091287
1131,-0.014003,-0.13338,-0.093589,-0.080434,-0.084052,-0.6747,-0.079448
1132,-0.041628,-0.1906,-0.089972,-0.07024,-0.039326,-0.85097,-0.061689
1133,-0.070897,-0.25835,-0.074515,-0.049521,0.0090175,-0.99633,-0.038668
1134,-0.10576,-0.33596,-0.056427,-0.023869,0.059992,-1.0358,-0.012688
1135,-0.14752,-0.4195,-0.040641,-0.0008485,0.1136,-0.90721,0.013293
1136,-0.18797,-0.50237,-0.0265,0.017897,0.16918,-0.61057,0.034998
1137,-0.22382,-0.58196,-0.014332,0.031709,0.22311,-0.21889,0.050784
1138,-0.25473,-0.65464,-0.0054526,0.043877,0.27178,0.16293,0.059663
1139,-0.27447,-0.71318,0.00079584,0.053743,0.31125,0.44049,0.055717
1140,-0.27512,-0.74277,0.010991,0.058676,0.34052,0.57467,0.042562
1141,-0.25704,-0.72732,0.02875,0.059663,0.36058,0.57204,0.027105
1142,-0.22053,-0.65661,0.05473,0.062294,0.36091,0.47601,0.011648
1143,-0.17449,-0.54447,0.077422,0.071831,0.33131,0.34249,-0.0041372
1144,-0.12976,-0.42213,0.092221,0.084986,0.27178,0.21522,-0.017621
1145,-0.094247,-0.31919,0.097154,0.090905,0.19614,0.10702,-0.031104
1146,-0.07287,-0.25046,0.09255,0.085644,0.12149,0.021843,-0.04393
1147,-0.065307,-0.21987,0.07808,0.072818,0.063938,-0.041957,-0.054454
1148,-0.061689,-0.21494,0.054401,0.058019,0.033025,-0.082079,-0.060045
1149,-0.059058,-0.22645,0.02579,0.044864,0.026119,-0.10214,-0.052481
1150,-0.058729,-0.23467,0.00079584,0.033354,0.036314,-0.10576,-0.037353
1151,-0.061031,-0.22974,-0.018278,0.026119,0.058019,-0.093589,-0.023211
1152,-0.059387,-0.20738,-0.030118,0.02283,0.08663,-0.068924,-0.016305
1153,-0.04985,-0.16528,-0.035708,0.023488,0.1113,-0.046232,-0.020581
1154,-0.027487,-0.1051,-0.03538,0.024145,0.12412,-0.031433,-0.031433
1155,0.0057288,-0.035708,-0.03242,0.027434,0.11787,-0.0265,-0.040641
1156,0.042233,0.031052,-0.031104,0.030723,0.086301,-0.031104,-0.041957
1157,0.071831,0.084657,-0.027816,0.029078,0.032367,-0.044259,-0.035708
1158,0.091234,0.12478,-0.021896,0.021843,-0.03242,-0.062018,-0.028802
1159,0.099127,0.15635,-0.0084125,0.013951,-0.095562,-0.077146,-0.024198
1160,0.097483,0.1945,0.020528,0.013622,-0.14687,-0.084052,-0.016634
1161,0.094194,0.24547,0.069529,0.026119,-0.1883,-0.085039,-0.0047949
1162,0.094523,0.30697,0.12905,0.051113,-0.22316,-0.087012,0.015266
1163,0.10077,0.36058,0.18233,0.084328,-0.24651,-0.090629,0.04026
1164,0.10307,0.38721,0.2116,0.1182,-0.25408,-0.096549,0.059663
1165,0.094194,0.37801,0.20568,0.14221,-0.25079,-0.10082,0.065583
1166,0.072489,0.33788,0.16819,0.14254,-0.23928,-0.096549,0.058676
1167,0.043549,0.28099,0.11031,0.11393,-0.22579,-0.073528,0.044206
1168,0.011648,0.22212,0.047495,0.064925,-0.2156,-0.028144,0.025461
1169,-0.019594,0.16654,-0.0064392,0.010004,-0.20738,0.038287,0.0044134
1170,-0.04097,0.11787,-0.036366,-0.038668,-0.18896,0.12544,-0.012688
1171,-0.050179,0.083013,-0.038668,-0.07024,-0.137,0.23725,-0.021238
1172,-0.045903,0.066898,-0.022225,-0.081421,-0.027487,0.37636,-0.016305
1173,-0.02946,0.062294,0.0011247,-0.074844,0.14418,0.53784,0.0047422
1174,-0.0028217,0.05769,0.021514,-0.057414,0.35236,0.69602,0.03434
1175,0.024145,0.044535,0.031052,-0.035051,0.55,0.81639,0.061307
1176,0.036314,0.022172,0.029736,-0.018607,0.69405,0.87624,0.082684
1177,0.027434,-0.00051963,0.021843,-0.0064392,0.76969,0.8769,0.095839
1178,0.0057288,-0.010715,0.014608,0.010333,0.79731,0.84533,0.10735
1179,-0.011043,-0.0018351,0.013622,0.036314,0.8131,0.81343,0.12017
1180,-0.0090702,0.026776,0.017239,0.0692,0.83579,0.79369,0.13432
1181,0.015595,0.070187,0.01987,0.096825,0.86177,0.77758,0.14484
1182,0.053743,0.11886,0.016253,0.1057,0.86736,0.74009,0.1478
1183,0.091234,0.15898,0.0060577,0.089261,0.82658,0.64801,0.14221
1184,0.11393,0.18069,-0.0084125,0.054401,0.72792,0.47305,0.12938
1185,0.12215,0.18529,-0.023211,0.017239,0.58355,0.20798,0.11557
1186,0.12182,0.18102,-0.036037,-0.0038083,0.42207,-0.11694,0.10143
1187,0.12182,0.17937,-0.039326,0.00079584,0.27047,-0.44942,0.092221
1188,0.12905,0.19088,-0.02946,0.027434,0.14188,-0.72765,0.094194
1189,0.14122,0.2162,-0.0064392,0.063281,0.024474,-0.89767,0.10636
1190,0.15207,0.24449,0.021186,0.087288,-0.10773,-0.93812,0.12182
1191,0.15142,0.26323,0.04322,0.087946,-0.2669,-0.85886,0.12905
1192,0.13728,0.26192,0.050455,0.065912,-0.45403,-0.6964,0.12609
1193,0.11689,0.23791,0.043877,0.035656,-0.64576,-0.50073,0.11458
1194,0.094852,0.19483,0.030394,0.0067154,-0.78651,-0.31821,0.099785
1195,0.075449,0.13859,0.016253,-0.011701,-0.81282,-0.17613,0.082684
1196,0.063938,0.081368,0.0063866,-0.017621,-0.69673,-0.085696,0.064267
1197,0.059334,0.032038,-0.00051963,-0.01499,-0.46093,-0.04393,0.048153
1198,0.058019,-0.0018351,-0.004466,0.0014536,-0.1643,-0.038011,0.029078
1199,0.058019,-0.01795,-0.0064392,0.026119,0.11886,-0.049192,0.0093464
1200,0.061965,-0.014003,-0.0034794,0.056046,0.32933,-0.054454,-0.0080836
1201,0.070845,0.012306,0.0011247,0.088603,0.44115,-0.034064,-0.014661
1202,0.080053,0.059992,0.0047422,0.11919,0.45102,0.029078,-0.011372
1203,0.086301,0.11524,0.0057288,0.13991,0.39017,0.13728,-0.004466
1204,0.08959,0.1603,0.0063866,0.15273,0.31289,0.28658,0.002769
1205,0.090905,0.18332,0.0093464,0.15964,0.28198,0.46384,0.010004
1206,0.092879,0.18299,0.012306,0.16227,0.33032,0.64768,0.019212
1207,0.096496,0.16095,0.011977,0.16063,0.43523,0.80192,0.032367
1208,0.10044,0.12774,0.0090175,0.14944,0.53323,0.87493,0.041904
1209,0.10472,0.097483,0.0014536,0.12938,0.55888,0.83645,0.048153
1210,0.1034,0.079724,-0.0057815,0.098798,0.48226,0.69471,0.043877
1211,0.094852,0.070516,-0.013674,0.059005,0.32473,0.50002,0.02875
1212,0.076435,0.062623,-0.019265,0.01691,0.14846,0.31322,0.0040845
1213,0.050455,0.046837,-0.025185,-0.020581,0.010333,0.18562,-0.024856
1214,0.02579,0.019212,-0.030775,-0.047548,-0.059058,0.14451,-0.049521
1215,0.012964,-0.018278,-0.032749,-0.058729,-0.057085,0.18726,-0.063004
1216,0.016581,-0.057743,-0.032091,-0.054125,-0.0041372,0.28198,-0.066951
1217,0.029407,-0.095233,-0.030775,-0.036695,0.073804,0.38393,-0.068924
1218,0.038616,-0.12648,-0.028473,-0.011043,0.16128,0.46351,-0.071884
1219,0.038944,-0.14719,-0.030447,0.014608,0.25304,0.50725,-0.073857
1220,0.035327,-0.15706,-0.03242,0.0373,0.34216,0.51317,-0.071884
1221,0.032696,-0.15805,-0.031762,0.058019,0.41352,0.477,-0.062018
1222,0.029078,-0.16265,-0.027487,0.083342,0.45463,0.41188,-0.047219
1223,0.018884,-0.18271,-0.017292,0.10866,0.45266,0.3369,-0.030118
1224,-0.002164,-0.2179,0.00046697,0.13464,0.4053,0.26751,-0.015976
1225,-0.033078,-0.25835,0.021186,0.15438,0.31585,0.21061,-0.010715
1226,-0.070568,-0.29025,0.038616,0.16457,0.19417,0.15701,-0.017292
1227,-0.10181,-0.29617,0.046508,0.1626,0.049468,0.092221,-0.031762
1228,-0.11628,-0.26953,0.044535,0.15076,-0.11595,0.010004,-0.046561
1229,-0.11332,-0.21494,0.034998,0.12807,-0.29716,-0.089972,-0.057414
1230,-0.097864,-0.15081,0.022501,0.09551,-0.49283,-0.19554,-0.063991
1231,-0.079777,-0.097864,0.01132,0.058019,-0.68884,-0.28302,-0.065964
1232,-0.068595,-0.069582,0.0021113,0.020528,-0.84966,-0.33564,-0.0584
1233,-0.07024,-0.067609,-0.0054526,-0.013017,-0.93417,-0.35109,-0.041957
1234,-0.080106,-0.081421,-0.012688,-0.044588,-0.92234,-0.33827,-0.021238
1235,-0.088656,-0.10115,-0.024527,-0.07583,-0.83551,-0.31459,-0.007097
1236,-0.092603,-0.11497,-0.045246,-0.10707,-0.72534,-0.30045,-0.0051238
1237,-0.089972,-0.11233,-0.07287,-0.13963,-0.63688,-0.29979,-0.0097279
1238,-0.080763,-0.091945,-0.10082,-0.17054,-0.59511,-0.30933,-0.015648
1239,-0.069253,-0.06136,-0.1222,-0.19521,-0.5938,-0.31755,-0.021567
1240,-0.057085,-0.034393,-0.13305,-0.20902,-0.60958,-0.32084,-0.029789
1241,-0.046561,-0.018936,-0.13404,-0.20738,-0.6155,-0.31952,-0.035708
1242,-0.038339,-0.01499,-0.12713,-0.19324,-0.59478,-0.309,-0.037353
1243,-0.03538,-0.019265,-0.11266,-0.17219,-0.54512,-0.29617,-0.030118
1244,-0.038997,-0.029789,-0.090629,-0.1495,-0.4754,-0.28663,-0.020252
1245,-0.044259,-0.037024,-0.059058,-0.1268,-0.4024,-0.28203,-0.0093991
1246,-0.043601,-0.035051,-0.017621,-0.099509,-0.3432,-0.28269,-0.0011774
1247,-0.033406,-0.021567,0.03434,-0.060373,-0.30965,-0.29486,0.0054
1248,-0.014661,0.0001381,0.09255,-0.011701,-0.30505,-0.32577,0.010662
1249,0.0030979,0.020857,0.14122,0.036971,-0.31755,-0.37444,0.015924
1250,0.014608,0.038287,0.16852,0.082026,-0.32643,-0.43134,0.015924
1251,0.019212,0.050784,0.16523,0.1182,-0.31656,-0.48626,0.010004
1252,0.021843,0.061965,0.12971,0.13267,-0.28894,-0.53394,-0.002164
1253,0.023817,0.077751,0.06624,0.1136,-0.25934,-0.579,-0.015976
1254,0.027434,0.10176,-0.015976,0.057032,-0.24388,-0.62866,-0.027487
1255,0.031709,0.133,-0.09918,-0.025514,-0.2498,-0.68325,-0.031762
1256,0.034998,0.16852,-0.16364,-0.11529,-0.26789,-0.73258,-0.02946
1257,0.036971,0.20173,-0.19389,-0.18929,-0.28302,-0.74902,-0.020581
1258,0.036642,0.22607,-0.18732,-0.23204,-0.284,-0.70594,-0.004466
1259,0.034998,0.23528,-0.14851,-0.23895,-0.26657,-0.58952,0.020199
1260,0.035327,0.22903,-0.092274,-0.22152,-0.23402,-0.40601,0.05473
1261,0.036642,0.21785,-0.03538,-0.19291,-0.19258,-0.19093,0.09255
1262,0.038616,0.21456,0.0060577,-0.17219,-0.1518,0.0001381,0.11853
1263,0.039931,0.21785,0.029078,-0.16726,-0.11233,0.13201,0.12609
1264,0.041575,0.21982,0.036314,-0.17416,-0.076159,0.2014,0.11491
1265,0.043549,0.20963,0.033683,-0.18205,-0.042944,0.23298,0.09551
1266,0.041247,0.18628,0.02875,-0.18271,-0.0067681,0.25764,0.073147
1267,0.035656,0.15109,0.030723,-0.17482,0.024145,0.29415,0.047495
1268,0.024474,0.11426,0.038287,-0.16134,0.040918,0.34611,0.023817
1269,0.0090175,0.084986,0.049468,-0.14226,0.041247,0.41221,0.0054
1270,-0.010057,0.0692,0.063281,-0.12023,0.038287,0.49706,-0.0038083
1271,-0.029789,0.066898,0.076764,-0.090958,0.049139,0.5921,-0.0028217
1272,-0.04393,0.070187,0.091892,-0.052152,0.080711,0.68451,0.0057288
1273,-0.048205,0.07512,0.10866,-0.010715,0.11721,0.74469,0.018884
1274,-0.04393,0.07216,0.12281,0.017897,0.13432,0.73845,0.030394
1275,-0.037682,0.059663,0.13037,0.028421,0.1205,0.64603,0.034011
1276,-0.034064,0.036642,0.1284,0.018884,0.083013,0.47338,0.030394
1277,-0.036695,0.0086887,0.11721,-0.0038083,0.041247,0.26126,0.017239
1278,-0.044259,-0.019594,0.093536,-0.032091,0.010991,0.061636,-0.002164
1279,-0.053467,-0.039984,0.058019,-0.063004,0.0047422,-0.08471,-0.023211
1280,-0.06136,-0.049521,0.018555,-0.096549,0.030394,-0.16627,-0.039984
1281,-0.067937,-0.048534,-0.020252,-0.12384,0.097483,-0.20212,-0.051823
1282,-0.066293,-0.039326,-0.053467,-0.13207,0.20897,-0.2327,-0.059716
1283,-0.053467,-0.022554,-0.077803,-0.11201,0.36288,-0.28828,-0.066293
1284,-0.031433,-0.0024928,-0.085696,-0.064649,0.54408,-0.37346,-0.071884
1285,-0.0067681,0.021843,-0.07287,0.0014536,0.72957,-0.46883,-0.072213
1286,0.015595,0.05177,-0.038011,0.064596,0.88413,-0.54447,-0.066622
1287,0.032696,0.082355,0.0063866,0.10242,0.96898,-0.57966,-0.059058
1288,0.039273,0.10176,0.046508,0.11393,0.96339,-0.56913,-0.053138
1289,0.032367,0.091234,0.068214,0.13563,0.88512,-0.52539,-0.050507
1290,0.014608,0.036314,0.067556,0.20272,0.77396,-0.46521,-0.053467
1291,-0.0061104,-0.057085,0.04881,0.31289,0.66182,-0.41029,-0.05544
1292,-0.022883,-0.1587,0.023159,0.42832,0.55658,-0.37937,-0.048534
1293,-0.030118,-0.23928,0.0037556,0.51284,0.45463,-0.37905,-0.029789
1294,-0.031433,-0.28269,-0.0034794,0.54507,0.34644,-0.39746,-0.0038083
1295,-0.034064,-0.29321,0.0024402,0.52139,0.23035,-0.41785,0.021514
1296,-0.043272,-0.28236,0.013622,0.45167,0.10472,-0.4218,0.041247
1297,-0.056756,-0.26394,0.024145,0.36189,-0.027816,-0.4047,0.053086
1298,-0.064649,-0.24487,0.027763,0.27145,-0.15443,-0.3649,0.058019
1299,-0.062018,-0.22875,0.029407,0.19746,-0.25967,-0.29716,0.056046
1300,-0.048534,-0.2156,0.030394,0.14616,-0.32873,-0.19028,0.051113
1301,-0.031433,-0.20639,0.030394,0.1159,-0.35076,-0.033735,0.046508
1302,-0.021896,-0.19817,0.02875,0.098141,-0.32544,0.17016,0.04618
1303,-0.0265,-0.18666,0.027434,0.088275,-0.26131,0.41287,0.050784
1304,-0.041299,-0.16726,0.023817,0.081697,-0.18271,0.68846,0.054072
1305,-0.05544,-0.14062,0.018884,0.072489,-0.11825,0.98181,0.054072
1306,-0.057743,-0.11266,0.015924,0.055388,-0.081092,1.2788,0.052428
1307,-0.048863,-0.083394,0.014608,0.032696,-0.07024,1.5498,0.052757
1308,-0.035708,-0.059387,0.012306,0.013293,-0.077803,1.7471,0.058019
1309,-0.027158,-0.041299,0.012306,0.0080309,-0.069582,1.8332,0.067556
1310,-0.022225,-0.027816,0.018555,0.017239,-0.004466,1.7954,0.078409
1311,-0.017621,-0.013345,0.032696,0.035327,0.12544,1.6537,0.085644
1312,-0.011043,0.0054,0.05177,0.049468,0.2879,1.4439,0.087617
1313,-0.0015062,0.024803,0.067227,0.04618,0.42898,1.2002,0.083999
1314,0.0073732,0.039931,0.076435,0.026119,0.50396,0.94103,0.074462
1315,0.014279,0.041904,0.073476,-0.0034794,0.50429,0.66642,0.061965
1316,0.015924,0.034669,0.06065,-0.033078,0.45529,0.37373,0.050455
1317,0.011648,0.025132,0.04026,-0.054125,0.39215,0.071173,0.039273
1318,0.0034268,0.01987,0.017568,-0.071226,0.34413,-0.23106,0.025461
1319,-0.0041372,0.026119,0.0021113,-0.091616,0.33032,-0.52243,0.010991
1320,-0.0011774,0.046508,-0.0008485,-0.11431,0.34709,-0.79967,0.0017824
1321,0.020199,0.077751,0.0093464,-0.13667,0.37406,-1.0601,0.0057288
1322,0.055059,0.11031,0.029078,-0.15015,0.38656,-1.3015,0.021514
1323,0.091563,0.13464,0.04881,-0.1587,0.3563,-1.5074,0.041575
1324,0.11754,0.1455,0.06065,-0.17252,0.26521,-1.6587,0.054072
1325,0.12412,0.13859,0.057032,-0.20409,0.11886,-1.7264,0.056374
1326,0.11228,0.11656,0.037629,-0.25112,-0.066622,-1.6745,0.052757
1327,0.084986,0.087617,0.0077021,-0.29288,-0.27282,-1.4735,0.050126
1328,0.053415,0.06361,-0.029789,-0.29946,-0.49185,-1.1397,0.048153
1329,0.021514,0.055059,-0.064649,-0.25539,-0.70923,-0.72962,0.043877
1330,0.0014536,0.064267,-0.089972,-0.16824,-0.89241,-0.31821,0.037629
1331,-0.0064392,0.084328,-0.10247,-0.063004,-0.99567,0.021186,0.031052
1332,-0.0031506,0.099456,-0.10346,0.038616,-0.99633,0.25468,0.030723
1333,0.0063866,0.10406,-0.09622,0.13004,-0.90655,0.38656,0.035985
1334,0.014279,0.09551,-0.088656,0.21818,-0.76645,0.44674,0.046508
1335,0.020199,0.07512,-0.083394,0.30763,-0.61945,0.47765,0.06065
1336,0.021514,0.04881,-0.081421,0.38228,-0.49875,0.49969,0.071502
1337,0.017897,0.02579,-0.083723,0.4201,-0.42377,0.50561,0.070187
1338,0.0054,0.0090175,-0.087669,0.40695,-0.38825,0.47996,0.053086
1339,-0.016963,-0.002164,-0.0903,0.34019,-0.38135,0.41714,0.028421
1340,-0.04097,-0.0011774,-0.085039,0.23692,-0.38233,0.33131,0.0067154
1341,-0.059058,0.018884,-0.069582,0.12149,-0.37082,0.23988,-0.0054526
1342,-0.06136,0.058348,-0.053138,0.016253,-0.33498,0.15273,-0.0090702
1343,-0.043272,0.1182,-0.045574,-0.068924,-0.27512,0.074462,-0.0087413
1344,-0.010386,0.19285,-0.045574,-0.12878,-0.19948,0.0060577,-0.0061104
1345,0.028092,0.26751,-0.047548,-0.16134,-0.1176,-0.036695,0.0021113
1346,0.065912,0.33131,-0.041957,-0.1666,-0.031433,-0.029789,0.013293
1347,0.098141,0.37636,-0.026171,-0.14818,0.070845,0.054072,0.029078
1348,0.12379,0.39971,-0.00019077,-0.1176,0.19154,0.21818,0.047495
1349,0.14122,0.3984,0.030723,-0.091945,0.31125,0.42569,0.067227
1350,0.14813,0.37636,0.059992,-0.07287,0.40234,0.61512,0.091563
1351,0.13925,0.33591,0.083999,-0.054454,0.43983,0.73121,0.11557
1352,0.11162,0.27869,0.10143,-0.026829,0.42109,0.75094,0.13037
1353,0.0692,0.20568,0.10899,0.0054,0.35992,0.68287,0.12708
1354,0.01691,0.12577,0.10899,0.030065,0.28033,0.55954,0.1034
1355,-0.031762,0.04322,0.099127,0.035327,0.20765,0.41155,0.067227
1356,-0.06432,-0.037353,0.082355,0.023817,0.15931,0.25501,0.035656
1357,-0.080106,-0.11924,0.06361,0.0054,0.14155,0.092221,0.023817
1358,-0.089972,-0.2054,0.047166,-0.018278,0.15405,-0.074844,0.02875
1359,-0.11069,-0.30012,0.033354,-0.044588,0.18167,-0.23895,0.040918
1360,-0.14325,-0.3968,0.023159,-0.065964,0.21094,-0.38924,0.047495
1361,-0.17975,-0.47639,0.013951,-0.072542,0.23396,-0.51092,0.045522
1362,-0.20179,-0.52243,0.0077021,-0.06136,0.25074,-0.59478,0.031709
1363,-0.19948,-0.52243,0.0017824,-0.036037,0.26422,-0.63852,0.010662
1364,-0.17219,-0.48198,-0.0008485,-0.013674,0.27573,-0.64707,-0.015648
1365,-0.12713,-0.41423,-0.0015062,-0.0090702,0.28592,-0.62866,-0.044259
1366,-0.078132,-0.33564,-0.0028217,-0.030775,0.29151,-0.59051,-0.067937
1367,-0.039326,-0.26822,-0.0061104,-0.076159,0.2902,-0.53296,-0.081421
1368,-0.01499,-0.22349,-0.011372,-0.13568,0.28527,-0.45863,-0.085039
1369,-0.0097279,-0.20869,-0.015648,-0.19159,0.28296,-0.37346,-0.086025
1370,-0.017292,-0.21955,-0.01795,-0.22777,0.27803,-0.29058,-0.087669
1371,-0.027487,-0.23829,-0.017292,-0.23698,0.26027,-0.22283,-0.091945
1372,-0.027158,-0.24026,-0.013017,-0.22382,0.23166,-0.18173,-0.09326
1373,-0.011043,-0.20508,-0.0064392,-0.186,0.19779,-0.16758,-0.087669
1374,0.015924,-0.13733,-0.0097279,-0.10905,0.15372,-0.17811,-0.081092
1375,0.042562,-0.057743,-0.022554,0.012635,0.075778,-0.20836,-0.082079
1376,0.061965,0.01132,-0.039984,0.15931,-0.05281,-0.25737,-0.0903
1377,0.067227,0.053415,-0.053796,0.28921,-0.21231,-0.31557,-0.10115
1378,0.052757,0.071173,-0.058071,0.37373,-0.35372,-0.37707,-0.11003
1379,0.026119,0.074791,-0.055112,0.39741,-0.43627,-0.43758,-0.12187
1380,0.0021113,0.081039,-0.051494,0.36781,-0.44515,-0.49086,-0.14259
1381,-0.0097279,0.1057,-0.051823,0.30401,-0.38201,-0.53559,-0.1735
1382,-0.002164,0.15405,-0.060702,0.22147,-0.26,-0.56716,-0.20606
1383,0.026447,0.2162,-0.076159,0.13234,-0.11299,-0.5767,-0.23237
1384,0.071502,0.28329,-0.092603,0.048482,0.0040845,-0.55861,-0.24289
1385,0.12807,0.3415,-0.10346,-0.017621,0.055717,-0.51355,-0.23566
1386,0.18562,0.38787,-0.10378,-0.062018,0.033354,-0.44613,-0.21132
1387,0.23363,0.4224,-0.092603,-0.081092,-0.038997,-0.35964,-0.17613
1388,0.26389,0.4474,-0.070568,-0.073857,-0.11793,-0.25112,-0.13667
1389,0.27474,0.46285,-0.04097,-0.042944,-0.15509,-0.1199,-0.097864
1390,0.27244,0.46877,-0.012359,0.00046697,-0.13141,0.037629,-0.063662
1391,0.26323,0.46121,0.016581,0.045193,-0.072213,0.22541,-0.034064
1392,0.24449,0.43556,0.045851,0.078737,-0.017292,0.42865,-0.0051238
1393,0.21522,0.38623,0.077093,0.096496,-0.0018351,0.62236,0.020528
1394,0.17674,0.30862,0.11064,0.1011,-0.046561,0.78021,0.033354
1395,0.13333,0.20732,0.13892,0.099785,-0.15344,0.88709,0.028092
1396,0.089261,0.087617,0.14977,0.094852,-0.29683,0.9453,0.011648
1397,0.048153,-0.046561,0.13497,0.082355,-0.43989,0.97095,-0.010386
1398,0.0093464,-0.18403,0.097154,0.059005,-0.54578,0.9851,-0.028802
1399,-0.031762,-0.30867,0.050784,0.026119,-0.58985,0.99989,-0.039326
1400,-0.074186,-0.40338,0.0060577,-0.019923,-0.56683,1.0134,-0.037353
1401,-0.11497,-0.4537,-0.025185,-0.074515,-0.4856,1.0068,-0.020909
1402,-0.13996,-0.44449,-0.040641,-0.12615,-0.37609,0.95944,0.0011247
1403,-0.13996,-0.37247,-0.042615,-0.16561,-0.26756,0.85914,0.017897
1404,-0.11562,-0.25605,-0.038997,-0.18403,-0.17153,0.70391,0.026119
1405,-0.081421,-0.13009,-0.037353,-0.18436,-0.081421,0.50988,0.026447
1406,-0.053138,-0.022883,-0.037353,-0.17252,0.024803,0.30763,0.02283
1407,-0.036366,0.057032,-0.031433,-0.15443,0.16885,0.12873,0.020528
1408,-0.024856,0.11853,-0.0041372,-0.12976,0.37768,-0.002164,0.024474
1409,-0.0074258,0.17378,0.054072,-0.095562,0.66313,-0.068266,0.039602
1410,0.026447,0.22574,0.12346,-0.061031,0.99003,-0.079119,0.068214
1411,0.066898,0.25698,0.17246,-0.04393,1.2584,-0.069911,0.1011
1412,0.098141,0.24153,0.17444,-0.043272,1.3593,-0.085696,0.12905
1413,0.10669,0.16523,0.12116,-0.036695,1.2472,-0.15377,0.14024
1414,0.086959,0.049139,0.030723,-0.0011774,0.96635,-0.27184,0.13136
1415,0.047495,-0.073528,-0.064649,0.065912,0.61084,-0.40667,0.10768
1416,0.0030979,-0.17613,-0.13667,0.1455,0.27047,-0.52013,0.084986
1417,-0.038011,-0.25473,-0.16758,0.21423,-0.0011774,-0.59182,0.072489
1418,-0.072542,-0.32413,-0.1587,0.25205,-0.19422,-0.6155,0.068543
1419,-0.10444,-0.39845,-0.12582,0.25205,-0.31755,-0.59972,0.068543
1420,-0.13733,-0.47442,-0.0903,0.21982,-0.38233,-0.55795,0.06361
1421,-0.16693,-0.5369,-0.063991,0.17312,-0.4024,-0.49941,0.056046
1422,-0.18436,-0.56321,-0.050836,0.12412,-0.39056,-0.43035,0.051113
1423,-0.18666,-0.53789,-0.04985,0.083013,-0.36392,-0.36359,0.052099
1424,-0.17811,-0.46356,-0.056427,0.052099,-0.33662,-0.30965,0.05473
1425,-0.16561,-0.35504,-0.064649,0.027105,-0.3261,-0.27348,0.055388
1426,-0.15213,-0.23402,-0.07287,-0.00019077,-0.3455,-0.25704,0.055717
1427,-0.1393,-0.11003,-0.076488,-0.035708,-0.39549,-0.25901,0.056703
1428,-0.1324,0.012635,-0.081421,-0.080106,-0.45863,-0.27348,0.053086
1429,-0.1324,0.1353,-0.089314,-0.12582,-0.50467,-0.28071,0.047166
1430,-0.13075,0.25468,-0.10181,-0.16002,-0.51487,-0.25802,0.041904
1431,-0.11891,0.3711,-0.11003,-0.17054,-0.47738,-0.19324,0.04322
1432,-0.092931,0.48127,-0.096549,-0.15575,-0.38464,-0.088327,0.050126
1433,-0.0584,0.57204,-0.051165,-0.12121,-0.23829,0.052099,0.063281
1434,-0.022883,0.63584,0.014608,-0.083065,-0.059387,0.20897,0.080053
1435,0.0090175,0.67563,0.082355,-0.056756,0.10932,0.35696,0.095181
1436,0.039602,0.7026,0.13695,-0.047548,0.22837,0.48259,0.10373
1437,0.071502,0.72858,0.1695,-0.053796,0.27376,0.59506,0.10373
1438,0.10538,0.75094,0.17411,-0.067609,0.24251,0.72365,0.097812
1439,0.13662,0.76344,0.15471,-0.078132,0.16687,0.88907,0.084657
1440,0.1626,0.75423,0.12511,-0.077146,0.090248,1.0792,0.067227
1441,0.18167,0.70885,0.097154,-0.063991,0.05177,1.2485,0.053743
1442,0.18759,0.62005,0.077751,-0.041628,0.076106,1.3492,0.051441
1443,0.18299,0.49344,0.067885,-0.012688,0.16194,1.3626,0.059334
1444,0.17016,0.34413,0.063938,0.015266,0.28691,1.2942,0.077422
1445,0.14912,0.19384,0.060979,0.036642,0.41451,1.1607,0.10406
1446,0.12379,0.059663,0.056374,0.045193,0.51021,0.97885,0.13464
1447,0.10044,-0.04985,0.050784,0.044864,0.55724,0.76706,0.15767
1448,0.080711,-0.13733,0.045851,0.038944,0.55461,0.54968,0.16852
1449,0.063938,-0.20639,0.044206,0.032696,0.50692,0.34907,0.16687
1450,0.044206,-0.2623,0.047824,0.032696,0.42306,0.16359,0.15503
1451,0.018884,-0.30933,0.054401,0.034998,0.31059,-0.028144,0.13497
1452,-0.0074258,-0.34945,0.062294,0.034669,0.17345,-0.2498,0.11097
1453,-0.028802,-0.37674,0.065583,0.026447,0.0096753,-0.5073,0.087288
1454,-0.045903,-0.38661,0.062952,0.010004,-0.17252,-0.78618,0.069529
1455,-0.054783,-0.3774,0.057361,-0.0067681,-0.35635,-1.0542,0.058019
1456,-0.054783,-0.35175,0.049797,-0.018278,-0.50895,-1.2831,0.047495
1457,-0.046561,-0.31656,0.04026,-0.020581,-0.59347,-1.441,0.039931
1458,-0.032749,-0.2771,0.029078,-0.014003,-0.58525,-1.4909,0.034669
1459,-0.020252,-0.23171,0.018555,-0.002164,-0.48593,-1.3975,0.027763
1460,-0.0077547,-0.17318,0.010333,0.013293,-0.32873,-1.1493,0.026447
1461,0.010004,-0.095891,0.0040845,0.030394,-0.16397,-0.78355,0.030394
1462,0.039931,-0.011372,-0.0034794,0.041247,-0.031433,-0.37609,0.036314
1463,0.080382,0.06065,-0.016305,0.045851,0.049468,-0.017621,0.040918
1464,0.12248,0.10373,-0.031433,0.045851,0.086959,0.231,0.042562
1465,0.15767,0.11327,-0.044588,0.045193,0.10768,0.35729,0.039273
1466,0.17608,0.093208,-0.053796,0.044864,0.13037,0.38228,0.025132
1467,0.17312,0.052757,-0.053796,0.049139,0.15997,0.3415,-0.0011774
1468,0.14944,0.0080309,-0.047877,0.056046,0.18529,0.26389,-0.033078
1469,0.1159,-0.029789,-0.039326,0.062294,0.19154,0.17477,-0.061689
1470,0.083342,-0.057414,-0.02946,0.062952,0.17575,0.090248,-0.077803
1471,0.058348,-0.079448,-0.019265,0.055717,0.13859,0.014608,-0.082736
1472,0.043877,-0.10707,-0.010715,0.043877,0.086959,-0.053796,-0.081421
1473,0.032038,-0.14785,-0.004466,0.030065,0.0373,-0.11168,-0.077803
1474,0.015595,-0.20475,0.0054,0.022172,0.010004,-0.1495,-0.07583
1475,-0.0064392,-0.2748,0.020199,0.021843,0.02283,-0.15476,-0.080106
1476,-0.033406,-0.35537,0.038616,0.029407,0.083013,-0.12746,-0.080434
1477,-0.06432,-0.44646,0.057361,0.044206,0.16983,-0.079448,-0.070897
1478,-0.09622,-0.53822,0.073147,0.065254,0.24778,-0.034064,-0.05281
1479,-0.12779,-0.61649,0.082026,0.090905,0.28559,-0.011701,-0.030447
1480,-0.15838,-0.65661,0.078737,0.1159,0.26521,-0.024527,-0.013345
1481,-0.18337,-0.63918,0.064596,0.13596,0.19746,-0.060373,-0.0047949
1482,-0.19652,-0.55532,0.042562,0.14155,0.10209,-0.10641,-0.0087413
1483,-0.19159,-0.41555,0.019541,0.12774,0.0034268,-0.14884,-0.020581
1484,-0.16594,-0.23763,0.00046697,0.10143,-0.076159,-0.18074,-0.032749
1485,-0.1245,-0.041299,-0.014661,0.072489,-0.12384,-0.19817,-0.04097
1486,-0.07024,0.15832,-0.032749,0.048153,-0.14423,-0.20277,-0.041628
1487,-0.0090702,0.34348,-0.053796,0.027434,-0.15344,-0.19751,-0.037024
1488,0.048482,0.49969,-0.072542,0.0077021,-0.16824,-0.19389,-0.030447
1489,0.08959,0.60887,-0.087669,-0.014661,-0.19948,-0.20244,-0.023869
1490,0.10505,0.66215,-0.097207,-0.039655,-0.24487,-0.22185,-0.018936
1491,0.10209,0.66971,-0.098522,-0.06432,-0.29847,-0.24421,-0.0097279
1492,0.092879,0.65228,-0.093589,-0.081421,-0.34353,-0.26328,0.0030979
1493,0.076764,0.61644,-0.085039,-0.086025,-0.37609,-0.2794,0.010004
1494,0.051441,0.5625,-0.078132,-0.083065,-0.39911,-0.2942,0.0063866
1495,0.015266,0.48226,-0.068266,-0.079777,-0.41687,-0.30998,-0.011372
1496,-0.028473,0.37603,-0.053467,-0.079119,-0.43265,-0.32906,-0.037024
1497,-0.071226,0.25172,-0.030775,-0.074844,-0.44482,-0.35307,-0.060373
1498,-0.10773,0.11985,-0.0061104,-0.066622,-0.45469,-0.37839,-0.076488
1499,-0.13864,-0.021896,0.013951,-0.057743,-0.46554,-0.3945,-0.087012
1500,-0.1666,-0.1689,0.024474,-0.054783,-0.47573,-0.39352,-0.092931
1501,-0.18929,-0.31261,0.024145,-0.057414,-0.47573,-0.37181,-0.098193
1502,-0.20573,-0.43758,0.013293,-0.059387,-0.456,-0.33366,-0.10346
1503,-0.21593,-0.53,-0.0038083,-0.0584,-0.40864,-0.27907,-0.1051
1504,-0.21987,-0.58426,-0.018607,-0.052481,-0.33366,-0.20803,-0.095562
1505,-0.21395,-0.59873,-0.026829,-0.043272,-0.23434,-0.12615,-0.074186
1506,-0.19126,-0.56979,-0.024527,-0.028802,-0.10674,-0.031762,-0.046561
1507,-0.15279,-0.49974,-0.014661,-0.013345,0.045522,0.067556,-0.019265
1508,-0.11332,-0.4047,-0.0054526,0.0030979,0.21292,0.16293,0.002769
1509,-0.080434,-0.30209,-0.0011774,0.019212,0.36781,0.23955,0.016253
1510,-0.056098,-0.20409,-0.0028217,0.035985,0.47765,0.27803,0.024803
1511,-0.03538,-0.11825,-0.013345,0.049468,0.52304,0.26981,0.029407
1512,-0.016963,-0.042286,-0.027487,0.055388,0.501,0.22278,0.034669
1513,0.002769,0.027105,-0.041628,0.057032,0.43227,0.15635,0.039602
1514,0.024145,0.09255,-0.052481,0.060321,0.34644,0.092221,0.040589
1515,0.048153,0.15076,-0.062018,0.061307,0.26685,0.042891,0.040918
1516,0.069858,0.19943,-0.069253,0.057032,0.20305,0.0096753,0.041247
1517,0.081697,0.23692,-0.071555,0.046837,0.14813,-0.016305,0.044206
1518,0.083342,0.25994,-0.063991,0.037629,0.098141,-0.04097,0.050455
1519,0.082684,0.2708,-0.046561,0.033683,0.06065,-0.0584,0.058676
1520,0.085972,0.27112,-0.022883,0.0373,0.033025,-0.063333,0.062952
1521,0.091563,0.25402,0.00079584,0.047495,0.01691,-0.052152,0.06065
1522,0.093865,0.21522,0.018884,0.060979,0.0077021,-0.023869,0.054401
1523,0.090248,0.15405,0.031381,0.071831,0.002769,0.017568,0.045851
1524,0.08367,0.077422,0.037629,0.076435,-0.004466,0.062623,0.036971
1525,0.079066,-0.0038083,0.041247,0.077751,-0.011043,0.10965,0.031381
1526,0.073147,-0.078132,0.042891,0.078409,-0.014332,0.1672,0.028092
1527,0.061636,-0.13832,0.041247,0.080053,-0.013345,0.23758,0.021514
1528,0.04322,-0.18173,0.03434,0.084328,-0.011043,0.31486,0.0086887
1529,0.020857,-0.19817,0.020857,0.087617,-0.0064392,0.38557,-0.010386
1530,0.0047422,-0.18666,0.0030979,0.08959,0.012306,0.43424,-0.031433
1531,0.0037556,-0.14917,-0.01499,0.091563,0.059005,0.4543,-0.04393
1532,0.019212,-0.091945,-0.024856,0.093536,0.13859,0.44904,-0.040641
1533,0.042891,-0.015976,-0.02354,0.093536,0.23002,0.42931,-0.02354
1534,0.065254,0.067227,-0.013017,0.087946,0.3027,0.4007,-0.0011774
1535,0.082355,0.14024,0.002769,0.083013,0.33098,0.35696,0.014279
1536,0.092221,0.18595,0.019541,0.079395,0.305,0.29382,0.017239
1537,0.093536,0.19746,0.030723,0.072489,0.22903,0.20667,0.010662
1538,0.084328,0.17477,0.035327,0.060321,0.12577,0.09255,-0.00019077
1539,0.064267,0.12544,0.035656,0.044535,0.028092,-0.038997,-0.01203
1540,0.0373,0.070187,0.036314,0.027105,-0.037682,-0.17548,-0.024527
1541,0.013293,0.023817,0.036642,0.0086887,-0.064649,-0.29847,-0.038011
1542,0.0021113,-0.0057815,0.037958,-0.012688,-0.064978,-0.38529,-0.054783
1543,0.0060577,-0.019594,0.041904,-0.036037,-0.05544,-0.42279,-0.069911
1544,0.01987,-0.024198,0.049797,-0.0584,-0.051494,-0.41391,-0.080106
1545,0.03434,-0.028144,0.061965,-0.063991,-0.060373,-0.37378,-0.083723
1546,0.04322,-0.035051,0.078409,-0.041299,-0.07879,-0.32248,-0.07879
1547,0.047166,-0.038339,0.092879,0.0040845,-0.099838,-0.27841,-0.063333
1548,0.052428,-0.027158,0.10044,0.052099,-0.11793,-0.25671,-0.039326
1549,0.067556,0.0034268,0.097154,0.088932,-0.13075,-0.25737,-0.011372
1550,0.093536,0.045193,0.084986,0.10965,-0.14029,-0.27216,0.017239
1551,0.1182,0.088603,0.070516,0.1136,-0.15081,-0.28894,0.0373
1552,0.13201,0.12708,0.056046,0.10077,-0.16298,-0.28828,0.045193
1553,0.13103,0.16095,0.044206,0.077751,-0.17383,-0.25177,0.039273
1554,0.11787,0.18628,0.036642,0.050784,-0.18304,-0.17285,0.02283
1555,0.1011,0.20568,0.033683,0.02579,-0.18567,-0.04985,0.0073732
1556,0.083342,0.21982,0.032696,0.010004,-0.18501,0.10834,0.0024402
1557,0.064596,0.23035,0.03434,0.0024402,-0.18666,0.29645,0.010662
1558,0.044206,0.23561,0.034669,0.0021113,-0.19521,0.50462,0.030065
1559,0.021514,0.23199,0.030394,0.0017824,-0.21165,0.7174,0.053415
1560,-0.0028217,0.21324,0.021186,0.0001381,-0.22908,0.91965,0.076435
1561,-0.028144,0.1751,0.01132,-0.0018351,-0.23994,1.0897,0.095181
1562,-0.050836,0.11524,0.0044134,-0.004466,-0.2327,1.2133,0.11557
1563,-0.065635,0.037629,0.00079584,-0.007097,-0.19784,1.2804,0.13793
1564,-0.067937,-0.051823,0.0037556,-0.007097,-0.13634,1.2673,0.16227
1565,-0.062676,-0.14917,0.010333,-0.0064392,-0.059716,1.1413,0.18365
1566,-0.060045,-0.25506,0.014937,-0.011701,0.010004,0.89301,0.19581
1567,-0.07024,-0.35833,0.0096753,-0.024856,0.055717,0.55362,0.19088
1568,-0.09622,-0.43758,-0.007097,-0.041299,0.072489,0.18924,0.16622
1569,-0.12746,-0.46817,-0.030118,-0.054125,0.066569,-0.1199,0.12609
1570,-0.15213,-0.43528,-0.04689,-0.060045,0.059005,-0.31163,0.084328
1571,-0.15936,-0.34747,-0.049192,-0.063333,0.065912,-0.36688,0.049797
1572,-0.14391,-0.23237,-0.036037,-0.063662,0.096496,-0.3067,0.028421
1573,-0.11299,-0.12023,-0.01795,-0.058729,0.15306,-0.17416,0.023488
1574,-0.078132,-0.028802,-0.0011774,-0.042286,0.22969,-0.020252,0.032038
1575,-0.047219,0.04026,0.0090175,-0.015648,0.30566,0.10439,0.047824
1576,-0.020581,0.092879,0.011648,0.010662,0.34907,0.16457,0.06065
1577,0.0040845,0.133,0.010333,0.02579,0.34216,0.14879,0.060979
1578,0.027105,0.15964,0.0054,0.025132,0.28724,0.079066,0.047166
1579,0.045851,0.17641,-0.0008485,0.012635,0.21686,-0.0034794,0.029078
1580,0.055717,0.18726,-0.0084125,-0.0041372,0.16622,-0.055112,0.017897
1581,0.058019,0.20108,-0.013674,-0.018278,0.15438,-0.048534,0.018555
1582,0.05769,0.22771,-0.016305,-0.025185,0.16227,0.019541,0.030723
1583,0.06065,0.26948,-0.015319,-0.031433,0.14977,0.12445,0.042233
1584,0.068214,0.32045,-0.013017,-0.042944,0.092879,0.24416,0.051113
1585,0.080053,0.36847,-0.011701,-0.061689,0.0077021,0.35203,0.061307
1586,0.093208,0.39807,-0.01203,-0.081092,-0.065307,0.42142,0.076764
1587,0.10274,0.40234,-0.011701,-0.091616,-0.097864,0.43128,0.092879
1588,0.10702,0.38623,-0.012359,-0.087341,-0.079777,0.3757,0.10603
1589,0.10669,0.35433,-0.011372,-0.066622,-0.032749,0.26488,0.11952
1590,0.1034,0.31618,-0.0087413,-0.038668,0.010333,0.12346,0.12905
1591,0.094523,0.28066,-0.0057815,-0.015319,0.027105,-0.023869,0.1284
1592,0.080382,0.25172,-0.0024928,-0.0031506,0.015595,-0.15048,0.11228
1593,0.063938,0.22837,0.0014536,-0.0031506,-0.018607,-0.24257,0.086959
1594,0.047495,0.20831,0.0070443,-0.010715,-0.077475,-0.29551,0.056703
1595,0.031052,0.1922,0.01132,-0.017621,-0.15607,-0.30571,0.027763
1596,0.016253,0.17871,0.014608,-0.015976,-0.24289,-0.28071,0.0080309
1597,0.0047422,0.16457,0.018226,-0.0054526,-0.32413,-0.23467,0.0014536
1598,-0.00019077,0.14385,0.021514,0.01132,-0.38069,-0.18765,0.0047422
1599,-0.00019077,0.1182,0.024145,0.032038,-0.39253,-0.14884,0.0086887
1600,-0.0041372,0.090905,0.023488,0.053743,-0.333,-0.12483,0.0057288
1601,-0.017621,0.067556,0.018555,0.07512,-0.17778,-0.11266,-0.0097279
1602,-0.038997,0.055717,0.010333,0.086959,0.068871,-0.11201,-0.035051
1603,-0.055112,0.055059,-0.00019077,0.077093,0.3415,-0.12713,-0.063991
1604,-0.057085,0.058348,-0.014003,0.035656,0.54047,-0.17022,-0.094247
1605,-0.047877,0.05473,-0.028802,-0.033735,0.59572,-0.24684,-0.12779
1606,-0.037353,0.0373,-0.04393,-0.11168,0.50857,-0.34846,-0.16331
1607,-0.03538,0.012635,-0.05544,-0.1712,0.34084,-0.45797,-0.20212
1608,-0.041299,-0.0051238,-0.060373,-0.18666,0.17806,-0.55828,-0.23928
1609,-0.047877,-0.002164,-0.055112,-0.1541,0.081368,-0.62701,-0.2646
1610,-0.045574,0.017897,-0.038011,-0.087341,0.074462,-0.63523,-0.2692
1611,-0.033735,0.04026,-0.015976,-0.004466,0.13925,-0.55795,-0.25145
1612,-0.014661,0.045522,0.0040845,0.072489,0.23594,-0.38825,-0.21363
1613,0.0057288,0.026447,0.017568,0.12577,0.31651,-0.14456,-0.16364
1614,0.023159,-0.012359,0.020199,0.14681,0.34972,0.11689,-0.11497
1615,0.032038,-0.060373,0.015924,0.14122,0.32868,0.32177,-0.073199
1616,0.032367,-0.10773,0.0086887,0.12116,0.26455,0.41517,-0.041628
1617,0.027434,-0.15542,0.0030979,0.098469,0.17378,0.3836,-0.017621
1618,0.019212,-0.20376,-0.00019077,0.079724,0.077093,0.25929,-0.0011774
1619,0.010662,-0.25013,-0.002164,0.060979,-0.0064392,0.098798,0.0040845
1620,0.002769,-0.28696,-0.0074258,0.038616,-0.071555,-0.044917,-0.0041372
1621,-0.0034794,-0.3136,-0.01499,0.01132,-0.12286,-0.14489,-0.022554
1622,-0.012688,-0.32906,-0.022554,-0.014332,-0.1689,-0.20212,-0.041299
1623,-0.022554,-0.33202,-0.026171,-0.028473,-0.21593,-0.23237,-0.048534
1624,-0.030118,-0.32248,-0.025185,-0.028144,-0.26526,-0.24881,-0.038011
1625,-0.030775,-0.30242,-0.020581,-0.011372,-0.31426,-0.26131,-0.012359
1626,-0.021238,-0.2771,-0.01203,0.019212,-0.35767,-0.26559,0.021186
1627,-0.0028217,-0.24651,-0.004466,0.057361,-0.38266,-0.25835,0.05177
1628,0.018555,-0.20836,-0.0018351,0.091892,-0.37642,-0.24421,0.07512
1629,0.036971,-0.1643,-0.0038083,0.11689,-0.33333,-0.24125,0.084657
1630,0.051113,-0.11694,-0.0087413,0.12938,-0.25605,-0.2623,0.088932
1631,0.062294,-0.07287,-0.013345,0.12938,-0.15114,-0.31097,0.091563
1632,0.07216,-0.038339,-0.016305,0.11886,-0.035051,-0.37543,0.094194
1633,0.079066,-0.01499,-0.016634,0.099127,0.06065,-0.43002,0.092221
1634,0.079395,-0.0011774,-0.017621,0.07512,0.098798,-0.45501,0.082026
1635,0.070516,0.0034268,-0.022225,0.047824,0.061307,-0.44383,0.061965
1636,0.054401,-0.002164,-0.027158,0.021843,-0.028144,-0.4047,0.037629
1637,0.03434,-0.011701,-0.025514,-0.0008485,-0.10609,-0.35241,0.01132
1638,0.017568,-0.017621,-0.015648,-0.018278,-0.11135,-0.29782,-0.013345
1639,0.0057288,-0.015976,-0.0015062,-0.027487,-0.023211,-0.24026,-0.025842
1640,-0.0080836,-0.0028217,0.010662,-0.034064,0.12577,-0.17877,-0.023211
1641,-0.024198,0.017239,0.015924,-0.043601,0.27803,-0.11793,-0.010386
1642,-0.042944,0.032367,0.012635,-0.053796,0.37274,-0.064649,-0.0008485
1643,-0.063991,0.027105,0.0024402,-0.06136,0.37932,-0.028473,-0.0015062
1644,-0.085039,0.0014536,-0.0084125,-0.066951,0.29283,-0.011043,-0.010386
1645,-0.098522,-0.034722,-0.014661,-0.069582,0.14287,-0.013674,-0.024527
1646,-0.10148,-0.070568,-0.016963,-0.06728,-0.031433,-0.034393,-0.03538
1647,-0.097207,-0.09622,-0.017292,-0.065307,-0.19192,-0.067937,-0.04097
1648,-0.088656,-0.10576,-0.015319,-0.06432,-0.3067,-0.10839,-0.037024
1649,-0.076817,-0.098193,-0.0084125,-0.060373,-0.36096,-0.15081,-0.024198
1650,-0.065307,-0.07583,0.002769,-0.056098,-0.35635,-0.18304,-0.0090702
1651,-0.054783,-0.044917,0.014608,-0.055769,-0.30702,-0.19587,0.0037556
1652,-0.045903,-0.014332,0.023159,-0.060702,-0.22678,-0.18567,0.013622
1653,-0.040313,0.0080309,0.024474,-0.065635,-0.11891,-0.15213,0.021843
1654,-0.03538,0.023817,0.020199,-0.059716,0.018555,-0.088327,0.032696
1655,-0.025842,0.038944,0.013293,-0.036366,0.18661,0.0070443,0.047166
1656,-0.0087413,0.056703,0.0077021,0.0040845,0.37274,0.12577,0.068543
1657,0.013622,0.072818,0.0083598,0.051113,0.53553,0.24054,0.091234
1658,0.038287,0.083013,0.011977,0.084328,0.62367,0.31552,0.1113
1659,0.05473,0.083342,0.015266,0.087617,0.60065,0.32473,0.12675
1660,0.058676,0.076106,0.016581,0.060979,0.46943,0.27441,0.13169
1661,0.050126,0.060979,0.012635,0.018555,0.27211,0.18891,0.12281
1662,0.035985,0.039602,0.0050711,-0.024856,0.065583,0.099456,0.10406
1663,0.015924,0.020199,-0.0064392,-0.059058,-0.10707,0.035656,0.084328
1664,-0.0034794,0.0090175,-0.016305,-0.079777,-0.22974,0.01132,0.065583
1665,-0.016305,0.010991,-0.022225,-0.085696,-0.30078,0.018884,0.051441
1666,-0.019923,0.025132,-0.027158,-0.079119,-0.33037,0.042562,0.043549
1667,-0.013017,0.050126,-0.030118,-0.066293,-0.32906,0.064925,0.043549
1668,0.00046697,0.080711,-0.032749,-0.052481,-0.30045,0.078409,0.046837
1669,0.013951,0.11294,-0.032749,-0.037682,-0.25769,0.08367,0.04881
1670,0.026119,0.14418,-0.027487,-0.022554,-0.20573,0.085644,0.049468
1671,0.0373,0.17214,-0.019923,-0.011043,-0.14325,0.08959,0.050126
1672,0.045193,0.19187,-0.014003,-0.0024928,-0.063662,0.097812,0.050126
1673,0.051441,0.20502,-0.0087413,0.0047422,0.039602,0.11294,0.053415
1674,0.058019,0.21357,-0.00019077,0.012306,0.1695,0.13958,0.059663
1675,0.066898,0.2241,0.015924,0.022172,0.31519,0.18003,0.0692
1676,0.074133,0.24218,0.038287,0.035327,0.45529,0.22739,0.080053
1677,0.083999,0.27474,0.06065,0.050784,0.5625,0.26225,0.087288
1678,0.1011,0.31684,0.076764,0.068214,0.61578,0.26849,0.085315
1679,0.12609,0.35071,0.082026,0.082026,0.60493,0.23955,0.07216
1680,0.14977,0.36518,0.075449,0.088932,0.53652,0.18069,0.058019
1681,0.15602,0.35663,0.059992,0.087946,0.44937,0.10242,0.049468
1682,0.1376,0.33131,0.042562,0.087288,0.38195,0.027434,0.042891
1683,0.094852,0.29447,0.026776,0.09255,0.34249,-0.014003,0.035327
1684,0.039273,0.25238,0.015595,0.099127,0.31552,0.002769,0.026119
1685,-0.020252,0.20535,0.0057288,0.097812,0.27014,0.077093,0.015266
1686,-0.072213,0.15076,-0.0077547,0.082026,0.17312,0.1774,0.002769
1687,-0.10773,0.084657,-0.02354,0.052428,0.012306,0.26225,-0.016305
1688,-0.12319,0.0054,-0.036366,0.017239,-0.19488,0.30171,-0.04393
1689,-0.12352,-0.077475,-0.036695,-0.010057,-0.40338,0.29842,-0.07583
1690,-0.1199,-0.14983,-0.021896,-0.016634,-0.55663,0.27737,-0.1028
1691,-0.11529,-0.20376,0.0083598,-0.0008485,-0.61057,0.2606,-0.11727
1692,-0.11497,-0.25046,0.040918,0.028421,-0.55959,0.256,-0.12286
1693,-0.11266,-0.31163,0.064267,0.056046,-0.43462,0.26093,-0.12483
1694,-0.10773,-0.39417,0.070845,0.068871,-0.29091,0.26849,-0.12384
1695,-0.10609,-0.4902,0.061965,0.062952,-0.18337,0.26817,-0.12089
1696,-0.10872,-0.57472,0.047495,0.039602,-0.14851,0.25337,-0.11266
1697,-0.11233,-0.62274,0.039273,0.0044134,-0.18534,0.22081,-0.10017
1698,-0.11102,-0.6178,0.042562,-0.038668,-0.26098,0.17641,-0.083723
1699,-0.091287,-0.56321,0.052428,-0.078461,-0.3307,0.12281,-0.06728
1700,-0.053138,-0.47343,0.059334,-0.1074,-0.37707,0.06361,-0.053467
1701,-0.0064392,-0.36918,0.057032,-0.12056,-0.40799,0.0001381,-0.042615
1702,0.038287,-0.26888,0.047166,-0.12352,-0.42871,-0.069253,-0.038011
1703,0.07216,-0.18896,0.032038,-0.11135,-0.44252,-0.15673,-0.041628
1704,0.091234,-0.13897,0.015924,-0.067609,-0.46356,-0.2794,-0.055112
1705,0.092221,-0.11858,0.0011247,0.023159,-0.51158,-0.43758,-0.076159
1706,0.073804,-0.11825,-0.017621,0.14846,-0.5938,-0.61616,-0.097864
1707,0.041904,-0.12549,-0.039655,0.27441,-0.69509,-0.80164,-0.11398
1708,0.0057288,-0.13338,-0.060045,0.36913,-0.78421,-0.99304,-0.12121
1709,-0.020581,-0.13075,-0.06728,0.40958,-0.82466,-1.1772,-0.11661
1710,-0.035708,-0.11562,-0.063333,0.39215,-0.79375,-1.3252,-0.1051
1711,-0.04097,-0.094576,-0.051823,0.32637,-0.70495,-1.3778,-0.094905
1712,-0.042286,-0.077803,-0.040313,0.23199,-0.59741,-1.2726,-0.089972
1713,-0.045903,-0.078461,-0.037353,0.133,-0.50862,-0.99896,-0.082079
1714,-0.055112,-0.10148,-0.04097,0.050455,-0.44844,-0.5984,-0.064978
1715,-0.069253,-0.13864,-0.045246,-0.0077547,-0.40766,-0.14687,-0.039655
1716,-0.085367,-0.17449,-0.045246,-0.046561,-0.36721,0.27211,-0.016305
1717,-0.10214,-0.20113,-0.039326,-0.074515,-0.30308,0.59341,0.0011247
1718,-0.11924,-0.22349,-0.029131,-0.094576,-0.20672,0.78843,0.013293
1719,-0.13141,-0.2475,-0.019923,-0.10905,-0.087341,0.86046,0.023159
1720,-0.13207,-0.27184,-0.013674,-0.11825,0.034998,0.8325,0.032696
1721,-0.11628,-0.28598,-0.012688,-0.12154,0.15043,0.73779,0.044535
1722,-0.085696,-0.27907,-0.015976,-0.11825,0.25929,0.63354,0.061636
1723,-0.04985,-0.24158,-0.021238,-0.11036,0.37274,0.58881,0.080053
1724,-0.015976,-0.17449,-0.030447,-0.098193,0.49837,0.65458,0.099127
1725,0.01132,-0.094247,-0.040313,-0.082736,0.62466,0.83546,0.11787
1726,0.032367,-0.014003,-0.04689,-0.062347,0.7368,1.087,0.13695
1727,0.047495,0.05473,-0.044588,-0.035708,0.8108,1.3399,0.15372
1728,0.058676,0.1057,-0.037024,-0.0057815,0.83447,1.5392,0.16556
1729,0.06361,0.14385,-0.027158,0.02283,0.80849,1.6619,0.16983
1730,0.067556,0.17871,-0.01499,0.04881,0.74996,1.7125,0.17378
1731,0.070845,0.21686,-0.0018351,0.079066,0.67629,1.705,0.18332
1732,0.075449,0.26027,0.018555,0.1182,0.61282,1.6349,0.20239
1733,0.085644,0.30335,0.041904,0.16227,0.57796,1.486,0.2287
1734,0.10307,0.33986,0.064596,0.1991,0.5727,1.2548,0.25665
1735,0.12149,0.35926,0.076106,0.21883,0.58026,0.9749,0.27112
1736,0.12807,0.36123,0.0692,0.2162,0.57335,0.69372,0.26192
1737,0.11919,0.34808,0.041247,0.18957,0.54737,0.45529,0.23265
1738,0.10439,0.33262,-0.0024928,0.14254,0.51745,0.28231,0.19647
1739,0.093208,0.32276,-0.046232,0.083342,0.50495,0.16654,0.16326
1740,0.084657,0.32933,-0.071555,0.024145,0.51778,0.068214,0.13596
1741,0.077422,0.34972,-0.071555,-0.02354,0.53718,-0.052152,0.11393
1742,0.071502,0.37702,-0.051165,-0.056098,0.52435,-0.21987,0.096825
1743,0.06624,0.39774,-0.018278,-0.076488,0.45957,-0.42542,0.076106
1744,0.063281,0.40826,0.01691,-0.091287,0.35236,-0.63392,0.053743
1745,0.06361,0.4053,0.049468,-0.10247,0.23429,-0.80888,0.029078
1746,0.064925,0.39478,0.068543,-0.1051,0.13136,-0.93648,0.0050711
1747,0.066569,0.38228,0.0692,-0.099838,0.046508,-1.017,-0.013345
1748,0.071831,0.3734,0.054072,-0.091945,-0.035051,-1.0509,-0.024527
1749,0.082026,0.36847,0.032696,-0.09326,-0.13207,-1.044,-0.028473
1750,0.088603,0.36518,0.010004,-0.11365,-0.26328,-1.0187,-0.032749
1751,0.091563,0.36025,-0.0061104,-0.1495,-0.4389,-0.99797,-0.04097
1752,0.086959,0.34907,-0.018607,-0.19652,-0.65299,-0.99699,-0.052152
1753,0.073476,0.32374,-0.028473,-0.2475,-0.87728,-1.0147,-0.057085
1754,0.054401,0.28296,-0.033735,-0.29518,-1.0674,-1.0397,-0.054454
1755,0.038944,0.23298,-0.035051,-0.33037,-1.1815,-1.0539,-0.051823
1756,0.031381,0.17674,-0.028473,-0.34287,-1.1907,-1.046,-0.047219
1757,0.031709,0.12116,-0.014661,-0.3261,-1.0799,-1.0131,-0.038997
1758,0.038944,0.073147,0.0077021,-0.2692,-0.85393,-0.95193,-0.023211
1759,0.052099,0.045522,0.039602,-0.1643,-0.55499,-0.86248,0.00079584
1760,0.066569,0.044206,0.081039,-0.0084125,-0.24125,-0.7431,0.027763
1761,0.07512,0.068543,0.12511,0.18069,0.05769,-0.59413,0.046508
1762,0.079066,0.10439,0.16128,0.36321,0.33657,-0.41456,0.048482
1763,0.081697,0.14024,0.17904,0.49771,0.58454,-0.21231,0.035656
1764,0.08663,0.16589,0.17246,0.56053,0.77133,-0.013345,0.015595
1765,0.092879,0.17378,0.13892,0.55296,0.86341,0.15503,-0.0047949
1766,0.099127,0.16161,0.084657,0.48752,0.84533,0.27112,-0.019923
1767,0.097812,0.13234,0.026776,0.38656,0.72595,0.32835,-0.027158
1768,0.084328,0.087946,-0.022554,0.27376,0.54112,0.33295,-0.028473
1769,0.061307,0.033025,-0.055112,0.16918,0.33657,0.30335,-0.030775
1770,0.032038,-0.027158,-0.071884,0.086959,0.14813,0.25337,-0.043272
1771,0.0001381,-0.092603,-0.080106,0.028421,-0.0087413,0.18989,-0.069582
1772,-0.036037,-0.16594,-0.0903,-0.011701,-0.12746,0.1182,-0.10641
1773,-0.080106,-0.24717,-0.10609,-0.042944,-0.19652,0.052757,-0.14193
1774,-0.12516,-0.32248,-0.11957,-0.07024,-0.19718,0.013293,-0.16561
1775,-0.15969,-0.37806,-0.12089,-0.095891,-0.11727,0.016253,-0.17022
1776,-0.17022,-0.40601,-0.10444,-0.11332,0.029736,0.062623,-0.15476
1777,-0.15673,-0.40766,-0.069253,-0.11562,0.20897,0.13136,-0.12319
1778,-0.12615,-0.3899,-0.010057,-0.095233,0.38491,0.18759,-0.087998
1779,-0.092603,-0.36556,0.067227,-0.050507,0.52665,0.20338,-0.057414
1780,-0.068595,-0.34682,0.14944,0.0077021,0.61972,0.17148,-0.034064
1781,-0.062676,-0.34846,0.21456,0.063938,0.65458,0.1034,-0.026829
1782,-0.074186,-0.3728,0.24712,0.10768,0.63419,0.023488,-0.033406
1783,-0.091616,-0.40601,0.24218,0.13169,0.57631,-0.041957,-0.042286
1784,-0.10346,-0.4241,0.20469,0.13169,0.49344,-0.069911,-0.045903
