,channel_1,channel_2,channel_3,channel_4,channel_5,channel_6,channel_7
0,0.024474,-0.035708,0.019212,0.15997,0.011977,0.17345,0.040589
1,0.021186,-0.043272,0.035985,0.15109,0.015924,0.34117,0.039273
2,0.013622,-0.05544,0.07512,0.13596,0.035327,0.49574,0.042233
3,0.0050711,-0.063333,0.12741,0.12281,0.077422,0.62992,0.050455
4,-0.0011774,-0.063991,0.17214,0.11623,0.14089,0.74897,0.061636
5,-0.0024928,-0.056756,0.19417,0.11656,0.21752,0.86703,0.070187
6,0.0034268,-0.045903,0.1922,0.11886,0.29415,0.99661,0.076764
7,0.01691,-0.034393,0.17246,0.12215,0.3517,1.1295,0.081697
8,0.028092,-0.028802,0.14056,0.12313,0.37209,1.2364,0.086959
9,0.033683,-0.03242,0.099456,0.12083,0.35104,1.285,0.093536
10,0.032038,-0.04097,0.049139,0.11557,0.30007,1.2544,0.095839
11,0.025461,-0.051823,-0.0093991,0.10965,0.23462,1.1558,0.092221
12,0.017239,-0.063004,-0.065964,0.10077,0.17575,1.0305,0.079724
13,0.010333,-0.071555,-0.10905,0.085972,0.13826,0.93642,0.059663
14,0.0073732,-0.073199,-0.13009,0.070516,0.12346,0.91932,0.041247
15,0.0077021,-0.067609,-0.12845,0.055388,0.12281,0.9874,0.030723
16,0.010991,-0.056427,-0.11266,0.041904,0.12346,1.0959,0.03434
17,0.014608,-0.042615,-0.0903,0.032696,0.10636,1.1745,0.046837
18,0.015924,-0.026829,-0.06728,0.02579,0.065254,1.1735,0.05769
19,0.014608,-0.014003,-0.048205,0.017897,0.013293,1.0772,0.056703
20,0.015924,-0.0038083,-0.031433,0.015924,-0.026829,0.90452,0.041904
21,0.018884,0.0044134,-0.015648,0.01987,-0.039984,0.69503,0.018884
22,0.024803,0.012964,-0.0047949,0.023817,-0.031104,0.48686,-0.0047949
23,0.029407,0.021843,-0.0051238,0.017239,-0.015976,0.30697,-0.021567
24,0.029078,0.028421,-0.01203,-0.00051963,-0.0067681,0.16063,-0.024856
25,0.023159,0.03434,-0.021238,-0.022225,-0.007097,0.045193,-0.019265
26,0.0096753,0.041575,-0.029131,-0.041957,-0.016305,-0.046561,-0.013674
27,-0.0077547,0.051113,-0.034064,-0.057085,-0.028802,-0.1199,-0.010057
28,-0.024198,0.061636,-0.03538,-0.065635,-0.038339,-0.18666,-0.0067681
29,-0.039326,0.071502,-0.034064,-0.063991,-0.043601,-0.25276,-0.0018351
30,-0.04689,0.079066,-0.030118,-0.059387,-0.044259,-0.31919,0.0024402
31,-0.044917,0.082355,-0.025514,-0.05544,-0.043272,-0.37905,0.0034268
32,-0.034064,0.084657,-0.021238,-0.053138,-0.037682,-0.4241,0.0024402
33,-0.019923,0.086301,-0.017621,-0.048534,-0.025514,-0.45205,-0.0031506
34,-0.0061104,0.08959,-0.015648,-0.037024,-0.0057815,-0.46324,-0.0084125
35,0.0017824,0.094194,-0.013017,-0.016963,0.023817,-0.46554,-0.0084125
36,0.0037556,0.099785,-0.0097279,0.0047422,0.053415,-0.45929,-0.0011774
37,0.0030979,0.10603,-0.0051238,0.021514,0.065254,-0.44778,0.014608
38,0.0014536,0.1113,-0.0018351,0.026119,0.052099,-0.42969,0.031381
39,0.0021113,0.11689,0.002769,0.020528,0.015266,-0.40536,0.044206
40,0.0040845,0.12313,0.0034268,0.0054,-0.030775,-0.37444,0.049797
41,0.0070443,0.1284,0.0011247,-0.018278,-0.071555,-0.34123,0.049139
42,0.012306,0.12938,-0.002164,-0.044917,-0.094905,-0.3067,0.047824
43,0.018884,0.12478,-0.007097,-0.071555,-0.096878,-0.26657,0.050784
44,0.025461,0.11491,-0.01203,-0.088656,-0.071884,-0.22053,0.053743
45,0.031709,0.10538,-0.014003,-0.088985,-0.020909,-0.17712,0.052757
46,0.033354,0.096496,-0.013017,-0.072542,0.040918,-0.14752,0.045522
47,0.027763,0.088932,-0.010386,-0.04689,0.096167,-0.13864,0.0373
48,0.016253,0.084986,-0.0084125,-0.021567,0.1284,-0.14588,0.026447
49,0.0034268,0.078409,-0.007097,-0.0054526,0.13037,-0.16166,0.010004
50,-0.007097,0.067885,-0.007097,-0.0024928,0.10538,-0.17844,-0.0090702
51,-0.01499,0.055717,-0.0097279,-0.010386,0.067885,-0.19291,-0.020252
52,-0.021896,0.04322,-0.013017,-0.024198,0.030723,-0.20475,-0.018607
53,-0.027158,0.032367,-0.013674,-0.037682,0.0070443,-0.21132,-0.011701
54,-0.028473,0.024474,-0.015319,-0.045574,0.0070443,-0.21132,-0.0034794
55,-0.02354,0.020528,-0.015648,-0.045246,0.031052,-0.20639,0.0057288
56,-0.015976,0.01987,-0.014003,-0.038668,0.063938,-0.20277,0.013293
57,-0.0090702,0.020528,-0.011372,-0.030447,0.087617,-0.20606,0.018555
58,-0.0061104,0.019212,-0.0051238,-0.024198,0.091892,-0.21494,0.023817
59,-0.0061104,0.014608,0.0011247,-0.026829,0.072489,-0.22251,0.025461
60,-0.0034794,0.0054,0.0054,-0.036037,0.033025,-0.22448,0.021186
61,0.0021113,-0.0074258,0.0054,-0.048205,-0.019594,-0.21856,0.010004
62,0.010991,-0.023869,0.0060577,-0.056756,-0.077475,-0.20902,-0.0041372
63,0.013622,-0.041957,0.0060577,-0.056098,-0.12878,-0.20705,-0.015648
64,0.0090175,-0.057743,0.0037556,-0.044259,-0.16824,-0.2179,-0.020909
65,0.00079584,-0.068266,0.00079584,-0.024527,-0.19291,-0.23303,-0.020252
66,-0.0080836,-0.072213,-0.0041372,-0.0047949,-0.20113,-0.23467,-0.015319
67,-0.020909,-0.070897,-0.010386,0.0090175,-0.19784,-0.21659,-0.013674
68,-0.033406,-0.066951,-0.014003,0.015595,-0.18271,-0.18271,-0.015319
69,-0.037024,-0.064649,-0.013345,0.017897,-0.15443,-0.1416,-0.021238
70,-0.027158,-0.069582,-0.011372,0.016253,-0.11168,-0.099509,-0.025185
71,-0.0093991,-0.07879,-0.0054526,0.0096753,-0.065307,-0.06136,-0.027158
72,0.0047422,-0.08175,0.002769,0.0017824,-0.025514,-0.028802,-0.02946
73,0.012306,-0.076488,0.010333,-0.0024928,0.0001381,-0.0041372,-0.039326
74,0.018226,-0.065307,0.014608,0.0014536,0.019212,0.010004,-0.05544
75,0.020857,-0.054454,0.01691,0.01691,0.035656,0.013951,-0.070568
76,0.017568,-0.053796,0.018226,0.041247,0.052099,0.010333,-0.080763
77,0.0096753,-0.063004,0.017239,0.068214,0.06624,0.0037556,-0.086025
78,-0.00051963,-0.074186,0.012635,0.086959,0.072818,0.00079584,-0.087012
79,-0.0057815,-0.081092,0.0054,0.092221,0.068543,0.0067154,-0.086025
80,-0.0054526,-0.082736,-0.0008485,0.082355,0.054072,0.016253,-0.078132
81,0.00079584,-0.080106,-0.0047949,0.064596,0.033025,0.023817,-0.063991
82,0.0093464,-0.078461,-0.0047949,0.045522,0.015924,0.02579,-0.048534
83,0.012964,-0.082079,-0.0054526,0.030723,0.014937,0.027434,-0.037353
84,0.011977,-0.09326,-0.0051238,0.021843,0.032038,0.033025,-0.034064
85,0.0077021,-0.10609,-0.0011774,0.017568,0.061965,0.051113,-0.038011
86,0.0037556,-0.11365,0.0047422,0.016253,0.10044,0.084986,-0.045903
87,0.0054,-0.10576,0.0063866,0.015924,0.14056,0.13004,-0.053467
88,0.012306,-0.087669,0.0057288,0.018555,0.17378,0.17411,-0.055112
89,0.020528,-0.06432,0.0030979,0.02579,0.19088,0.20272,-0.048863
90,0.021843,-0.04689,-0.00019077,0.033683,0.18365,0.21028,-0.038997
91,0.017568,-0.037682,-0.002164,0.039931,0.15372,0.19746,-0.032749
92,0.0093464,-0.038011,-0.00019077,0.041247,0.10801,0.16326,-0.032091
93,0.0021113,-0.04393,0.0057288,0.041904,0.056703,0.10965,-0.034722
94,-0.0024928,-0.049521,0.012306,0.044535,0.0083598,0.044206,-0.04097
95,-0.004466,-0.055769,0.012635,0.050126,-0.028473,-0.02354,-0.048863
96,-0.0024928,-0.060373,0.0077021,0.054072,-0.051823,-0.077803,-0.056756
97,0.0011247,-0.06136,0.00046697,0.05473,-0.063004,-0.11299,-0.059058
98,0.0040845,-0.053138,-0.0061104,0.053743,-0.06728,-0.1268,-0.051165
99,0.0054,-0.038339,-0.010386,0.047166,-0.069582,-0.11793,-0.034064
100,0.0047422,-0.021896,-0.011372,0.04026,-0.072213,-0.094247,-0.014003
101,0.00079584,-0.0077547,-0.0077547,0.036314,-0.073857,-0.069582,0.0021113
102,-0.0034794,0.0040845,-0.0015062,0.036314,-0.07287,-0.052152,0.013951
103,-0.0077547,0.012306,0.0034268,0.034011,-0.071226,-0.038011,0.01987
104,-0.0074258,0.017239,0.0093464,0.023817,-0.07879,-0.019923,0.021186
105,-0.0028217,0.020528,0.017568,0.0073732,-0.091287,0.0040845,0.018884
106,0.0083598,0.026447,0.029078,-0.0084125,-0.10148,0.033683,0.018555
107,0.020857,0.04026,0.038287,-0.017292,-0.10543,0.058676,0.021843
108,0.029407,0.059334,0.042233,-0.021238,-0.10214,0.076764,0.027105
109,0.028092,0.07808,0.038287,-0.022225,-0.090629,0.086959,0.035656
110,0.018555,0.092221,0.02579,-0.024856,-0.076488,0.09551,0.042562
111,0.0063866,0.099127,0.010333,-0.034393,-0.063333,0.10899,0.047824
112,-0.002164,0.10143,0.0021113,-0.052481,-0.054783,0.13169,0.051441
113,-0.0067681,0.10143,0.0040845,-0.071884,-0.042286,0.1695,0.057361
114,-0.0028217,0.10406,0.015595,-0.086683,-0.016963,0.2264,0.068214
115,0.0073732,0.11228,0.029078,-0.086683,0.020528,0.30401,0.079724
116,0.016581,0.12445,0.040589,-0.077475,0.057032,0.3905,0.089919
117,0.022501,0.13859,0.046508,-0.070897,0.083342,0.45924,0.096825
118,0.02579,0.15175,0.044206,-0.06728,0.085644,0.48259,0.10242
119,0.022501,0.15799,0.033683,-0.066622,0.057361,0.44773,0.10768
120,0.012306,0.15569,0.019541,-0.06728,0.010333,0.36387,0.10998
121,-0.004466,0.14451,0.0063866,-0.070568,-0.034722,0.25369,0.10538
122,-0.021238,0.12905,-0.0077547,-0.073528,-0.064649,0.13859,0.094852
123,-0.031104,0.10866,-0.020581,-0.07583,-0.081421,0.037958,0.080382
124,-0.030118,0.087946,-0.028802,-0.077475,-0.091616,-0.02946,0.06624
125,-0.019923,0.071173,-0.031433,-0.076488,-0.094247,-0.059058,0.059663
126,-0.0064392,0.056703,-0.027816,-0.070568,-0.087341,-0.058729,0.060321
127,0.002769,0.048482,-0.018936,-0.059387,-0.06728,-0.045246,0.065254
128,0.0057288,0.048482,-0.0067681,-0.041628,-0.028802,-0.033735,0.071831
129,0.0034268,0.055388,0.0073732,-0.013674,0.024474,-0.030447,0.077751
130,-0.0034794,0.064267,0.01987,0.022172,0.079724,-0.034393,0.079066
131,-0.013017,0.067885,0.028092,0.057032,0.12478,-0.045246,0.072818
132,-0.023869,0.067556,0.032696,0.079395,0.14879,-0.059387,0.06065
133,-0.030447,0.062952,0.034011,0.085644,0.14648,-0.077146,0.040589
134,-0.034064,0.055717,0.029736,0.073476,0.10998,-0.092931,0.021843
135,-0.035708,0.043877,0.01987,0.04618,0.044864,-0.10411,0.0096753
136,-0.034393,0.031709,0.0054,0.014279,-0.033735,-0.11266,0.0021113
137,-0.033078,0.02283,-0.010057,-0.013345,-0.10609,-0.12746,-0.0061104
138,-0.037024,0.020199,-0.020252,-0.032091,-0.15575,-0.15246,-0.013345
139,-0.045903,0.017568,-0.022554,-0.038668,-0.17318,-0.18567,-0.01795
140,-0.054783,0.010991,-0.020909,-0.033735,-0.15377,-0.21987,-0.021238
141,-0.057414,0.0001381,-0.016963,-0.013674,-0.09918,-0.24059,-0.030775
142,-0.054783,-0.011043,-0.010057,0.018226,-0.021896,-0.23763,-0.039984
143,-0.048534,-0.019594,0.0001381,0.055059,0.052099,-0.21626,-0.044917
144,-0.038011,-0.025842,0.0073732,0.082355,0.096496,-0.186,-0.039655
145,-0.023211,-0.027487,0.011977,0.094523,0.10472,-0.1495,-0.024856
146,-0.0077547,-0.029789,0.016581,0.092221,0.081368,-0.10378,-0.0077547
147,0.0054,-0.032091,0.018884,0.082355,0.044206,-0.049192,0.0037556
148,0.011648,-0.03242,0.018555,0.069529,0.015266,0.0080309,0.0067154
149,0.0093464,-0.02946,0.015266,0.059005,0.002769,0.058019,0.0034268
150,0.0017824,-0.030447,0.012964,0.05473,0.010004,0.099127,0.0017824
151,-0.0028217,-0.037024,0.012635,0.057032,0.029078,0.13399,0.0060577
152,-0.002164,-0.046561,0.014608,0.066898,0.047495,0.16293,0.012635
153,0.0014536,-0.052152,0.01691,0.078737,0.055388,0.18759,0.018226
154,0.0067154,-0.051494,0.020528,0.087946,0.05473,0.21061,0.020528
155,0.0093464,-0.049192,0.022172,0.092879,0.047824,0.22969,0.016253
156,0.01132,-0.051823,0.019541,0.096496,0.037629,0.231,0.010662
157,0.019212,-0.063004,0.01132,0.097154,0.021514,0.18792,0.0044134
158,0.027763,-0.077146,0.0014536,0.094523,0.0021113,0.080382,-0.00051963
159,0.033354,-0.085039,-0.0061104,0.087288,-0.015648,-0.076488,-0.0028217
160,0.030394,-0.083723,-0.0074258,0.080053,-0.022554,-0.23796,-0.00019077
161,0.021843,-0.074186,-0.0024928,0.079395,-0.013017,-0.35043,0.0011247
162,0.015924,-0.061031,0.011648,0.086959,0.010004,-0.38365,0.00046697
163,0.018555,-0.055112,0.027763,0.099127,0.036642,-0.34353,0.0017824
164,0.030394,-0.059387,0.039931,0.11228,0.059663,-0.26427,0.0030979
165,0.046508,-0.069911,0.04618,0.12412,0.075778,-0.18271,0.0014536
166,0.058019,-0.083065,0.049797,0.13037,0.091234,-0.12812,-0.0051238
167,0.06065,-0.089972,0.048153,0.133,0.11228,-0.11431,-0.013345
168,0.052428,-0.089314,0.044206,0.12873,0.1353,-0.13799,-0.01795
169,0.039273,-0.083065,0.038287,0.11689,0.15043,-0.18797,-0.018936
170,0.027763,-0.07287,0.031709,0.097154,0.14944,-0.24849,-0.017292
171,0.021514,-0.060045,0.02579,0.071502,0.12675,-0.30702,-0.014661
172,0.02283,-0.049192,0.018555,0.04881,0.09255,-0.36688,-0.013017
173,0.027763,-0.042286,0.012306,0.036314,0.05473,-0.42607,-0.010057
174,0.032038,-0.039326,0.0073732,0.035985,0.021843,-0.48297,-0.002164
175,0.034669,-0.037353,0.0073732,0.044535,0.002769,-0.53855,0.015266
176,0.035327,-0.034722,0.0096753,0.053743,-0.0028217,-0.57209,0.036642
177,0.033354,-0.030775,0.010004,0.05769,0.00046697,-0.53953,0.053086
178,0.027763,-0.025185,0.0060577,0.04881,0.0077021,-0.39549,0.059334
179,0.022172,-0.016963,-0.0018351,0.030394,0.016253,-0.10839,0.063281
180,0.018555,-0.0047949,-0.011043,0.011648,0.026776,0.34413,0.069529
181,0.018226,0.010333,-0.018278,0.0011247,0.035327,0.94728,0.082684
182,0.018226,0.025132,-0.021238,0.0017824,0.034011,1.605,0.10143
183,0.019212,0.0373,-0.019923,0.0077021,0.018555,2.1522,0.12478
184,0.022172,0.044864,-0.016305,0.013293,-0.0074258,2.4305,0.14484
185,0.026776,0.049468,-0.014332,0.013951,-0.036037,2.369,0.15372
186,0.031052,0.050455,-0.016634,0.0090175,-0.060373,2.0039,0.14484
187,0.035327,0.052099,-0.02354,-0.0028217,-0.077803,1.4583,0.12182
188,0.034669,0.059005,-0.02946,-0.016963,-0.090629,0.88052,0.095839
189,0.026447,0.072489,-0.033735,-0.036037,-0.10082,0.39215,0.069858
190,0.015595,0.090577,-0.03538,-0.054783,-0.11201,0.048153,0.050784
191,0.010004,0.10932,-0.036366,-0.069253,-0.12352,-0.15509,0.041575
192,0.0077021,0.12379,-0.038997,-0.077475,-0.13371,-0.25572,0.040589
193,0.0054,0.13267,-0.04097,-0.084052,-0.14062,-0.3011,0.038616
194,0.00079584,0.14089,-0.040313,-0.091287,-0.14752,-0.33465,0.027434
195,-0.0041372,0.14747,-0.033735,-0.094905,-0.15344,-0.37444,0.010004
196,-0.010715,0.15438,-0.024856,-0.089972,-0.15575,-0.41719,-0.0077547
197,-0.021238,0.15964,-0.018607,-0.081092,-0.14851,-0.45205,-0.016305
198,-0.031104,0.15997,-0.017621,-0.070897,-0.13634,-0.47672,-0.013674
199,-0.03538,0.15438,-0.020581,-0.065635,-0.12023,-0.49645,-0.0031506
200,-0.034722,0.14747,-0.027816,-0.065635,-0.10872,-0.51783,0.010662
201,-0.033078,0.14517,-0.036695,-0.07287,-0.1074,-0.54216,0.02283
202,-0.031104,0.14747,-0.042944,-0.085696,-0.1176,-0.56321,0.027763
203,-0.025514,0.15339,-0.043601,-0.096878,-0.13207,-0.57012,0.025461
204,-0.01795,0.15635,-0.040641,-0.10115,-0.14358,-0.5642,0.019541
205,-0.011701,0.15175,-0.036366,-0.097864,-0.14588,-0.5471,0.0096753
206,-0.0077547,0.13728,-0.032091,-0.091616,-0.13503,-0.52408,-0.0031506
207,-0.0061104,0.11919,-0.027816,-0.086025,-0.11464,-0.50862,-0.0090702
208,-0.0074258,0.10406,-0.022225,-0.084052,-0.097207,-0.51322,-0.0064392
209,-0.012688,0.094194,-0.015648,-0.084052,-0.091287,-0.53789,-0.0031506
210,-0.019265,0.089261,-0.014332,-0.090629,-0.10411,-0.57604,-0.0047949
211,-0.027487,0.085972,-0.019923,-0.10576,-0.13272,-0.62603,-0.011701
212,-0.03242,0.082684,-0.030775,-0.12417,-0.1643,-0.68621,-0.01795
213,-0.034064,0.076435,-0.040313,-0.13864,-0.18501,-0.74113,-0.020252
214,-0.030118,0.070516,-0.042615,-0.14489,-0.18962,-0.77007,-0.023869
215,-0.026171,0.063938,-0.036695,-0.14555,-0.17942,-0.76152,-0.03242
216,-0.0265,0.057361,-0.024527,-0.14456,-0.15903,-0.71318,-0.044917
217,-0.025842,0.052099,-0.012359,-0.14621,-0.12746,-0.63721,-0.056427
218,-0.021896,0.044535,-0.0038083,-0.14456,-0.085696,-0.54611,-0.066622
219,-0.014332,0.032367,-0.0051238,-0.13338,-0.039984,-0.45008,-0.069253
220,-0.0093991,0.01691,-0.01203,-0.1097,0.0073732,-0.35011,-0.063004
221,-0.0038083,0.0034268,-0.018278,-0.076817,0.053743,-0.24125,-0.046561
222,0.0044134,-0.0011774,-0.016963,-0.04689,0.1057,-0.12648,-0.0265
223,0.013622,-0.00019077,-0.010715,-0.02354,0.15865,-0.022554,-0.010715
224,0.017239,0.0014536,-0.0061104,-0.0024928,0.20535,0.052428,-0.0028217
225,0.015924,0.00046697,-0.0034794,0.017239,0.23922,0.090248,0.0014536
226,0.011648,-0.0034794,-0.0047949,0.036314,0.25698,0.098469,0.0067154
227,0.0090175,-0.010715,-0.0057815,0.057361,0.2606,0.096496,0.014608
228,0.0044134,-0.016305,-0.0038083,0.081697,0.25665,0.1136,0.023488
229,-0.0011774,-0.019594,0.0037556,0.10801,0.25337,0.17773,0.033354
230,-0.0061104,-0.017292,0.011977,0.13037,0.25271,0.29447,0.039931
231,-0.0061104,-0.01203,0.017239,0.14155,0.24975,0.45003,0.039602
232,0.0014536,-0.007097,0.018555,0.13793,0.24416,0.6263,0.032038
233,0.016581,-0.010715,0.014937,0.12248,0.2435,0.80488,0.025132
234,0.032038,-0.019594,0.0080309,0.10439,0.25369,0.96799,0.022172
235,0.042233,-0.027816,0.002769,0.093865,0.27507,1.0976,0.022501
236,0.043549,-0.036366,0.002769,0.091234,0.29678,1.1768,0.026447
237,0.037958,-0.04393,0.0060577,0.094194,0.31026,1.191,0.033354
238,0.030394,-0.050836,0.013951,0.099456,0.30631,1.1308,0.033683
239,0.023488,-0.054454,0.023488,0.10636,0.27935,0.99398,0.030394
240,0.021843,-0.05544,0.034669,0.11327,0.23298,0.79074,0.02579
241,0.026776,-0.060702,0.042891,0.11853,0.17575,0.54441,0.025132
242,0.033025,-0.067937,0.046837,0.11787,0.11656,0.28625,0.025461
243,0.036642,-0.076488,0.045851,0.11097,0.064596,0.042233,0.025132
244,0.03434,-0.084381,0.039931,0.098141,0.025461,-0.16726,0.018884
245,0.027434,-0.091287,0.032038,0.085315,-0.0051238,-0.33268,0.0044134
246,0.01987,-0.10017,0.025461,0.076764,-0.036366,-0.45041,-0.013345
247,0.014608,-0.10378,0.024474,0.074791,-0.068266,-0.52013,-0.030775
248,0.014937,-0.10082,0.026119,0.076435,-0.092274,-0.54611,-0.042286
249,0.014279,-0.094905,0.028092,0.080382,-0.10148,-0.53065,-0.049521
250,0.010662,-0.086025,0.026776,0.082355,-0.09622,-0.47771,-0.053796
251,0.0060577,-0.078132,0.02283,0.082026,-0.08175,-0.39812,-0.055112
252,0.0086887,-0.07024,0.013951,0.079066,-0.068595,-0.30275,-0.056098
253,0.014608,-0.063004,-0.0034794,0.074133,-0.060373,-0.20475,-0.056098
254,0.013951,-0.060373,-0.027816,0.067556,-0.05544,-0.11858,-0.055769
255,0.0017824,-0.063333,-0.056756,0.062623,-0.054454,-0.05544,-0.057743
256,-0.015648,-0.071555,-0.086354,0.058348,-0.058729,-0.01795,-0.06432
257,-0.028144,-0.077803,-0.11003,0.058348,-0.066293,-0.0008485,-0.068595
258,-0.033078,-0.081092,-0.12549,0.061636,-0.081092,-0.0077547,-0.072213
259,-0.032749,-0.078461,-0.1324,0.066898,-0.10707,-0.045246,-0.068266
260,-0.028473,-0.073528,-0.13141,0.066569,-0.14391,-0.1051,-0.060045
261,-0.022225,-0.067609,-0.12352,0.059334,-0.18041,-0.16495,-0.048205
262,-0.018278,-0.0584,-0.11036,0.047495,-0.20212,-0.20672,-0.038011
263,-0.015319,-0.044917,-0.092931,0.034669,-0.20277,-0.21691,-0.033406
264,-0.012359,-0.030775,-0.07583,0.021514,-0.18699,-0.17745,-0.032091
265,-0.012688,-0.022883,-0.059387,0.010004,-0.15903,-0.080106,-0.028802
266,-0.015648,-0.021238,-0.044917,-0.0011774,-0.12384,0.074462,-0.01795
267,-0.016634,-0.019923,-0.030118,-0.0084125,-0.082408,0.26521,0.0021113
268,-0.013017,-0.015648,-0.0077547,-0.010386,-0.037024,0.44641,0.027105
269,-0.002164,-0.0061104,0.024145,-0.0077547,0.0060577,0.56875,0.050126
270,0.013622,0.0083598,0.063281,-0.0015062,0.041247,0.60197,0.063938
271,0.031381,0.026447,0.10077,0.0073732,0.063281,0.54737,0.066569
272,0.043877,0.047824,0.1353,0.01132,0.067556,0.4372,0.065254
273,0.045522,0.066898,0.16819,0.0063866,0.051441,0.31125,0.065912
274,0.037958,0.079724,0.20173,-0.0097279,0.014937,0.19055,0.071831
275,0.029078,0.084986,0.23298,-0.033078,-0.038997,0.079395,0.07512
276,0.020857,0.083999,0.25863,-0.058729,-0.10017,-0.020909,0.06624
277,0.014279,0.082355,0.27639,-0.078132,-0.16035,-0.11135,0.039273
278,0.01132,0.087617,0.28658,-0.094247,-0.20968,-0.1962,0.0040845
279,0.010004,0.10176,0.29743,-0.10378,-0.24125,-0.26986,-0.023869
280,0.0070443,0.12083,0.31454,-0.10576,-0.24717,-0.32807,-0.03538
281,0.0054,0.13596,0.3415,-0.096878,-0.23336,-0.36589,-0.028802
282,0.0037556,0.14024,0.36387,-0.077146,-0.20475,-0.38003,-0.007097
283,-0.00019077,0.13497,0.36156,-0.053796,-0.16561,-0.37642,0.018226
284,-0.0084125,0.12281,0.32013,-0.027816,-0.11332,-0.36589,0.036642
285,-0.016963,0.10669,0.24514,-0.0011774,-0.04689,-0.358,0.047166
286,-0.022225,0.095839,0.15076,0.026119,0.027105,-0.35241,0.047824
287,-0.018936,0.091563,0.051113,0.052428,0.098141,-0.34287,0.043877
288,-0.0084125,0.091234,-0.034722,0.072818,0.15898,-0.32347,0.04026
289,0.0030979,0.08663,-0.099838,0.08367,0.20371,-0.28927,0.035985
290,0.0096753,0.074791,-0.1416,0.083013,0.23002,-0.24289,0.029078
291,0.0093464,0.055059,-0.16265,0.067885,0.23791,-0.19488,0.019212
292,0.0073732,0.033354,-0.16594,0.039602,0.22804,-0.1564,0.012635
293,0.010991,0.013622,-0.1564,0.010991,0.20042,-0.1347,0.013622
294,0.023817,-0.0008485,-0.13996,-0.0074258,0.16293,-0.12384,0.018884
295,0.034998,-0.0084125,-0.12384,-0.012359,0.12215,-0.11825,0.020199
296,0.037629,-0.011372,-0.11201,-0.007097,0.085972,-0.10444,0.018226
297,0.031052,-0.013674,-0.10346,-0.00051963,0.055717,-0.075501,0.016581
298,0.018884,-0.016305,-0.09622,0.00046697,0.032367,-0.030775,0.01691
299,0.0060577,-0.021567,-0.091945,-0.0015062,0.014937,0.0093464,0.016581
300,-0.0018351,-0.032749,-0.091945,-0.0051238,0.00046697,0.024803,0.01132
301,-0.0028217,-0.045246,-0.094576,-0.0031506,-0.016305,0.0073732,0.00046697
302,0.0001381,-0.05544,-0.095562,0.0040845,-0.029789,-0.03242,-0.0093991
303,0.0090175,-0.059058,-0.094247,0.014937,-0.038668,-0.073199,-0.01795
304,0.021843,-0.054783,-0.091287,0.019541,-0.041957,-0.1005,-0.022883
305,0.032367,-0.04985,-0.088656,0.010991,-0.044259,-0.11266,-0.023869
306,0.033354,-0.047548,-0.086025,-0.011372,-0.048534,-0.11595,-0.022883
307,0.023159,-0.054454,-0.084052,-0.038339,-0.055769,-0.11299,-0.019594
308,0.0077021,-0.07024,-0.082736,-0.054125,-0.063004,-0.10378,-0.016963
309,-0.0064392,-0.087998,-0.081421,-0.053796,-0.066622,-0.085039,-0.017621
310,-0.01499,-0.10181,-0.079777,-0.036366,-0.064978,-0.063991,-0.024527
311,-0.014661,-0.10674,-0.07583,-0.011701,-0.061031,-0.045903,-0.036037
312,-0.010715,-0.1005,-0.071884,0.010662,-0.059716,-0.033735,-0.045903
313,-0.0041372,-0.088985,-0.067609,0.029078,-0.059058,-0.028802,-0.04985
314,0.0001381,-0.079119,-0.064978,0.043877,-0.058729,-0.027816,-0.047219
315,0.0030979,-0.074186,-0.062347,0.05769,-0.056756,-0.02354,-0.04393
316,0.0047422,-0.072213,-0.059387,0.065912,-0.054454,-0.014661,-0.04393
317,0.0040845,-0.071555,-0.0584,0.070187,-0.053138,-0.002164,-0.042615
318,0.0021113,-0.071884,-0.056427,0.069529,-0.05281,0.018226,-0.034064
319,0.002769,-0.073857,-0.053467,0.065254,-0.054125,0.039273,-0.022225
320,0.0054,-0.076817,-0.054125,0.061636,-0.053138,0.04881,-0.015976
321,0.0073732,-0.08175,-0.056098,0.05473,-0.051165,0.042891,-0.015976
322,0.0054,-0.084052,-0.055769,0.045193,-0.042944,0.032696,-0.01795
323,0.0030979,-0.082408,-0.052481,0.035985,-0.027158,0.027763,-0.019923
324,0.0060577,-0.07879,-0.051165,0.035656,-0.0047949,0.035985,-0.023869
325,0.012306,-0.077475,-0.05281,0.043549,0.02579,0.057032,-0.021896
326,0.018884,-0.079119,-0.055769,0.057032,0.060321,0.080382,-0.015976
327,0.021843,-0.07879,-0.057414,0.067227,0.085644,0.097483,-0.011701
328,0.023159,-0.077803,-0.054125,0.0692,0.093536,0.10439,-0.011701
329,0.02579,-0.076817,-0.043601,0.058348,0.082355,0.10636,-0.01203
330,0.029407,-0.077475,-0.032091,0.038287,0.055717,0.10472,-0.01203
331,0.02875,-0.075501,-0.026171,0.018555,0.018226,0.10143,-0.011701
332,0.022501,-0.068924,-0.027158,0.0060577,-0.022554,0.10209,-0.013674
333,0.010991,-0.058071,-0.030775,0.0017824,-0.058729,0.10899,-0.016963
334,-0.0024928,-0.046232,-0.036695,0.0037556,-0.08175,0.12346,-0.017292
335,-0.013345,-0.037024,-0.045246,0.0096753,-0.086354,0.14287,-0.014332
336,-0.014661,-0.032749,-0.05281,0.013951,-0.071884,0.16063,-0.0067681
337,-0.0047949,-0.031104,-0.054125,0.014937,-0.043601,0.17575,0.0057288
338,0.0057288,-0.028802,-0.048863,0.013951,-0.0061104,0.19121,0.022172
339,0.0093464,-0.025842,-0.035051,0.0090175,0.029407,0.20732,0.038944
340,0.0054,-0.019594,-0.016963,0.00079584,0.049797,0.22311,0.052428
341,-0.0008485,-0.0093991,0.0001381,-0.0077547,0.054072,0.23626,0.059663
342,-0.0024928,0.0037556,0.010662,-0.016634,0.046508,0.2481,0.058676
343,0.0017824,0.021843,0.014608,-0.026171,0.031381,0.25534,0.051113
344,0.0080309,0.039602,0.013293,-0.033735,0.014279,0.25863,0.038944
345,0.010333,0.057032,0.015266,-0.035708,-0.0018351,0.25402,0.02875
346,0.0050711,0.069529,0.023159,-0.02946,-0.010386,0.23528,0.024803
347,-0.0038083,0.078409,0.033683,-0.019923,-0.0064392,0.20436,0.028092
348,-0.011701,0.083999,0.039602,-0.01499,0.00046697,0.16786,0.030723
349,-0.017292,0.086959,0.039931,-0.017292,-0.0047949,0.13004,0.02875
350,-0.01795,0.089919,0.036971,-0.0265,-0.0265,0.089261,0.026447
351,-0.015319,0.094523,0.033354,-0.03242,-0.047219,0.04618,0.030394
352,-0.0077547,0.10209,0.033025,-0.028473,-0.05281,0.0021113,0.042562
353,0.0024402,0.10998,0.0373,-0.015976,-0.035051,-0.047548,0.058348
354,0.010333,0.11393,0.042891,0.0030979,0.0021113,-0.11135,0.073476
355,0.0096753,0.11162,0.046837,0.018555,0.046837,-0.19389,0.085315
356,0.0014536,0.10505,0.043877,0.024474,0.085644,-0.28927,0.088932
357,-0.0097279,0.1011,0.0373,0.018226,0.1034,-0.38102,0.085644
358,-0.019594,0.10274,0.032367,0.00079584,0.094523,-0.44844,0.075449
359,-0.024198,0.1057,0.031709,-0.020581,0.066569,-0.46817,0.068543
360,-0.022554,0.10636,0.035327,-0.042615,0.032696,-0.41917,0.070187
361,-0.016963,0.099785,0.036314,-0.061689,0.0044134,-0.30341,0.080711
362,-0.014332,0.08959,0.031052,-0.07583,-0.01499,-0.14621,0.093208
363,-0.011701,0.081039,0.020528,-0.082736,-0.025514,0.018555,0.098798
364,-0.011372,0.076435,0.0090175,-0.077146,-0.025185,0.16063,0.095181
365,-0.007097,0.076435,0.0030979,-0.058729,-0.0080836,0.26389,0.086959
366,-0.0018351,0.079724,0.0073732,-0.029789,0.023159,0.32078,0.080053
367,0.0030979,0.084986,0.017897,-0.0018351,0.060321,0.31355,0.07512
368,0.0067154,0.091234,0.030394,0.017897,0.090577,0.24021,0.074462
369,0.0080309,0.097483,0.037629,0.024474,0.10143,0.10735,0.080711
370,0.0080309,0.10176,0.040589,0.022501,0.087617,-0.059058,0.093865
371,0.0080309,0.10274,0.037629,0.013951,0.051441,-0.22974,0.10538
372,0.0037556,0.097483,0.033683,0.0024402,0.0044134,-0.37839,0.10768
373,-0.0051238,0.088603,0.031381,-0.0093991,-0.042286,-0.48264,0.097154
374,-0.013674,0.080382,0.031381,-0.018936,-0.08175,-0.53164,0.07512
375,-0.014003,0.078737,0.031052,-0.022883,-0.11135,-0.52342,0.049139
376,-0.0064392,0.084657,0.032038,-0.019594,-0.12549,-0.46751,0.026119
377,0.0034268,0.093536,0.035985,-0.010386,-0.12286,-0.37576,0.010662
378,0.013293,0.096825,0.041575,0.0011247,-0.10313,-0.26,-0.00019077
379,0.015266,0.090905,0.049468,0.0096753,-0.069582,-0.13272,-0.0097279
380,0.012635,0.076764,0.05473,0.013293,-0.035051,-0.0064392,-0.019923
381,0.01132,0.059992,0.052757,0.0063866,-0.010057,0.10011,-0.028802
382,0.014279,0.042562,0.045851,-0.0080836,-0.004466,0.16227,-0.034393
383,0.01691,0.029078,0.033683,-0.021238,-0.018936,0.15339,-0.034722
384,0.016581,0.021843,0.022501,-0.025514,-0.040313,0.062294,-0.03242
385,0.017568,0.017897,0.011648,-0.018278,-0.050507,-0.084052,-0.030775
386,0.015924,0.012964,0.0017824,-0.00051963,-0.03538,-0.21856,-0.029789
387,0.015924,0.002769,-0.0077547,0.02283,0.0050711,-0.25737,-0.028473
388,0.020528,-0.010386,-0.015976,0.051113,0.064925,-0.1268,-0.024856
389,0.026776,-0.020909,-0.021567,0.076435,0.13925,0.22015,-0.01499
390,0.029407,-0.028473,-0.021567,0.09551,0.22212,0.79863,0.0057288
391,0.024145,-0.035708,-0.015319,0.10735,0.30697,1.5363,0.043549
392,0.015266,-0.038668,-0.0061104,0.11458,0.38031,2.271,0.091563
393,0.0080309,-0.036366,0.0021113,0.11853,0.42997,2.7998,0.13464
394,0.0037556,-0.03242,0.0037556,0.11656,0.43589,2.9784,0.15668
395,-0.00051963,-0.032091,0.0011247,0.10242,0.39215,2.7794,0.15076
396,-0.0067681,-0.034722,-0.0018351,0.075449,0.31223,2.2979,0.11754
397,-0.010386,-0.037353,-0.0057815,0.04322,0.21949,1.6935,0.064925
398,-0.0093991,-0.042615,-0.0087413,0.015924,0.13136,1.115,0.011648
399,-0.0038083,-0.052481,-0.015319,-0.00019077,0.056046,0.65524,-0.028144
400,0.0017824,-0.068924,-0.022883,-0.004466,-0.0080836,0.32769,-0.051165
401,0.002769,-0.087669,-0.027158,0.0037556,-0.068266,0.10077,-0.062347
402,-0.0018351,-0.10181,-0.025842,0.020857,-0.11595,-0.072542,-0.061689
403,-0.0097279,-0.10543,-0.017292,0.040589,-0.13963,-0.22744,-0.051165
404,-0.016305,-0.098193,-0.0041372,0.059334,-0.13963,-0.38135,-0.038011
405,-0.018936,-0.086025,0.010004,0.075449,-0.13009,-0.52572,-0.030118
406,-0.01499,-0.073857,0.02283,0.086301,-0.12779,-0.64411,-0.026829
407,-0.0077547,-0.06728,0.03434,0.087946,-0.14226,-0.72534,-0.028473
408,-0.0041372,-0.062676,0.04026,0.082355,-0.16791,-0.77073,-0.034722
409,-0.0090702,-0.058729,0.037958,0.074791,-0.19159,-0.77994,-0.047877
410,-0.020909,-0.053138,0.027763,0.066898,-0.20376,-0.75691,-0.056427
411,-0.028144,-0.043601,0.012964,0.058676,-0.19916,-0.71153,-0.059058
412,-0.028802,-0.03242,-0.0018351,0.051113,-0.17581,-0.65233,-0.055769
413,-0.020581,-0.023869,-0.0090702,0.050784,-0.13733,-0.57933,-0.046232
414,-0.0064392,-0.017292,-0.007097,0.059992,-0.091287,-0.50237,-0.030775
415,0.0077021,-0.010057,0.00079584,0.076764,-0.050507,-0.42969,-0.011372
416,0.017239,-0.0028217,0.010333,0.092879,-0.026171,-0.37148,0.002769
417,0.020199,0.0017824,0.014608,0.10011,-0.026171,-0.33958,0.0096753
418,0.020528,0.0044134,0.015924,0.098469,-0.050179,-0.33531,0.010004
419,0.018884,0.0050711,0.013622,0.087946,-0.087341,-0.34649,0.0096753
420,0.018226,0.0077021,0.0073732,0.070516,-0.12417,-0.35438,0.014608
421,0.019212,0.013622,0.00079584,0.054072,-0.14654,-0.33695,0.024474
422,0.021514,0.02579,-0.00051963,0.040589,-0.14292,-0.29124,0.03434
423,0.024474,0.044535,0.0040845,0.030065,-0.11135,-0.22711,0.040918
424,0.026776,0.064267,0.013293,0.024474,-0.058729,-0.1666,0.039931
425,0.020199,0.079724,0.022501,0.019212,0.002769,-0.12845,0.034998
426,0.0080309,0.084986,0.025461,0.013951,0.063938,-0.11529,0.024474
427,-0.0047949,0.080382,0.019541,0.0070443,0.11853,-0.11825,0.0096753
428,-0.010715,0.0692,0.0090175,0.00046697,0.16326,-0.13207,-0.010057
429,-0.0093991,0.057361,-0.0041372,-0.0080836,0.1945,-0.15509,-0.029131
430,-0.00019077,0.050126,-0.012359,-0.015319,0.20798,-0.18929,-0.041957
431,0.011648,0.050455,-0.013345,-0.022225,0.20173,-0.23796,-0.046232
432,0.020199,0.059663,-0.010057,-0.028144,0.1774,-0.2965,-0.042615
433,0.020857,0.074791,-0.0054526,-0.03538,0.14122,-0.35997,-0.033078
434,0.014279,0.089261,-0.0011774,-0.045246,0.10274,-0.41785,-0.019265
435,0.0060577,0.096496,0.0014536,-0.059058,0.071173,-0.45567,-0.0087413
436,-0.0011774,0.092879,0.0014536,-0.072213,0.052099,-0.46883,-0.0057815
437,-0.0074258,0.080711,-0.0011774,-0.080434,0.052099,-0.45765,-0.012359
438,-0.011372,0.065254,-0.0034794,-0.079119,0.074462,-0.42246,-0.025185
439,-0.01203,0.054401,-0.004466,-0.070568,0.11656,-0.3649,-0.035051
440,-0.011701,0.053415,-0.0015062,-0.057085,0.16589,-0.29157,-0.027158
441,-0.010715,0.059992,0.0040845,-0.042286,0.20206,-0.21165,-0.002164
442,-0.007097,0.069858,0.0096753,-0.029131,0.20864,-0.14489,0.029407
443,0.00079584,0.080711,0.011648,-0.022554,0.17937,-0.10773,0.053743
444,0.010991,0.089261,0.01132,-0.023869,0.11886,-0.11036,0.058348
445,0.018884,0.092221,0.0093464,-0.034722,0.041247,-0.14818,0.042891
446,0.021514,0.089919,0.0070443,-0.050179,-0.04097,-0.20968,0.016253
447,0.018226,0.080711,0.0054,-0.065964,-0.11332,-0.28039,-0.010386
448,0.010662,0.069858,0.0030979,-0.079777,-0.1666,-0.34813,-0.0265
449,-0.00051963,0.061636,-0.00019077,-0.0903,-0.19356,-0.40042,-0.026829
450,-0.0090702,0.055717,-0.0031506,-0.097536,-0.19389,-0.43101,-0.01499
451,-0.010386,0.052757,-0.0057815,-0.09918,-0.16989,-0.43528,-0.0008485
452,-0.0034794,0.050455,-0.0061104,-0.093918,-0.13009,-0.41391,0.0077021
453,0.0077021,0.045851,-0.0018351,-0.081092,-0.086025,-0.37872,0.0080309
454,0.018555,0.038287,0.002769,-0.064649,-0.05544,-0.34221,0.0054
455,0.027763,0.029078,0.0040845,-0.053467,-0.050179,-0.31788,0.0034268
456,0.033354,0.021843,0.0014536,-0.049521,-0.07024,-0.30604,0.0021113
457,0.032367,0.015266,-0.0057815,-0.048863,-0.099838,-0.30078,-0.002164
458,0.030394,0.0096753,-0.014003,-0.048534,-0.12648,-0.29749,-0.010057
459,0.027763,0.002769,-0.024856,-0.045574,-0.14588,-0.29584,-0.018607
460,0.026119,-0.0051238,-0.037353,-0.041299,-0.15607,-0.29551,-0.021896
461,0.024145,-0.0087413,-0.049521,-0.038339,-0.1564,-0.28894,-0.016963
462,0.019212,-0.007097,-0.055112,-0.035708,-0.14818,-0.27216,-0.0067681
463,0.011648,-0.0064392,-0.052152,-0.032091,-0.13799,-0.24421,0.0011247
464,0.0021113,-0.007097,-0.042286,-0.027158,-0.12944,-0.20869,0.0054
465,-0.007097,-0.011701,-0.028802,-0.020252,-0.12713,-0.17383,0.0093464
466,-0.0090702,-0.01795,-0.019265,-0.013017,-0.13404,-0.13897,0.01132
467,-0.0011774,-0.027158,-0.015319,-0.0038083,-0.14752,-0.10773,0.010662
468,0.010662,-0.036695,-0.01499,0.0080309,-0.1587,-0.08175,0.0077021
469,0.01691,-0.04689,-0.016305,0.019212,-0.16397,-0.062676,0.0014536
470,0.012635,-0.060373,-0.020581,0.026119,-0.15673,-0.050179,-0.0080836
471,0.0017824,-0.074186,-0.023211,0.025132,-0.13766,-0.043601,-0.020252
472,-0.010057,-0.082408,-0.022883,0.01987,-0.11365,-0.041628,-0.029131
473,-0.018278,-0.084381,-0.017621,0.013622,-0.097536,-0.038339,-0.037024
474,-0.021238,-0.08471,-0.011701,0.0093464,-0.093589,-0.028144,-0.048205
475,-0.020909,-0.086683,-0.0077547,0.012635,-0.094247,-0.0077547,-0.058071
476,-0.019594,-0.089314,-0.002164,0.022172,-0.092931,0.014937,-0.062018
477,-0.020581,-0.092931,0.0050711,0.031381,-0.082736,0.038287,-0.057085
478,-0.021238,-0.093589,0.013293,0.039602,-0.065635,0.061636,-0.040313
479,-0.01795,-0.091616,0.021843,0.047495,-0.045574,0.089261,-0.019265
480,-0.0097279,-0.089314,0.028421,0.05473,-0.028473,0.11985,-0.002164
481,-0.0041372,-0.088656,0.030394,0.062294,-0.018278,0.14616,0.0044134
482,-0.0015062,-0.087341,0.024145,0.071502,-0.018278,0.15503,0.0024402
483,-0.0034794,-0.08471,0.010662,0.077751,-0.028802,0.14616,-0.0028217
484,-0.010057,-0.083394,-0.0097279,0.077093,-0.045246,0.12544,-0.0067681
485,-0.018936,-0.084052,-0.034393,0.068871,-0.061031,0.10406,-0.0093991
486,-0.029131,-0.083065,-0.061031,0.055388,-0.073857,0.089919,-0.011043
487,-0.036695,-0.079119,-0.071555,0.044206,-0.078461,0.083999,-0.016305
488,-0.038011,-0.074515,-0.061689,0.043877,-0.071226,0.091563,-0.022883
489,-0.030118,-0.069911,-0.03242,0.059334,-0.047219,0.11195,-0.02946
490,-0.016963,-0.066622,0.0047422,0.086959,-0.0080836,0.14221,-0.037682
491,-0.0041372,-0.063004,0.035327,0.1182,0.035985,0.17378,-0.048863
492,0.0030979,-0.059058,0.049139,0.14385,0.073476,0.20042,-0.056756
493,0.0047422,-0.051165,0.047824,0.15405,0.095839,0.2241,-0.057414
494,-0.0011774,-0.044588,0.039273,0.14583,0.10011,0.24909,-0.046561
495,-0.010386,-0.039984,0.030394,0.12445,0.088275,0.27606,-0.030118
496,-0.019594,-0.034064,0.023817,0.096496,0.067227,0.30237,-0.013017
497,-0.023869,-0.022883,0.018884,0.071502,0.04881,0.32539,-0.0028217
498,-0.018278,-0.0084125,0.01691,0.055059,0.040918,0.33788,0.0011247
499,-0.0077547,0.0050711,0.01691,0.045193,0.042891,0.33295,0.0054
500,0.0034268,0.014937,0.021843,0.039273,0.043877,0.31059,0.013951
501,0.010333,0.022172,0.035985,0.031709,0.036314,0.27639,0.031381
502,0.01132,0.029078,0.055388,0.018226,0.022501,0.23824,0.053743
503,0.0030979,0.036314,0.071173,0.0011247,0.0093464,0.19877,0.072818
504,-0.012688,0.041247,0.079724,-0.013674,0.0040845,0.15339,0.079724
505,-0.0265,0.045193,0.080382,-0.019923,0.010662,0.096496,0.075778
506,-0.028802,0.04881,0.077093,-0.019594,0.027105,0.028092,0.067556
507,-0.019594,0.055388,0.075778,-0.019923,0.042891,-0.044259,0.064267
508,-0.0080836,0.065583,0.075449,-0.026829,0.047495,-0.10346,0.068871
509,0.0001381,0.078409,0.073147,-0.034722,0.045851,-0.12319,0.083999
510,0.0057288,0.088275,0.062952,-0.038997,0.045193,-0.083723,0.10472
511,0.011648,0.093865,0.048482,-0.038668,0.052757,0.012964,0.12445
512,0.018884,0.094852,0.030394,-0.038011,0.067885,0.14418,0.14024
513,0.02579,0.093208,0.010333,-0.038339,0.085644,0.28066,0.1478
514,0.02875,0.092879,-0.014332,-0.039326,0.10209,0.39248,0.14944
515,0.027434,0.094852,-0.043272,-0.037682,0.11689,0.46417,0.14648
516,0.025132,0.096825,-0.071555,-0.035708,0.12938,0.48686,0.1376
517,0.024474,0.098798,-0.093918,-0.034064,0.13629,0.46483,0.12412
518,0.024474,0.1011,-0.10707,-0.034393,0.13169,0.40826,0.10932
519,0.021186,0.10176,-0.10773,-0.038339,0.11623,0.3346,0.097154
520,0.012306,0.1034,-0.097207,-0.044588,0.094194,0.26192,0.085972
521,0.0030979,0.10735,-0.076159,-0.051165,0.068871,0.1991,0.076435
522,-0.0038083,0.11195,-0.048205,-0.057743,0.044206,0.15536,0.070516
523,-0.007097,0.11623,-0.020909,-0.06432,0.025461,0.13333,0.068543
524,-0.0067681,0.11853,0.0017824,-0.069582,0.012635,0.12577,0.067556
525,-0.0061104,0.11952,0.013951,-0.071884,0.0037556,0.12478,0.068214
526,-0.0074258,0.11952,0.014937,-0.070568,-0.0031506,0.12544,0.073147
527,-0.0080836,0.11327,0.0083598,-0.066951,-0.0064392,0.12478,0.07808
528,-0.0054526,0.097483,-0.00019077,-0.063662,-0.0074258,0.12215,0.074791
529,0.0001381,0.077751,-0.0057815,-0.062676,-0.0061104,0.12281,0.06065
530,0.0040845,0.06065,-0.0087413,-0.063004,-0.0028217,0.13037,0.040589
531,0.0050711,0.053415,-0.010057,-0.063004,0.0001381,0.14352,0.022172
532,0.0034268,0.055717,-0.0084125,-0.059058,0.0040845,0.15767,0.011648
533,-0.002164,0.059334,-0.0067681,-0.050179,0.013293,0.17246,0.0080309
534,-0.0084125,0.061636,-0.0054526,-0.038668,0.02875,0.18726,0.0080309
535,-0.013345,0.059663,-0.004466,-0.027158,0.053415,0.19647,0.0057288
536,-0.014332,0.05473,-0.0034794,-0.013674,0.085972,0.19549,0.0021113
537,-0.010386,0.045851,-0.00019077,0.0030979,0.11689,0.18397,-0.0011774
538,-0.0047949,0.031709,0.0034268,0.018226,0.13991,0.16227,-0.0041372
539,0.00079584,0.017239,0.0063866,0.028421,0.14681,0.13201,-0.010386
540,0.0017824,0.0070443,0.0080309,0.031052,0.1353,0.10011,-0.019594
541,-0.004466,-0.0011774,0.0083598,0.027763,0.10735,0.075449,-0.026171
542,-0.011372,-0.0084125,0.0044134,0.023488,0.07216,0.059663,-0.030447
543,-0.011372,-0.014661,-0.0024928,0.027105,0.041575,0.051113,-0.033735
544,-0.0028217,-0.021238,-0.0090702,0.042562,0.024145,0.044864,-0.042286
545,0.014279,-0.030447,-0.012688,0.066569,0.025132,0.041247,-0.051165
546,0.033025,-0.04097,-0.010386,0.09255,0.042233,0.043549,-0.053138
547,0.047495,-0.051494,-0.0061104,0.11261,0.06624,0.047824,-0.042944
548,0.053743,-0.060702,-0.0024928,0.11985,0.086959,0.049797,-0.024527
549,0.054401,-0.06728,-0.0011774,0.11656,0.094852,0.047824,-0.011372
550,0.048482,-0.073528,-0.0034794,0.10636,0.087617,0.044864,-0.011701
551,0.038944,-0.077146,-0.0051238,0.094194,0.073804,0.037629,-0.025842
552,0.028092,-0.078132,-0.004466,0.083013,0.059005,0.026776,-0.04393
553,0.017568,-0.078132,-0.002164,0.074462,0.04881,0.010991,-0.056098
554,0.011648,-0.080106,0.00046697,0.070516,0.038944,0.0001381,-0.054783
555,0.012635,-0.083394,0.0037556,0.071502,0.025132,-0.0034794,-0.045574
556,0.021843,-0.083723,0.0073732,0.077093,0.0057288,0.0040845,-0.034393
557,0.031709,-0.080763,0.011648,0.083342,-0.016305,0.018884,-0.022554
558,0.038287,-0.07583,0.015595,0.087617,-0.035708,0.032038,-0.012688
559,0.037958,-0.067609,0.015266,0.08959,-0.054783,0.038944,-0.011043
560,0.032038,-0.059716,0.013293,0.091892,-0.076159,0.031381,-0.019594
561,0.024145,-0.056098,0.011977,0.09551,-0.095233,0.0080309,-0.031104
562,0.01691,-0.060045,0.013951,0.10044,-0.11003,-0.024527,-0.042286
563,0.013293,-0.070568,0.017239,0.10143,-0.11332,-0.04985,-0.046561
564,0.012306,-0.087669,0.02283,0.10011,-0.10017,-0.06136,-0.044259
565,0.01132,-0.10411,0.030723,0.099785,-0.073528,-0.065307,-0.03538
566,0.010333,-0.11332,0.038944,0.10209,-0.039326,-0.069582,-0.026171
567,0.0083598,-0.11398,0.041904,0.10899,-0.0051238,-0.076159,-0.018936
568,0.002769,-0.10641,0.036314,0.11557,0.018226,-0.085039,-0.014003
569,-0.0057815,-0.095562,0.026776,0.11689,0.029407,-0.091945,-0.011372
570,-0.014661,-0.084052,0.016253,0.1136,0.032696,-0.090629,-0.011372
571,-0.022225,-0.074844,0.0090175,0.10899,0.035656,-0.082736,-0.015648
572,-0.025842,-0.067609,0.0067154,0.10538,0.041904,-0.071555,-0.022225
573,-0.027158,-0.061031,0.0054,0.10307,0.046508,-0.063004,-0.02946
574,-0.025185,-0.055112,0.0047422,0.097154,0.045522,-0.066293,-0.034064
575,-0.022883,-0.047548,0.0030979,0.084986,0.035985,-0.080106,-0.031433
576,-0.023869,-0.038339,0.0014536,0.067227,0.017568,-0.10214,-0.024198
577,-0.024856,-0.025842,0.00046697,0.046508,-0.0067681,-0.12582,-0.015319
578,-0.02354,-0.010715,0.00079584,0.02875,-0.03538,-0.14719,-0.0093991
579,-0.016634,0.0001381,0.002769,0.017568,-0.062018,-0.16232,-0.0074258
580,-0.004466,0.0060577,0.0034268,0.014608,-0.07879,-0.17482,-0.010057
581,0.0096753,0.0080309,0.0034268,0.013622,-0.082079,-0.18863,-0.0087413
582,0.019212,0.0086887,0.0024402,0.013951,-0.074515,-0.20639,-0.0024928
583,0.01987,0.012635,-0.00051963,0.012964,-0.06432,-0.22678,0.0044134
584,0.01132,0.01987,-0.0034794,0.0073732,-0.057414,-0.24914,0.013293
585,0.0024402,0.026447,-0.0047949,-0.0047949,-0.05544,-0.26657,0.02283
586,-0.0041372,0.031381,-0.0024928,-0.020909,-0.057743,-0.27841,0.032367
587,-0.0084125,0.033683,0.0011247,-0.039984,-0.063004,-0.28302,0.040589
588,-0.010386,0.041575,0.0040845,-0.059058,-0.066951,-0.28302,0.049139
589,-0.0080836,0.059334,0.0080309,-0.072213,-0.068266,-0.27907,0.05473
590,-0.0034794,0.081697,0.01691,-0.075501,-0.066951,-0.26361,0.055388
591,0.0050711,0.099127,0.029078,-0.067937,-0.060702,-0.2327,0.054072
592,0.018884,0.10801,0.042562,-0.055769,-0.050179,-0.18929,0.05177
593,0.034011,0.10932,0.050126,-0.049521,-0.039984,-0.1416,0.045522
594,0.045851,0.1034,0.047495,-0.055112,-0.037353,-0.097864,0.037629
595,0.049139,0.097154,0.036642,-0.072542,-0.044917,-0.062676,0.031381
596,0.042891,0.093865,0.023817,-0.099838,-0.056098,-0.034064,0.025461
597,0.032038,0.095181,0.013951,-0.12944,-0.069253,-0.0067681,0.016581
598,0.020528,0.10274,0.010004,-0.15015,-0.079448,0.023817,0.0060577
599,0.0083598,0.11261,0.0093464,-0.15805,-0.082079,0.055717,0.0001381
600,-0.004466,0.12248,0.0086887,-0.15114,-0.068595,0.082355,0.0021113
601,-0.015319,0.1307,0.0044134,-0.13503,-0.038011,0.094194,0.0096753
602,-0.019923,0.13629,-0.0018351,-0.11529,0.002769,0.086301,0.020857
603,-0.015648,0.13695,-0.0074258,-0.095891,0.040589,0.06361,0.03434
604,-0.0064392,0.13399,-0.011043,-0.082736,0.066569,0.031052,0.048482
605,0.0017824,0.12741,-0.011701,-0.077803,0.07808,-0.010057,0.067556
606,0.0063866,0.12116,-0.0084125,-0.079777,0.069529,-0.057743,0.085972
607,0.0086887,0.11656,-0.0064392,-0.086683,0.035327,-0.10773,0.095839
608,0.0093464,0.11162,-0.0084125,-0.094576,-0.019265,-0.15805,0.094852
609,0.010662,0.10669,-0.011043,-0.09918,-0.077475,-0.20573,0.084328
610,0.013951,0.10011,-0.012688,-0.092931,-0.11891,-0.24783,0.068871
611,0.014937,0.08959,-0.012688,-0.079448,-0.12976,-0.27677,0.049139
612,0.014937,0.080382,-0.014003,-0.062676,-0.11497,-0.28861,0.032696
613,0.013622,0.077751,-0.015319,-0.051165,-0.0903,-0.28335,0.024145
614,0.013951,0.074791,-0.01795,-0.048863,-0.063662,-0.25638,0.020199
615,0.017897,0.070845,-0.016963,-0.053138,-0.041628,-0.20672,0.019212
616,0.024145,0.065254,-0.013017,-0.054125,-0.023869,-0.14095,0.017239
617,0.030394,0.059005,-0.0077547,-0.039326,-0.0084125,-0.068266,0.014279
618,0.04026,0.056046,-0.0041372,-0.015319,0.0030979,0.0021113,0.0080309
619,0.052757,0.053415,-0.00019077,0.0093464,0.0096753,0.058676,0.002769
620,0.06361,0.05177,0.0037556,0.022501,0.010004,0.092221,0.0017824
621,0.067885,0.049797,0.0050711,0.027105,0.0063866,0.10373,0.010991
622,0.06361,0.049139,0.0024402,0.028092,0.0040845,0.10702,0.023488
623,0.05177,0.047824,-0.0038083,0.029736,0.0057288,0.12379,0.033025
624,0.037629,0.041575,-0.014003,0.036971,0.013951,0.17016,0.035327
625,0.027763,0.030723,-0.02354,0.048482,0.033683,0.24646,0.031052
626,0.023817,0.014279,-0.027487,0.05769,0.067227,0.33986,0.024145
627,0.021843,-0.0038083,-0.025514,0.06361,0.11491,0.43095,0.016581
628,0.023817,-0.02354,-0.022225,0.065583,0.16589,0.48653,0.0086887
629,0.026119,-0.038668,-0.019265,0.065583,0.19877,0.48555,0.0024402
630,0.026776,-0.047548,-0.01795,0.064267,0.19581,0.41944,-0.0028217
631,0.02579,-0.052481,-0.014661,0.058676,0.1455,0.30631,-0.007097
632,0.01987,-0.051823,-0.01203,0.049797,0.056703,0.17575,-0.012688
633,0.013293,-0.051823,-0.01203,0.037629,-0.046232,0.05177,-0.017292
634,0.0080309,-0.056427,-0.018278,0.020199,-0.13634,-0.060373,-0.019923
635,0.0037556,-0.066951,-0.030118,0.0054,-0.19422,-0.18074,-0.021896
636,-0.0028217,-0.082079,-0.039326,0.0034268,-0.20738,-0.33235,-0.024856
637,-0.0093991,-0.096549,-0.04097,0.021514,-0.17153,-0.52243,-0.031762
638,-0.014332,-0.11003,-0.038339,0.057032,-0.10214,-0.73488,-0.042286
639,-0.020252,-0.11924,-0.034064,0.099785,-0.028473,-0.93187,-0.054783
640,-0.023869,-0.1245,-0.02946,0.13793,0.017897,-1.0749,-0.065307
641,-0.022554,-0.12483,-0.0265,0.15569,0.018884,-1.1354,-0.069582
642,-0.016634,-0.12023,-0.025185,0.14681,-0.015976,-1.1091,-0.068924
643,-0.0077547,-0.11793,-0.023869,0.11886,-0.06432,-1.0105,-0.066622
644,-0.0057815,-0.11727,-0.022554,0.08959,-0.10477,-0.86774,-0.068924
645,-0.0084125,-0.11858,-0.021896,0.068871,-0.12352,-0.70199,-0.07583
646,-0.01203,-0.11464,-0.023211,0.058348,-0.11431,-0.52177,-0.085696
647,-0.012688,-0.1028,-0.024856,0.056046,-0.078132,-0.32182,-0.090958
648,-0.010386,-0.087341,-0.027816,0.05769,-0.018936,-0.094576,-0.086683
649,-0.0051238,-0.073857,-0.024856,0.058676,0.050455,0.15405,-0.074844
650,-0.00051963,-0.063991,-0.018278,0.057361,0.11952,0.40201,-0.0584
651,-0.0011774,-0.061689,-0.0084125,0.053415,0.1751,0.61282,-0.041628
652,-0.0038083,-0.063991,-0.0011774,0.043877,0.21489,0.75193,-0.030447
653,-0.0064392,-0.064978,-0.00051963,0.033354,0.24317,0.79567,-0.02946
654,-0.010715,-0.06136,-0.0057815,0.028092,0.26488,0.74963,-0.029789
655,-0.016634,-0.051823,-0.0097279,0.033354,0.28428,0.66675,-0.020909
656,-0.023211,-0.045903,-0.004466,0.050784,0.30072,0.61841,0.0054
657,-0.026171,-0.045246,0.0093464,0.068871,0.31158,0.67662,0.045522
658,-0.023211,-0.041628,0.025132,0.079066,0.30434,0.9134,0.087946
659,-0.015648,-0.031104,0.031052,0.07808,0.26981,1.3669,0.12248
660,-0.0080836,-0.015648,0.029078,0.070187,0.20831,1.9648,0.14385
661,-0.0008485,0.00079584,0.024803,0.056046,0.13103,2.5377,0.15175
662,0.0067154,0.017239,0.018884,0.038616,0.047824,2.8952,0.14747
663,0.010991,0.033354,0.012964,0.015924,-0.032091,2.9139,0.13464
664,0.010004,0.049468,0.01132,-0.011701,-0.10148,2.5942,0.11491
665,0.0044134,0.062952,0.014937,-0.035708,-0.15575,2.0417,0.08959
666,-0.0057815,0.072818,0.021186,-0.04985,-0.19488,1.3985,0.06065
667,-0.018278,0.079066,0.026776,-0.051823,-0.22645,0.78843,0.032696
668,-0.030118,0.08367,0.027763,-0.04393,-0.25539,0.28855,0.01132
669,-0.036695,0.087617,0.026776,-0.02946,-0.27743,-0.077146,-0.0047949
670,-0.037353,0.089919,0.02283,-0.011043,-0.28499,-0.32511,-0.014332
671,-0.03538,0.087946,0.014937,0.0077021,-0.27019,-0.48724,-0.016305
672,-0.031433,0.080711,0.0054,0.024474,-0.23862,-0.59281,-0.012359
673,-0.025185,0.072489,-0.0034794,0.032696,-0.20212,-0.66483,-0.0051238
674,-0.014661,0.065254,-0.0087413,0.026776,-0.16758,-0.71614,0.00079584
675,-0.0034794,0.062623,-0.010386,0.0060577,-0.13536,-0.74705,0.0021113
676,0.0063866,0.0692,-0.0067681,-0.023869,-0.10247,-0.75363,-0.0031506
677,0.012306,0.081368,-0.002164,-0.054125,-0.060045,-0.74113,-0.0054526
678,0.012635,0.094852,0.0011247,-0.07287,-0.011043,-0.71942,-0.0024928
679,0.0077021,0.10143,0.0047422,-0.075501,0.037958,-0.69147,0.0047422
680,0.00079584,0.099785,0.0090175,-0.066951,0.073804,-0.66385,0.010991
681,-0.0038083,0.095181,0.010662,-0.05544,0.093865,-0.6497,0.012306
682,-0.0074258,0.092879,0.0017824,-0.048534,0.10242,-0.65497,0.012306
683,-0.0080836,0.089919,-0.020909,-0.048534,0.10834,-0.67963,0.012306
684,-0.0051238,0.083342,-0.055769,-0.053796,0.1205,-0.70857,0.013293
685,-0.00019077,0.07512,-0.095891,-0.063991,0.14024,-0.72995,0.022172
686,0.010991,0.067885,-0.12812,-0.071226,0.15931,-0.73652,0.04322
687,0.022501,0.062952,-0.14555,-0.075173,0.16457,-0.72765,0.066569
688,0.028421,0.061965,-0.14522,-0.074844,0.14944,-0.69838,0.084328
689,0.028092,0.063281,-0.13108,-0.070568,0.11524,-0.65102,0.094852
690,0.021186,0.06624,-0.11069,-0.061031,0.0692,-0.58919,0.1011
691,0.012306,0.070187,-0.088985,-0.044917,0.023817,-0.51816,0.10603
692,0.0044134,0.075778,-0.069582,-0.018936,-0.004466,-0.44022,0.11031
693,0.0011247,0.082026,-0.051165,0.021843,-0.0051238,-0.36293,0.1159
694,0.0034268,0.086301,-0.034722,0.069858,0.02283,-0.29453,0.12511
695,0.0063866,0.085315,-0.017621,0.11689,0.07808,-0.24125,0.13497
696,0.0080309,0.076764,0.0030979,0.15273,0.14188,-0.20869,0.1376
697,0.0080309,0.059005,0.024145,0.17312,0.18891,-0.2031,0.13169
698,0.0050711,0.039931,0.045851,0.17477,0.20206,-0.22744,0.11623
699,0.00079584,0.023159,0.06361,0.15175,0.17707,-0.27841,0.088932
700,-0.0051238,0.012964,0.079395,0.10965,0.12313,-0.34649,0.053743
701,-0.011372,0.0096753,0.095181,0.056703,0.056046,-0.41391,0.015595
702,-0.017292,0.01132,0.11721,0.0086887,-0.0008485,-0.46192,-0.020909
703,-0.020581,0.012635,0.14648,-0.022554,-0.034064,-0.48297,-0.046561
704,-0.021896,0.013622,0.18102,-0.036037,-0.048205,-0.48034,-0.060045
705,-0.020581,0.016581,0.21456,-0.037353,-0.05281,-0.46488,-0.062676
706,-0.015648,0.019212,0.24186,-0.032091,-0.053138,-0.44975,-0.059058
707,-0.0087413,0.01987,0.26159,-0.027487,-0.057743,-0.44482,-0.056098
708,-0.0051238,0.016581,0.27178,-0.027487,-0.074515,-0.45173,-0.057085
709,-0.0057815,0.014608,0.27244,-0.031433,-0.098522,-0.46324,-0.06136
710,-0.007097,0.012635,0.26455,-0.035708,-0.12286,-0.47047,-0.064649
711,-0.0064392,0.014608,0.23692,-0.038011,-0.13897,-0.46784,-0.064978
712,-0.0031506,0.017897,0.17608,-0.036037,-0.14358,-0.45271,-0.062347
713,-0.0038083,0.014279,0.075449,-0.030118,-0.14259,-0.42805,-0.058071
714,-0.0080836,-0.002164,-0.053796,-0.018607,-0.1416,-0.39746,-0.05544
715,-0.015976,-0.027816,-0.19258,-0.0031506,-0.13897,-0.36885,-0.054783
716,-0.022225,-0.056098,-0.31722,0.01132,-0.13568,-0.34747,-0.054125
717,-0.023211,-0.083065,-0.41226,0.018884,-0.13404,-0.33991,-0.053467
718,-0.017621,-0.10641,-0.46817,0.01691,-0.13108,-0.34386,-0.054783
719,-0.0090702,-0.12582,-0.49053,0.0083598,-0.12582,-0.35043,-0.057743
720,-0.0024928,-0.13864,-0.48955,-0.0008485,-0.11727,-0.35011,-0.062676
721,-0.00051963,-0.14555,-0.4754,-0.0080836,-0.10641,-0.33399,-0.067937
722,-0.0011774,-0.14983,-0.45337,-0.012688,-0.097207,-0.30374,-0.068924
723,-0.0041372,-0.15443,-0.42344,-0.01795,-0.09918,-0.2623,-0.066293
724,-0.0054526,-0.1587,-0.38595,-0.021896,-0.11069,-0.21297,-0.060702
725,-0.0018351,-0.16035,-0.34156,-0.024856,-0.12549,-0.15772,-0.051494
726,0.0060577,-0.15673,-0.29518,-0.024856,-0.13864,-0.096878,-0.038011
727,0.014608,-0.14752,-0.25506,-0.017292,-0.14522,-0.033406,-0.024527
728,0.01987,-0.13371,-0.22283,-0.00019077,-0.13667,0.033354,-0.01499
729,0.022501,-0.12154,-0.19291,0.023488,-0.10707,0.11228,-0.0077547
730,0.02283,-0.11135,-0.16364,0.047824,-0.058071,0.20765,-0.0024928
731,0.020857,-0.10115,-0.13864,0.068871,0.0011247,0.31848,0.00079584
732,0.018555,-0.089314,-0.13009,0.082355,0.052099,0.42701,0.0011247
733,0.016253,-0.076159,-0.14358,0.087946,0.077751,0.50922,0.0060577
734,0.017897,-0.059387,-0.1587,0.08959,0.075449,0.54507,0.015924
735,0.020857,-0.037024,-0.1051,0.09255,0.052757,0.53422,0.028092
736,0.021843,-0.011043,0.13004,0.096167,0.018226,0.48555,0.038944
737,0.017239,0.017239,0.62729,0.097812,-0.019594,0.42306,0.041904
738,0.01132,0.043549,1.3245,0.094523,-0.056098,0.37406,0.032038
739,0.0057288,0.062294,2.0164,0.084657,-0.084381,0.35663,0.014608
740,0.0034268,0.070187,2.4722,0.071831,-0.096878,0.38195,0.00079584
741,0.0021113,0.0692,2.5568,0.059005,-0.088985,0.44477,0.0024402
742,-0.00019077,0.062952,2.2779,0.04322,-0.065635,0.51942,0.020528
743,0.0014536,0.055059,1.7652,0.022501,-0.04097,0.57138,0.042891
744,0.0044134,0.048153,1.1837,-0.0057815,-0.023869,0.57368,0.053743
745,0.0070443,0.044864,0.66708,-0.031762,-0.01203,0.52698,0.051441
746,0.0080309,0.040918,0.28428,-0.046561,0.0070443,0.45069,0.039931
747,0.012635,0.036642,0.038287,-0.046561,0.038616,0.37176,0.034669
748,0.020528,0.033683,-0.10313,-0.03538,0.080053,0.30598,0.03434
749,0.02875,0.03434,-0.18238,-0.019265,0.11491,0.2583,0.04026
750,0.032367,0.039602,-0.23369,-0.0051238,0.13201,0.23396,0.048482
751,0.027105,0.047495,-0.27808,0.0011247,0.12708,0.22903,0.054072
752,0.017568,0.054401,-0.32084,-0.002164,0.10439,0.23035,0.055388
753,0.0093464,0.061307,-0.35833,-0.010057,0.074133,0.22903,0.05177
754,0.0090175,0.0692,-0.38661,-0.018278,0.046837,0.22081,0.045851
755,0.015924,0.076764,-0.40568,-0.019923,0.030065,0.20469,0.041247
756,0.02875,0.082684,-0.41555,-0.011701,0.034011,0.19055,0.037958
757,0.039602,0.087288,-0.42114,0.00079584,0.061636,0.18957,0.034998
758,0.045851,0.091234,-0.42476,0.012306,0.10768,0.2093,0.033683
759,0.050126,0.091892,-0.42509,0.01691,0.15832,0.23988,0.0373
760,0.052757,0.090905,-0.42311,0.0057288,0.19285,0.25994,0.043549
761,0.053086,0.089261,-0.42114,-0.016305,0.19351,0.25304,0.04881
762,0.04881,0.085644,-0.42147,-0.044259,0.15339,0.21522,0.04881
763,0.04026,0.083342,-0.42476,-0.064978,0.086301,0.15569,0.039273
764,0.027763,0.07808,-0.42838,-0.073528,0.013293,0.092879,0.026776
765,0.014937,0.070187,-0.43035,-0.071884,-0.04393,0.044535,0.020857
766,0.0030979,0.060979,-0.42772,-0.065964,-0.075173,0.017239,0.021186
767,-0.0054526,0.054401,-0.41818,-0.058729,-0.084381,0.0030979,0.02579
768,-0.0093991,0.05177,-0.40108,-0.048534,-0.079777,-0.0080836,0.032367
769,-0.0080836,0.05473,-0.37905,-0.036037,-0.062347,-0.02354,0.038287
770,-0.0064392,0.061636,-0.35866,-0.025185,-0.033078,-0.040641,0.042891
771,-0.012359,0.066898,-0.34484,-0.020581,0.0001381,-0.052152,0.045851
772,-0.02354,0.065254,-0.33399,-0.021896,0.02579,-0.055112,0.048153
773,-0.03242,0.058019,-0.32051,-0.024527,0.032038,-0.049521,0.049468
774,-0.034393,0.048153,-0.30571,-0.030447,0.018555,-0.037353,0.043877
775,-0.029131,0.04026,-0.29288,-0.035708,-0.0008485,-0.016305,0.031381
776,-0.019594,0.034998,-0.28499,-0.037353,-0.010057,0.012306,0.015924
777,-0.011701,0.032038,-0.28203,-0.033406,-0.0064392,0.04026,-0.0031506
778,-0.011701,0.031052,-0.28039,-0.0265,0.0034268,0.05769,-0.020252
779,-0.017621,0.028421,-0.27677,-0.022554,0.011977,0.062952,-0.032749
780,-0.027487,0.02283,-0.26855,-0.022554,0.018226,0.066898,-0.039984
781,-0.036366,0.011648,-0.25737,-0.025842,0.01987,0.077093,-0.044588
782,-0.041957,-0.0061104,-0.24487,-0.026171,0.015924,0.10274,-0.04393
783,-0.044588,-0.026171,-0.23434,-0.023211,0.0077021,0.13826,-0.036366
784,-0.045903,-0.04097,-0.22481,-0.014003,-0.00051963,0.17246,-0.028802
785,-0.047877,-0.047219,-0.21527,0.0034268,-0.0097279,0.19285,-0.025514
786,-0.048534,-0.044588,-0.20639,0.024474,-0.022554,0.19055,-0.026171
787,-0.045574,-0.041628,-0.19916,0.04026,-0.034393,0.17148,-0.027487
788,-0.036695,-0.041628,-0.19422,0.047824,-0.037682,0.14056,-0.025842
789,-0.02354,-0.048534,-0.18962,0.050126,-0.031762,0.099127,-0.021896
790,-0.011701,-0.057414,-0.18271,0.047495,-0.025842,0.049139,-0.018278
791,-0.0054526,-0.062347,-0.16989,0.037629,-0.02354,-0.0031506,-0.013674
792,-0.0067681,-0.065964,-0.15279,0.02579,-0.027158,-0.058071,-0.013017
793,-0.010057,-0.069911,-0.13305,0.01987,-0.037682,-0.11431,-0.017292
794,-0.0093991,-0.070568,-0.11562,0.020528,-0.055769,-0.1643,-0.030118
795,-0.007097,-0.065307,-0.09918,0.022172,-0.083723,-0.19685,-0.049521
796,-0.007097,-0.057085,-0.081421,0.019541,-0.11529,-0.2054,-0.064649
797,-0.011701,-0.050179,-0.063662,0.014279,-0.14193,-0.19159,-0.069911
798,-0.019265,-0.046232,-0.048863,0.016581,-0.14917,-0.16561,-0.063004
799,-0.022554,-0.046561,-0.039984,0.032367,-0.12648,-0.13207,-0.044917
800,-0.018607,-0.04985,-0.030775,0.062623,-0.080106,-0.094905,-0.018278
801,-0.0090702,-0.054454,-0.018936,0.098141,-0.030447,-0.057085,0.010333
802,0.0044134,-0.057743,-0.0047949,0.1307,0.0090175,-0.021896,0.033683
803,0.021843,-0.0584,0.0096753,0.15175,0.035656,0.010333,0.045193
804,0.034998,-0.054783,0.022172,0.16293,0.047824,0.040918,0.044206
805,0.036971,-0.050507,0.031052,0.15997,0.045851,0.068543,0.033683
806,0.029736,-0.048534,0.033354,0.1501,0.034011,0.096167,0.019541
807,0.018884,-0.049192,0.033354,0.14056,0.027434,0.13037,0.0057288
808,0.010333,-0.052152,0.035656,0.13793,0.038616,0.17542,-0.0034794
809,0.0057288,-0.056098,0.039602,0.13728,0.066569,0.23133,-0.0057815
810,0.0077021,-0.054454,0.043877,0.13169,0.10274,0.28888,-0.0047949
811,0.012635,-0.047219,0.050126,0.11886,0.13892,0.33657,-0.0034794
812,0.019212,-0.037682,0.05769,0.10307,0.16391,0.36715,-0.002164
813,0.02579,-0.028802,0.065912,0.08959,0.17575,0.37834,0.0021113
814,0.031381,-0.022225,0.074462,0.078409,0.17806,0.36321,0.0070443
815,0.033683,-0.013674,0.080711,0.065254,0.17312,0.31651,0.012306
816,0.033025,-0.0041372,0.084986,0.049797,0.16227,0.24021,0.01987
817,0.032038,0.0090175,0.088603,0.038944,0.14714,0.14583,0.027763
818,0.031052,0.023817,0.093536,0.037958,0.13169,0.049797,0.039273
819,0.028092,0.034669,0.10077,0.045193,0.11754,-0.036695,0.053086
820,0.027763,0.04026,0.10801,0.053415,0.1057,-0.10247,0.064925
821,0.029407,0.044864,0.11458,0.058348,0.088603,-0.14555,0.07216
822,0.033354,0.053743,0.12017,0.055388,0.063938,-0.1643,0.069858
823,0.036971,0.06624,0.12281,0.04322,0.033683,-0.16758,0.060321
824,0.04026,0.078737,0.12346,0.028092,0.0070443,-0.16199,0.046508
825,0.042233,0.087946,0.11853,0.014608,-0.011372,-0.15509,0.032696
826,0.042233,0.092221,0.10866,0.002769,-0.021567,-0.15575,0.02579
827,0.035985,0.090248,0.10143,-0.0090702,-0.025514,-0.16726,0.025461
828,0.021843,0.086959,0.098798,-0.021567,-0.025842,-0.18337,0.024145
829,0.0040845,0.085644,0.10077,-0.034064,-0.022554,-0.19488,0.021843
830,-0.0084125,0.088932,0.10242,-0.042615,-0.020252,-0.19225,0.021843
831,-0.01203,0.093208,0.10538,-0.047877,-0.019594,-0.16758,0.022172
832,-0.0093991,0.095181,0.10932,-0.048863,-0.019923,-0.11201,0.021186
833,-0.0057815,0.093865,0.11097,-0.048205,-0.018936,-0.022225,0.017897
834,-0.0084125,0.092221,0.1113,-0.04689,-0.018607,0.099785,0.017239
835,-0.014661,0.092221,0.11491,-0.047877,-0.01499,0.2435,0.025132
836,-0.019923,0.094523,0.12017,-0.053467,-0.007097,0.39511,0.038944
837,-0.015648,0.098798,0.12248,-0.06136,0.0017824,0.5306,0.048153
838,-0.0064392,0.10242,0.12083,-0.067609,0.0054,0.62564,0.044206
839,0.0021113,0.10373,0.11721,-0.071226,-0.0034794,0.66116,0.032367
840,0.0050711,0.1011,0.11261,-0.073857,-0.024527,0.63091,0.020199
841,0.0067154,0.095839,0.10669,-0.077475,-0.052152,0.54211,0.013293
842,0.0077021,0.090248,0.10143,-0.080763,-0.077803,0.4132,0.010333
843,0.010662,0.081368,0.099127,-0.085039,-0.1005,0.26455,0.0077021
844,0.012964,0.071502,0.10274,-0.089314,-0.1199,0.11491,0.0017824
845,0.010662,0.06361,0.11195,-0.093918,-0.13108,-0.016963,-0.00051963
846,0.002769,0.059992,0.12083,-0.094576,-0.13437,-0.1176,0.0054
847,-0.0077547,0.057361,0.12708,-0.093918,-0.13503,-0.19389,0.014937
848,-0.016305,0.053415,0.12642,-0.095233,-0.13799,-0.25802,0.019212
849,-0.018278,0.04881,0.11952,-0.099509,-0.13799,-0.31196,0.017897
850,-0.01795,0.044864,0.10866,-0.10017,-0.12713,-0.34846,0.014608
851,-0.016634,0.04322,0.098798,-0.090958,-0.10346,-0.35931,0.012306
852,-0.01499,0.041247,0.090905,-0.069253,-0.064978,-0.34517,0.0086887
853,-0.010057,0.036314,0.084986,-0.037682,-0.018278,-0.30998,0.0067154
854,-0.0015062,0.030065,0.083342,-0.0041372,0.022501,-0.26361,0.0093464
855,0.0063866,0.026776,0.085315,0.024803,0.046508,-0.21922,0.012964
856,0.012964,0.027434,0.085972,0.044864,0.049139,-0.19093,0.014279
857,0.025132,0.028092,0.085972,0.05177,0.03434,-0.1814,0.01132
858,0.040589,0.028092,0.084328,0.048482,0.014608,-0.1814,0.0067154
859,0.051113,0.027763,0.083013,0.036971,0.0021113,-0.18205,0.0040845
860,0.051441,0.023159,0.083342,0.022501,-0.0015062,-0.17975,0.00046697
861,0.039602,0.017239,0.084657,0.010004,-0.007097,-0.17778,-0.0015062
862,0.025132,0.012306,0.084986,0.0083598,-0.013017,-0.17416,-0.00051963
863,0.013951,0.0044134,0.081368,0.021186,-0.011701,-0.16758,0.0054
864,0.010333,-0.0084125,0.075778,0.045522,0.0057288,-0.1495,0.014279
865,0.011977,-0.026829,0.0692,0.071831,0.038944,-0.1176,0.018226
866,0.015595,-0.050179,0.061965,0.089261,0.079724,-0.079448,0.011977
867,0.017568,-0.070568,0.055059,0.095181,0.12445,-0.053138,-0.0041372
868,0.016253,-0.080106,0.050126,0.096496,0.17279,-0.043272,-0.024527
869,0.014937,-0.078132,0.048482,0.10274,0.22081,-0.046561,-0.039655
870,0.015595,-0.067937,0.047166,0.11853,0.26027,-0.06432,-0.042944
871,0.021186,-0.055769,0.044864,0.13234,0.27474,-0.10773,-0.031104
872,0.029736,-0.045246,0.04026,0.13695,0.25534,-0.17745,-0.0074258
873,0.035656,-0.041957,0.034669,0.12675,0.20272,-0.25769,0.018555
874,0.032696,-0.046232,0.028421,0.10702,0.13136,-0.32511,0.034998
875,0.022172,-0.054783,0.025461,0.082684,0.061307,-0.36556,0.037629
876,0.010004,-0.064978,0.021514,0.062952,0.0057288,-0.38069,0.027105
877,0.0001381,-0.075501,0.017897,0.049139,-0.030447,-0.37411,0.0086887
878,-0.0054526,-0.084052,0.013293,0.041904,-0.054125,-0.36129,-0.011372
879,-0.0041372,-0.086683,0.0090175,0.034998,-0.070897,-0.34945,-0.027487
880,0.0037556,-0.087669,0.0060577,0.025132,-0.086354,-0.35241,-0.036366
881,0.014608,-0.086683,0.0083598,0.013951,-0.10247,-0.37839,-0.034722
882,0.018884,-0.091287,0.016581,0.0077021,-0.1199,-0.42871,-0.027816
883,0.015595,-0.098193,0.026119,0.015266,-0.1393,-0.48494,-0.022883
884,0.0060577,-0.10082,0.032038,0.034011,-0.15805,-0.52572,-0.016634
885,-0.00051963,-0.095891,0.030723,0.053086,-0.17285,-0.53592,-0.0054526
886,-0.00051963,-0.087341,0.021186,0.063281,-0.17975,-0.50796,0.0093464
887,0.0047422,-0.075501,0.0083598,0.059334,-0.17975,-0.44877,0.019541
888,0.011977,-0.062347,-0.0024928,0.042562,-0.17416,-0.36852,0.022501
889,0.019541,-0.051494,-0.0093991,0.023488,-0.16693,-0.28598,0.013622
890,0.021186,-0.044588,-0.01499,0.0086887,-0.16166,-0.21165,-0.0015062
891,0.015924,-0.038339,-0.024527,0.00079584,-0.16035,-0.15377,-0.01795
892,0.0060577,-0.028802,-0.035051,-0.0038083,-0.15936,-0.11299,-0.028802
893,-0.0061104,-0.018936,-0.043272,-0.011043,-0.15279,-0.089314,-0.031104
894,-0.017621,-0.013017,-0.045574,-0.022554,-0.13996,-0.078461,-0.024856
895,-0.025185,-0.013674,-0.042286,-0.034393,-0.1245,-0.075501,-0.010386
896,-0.025842,-0.015976,-0.035708,-0.047548,-0.10839,-0.077146,0.011648
897,-0.019265,-0.018278,-0.028802,-0.057085,-0.087998,-0.077475,0.034998
898,-0.0097279,-0.019923,-0.025842,-0.063991,-0.063333,-0.067937,0.049139
899,-0.002164,-0.016963,-0.021567,-0.065307,-0.033406,-0.049521,0.047166
900,0.0021113,-0.0097279,-0.016305,-0.057743,0.002769,-0.024198,0.036642
901,0.0070443,-0.00051963,-0.011701,-0.039655,0.043877,0.011977,0.021186
902,0.010991,0.0086887,-0.013674,-0.012688,0.089261,0.06065,0.0083598
903,0.013622,0.015266,-0.023869,0.013293,0.12807,0.11721,0.0063866
904,0.01132,0.021514,-0.037682,0.027763,0.15799,0.17904,0.014937
905,0.0057288,0.029078,-0.054454,0.029736,0.17608,0.24416,0.027434
906,-0.00051963,0.041247,-0.07287,0.01987,0.1843,0.30862,0.040918
907,-0.0074258,0.056703,-0.092931,0.0057288,0.18036,0.36354,0.052099
908,-0.014661,0.070845,-0.11233,-0.0031506,0.17049,0.39478,0.059992
909,-0.02354,0.078737,-0.12023,-0.0018351,0.15536,0.39182,0.065254
910,-0.025185,0.082355,-0.10806,0.0030979,0.13596,0.35663,0.067227
911,-0.016963,0.083013,-0.071884,0.0054,0.11426,0.30401,0.064925
912,-0.0031506,0.082355,-0.017621,0.00079584,0.090905,0.25139,0.059663
913,0.0057288,0.08367,0.036642,-0.010386,0.072489,0.21324,0.054401
914,0.0054,0.084986,0.070845,-0.025514,0.059334,0.19187,0.054072
915,-0.0008485,0.084328,0.074791,-0.037682,0.049139,0.18562,0.059663
916,-0.0077547,0.080053,0.051441,-0.045574,0.04322,0.19384,0.064596
917,-0.014003,0.075778,0.013951,-0.046561,0.038287,0.21916,0.060321
918,-0.020581,0.074791,-0.021896,-0.042944,0.029736,0.26356,0.047495
919,-0.026829,0.075778,-0.047877,-0.042286,0.023159,0.31848,0.033025
920,-0.030447,0.072818,-0.06136,-0.049521,0.020857,0.36781,0.020199
921,-0.029789,0.066898,-0.06432,-0.061689,0.025461,0.39938,0.011648
922,-0.023869,0.061307,-0.06136,-0.071555,0.035985,0.40563,0.0063866
923,-0.013345,0.05769,-0.0584,-0.071226,0.045851,0.38721,0.0001381
924,-0.0061104,0.059992,-0.055769,-0.060373,0.043877,0.34972,-0.004466
925,-0.0064392,0.064596,-0.049521,-0.048205,0.024474,0.29711,-0.0077547
926,-0.01203,0.068214,-0.036695,-0.041957,-0.0097279,0.23396,-0.0087413
927,-0.018607,0.067227,-0.020581,-0.048205,-0.051165,0.16589,-0.010715
928,-0.023869,0.06361,-0.0054526,-0.06432,-0.087669,0.10439,-0.010386
929,-0.027158,0.059663,0.0080309,-0.081421,-0.10806,0.055388,-0.002164
930,-0.029131,0.058348,0.017239,-0.090629,-0.10576,0.023817,0.015595
931,-0.026829,0.061307,0.023159,-0.082408,-0.080434,0.010662,0.038944
932,-0.01795,0.062952,0.026119,-0.058729,-0.044259,0.012306,0.056703
933,-0.0041372,0.058019,0.024145,-0.026829,-0.011372,0.018884,0.061965
934,0.0050711,0.04881,0.02283,0.002769,0.010991,0.018555,0.054401
935,0.0063866,0.037958,0.019212,0.023817,0.021186,0.010333,0.035985
936,0.0047422,0.031381,0.011648,0.029078,0.021186,-0.002164,0.012306
937,0.0047422,0.027763,-0.0038083,0.023159,0.011648,-0.0087413,-0.0041372
938,0.0080309,0.025132,-0.024856,0.013622,-0.0011774,-0.010057,-0.0097279
939,0.013293,0.022501,-0.046561,0.0044134,-0.010057,-0.014003,-0.0054526
940,0.018226,0.019212,-0.068924,-0.0034794,-0.019265,-0.027158,0.0034268
941,0.020199,0.015595,-0.092931,-0.0093991,-0.028802,-0.053467,0.0070443
942,0.015924,0.012964,-0.11727,-0.011043,-0.038668,-0.090629,-0.0018351
943,0.0093464,0.0077021,-0.13503,-0.0051238,-0.042615,-0.13141,-0.019923
944,0.0044134,-0.0034794,-0.137,0.0057288,-0.042615,-0.16726,-0.045574
945,0.0073732,-0.017292,-0.12352,0.014937,-0.047548,-0.19291,-0.066622
946,0.012635,-0.030775,-0.099838,0.020199,-0.065964,-0.20836,-0.076488
947,0.017239,-0.042615,-0.074186,0.02579,-0.091616,-0.21461,-0.078461
948,0.015924,-0.049521,-0.052481,0.03434,-0.11497,-0.21001,-0.076488
949,0.010662,-0.051165,-0.038339,0.047495,-0.12812,-0.19488,-0.075501
950,0.00046697,-0.050179,-0.031104,0.060321,-0.12713,-0.17252,-0.077803
951,-0.0090702,-0.050507,-0.028473,0.069529,-0.11266,-0.14325,-0.078132
952,-0.011701,-0.053796,-0.026171,0.077751,-0.087998,-0.11003,-0.071884
953,-0.007097,-0.059387,-0.02354,0.088275,-0.057085,-0.068595,-0.06136
954,-0.002164,-0.064649,-0.019923,0.098469,-0.026829,-0.024527,-0.048205
955,0.0011247,-0.065307,-0.016963,0.10439,-0.0064392,0.013951,-0.037024
956,-0.0008485,-0.06432,-0.016634,0.10176,-0.0061104,0.037629,-0.02946
957,-0.007097,-0.064649,-0.019923,0.087617,-0.032091,0.029407,-0.027158
958,-0.015319,-0.064978,-0.027487,0.068543,-0.074186,-0.031433,-0.027487
959,-0.02354,-0.063662,-0.033078,0.053415,-0.11595,-0.14917,-0.027158
960,-0.027487,-0.059058,-0.03242,0.043877,-0.14062,-0.30571,-0.026171
961,-0.0265,-0.051823,-0.026171,0.04026,-0.1393,-0.45929,-0.028473
962,-0.02354,-0.045903,-0.018936,0.04322,-0.11266,-0.56453,-0.037682
963,-0.01795,-0.041299,-0.010386,0.055059,-0.061689,-0.59018,-0.044259
964,-0.011701,-0.036037,-0.0077547,0.072818,0.0093464,-0.53394,-0.039655
965,-0.0064392,-0.032749,-0.0097279,0.08663,0.085644,-0.41456,-0.023869
966,-0.0015062,-0.02946,-0.012688,0.090577,0.14451,-0.25901,-0.0024928
967,0.0067154,-0.031433,-0.016305,0.087617,0.17542,-0.094905,0.015924
968,0.017568,-0.034064,-0.01795,0.082355,0.18529,0.061307,0.01987
969,0.028421,-0.033735,-0.017621,0.076764,0.18726,0.19976,0.010991
970,0.035985,-0.024198,-0.014661,0.070516,0.18726,0.3119,-0.0041372
971,0.039273,-0.011043,-0.0093991,0.064267,0.1843,0.39017,-0.016634
972,0.036642,0.0014536,-0.0031506,0.05769,0.17246,0.41484,-0.022225
973,0.026447,0.0057288,0.0017824,0.053743,0.1432,0.37439,-0.016963
974,0.013293,0.0044134,0.0034268,0.052099,0.093536,0.26521,-0.007097
975,0.0001381,-0.00019077,-0.0008485,0.047166,0.02875,0.096167,0.0040845
976,-0.0097279,-0.0028217,-0.0074258,0.031052,-0.04097,-0.1051,0.014279
977,-0.014661,0.0001381,-0.015319,0.0067154,-0.099509,-0.27644,0.020199
978,-0.013017,0.0096753,-0.023211,-0.017621,-0.13141,-0.33596,0.021843
979,-0.0064392,0.023488,-0.025185,-0.034064,-0.12779,-0.2179,0.021186
980,0.00079584,0.0373,-0.019594,-0.039326,-0.090958,0.11491,0.02875
981,0.0050711,0.048482,-0.0080836,-0.033078,-0.030775,0.65656,0.049468
982,0.0070443,0.056046,0.0067154,-0.01499,0.044206,1.3238,0.082355
983,0.01132,0.061307,0.018884,0.010991,0.11754,1.9625,0.12182
984,0.01987,0.067227,0.028092,0.039602,0.17049,2.3923,0.15898
985,0.031052,0.077422,0.030394,0.061307,0.19088,2.4923,0.18661
986,0.038287,0.088932,0.027105,0.070187,0.17674,2.2568,0.19516
987,0.036314,0.095839,0.021843,0.06361,0.1376,1.7839,0.18167
988,0.026119,0.094523,0.015595,0.045193,0.085644,1.2229,0.15339
989,0.015595,0.084986,0.01132,0.023817,0.032038,0.70885,0.11952
990,0.014937,0.071173,0.012306,0.0067154,-0.010386,0.31388,0.086959
991,0.020199,0.059334,0.016253,-0.0031506,-0.035051,0.052099,0.06361
992,0.026119,0.053086,0.022172,-0.0090702,-0.04393,-0.11036,0.05473
993,0.021843,0.051113,0.032038,-0.014661,-0.042615,-0.21231,0.05473
994,0.010333,0.051441,0.039273,-0.019594,-0.040641,-0.28631,0.056374
995,0.0014536,0.054072,0.038287,-0.027158,-0.044917,-0.34879,0.054072
996,0.0037556,0.056374,0.027763,-0.041299,-0.056427,-0.4047,0.046508
997,0.015924,0.05769,0.013951,-0.06136,-0.069582,-0.45337,0.036971
998,0.029736,0.058348,0.0057288,-0.076159,-0.080434,-0.49875,0.029407
999,0.038616,0.058019,0.0047422,-0.080763,-0.080434,-0.53855,0.023488
1000,0.036642,0.057032,0.0077021,-0.077146,-0.070897,-0.5665,0.01987
1001,0.025461,0.057032,0.011977,-0.068924,-0.056427,-0.5711,0.018555
1002,0.013293,0.057032,0.017239,-0.056756,-0.038997,-0.554,0.023159
1003,0.0063866,0.056046,0.025132,-0.044259,-0.019265,-0.52046,0.033354
1004,0.0057288,0.050784,0.032696,-0.035051,-0.00051963,-0.47804,0.042562
1005,0.01132,0.042233,0.040589,-0.033078,0.013622,-0.44285,0.041904
1006,0.018555,0.029407,0.046837,-0.038668,0.016581,-0.43232,0.032696
1007,0.025461,0.018555,0.04881,-0.045903,0.010004,-0.45699,0.017239
1008,0.030723,0.014937,0.046508,-0.050507,-0.0084125,-0.50632,0.00046697
1009,0.034011,0.020528,0.043877,-0.048205,-0.035051,-0.56354,-0.016305
1010,0.034998,0.030065,0.039931,-0.036695,-0.056427,-0.61057,-0.030775
1011,0.030723,0.037629,0.0373,-0.019265,-0.059387,-0.63129,-0.043272
1012,0.01987,0.041575,0.036314,-0.0015062,-0.044588,-0.62076,-0.048205
1013,0.0073732,0.044206,0.033354,0.012964,-0.02354,-0.58031,-0.045574
1014,-0.002164,0.040589,0.030065,0.021186,-0.0067681,-0.52243,-0.037353
1015,-0.0064392,0.033354,0.026447,0.02283,0.0047422,-0.45863,-0.027487
1016,-0.0061104,0.026447,0.020528,0.018226,0.012635,-0.39779,-0.017292
1017,-0.0064392,0.021186,0.012635,0.012306,0.01691,-0.34978,-0.0067681
1018,-0.0077547,0.017568,0.0073732,0.0030979,0.010333,-0.32248,-0.0034794
1019,-0.011043,0.013951,0.0034268,-0.010715,-0.010057,-0.31557,-0.01203
1020,-0.015976,0.010333,0.0001381,-0.028802,-0.041628,-0.32248,-0.028473
1021,-0.022225,0.0077021,-0.0031506,-0.046561,-0.076488,-0.33399,-0.041628
1022,-0.025842,0.0034268,-0.0067681,-0.055112,-0.10674,-0.3432,-0.043601
1023,-0.023869,-0.0038083,-0.0090702,-0.04985,-0.12483,-0.35274,-0.036695
1024,-0.017292,-0.017292,-0.013674,-0.025842,-0.12648,-0.36951,-0.024198
1025,-0.0074258,-0.036037,-0.022225,0.010333,-0.11365,-0.40272,-0.011043
1026,0.0063866,-0.054454,-0.029789,0.052428,-0.097207,-0.46685,0.00079584
1027,0.017568,-0.066622,-0.030118,0.090248,-0.080434,-0.56321,0.01132
1028,0.02283,-0.070897,-0.022554,0.11886,-0.062018,-0.66746,0.021514
1029,0.018884,-0.067937,-0.011043,0.133,-0.033406,-0.74968,0.033025
1030,0.0080309,-0.058071,0.0014536,0.13464,0.0034268,-0.78454,0.043549
1031,-0.0031506,-0.04689,0.013622,0.12971,0.037958,-0.74376,0.051441
1032,-0.010715,-0.03538,0.024145,0.12379,0.058676,-0.60695,0.059005
1033,-0.013674,-0.026171,0.034669,0.12116,0.059992,-0.37609,0.061965
1034,-0.010386,-0.025514,0.043549,0.12017,0.043877,-0.073528,0.053086
1035,-0.0024928,-0.033406,0.046837,0.11491,0.01691,0.24843,0.030723
1036,0.0086887,-0.045574,0.042233,0.10472,-0.013017,0.51745,0.00046697
1037,0.019541,-0.059058,0.035656,0.092879,-0.040641,0.66412,-0.028802
1038,0.026119,-0.070897,0.029078,0.081039,-0.06728,0.66478,-0.04689
1039,0.028092,-0.076817,0.023817,0.068543,-0.093589,0.54047,-0.056756
1040,0.023488,-0.074186,0.018555,0.059334,-0.11332,0.34084,-0.060373
1041,0.013293,-0.065635,0.015595,0.054401,-0.11628,0.13004,-0.060045
1042,0.0034268,-0.054783,0.016253,0.056374,-0.097207,-0.04097,-0.0584
1043,0.00046697,-0.045246,0.018555,0.060979,-0.057414,-0.14884,-0.055769
1044,0.0044134,-0.037353,0.018884,0.06065,-0.0047949,-0.19718,-0.051494
1045,0.0083598,-0.028802,0.018226,0.052428,0.043549,-0.20968,-0.043272
1046,0.0086887,-0.023869,0.018226,0.039602,0.074133,-0.21099,-0.036695
1047,0.0037556,-0.021896,0.01987,0.028092,0.082026,-0.20508,-0.030775
1048,-0.0018351,-0.025842,0.021514,0.018226,0.077422,-0.17745,-0.0265
1049,-0.0028217,-0.031104,0.018884,0.010991,0.072818,-0.11661,-0.02354
1050,-0.0011774,-0.032091,0.01691,0.010991,0.071173,-0.013345,-0.022554
1051,0.0014536,-0.031104,0.01691,0.012964,0.073476,0.12379,-0.025514
1052,0.0021113,-0.028802,0.017897,0.0070443,0.080382,0.25994,-0.030775
1053,0.0014536,-0.026171,0.014608,-0.0074258,0.096825,0.36781,-0.032091
1054,0.0011247,-0.022554,0.0054,-0.027487,0.12281,0.43918,-0.030118
1055,0.0011247,-0.016963,-0.002164,-0.046561,0.15207,0.47963,-0.029131
1056,0.0030979,-0.0087413,-0.0031506,-0.056756,0.1843,0.50429,-0.027158
1057,0.0080309,-0.00019077,0.0017824,-0.052152,0.21883,0.53784,-0.021567
1058,0.016581,0.0040845,0.0070443,-0.03538,0.25271,0.6069,-0.007097
1059,0.027105,0.0063866,0.010662,-0.014661,0.28033,0.72529,0.016253
1060,0.036642,0.0083598,0.012635,0.0030979,0.305,0.88084,0.046508
1061,0.038287,0.014279,0.015266,0.018555,0.33756,1.038,0.081368
1062,0.031052,0.025132,0.017239,0.039273,0.37538,1.163,0.12017
1063,0.018226,0.04026,0.020199,0.065583,0.39905,1.2262,0.15405
1064,0.0080309,0.055717,0.021514,0.091892,0.38162,1.2028,0.17115
1065,0.0040845,0.067227,0.020857,0.10406,0.3073,1.0864,0.16753
1066,0.0054,0.071831,0.020199,0.096496,0.17838,0.89466,0.14944
1067,0.0073732,0.070187,0.017239,0.067556,0.011977,0.65458,0.12511
1068,0.0096753,0.067556,0.010004,0.023817,-0.15805,0.39116,0.10077
1069,0.010004,0.06624,-0.00051963,-0.025842,-0.30045,0.12971,0.072818
1070,0.0057288,0.067885,-0.011043,-0.068924,-0.39286,-0.10872,0.04322
1071,-0.0041372,0.072489,-0.01499,-0.089972,-0.42575,-0.30702,0.015595
1072,-0.015648,0.075778,-0.010715,-0.085039,-0.40437,-0.45633,-0.0077547
1073,-0.021238,0.076435,-0.0008485,-0.063333,-0.34846,-0.5494,-0.023211
1074,-0.015319,0.075778,0.010004,-0.036037,-0.2771,-0.58886,-0.027487
1075,0.0011247,0.07512,0.01691,-0.014003,-0.21034,-0.58952,-0.023211
1076,0.021843,0.079724,0.017568,-0.0054526,-0.16758,-0.5711,-0.01795
1077,0.035327,0.086301,0.0093464,-0.0093991,-0.15279,-0.55532,-0.015976
1078,0.037629,0.089261,-0.0057815,-0.023211,-0.16002,-0.55762,-0.017621
1079,0.029736,0.085315,-0.022225,-0.039655,-0.17153,-0.57209,-0.015976
1080,0.016581,0.075778,-0.033406,-0.05544,-0.16791,-0.57341,-0.0064392
1081,0.0014536,0.063281,-0.034393,-0.063991,-0.14555,-0.53657,0.0096753
1082,-0.012359,0.054401,-0.025185,-0.060373,-0.11168,-0.44909,0.023488
1083,-0.018936,0.052099,-0.013017,-0.047877,-0.074515,-0.31459,0.031052
1084,-0.018278,0.055717,-0.0038083,-0.033078,-0.041628,-0.16199,0.031709
1085,-0.014661,0.058348,-0.0038083,-0.024856,-0.021896,-0.028144,0.028092
1086,-0.012359,0.056046,-0.013017,-0.031104,-0.018936,0.05769,0.020528
1087,-0.014332,0.046837,-0.027487,-0.051494,-0.030775,0.094852,0.016581
1088,-0.019265,0.034998,-0.039984,-0.072542,-0.038339,0.1057,0.019212
1089,-0.02354,0.024145,-0.045574,-0.082079,-0.015319,0.13103,0.02875
1090,-0.023869,0.018555,-0.043272,-0.073528,0.053743,0.20305,0.045193
1091,-0.013017,0.014937,-0.034064,-0.048205,0.17115,0.32736,0.066569
1092,0.0017824,0.015924,-0.018278,-0.010386,0.31026,0.47535,0.087946
1093,0.011648,0.01987,-0.0011774,0.02875,0.42602,0.59473,0.098469
1094,0.012306,0.023817,0.011648,0.059992,0.48127,0.6411,0.093208
1095,0.0060577,0.021843,0.017897,0.073147,0.45989,0.59013,0.078737
1096,-0.0038083,0.013293,0.017239,0.058019,0.36584,0.45661,0.061965
1097,-0.010715,0.00079584,0.013622,0.017568,0.22475,0.2777,0.047824
1098,-0.012359,-0.01203,0.0060577,-0.026171,0.073804,0.10077,0.03434
1099,-0.013674,-0.022225,-0.0024928,-0.060373,-0.053796,-0.034722,0.021514
1100,-0.019594,-0.026829,-0.011043,-0.079448,-0.14127,-0.11529,0.0054
1101,-0.030118,-0.026171,-0.01795,-0.082079,-0.18304,-0.15311,-0.013017
1102,-0.039984,-0.02354,-0.019594,-0.071555,-0.1883,-0.17482,-0.03538
1103,-0.040641,-0.024198,-0.016634,-0.048205,-0.17186,-0.20113,-0.057414
1104,-0.030775,-0.02946,-0.01203,-0.016963,-0.14983,-0.23632,-0.076817
1105,-0.014661,-0.039326,-0.007097,0.017239,-0.13042,-0.27216,-0.082736
1106,-0.00019077,-0.053138,-0.0041372,0.043549,-0.11628,-0.30045,-0.074844
1107,0.0067154,-0.067937,-0.0018351,0.052757,-0.097864,-0.31656,-0.052481
1108,0.0080309,-0.077803,0.0014536,0.048482,-0.068266,-0.31557,-0.025842
1109,0.0073732,-0.080106,0.0047422,0.041904,-0.018607,-0.29847,-0.0015062
1110,0.0080309,-0.073199,0.013293,0.044864,0.049468,-0.27118,0.012635
1111,0.0070443,-0.061689,0.023159,0.057032,0.12116,-0.24487,0.015595
1112,0.0044134,-0.048205,0.031052,0.073804,0.17773,-0.22678,0.0090175
1113,0.0011247,-0.036366,0.033354,0.08959,0.207,-0.21757,-0.0018351
1114,-0.0024928,-0.027487,0.030723,0.096496,0.20371,-0.21494,-0.013017
1115,-0.0077547,-0.025842,0.025132,0.092221,0.17049,-0.20968,-0.020581
1116,-0.014003,-0.02946,0.018555,0.07808,0.11985,-0.1962,-0.024198
1117,-0.01795,-0.038668,0.014937,0.063281,0.069858,-0.17975,-0.026829
1118,-0.019594,-0.045246,0.015266,0.053086,0.030065,-0.16594,-0.027487
1119,-0.017621,-0.046232,0.018226,0.048482,-0.0024928,-0.15673,-0.025842
1120,-0.012688,-0.041628,0.018884,0.042233,-0.031433,-0.15542,-0.030447
1121,-0.007097,-0.033078,0.013951,0.031052,-0.054783,-0.15706,-0.041957
1122,-0.0061104,-0.027487,0.0073732,0.018884,-0.068595,-0.14917,-0.051494
1123,-0.0097279,-0.026829,0.0017824,0.016253,-0.071884,-0.12023,-0.047219
1124,-0.015648,-0.030447,-0.0047949,0.023817,-0.073199,-0.071555,-0.027487
1125,-0.019265,-0.034064,-0.010057,0.033683,-0.077146,-0.015976,-0.0018351
1126,-0.019265,-0.031762,-0.01795,0.036314,-0.084052,0.024145,0.018226
1127,-0.017292,-0.021896,-0.028144,0.024474,-0.097207,0.035656,0.027763
1128,-0.013345,-0.0090702,-0.033078,0.0040845,-0.11924,0.019212,0.028092
1129,-0.0051238,-0.0011774,-0.032091,-0.017292,-0.14489,-0.01203,0.01691
1130,0.0054,-0.0018351,-0.028473,-0.032091,-0.16923,-0.042286,-0.0028217
1131,0.0096753,-0.0077547,-0.023869,-0.038339,-0.18797,-0.062676,-0.024198
1132,0.0080309,-0.015648,-0.019265,-0.037024,-0.19587,-0.074844,-0.038668
1133,0.0024402,-0.018278,-0.015319,-0.031433,-0.18863,-0.077146,-0.042286
1134,-0.0024928,-0.016963,-0.010386,-0.024198,-0.16528,-0.073528,-0.036037
1135,-0.0064392,-0.014332,-0.0051238,-0.015319,-0.12845,-0.068266,-0.026171
1136,-0.0093991,-0.011372,0.00046697,-0.0041372,-0.093589,-0.061689,-0.022225
1137,-0.01203,-0.0077547,0.0030979,0.010991,-0.065635,-0.05281,-0.023869
1138,-0.0097279,-0.0034794,0.0014536,0.026447,-0.050836,-0.039326,-0.030447
1139,-0.004466,0.0001381,-0.0047949,0.0373,-0.050507,-0.021567,-0.039655
1140,-0.0018351,0.00079584,-0.011043,0.036971,-0.06136,-0.0074258,-0.045903
1141,-0.0031506,-0.00019077,-0.018278,0.023817,-0.074515,0.0017824,-0.045574
1142,-0.0051238,0.0001381,-0.023211,0.002769,-0.083065,0.0073732,-0.039326
1143,-0.0077547,0.0030979,-0.023869,-0.020581,-0.083394,0.0090175,-0.029131
1144,-0.010386,0.0083598,-0.021238,-0.034722,-0.078461,0.0037556,-0.019265
1145,-0.012688,0.016581,-0.021567,-0.038339,-0.070897,-0.0084125,-0.011043
1146,-0.014003,0.025461,-0.026171,-0.033078,-0.06728,-0.030447,-0.0018351
1147,-0.013674,0.033683,-0.033735,-0.025185,-0.067609,-0.063662,0.0040845
1148,-0.011372,0.037629,-0.038011,-0.021567,-0.066951,-0.10411,0.002769
1149,-0.0054526,0.0373,-0.03242,-0.016634,-0.062347,-0.1393,-0.0077547
1150,0.0034268,0.0373,-0.021896,-0.0080836,-0.059387,-0.16035,-0.022883
1151,0.013293,0.040918,-0.013345,0.0021113,-0.060045,-0.16364,-0.036695
1152,0.019212,0.04881,-0.011043,0.0073732,-0.065964,-0.15443,-0.036366
1153,0.014279,0.059992,-0.014003,0.0077021,-0.072213,-0.14062,-0.022225
1154,0.0001381,0.070187,-0.016634,0.0024402,-0.074844,-0.12845,0.0001381
1155,-0.013345,0.077422,-0.018278,-0.0038083,-0.070897,-0.11825,0.020528
1156,-0.017292,0.080711,-0.020252,-0.010057,-0.066951,-0.10543,0.0373
1157,-0.0080836,0.083342,-0.022225,-0.017621,-0.066293,-0.08471,0.047495
1158,0.0096753,0.088932,-0.021567,-0.026829,-0.069253,-0.058071,0.049797
1159,0.02579,0.09551,-0.017621,-0.036037,-0.068924,-0.031104,0.043549
1160,0.034998,0.10176,-0.0093991,-0.040313,-0.059387,-0.0061104,0.034011
1161,0.039602,0.10505,-0.0011774,-0.035708,-0.035051,0.021186,0.02875
1162,0.039273,0.10505,0.0030979,-0.018936,0.0060577,0.058676,0.033025
1163,0.034669,0.10307,0.0030979,0.0017824,0.059992,0.10866,0.044864
1164,0.027434,0.098798,-0.0011774,0.01691,0.1136,0.16983,0.059334
1165,0.015924,0.090577,-0.0061104,0.01987,0.15273,0.23758,0.070516
1166,0.0030979,0.080053,-0.0080836,0.0086887,0.17444,0.31059,0.076764
1167,-0.0034794,0.071502,-0.0051238,-0.0047949,0.18726,0.3882,0.076106
1168,0.002769,0.064267,-0.002164,-0.012688,0.19121,0.45562,0.072818
1169,0.017568,0.059334,0.0001381,-0.016634,0.18233,0.501,0.070845
1170,0.032038,0.057361,0.00079584,-0.021238,0.15701,0.51054,0.070187
1171,0.037958,0.059334,0.0001381,-0.019594,0.12083,0.48423,0.069529
1172,0.033354,0.06065,0.0014536,-0.011043,0.084328,0.42635,0.067556
1173,0.022501,0.05473,0.0044134,0.0011247,0.054401,0.3494,0.064596
1174,0.010333,0.04026,0.0070443,0.014279,0.037958,0.27014,0.059334
1175,-0.0015062,0.019212,0.0083598,0.025132,0.032696,0.207,0.052757
1176,-0.012359,0.0044134,0.0080309,0.029736,0.033683,0.16918,0.047166
1177,-0.020909,-0.00051963,0.0080309,0.029736,0.035656,0.15438,0.04026
1178,-0.028144,0.0017824,0.0067154,0.024803,0.033683,0.15142,0.030723
1179,-0.035051,0.0060577,0.0047422,0.01691,0.025132,0.14879,0.018555
1180,-0.03538,0.0083598,0.0034268,0.0080309,0.0093464,0.13859,0.0073732
1181,-0.02946,0.0086887,0.0040845,0.0011247,-0.007097,0.11853,0.0017824
1182,-0.019594,0.0096753,0.0057288,0.00079584,-0.017621,0.087617,0.0040845
1183,-0.010715,0.010991,0.0073732,0.0086887,-0.017621,0.050126,0.0080309
1184,-0.0038083,0.011977,0.0057288,0.023817,-0.014661,0.013622,0.0057288
1185,0.0040845,0.0080309,0.0057288,0.039602,-0.017621,-0.01499,-0.0038083
1186,0.015595,0.0001381,0.0030979,0.054072,-0.02354,-0.032749,-0.012688
1187,0.02875,-0.0097279,0.00046697,0.06361,-0.026829,-0.038339,-0.017292
1188,0.035656,-0.017621,0.0021113,0.066569,-0.022225,-0.033406,-0.01203
1189,0.03434,-0.021238,0.010991,0.070845,-0.011372,-0.021238,0.0014536
1190,0.029407,-0.024856,0.020199,0.074462,-0.00019077,-0.0041372,0.017239
1191,0.026776,-0.027158,0.022501,0.077422,0.011648,0.0083598,0.028421
1192,0.027105,-0.030118,0.011648,0.081368,0.025132,-0.0038083,0.032367
1193,0.028092,-0.034064,-0.014003,0.083342,0.041247,-0.064978,0.030723
1194,0.027434,-0.037024,-0.04985,0.083999,0.055059,-0.18271,0.018555
1195,0.02283,-0.042615,-0.086025,0.082355,0.058676,-0.33531,-0.002164
1196,0.014937,-0.050507,-0.11529,0.075449,0.051113,-0.4833,-0.025185
1197,0.0060577,-0.059716,-0.13272,0.062294,0.031052,-0.58064,-0.048863
1198,-0.002164,-0.068266,-0.13733,0.047166,0.0054,-0.59741,-0.065964
1199,-0.007097,-0.070568,-0.12944,0.033025,-0.012359,-0.54414,-0.068595
1200,-0.0034794,-0.067609,-0.11464,0.023159,-0.014003,-0.45041,-0.057085
1201,0.0014536,-0.059058,-0.098851,0.01691,-0.0064392,-0.3409,-0.041299
1202,0.0044134,-0.04985,-0.086025,0.015595,0.0001381,-0.23895,-0.028473
1203,0.0054,-0.044259,-0.072213,0.014279,0.00046697,-0.1495,-0.020581
1204,0.0070443,-0.042944,-0.052481,0.012964,-0.0031506,-0.070568,-0.01499
1205,0.012306,-0.044917,-0.028473,0.0073732,-0.015976,0.0011247,-0.0097279
1206,0.021843,-0.043272,-0.00051963,-0.0034794,-0.037353,0.054401,-0.0057815
1207,0.035656,-0.040313,0.029407,-0.016963,-0.059387,0.075778,-0.0015062
1208,0.04618,-0.034722,0.059005,-0.028802,-0.077475,0.050784,0.0070443
1209,0.050126,-0.02946,0.087946,-0.036366,-0.085039,-0.033406,0.016253
1210,0.044864,-0.026829,0.1159,-0.03538,-0.082408,-0.17712,0.021843
1211,0.034998,-0.02354,0.14714,-0.026171,-0.072542,-0.36096,0.01987
1212,0.02875,-0.015648,0.1797,-0.011372,-0.054125,-0.52539,0.013951
1213,0.026447,-0.0047949,0.20864,0.002769,-0.030447,-0.60169,0.01132
1214,0.026776,0.0070443,0.23429,0.010333,-0.0041372,-0.52901,0.021186
1215,0.022501,0.019541,0.25994,0.012635,0.017239,-0.26263,0.039602
1216,0.015595,0.03434,0.28691,0.012635,0.031052,0.22081,0.064596
1217,0.012306,0.053415,0.31158,0.013951,0.042233,0.85914,0.090248
1218,0.015924,0.075449,0.33131,0.018555,0.053743,1.5087,0.1159
1219,0.025132,0.09551,0.3517,0.028092,0.068214,1.9937,0.13991
1220,0.034011,0.10636,0.37176,0.043877,0.087946,2.1983,0.15865
1221,0.033683,0.10636,0.3836,0.064925,0.11097,2.1115,0.17049
1222,0.029078,0.097812,0.37143,0.091563,0.13103,1.8132,0.17838
1223,0.025132,0.08663,0.3267,0.11985,0.13793,1.4248,0.18529
1224,0.02875,0.079066,0.25139,0.13892,0.12281,1.0617,0.18759
1225,0.0373,0.080053,0.15734,0.14089,0.093865,0.79863,0.1774
1226,0.049139,0.087946,0.061636,0.12116,0.062623,0.64472,0.15503
1227,0.064267,0.096496,-0.024856,0.082026,0.039931,0.56382,0.12675
1228,0.076106,0.10077,-0.096549,0.038944,0.03434,0.49804,0.096496
1229,0.081697,0.097812,-0.14687,0.0063866,0.045851,0.40826,0.06361
1230,0.077093,0.086301,-0.17153,-0.0080836,0.071173,0.28494,0.031709
1231,0.063938,0.070516,-0.17548,-0.0074258,0.10176,0.14024,0.0057288
1232,0.049139,0.056374,-0.16495,-0.0015062,0.12905,-0.010386,-0.0097279
1233,0.035656,0.044864,-0.15015,0.0011247,0.13826,-0.1495,-0.016963
1234,0.024474,0.0373,-0.137,-0.0061104,0.12642,-0.26888,-0.019265
1235,0.013293,0.032038,-0.12812,-0.024198,0.10077,-0.36425,-0.020909
1236,0.0021113,0.027434,-0.12121,-0.045574,0.064596,-0.44252,-0.025185
1237,-0.010057,0.022172,-0.11562,-0.062676,0.023159,-0.50204,-0.031433
1238,-0.02354,0.015924,-0.11135,-0.071884,-0.013017,-0.54151,-0.039326
1239,-0.036366,0.011648,-0.10707,-0.073528,-0.034064,-0.56157,-0.043601
1240,-0.043272,0.0083598,-0.10181,-0.073199,-0.042286,-0.56979,-0.039326
1241,-0.043601,0.0073732,-0.09622,-0.074844,-0.042286,-0.57538,-0.032091
1242,-0.040641,0.0080309,-0.089972,-0.076159,-0.036695,-0.5859,-0.025185
1243,-0.03538,0.0080309,-0.083394,-0.076488,-0.026171,-0.59741,-0.024198
1244,-0.029789,0.010662,-0.078461,-0.073528,-0.014332,-0.60333,-0.027816
1245,-0.026171,0.016253,-0.076488,-0.06728,-0.010386,-0.60202,-0.033735
1246,-0.024856,0.024145,-0.076817,-0.057414,-0.011372,-0.59182,-0.038997
1247,-0.022554,0.030394,-0.078461,-0.047877,-0.013017,-0.57341,-0.04097
1248,-0.018278,0.033025,-0.083065,-0.039326,-0.010715,-0.54512,-0.037682
1249,-0.019265,0.029736,-0.087341,-0.033735,-0.0047949,-0.51322,-0.030775
1250,-0.029131,0.020528,-0.087012,-0.030447,0.002769,-0.48067,-0.021567
1251,-0.046561,0.010004,-0.079777,-0.027158,0.0034268,-0.44285,-0.015648
1252,-0.06136,0.002769,-0.068924,-0.0265,-0.0018351,-0.40305,-0.016305
1253,-0.07024,-0.0018351,-0.056427,-0.027158,-0.0057815,-0.36425,-0.022883
1254,-0.070568,-0.007097,-0.047219,-0.0265,-0.0041372,-0.33531,-0.028802
1255,-0.063333,-0.013674,-0.040641,-0.022883,-0.0041372,-0.31952,-0.031762
1256,-0.052481,-0.020581,-0.039655,-0.019923,-0.011701,-0.31492,-0.033735
1257,-0.04097,-0.024527,-0.042944,-0.018607,-0.029789,-0.31952,-0.033078
1258,-0.027487,-0.024527,-0.04985,-0.016305,-0.056098,-0.32774,-0.033735
1259,-0.012688,-0.024527,-0.055112,-0.013345,-0.084052,-0.33531,-0.035708
1260,0.0024402,-0.024856,-0.059716,-0.0097279,-0.10378,-0.33827,-0.038668
1261,0.012635,-0.026171,-0.065307,-0.0028217,-0.10937,-0.33004,-0.041299
1262,0.014608,-0.031433,-0.069911,0.0077021,-0.10477,-0.30702,-0.041957
1263,0.0090175,-0.042944,-0.074844,0.015595,-0.094905,-0.26986,-0.042286
1264,0.00079584,-0.0584,-0.075501,0.019541,-0.075501,-0.22514,-0.039326
1265,-0.0038083,-0.072542,-0.066951,0.020857,-0.045246,-0.18699,-0.037024
1266,-0.0051238,-0.080763,-0.054125,0.024474,-0.0077547,-0.16594,-0.036695
1267,-0.0028217,-0.082736,-0.040313,0.031381,0.026119,-0.1643,-0.034393
1268,0.0057288,-0.078461,-0.032091,0.040589,0.042233,-0.18173,-0.031762
1269,0.017239,-0.071555,-0.028473,0.04881,0.036314,-0.21922,-0.030775
1270,0.022501,-0.064978,-0.025842,0.052428,0.0090175,-0.27249,-0.034393
1271,0.016581,-0.061031,-0.024856,0.050455,-0.024198,-0.33761,-0.043272
1272,0.0060577,-0.062347,-0.023211,0.044206,-0.052152,-0.40601,-0.05281
1273,-0.0018351,-0.067937,-0.020909,0.035327,-0.068924,-0.46192,-0.060373
1274,-0.0011774,-0.076159,-0.016963,0.026776,-0.073528,-0.49053,-0.065635
1275,0.0034268,-0.085696,-0.016634,0.01691,-0.065307,-0.48659,-0.067609
1276,0.0054,-0.094247,-0.020252,0.0083598,-0.044917,-0.45633,-0.062347
1277,0.0030979,-0.093589,-0.028144,0.0070443,-0.019923,-0.41292,-0.056427
1278,-0.0015062,-0.079448,-0.033406,0.01691,0.002769,-0.37444,-0.050179
1279,-0.0064392,-0.055112,-0.031104,0.037958,0.014608,-0.35208,-0.044588
1280,-0.0080836,-0.034393,-0.020581,0.063938,0.010991,-0.34287,-0.036695
1281,-0.0057815,-0.028144,-0.0077547,0.081368,-0.0093991,-0.333,-0.02354
1282,0.0021113,-0.034393,0.0024402,0.082026,-0.042944,-0.31196,-0.0087413
1283,0.013293,-0.045574,0.0073732,0.067556,-0.078132,-0.27151,0.0054
1284,0.02283,-0.054783,0.0080309,0.047495,-0.1005,-0.2008,0.014608
1285,0.023817,-0.058729,0.0057288,0.033025,-0.099838,-0.096878,0.017568
1286,0.016581,-0.055769,-0.00019077,0.028421,-0.07024,0.040589,0.017897
1287,0.0054,-0.045903,-0.0031506,0.034011,-0.013674,0.20535,0.025461
1288,-0.004466,-0.031104,-0.0015062,0.049139,0.061965,0.37735,0.044864
1289,-0.0061104,-0.014332,0.0054,0.07216,0.13892,0.53192,0.069858
1290,0.00079584,0.0050711,0.013293,0.095839,0.18957,0.65426,0.088275
1291,0.010333,0.021514,0.019541,0.1113,0.19581,0.74634,0.099127
1292,0.01987,0.031709,0.023817,0.11327,0.15306,0.81836,0.10373
1293,0.027763,0.033025,0.026119,0.10044,0.071173,0.87164,0.10176
1294,0.036642,0.029407,0.023488,0.077751,-0.036037,0.9065,0.094523
1295,0.041575,0.023488,0.016581,0.050126,-0.14785,0.91768,0.084657
1296,0.038616,0.020528,0.0086887,0.022501,-0.23928,0.90058,0.078737
1297,0.028421,0.021843,0.0014536,-0.0018351,-0.28959,0.85782,0.083013
1298,0.018555,0.02579,-0.0024928,-0.017292,-0.28598,0.79304,0.093865
1299,0.011648,0.032038,-0.002164,-0.014332,-0.22514,0.7151,0.10307
1300,0.0034268,0.039602,0.0044134,0.0047422,-0.12253,0.62367,0.1034
1301,-0.0034794,0.04881,0.015595,0.034011,-0.011372,0.51843,0.091563
1302,-0.0064392,0.059334,0.024803,0.061965,0.077093,0.4053,0.070516
1303,-0.0031506,0.070516,0.030065,0.079395,0.12774,0.30335,0.049468
1304,0.0011247,0.079724,0.032367,0.077093,0.13793,0.22541,0.032696
1305,0.00046697,0.084986,0.030723,0.053086,0.11952,0.16885,0.023488
1306,-0.0034794,0.08367,0.024145,0.018884,0.098141,0.12807,0.01987
1307,-0.007097,0.076764,0.014608,-0.013674,0.093865,0.089261,0.019212
1308,-0.0087413,0.068543,0.0096753,-0.032091,0.10702,0.038287,0.020528
1309,-0.0041372,0.062623,0.013622,-0.030118,0.13169,-0.025842,0.021186
1310,0.0044134,0.064267,0.025461,-0.011372,0.15799,-0.094247,0.018555
1311,0.014608,0.071502,0.039602,0.01987,0.17937,-0.1541,0.012306
1312,0.021514,0.082026,0.05177,0.053415,0.18924,-0.19159,0.010991
1313,0.023159,0.088275,0.055388,0.080711,0.18825,-0.20179,0.018555
1314,0.018884,0.088275,0.047824,0.093536,0.18003,-0.19126,0.030723
1315,0.013293,0.083013,0.030065,0.091892,0.16622,-0.17186,0.041904
1316,0.010004,0.074791,0.0080309,0.080053,0.14451,-0.16068,0.05177
1317,0.010333,0.067885,-0.014661,0.062623,0.10965,-0.17383,0.058019
1318,0.01691,0.067885,-0.038668,0.038616,0.059334,-0.21395,0.053743
1319,0.030065,0.068871,-0.059058,0.0054,-0.0024928,-0.27216,0.04026
1320,0.04322,0.071831,-0.065635,-0.037024,-0.068266,-0.33103,0.022501
1321,0.051441,0.073147,-0.045246,-0.079119,-0.12154,-0.3705,0.0030979
1322,0.049468,0.071502,-0.0011774,-0.11233,-0.15048,-0.37806,-0.01499
1323,0.036971,0.065254,0.053415,-0.12812,-0.15213,-0.35142,-0.03242
1324,0.017897,0.058348,0.097812,-0.12779,-0.1324,-0.30275,-0.045246
1325,-0.00019077,0.053415,0.12149,-0.11036,-0.097207,-0.24914,-0.046232
1326,-0.011372,0.051441,0.12708,-0.077803,-0.05544,-0.20212,-0.031104
1327,-0.016305,0.051441,0.12281,-0.033406,-0.015976,-0.16989,-0.0077547
1328,-0.015319,0.049139,0.10866,0.012635,0.012306,-0.15344,0.01132
1329,-0.0097279,0.042233,0.088275,0.045522,0.021514,-0.14522,0.017897
1330,-0.0041372,0.033354,0.07216,0.055388,0.010333,-0.13536,0.013293
1331,-0.0011774,0.026776,0.059992,0.042233,-0.019594,-0.11727,0.00079584
1332,0.0001381,0.024474,0.052757,0.01987,-0.057414,-0.091287,-0.015319
1333,-0.002164,0.022172,0.051441,0.0011247,-0.087998,-0.066293,-0.027158
1334,-0.007097,0.015266,0.054401,-0.007097,-0.099509,-0.051165,-0.032749
1335,-0.012359,0.0011247,0.056703,-0.0061104,-0.092931,-0.053138,-0.031433
1336,-0.017621,-0.013674,0.054401,0.0011247,-0.075173,-0.073528,-0.029789
1337,-0.024856,-0.023869,0.04618,0.010004,-0.050836,-0.10346,-0.030775
1338,-0.031433,-0.030118,0.035656,0.01691,-0.018607,-0.12253,-0.030118
1339,-0.032749,-0.031762,0.025132,0.025132,0.019541,-0.11431,-0.024198
1340,-0.029131,-0.028144,0.018555,0.032696,0.057032,-0.063004,-0.013017
1341,-0.02354,-0.025514,0.016581,0.037629,0.079724,0.040918,-0.0008485
1342,-0.019265,-0.024527,0.016581,0.036642,0.083999,0.1945,0.010004
1343,-0.020909,-0.027816,0.015595,0.027434,0.075778,0.38491,0.016581
1344,-0.02354,-0.036695,0.010662,0.013293,0.059663,0.58223,0.016253
1345,-0.023869,-0.049192,0.0024402,-0.004466,0.0373,0.74404,0.013951
1346,-0.021896,-0.063333,-0.0064392,-0.020581,0.01132,0.83184,0.012306
1347,-0.01795,-0.074186,-0.013674,-0.033735,-0.015976,0.82888,0.0096753
1348,-0.010715,-0.076159,-0.020909,-0.039326,-0.041299,0.7391,0.002769
1349,-0.004466,-0.07287,-0.025842,-0.036037,-0.060373,0.59045,-0.0067681
1350,-0.0011774,-0.068266,-0.027816,-0.028144,-0.068924,0.42339,-0.019594
1351,-0.0031506,-0.063333,-0.025514,-0.014332,-0.07024,0.27376,-0.031762
1352,-0.0087413,-0.063333,-0.018936,0.0030979,-0.068595,0.15701,-0.040641
1353,-0.013017,-0.064649,-0.0080836,0.018226,-0.068266,0.073804,-0.042615
1354,-0.015976,-0.065307,0.002769,0.026447,-0.075501,0.0080309,-0.038668
1355,-0.016963,-0.065964,0.010004,0.024474,-0.087669,-0.048534,-0.03242
1356,-0.012688,-0.064978,0.011648,0.016253,-0.097864,-0.092931,-0.028802
1357,-0.0054526,-0.061031,0.0093464,0.0083598,-0.10017,-0.1199,-0.024527
1358,0.0014536,-0.048863,0.0034268,0.0054,-0.09326,-0.13766,-0.022883
1359,0.0060577,-0.033406,-0.0054526,0.0086887,-0.085039,-0.15739,-0.020909
1360,0.0080309,-0.022554,-0.013017,0.014937,-0.080434,-0.18962,-0.019923
1361,0.0047422,-0.018607,-0.017292,0.020528,-0.082079,-0.24289,-0.020252
1362,-0.0038083,-0.017621,-0.015976,0.020199,-0.091616,-0.31985,-0.020581
1363,-0.011372,-0.016634,-0.011701,0.013622,-0.10346,-0.42015,-0.021238
1364,-0.012359,-0.014003,-0.011701,0.0054,-0.11003,-0.52934,-0.019594
1365,-0.0084125,-0.0097279,-0.016305,0.0001381,-0.10543,-0.62339,-0.010715
1366,-0.0018351,-0.0038083,-0.021567,-0.0038083,-0.088656,-0.67174,0.0060577
1367,0.0054,0.0001381,-0.02354,-0.0041372,-0.061689,-0.65003,0.029407
1368,0.014937,0.0011247,-0.022554,-0.00019077,-0.029131,-0.55828,0.049797
1369,0.024474,0.00046697,-0.022554,0.0093464,0.0034268,-0.41851,0.064596
1370,0.029736,-0.00019077,-0.024856,0.022172,0.023488,-0.27447,0.0692
1371,0.028092,0.0021113,-0.027158,0.032038,0.024145,-0.16331,0.064925
1372,0.019212,0.0080309,-0.030118,0.033683,0.0057288,-0.10313,0.05177
1373,0.0080309,0.016253,-0.032749,0.028421,-0.025842,-0.08471,0.036642
1374,-0.0008485,0.023817,-0.035051,0.015924,-0.061689,-0.095562,0.024803
1375,-0.0057815,0.029407,-0.036037,-0.00051963,-0.086354,-0.11957,0.018555
1376,-0.007097,0.030723,-0.037682,-0.018278,-0.091287,-0.14358,0.015595
1377,-0.0054526,0.02579,-0.039326,-0.030775,-0.077146,-0.15542,0.01132
1378,-0.0054526,0.021514,-0.040641,-0.03538,-0.049192,-0.15377,0.00079584
1379,-0.0093991,0.023159,-0.040313,-0.034064,-0.021238,-0.14391,-0.012688
1380,-0.01499,0.030394,-0.034064,-0.03242,-0.0051238,-0.13503,-0.023211
1381,-0.018278,0.039273,-0.022883,-0.037353,-0.0047949,-0.12483,-0.025842
1382,-0.015319,0.04881,-0.010386,-0.046232,-0.019265,-0.11036,-0.024527
1383,-0.0061104,0.057361,-0.0031506,-0.053138,-0.040641,-0.09326,-0.021567
1384,0.0070443,0.066898,-0.0038083,-0.049521,-0.061031,-0.079448,-0.01499
1385,0.019212,0.079066,-0.015319,-0.034064,-0.071226,-0.068924,-0.0034794
1386,0.026119,0.087288,-0.034064,-0.0077547,-0.062347,-0.05544,0.011648
1387,0.02875,0.087617,-0.051494,0.020528,-0.031433,-0.032091,0.024145
1388,0.02579,0.081368,-0.061031,0.043877,0.013622,-0.0015062,0.029736
1389,0.015595,0.07216,-0.061689,0.052428,0.058019,0.031381,0.027434
1390,0.0037556,0.065254,-0.054783,0.039602,0.088932,0.063281,0.020857
1391,-0.0090702,0.064267,-0.043272,0.0034268,0.1034,0.096496,0.014279
1392,-0.017292,0.070516,-0.029789,-0.043272,0.11952,0.14188,0.013293
1393,-0.017621,0.081039,-0.016305,-0.080763,0.15273,0.21324,0.01987
1394,-0.0087413,0.091892,0.00046697,-0.094247,0.20436,0.30598,0.030065
1395,0.0054,0.097483,0.020528,-0.086354,0.256,0.39248,0.041247
1396,0.01691,0.094194,0.045193,-0.061031,0.29053,0.44608,0.053086
1397,0.02283,0.085972,0.0692,-0.030447,0.29316,0.45134,0.065583
1398,0.024474,0.07808,0.088603,-0.0087413,0.25764,0.40991,0.077093
1399,0.021843,0.073147,0.099785,-0.0064392,0.19154,0.33328,0.085644
1400,0.020199,0.073476,0.10274,-0.019594,0.11524,0.24284,0.083013
1401,0.020528,0.076106,0.1011,-0.035708,0.056703,0.16227,0.072489
1402,0.022501,0.080711,0.10044,-0.042286,0.03434,0.11228,0.056374
1403,0.026447,0.085315,0.10242,-0.037353,0.049139,0.094523,0.046508
1404,0.030394,0.088932,0.10209,-0.023211,0.08367,0.097154,0.048153
1405,0.029407,0.089261,0.096825,-0.0047949,0.11557,0.098798,0.058019
1406,0.026776,0.084328,0.088275,0.0086887,0.12971,0.090577,0.067227
1407,0.026119,0.077422,0.076764,0.014608,0.12478,0.071173,0.07216
1408,0.024803,0.069529,0.06065,0.013951,0.1057,0.045851,0.073147
1409,0.022172,0.065254,0.035985,0.010662,0.080053,0.029078,0.068543
1410,0.01987,0.063281,0.0037556,0.0044134,0.052099,0.024474,0.059663
1411,0.016253,0.058348,-0.030447,-0.0008485,0.023817,0.031381,0.048482
1412,0.013622,0.044864,-0.059058,-0.0061104,-0.0061104,0.042233,0.039931
1413,0.010333,0.024803,-0.073528,-0.0093991,-0.037353,0.055717,0.030065
1414,0.0060577,0.0054,-0.073199,-0.012359,-0.068266,0.07216,0.014608
1415,0.0034268,-0.007097,-0.060373,-0.015319,-0.10017,0.088932,-0.0087413
1416,0.0017824,-0.012359,-0.041957,-0.016634,-0.12483,0.10965,-0.03242
1417,-0.00051963,-0.012688,-0.025842,-0.010057,-0.13305,0.14188,-0.045903
1418,-0.00019077,-0.015648,-0.014332,0.0040845,-0.12384,0.18989,-0.041628
1419,0.00079584,-0.02354,-0.0087413,0.021514,-0.10641,0.24679,-0.023211
1420,-0.0015062,-0.034393,-0.007097,0.036642,-0.0903,0.29349,0.00046697
1421,-0.0067681,-0.044588,-0.010057,0.044864,-0.085039,0.31289,0.015266
1422,-0.014332,-0.04985,-0.017292,0.045851,-0.094576,0.2925,0.016581
1423,-0.021238,-0.051165,-0.024856,0.039273,-0.11497,0.23429,0.0054
1424,-0.028473,-0.051494,-0.031104,0.027763,-0.13733,0.1524,-0.013345
1425,-0.034722,-0.051165,-0.035708,0.014937,-0.15279,0.063938,-0.029789
1426,-0.036695,-0.053138,-0.037353,0.002769,-0.15673,-0.017621,-0.042944
1427,-0.031762,-0.056756,-0.03538,-0.0015062,-0.14456,-0.083065,-0.04985
1428,-0.020252,-0.058729,-0.032091,0.0014536,-0.12516,-0.1245,-0.053467
1429,-0.0061104,-0.058729,-0.031104,0.012635,-0.10346,-0.14029,-0.051823
1430,-0.00051963,-0.057085,-0.033735,0.030065,-0.082736,-0.13009,-0.050179
1431,-0.0011774,-0.052481,-0.032749,0.055388,-0.063004,-0.094247,-0.04689
1432,-0.0015062,-0.046561,-0.028802,0.082355,-0.047548,-0.03538,-0.038668
1433,0.002769,-0.044259,-0.019594,0.10274,-0.034064,0.036642,-0.026829
1434,0.013622,-0.047877,-0.0061104,0.11097,-0.014003,0.11327,-0.014332
1435,0.026119,-0.056427,0.0093464,0.10965,0.029407,0.19384,-0.00019077
1436,0.038287,-0.064649,0.018884,0.11097,0.10439,0.28132,0.013951
1437,0.048153,-0.07024,0.022501,0.1182,0.20042,0.36814,0.024145
1438,0.056046,-0.070897,0.021514,0.12971,0.2879,0.43326,0.030065
1439,0.059334,-0.068266,0.018884,0.13958,0.33591,0.45036,0.026447
1440,0.056046,-0.064649,0.012306,0.13892,0.32966,0.40728,0.019541
1441,0.044864,-0.0584,0.00046697,0.12511,0.27474,0.3119,0.010662
1442,0.024803,-0.054783,-0.010715,0.10406,0.19285,0.19121,0.0050711
1443,0.0017824,-0.057085,-0.015319,0.081697,0.11393,0.08367,0.0017824
1444,-0.020581,-0.064649,-0.011701,0.065912,0.061965,0.018226,-0.0038083
1445,-0.034064,-0.071555,-0.0015062,0.061636,0.054401,0.00046697,-0.0064392
1446,-0.035051,-0.073857,0.0093464,0.068543,0.084657,0.013622,-0.0061104
1447,-0.028144,-0.067937,0.019212,0.073476,0.13366,0.035327,-0.0038083
1448,-0.019265,-0.055769,0.023488,0.069858,0.17214,0.045522,-0.0024928
1449,-0.014003,-0.044259,0.022172,0.06065,0.18891,0.035656,-0.0047949
1450,-0.010386,-0.034393,0.015924,0.055717,0.18529,0.0044134,-0.010715
1451,-0.0064392,-0.024527,0.0067154,0.060979,0.16326,-0.044588,-0.017621
1452,-0.0028217,-0.014661,-0.00019077,0.074462,0.13201,-0.10378,-0.022225
1453,0.00079584,-0.0057815,-0.0015062,0.090248,0.10274,-0.15903,-0.016634
1454,0.0044134,0.0001381,0.00046697,0.10439,0.085315,-0.19718,-0.0080836
1455,0.0080309,0.0014536,-0.0008485,0.10603,0.080382,-0.21264,0.0040845
1456,0.010333,-0.00051963,-0.0047949,0.090905,0.079724,-0.20738,0.018226
1457,0.0080309,-0.0051238,-0.013017,0.06361,0.068214,-0.18732,0.028092
1458,0.0011247,-0.011372,-0.022554,0.032696,0.041247,-0.16495,0.029407
1459,-0.0057815,-0.016305,-0.031104,0.0093464,0.0011247,-0.15213,0.027105
1460,-0.0057815,-0.016963,-0.036037,-0.0061104,-0.042944,-0.15509,0.023159
1461,0.0050711,-0.014332,-0.036366,-0.017621,-0.082079,-0.16726,0.020199
1462,0.018555,-0.011701,-0.031104,-0.030118,-0.10773,-0.18666,0.018555
1463,0.025461,-0.010386,-0.023211,-0.044259,-0.12582,-0.21626,0.018226
1464,0.02283,-0.0051238,-0.014661,-0.060702,-0.14884,-0.26263,0.022172
1465,0.013951,0.0024402,-0.01203,-0.075173,-0.18567,-0.34254,0.023159
1466,0.0050711,0.010662,-0.013674,-0.089314,-0.23237,-0.48001,0.017897
1467,-0.0031506,0.018555,-0.016305,-0.10115,-0.27808,-0.68062,0.0030979
1468,-0.01203,0.021186,-0.020252,-0.10641,-0.30571,-0.90852,-0.011043
1469,-0.020909,0.016581,-0.023869,-0.099838,-0.29551,-1.097,-0.016634
1470,-0.024198,0.01132,-0.025842,-0.078132,-0.23994,-1.1844,-0.010057
1471,-0.019265,0.01132,-0.0265,-0.042944,-0.1518,-1.1476,0.0057288
1472,-0.0080836,0.020857,-0.023869,-0.0031506,-0.056098,-1.0062,0.02579
1473,0.0070443,0.0373,-0.015319,0.032367,0.014608,-0.80986,0.042891
1474,0.024474,0.05473,-0.002164,0.056703,0.040918,-0.60564,0.051113
1475,0.039602,0.070516,0.01132,0.067556,0.023817,-0.43035,0.050455
1476,0.047495,0.080711,0.02283,0.06624,-0.022554,-0.29847,0.047824
1477,0.04881,0.083999,0.029407,0.05473,-0.079119,-0.19883,0.042233
1478,0.045522,0.08367,0.031052,0.036314,-0.13174,-0.11299,0.034998
1479,0.04026,0.081368,0.02579,0.010004,-0.17383,-0.030775,0.031381
1480,0.035327,0.078737,0.020199,-0.01795,-0.19817,0.042562,0.0373
1481,0.028092,0.074133,0.015924,-0.037353,-0.2008,0.08367,0.048482
1482,0.018555,0.070845,0.015924,-0.042944,-0.17613,0.071831,0.059005
1483,0.0050711,0.071831,0.017239,-0.037682,-0.12845,-0.0061104,0.064267
1484,-0.0064392,0.079395,0.017897,-0.029789,-0.072542,-0.12976,0.064596
1485,-0.01203,0.08959,0.018555,-0.024198,-0.028802,-0.23829,0.064925
1486,-0.011701,0.094852,0.01691,-0.019265,-0.0084125,-0.25704,0.071173
1487,-0.0067681,0.08959,0.013293,-0.017292,-0.012359,-0.13305,0.079066
1488,0.0014536,0.073476,0.0070443,-0.016634,-0.030775,0.16786,0.088932
1489,0.0086887,0.055059,0.00046697,-0.01795,-0.051165,0.6582,0.099456
1490,0.012306,0.044535,-0.0024928,-0.018278,-0.059387,1.2729,0.1113
1491,0.011648,0.041247,0.00046697,-0.018607,-0.054125,1.8688,0.12083
1492,0.0070443,0.039931,0.0077021,-0.023211,-0.044259,2.2713,0.12116
1493,-0.00051963,0.038616,0.014279,-0.033735,-0.041957,2.3594,0.10998
1494,-0.0074258,0.038616,0.015924,-0.046561,-0.056098,2.1187,0.086959
1495,-0.0080836,0.040918,0.014608,-0.057743,-0.076817,1.6461,0.058676
1496,-0.0067681,0.044206,0.0096753,-0.060702,-0.088985,1.093,0.032696
1497,-0.007097,0.045851,0.0060577,-0.049192,-0.087341,0.5921,0.016581
1498,-0.0054526,0.044864,0.0017824,-0.028473,-0.076159,0.22048,0.0093464
1499,-0.0008485,0.040918,-0.0041372,-0.0024928,-0.061689,-0.007097,0.0057288
1500,0.0057288,0.03434,-0.011043,0.020199,-0.045246,-0.12253,0.0021113
1501,0.010662,0.024145,-0.02354,0.02875,-0.031104,-0.17186,-0.0041372
1502,0.010662,0.010333,-0.041957,0.021843,-0.017621,-0.19225,-0.011372
1503,0.0067154,-0.004466,-0.060373,0.0086887,-0.0061104,-0.20179,-0.019923
1504,0.0014536,-0.013345,-0.074844,-0.0028217,0.0050711,-0.19488,-0.025514
1505,-0.0031506,-0.012688,-0.084381,-0.010057,0.014279,-0.16824,-0.030447
1506,-0.010057,-0.0057815,-0.098193,-0.01203,0.024803,-0.12384,-0.036366
1507,-0.015319,-0.0011774,-0.13075,-0.0054526,0.038616,-0.068266,-0.043601
1508,-0.019594,-0.0057815,-0.19192,0.0060577,0.057032,-0.010057,-0.050836
1509,-0.020581,-0.020581,-0.284,0.014937,0.070187,0.032696,-0.057743
1510,-0.01795,-0.037682,-0.39253,0.018555,0.069858,0.04618,-0.063333
1511,-0.012688,-0.053138,-0.48987,0.013622,0.053743,0.027105,-0.066622
1512,-0.0064392,-0.064978,-0.55499,0.0017824,0.025132,-0.018607,-0.074186
1513,-0.00019077,-0.070897,-0.57406,-0.014332,-0.0038083,-0.07879,-0.081092
1514,0.0073732,-0.069253,-0.55302,-0.025842,-0.02946,-0.14555,-0.08471
1515,0.017568,-0.060702,-0.50599,-0.032091,-0.050836,-0.21494,-0.083394
1516,0.027763,-0.053796,-0.44679,-0.032091,-0.068266,-0.28236,-0.076488
1517,0.030065,-0.052481,-0.38727,-0.0265,-0.073857,-0.34188,-0.067937
1518,0.020199,-0.053796,-0.33531,-0.018936,-0.058071,-0.38924,-0.061689
1519,0.002769,-0.052481,-0.29453,-0.012359,-0.018278,-0.42575,-0.063662
1520,-0.016305,-0.050836,-0.25605,-0.0093991,0.029736,-0.45469,-0.074515
1521,-0.031762,-0.050179,-0.21494,-0.010386,0.067227,-0.4708,-0.093918
1522,-0.040313,-0.051165,-0.16594,-0.015319,0.07808,-0.47212,-0.11102
1523,-0.041628,-0.051165,-0.10773,-0.022554,0.058019,-0.45929,-0.12023
1524,-0.037024,-0.047548,-0.044259,-0.029789,0.021843,-0.43364,-0.11694
1525,-0.02946,-0.039326,0.020528,-0.032749,-0.011372,-0.39417,-0.10378
1526,-0.019265,-0.025842,0.082684,-0.030118,-0.023211,-0.33827,-0.084381
1527,-0.007097,-0.012688,0.14155,-0.02354,-0.0047949,-0.26756,-0.062676
1528,0.0054,0.0040845,0.20305,-0.012688,0.034669,-0.19028,-0.042944
1529,0.017239,0.02579,0.26225,0.0030979,0.084328,-0.11727,-0.025514
1530,0.031709,0.053415,0.31158,0.027763,0.12774,-0.053138,-0.010057
1531,0.044535,0.082355,0.36419,0.056374,0.15438,0.0024402,0.002769
1532,0.05473,0.11524,0.48686,0.085315,0.16556,0.050126,0.011977
1533,0.06065,0.14484,0.78054,0.10965,0.17115,0.094852,0.026447
1534,0.059663,0.16852,1.3057,0.12741,0.17542,0.133,0.048482
1535,0.053086,0.18266,1.9829,0.13629,0.18167,0.14648,0.074462
1536,0.047166,0.18562,2.6028,0.13333,0.18003,0.11294,0.091563
1537,0.04322,0.18036,2.9409,0.11787,0.16227,0.027434,0.095181
1538,0.038944,0.1672,2.8711,0.094523,0.12905,-0.095233,0.090577
1539,0.033025,0.14451,2.415,0.069529,0.093865,-0.21659,0.091892
1540,0.02579,0.11458,1.7227,0.044864,0.065254,-0.29486,0.095839
1541,0.021514,0.083342,0.98904,0.024145,0.047166,-0.31196,0.096825
1542,0.020528,0.057361,0.37209,0.013951,0.036971,-0.28104,0.09551
1543,0.019541,0.040589,-0.050507,0.014937,0.027434,-0.22777,0.092879
1544,0.01691,0.033683,-0.28335,0.01987,0.010662,-0.18205,0.086959
1545,0.0070443,0.033025,-0.38661,0.021186,-0.014003,-0.16627,0.081697
1546,-0.007097,0.032696,-0.42344,0.017568,-0.042615,-0.18732,0.074462
1547,-0.018278,0.02579,-0.44087,0.0086887,-0.07287,-0.23204,0.058019
1548,-0.021567,0.017239,-0.46093,-0.0057815,-0.10017,-0.28104,0.031709
1549,-0.014332,0.0054,-0.48428,-0.027487,-0.11891,-0.32117,0.0054
1550,-0.0015062,-0.0034794,-0.50566,-0.051494,-0.12911,-0.34747,-0.011701
1551,0.0090175,-0.0064392,-0.51684,-0.064978,-0.12845,-0.3603,-0.016305
1552,0.014608,-0.0024928,-0.51487,-0.060373,-0.12023,-0.35471,-0.014332
1553,0.014279,0.0073732,-0.50467,-0.036695,-0.10148,-0.333,-0.011043
1554,0.01132,0.018884,-0.49251,-0.0077547,-0.077475,-0.2965,-0.0097279
1555,0.0080309,0.028092,-0.48395,0.015266,-0.047219,-0.24158,-0.0077547
1556,0.0047422,0.033683,-0.47836,0.022501,-0.011372,-0.16495,-0.0018351
1557,0.00046697,0.033354,-0.47705,0.014937,0.025132,-0.065635,0.0060577
1558,-0.004466,0.026119,-0.47573,-0.00019077,0.06065,0.056046,0.016581
1559,-0.0077547,0.013951,-0.47113,-0.015319,0.090248,0.19812,0.025132
1560,-0.0087413,0.0021113,-0.46356,-0.028473,0.11426,0.36485,0.032038
1561,-0.011701,-0.0057815,-0.45534,-0.036695,0.12741,0.54704,0.04026
1562,-0.013017,-0.0077547,-0.44942,-0.04097,0.12708,0.71246,0.051441
1563,-0.0090702,-0.0064392,-0.44252,-0.039326,0.11393,0.8177,0.065254
1564,-0.0015062,-0.004466,-0.43528,-0.030775,0.096496,0.83513,0.081697
1565,0.0070443,-0.0034794,-0.42838,-0.014332,0.081039,0.76147,0.095839
1566,0.015924,-0.0031506,-0.42213,0.0030979,0.064925,0.61479,0.097483
1567,0.023159,-0.0011774,-0.4116,0.015266,0.049468,0.42997,0.083999
1568,0.031709,0.0024402,-0.39911,0.017568,0.035656,0.24449,0.058019
1569,0.036314,0.0057288,-0.38398,0.015924,0.020528,0.091234,0.02579
1570,0.035985,0.0030979,-0.36918,0.0093464,0.0050711,-0.018936,-0.0057815
1571,0.026776,-0.0041372,-0.35603,0.0011247,-0.0090702,-0.090958,-0.02946
1572,0.010662,-0.012688,-0.34583,-0.0084125,-0.020581,-0.13371,-0.038997
1573,-0.0057815,-0.022883,-0.34024,-0.019923,-0.032749,-0.15509,-0.037682
1574,-0.016963,-0.028144,-0.33432,-0.028802,-0.052152,-0.16758,-0.035051
1575,-0.020252,-0.033735,-0.32807,-0.033406,-0.081421,-0.18205,-0.034393
1576,-0.015648,-0.041299,-0.31853,-0.026829,-0.11069,-0.20244,-0.028802
1577,-0.004466,-0.050836,-0.30242,-0.011043,-0.1268,-0.22908,-0.019265
1578,0.0083598,-0.056756,-0.28236,0.0096753,-0.12417,-0.26394,-0.010386
1579,0.015924,-0.057414,-0.26131,0.029736,-0.10674,-0.31722,-0.0090702
1580,0.015924,-0.053796,-0.24322,0.045193,-0.082736,-0.38793,-0.019923
1581,0.0060577,-0.049192,-0.22941,0.054401,-0.065635,-0.46554,-0.038011
1582,-0.0084125,-0.048863,-0.21691,0.057032,-0.056427,-0.52802,-0.055112
1583,-0.025185,-0.054125,-0.20442,0.055388,-0.052481,-0.56157,-0.066622
1584,-0.043272,-0.062018,-0.18962,0.053743,-0.053796,-0.56453,-0.068924
1585,-0.057414,-0.067609,-0.1735,0.050455,-0.066293,-0.54151,-0.064649
1586,-0.061031,-0.064978,-0.15706,0.045193,-0.09326,-0.505,-0.057414
1587,-0.051823,-0.055769,-0.14226,0.0373,-0.12746,-0.47113,-0.052481
1588,-0.034393,-0.048205,-0.13437,0.029736,-0.16068,-0.45337,-0.051165
1589,-0.019265,-0.046561,-0.13174,0.01987,-0.18041,-0.45304,-0.052152
1590,-0.015976,-0.050836,-0.13075,0.010991,-0.18501,-0.46258,-0.058071
1591,-0.022883,-0.059716,-0.12713,0.0070443,-0.17712,-0.47738,-0.066622
1592,-0.034722,-0.067609,-0.11957,0.0083598,-0.16364,-0.48132,-0.072542
1593,-0.044917,-0.076159,-0.10937,0.010004,-0.14522,-0.44712,-0.071226
1594,-0.048534,-0.080763,-0.097864,0.014937,-0.11497,-0.34057,-0.062347
1595,-0.044259,-0.083723,-0.086354,0.027105,-0.064978,-0.14818,-0.042286
1596,-0.030447,-0.083394,-0.073528,0.042562,0.010662,0.11195,-0.0090702
1597,-0.007097,-0.076488,-0.0584,0.061636,0.10603,0.38952,0.030723
1598,0.016253,-0.063333,-0.040313,0.085315,0.20338,0.62005,0.068543
1599,0.035985,-0.04393,-0.020581,0.10965,0.27474,0.75916,0.094194
1600,0.045522,-0.024856,-0.0028217,0.12741,0.30335,0.7983,0.099127
1601,0.04322,-0.010715,0.0067154,0.133,0.29316,0.75916,0.084986
1602,0.028421,-0.0034794,0.010991,0.12149,0.25961,0.69109,0.060979
1603,0.010991,-0.0031506,0.014608,0.096496,0.22245,0.65097,0.040918
1604,-0.0024928,-0.0087413,0.023159,0.066898,0.20042,0.68813,0.032696
1605,-0.0084125,-0.016963,0.036314,0.044864,0.20535,0.81178,0.037629
1606,-0.0084125,-0.020909,0.049797,0.037958,0.23067,0.99134,0.051441
1607,-0.0067681,-0.021238,0.059005,0.046508,0.256,1.1663,0.067885
1608,-0.0051238,-0.018278,0.060321,0.062294,0.26356,1.2788,0.086959
1609,-0.0018351,-0.014003,0.058019,0.076435,0.25074,1.2906,0.10274
1610,0.0073732,-0.0057815,0.055059,0.080053,0.22147,1.1966,0.10866
1611,0.019212,0.0037556,0.054072,0.071502,0.18365,1.0144,0.10406
1612,0.028092,0.0080309,0.055717,0.053086,0.1478,0.78186,0.09255
1613,0.032367,0.0050711,0.062294,0.035327,0.12577,0.54047,0.073804
1614,0.031709,0.0030979,0.069529,0.024803,0.11886,0.32572,0.050455
1615,0.025461,0.0086887,0.079066,0.025461,0.12346,0.15569,0.026119
1616,0.012635,0.020528,0.08959,0.032367,0.1284,0.038287,0.0050711
1617,-0.0028217,0.032696,0.099127,0.036971,0.12313,-0.027487,-0.0054526
1618,-0.013674,0.039931,0.10505,0.035656,0.10274,-0.049192,-0.004466
1619,-0.01795,0.044864,0.10636,0.026119,0.070187,-0.038997,0.0047422
1620,-0.014332,0.046837,0.10011,0.0080309,0.031709,-0.013017,0.015595
1621,-0.0041372,0.045851,0.091234,-0.01203,-0.007097,0.011977,0.029078
1622,0.0073732,0.045522,0.086301,-0.030775,-0.039326,0.016253,0.045851
1623,0.014608,0.052757,0.08959,-0.041628,-0.06432,-0.010057,0.056703
1624,0.015595,0.064596,0.097154,-0.044917,-0.083065,-0.063662,0.058019
1625,0.012306,0.080711,0.10472,-0.044259,-0.10247,-0.13503,0.048482
1626,0.0044134,0.093536,0.11031,-0.044588,-0.12121,-0.20771,0.033354
1627,-0.0028217,0.10044,0.11195,-0.048863,-0.13634,-0.27085,0.017568
1628,-0.0074258,0.099456,0.10965,-0.058071,-0.14917,-0.32413,0.0024402
1629,-0.0097279,0.094523,0.10603,-0.071555,-0.15903,-0.36589,-0.0080836
1630,-0.011372,0.093208,0.1034,-0.08471,-0.16824,-0.39944,-0.015319
1631,-0.01499,0.094523,0.10176,-0.088327,-0.18074,-0.42279,-0.020909
1632,-0.021238,0.097483,0.10242,-0.078132,-0.19718,-0.43857,-0.021896
1633,-0.027816,0.10242,0.10603,-0.062347,-0.21198,-0.45008,-0.016305
1634,-0.034722,0.10406,0.10998,-0.051165,-0.21889,-0.46028,-0.0051238
1635,-0.040313,0.10077,0.1136,-0.048534,-0.21593,-0.47212,0.0067154
1636,-0.04097,0.097483,0.1136,-0.04985,-0.20771,-0.49415,0.012635
1637,-0.036695,0.09255,0.11162,-0.052481,-0.19916,-0.52769,0.012635
1638,-0.030775,0.084986,0.1113,-0.054783,-0.19685,-0.56847,0.0083598
1639,-0.019594,0.074133,0.11031,-0.056098,-0.20442,-0.60991,0.0050711
1640,-0.0051238,0.065912,0.1113,-0.052481,-0.2202,-0.65036,0.0017824
1641,0.0063866,0.061307,0.1136,-0.046561,-0.23763,-0.68621,-0.0018351
1642,0.010662,0.059005,0.1113,-0.042286,-0.24783,-0.70265,-0.0034794
1643,0.0070443,0.05769,0.10538,-0.042944,-0.23961,-0.68884,-0.0041372
1644,0.0024402,0.056046,0.099127,-0.051823,-0.21165,-0.64148,-0.002164
1645,0.0014536,0.055717,0.095181,-0.060702,-0.17285,-0.56617,0.0014536
1646,0.002769,0.058348,0.094852,-0.063991,-0.1324,-0.46883,0.0077021
1647,0.0067154,0.06065,0.097812,-0.064978,-0.1051,-0.36326,0.015924
1648,0.010991,0.062623,0.10011,-0.066293,-0.097207,-0.25835,0.026119
1649,0.017568,0.06065,0.099456,-0.064649,-0.099509,-0.16232,0.037629
1650,0.025132,0.058348,0.097483,-0.063004,-0.09622,-0.077803,0.044535
1651,0.035985,0.054401,0.095839,-0.061031,-0.070897,0.0063866,0.044535
1652,0.049468,0.049139,0.097483,-0.057414,-0.019265,0.10373,0.038944
1653,0.06361,0.042562,0.10176,-0.048205,0.044864,0.21028,0.036314
1654,0.069529,0.037629,0.10636,-0.035708,0.098469,0.30204,0.03434
1655,0.063938,0.033354,0.10932,-0.027816,0.12346,0.35926,0.023159
1656,0.051113,0.026776,0.10932,-0.026829,0.12577,0.3813,0.0073732
1657,0.035327,0.017239,0.10603,-0.025842,0.12445,0.38787,-0.007097
1658,0.022501,0.0054,0.10274,-0.01499,0.14122,0.39971,-0.0057815
1659,0.018226,-0.0051238,0.10011,0.0083598,0.18726,0.43161,0.014937
1660,0.027105,-0.011372,0.10044,0.041575,0.25896,0.48588,0.049797
1661,0.046508,-0.01203,0.10505,0.07808,0.33591,0.56842,0.090248
1662,0.066898,-0.0074258,0.11064,0.11491,0.40169,0.66642,0.11952
1663,0.080382,-0.0011774,0.11458,0.1455,0.4395,0.74963,0.12609
1664,0.081368,0.0030979,0.11524,0.16589,0.43983,0.78547,0.10899
1665,0.071502,0.0040845,0.10965,0.17148,0.39905,0.75292,0.074133
1666,0.050455,0.0001381,0.093865,0.16293,0.32111,0.65327,0.035656
1667,0.026119,-0.012688,0.071173,0.14188,0.22179,0.50626,0.0070443
1668,0.0067154,-0.032749,0.044864,0.11327,0.1182,0.32802,-0.0074258
1669,-0.0041372,-0.05281,0.020857,0.080711,0.024803,0.14418,-0.014661
1670,-0.0090702,-0.06728,0.0060577,0.052099,-0.051494,-0.022225,-0.021567
1671,-0.0077547,-0.076159,0.0014536,0.032696,-0.10082,-0.14983,-0.028144
1672,-0.0054526,-0.080763,0.0047422,0.023159,-0.12089,-0.2327,-0.033406
1673,-0.0047949,-0.081421,0.011648,0.023159,-0.11825,-0.27808,-0.037353
1674,-0.007097,-0.079777,0.019212,0.031381,-0.10641,-0.3011,-0.040313
1675,-0.013345,-0.073199,0.023488,0.04322,-0.095562,-0.31459,-0.041628
1676,-0.021567,-0.068266,0.021843,0.055717,-0.086683,-0.32643,-0.040641
1677,-0.02946,-0.069253,0.015266,0.065583,-0.07879,-0.33925,-0.035051
1678,-0.035051,-0.07287,0.0070443,0.071831,-0.072542,-0.35307,-0.027158
1679,-0.038339,-0.074844,0.002769,0.072818,-0.067609,-0.35767,-0.01795
1680,-0.036037,-0.074844,0.0057288,0.068543,-0.067937,-0.34715,-0.01203
1681,-0.028473,-0.073528,0.010991,0.059334,-0.076817,-0.32281,-0.013017
1682,-0.01795,-0.073528,0.011648,0.046837,-0.097536,-0.28598,-0.017292
1683,-0.007097,-0.074515,0.0063866,0.032367,-0.12582,-0.23566,-0.018936
1684,0.0001381,-0.076488,-0.0034794,0.019212,-0.15838,-0.17416,-0.014661
1685,0.0044134,-0.079119,-0.014661,0.01132,-0.18436,-0.10313,-0.0041372
1686,0.0017824,-0.079777,-0.025185,0.012964,-0.19652,-0.021896,0.0067154
1687,-0.0024928,-0.077146,-0.033078,0.023817,-0.18765,0.07216,0.011648
1688,-0.004466,-0.070568,-0.038011,0.033025,-0.16002,0.17444,0.0093464
1689,-0.00051963,-0.057414,-0.038011,0.036971,-0.12187,0.27902,0.0034268
1690,0.0096753,-0.043601,-0.036037,0.035985,-0.086683,0.37439,-0.004466
1691,0.021843,-0.030775,-0.031762,0.033354,-0.064649,0.44477,-0.016963
1692,0.029078,-0.019923,-0.0265,0.030723,-0.06432,0.48061,-0.027816
1693,0.031052,-0.0067681,-0.022883,0.024474,-0.080763,0.47502,-0.028473
1694,0.02875,0.0086887,-0.019923,0.013293,-0.10773,0.42175,-0.019594
1695,0.027434,0.02283,-0.015648,0.0001381,-0.13897,0.32506,-0.0057815
1696,0.026447,0.030394,-0.013017,-0.010715,-0.16495,0.20305,0.0070443
1697,0.023488,0.030065,-0.012359,-0.015319,-0.17482,0.068543,0.014937
1698,0.016581,0.025461,-0.014003,-0.014003,-0.16627,-0.069582,0.015924
1699,0.0073732,0.019541,-0.014003,-0.010715,-0.1416,-0.20672,0.0070443
1700,-0.0061104,0.015266,-0.01499,-0.0077547,-0.10674,-0.34123,-0.002164
1701,-0.019594,0.013622,-0.016963,-0.0077547,-0.070568,-0.46521,-0.0051238
1702,-0.031104,0.015266,-0.019265,-0.011701,-0.042286,-0.55762,0.0057288
1703,-0.04097,0.01987,-0.022554,-0.018936,-0.028144,-0.59413,0.025132
1704,-0.046232,0.023817,-0.025514,-0.025842,-0.024856,-0.56223,0.04322
1705,-0.041957,0.030065,-0.028144,-0.030775,-0.021896,-0.47047,0.050126
1706,-0.028144,0.037629,-0.02946,-0.031433,-0.016634,-0.3432,0.046508
1707,-0.0080836,0.04618,-0.027158,-0.028473,-0.0041372,-0.21264,0.039273
1708,0.0080309,0.05473,-0.020252,-0.022554,0.019541,-0.10674,0.029407
1709,0.017897,0.061636,-0.013674,-0.017621,0.05177,-0.041299,0.017897
1710,0.018884,0.067885,-0.012359,-0.014661,0.082355,-0.014003,0.0096753
1711,0.014608,0.074462,-0.013017,-0.014661,0.10044,-0.011372,0.0090175
1712,0.0063866,0.081039,-0.014332,-0.018936,0.098141,-0.020581,0.011648
1713,-0.0031506,0.083999,-0.021896,-0.030118,0.077422,-0.031104,0.0083598
1714,-0.011043,0.085644,-0.033735,-0.045246,0.048482,-0.038668,-0.0074258
1715,-0.016963,0.084657,-0.046232,-0.058071,0.021843,-0.042615,-0.030775
1716,-0.021896,0.079724,-0.054454,-0.063004,0.0044134,-0.047219,-0.05281
1717,-0.025842,0.069858,-0.054454,-0.0584,-0.0018351,-0.046561,-0.063662
1718,-0.027816,0.059334,-0.045574,-0.045246,-0.0018351,-0.040313,-0.057743
1719,-0.024527,0.053743,-0.033406,-0.030118,0.0030979,-0.02946,-0.042944
1720,-0.013345,0.054401,-0.02354,-0.018607,0.013293,-0.016963,-0.025842
1721,0.0017824,0.06065,-0.018278,-0.016634,0.024474,-0.0057815,-0.0080836
1722,0.015924,0.068543,-0.013345,-0.024527,0.030394,0.0014536,0.010662
1723,0.023488,0.074462,-0.011701,-0.037682,0.027434,0.0034268,0.028092
