,channel_1,channel_2,channel_3,channel_4,channel_5,channel_6,channel_7
0,-0.15575,-0.027158,-0.017292,-0.013017,0.10834,0.24745,0.0034268
1,-0.17877,-0.030775,-0.025185,-0.015319,0.08367,0.16885,-0.02946
2,-0.18041,-0.02354,-0.028802,-0.014003,0.066569,0.11491,-0.050836
3,-0.16693,-0.013345,-0.030447,-0.010057,0.061636,0.071502,-0.058071
4,-0.14391,-0.0015062,-0.028802,-0.0038083,0.071173,0.013622,-0.053796
5,-0.11891,0.015266,-0.022883,-0.00051963,0.091234,-0.092603,-0.042944
6,-0.087341,0.040918,-0.014332,0.002769,0.11458,-0.27052,-0.0265
7,-0.050836,0.077751,-0.0057815,0.0073732,0.13366,-0.52046,-0.0077547
8,-0.013674,0.12215,0.002769,0.020857,0.14484,-0.81973,0.012306
9,0.015595,0.15569,0.0073732,0.046837,0.14484,-1.1118,0.033683
10,0.034011,0.15964,0.0054,0.079066,0.13333,-1.314,0.052757
11,0.038287,0.1284,-0.0047949,0.10406,0.10834,-1.3528,0.065583
12,0.030394,0.062623,-0.018936,0.11491,0.069858,-1.2002,0.0692
13,0.013293,-0.019594,-0.030447,0.10702,0.023159,-0.88221,0.068214
14,-0.0074258,-0.10378,-0.034722,0.090248,-0.021896,-0.46356,0.064596
15,-0.02946,-0.17482,-0.028473,0.072489,-0.060045,-0.020581,0.063938
16,-0.054125,-0.22546,-0.013017,0.06065,-0.096549,0.40201,0.064267
17,-0.073199,-0.25868,0.0080309,0.059663,-0.13536,0.80257,0.064925
18,-0.079448,-0.28039,0.031381,0.065912,-0.17252,1.2031,0.06361
19,-0.07287,-0.30078,0.056703,0.071831,-0.19883,1.6103,0.056703
20,-0.057085,-0.31755,0.07808,0.07216,-0.20869,1.9842,0.049468
21,-0.037682,-0.32478,0.09255,0.067227,-0.1962,2.2479,0.047166
22,-0.016634,-0.31426,0.092221,0.060321,-0.16298,2.3288,0.058676
23,-0.0011774,-0.28137,0.076764,0.059992,-0.11595,2.2003,0.081368
24,0.0080309,-0.22579,0.052428,0.067227,-0.063333,1.902,0.10439
25,0.012964,-0.15476,0.031381,0.083342,-0.012359,1.506,0.11458
26,0.019212,-0.077803,0.017239,0.10768,0.035327,1.0805,0.10899
27,0.029078,-0.0038083,0.0086887,0.13497,0.078409,0.66577,0.088275
28,0.038616,0.064925,0.0070443,0.15668,0.1136,0.27606,0.057361
29,0.041575,0.12971,0.0054,0.16687,0.13234,-0.080763,0.025132
30,0.039602,0.19253,0.0060577,0.16885,0.13267,-0.39911,0.0011247
31,0.038287,0.24778,0.0067154,0.16786,0.12313,-0.66385,-0.013017
32,0.042233,0.28527,0.010991,0.16556,0.11327,-0.87531,-0.017621
33,0.050126,0.29349,0.015266,0.15865,0.10834,-1.0483,-0.02354
34,0.059992,0.26784,0.017897,0.14583,0.10406,-1.1937,-0.030118
35,0.067885,0.21653,0.021843,0.12774,0.096825,-1.3038,-0.031762
36,0.072818,0.15536,0.024803,0.10866,0.08663,-1.3591,-0.027158
37,0.074462,0.10406,0.025461,0.094523,0.074462,-1.34,-0.014332
38,0.07808,0.077422,0.024145,0.088932,0.06361,-1.238,0.0014536
39,0.08367,0.070187,0.020857,0.088275,0.05473,-1.0661,0.016581
40,0.091892,0.067227,0.018226,0.086959,0.037958,-0.8365,0.029078
41,0.098141,0.052757,0.017239,0.084328,0.0086887,-0.57143,0.042562
42,0.098141,0.023817,0.013622,0.076764,-0.030447,-0.2988,0.055388
43,0.091563,-0.016963,0.0073732,0.06065,-0.070568,-0.040313,0.065912
44,0.082684,-0.059058,-0.0041372,0.036971,-0.10346,0.1922,0.067227
45,0.075778,-0.10082,-0.017621,0.0086887,-0.12286,0.39807,0.058019
46,0.069858,-0.13667,-0.033735,-0.015976,-0.12352,0.57796,0.047166
47,0.061307,-0.15903,-0.051823,-0.027487,-0.10674,0.72661,0.039602
48,0.054401,-0.15805,-0.066293,-0.025185,-0.079448,0.83842,0.038944
49,0.052099,-0.13371,-0.068266,-0.015976,-0.054125,0.9065,0.044535
50,0.057032,-0.0903,-0.053138,-0.0084125,-0.034722,0.93248,0.049468
51,0.066898,-0.041299,-0.019594,-0.0064392,-0.021238,0.91505,0.052757
52,0.079724,0.0044134,0.020528,-0.0051238,-0.010057,0.85815,0.054401
53,0.092221,0.038616,0.060321,-0.0031506,-0.0057815,0.76475,0.056046
54,0.098141,0.05769,0.090248,0.0017824,-0.0087413,0.63354,0.063281
55,0.096825,0.064267,0.10274,0.010333,-0.025185,0.4668,0.072818
56,0.088932,0.062623,0.096496,0.015924,-0.055112,0.28066,0.078737
57,0.080382,0.061965,0.079395,0.011977,-0.087669,0.10176,0.078409
58,0.072489,0.067556,0.060979,0.00079584,-0.11036,-0.045246,0.070845
59,0.06361,0.085972,0.046508,-0.007097,-0.10576,-0.13207,0.058019
60,0.052428,0.11656,0.031709,-0.0067681,-0.063991,-0.1518,0.041575
61,0.04026,0.14747,0.011977,-0.0011774,0.0080309,-0.12253,0.023817
62,0.029078,0.16457,-0.017621,-0.007097,0.069529,-0.069911,0.0024402
63,0.017897,0.15931,-0.056756,-0.039326,0.07216,-0.01795,-0.021238
64,0.0054,0.13662,-0.10115,-0.09918,-0.004466,0.019212,-0.041628
65,-0.011372,0.10373,-0.14095,-0.16791,-0.13207,0.04026,-0.054125
66,-0.031762,0.071831,-0.1666,-0.21987,-0.26328,0.045851,-0.057085
67,-0.051165,0.046837,-0.17219,-0.23336,-0.35734,0.041247,-0.051823
68,-0.061031,0.033025,-0.15838,-0.20738,-0.39253,0.033683,-0.038339
69,-0.055769,0.02875,-0.13338,-0.1564,-0.36819,0.01987,-0.022225
70,-0.039326,0.032696,-0.10477,-0.099838,-0.30867,-0.0067681,-0.011043
71,-0.01795,0.045851,-0.082736,-0.058729,-0.24454,-0.062676,-0.011701
72,-0.0054526,0.069858,-0.068266,-0.044917,-0.19817,-0.15805,-0.020581
73,-0.0047949,0.097812,-0.061031,-0.053138,-0.17646,-0.29091,-0.032749
74,-0.011701,0.11623,-0.061031,-0.07024,-0.17153,-0.45666,-0.042615
75,-0.021896,0.1205,-0.066293,-0.085696,-0.17318,-0.66549,-0.048534
76,-0.034064,0.10932,-0.07287,-0.097864,-0.1712,-0.93253,-0.053138
77,-0.042944,0.088275,-0.073528,-0.10444,-0.15443,-1.2505,-0.056756
78,-0.051494,0.065254,-0.063991,-0.10313,-0.12286,-1.5442,-0.06136
79,-0.054783,0.045193,-0.044259,-0.09326,-0.081092,-1.6846,-0.065307
80,-0.051494,0.030394,-0.016963,-0.075173,-0.037682,-1.5617,-0.063662
81,-0.04393,0.023159,0.0096753,-0.054125,0.0017824,-1.1608,-0.054454
82,-0.037353,0.022501,0.031709,-0.03538,0.036971,-0.58952,-0.039326
83,-0.034393,0.024145,0.052099,-0.023869,0.065583,-0.025185,-0.026829
84,-0.035051,0.023817,0.073147,-0.019265,0.077751,0.38162,-0.02354
85,-0.038668,0.023159,0.10044,-0.018607,0.071831,0.56349,-0.031104
86,-0.046561,0.023159,0.12971,-0.018936,0.052757,0.5431,-0.042286
87,-0.057743,0.020199,0.14747,-0.017292,0.025132,0.39807,-0.055112
88,-0.072213,0.014608,0.14188,-0.004466,-0.0031506,0.21818,-0.068266
89,-0.082736,0.002769,0.10998,0.020857,-0.022883,0.067556,-0.079119
90,-0.08175,-0.012359,0.061965,0.048482,-0.02946,-0.029131,-0.086683
91,-0.067609,-0.028144,0.010004,0.0692,-0.022883,-0.078132,-0.086354
92,-0.049521,-0.038339,-0.032749,0.079066,-0.010057,-0.095233,-0.080434
93,-0.034722,-0.042286,-0.057414,0.075449,0.0040845,-0.10641,-0.066622
94,-0.026829,-0.042286,-0.062676,0.061307,0.016253,-0.137,-0.045903
95,-0.025842,-0.041957,-0.055769,0.042233,0.022501,-0.20014,-0.021896
96,-0.0265,-0.041628,-0.042944,0.022172,0.024803,-0.284,-0.0024928
97,-0.0265,-0.041628,-0.030775,0.0047422,0.024474,-0.37576,0.0093464
98,-0.021567,-0.044259,-0.026171,-0.011701,0.026776,-0.46685,0.010991
99,-0.011701,-0.05281,-0.034722,-0.024527,0.034669,-0.55663,0.0067154
100,-0.00051963,-0.066951,-0.054125,-0.030118,0.046837,-0.64247,-0.00051963
101,0.0083598,-0.080763,-0.081092,-0.027487,0.057032,-0.7066,-0.0074258
102,0.013293,-0.088985,-0.11036,-0.019594,0.064596,-0.71054,-0.016963
103,0.011977,-0.088985,-0.13601,-0.010715,0.067885,-0.60958,-0.031104
104,0.0070443,-0.083394,-0.15344,-0.0067681,0.066569,-0.38661,-0.051494
105,0.00046697,-0.07583,-0.16364,-0.014003,0.065912,-0.067937,-0.072213
106,-0.0047949,-0.069253,-0.15706,-0.031104,0.074791,0.27639,-0.085367
107,-0.011372,-0.07024,-0.13667,-0.051165,0.091234,0.56513,-0.089314
108,-0.018278,-0.082079,-0.10773,-0.061689,0.10899,0.75127,-0.086354
109,-0.02354,-0.099838,-0.08175,-0.04985,0.11721,0.83415,-0.080763
110,-0.0265,-0.11529,-0.064978,-0.010386,0.10702,0.83842,-0.075173
111,-0.030118,-0.12582,-0.059058,0.053743,0.07808,0.79797,-0.07287
112,-0.039326,-0.13404,-0.060373,0.1307,0.039931,0.74404,-0.076159
113,-0.05281,-0.14456,-0.058729,0.2014,0.010004,0.69635,-0.0903
114,-0.068595,-0.15772,-0.049192,0.25074,0.0014536,0.66511,-0.10609
115,-0.079777,-0.16495,-0.033735,0.27014,0.013951,0.65294,-0.11529
116,-0.083065,-0.15772,-0.014661,0.26192,0.034011,0.66971,-0.11858
117,-0.08175,-0.13667,0.0093464,0.23035,0.050126,0.72003,-0.1199
118,-0.081421,-0.10674,0.034669,0.18759,0.052757,0.78514,-0.12352
119,-0.08471,-0.074186,0.055717,0.14747,0.042233,0.8177,-0.13141
120,-0.087998,-0.043272,0.068871,0.11393,0.025132,0.76706,-0.14555
121,-0.087669,-0.013345,0.074791,0.085315,0.0060577,0.61775,-0.16956
122,-0.082408,0.014937,0.077751,0.057361,-0.014332,0.39774,-0.19718
123,-0.073857,0.038944,0.079066,0.025132,-0.033735,0.16589,-0.21955
124,-0.067937,0.056703,0.07808,-0.0077547,-0.048863,-0.035708,-0.22316
125,-0.064649,0.06361,0.074462,-0.03538,-0.059058,-0.20409,-0.20639
126,-0.062018,0.062952,0.06624,-0.04985,-0.064649,-0.37806,-0.17087
127,-0.054783,0.05473,0.053086,-0.053138,-0.069582,-0.59084,-0.12779
128,-0.046561,0.044206,0.034669,-0.049521,-0.07024,-0.84735,-0.083723
129,-0.03538,0.042233,0.015924,-0.043272,-0.064978,-1.1216,-0.042286
130,-0.022883,0.048153,0.0030979,-0.042944,-0.057743,-1.3906,-0.004466
131,-0.013017,0.05769,-0.0018351,-0.051823,-0.051823,-1.6458,0.031709
132,-0.0034794,0.06624,0.0001381,-0.066293,-0.047219,-1.8935,0.068543
133,0.0040845,0.072489,0.0070443,-0.079448,-0.043601,-2.1329,0.10965
134,0.015266,0.076764,0.017239,-0.080106,-0.044259,-2.3302,0.16227
135,0.031381,0.077751,0.029736,-0.069582,-0.04689,-2.4029,0.22114
136,0.048153,0.072818,0.045193,-0.051823,-0.048534,-2.2381,0.2777
137,0.059334,0.063938,0.059992,-0.036695,-0.044259,-1.735,0.32276
138,0.061636,0.04881,0.071502,-0.027487,-0.02354,-0.87333,0.35466
139,0.058348,0.032696,0.080053,-0.021567,0.015595,0.24153,0.38294
140,0.058348,0.018555,0.081368,-0.017621,0.065583,1.3755,0.4132
141,0.0692,0.012635,0.076764,-0.012359,0.11524,2.3055,0.45134
142,0.091892,0.01987,0.072818,-0.0051238,0.1524,2.9007,0.49147
143,0.12215,0.038287,0.078409,0.0067154,0.17444,3.1,0.52106
144,0.14681,0.064925,0.093536,0.020528,0.17937,2.9228,0.53192
145,0.16128,0.094523,0.11393,0.033354,0.17181,2.4558,0.51712
146,0.16523,0.1182,0.13366,0.041247,0.15372,1.8362,0.47141
147,0.16227,0.13596,0.1432,0.043877,0.13399,1.2212,0.39807
148,0.15438,0.13958,0.13596,0.041247,0.12215,0.75686,0.32045
149,0.14418,0.12971,0.1159,0.040918,0.12478,0.52238,0.26093
150,0.1376,0.11327,0.091563,0.045851,0.14517,0.51218,0.22179
151,0.13366,0.10209,0.067885,0.056374,0.17411,0.64209,0.19614
152,0.13004,0.1057,0.050784,0.065254,0.19943,0.80027,0.17773
153,0.12478,0.12412,0.039931,0.063281,0.21061,0.90485,0.16227
154,0.11458,0.14616,0.029736,0.04881,0.2014,0.91768,0.13662
155,0.10209,0.16326,0.014608,0.020528,0.17016,0.84862,0.099785
156,0.091234,0.16753,-0.0038083,-0.015319,0.12379,0.73746,0.060979
157,0.079724,0.16095,-0.019265,-0.054454,0.070516,0.62663,0.027763
158,0.06361,0.14944,-0.025842,-0.088327,0.022172,0.53323,0.0030979
159,0.044206,0.14056,-0.02354,-0.11003,-0.011372,0.44641,-0.013674
160,0.026776,0.1376,-0.016305,-0.1176,-0.027158,0.33821,-0.028802
161,0.018884,0.13793,-0.011701,-0.11431,-0.027158,0.18661,-0.045574
162,0.018884,0.13662,-0.011701,-0.10148,-0.019594,-0.0097279,-0.061689
163,0.020199,0.12544,-0.012359,-0.087669,-0.0097279,-0.22842,-0.076159
164,0.018884,0.10011,-0.012688,-0.078132,-0.0064392,-0.42739,-0.086683
165,0.013622,0.068543,-0.010715,-0.074515,-0.011372,-0.56354,-0.092931
166,0.0021113,0.037958,-0.0090702,-0.073857,-0.016963,-0.61583,-0.096549
167,-0.010715,0.015595,-0.0074258,-0.068266,-0.014003,-0.59413,-0.09918
168,-0.022225,0.0030979,-0.010715,-0.053467,-0.00051963,-0.54677,-0.094905
169,-0.033078,0.0030979,-0.016963,-0.030118,0.020199,-0.53657,-0.080763
170,-0.042615,0.016253,-0.024527,-0.0031506,0.043877,-0.58557,-0.056756
171,-0.047877,0.03434,-0.033406,0.018555,0.066569,-0.65562,-0.033406
172,-0.045246,0.049139,-0.041299,0.027763,0.079724,-0.68095,-0.01795
173,-0.029789,0.055059,-0.045903,0.023159,0.081697,-0.60432,-0.0064392
174,0.0001381,0.04881,-0.045574,0.012306,0.079395,-0.4389,0.00046697
175,0.035327,0.032696,-0.043272,0.0014536,0.081039,-0.26789,-0.0015062
176,0.058676,0.0086887,-0.041299,-0.0031506,0.085972,-0.17909,-0.01499
177,0.065254,-0.012359,-0.044588,0.00046697,0.084328,-0.21363,-0.042944
178,0.059663,-0.027816,-0.052481,0.0096753,0.069858,-0.35011,-0.085367
179,0.047495,-0.033735,-0.059387,0.017897,0.04026,-0.52967,-0.1324
180,0.03434,-0.031762,-0.060702,0.022501,0.0021113,-0.70495,-0.17219
181,0.021514,-0.022883,-0.054783,0.023159,-0.033735,-0.84045,-0.19389
182,0.0073732,-0.013017,-0.045574,0.019541,-0.060702,-0.92102,-0.20047
183,-0.0093991,-0.007097,-0.032749,0.013951,-0.076817,-0.9493,-0.19652
184,-0.030118,-0.011043,-0.014661,0.013951,-0.083394,-0.93352,-0.18732
185,-0.058071,-0.030775,0.0080309,0.018555,-0.078132,-0.86413,-0.17482
186,-0.090958,-0.065307,0.036971,0.024803,-0.064978,-0.73324,-0.16364
187,-0.1268,-0.11135,0.070516,0.033025,-0.044588,-0.54545,-0.15344
188,-0.15739,-0.16561,0.10472,0.045193,-0.019594,-0.33037,-0.14095
189,-0.17975,-0.22777,0.12544,0.061636,0.0054,-0.13799,-0.12154
190,-0.19521,-0.29453,0.12511,0.07808,0.023817,-0.016634,-0.097536
191,-0.20935,-0.35471,0.099456,0.091563,0.031381,0.012306,-0.07583
192,-0.21955,-0.39417,0.057032,0.10143,0.027763,-0.043601,-0.057414
193,-0.21757,-0.39878,0.013622,0.10439,0.014279,-0.16035,-0.038997
194,-0.19718,-0.37017,-0.020581,0.10044,-0.011372,-0.31886,-0.014661
195,-0.16495,-0.31689,-0.039984,0.089919,-0.043601,-0.49218,0.016581
196,-0.12944,-0.25441,-0.045246,0.077751,-0.07287,-0.62208,0.049139
197,-0.090958,-0.19422,-0.038339,0.069858,-0.092931,-0.59051,0.074462
198,-0.052152,-0.14292,-0.025842,0.068214,-0.099838,-0.25177,0.094523
199,-0.014003,-0.10378,-0.011043,0.068871,-0.090629,0.44312,0.11426
200,0.015595,-0.075501,0.0034268,0.071831,-0.071884,1.3278,0.13859
201,0.034669,-0.054454,0.013951,0.072818,-0.04985,2.0855,0.15832
202,0.039602,-0.038011,0.021186,0.069858,-0.031762,2.4229,0.16194
203,0.034011,-0.022554,0.022501,0.061636,-0.02946,2.2348,0.14024
204,0.023159,-0.0061104,0.020528,0.052099,-0.047877,1.6461,0.096496
205,0.013622,0.0086887,0.018555,0.043549,-0.077146,0.91143,0.04026
206,0.012635,0.019541,0.019212,0.033025,-0.10247,0.27014,-0.01499
207,0.01987,0.02579,0.023159,0.015924,-0.1176,-0.14259,-0.061031
208,0.031052,0.027434,0.031052,-0.0034794,-0.12549,-0.32281,-0.088327
209,0.037958,0.028092,0.038287,-0.017292,-0.1324,-0.33564,-0.095562
210,0.04026,0.031381,0.04026,-0.024856,-0.13963,-0.24849,-0.084381
211,0.037958,0.036642,0.032038,-0.028802,-0.14095,-0.11168,-0.060045
212,0.034669,0.041575,0.015924,-0.030775,-0.13305,0.04881,-0.025514
213,0.035656,0.045851,-0.0077547,-0.030447,-0.11793,0.22147,0.0050711
214,0.040589,0.051113,-0.034064,-0.032091,-0.09918,0.4053,0.02283
215,0.049797,0.060979,-0.058071,-0.033735,-0.078461,0.6046,0.029078
216,0.056046,0.078409,-0.077475,-0.033078,-0.056756,0.81902,0.028421
217,0.052428,0.099785,-0.091287,-0.028144,-0.03242,1.0371,0.02875
218,0.039931,0.12116,-0.099838,-0.019594,-0.0057815,1.2285,0.035985
219,0.024474,0.13728,-0.10411,-0.0097279,0.023159,1.3439,0.046837
220,0.013622,0.14616,-0.10411,-0.002164,0.045193,1.3291,0.05769
221,0.0093464,0.14352,-0.097207,-0.0011774,0.050126,1.1489,0.065254
222,0.0057288,0.12938,-0.08175,-0.0067681,0.029736,0.81211,0.062952
223,0.0011247,0.10801,-0.061031,-0.019923,-0.015319,0.38426,0.042891
224,-0.0067681,0.088275,-0.041957,-0.033735,-0.07287,-0.042286,0.0096753
225,-0.018278,0.075449,-0.029789,-0.047548,-0.13141,-0.39615,-0.033078
226,-0.027487,0.075449,-0.021238,-0.058071,-0.17942,-0.63852,-0.078461
227,-0.029789,0.092221,-0.016305,-0.066622,-0.20902,-0.77007,-0.11661
228,-0.020909,0.12116,-0.010386,-0.074515,-0.21757,-0.81743,-0.1393
229,0.00079584,0.1501,-0.0051238,-0.080763,-0.20639,-0.82104,-0.14456
230,0.030065,0.1695,-0.0051238,-0.07879,-0.1837,-0.81184,-0.13832
231,0.059334,0.17049,-0.015976,-0.068924,-0.15805,-0.80296,-0.12812
232,0.080382,0.1478,-0.034722,-0.060045,-0.13272,-0.8,-0.12286
233,0.086301,0.10505,-0.056427,-0.056098,-0.11102,-0.80131,-0.12352
234,0.078409,0.053086,-0.065635,-0.054783,-0.091945,-0.80296,-0.12976
235,0.057361,0.0060577,-0.056756,-0.052152,-0.071555,-0.81216,-0.1347
236,0.030065,-0.025842,-0.034722,-0.048863,-0.043601,-0.84242,-0.13305
237,0.0040845,-0.041628,-0.0093991,-0.045903,-0.0064392,-0.90326,-0.12483
238,-0.015976,-0.039326,0.012635,-0.035708,0.035327,-0.99666,-0.11135
239,-0.024198,-0.021238,0.027763,-0.020909,0.074791,-1.0914,-0.093589
240,-0.024198,0.0014536,0.033683,-0.004466,0.10735,-1.1338,-0.076159
241,-0.019923,0.020857,0.028421,0.011977,0.1307,-1.0808,-0.059387
242,-0.016963,0.030065,0.010991,0.026447,0.14385,-0.92694,-0.043601
243,-0.01499,0.028421,-0.01499,0.039273,0.14879,-0.70462,-0.034722
244,-0.017292,0.015924,-0.040313,0.050455,0.15076,-0.46488,-0.034064
245,-0.02354,-0.0080836,-0.057414,0.059334,0.1501,-0.26296,-0.035051
246,-0.029789,-0.041628,-0.062347,0.062294,0.1501,-0.13207,-0.028144
247,-0.033735,-0.085696,-0.057414,0.060979,0.15043,-0.087341,-0.010715
248,-0.03242,-0.13568,-0.050179,0.05769,0.14879,-0.12286,0.010991
249,-0.02354,-0.18863,-0.044917,0.053086,0.1455,-0.21428,0.028421
250,-0.0061104,-0.24224,-0.041628,0.051441,0.13728,-0.33037,0.037958
251,0.012306,-0.28894,-0.035051,0.054401,0.11952,-0.43956,0.043877
252,0.022501,-0.32149,-0.025842,0.060321,0.08959,-0.52375,0.044864
253,0.01691,-0.33432,-0.014003,0.063281,0.047166,-0.57472,0.037958
254,-0.0047949,-0.32774,-0.00051963,0.059663,-0.0067681,-0.59084,0.022501
255,-0.032749,-0.30472,0.012306,0.048153,-0.061689,-0.57275,0.00046697
256,-0.056427,-0.26855,0.019541,0.031052,-0.10839,-0.52473,-0.023211
257,-0.068266,-0.22579,0.018555,0.010333,-0.14621,-0.45501,-0.042286
258,-0.06432,-0.17613,0.012635,-0.0074258,-0.17745,-0.37674,-0.054454
259,-0.048205,-0.12154,0.0083598,-0.016305,-0.19981,-0.30176,-0.061031
260,-0.027487,-0.065307,0.011977,-0.016963,-0.2156,-0.23007,-0.063662
261,-0.0064392,-0.014003,0.023159,-0.012688,-0.22579,-0.15476,-0.062347
262,0.010662,0.032696,0.033025,-0.0093991,-0.23533,-0.066293,-0.051823
263,0.02283,0.080382,0.035985,-0.0061104,-0.24487,0.04026,-0.02946
264,0.038287,0.1307,0.031052,0.0014536,-0.2521,0.16293,-0.00051963
265,0.055717,0.17345,0.01691,0.016581,-0.25375,0.30007,0.027105
266,0.067227,0.19549,-0.0034794,0.032367,-0.24783,0.44214,0.042233
267,0.065912,0.19384,-0.0265,0.040918,-0.23204,0.57171,0.044535
268,0.053415,0.18134,-0.048205,0.039602,-0.2054,0.68122,0.036971
269,0.033683,0.16687,-0.060373,0.026776,-0.16923,0.7664,0.028421
270,0.013951,0.15767,-0.061689,0.013622,-0.12352,0.82395,0.024803
271,0.0017824,0.15207,-0.053796,0.010991,-0.065635,0.8519,0.031052
272,0.00079584,0.1432,-0.04097,0.022501,-0.00019077,0.85322,0.041904
273,0.0080309,0.12807,-0.026829,0.042562,0.07512,0.83349,0.057032
274,0.018555,0.10735,-0.021896,0.065912,0.15931,0.80356,0.072489
275,0.023488,0.088603,-0.028802,0.080382,0.24054,0.76607,0.086301
276,0.027763,0.077093,-0.044259,0.084328,0.3027,0.71444,0.10011
277,0.033354,0.076435,-0.056756,0.079395,0.33558,0.64242,0.10866
278,0.03434,0.084328,-0.057743,0.072818,0.34578,0.54836,0.10801
279,0.026776,0.090905,-0.047219,0.067227,0.35334,0.43128,0.094194
280,0.016581,0.095181,-0.0265,0.064925,0.36452,0.28691,0.073804
281,0.010333,0.099127,0.00046697,0.055388,0.35827,0.10965,0.053086
282,0.0077021,0.10373,0.029407,0.032696,0.29612,-0.1005,0.038616
283,0.0044134,0.10538,0.057361,-0.0038083,0.16983,-0.33366,0.030394
284,-0.00051963,0.1057,0.083342,-0.04689,0.010333,-0.57867,0.028092
285,0.00046697,0.10834,0.10505,-0.07583,-0.12779,-0.83584,0.029078
286,0.010991,0.11623,0.12116,-0.079777,-0.20869,-1.1131,0.032367
287,0.024145,0.12281,0.12938,-0.058729,-0.22448,-1.4133,0.039273
288,0.032696,0.12511,0.12544,-0.026829,-0.1883,-1.7113,0.048153
289,0.034998,0.11985,0.10866,0.0024402,-0.12187,-1.95,0.059663
290,0.034011,0.10932,0.077751,0.025132,-0.043601,-2.0536,0.076106
291,0.034669,0.097483,0.041575,0.040589,0.030394,-1.9681,0.10044
292,0.036971,0.089919,0.01132,0.051113,0.089919,-1.7004,0.13333
293,0.039602,0.090577,-0.0064392,0.054072,0.13103,-1.3111,0.16852
294,0.042562,0.097154,-0.013017,0.049139,0.14747,-0.86478,0.19976
295,0.041904,0.10077,-0.012688,0.039273,0.13958,-0.39352,0.21522
296,0.036314,0.098798,-0.0080836,0.029736,0.1205,0.094194,0.21028
297,0.027434,0.09255,-0.0011774,0.021843,0.10899,0.57631,0.18792
298,0.017897,0.086301,0.0096753,0.013951,0.10965,1.0022,0.16161
299,0.0083598,0.084657,0.02283,0.0080309,0.11623,1.3202,0.13728
300,-0.0011774,0.084657,0.037629,0.0017824,0.11689,1.5001,0.12017
301,-0.011043,0.081697,0.047824,-0.0028217,0.10472,1.5517,0.10932
302,-0.016963,0.074133,0.051441,-0.0041372,0.086301,1.5172,0.10439
303,-0.018278,0.067227,0.049139,-0.0041372,0.070187,1.4478,0.10406
304,-0.01795,0.05769,0.043877,-0.0064392,0.059334,1.3794,0.10143
305,-0.015319,0.047824,0.037629,-0.0090702,0.04881,1.3222,0.09551
306,-0.011043,0.040918,0.030723,-0.0038083,0.034998,1.2594,0.087617
307,-0.004466,0.041247,0.020857,0.0083598,0.019212,1.1735,0.081697
308,0.00079584,0.046508,0.0093464,0.018555,0.0030979,1.0597,0.080053
309,0.0044134,0.053743,0.00046697,0.020857,-0.01203,0.92952,0.081697
310,0.0077021,0.06361,-0.0011774,0.011648,-0.020252,0.79468,0.079724
311,0.012964,0.072818,0.0021113,-0.0024928,-0.018278,0.66642,0.071502
312,0.019541,0.081039,0.0044134,-0.01499,-0.0024928,0.55296,0.054401
313,0.02579,0.090577,-0.0018351,-0.021238,0.021514,0.45365,0.02875
314,0.031052,0.10538,-0.014332,-0.024198,0.040918,0.36189,-0.0057815
315,0.032038,0.12313,-0.025185,-0.026171,0.049139,0.27737,-0.040641
316,0.029736,0.14024,-0.029789,-0.0265,0.044206,0.20305,-0.065635
317,0.02579,0.1501,-0.027158,-0.019265,0.031381,0.14188,-0.074515
318,0.020199,0.14418,-0.019923,-0.010386,0.013951,0.088932,-0.073528
319,0.011977,0.12149,-0.007097,-0.0054526,-0.0057815,0.032038,-0.070897
320,-0.002164,0.08663,0.010662,-0.0057815,-0.030118,-0.044588,-0.073199
321,-0.018278,0.047495,0.034011,-0.010715,-0.058729,-0.15739,-0.081421
322,-0.03242,0.014937,0.054401,-0.01795,-0.088327,-0.33268,-0.098193
323,-0.038668,0.0017824,0.066898,-0.030447,-0.11003,-0.60268,-0.11924
324,-0.039326,0.013622,0.070516,-0.043272,-0.12187,-0.98449,-0.13634
325,-0.036695,0.04618,0.06624,-0.054125,-0.12615,-1.4212,-0.13667
326,-0.033078,0.081697,0.06065,-0.059058,-0.12779,-1.7708,-0.11825
327,-0.030118,0.10373,0.059663,-0.052152,-0.12516,-1.8734,-0.086025
328,-0.027158,0.096496,0.06361,-0.034722,-0.11365,-1.662,-0.04689
329,-0.019265,0.061636,0.067556,-0.014003,-0.09622,-1.2124,-0.01499
330,-0.0090702,0.0060577,0.068214,0.0014536,-0.080434,-0.69311,-0.0008485
331,-0.0038083,-0.06136,0.0692,0.0073732,-0.074844,-0.26888,-0.012688
332,-0.007097,-0.12911,0.073804,0.0030979,-0.080763,-0.019923,-0.048205
333,-0.015648,-0.18238,0.086959,-0.0051238,-0.09918,0.058019,-0.094905
334,-0.025514,-0.21987,0.1034,-0.013017,-0.1222,0.022501,-0.13568
335,-0.028802,-0.24585,0.11557,-0.014003,-0.14193,-0.055769,-0.1564
336,-0.019923,-0.26559,0.11393,-0.0054526,-0.15344,-0.11825,-0.14917
337,-0.0011774,-0.28335,0.092879,0.011977,-0.14884,-0.13174,-0.11957
338,0.017239,-0.29814,0.050455,0.032038,-0.12516,-0.071884,-0.073857
339,0.026447,-0.30571,-0.0097279,0.049468,-0.082408,0.073147,-0.026171
340,0.023488,-0.30702,-0.079119,0.061636,-0.028802,0.28264,0.012964
341,0.01132,-0.30604,-0.14456,0.069858,0.024145,0.48982,0.0373
342,-0.011043,-0.309,-0.19817,0.071831,0.063938,0.60591,0.043877
343,-0.03538,-0.31853,-0.23369,0.068543,0.078737,0.57401,0.03434
344,-0.054125,-0.3307,-0.25506,0.058019,0.066569,0.41451,0.014279
345,-0.062018,-0.34156,-0.26493,0.04026,0.036642,0.22212,-0.0057815
346,-0.061031,-0.34846,-0.2646,0.017897,0.0060577,0.13662,-0.01499
347,-0.059387,-0.35142,-0.25671,-0.0011774,-0.013017,0.26948,-0.013674
348,-0.058729,-0.34747,-0.24487,-0.0084125,-0.016305,0.64538,-0.0028217
349,-0.059058,-0.32939,-0.22875,-0.0015062,-0.0028217,1.1808,0.01691
350,-0.061689,-0.29354,-0.21264,0.010333,0.024474,1.7257,0.043549
351,-0.064978,-0.24289,-0.19685,0.018884,0.061636,2.1233,0.079395
352,-0.071884,-0.18436,-0.17942,0.025132,0.1034,2.2693,0.11985
353,-0.081421,-0.12582,-0.16068,0.031381,0.13497,2.1496,0.15372
354,-0.088985,-0.071555,-0.13897,0.037629,0.14385,1.8451,0.17181
355,-0.092931,-0.020252,-0.11497,0.045522,0.12873,1.4731,0.17246
356,-0.091945,0.030723,-0.088327,0.049797,0.10209,1.1117,0.16063
357,-0.078132,0.072489,-0.058729,0.052099,0.080711,0.78317,0.14648
358,-0.049521,0.10176,-0.023869,0.053086,0.074791,0.48752,0.13826
359,-0.014003,0.11458,0.012306,0.05473,0.082355,0.23988,0.13464
360,0.018226,0.11853,0.04618,0.059663,0.091234,0.061636,0.13464
361,0.04026,0.12346,0.068214,0.065912,0.088932,-0.036695,0.13826
362,0.049797,0.13695,0.074462,0.067885,0.077422,-0.056427,0.14221
363,0.048153,0.15668,0.062952,0.065912,0.064267,-0.014003,0.14254
364,0.041575,0.17214,0.038944,0.060979,0.059663,0.058676,0.13563
365,0.042233,0.17115,0.014608,0.056374,0.062623,0.12182,0.1205
366,0.050126,0.14089,-0.007097,0.050126,0.069529,0.14714,0.099127
367,0.056703,0.080053,-0.024198,0.040589,0.074791,0.12478,0.076435
368,0.053743,0.0030979,-0.041299,0.027105,0.080053,0.064596,0.053743
369,0.038616,-0.071884,-0.05544,0.010333,0.088603,-0.0041372,0.034011
370,0.016253,-0.13207,-0.061031,-0.0093991,0.10242,-0.057414,0.021514
371,0.0001381,-0.16693,-0.061689,-0.026829,0.11656,-0.087012,0.015595
372,-0.0028217,-0.17679,-0.059058,-0.038339,0.12281,-0.095562,0.011977
373,0.011977,-0.16199,-0.053796,-0.045574,0.11294,-0.079119,0.010004
374,0.04026,-0.13174,-0.045574,-0.054454,0.08959,-0.022883,0.014279
375,0.07512,-0.090629,-0.034064,-0.068266,0.059005,0.0692,0.021843
376,0.1113,-0.039655,-0.01499,-0.087012,0.02283,0.16391,0.027105
377,0.13991,0.022501,0.012635,-0.10609,-0.019923,0.20239,0.027434
378,0.15273,0.090577,0.044206,-0.11825,-0.069582,0.12346,0.017568
379,0.14681,0.15668,0.074791,-0.12154,-0.12089,-0.094576,0.00046697
380,0.12774,0.207,0.10209,-0.11793,-0.16726,-0.44285,-0.01499
381,0.10307,0.23528,0.12346,-0.10872,-0.20179,-0.87991,-0.023211
382,0.082684,0.24153,0.14418,-0.095562,-0.22185,-1.3433,-0.028473
383,0.0692,0.231,0.16194,-0.079119,-0.22514,-1.7567,-0.040641
384,0.061307,0.21851,0.17181,-0.063991,-0.21297,-2.0434,-0.063662
385,0.052428,0.21456,0.17707,-0.053467,-0.19159,-2.1592,-0.089643
386,0.042891,0.22443,0.18661,-0.047877,-0.16528,-2.0895,-0.11102
387,0.035656,0.24745,0.20864,-0.04689,-0.137,-1.8678,-0.12549
388,0.033025,0.27606,0.24383,-0.041628,-0.10674,-1.5636,-0.1324
389,0.033025,0.30533,0.27869,-0.032091,-0.071555,-1.2469,-0.13075
390,0.033683,0.32572,0.29743,-0.021567,-0.034722,-0.96443,-0.12779
391,0.03434,0.33032,0.29415,-0.011701,-0.002164,-0.73324,-0.12713
392,0.0373,0.31651,0.26422,0.00046697,0.02283,-0.55104,-0.12845
393,0.043549,0.2948,0.21653,0.013622,0.043549,-0.40075,-0.12516
394,0.050126,0.27408,0.16095,0.020528,0.062623,-0.2623,-0.11825
395,0.054072,0.25994,0.10866,0.020528,0.085315,-0.11431,-0.11233
396,0.052428,0.25205,0.065912,0.015924,0.10899,0.061307,-0.11069
397,0.047495,0.2412,0.038616,0.011977,0.12708,0.27112,-0.10905
398,0.0373,0.22508,0.02579,0.0077021,0.13432,0.50659,-0.097864
399,0.01987,0.20371,0.021843,0.0040845,0.13201,0.74996,-0.074515
400,-0.0057815,0.17016,0.018555,0.0011247,0.12609,0.98773,-0.046232
401,-0.035051,0.12544,0.013951,0.0011247,0.11787,1.2156,-0.025514
402,-0.062347,0.07512,0.0060577,0.002769,0.1034,1.4307,-0.015976
403,-0.08175,0.02875,-0.0031506,0.0030979,0.086959,1.6152,-0.013345
404,-0.091287,-0.0057815,-0.0090702,0.0040845,0.07216,1.7214,-0.010386
405,-0.089314,-0.026171,-0.0087413,0.0070443,0.063281,1.682,-0.0051238
406,-0.07879,-0.042615,-0.0018351,0.010004,0.064596,1.4547,0.0017824
407,-0.063662,-0.06136,0.0086887,0.016253,0.071831,1.0486,0.0086887
408,-0.052152,-0.087341,0.01691,0.02579,0.080053,0.52402,0.011648
409,-0.045903,-0.12187,0.020528,0.035985,0.077422,-0.025185,0.0044134
410,-0.051823,-0.15805,0.014608,0.04026,0.05473,-0.49842,-0.01499
411,-0.070568,-0.18797,-0.0028217,0.035985,0.015266,-0.82302,-0.042615
412,-0.093918,-0.20902,-0.029131,0.025461,-0.030118,-0.97824,-0.072542
413,-0.11233,-0.21659,-0.057743,0.01691,-0.074186,-0.99041,-0.097536
414,-0.11891,-0.20902,-0.076488,0.012306,-0.10641,-0.90523,-0.11858
415,-0.11431,-0.18896,-0.082736,0.010662,-0.12154,-0.76218,-0.13568
416,-0.10214,-0.16364,-0.079448,0.0083598,-0.12023,-0.58755,-0.14851
417,-0.087669,-0.14226,-0.072213,0.0077021,-0.11102,-0.4024,-0.15607
418,-0.07287,-0.13009,-0.062676,0.0060577,-0.097536,-0.2281,-0.15673
419,-0.063662,-0.13009,-0.050836,0.0077021,-0.082736,-0.094247,-0.15213
420,-0.06136,-0.13766,-0.037353,0.017897,-0.06728,-0.038339,-0.14095
421,-0.065964,-0.14588,-0.024856,0.0373,-0.060373,-0.087998,-0.12056
422,-0.07287,-0.15377,-0.010715,0.059334,-0.065307,-0.24322,-0.091616
423,-0.07879,-0.15607,0.0040845,0.077093,-0.082736,-0.4662,-0.062347
424,-0.084052,-0.15377,0.022501,0.085972,-0.1074,-0.69969,-0.044588
425,-0.092274,-0.14983,0.039931,0.084986,-0.13305,-0.88616,-0.039655
426,-0.10313,-0.14687,0.052099,0.076435,-0.15607,-0.99041,-0.038668
427,-0.11036,-0.14522,0.052757,0.064267,-0.17581,-1.0115,-0.03538
428,-0.11102,-0.13601,0.038616,0.055717,-0.1883,-0.96838,-0.026829
429,-0.10641,-0.11727,0.015595,0.051441,-0.19488,-0.88221,-0.016963
430,-0.097864,-0.085039,-0.01203,0.048482,-0.19784,-0.76711,-0.0061104
431,-0.083394,-0.044259,-0.039326,0.047495,-0.19521,-0.62668,0.0060577
432,-0.060373,-0.0090702,-0.063662,0.048482,-0.1837,-0.45173,0.018555
433,-0.032749,0.015924,-0.080763,0.052099,-0.16298,-0.22744,0.035985
434,-0.0067681,0.027434,-0.089972,0.052099,-0.13864,0.055717,0.063281
435,0.010333,0.024474,-0.098522,0.046508,-0.11332,0.38491,0.1011
436,0.014937,0.0067154,-0.10444,0.035985,-0.090629,0.69997,0.1432
437,0.016581,-0.018607,-0.11135,0.02579,-0.073528,0.90979,0.17871
438,0.023817,-0.038339,-0.11529,0.013293,-0.066293,0.94136,0.19384
439,0.036971,-0.045246,-0.11628,0.00046697,-0.066293,0.79304,0.18825
440,0.049468,-0.038339,-0.11003,-0.0093991,-0.066951,0.52205,0.16391
441,0.057361,-0.0265,-0.096878,-0.01203,-0.067937,0.21324,0.12346
442,0.059992,-0.016305,-0.077803,-0.0084125,-0.065635,-0.061689,0.077422
443,0.057032,-0.0054526,-0.054783,-0.0015062,-0.063004,-0.27249,0.037629
444,0.051441,0.0073732,-0.031762,0.0080309,-0.058071,-0.41588,0.0090175
445,0.046837,0.021843,-0.010057,0.019212,-0.048534,-0.49974,-0.011372
446,0.047166,0.035985,0.0057288,0.025132,-0.036366,-0.53559,-0.024198
447,0.054072,0.047824,0.012306,0.026447,-0.027816,-0.53855,-0.027487
448,0.06624,0.059992,0.010662,0.029078,-0.026171,-0.51947,-0.020252
449,0.07808,0.06624,-0.00019077,0.034669,-0.028144,-0.48428,-0.0087413
450,0.084986,0.068871,-0.016305,0.041247,-0.028144,-0.44186,-0.0038083
451,0.088932,0.067556,-0.034722,0.046508,-0.019594,-0.39516,-0.0041372
452,0.090248,0.065912,-0.054454,0.050784,-0.0077547,-0.35372,-0.007097
453,0.086959,0.062623,-0.06728,0.053086,-0.0015062,-0.32347,-0.010057
454,0.076435,0.057032,-0.07024,0.049468,-0.0034794,-0.30505,-0.0097279
455,0.057361,0.04618,-0.06728,0.0373,-0.010715,-0.29157,-0.0084125
456,0.0373,0.034669,-0.063004,0.020857,-0.024856,-0.27315,-0.0077547
457,0.021514,0.027434,-0.056427,0.0044134,-0.039655,-0.24257,-0.0061104
458,0.012306,0.025461,-0.047877,-0.011043,-0.052481,-0.19916,-0.0047949
459,0.013293,0.032696,-0.039326,-0.026171,-0.056756,-0.14358,-0.0038083
460,0.027105,0.050126,-0.035051,-0.038668,-0.050836,-0.080106,-0.0034794
461,0.049797,0.074791,-0.031104,-0.044917,-0.038011,-0.0093991,-0.0011774
462,0.07808,0.099456,-0.027158,-0.044259,-0.018278,0.0692,0.0037556
463,0.10242,0.12182,-0.023211,-0.035708,0.0073732,0.16293,0.013622
464,0.11754,0.13991,-0.018936,-0.022225,0.0373,0.27902,0.027105
465,0.12511,0.15438,-0.016305,-0.012359,0.070845,0.41648,0.043549
466,0.12511,0.16326,-0.01203,-0.0034794,0.10242,0.57039,0.063281
467,0.11623,0.16786,-0.0061104,0.002769,0.12741,0.71608,0.080382
468,0.1034,0.16983,0.002769,0.0057288,0.14188,0.82691,0.091234
469,0.088275,0.16885,0.015924,0.0063866,0.14714,0.87788,0.097154
470,0.074791,0.15865,0.031709,-0.00019077,0.14188,0.86046,0.094523
471,0.055388,0.13596,0.042233,-0.012688,0.1284,0.78317,0.083342
472,0.030394,0.10176,0.04618,-0.026171,0.11228,0.65985,0.069858
473,0.0017824,0.062623,0.041575,-0.036037,0.094194,0.51383,0.06065
474,-0.022883,0.01987,0.027763,-0.042286,0.073147,0.36584,0.056046
475,-0.043601,-0.027158,0.010662,-0.042944,0.05177,0.21752,0.051441
476,-0.065964,-0.079119,-0.0077547,-0.037682,0.032696,0.060321,0.044535
477,-0.094247,-0.1324,-0.022883,-0.028144,0.018226,-0.11233,0.037629
478,-0.12154,-0.17877,-0.031104,-0.015648,0.01132,-0.29354,0.035327
479,-0.13799,-0.20442,-0.033735,-0.0031506,0.0090175,-0.46093,0.039273
480,-0.13141,-0.20179,-0.029789,0.0063866,0.0080309,-0.58886,0.046837
481,-0.10346,-0.17679,-0.027158,0.0073732,0.0060577,-0.65825,0.054072
482,-0.065635,-0.14193,-0.025842,0.00079584,0.0017824,-0.66648,0.059663
483,-0.032091,-0.11201,-0.023869,-0.007097,-0.004466,-0.62405,0.06065
484,-0.0093991,-0.091945,-0.020909,-0.011701,-0.011701,-0.55071,0.054072
485,0.0040845,-0.084052,-0.018607,-0.011701,-0.01795,-0.46126,0.038616
486,0.012306,-0.08175,-0.020252,-0.0087413,-0.01795,-0.36754,0.022172
487,0.017239,-0.081092,-0.029789,-0.0064392,-0.010715,-0.28104,0.015595
488,0.018226,-0.076159,-0.049521,-0.0008485,0.0044134,-0.20508,0.019212
489,0.015595,-0.065307,-0.074844,0.0080309,0.023159,-0.13864,0.028421
490,0.010662,-0.045903,-0.095562,0.018884,0.041575,-0.073199,0.032038
491,0.0034268,-0.024856,-0.1051,0.029736,0.053415,-0.0034794,0.031052
492,-0.0015062,-0.0041372,-0.10181,0.042233,0.054072,0.083342,0.032367
493,0.0011247,0.010991,-0.0903,0.051441,0.050126,0.19779,0.039602
494,0.0073732,0.022501,-0.078132,0.05473,0.049139,0.33657,0.053415
495,0.010991,0.032696,-0.068924,0.054072,0.060321,0.49114,0.069858
496,0.0070443,0.041247,-0.067937,0.054072,0.090248,0.64636,0.082026
497,-0.0028217,0.046837,-0.069911,0.055059,0.1376,0.79238,0.083342
498,-0.014661,0.049139,-0.072213,0.057361,0.19154,0.92195,0.077751
499,-0.019594,0.042233,-0.066622,0.063281,0.23857,1.0216,0.073804
500,-0.010386,0.027763,-0.051165,0.074133,0.27145,1.0782,0.074791
501,0.010991,0.013293,-0.028473,0.088932,0.28461,1.0966,0.081697
502,0.037629,0.0034268,-0.00051963,0.10538,0.27737,1.1061,0.096825
503,0.06065,0.0001381,0.030065,0.11787,0.25698,1.1331,0.11623
504,0.074462,-0.0018351,0.058676,0.12478,0.23002,1.1673,0.13201
505,0.075449,-0.0077547,0.080053,0.12281,0.20009,1.1647,0.14188
506,0.064596,-0.01499,0.093536,0.11294,0.17279,1.0768,0.14681
507,0.051113,-0.019265,0.10077,0.095181,0.14517,0.87854,0.14714
508,0.037629,-0.021567,0.10603,0.074791,0.1159,0.575,0.1432
509,0.02283,-0.018936,0.1136,0.056703,0.085644,0.21456,0.13432
510,0.0073732,-0.014003,0.12379,0.043549,0.059992,-0.13272,0.12149
511,-0.0084125,-0.0067681,0.13201,0.037958,0.044864,-0.40864,0.10965
512,-0.023211,0.0014536,0.13234,0.040918,0.039602,-0.57834,0.10307
513,-0.037024,0.0083598,0.12182,0.049797,0.044535,-0.61912,0.10274
514,-0.050836,0.0093464,0.10143,0.056046,0.05769,-0.51717,0.10702
515,-0.059058,0.0050711,0.077751,0.055717,0.072489,-0.2669,0.1113
516,-0.056427,0.0021113,0.062294,0.048482,0.083999,0.093865,0.11426
517,-0.038997,0.002769,0.05473,0.042891,0.091234,0.48851,0.1205
518,-0.010057,0.0093464,0.050784,0.045522,0.094194,0.82428,0.13004
519,0.020857,0.021843,0.046837,0.056046,0.099785,1.0334,0.14451
520,0.048482,0.035327,0.04322,0.067885,0.1057,1.0861,0.15635
521,0.064596,0.044864,0.036642,0.074791,0.1034,0.99167,0.15438
522,0.064596,0.047166,0.025461,0.073147,0.087288,0.79271,0.1307
523,0.052428,0.041247,0.012635,0.06624,0.058348,0.54672,0.083342
524,0.034011,0.030065,0.00079584,0.056703,0.024145,0.30566,0.018555
525,0.015595,0.01691,-0.0084125,0.043549,-0.01203,0.093865,-0.05281
526,-0.0018351,0.0024402,-0.011043,0.025461,-0.044588,-0.086354,-0.11825
527,-0.015648,-0.012359,-0.0061104,0.0034268,-0.076817,-0.23961,-0.17581
528,-0.028473,-0.035708,0.0014536,-0.020909,-0.11135,-0.37674,-0.22612
529,-0.042286,-0.064978,0.010333,-0.045246,-0.14654,-0.50829,-0.26592
530,-0.057743,-0.089972,0.019212,-0.069253,-0.17877,-0.63688,-0.29058
531,-0.069253,-0.10148,0.033025,-0.092603,-0.20475,-0.75626,-0.30078
532,-0.073528,-0.093589,0.050784,-0.11201,-0.22514,-0.85919,-0.2942
533,-0.068924,-0.063991,0.069858,-0.12286,-0.24191,-0.94338,-0.27315
534,-0.055769,-0.020252,0.084657,-0.12384,-0.25704,-0.99962,-0.24289
535,-0.03538,0.030065,0.086959,-0.11431,-0.27052,-1.0177,-0.21428
536,-0.013017,0.069858,0.074133,-0.10346,-0.28236,-0.99666,-0.19258
537,0.0057288,0.090905,0.048482,-0.096549,-0.28894,-0.95391,-0.17877
538,0.015266,0.094194,0.015924,-0.095562,-0.29157,-0.92003,-0.16561
539,0.018884,0.086959,-0.014003,-0.098522,-0.28598,-0.93352,-0.14687
540,0.020857,0.079066,-0.034393,-0.1051,-0.27545,-1.0213,-0.12812
541,0.025461,0.079395,-0.041299,-0.11003,-0.26756,-1.1881,-0.11299
542,0.034669,0.088603,-0.040313,-0.11332,-0.26657,-1.4281,-0.10313
543,0.04618,0.10274,-0.038997,-0.11299,-0.27381,-1.7189,-0.094905
544,0.055388,0.11261,-0.040641,-0.10609,-0.28663,-2.0346,-0.085696
545,0.057361,0.11721,-0.048534,-0.092931,-0.29749,-2.3236,-0.074515
546,0.055388,0.1205,-0.055112,-0.078461,-0.29913,-2.4835,-0.055112
547,0.051441,0.12675,-0.054783,-0.067937,-0.28137,-2.3772,-0.024856
548,0.047824,0.133,-0.048205,-0.062018,-0.23994,-1.9274,0.0067154
549,0.037958,0.13234,-0.041628,-0.062347,-0.18008,-1.1789,0.031381
550,0.024474,0.12379,-0.037682,-0.068924,-0.11365,-0.28663,0.042562
551,0.0086887,0.1113,-0.036695,-0.080763,-0.052481,0.5306,0.04322
552,-0.0074258,0.098469,-0.037682,-0.094247,0.0050711,1.1117,0.041247
553,-0.024527,0.088275,-0.037682,-0.10313,0.061636,1.4218,0.044206
554,-0.041628,0.079724,-0.0265,-0.10115,0.1159,1.5152,0.055059
555,-0.054783,0.074791,0.0011247,-0.08471,0.16589,1.4827,0.074133
556,-0.062676,0.072818,0.038944,-0.055769,0.21094,1.4182,0.10242
557,-0.067937,0.069858,0.076764,-0.020581,0.25402,1.384,0.13366
558,-0.068924,0.06065,0.10538,0.012306,0.29053,1.406,0.16227
559,-0.070568,0.038287,0.12248,0.036314,0.31092,1.4781,0.18299
560,-0.074186,0.0001381,0.12544,0.043877,0.3096,1.5905,0.19779
561,-0.076817,-0.042286,0.11656,0.037629,0.2902,1.7431,0.21094
562,-0.07583,-0.076817,0.10077,0.030394,0.26586,1.953,0.22114
563,-0.066951,-0.092931,0.081368,0.033683,0.25205,2.2187,0.22475
564,-0.048534,-0.083723,0.059992,0.050126,0.25468,2.4617,0.21456
565,-0.024198,-0.054783,0.034669,0.069858,0.26718,2.5591,0.18529
566,-0.0018351,-0.014332,0.0060577,0.080711,0.2708,2.4061,0.1376
567,0.012635,0.031709,-0.021896,0.079395,0.25271,1.9898,0.083342
568,0.016253,0.070187,-0.04689,0.064925,0.2139,1.3988,0.036314
569,0.0093464,0.091892,-0.065635,0.047495,0.16161,0.77692,0.0063866
570,-0.0051238,0.088932,-0.077475,0.034669,0.1034,0.24482,-0.002164
571,-0.020909,0.065583,-0.085367,0.029407,0.04618,-0.137,0.0070443
572,-0.033735,0.030065,-0.091287,0.031052,-0.0008485,-0.38069,0.018884
573,-0.034722,-0.0074258,-0.10214,0.037958,-0.031762,-0.52835,0.021514
574,-0.023211,-0.041957,-0.11431,0.042891,-0.046232,-0.59709,0.016253
575,-0.0034794,-0.068266,-0.12384,0.041575,-0.048534,-0.58919,0.0057288
576,0.017239,-0.085039,-0.12713,0.03434,-0.044588,-0.52769,-0.0087413
577,0.033354,-0.093589,-0.12384,0.022501,-0.04097,-0.48922,-0.024198
578,0.040918,-0.094576,-0.11431,0.010991,-0.034393,-0.55729,-0.033735
579,0.04026,-0.092274,-0.098522,0.0044134,-0.021238,-0.76283,-0.029789
580,0.038616,-0.087998,-0.079448,0.0054,0.0030979,-1.0621,-0.011043
581,0.036971,-0.082079,-0.056098,0.015266,0.04026,-1.3502,0.01987
582,0.03434,-0.076488,-0.031433,0.031381,0.084657,-1.5163,0.048482
583,0.031381,-0.07287,-0.0093991,0.049468,0.12609,-1.4857,0.067227
584,0.032038,-0.071884,0.0073732,0.06361,0.15438,-1.2236,0.071831
585,0.034669,-0.070568,0.01691,0.068543,0.16227,-0.77336,0.062952
586,0.033354,-0.064978,0.022501,0.064925,0.14616,-0.26296,0.039931
587,0.029078,-0.060373,0.024803,0.058676,0.10998,0.14912,0.0047422
588,0.023159,-0.057414,0.022501,0.052099,0.058019,0.34874,-0.03538
589,0.018226,-0.05281,0.017897,0.046837,-0.0061104,0.31552,-0.074515
590,0.017568,-0.036366,0.015266,0.042562,-0.080434,0.10044,-0.10905
591,0.023159,-0.0051238,0.013293,0.038287,-0.15509,-0.19159,-0.1347
592,0.034998,0.033683,0.013622,0.033683,-0.2156,-0.44646,-0.15147
593,0.043877,0.058676,0.017568,0.029407,-0.25013,-0.60037,-0.16134
594,0.041904,0.053743,0.023817,0.021843,-0.2521,-0.65069,-0.16693
595,0.023817,0.014937,0.03434,0.01691,-0.22382,-0.628,-0.16561
596,-0.0047949,-0.041299,0.048153,0.017568,-0.17778,-0.57045,-0.15476
597,-0.037353,-0.093918,0.064267,0.01987,-0.12779,-0.5175,-0.13634
598,-0.062676,-0.12286,0.078737,0.024474,-0.089314,-0.48823,-0.11661
599,-0.07583,-0.1222,0.089261,0.024474,-0.067937,-0.48264,-0.10576
600,-0.077146,-0.098193,0.091563,0.018226,-0.065307,-0.48691,-0.10674
601,-0.07024,-0.061689,0.084328,0.0060577,-0.072542,-0.47606,-0.1222
602,-0.060045,-0.020581,0.067885,-0.0054526,-0.078461,-0.42805,-0.14719
603,-0.04689,0.015924,0.045851,-0.01203,-0.081092,-0.32314,-0.17153
604,-0.03242,0.046508,0.017568,-0.011701,-0.081092,-0.15279,-0.18008
605,-0.020252,0.070516,-0.012688,-0.0074258,-0.07583,0.077093,-0.16923
606,-0.0093991,0.091892,-0.045246,-0.0018351,-0.06728,0.34972,-0.14489
607,0.0017824,0.10801,-0.075501,-0.0008485,-0.063333,0.63222,-0.1199
608,0.011648,0.11623,-0.097864,-0.0057815,-0.06432,0.88479,-0.10017
609,0.014279,0.11491,-0.10674,-0.016305,-0.066951,1.0574,-0.087998
610,0.010991,0.10538,-0.098522,-0.03242,-0.071555,1.1186,-0.084052
611,-0.00051963,0.091234,-0.072542,-0.045903,-0.084052,1.0627,-0.081421
612,-0.016963,0.073804,-0.037682,-0.056098,-0.10411,0.91307,-0.077475
613,-0.031762,0.053743,-0.0034794,-0.062018,-0.12648,0.71082,-0.070897
614,-0.038997,0.032038,0.01132,-0.06432,-0.15081,0.49377,-0.066951
615,-0.036366,0.0080309,0.002769,-0.066622,-0.17153,0.27474,-0.063333
616,-0.024198,-0.018936,-0.020581,-0.066951,-0.18534,0.052428,-0.058729
617,-0.011372,-0.041957,-0.037024,-0.06136,-0.19389,-0.1814,-0.053467
618,-0.0018351,-0.054454,-0.030775,-0.047219,-0.19817,-0.42838,-0.04689
619,0.0060577,-0.053138,-0.00019077,-0.024198,-0.19521,-0.68818,-0.043272
620,0.012964,-0.040313,0.044206,0.0034268,-0.18304,-0.96903,-0.038997
621,0.01987,-0.023211,0.081368,0.027105,-0.1666,-1.2647,-0.03242
622,0.028421,-0.0087413,0.094852,0.039273,-0.1518,-1.5314,-0.020909
623,0.038944,-0.0015062,0.079066,0.036314,-0.14062,-1.6659,-0.0018351
624,0.049139,-0.0011774,0.036642,0.020199,-0.13601,-1.5281,0.02283
625,0.058676,-0.002164,-0.020252,-0.00019077,-0.13305,-1.0118,0.047166
626,0.064925,-0.0018351,-0.072213,-0.02354,-0.12911,-0.17186,0.067227
627,0.06624,-0.002164,-0.10378,-0.041957,-0.1222,0.71871,0.081039
628,0.059005,-0.007097,-0.1097,-0.052481,-0.11628,1.3261,0.085315
629,0.043549,-0.015648,-0.096878,-0.054783,-0.11464,1.4672,0.076106
630,0.022501,-0.024198,-0.080434,-0.051823,-0.11793,1.1804,0.053743
631,-0.00019077,-0.034064,-0.07024,-0.045574,-0.12286,0.66873,0.023488
632,-0.021238,-0.044259,-0.070897,-0.039984,-0.12746,0.16194,-0.0061104
633,-0.039984,-0.054125,-0.07879,-0.040641,-0.12648,-0.18469,-0.030118
634,-0.054454,-0.060045,-0.087669,-0.045903,-0.11793,-0.33629,-0.049521
635,-0.06432,-0.053796,-0.094905,-0.053138,-0.10148,-0.34353,-0.061689
636,-0.068595,-0.027158,-0.098193,-0.056427,-0.080763,-0.28762,-0.06136
637,-0.063991,0.01987,-0.09622,-0.048863,-0.053796,-0.23467,-0.047548
638,-0.057085,0.083342,-0.087012,-0.033078,-0.018278,-0.21659,-0.021896
639,-0.051494,0.14879,-0.071555,-0.013017,0.023817,-0.22612,0.0096753
640,-0.042286,0.20042,-0.054125,0.0073732,0.069858,-0.24289,0.036971
641,-0.030775,0.22377,-0.039655,0.026776,0.10801,-0.25177,0.055717
642,-0.019594,0.21752,-0.030118,0.044864,0.13267,-0.24651,0.066569
643,-0.010057,0.1843,-0.020909,0.06065,0.14517,-0.23303,0.071502
644,-0.00051963,0.13497,-0.0057815,0.076106,0.14813,-0.22415,0.076106
645,0.011648,0.081697,0.020528,0.085315,0.14681,-0.22579,0.084328
646,0.023817,0.032038,0.053415,0.086959,0.14254,-0.23698,0.093208
647,0.030723,-0.011701,0.08959,0.082684,0.13563,-0.2498,0.098798
648,0.032038,-0.050179,0.11787,0.078737,0.12544,-0.25572,0.098141
649,0.032367,-0.076159,0.13464,0.07512,0.11458,-0.24816,0.098141
650,0.034011,-0.089314,0.13958,0.073147,0.1057,-0.22349,0.097812
651,0.03434,-0.094576,0.13464,0.073147,0.10406,-0.18205,0.098798
652,0.031709,-0.096878,0.12544,0.07512,0.10801,-0.12779,0.10209
653,0.027763,-0.10017,0.11623,0.080053,0.11886,-0.06432,0.10636
654,0.027105,-0.11036,0.10834,0.088932,0.13136,0.0011247,0.10768
655,0.033025,-0.12483,0.099456,0.10011,0.14056,0.06624,0.10636
656,0.040589,-0.1347,0.087288,0.10965,0.1432,0.13103,0.10636
657,0.045851,-0.12812,0.070516,0.11261,0.14024,0.18891,0.1113
658,0.051441,-0.10017,0.053086,0.10998,0.13695,0.2389,0.1205
659,0.059663,-0.057414,0.036642,0.1057,0.13432,0.27672,0.12642
660,0.067227,-0.016963,0.023817,0.099785,0.13234,0.29875,0.12116
661,0.068871,0.0093464,0.013951,0.088932,0.133,0.30302,0.10603
662,0.062294,0.017568,0.0080309,0.079395,0.13662,0.29086,0.085644
663,0.044864,0.010333,0.0070443,0.074462,0.14056,0.27112,0.064925
664,0.024145,-0.0054526,0.0093464,0.070516,0.1376,0.24778,0.050455
665,0.0050711,-0.027816,0.010333,0.063281,0.12346,0.22147,0.04322
666,-0.0087413,-0.050179,0.0044134,0.052099,0.094523,0.18924,0.04026
667,-0.017292,-0.064978,-0.012359,0.035985,0.055717,0.15273,0.038287
668,-0.019923,-0.06728,-0.034064,0.018226,0.01691,0.11426,0.036971
669,-0.019265,-0.05544,-0.054454,0.0044134,-0.012688,0.085972,0.037629
670,-0.013017,-0.034722,-0.062347,0.0017824,-0.030118,0.068871,0.039273
671,-0.0031506,-0.0097279,-0.056756,0.0096753,-0.034393,0.055059,0.041247
672,0.0067154,0.012964,-0.036695,0.018884,-0.025514,0.029407,0.041904
673,0.011977,0.033354,-0.0064392,0.025132,-0.0090702,-0.014332,0.041247
674,0.010004,0.052428,0.029078,0.026119,0.0096753,-0.064649,0.037958
675,0.0047422,0.068543,0.063938,0.025461,0.032038,-0.10115,0.029078
676,0.0024402,0.080382,0.08959,0.026776,0.052099,-0.11825,0.021843
677,0.0030979,0.088932,0.10768,0.025461,0.067227,-0.11793,0.016253
678,0.0037556,0.096167,0.11787,0.017239,0.074462,-0.10641,0.010662
679,0.0017824,0.10636,0.12281,0.010662,0.076764,-0.095233,0.0054
680,-0.0011774,0.1205,0.1182,0.0090175,0.07512,-0.088656,0.0063866
681,-0.0054526,0.13826,0.10011,0.0083598,0.069858,-0.085367,0.011648
682,-0.0080836,0.15569,0.070516,0.0086887,0.059663,-0.074515,0.016581
683,-0.011043,0.16457,0.034669,0.0073732,0.044206,-0.048205,0.020857
684,-0.013674,0.15898,-0.0051238,0.0040845,0.025461,0.0001381,0.020528
685,-0.01795,0.13793,-0.041299,-0.0024928,0.0047422,0.065912,0.017897
686,-0.024527,0.10538,-0.067609,-0.0090702,-0.0077547,0.14024,0.016581
687,-0.032749,0.071173,-0.082079,-0.012688,-0.014003,0.21094,0.015924
688,-0.049192,0.04618,-0.083723,-0.01203,-0.012688,0.26718,0.017897
689,-0.071884,0.041904,-0.077803,-0.0080836,-0.0064392,0.30566,0.02579
690,-0.091945,0.054401,-0.069253,-0.0018351,-0.00019077,0.32341,0.034998
691,-0.1005,0.073147,-0.0584,0.0073732,0.0030979,0.32013,0.043877
692,-0.092931,0.088275,-0.047548,0.014279,0.0063866,0.30533,0.053415
693,-0.07287,0.095839,-0.036695,0.01691,0.020199,0.28625,0.065912
694,-0.051494,0.094852,-0.027158,0.014608,0.04881,0.26455,0.081697
695,-0.034064,0.091234,-0.016963,0.0073732,0.088932,0.24416,0.096496
696,-0.016634,0.087617,-0.0047949,0.0024402,0.13037,0.23265,0.10702
697,0.0017824,0.08663,0.0080309,0.0070443,0.16227,0.23626,0.1136
698,0.018555,0.080711,0.019212,0.021843,0.18167,0.25698,0.12116
699,0.03434,0.070187,0.028092,0.04618,0.18957,0.2902,0.13201
700,0.048482,0.054401,0.031709,0.074791,0.18266,0.32473,0.14385
701,0.059992,0.029736,0.030723,0.097483,0.15964,0.34315,0.15668
702,0.064267,-0.0018351,0.027434,0.10636,0.12182,0.31947,0.16326
703,0.061965,-0.031104,0.024474,0.099127,0.075449,0.23955,0.15635
704,0.053415,-0.049192,0.026119,0.083999,0.032696,0.10505,0.13497
705,0.038616,-0.050836,0.032367,0.065254,0.002769,-0.059716,0.10176
706,0.021514,-0.040641,0.04322,0.046837,-0.0090702,-0.22086,0.0692
707,0.010004,-0.024198,0.057361,0.030394,-0.0074258,-0.35208,0.044864
708,0.010004,-0.0038083,0.069858,0.012635,0.0021113,-0.43758,0.034011
709,0.01987,0.015924,0.075778,-0.004466,0.0070443,-0.47902,0.033683
710,0.030394,0.031709,0.074462,-0.015648,0.0057288,-0.48428,0.040589
711,0.036642,0.041575,0.064925,-0.02354,-0.0011774,-0.4662,0.055717
712,0.041575,0.046508,0.049139,-0.026171,-0.01203,-0.43035,0.072818
713,0.050126,0.050784,0.028421,-0.025514,-0.022554,-0.38398,0.084986
714,0.061636,0.057032,0.0077021,-0.019923,-0.02946,-0.33004,0.08367
715,0.07216,0.061965,-0.0064392,-0.016963,-0.036037,-0.27611,0.072818
716,0.077093,0.06065,-0.014003,-0.020581,-0.046232,-0.22744,0.055059
717,0.070516,0.048153,-0.015648,-0.031762,-0.061031,-0.1883,0.032696
718,0.055717,0.025461,-0.0093991,-0.043272,-0.079119,-0.15114,0.010333
719,0.041904,-0.0034794,-0.00051963,-0.052152,-0.098851,-0.10872,-0.0080836
720,0.032696,-0.03242,0.0086887,-0.057414,-0.11398,-0.049521,-0.022883
721,0.025132,-0.059716,0.014608,-0.062347,-0.12056,0.034998,-0.038011
722,0.015266,-0.079448,0.013293,-0.06728,-0.1222,0.1455,-0.055769
723,0.0037556,-0.090629,0.0063866,-0.070897,-0.1245,0.27408,-0.071884
724,-0.0054526,-0.096549,-0.0034794,-0.075501,-0.12878,0.4007,-0.085696
725,-0.0054526,-0.10017,-0.01499,-0.074844,-0.13404,0.48456,-0.099838
726,-0.0015062,-0.1051,-0.027487,-0.069253,-0.137,0.4816,-0.11497
727,0.0077021,-0.11069,-0.042615,-0.063662,-0.13766,0.37406,-0.12911
728,0.017897,-0.11661,-0.058071,-0.063333,-0.13667,0.18693,-0.13963
729,0.028092,-0.12154,-0.070568,-0.065635,-0.12746,-0.027487,-0.14687
730,0.038287,-0.12516,-0.072213,-0.064649,-0.11201,-0.21659,-0.14654
731,0.050455,-0.13272,-0.062676,-0.061031,-0.095891,-0.34747,-0.14062
732,0.064267,-0.14226,-0.043601,-0.059716,-0.088656,-0.42015,-0.13141
733,0.077093,-0.14752,-0.023211,-0.05544,-0.091945,-0.44581,-0.1222
734,0.084328,-0.14095,-0.0084125,-0.047877,-0.10082,-0.43989,-0.11529
735,0.084328,-0.12253,-0.007097,-0.039326,-0.11135,-0.42344,-0.11168
736,0.076435,-0.095891,-0.018607,-0.030118,-0.1199,-0.40897,-0.11135
737,0.063281,-0.068595,-0.041957,-0.023869,-0.12121,-0.407,-0.11036
738,0.047495,-0.045574,-0.068595,-0.024856,-0.11562,-0.41259,-0.10444
739,0.030723,-0.028473,-0.091287,-0.033078,-0.10609,-0.4264,-0.093589
740,0.016253,-0.014661,-0.10773,-0.042286,-0.09918,-0.4514,-0.080763
741,0.0047422,-0.0018351,-0.11661,-0.043601,-0.094905,-0.4833,-0.069582
742,-0.0074258,0.010333,-0.11858,-0.036695,-0.0903,-0.5004,-0.064978
743,-0.021567,0.017239,-0.1176,-0.026171,-0.083723,-0.46093,-0.067609
744,-0.033735,0.014937,-0.11365,-0.018607,-0.075173,-0.30209,-0.064649
745,-0.045574,-0.0008485,-0.10872,-0.015648,-0.067609,0.021843,-0.047877
746,-0.063991,-0.02946,-0.10641,-0.018936,-0.065635,0.50758,-0.021896
747,-0.091287,-0.069253,-0.10707,-0.0265,-0.068266,1.067,0.0001381
748,-0.12023,-0.11464,-0.1051,-0.03538,-0.073199,1.5751,0.011977
749,-0.14259,-0.15344,-0.098193,-0.039984,-0.072542,1.9434,0.022172
750,-0.14917,-0.17416,-0.086354,-0.039984,-0.0584,2.1338,0.038616
751,-0.13832,-0.16989,-0.070897,-0.03538,-0.028144,2.1414,0.064596
752,-0.11464,-0.14325,-0.055112,-0.028144,0.010662,1.9855,0.09255
753,-0.087012,-0.098522,-0.038011,-0.020581,0.052099,1.7181,0.10965
754,-0.063662,-0.046232,-0.020252,-0.014661,0.086301,1.4018,0.1057
755,-0.048205,-0.00051963,-0.0057815,-0.010386,0.10801,1.0798,0.078409
756,-0.043601,0.027763,0.0040845,-0.011372,0.12281,0.77561,0.033354
757,-0.046232,0.038944,0.0067154,-0.011372,0.13793,0.50265,-0.014332
758,-0.053467,0.039931,0.0057288,-0.004466,0.15964,0.27343,-0.049521
759,-0.056098,0.039602,0.0063866,0.0096753,0.18628,0.091234,-0.068595
760,-0.051823,0.042233,0.0090175,0.024145,0.20963,-0.039984,-0.076817
761,-0.04097,0.049468,0.011977,0.034998,0.21522,-0.11266,-0.08471
762,-0.027816,0.056703,0.01691,0.039602,0.19121,-0.11661,-0.094905
763,-0.016963,0.05769,0.021514,0.035985,0.14221,-0.052481,-0.10444
764,-0.0093991,0.055717,0.02579,0.027434,0.081368,0.061965,-0.10674
765,-0.0054526,0.058676,0.029736,0.018555,0.024145,0.1968,-0.10082
766,0.0017824,0.069529,0.034669,0.014937,-0.010715,0.3221,-0.084381
767,0.018884,0.08663,0.040589,0.015266,-0.020581,0.40892,-0.059058
768,0.044864,0.10209,0.045522,0.015924,-0.014003,0.42438,-0.030775
769,0.071831,0.11162,0.049139,0.015924,-0.0031506,0.34348,-0.0008485
770,0.09255,0.11754,0.051113,0.016253,0.0070443,0.16753,0.034998
771,0.10439,0.12478,0.053086,0.018555,0.020199,-0.065964,0.08367
772,0.10768,0.13169,0.053415,0.023817,0.04026,-0.29354,0.14352
773,0.10307,0.13695,0.044206,0.033025,0.060979,-0.48231,0.20272
774,0.087288,0.14122,0.021843,0.045522,0.07216,-0.64247,0.24646
775,0.067556,0.15043,-0.0077547,0.056046,0.06624,-0.7852,0.26323
776,0.048153,0.16457,-0.030775,0.06065,0.047824,-0.89635,0.24514
777,0.028421,0.18102,-0.040313,0.058676,0.025461,-0.94667,0.19877
778,0.0067154,0.19549,-0.038339,0.057032,0.0083598,-0.91576,0.13662
779,-0.018278,0.20009,-0.03242,0.055388,0.00079584,-0.81874,0.071173
780,-0.044917,0.1843,-0.026829,0.05177,0.002769,-0.69443,0.012306
781,-0.074844,0.13859,-0.021238,0.04881,0.011977,-0.59643,-0.03538
782,-0.11036,0.056703,-0.016634,0.043877,0.02283,-0.56782,-0.072542
783,-0.15081,-0.056098,-0.012359,0.037958,0.034998,-0.62372,-0.10411
784,-0.19028,-0.17679,-0.011372,0.032367,0.048153,-0.75659,-0.13141
785,-0.21856,-0.27841,-0.016305,0.029407,0.059992,-0.94503,-0.14489
786,-0.22349,-0.33728,-0.024856,0.03434,0.071831,-1.1696,-0.13897
787,-0.20442,-0.34451,-0.032749,0.047166,0.086959,-1.4314,-0.12023
788,-0.17186,-0.31163,-0.034393,0.06065,0.10373,-1.7225,-0.093918
789,-0.13634,-0.25276,-0.028802,0.067227,0.11393,-1.9718,-0.066293
790,-0.10674,-0.17909,-0.016305,0.062623,0.11228,-2.0451,-0.041299
791,-0.081421,-0.10346,-0.0015062,0.050126,0.094852,-1.8021,-0.021238
792,-0.061031,-0.04097,0.011648,0.034998,0.061636,-1.1621,-0.010386
793,-0.044259,0.0037556,0.018884,0.017897,0.016581,-0.17383,-0.0034794
794,-0.032749,0.030065,0.01987,0.0001381,-0.030775,0.94958,0.0030979
795,-0.0265,0.04026,0.015924,-0.01795,-0.067937,1.926,0.013293
796,-0.022554,0.042562,0.0093464,-0.033735,-0.082408,2.5521,0.025461
797,-0.01795,0.044864,0.0047422,-0.042944,-0.07879,2.7228,0.038287
798,-0.010715,0.05177,0.0073732,-0.04393,-0.071226,2.4426,0.048153
799,0.0017824,0.065912,0.013293,-0.039655,-0.073528,1.8207,0.048153
800,0.022501,0.086959,0.016253,-0.033406,-0.087998,1.0278,0.0373
801,0.046837,0.11195,0.014608,-0.025842,-0.11135,0.24218,0.021514
802,0.066569,0.13432,0.0093464,-0.024856,-0.13733,-0.38727,0.0034268
803,0.078409,0.14484,0.0037556,-0.033078,-0.15279,-0.78059,-0.018936
804,0.079066,0.13958,0.0011247,-0.043272,-0.15838,-0.95424,-0.044588
805,0.073147,0.11985,0.0057288,-0.048534,-0.16232,-0.97923,-0.064649
806,0.067227,0.095839,0.017239,-0.04393,-0.16594,-0.94536,-0.069582
807,0.066898,0.077751,0.034998,-0.033406,-0.16627,-0.91642,-0.056098
808,0.075449,0.071502,0.05473,-0.017292,-0.1643,-0.91378,-0.027487
809,0.094194,0.073476,0.073476,0.0001381,-0.15969,-0.91017,0.0040845
810,0.12017,0.076764,0.087617,0.020199,-0.15443,-0.86413,0.028092
811,0.14418,0.077422,0.09551,0.037629,-0.14785,-0.75034,0.038944
812,0.15964,0.070187,0.096167,0.050126,-0.13996,-0.57143,0.036971
813,0.16128,0.056703,0.091234,0.056046,-0.12417,-0.35866,0.031052
814,0.15076,0.039931,0.085315,0.059334,-0.094247,-0.15476,0.032367
815,0.13136,0.024803,0.083013,0.068214,-0.04985,-0.0061104,0.04322
816,0.10899,0.015595,0.084657,0.081697,-0.0074258,0.052757,0.057361
817,0.089261,0.014937,0.088275,0.1034,0.022172,-0.00019077,0.069858
818,0.07808,0.020199,0.092879,0.12445,0.036314,-0.18008,0.081697
819,0.077751,0.028421,0.091563,0.13793,0.037958,-0.48856,0.09255
820,0.082026,0.0373,0.080382,0.14056,0.034998,-0.88287,0.10373
821,0.084657,0.048153,0.061307,0.13596,0.041575,-1.2555,0.11754
822,0.081039,0.060979,0.047495,0.12774,0.07216,-1.462,0.133
823,0.071831,0.072489,0.044864,0.11524,0.13267,-1.392,0.14484
824,0.063281,0.082684,0.057032,0.10307,0.21292,-1.0476,0.14813
825,0.05769,0.091563,0.078409,0.089261,0.28329,-0.54019,0.13793
826,0.050784,0.094852,0.096496,0.071502,0.30467,-0.035051,0.10603
827,0.0373,0.086959,0.10044,0.039602,0.24909,0.33493,0.053743
828,0.015266,0.070516,0.085644,-0.0087413,0.1205,0.52929,-0.002164
829,-0.014661,0.047495,0.056374,-0.066293,-0.043601,0.57927,-0.045574
830,-0.039984,0.02579,0.021186,-0.10905,-0.19685,0.53718,-0.07583
831,-0.055112,0.0070443,-0.016305,-0.11957,-0.29946,0.452,-0.099509
832,-0.054783,-0.0080836,-0.048205,-0.10017,-0.34057,0.36058,-0.12056
833,-0.043272,-0.020252,-0.066951,-0.063004,-0.33333,0.28888,-0.14127
834,-0.029131,-0.0265,-0.071555,-0.026171,-0.30308,0.256,-0.15838
835,-0.016634,-0.026171,-0.069253,0.0011247,-0.26888,0.26488,-0.16857
836,-0.0054526,-0.017292,-0.059058,0.0096753,-0.24059,0.2925,-0.1666
837,0.0057288,-0.0031506,-0.041628,0.0014536,-0.22283,0.29974,-0.1495
838,0.013622,0.013293,-0.022554,-0.017292,-0.2179,0.24876,-0.12253
839,0.013293,0.030065,-0.0054526,-0.037353,-0.2304,0.12774,-0.09918
840,0.0021113,0.047495,0.0054,-0.051165,-0.25506,-0.039655,-0.086025
841,-0.017292,0.061965,0.0096753,-0.053796,-0.28039,-0.22119,-0.086354
842,-0.038339,0.07216,0.0086887,-0.044917,-0.2942,-0.38595,-0.091945
843,-0.056098,0.073147,0.0057288,-0.030118,-0.28861,-0.50961,-0.099838
844,-0.066951,0.055717,-0.0011774,-0.013674,-0.26559,-0.57702,-0.10411
845,-0.065635,0.020528,-0.010386,0.0030979,-0.22875,-0.57242,-0.10148
846,-0.054125,-0.030118,-0.019594,0.01987,-0.18238,-0.47935,-0.0903
847,-0.040313,-0.091945,-0.025842,0.032367,-0.12944,-0.284,-0.070568
848,-0.035051,-0.15607,-0.027816,0.037629,-0.073528,0.0083598,-0.044588
849,-0.038997,-0.20902,-0.028802,0.034011,-0.019923,0.36847,-0.016963
850,-0.048205,-0.24257,-0.031104,0.018555,0.029407,0.75127,0.0054
851,-0.05544,-0.25408,-0.032749,-0.0051238,0.073804,1.1107,0.02283
852,-0.057085,-0.24454,-0.037024,-0.031104,0.11261,1.3968,0.042233
853,-0.050507,-0.22152,-0.050507,-0.053796,0.15207,1.5494,0.068871
854,-0.035708,-0.19587,-0.074844,-0.068266,0.19877,1.5221,0.10274
855,-0.016963,-0.1735,-0.10477,-0.072542,0.24942,1.314,0.1376
856,-0.0015062,-0.1495,-0.13174,-0.06728,0.29743,0.98378,0.16095
857,0.0011247,-0.11891,-0.14818,-0.056098,0.33328,0.62663,0.16589
858,-0.0067681,-0.077475,-0.14588,-0.038997,0.35466,0.33098,0.1524
859,-0.016305,-0.019923,-0.11957,-0.016963,0.36485,0.14122,0.12708
860,-0.02354,0.050126,-0.078132,0.012964,0.37011,0.053743,0.098141
861,-0.025185,0.12281,-0.036037,0.046837,0.37603,0.040589,0.075449
862,-0.018936,0.18266,-0.0093991,0.076106,0.3905,0.070187,0.065912
863,-0.0034794,0.21752,-0.007097,0.09255,0.41089,0.11261,0.060979
864,0.01132,0.22179,-0.026829,0.09551,0.43194,0.14846,0.054072
865,0.017897,0.19943,-0.058729,0.08959,0.4474,0.17246,0.037958
866,0.018555,0.16063,-0.086025,0.082026,0.45332,0.19318,0.017897
867,0.01987,0.11919,-0.09918,0.07512,0.44477,0.22048,0.0021113
868,0.021514,0.087288,-0.09918,0.066569,0.42043,0.24745,-0.0057815
869,0.019212,0.069529,-0.088985,0.059334,0.3836,0.26159,-0.0087413
870,0.015266,0.059334,-0.07583,0.054072,0.33854,0.24514,-0.010057
871,0.013951,0.050126,-0.066293,0.04618,0.28329,0.18036,-0.007097
872,0.013951,0.034669,-0.062018,0.030065,0.21653,0.065254,0.0024402
873,0.012635,0.01691,-0.06136,0.0070443,0.13793,-0.073199,0.014279
874,0.0077021,0.00046697,-0.064649,-0.019923,0.058019,-0.19948,0.021186
875,0.0011247,-0.0084125,-0.067937,-0.044588,-0.018607,-0.29321,0.024145
876,-0.00019077,-0.007097,-0.064649,-0.066951,-0.086354,-0.36063,0.018226
877,0.0080309,0.0017824,-0.055112,-0.083394,-0.14489,-0.42246,0.0044134
878,0.023817,0.013951,-0.039984,-0.092931,-0.19324,-0.50237,-0.013017
879,0.039602,0.026119,-0.018278,-0.099838,-0.23303,-0.60366,-0.027158
880,0.048153,0.032038,0.0057288,-0.1051,-0.26263,-0.70035,-0.038011
881,0.049139,0.031381,0.025461,-0.10641,-0.27644,-0.77138,-0.04689
882,0.045851,0.022501,0.038944,-0.10378,-0.27184,-0.81874,-0.055112
883,0.037958,0.0083598,0.04618,-0.10115,-0.25243,-0.87103,-0.066293
884,0.024145,-0.0084125,0.047824,-0.09918,-0.23073,-0.95128,-0.079777
885,0.0060577,-0.022225,0.044864,-0.095562,-0.21494,-1.0279,-0.093918
886,-0.015319,-0.029789,0.038287,-0.085696,-0.20244,-1.0246,-0.10181
887,-0.035051,-0.031104,0.030394,-0.067937,-0.18337,-0.87333,-0.096878
888,-0.051823,-0.026171,0.023488,-0.045246,-0.15114,-0.53855,-0.084381
889,-0.057085,-0.0093991,0.01987,-0.020909,-0.10609,-0.024527,-0.062347
890,-0.050836,0.019541,0.017239,0.0021113,-0.053796,0.61676,-0.027487
891,-0.039326,0.051441,0.014937,0.020857,-0.0015062,1.2798,0.016581
892,-0.028473,0.073804,0.012635,0.031709,0.04322,1.8283,0.059992
893,-0.026829,0.078409,0.0090175,0.0373,0.080053,2.1437,0.093865
894,-0.036037,0.063938,0.0054,0.041904,0.10603,2.1618,0.11393
895,-0.048205,0.0373,0.0030979,0.045522,0.11524,1.8964,0.11919
896,-0.051823,0.0093464,0.002769,0.04618,0.10242,1.4356,0.11656
897,-0.047877,-0.012688,0.0050711,0.048482,0.069858,0.92656,0.11426
898,-0.036366,-0.028473,0.01691,0.055059,0.030065,0.53652,0.12017
899,-0.024198,-0.042286,0.038287,0.06361,-0.0051238,0.38097,0.13333
900,-0.012359,-0.057414,0.065912,0.070187,-0.023211,0.48292,0.15109
901,-0.0051238,-0.076488,0.094852,0.073147,-0.021567,0.79205,0.1695
902,-0.004466,-0.10082,0.12511,0.076435,-0.0034794,1.2192,0.18628
903,-0.0077547,-0.12615,0.15339,0.083342,0.02875,1.6566,0.19812
904,-0.010715,-0.14752,0.17707,0.096167,0.07512,2.0131,0.2093
905,-0.0067681,-0.16364,0.19483,0.11458,0.13793,2.2384,0.22804
906,0.0086887,-0.1712,0.20634,0.13958,0.207,2.2927,0.25271
907,0.0373,-0.16265,0.21061,0.1672,0.26422,2.1371,0.27606
908,0.072818,-0.14062,0.20371,0.18759,0.28691,1.7622,0.28691
909,0.10176,-0.11398,0.18463,0.19351,0.26093,1.2137,0.27902
910,0.11853,-0.092603,0.15635,0.17838,0.18792,0.57303,0.24843
911,0.12478,-0.074844,0.12873,0.14648,0.091234,-0.061689,0.20272
912,0.12149,-0.060373,0.11097,0.10834,-0.0041372,-0.59709,0.1524
913,0.11162,-0.04393,0.10274,0.071502,-0.08175,-0.99074,0.10472
914,0.099456,-0.029789,0.097154,0.040589,-0.1393,-1.2443,0.067556
915,0.086301,-0.020581,0.084986,0.018555,-0.18304,-1.3992,0.042891
916,0.071831,-0.017621,0.061965,0.0096753,-0.22053,-1.4985,0.026119
917,0.053743,-0.015319,0.028421,0.0090175,-0.25441,-1.5791,0.010662
918,0.036971,-0.0041372,-0.010057,0.0083598,-0.28236,-1.6593,-0.0024928
919,0.027434,0.021843,-0.047877,0.0030979,-0.30374,-1.7485,-0.014332
920,0.029078,0.058019,-0.079448,-0.0080836,-0.32314,-1.8251,-0.025514
921,0.038944,0.092221,-0.10411,-0.021238,-0.33991,-1.8392,-0.035051
922,0.047166,0.11458,-0.12516,-0.031433,-0.34616,-1.7396,-0.046561
923,0.052757,0.11787,-0.13601,-0.031104,-0.33366,-1.5025,-0.058071
924,0.055717,0.10801,-0.1324,-0.023211,-0.30242,-1.1644,-0.064978
925,0.053415,0.092879,-0.11497,-0.014003,-0.26657,-0.81019,-0.065635
926,0.045193,0.07808,-0.0903,-0.01203,-0.23533,-0.53657,-0.066951
927,0.03434,0.070516,-0.06728,-0.018278,-0.21724,-0.41752,-0.070568
928,0.024145,0.072489,-0.051165,-0.024527,-0.20836,-0.46652,-0.075501
929,0.014937,0.08367,-0.040641,-0.021567,-0.20212,-0.63819,-0.082736
930,0.0096753,0.096825,-0.039655,-0.0093991,-0.19883,-0.85952,-0.096549
931,0.0080309,0.099785,-0.047548,0.0063866,-0.19981,-1.0585,-0.11497
932,0.0086887,0.085644,-0.063662,0.018226,-0.20113,-1.1917,-0.13042
933,0.0057288,0.05177,-0.086025,0.022172,-0.19554,-1.2489,-0.1393
934,-0.0097279,0.0034268,-0.10905,0.015266,-0.17942,-1.2311,-0.13996
935,-0.036037,-0.04393,-0.12615,-0.0015062,-0.15607,-1.1285,-0.13009
936,-0.064978,-0.074844,-0.13305,-0.02354,-0.12812,-0.91477,-0.11332
937,-0.0903,-0.079448,-0.12648,-0.044917,-0.095233,-0.56518,-0.097536
938,-0.10477,-0.057743,-0.11069,-0.062018,-0.058729,-0.073199,-0.088327
939,-0.10346,-0.020252,-0.091287,-0.071884,-0.022883,0.53159,-0.080763
940,-0.091616,0.014937,-0.072542,-0.07287,0.011977,1.1887,-0.069582
941,-0.079448,0.04026,-0.05544,-0.067609,0.050126,1.8184,-0.044917
942,-0.069582,0.048153,-0.04097,-0.058729,0.093865,2.3282,-0.0051238
943,-0.063991,0.038616,-0.031104,-0.045574,0.14451,2.6176,0.037958
944,-0.06432,0.013293,-0.024856,-0.031104,0.18858,2.6215,0.064596
945,-0.068595,-0.024198,-0.018278,-0.016963,0.20864,2.3476,0.063938
946,-0.078132,-0.069911,-0.010057,-0.0067681,0.19779,1.8882,0.034998
947,-0.090629,-0.11168,-0.0015062,-0.002164,0.1626,1.383,-0.014003
948,-0.10214,-0.13799,0.0040845,-0.0051238,0.1182,0.95912,-0.070897
949,-0.10937,-0.13996,0.0067154,-0.013345,0.079395,0.68418,-0.12352
950,-0.11135,-0.11858,0.0057288,-0.026829,0.04881,0.54704,-0.16397
951,-0.11168,-0.080763,0.002769,-0.040313,0.02579,0.48982,-0.1883
952,-0.10872,-0.038668,0.00046697,-0.053467,0.0096753,0.44246,-0.19718
953,-0.10181,0.0021113,0.0017824,-0.060702,-0.0018351,0.35959,-0.19587
954,-0.091616,0.037629,0.0034268,-0.059387,-0.011701,0.21752,-0.18896
955,-0.076817,0.064596,0.002769,-0.052152,-0.022225,0.0057288,-0.17942
956,-0.059387,0.080382,-0.0008485,-0.048863,-0.032091,-0.2748,-0.16824
957,-0.044259,0.086959,-0.0051238,-0.054454,-0.040313,-0.60728,-0.15542
958,-0.038668,0.083013,-0.0093991,-0.06728,-0.05281,-0.97923,-0.1416
959,-0.04097,0.072818,-0.013345,-0.078132,-0.069911,-1.3874,-0.13042
960,-0.047548,0.063281,-0.014332,-0.083723,-0.087998,-1.8484,-0.11398
961,-0.053467,0.067556,-0.012688,-0.086025,-0.10181,-2.3868,-0.08471
962,-0.052152,0.092221,-0.0057815,-0.087012,-0.10641,-2.9906,-0.042944
963,-0.042944,0.13497,0.0034268,-0.084052,-0.10017,-3.5776,0.00079584
964,-0.030118,0.18693,0.0083598,-0.075501,-0.083723,-3.9798,0.039931
965,-0.01795,0.23133,0.0057288,-0.059716,-0.057085,-3.9739,0.068214
966,-0.011701,0.25304,-0.0041372,-0.042944,-0.023869,-3.3888,0.089919
967,-0.011701,0.24745,-0.018278,-0.029789,0.015266,-2.225,0.10998
968,-0.014332,0.21456,-0.029131,-0.017292,0.060979,-0.67009,0.12774
969,-0.016963,0.16424,-0.03538,-0.0047949,0.10834,0.87328,0.14648
970,-0.016634,0.10505,-0.030118,0.0083598,0.14385,1.9145,0.15865
971,-0.012688,0.046508,-0.016305,0.023159,0.15569,2.2059,0.15372
972,-0.0034794,-0.0054526,0.0030979,0.0373,0.14681,1.7566,0.13004
973,0.0047422,-0.048534,0.026776,0.053415,0.12445,0.84105,0.091563
974,0.010004,-0.082408,0.050126,0.072489,0.097154,-0.16331,0.046837
975,0.012635,-0.11266,0.0692,0.09255,0.073476,-0.92793,0.0070443
976,0.010333,-0.13963,0.07808,0.10932,0.05769,-1.3259,-0.026171
977,0.002769,-0.16495,0.082684,0.12017,0.050126,-1.3956,-0.050507
978,-0.0074258,-0.186,0.084328,0.12412,0.050126,-1.2571,-0.062676
979,-0.011043,-0.20376,0.087617,0.12182,0.058676,-1.0286,-0.060702
980,-0.010715,-0.21593,0.091234,0.11261,0.073804,-0.78849,-0.047877
981,-0.0084125,-0.22316,0.092221,0.10274,0.08959,-0.58229,-0.03242
982,-0.0064392,-0.22316,0.091234,0.095181,0.095181,-0.42344,-0.018936
983,-0.0008485,-0.21165,0.088603,0.09255,0.084328,-0.30439,-0.0077547
984,0.01132,-0.18107,0.08367,0.096825,0.06065,-0.21691,0.002769
985,0.034669,-0.12746,0.076435,0.10603,0.032696,-0.15772,0.012306
986,0.07216,-0.056098,0.0692,0.11228,0.0080309,-0.12154,0.020528
987,0.11623,0.023817,0.059005,0.10538,-0.0074258,-0.1051,0.022172
988,0.15372,0.097154,0.046508,0.085972,-0.013017,-0.12253,0.020528
989,0.17279,0.14813,0.03434,0.059005,-0.017292,-0.19225,0.014937
990,0.17049,0.1649,0.029078,0.027105,-0.023211,-0.30176,0.0086887
991,0.15207,0.14912,0.033354,-0.002164,-0.02946,-0.38727,0.0040845
992,0.1307,0.11491,0.042562,-0.021238,-0.031762,-0.34024,0.0070443
993,0.11689,0.077751,0.052099,-0.028473,-0.026171,-0.077475,0.021186
994,0.11623,0.051441,0.057032,-0.018936,-0.0087413,0.38886,0.04881
995,0.11952,0.03434,0.05769,0.0014536,0.022172,0.92393,0.083013
996,0.11721,0.020528,0.061636,0.025132,0.060979,1.3538,0.10866
997,0.10307,0.0077021,0.07216,0.040918,0.096167,1.5586,0.1159
998,0.081039,-0.0008485,0.083013,0.04618,0.1113,1.5152,0.10242
999,0.058348,-0.0051238,0.080382,0.04026,0.099785,1.2909,0.076435
1000,0.04026,-0.0087413,0.055717,0.02579,0.068214,0.99989,0.045522
1001,0.028421,-0.011043,0.016581,0.012306,0.033683,0.74864,0.020857
1002,0.022501,-0.0064392,-0.026171,0.0044134,0.0073732,0.59835,0.010004
1003,0.025461,0.0080309,-0.060373,0.0021113,-0.0064392,0.56415,0.013293
1004,0.034669,0.03434,-0.081421,0.0077021,-0.01203,0.61874,0.025461
1005,0.048153,0.066898,-0.09326,0.013293,-0.013017,0.72365,0.038287
1006,0.062623,0.095839,-0.098193,0.01691,-0.010057,0.84993,0.047166
1007,0.071831,0.11557,-0.099838,0.016253,-0.0034794,0.99299,0.047166
1008,0.070845,0.12938,-0.10773,0.011648,0.0093464,1.1617,0.036642
1009,0.058019,0.13629,-0.12976,0.0030979,0.033354,1.363,0.01987
1010,0.038944,0.13662,-0.16956,-0.0077547,0.069858,1.579,0.0030979
1011,0.023817,0.13267,-0.21132,-0.017621,0.12116,1.774,-0.0067681
1012,0.018884,0.13201,-0.24257,-0.022225,0.1774,1.9046,-0.010386
1013,0.020528,0.13662,-0.25079,-0.023211,0.22837,1.9296,-0.012359
1014,0.017897,0.14451,-0.22875,-0.022554,0.26948,1.8273,-0.021238
1015,0.010004,0.15076,-0.17712,-0.020581,0.29941,1.6057,-0.040313
1016,0.00079584,0.14846,-0.11102,-0.016634,0.31519,1.3057,-0.06728
1017,-0.0051238,0.1353,-0.045574,-0.011701,0.31388,0.97885,-0.087012
1018,-0.012359,0.11228,0.0037556,-0.010715,0.2925,0.67859,-0.095233
1019,-0.02354,0.083342,0.031709,-0.013017,0.24942,0.44345,-0.0903
1020,-0.042286,0.050784,0.040589,-0.015648,0.19647,0.29415,-0.073528
1021,-0.06432,0.01987,0.04026,-0.014661,0.14747,0.22508,-0.048205
1022,-0.086025,-0.0047949,0.0373,-0.011701,0.11426,0.21324,-0.017292
1023,-0.10641,-0.024198,0.036314,-0.010386,0.10143,0.21982,0.013951
1024,-0.12089,-0.04097,0.036971,-0.013017,0.10307,0.20075,0.036314
1025,-0.1245,-0.052152,0.034998,-0.017621,0.10538,0.12577,0.051441
1026,-0.11595,-0.053467,0.029736,-0.022883,0.10209,-0.0084125,0.061636
1027,-0.097207,-0.044588,0.026119,-0.028473,0.086959,-0.18304,0.070845
1028,-0.076159,-0.02946,0.031709,-0.03242,0.056374,-0.37872,0.077093
1029,-0.057743,-0.0084125,0.04881,-0.031104,0.013951,-0.59084,0.083013
1030,-0.044259,0.01691,0.074791,-0.025514,-0.036037,-0.83519,0.090577
1031,-0.037353,0.040589,0.10209,-0.018278,-0.091945,-1.1154,0.099127
1032,-0.033406,0.052099,0.11721,-0.011701,-0.15147,-1.3732,0.10965
1033,-0.025842,0.053086,0.1113,-0.0093991,-0.2054,-1.515,0.12346
1034,-0.013345,0.051441,0.083999,-0.012688,-0.24585,-1.4798,0.13892
1035,0.0034268,0.058019,0.048482,-0.015319,-0.27216,-1.2653,0.15734
1036,0.020528,0.076435,0.01132,-0.012359,-0.28137,-0.91938,0.17707
1037,0.035985,0.099456,-0.022554,-0.0024928,-0.27578,-0.5221,0.19351
1038,0.047824,0.11985,-0.049521,0.0057288,-0.26164,-0.16035,0.20042
1039,0.055388,0.1284,-0.065307,0.0080309,-0.24717,0.095181,0.19318
1040,0.054401,0.11985,-0.071226,0.0060577,-0.24224,0.21094,0.17082
1041,0.042891,0.095181,-0.071555,0.0001381,-0.25046,0.207,0.13728
1042,0.019212,0.059663,-0.07287,-0.0097279,-0.26526,0.14287,0.09551
1043,-0.010386,0.019212,-0.082408,-0.018936,-0.28532,0.073476,0.048482
1044,-0.039326,-0.025185,-0.10082,-0.029131,-0.3011,0.041575,0.0067154
1045,-0.063333,-0.071555,-0.12319,-0.042286,-0.31031,0.062294,-0.021567
1046,-0.076817,-0.11595,-0.14062,-0.054125,-0.31064,0.13201,-0.037024
1047,-0.079448,-0.15015,-0.14522,-0.065635,-0.30012,0.23067,-0.043272
1048,-0.070568,-0.16923,-0.13536,-0.07287,-0.2794,0.33493,-0.044259
1049,-0.05544,-0.1735,-0.11595,-0.073199,-0.25013,0.42471,-0.044588
1050,-0.040313,-0.16791,-0.094576,-0.065964,-0.21363,0.48653,-0.046232
1051,-0.027487,-0.16265,-0.074844,-0.057085,-0.17219,0.51613,-0.048863
1052,-0.019594,-0.16265,-0.057743,-0.053138,-0.13141,0.52205,-0.053796
1053,-0.01795,-0.16956,-0.044588,-0.054125,-0.096878,0.50922,-0.062676
1054,-0.022554,-0.18238,-0.036695,-0.048205,-0.066951,0.48489,-0.071555
1055,-0.032091,-0.19521,-0.033406,-0.025842,-0.038011,0.44838,-0.075173
1056,-0.038997,-0.20442,-0.029131,0.0080309,-0.0028217,0.41089,-0.068595
1057,-0.038011,-0.20508,-0.020581,0.04322,0.053086,0.40991,-0.047548
1058,-0.030775,-0.1985,-0.0067681,0.077422,0.14188,0.47469,-0.011043
1059,-0.020909,-0.18436,0.0073732,0.10538,0.2606,0.60295,0.034011
1060,-0.0097279,-0.1643,0.019541,0.12708,0.39544,0.78745,0.079066
1061,0.0044134,-0.13996,0.030065,0.14418,0.52271,1.0321,0.12149
1062,0.021186,-0.11398,0.042233,0.15767,0.62663,1.3314,0.15767
1063,0.038287,-0.087669,0.059334,0.1649,0.69438,1.6257,0.18693
1064,0.053743,-0.064649,0.078737,0.16457,0.71871,1.7971,0.20601
1065,0.067227,-0.045246,0.097154,0.15964,0.69767,1.7224,0.21719
1066,0.076106,-0.0265,0.11097,0.15536,0.63255,1.3442,0.21456
1067,0.079395,-0.0084125,0.11886,0.15372,0.53685,0.70918,0.19746
1068,0.07808,0.0070443,0.12215,0.15306,0.42471,-0.048205,0.16852
1069,0.07216,0.01691,0.12149,0.15142,0.3119,-0.75165,0.13004
1070,0.065912,0.020199,0.11656,0.14583,0.20667,-1.2732,0.085315
1071,0.06361,0.017897,0.10439,0.13366,0.11656,-1.5686,0.037958
1072,0.062294,0.013622,0.084328,0.11064,0.042562,-1.657,-0.0093991
1073,0.058676,0.012635,0.060321,0.084328,-0.020581,-1.5922,-0.054454
1074,0.048153,0.017568,0.04322,0.059663,-0.071555,-1.4143,-0.089972
1075,0.031381,0.023159,0.033354,0.035327,-0.11069,-1.146,-0.10905
1076,0.013951,0.02283,0.029407,0.010662,-0.137,-0.80855,-0.11365
1077,0.0021113,0.017568,0.029736,-0.011372,-0.15344,-0.45501,-0.11694
1078,-0.0038083,0.01132,0.03434,-0.025185,-0.16134,-0.16791,-0.12516
1079,-0.0064392,0.0093464,0.044206,-0.026829,-0.1689,-0.021238,-0.1393
1080,-0.0087413,0.013951,0.059663,-0.018936,-0.18534,-0.050179,-0.15772
1081,-0.014003,0.027763,0.077422,-0.0054526,-0.20968,-0.23204,-0.17449
1082,-0.018936,0.053086,0.094523,0.0080309,-0.2327,-0.50204,-0.18403
1083,-0.019265,0.081697,0.10866,0.020528,-0.24684,-0.78322,-0.18666
1084,-0.0090702,0.10538,0.11689,0.031709,-0.25112,-1.0144,-0.18469
1085,0.0080309,0.11721,0.11261,0.039273,-0.24717,-1.1614,-0.18041
1086,0.024474,0.1159,0.097483,0.040589,-0.23862,-1.2131,-0.17482
1087,0.035656,0.10735,0.072818,0.036314,-0.22777,-1.1854,-0.16726
1088,0.039602,0.096825,0.041904,0.028092,-0.22316,-1.1101,-0.15607
1089,0.033025,0.088603,0.013951,0.017568,-0.22875,-1.019,-0.13897
1090,0.021186,0.087617,-0.007097,0.0063866,-0.23994,-0.92727,-0.1176
1091,0.012306,0.092221,-0.01795,-0.011043,-0.24553,-0.84406,-0.10181
1092,0.0096753,0.10176,-0.020581,-0.02946,-0.23829,-0.77599,-0.09326
1093,0.0090175,0.1113,-0.021567,-0.043272,-0.2156,-0.7237,-0.087669
1094,0.0040845,0.11393,-0.0265,-0.051494,-0.18074,-0.68358,-0.082736
1095,-0.0051238,0.10603,-0.036037,-0.056098,-0.13963,-0.65135,-0.077803
1096,-0.019265,0.095839,-0.046561,-0.061031,-0.10247,-0.62504,-0.071226
1097,-0.033735,0.08663,-0.051823,-0.063662,-0.077803,-0.59445,-0.062018
1098,-0.045574,0.081697,-0.049192,-0.062018,-0.071555,-0.55104,-0.05281
1099,-0.052152,0.077093,-0.041628,-0.058729,-0.082079,-0.49448,-0.04393
1100,-0.054454,0.067556,-0.034393,-0.056098,-0.10477,-0.43035,-0.038668
1101,-0.055112,0.050784,-0.030118,-0.054783,-0.12878,-0.36688,-0.033078
1102,-0.05544,0.033025,-0.032091,-0.057414,-0.14851,-0.31557,-0.024856
1103,-0.054125,0.018884,-0.040313,-0.066951,-0.15969,-0.27841,-0.017621
1104,-0.050836,0.014608,-0.050507,-0.080434,-0.16232,-0.24783,-0.0090702
1105,-0.045246,0.021186,-0.053796,-0.089972,-0.15114,-0.21659,0.0011247
1106,-0.040313,0.034011,-0.04393,-0.087669,-0.12746,-0.17942,0.012306
1107,-0.038997,0.04618,-0.021896,-0.069253,-0.099838,-0.13305,0.027763
1108,-0.037024,0.052757,0.0034268,-0.046232,-0.079448,-0.080763,0.045522
1109,-0.031104,0.050126,0.021843,-0.029789,-0.065964,-0.0265,0.062623
1110,-0.015976,0.040589,0.02579,-0.025514,-0.059058,0.030394,0.073804
1111,0.0040845,0.032367,0.014279,-0.034064,-0.050507,0.091234,0.077093
1112,0.023159,0.026776,-0.0093991,-0.051165,-0.040313,0.14879,0.072489
1113,0.04026,0.027105,-0.039326,-0.068595,-0.034064,0.1991,0.065254
1114,0.053743,0.028092,-0.068924,-0.073857,-0.03538,0.2389,0.06065
1115,0.060979,0.025132,-0.092274,-0.063004,-0.045574,0.26553,0.061307
1116,0.06065,0.01987,-0.10346,-0.039326,-0.059058,0.27507,0.070187
1117,0.050784,0.017897,-0.1028,-0.014661,-0.072542,0.27244,0.081039
1118,0.030723,0.01987,-0.093918,0.0011247,-0.087341,0.25929,0.084986
1119,0.0060577,0.021514,-0.08175,0.0030979,-0.10444,0.23922,0.076764
1120,-0.016963,0.015266,-0.070568,-0.0067681,-0.11661,0.20864,0.059992
1121,-0.038997,-0.0024928,-0.062676,-0.022554,-0.11891,0.17378,0.045522
1122,-0.0584,-0.030775,-0.056427,-0.039326,-0.1097,0.14813,0.043877
1123,-0.076159,-0.062018,-0.050836,-0.052152,-0.091287,0.13925,0.046837
1124,-0.092603,-0.087998,-0.040313,-0.056427,-0.068266,0.1455,0.044535
1125,-0.10543,-0.10707,-0.020909,-0.053138,-0.042615,0.15865,0.033683
1126,-0.12089,-0.12483,0.0070443,-0.042615,-0.014003,0.15635,0.017239
1127,-0.14259,-0.15509,0.036971,-0.027487,0.01691,0.11228,-0.00051963
1128,-0.17022,-0.20244,0.058019,-0.010715,0.049139,0.02875,-0.015319
1129,-0.19291,-0.25539,0.068214,0.0060577,0.079395,-0.065635,-0.027158
1130,-0.19587,-0.29551,0.065912,0.023817,0.095181,-0.11793,-0.03538
1131,-0.17416,-0.30834,0.053743,0.042233,0.093865,-0.063662,-0.038668
1132,-0.13568,-0.29453,0.039273,0.05769,0.078409,0.11721,-0.035051
1133,-0.094576,-0.25605,0.027434,0.065583,0.052099,0.36715,-0.025185
1134,-0.056427,-0.20113,0.018555,0.058348,0.020528,0.58454,-0.013017
1135,-0.027487,-0.14062,0.013293,0.038287,-0.010057,0.68977,-0.002164
1136,-0.0061104,-0.086025,0.0060577,0.015924,-0.034393,0.66445,0.0083598
1137,0.013951,-0.047548,-0.0057815,0.002769,-0.05544,0.54277,0.017897
1138,0.032038,-0.027816,-0.020581,0.0057288,-0.077146,0.37834,0.025132
1139,0.04322,-0.020252,-0.025842,0.024803,-0.096549,0.21588,0.024145
1140,0.043877,-0.014661,-0.0097279,0.049468,-0.10707,0.076435,0.0093464
1141,0.037629,-0.0074258,0.028421,0.067227,-0.10872,-0.045574,-0.015319
1142,0.032038,-0.004466,0.077093,0.070187,-0.1028,-0.1666,-0.035708
1143,0.02875,-0.0057815,0.11524,0.059663,-0.095562,-0.29486,-0.052152
1144,0.032696,-0.010386,0.12313,0.040589,-0.091287,-0.4343,-0.069253
1145,0.039931,-0.020581,0.090905,0.01987,-0.085367,-0.59314,-0.093918
1146,0.04881,-0.034393,0.028092,0.002769,-0.080763,-0.75955,-0.12023
1147,0.050126,-0.048205,-0.043272,-0.0067681,-0.077146,-0.90523,-0.14226
1148,0.045851,-0.053796,-0.1028,-0.0051238,-0.073528,-1.0052,-0.15279
1149,0.039602,-0.047219,-0.13503,0.0077021,-0.069911,-1.0427,-0.15114
1150,0.036971,-0.026171,-0.14062,0.026776,-0.064978,-1.0351,-0.13864
1151,0.04322,0.0080309,-0.12384,0.04026,-0.056756,-1.0147,-0.11957
1152,0.059005,0.052757,-0.091287,0.04618,-0.042286,-1.0095,-0.098522
1153,0.077751,0.10176,-0.051165,0.048153,-0.019594,-1.0289,-0.078132
1154,0.093865,0.1478,-0.016305,0.049468,0.018555,-1.0637,-0.056427
1155,0.10011,0.18628,0.0063866,0.051441,0.074133,-1.095,-0.030118
1156,0.09551,0.22081,0.01691,0.052428,0.14385,-1.0914,0.002769
1157,0.085644,0.25106,0.020199,0.052428,0.21818,-1.0177,0.043877
1158,0.077093,0.27507,0.02579,0.054072,0.28921,-0.83782,0.085315
1159,0.075449,0.29546,0.036971,0.056046,0.34545,-0.51454,0.1284
1160,0.080711,0.31059,0.052099,0.050126,0.37768,-0.016305,0.16885
1161,0.087617,0.31815,0.064925,0.032367,0.38031,0.63387,0.20239
1162,0.092221,0.31486,0.071831,0.0093464,0.35499,1.3495,0.22574
1163,0.091563,0.29974,0.070845,-0.007097,0.31059,2.0431,0.23725
1164,0.086959,0.27277,0.065583,-0.01499,0.26257,2.66,0.24449
1165,0.083013,0.23626,0.058348,-0.012688,0.231,3.1974,0.26159
1166,0.084328,0.1945,0.053086,-0.002164,0.22804,3.664,0.29908
1167,0.088932,0.15569,0.050126,0.013293,0.25172,4.0291,0.35236
1168,0.093208,0.12577,0.050784,0.031052,0.29151,4.2254,0.41221
1169,0.09551,0.11327,0.058019,0.049797,0.33065,4.1633,0.46285
1170,0.097483,0.11097,0.068214,0.068214,0.34972,3.7696,0.48982
1171,0.094852,0.11031,0.076106,0.081697,0.34216,3.0606,0.47765
1172,0.086301,0.10274,0.077751,0.087288,0.30829,2.1486,0.42503
1173,0.070187,0.085972,0.072818,0.085644,0.256,1.2127,0.34446
1174,0.053743,0.057032,0.064925,0.080053,0.19285,0.41714,0.25896
1175,0.041247,0.018226,0.056374,0.071502,0.12675,-0.15048,0.1843
1176,0.032367,-0.022554,0.048482,0.061307,0.067885,-0.49086,0.12379
1177,0.032367,-0.054783,0.041247,0.049797,0.022172,-0.66582,0.073147
1178,0.041247,-0.066293,0.035327,0.042562,-0.0057815,-0.75034,0.030065
1179,0.058348,-0.058729,0.034011,0.040589,-0.014003,-0.81118,-0.0047949
1180,0.073804,-0.044588,0.036642,0.04322,-0.007097,-0.89043,-0.028802
1181,0.077093,-0.034393,0.045193,0.043877,0.0086887,-0.99863,-0.050836
1182,0.069529,-0.032091,0.051441,0.04322,0.024145,-1.1167,-0.073528
1183,0.053415,-0.036366,0.047824,0.040589,0.026447,-1.2144,-0.091287
1184,0.036314,-0.04097,0.03434,0.03434,0.0096753,-1.2755,-0.098851
1185,0.023159,-0.039984,0.015924,0.020857,-0.020252,-1.312,-0.094905
1186,0.015924,-0.033078,-0.0008485,0.002769,-0.054454,-1.3607,-0.089972
1187,0.014279,-0.020252,-0.011701,-0.016634,-0.087012,-1.4508,-0.089972
1188,0.020528,-0.0031506,-0.01499,-0.032749,-0.11299,-1.5745,-0.09622
1189,0.030394,0.015595,-0.01203,-0.048205,-0.13437,-1.685,-0.10707
1190,0.04026,0.03434,-0.0084125,-0.057743,-0.15081,-1.7215,-0.12187
1191,0.04618,0.05177,-0.007097,-0.057414,-0.16166,-1.6429,-0.137
1192,0.047824,0.06361,-0.014661,-0.049192,-0.16726,-1.4653,-0.14818
1193,0.047166,0.068543,-0.029789,-0.041628,-0.16364,-1.2417,-0.1541
1194,0.043549,0.068214,-0.04689,-0.040313,-0.15607,-1.021,-0.15279
1195,0.037958,0.069858,-0.060702,-0.045903,-0.14851,-0.82532,-0.14884
1196,0.033025,0.071173,-0.069582,-0.051823,-0.13536,-0.65168,-0.137
1197,0.030723,0.06624,-0.073528,-0.054783,-0.11431,-0.505,-0.11529
1198,0.031052,0.053086,-0.072213,-0.048534,-0.0903,-0.41654,-0.083394
1199,0.03434,0.033025,-0.068266,-0.032091,-0.072542,-0.42213,-0.052481
1200,0.035985,0.0086887,-0.062676,-0.01203,-0.065307,-0.52243,-0.033406
1201,0.030394,-0.01795,-0.055769,0.00079584,-0.071555,-0.66286,-0.031433
1202,0.012964,-0.042944,-0.04689,0.002769,-0.088985,-0.76645,-0.041957
1203,-0.014661,-0.063991,-0.041628,-0.0028217,-0.11299,-0.76251,-0.060373
1204,-0.047548,-0.082079,-0.045903,-0.013345,-0.13305,-0.60465,-0.084052
1205,-0.083723,-0.10017,-0.058729,-0.02354,-0.13864,-0.3011,-0.1074
1206,-0.11497,-0.12089,-0.073199,-0.030118,-0.12845,0.079395,-0.12286
1207,-0.13897,-0.14391,-0.077146,-0.030118,-0.10411,0.4349,-0.12384
1208,-0.15377,-0.16791,-0.068924,-0.027158,-0.068266,0.69536,-0.10937
1209,-0.16298,-0.19258,-0.049521,-0.021896,-0.024856,0.85651,-0.082736
1210,-0.16726,-0.21659,-0.028473,-0.014003,0.019212,1.0137,-0.049192
1211,-0.16791,-0.23402,-0.014003,-0.0034794,0.05473,1.3123,-0.01499
1212,-0.16298,-0.2373,-0.0077547,0.0077021,0.074133,1.8342,0.015924
1213,-0.15476,-0.22612,-0.0064392,0.018884,0.08367,2.4818,0.034669
1214,-0.14555,-0.20376,-0.004466,0.02875,0.088603,3.0168,0.032696
1215,-0.13667,-0.17515,-0.002164,0.034669,0.092879,3.2207,0.012306
1216,-0.12549,-0.14127,-0.0047949,0.036642,0.10274,3.0267,-0.016305
1217,-0.11299,-0.10411,-0.015648,0.030723,0.11656,2.5416,-0.045246
1218,-0.10082,-0.068924,-0.037682,0.024145,0.13333,1.9658,-0.068266
1219,-0.089314,-0.039655,-0.067937,0.01987,0.14648,1.4751,-0.083065
1220,-0.077803,-0.019923,-0.097207,0.019212,0.15076,1.1482,-0.090958
1221,-0.069582,-0.0067681,-0.11727,0.016581,0.14385,0.95583,-0.089972
1222,-0.061689,-0.0034794,-0.12352,0.0093464,0.13037,0.81047,-0.082408
1223,-0.05281,-0.010386,-0.11661,-0.002164,0.11952,0.62762,-0.07024
1224,-0.041299,-0.029789,-0.10017,-0.015648,0.11426,0.36387,-0.052152
1225,-0.031104,-0.055112,-0.076817,-0.024527,0.10735,-0.0028217,-0.027158
1226,-0.025514,-0.081092,-0.051165,-0.027487,0.092879,-0.47113,-0.0038083
1227,-0.026171,-0.1005,-0.024198,-0.02354,0.064596,-0.99403,0.013293
1228,-0.035708,-0.11003,0.0001381,-0.015319,0.022172,-1.4535,0.021843
1229,-0.048534,-0.11299,0.019212,-0.0077547,-0.030447,-1.6958,0.022501
1230,-0.057085,-0.11233,0.030723,-0.002164,-0.079448,-1.6156,0.018226
1231,-0.061689,-0.10543,0.033683,0.0044134,-0.11431,-1.2367,0.013293
1232,-0.065307,-0.092603,0.029078,0.010662,-0.12944,-0.71909,0.011977
1233,-0.069253,-0.074515,0.017897,0.015266,-0.12516,-0.25375,0.019541
1234,-0.069911,-0.053796,-0.0008485,0.016253,-0.10905,0.034669,0.036314
1235,-0.065307,-0.037353,-0.023211,0.013951,-0.088656,0.14089,0.058348
1236,-0.052481,-0.028144,-0.044917,0.0077021,-0.073528,0.14681,0.076106
1237,-0.03242,-0.023211,-0.063662,0.0011247,-0.068266,0.14155,0.084328
1238,-0.011701,-0.022225,-0.077803,-0.002164,-0.076159,0.1695,0.080711
1239,0.0034268,-0.024856,-0.08471,0.0001381,-0.090629,0.21851,0.069858
1240,0.0093464,-0.0265,-0.080434,0.0024402,-0.1028,0.2435,0.058019
1241,0.012635,-0.021238,-0.065964,-0.0015062,-0.11135,0.20404,0.04618
1242,0.012635,-0.0097279,-0.044588,-0.011043,-0.1176,0.082684,0.034998
1243,0.011977,0.0086887,-0.020252,-0.019265,-0.12154,-0.10115,0.023488
1244,0.010004,0.032367,0.00046697,-0.018936,-0.12023,-0.30604,0.011648
1245,0.0067154,0.058019,0.014608,-0.011701,-0.11464,-0.48428,0.0030979
1246,0.0044134,0.076764,0.022172,-0.002164,-0.1074,-0.61057,-0.0054526
1247,0.0047422,0.084986,0.02283,0.0021113,-0.10444,-0.6793,-0.011043
1248,0.0086887,0.087617,0.016581,-0.0028217,-0.10082,-0.70693,-0.016305
1249,0.014279,0.09551,0.0060577,-0.011372,-0.09326,-0.71942,-0.024527
1250,0.01987,0.11064,-0.0061104,-0.01795,-0.087669,-0.75132,-0.030447
1251,0.021514,0.12642,-0.017292,-0.019594,-0.089643,-0.82959,-0.03242
1252,0.014937,0.13267,-0.024856,-0.018936,-0.094247,-0.96739,-0.030118
1253,0.0037556,0.12642,-0.027158,-0.014332,-0.095891,-1.1532,-0.021896
1254,-0.0047949,0.11426,-0.022225,-0.0087413,-0.092931,-1.3407,-0.007097
1255,-0.0061104,0.09551,-0.0067681,-0.0057815,-0.088985,-1.4683,0.0077021
1256,-0.002164,0.070845,0.01691,-0.0064392,-0.085367,-1.4929,0.012964
1257,0.0034268,0.041247,0.038616,-0.0074258,-0.078132,-1.4074,0.0096753
1258,0.0093464,0.015595,0.049468,-0.0077547,-0.065964,-1.244,0.00079584
1259,0.011977,-0.0011774,0.051441,-0.0061104,-0.054783,-1.0532,-0.0090702
1260,0.010991,-0.007097,0.048482,-0.0031506,-0.050507,-0.8786,-0.014661
1261,0.0083598,-0.0047949,0.04618,-0.002164,-0.059716,-0.7362,-0.015976
1262,0.0063866,0.0073732,0.040589,-0.0074258,-0.07879,-0.6257,-0.016634
1263,0.0073732,0.027763,0.030065,-0.019594,-0.10115,-0.53624,-0.020581
1264,0.012964,0.052099,0.019212,-0.032091,-0.11957,-0.46159,-0.025185
1265,0.023817,0.073804,0.0090175,-0.040641,-0.13108,-0.39779,-0.029789
1266,0.038616,0.087288,0.0057288,-0.043601,-0.13667,-0.34682,-0.034064
1267,0.053743,0.08959,0.012635,-0.039984,-0.13371,-0.31294,-0.039655
1268,0.059334,0.086959,0.029078,-0.033078,-0.12944,-0.29683,-0.039326
1269,0.056046,0.088932,0.045522,-0.025185,-0.12352,-0.2942,-0.034393
1270,0.050126,0.11195,0.054401,-0.015648,-0.12154,-0.29486,-0.024527
1271,0.047166,0.16589,0.05769,-0.0080836,-0.12056,-0.29124,-0.013017
1272,0.048482,0.24218,0.055059,-0.0024928,-0.11201,-0.2817,-0.0024928
1273,0.051441,0.32144,0.05177,0.0047422,-0.087341,-0.26855,0.0057288
1274,0.053415,0.37834,0.047824,0.012306,-0.039655,-0.24947,0.011648
1275,0.052757,0.3905,0.043549,0.012964,0.033354,-0.21626,0.014608
1276,0.048153,0.34611,0.0373,0.00079584,0.11491,-0.16101,0.014937
1277,0.042891,0.24942,0.032038,-0.025185,0.16885,-0.089314,0.014937
1278,0.034669,0.12511,0.027434,-0.064649,0.1649,-0.013674,0.013293
1279,0.020528,-0.0024928,0.026776,-0.10674,0.096496,0.050784,0.0047422
1280,0.0034268,-0.1097,0.033025,-0.13667,-0.0090702,0.090905,-0.012688
1281,-0.014332,-0.18107,0.045851,-0.13864,-0.10707,0.10636,-0.033406
1282,-0.025185,-0.21626,0.063281,-0.10872,-0.16035,0.10702,-0.048534
1283,-0.02354,-0.22415,0.078737,-0.052481,-0.15805,0.1034,-0.055769
1284,-0.014661,-0.21757,0.088603,0.010662,-0.11003,0.10932,-0.0584
1285,-0.0015062,-0.21099,0.093536,0.064267,-0.04393,0.13136,-0.05281
1286,0.011648,-0.2133,0.094194,0.094523,0.014937,0.16194,-0.042944
1287,0.023817,-0.22711,0.087288,0.10274,0.053743,0.19285,-0.034393
1288,0.032696,-0.24289,0.073804,0.096825,0.073476,0.22804,-0.033406
1289,0.035656,-0.25375,0.056374,0.085644,0.07808,0.26586,-0.039984
1290,0.035985,-0.24355,0.035656,0.071173,0.074791,0.29908,-0.04985
1291,0.039273,-0.2008,0.012964,0.055059,0.068543,0.32835,-0.059058
1292,0.047495,-0.1245,-0.010715,0.04026,0.064267,0.35893,-0.068924
1293,0.054401,-0.021896,-0.031104,0.024474,0.06624,0.38754,-0.075173
1294,0.059992,0.082355,-0.043272,0.0093464,0.071173,0.403,-0.074186
1295,0.068543,0.16687,-0.051494,0.0001381,0.07512,0.39313,-0.066951
1296,0.074462,0.21522,-0.061689,0.0021113,0.072818,0.35531,-0.054125
1297,0.075449,0.22771,-0.074844,0.0090175,0.064925,0.29217,-0.039326
1298,0.069529,0.21752,-0.08471,0.015266,0.050455,0.21357,-0.023869
1299,0.060321,0.19549,-0.083723,0.016581,0.036314,0.12577,-0.0084125
1300,0.04881,0.17181,-0.069253,0.016581,0.027434,0.033683,0.0080309
1301,0.038616,0.15734,-0.04393,0.018884,0.030065,-0.056098,0.025461
1302,0.030394,0.15405,-0.011372,0.023159,0.04618,-0.13503,0.04322
1303,0.021843,0.15668,0.017568,0.031052,0.070516,-0.18271,0.060979
1304,0.015924,0.15602,0.036971,0.044864,0.098798,-0.16528,0.080711
1305,0.014608,0.14385,0.041247,0.063938,0.12412,-0.039326,0.10242
1306,0.018226,0.11754,0.032696,0.083342,0.13859,0.22081,0.12708
1307,0.020199,0.077093,0.018226,0.09551,0.14352,0.58618,0.14846
1308,0.018555,0.027763,0.0080309,0.10242,0.13991,0.96964,0.15964
1309,0.013293,-0.027158,0.0070443,0.10505,0.13497,1.2709,0.15964
1310,0.0040845,-0.080763,0.011648,0.10373,0.13596,1.4281,0.15273
1311,-0.0077547,-0.12648,0.018555,0.10274,0.1478,1.4432,0.14418
1312,-0.022225,-0.16495,0.023817,0.1034,0.17082,1.3679,0.14056
1313,-0.038997,-0.19916,0.024803,0.10932,0.20272,1.2663,0.14056
1314,-0.055769,-0.2327,0.026447,0.12182,0.23758,1.1745,0.14254
1315,-0.067937,-0.25638,0.026447,0.14155,0.26817,1.093,0.14385
1316,-0.069911,-0.25737,0.027434,0.1626,0.28264,1.0009,0.14484
1317,-0.059387,-0.23007,0.029407,0.17871,0.27277,0.88019,0.14385
1318,-0.038997,-0.18403,0.029078,0.18036,0.24021,0.73121,0.13629
1319,-0.014003,-0.13141,0.026119,0.1672,0.19549,0.56316,0.11919
1320,0.0086887,-0.078132,0.019212,0.14352,0.15207,0.39609,0.095181
1321,0.024803,-0.028473,0.0057288,0.1136,0.11853,0.24679,0.071173
1322,0.029736,0.018884,-0.012688,0.08367,0.096167,0.11853,0.051441
1323,0.028421,0.063281,-0.031433,0.063938,0.08663,0.0044134,0.04026
1324,0.027434,0.11064,-0.04393,0.057032,0.082355,-0.10773,0.042562
1325,0.031709,0.15701,-0.04985,0.058019,0.079066,-0.22711,0.056046
1326,0.045522,0.1968,-0.053138,0.064267,0.074133,-0.35931,0.079395
1327,0.065583,0.22771,-0.054783,0.070187,0.071831,-0.49382,0.11064
1328,0.085972,0.25304,-0.054454,0.070845,0.069858,-0.61583,0.14122
1329,0.10176,0.27639,-0.054783,0.068871,0.067885,-0.70199,0.1626
1330,0.10965,0.29513,-0.057085,0.06361,0.06361,-0.71186,0.17049
1331,0.11327,0.30829,-0.061031,0.055388,0.05769,-0.61978,0.16753
1332,0.11064,0.31355,-0.063991,0.043549,0.049797,-0.43528,0.15931
1333,0.1011,0.31059,-0.06136,0.033025,0.038944,-0.19455,0.15273
1334,0.08959,0.29678,-0.04985,0.032367,0.023817,0.059663,0.14616
1335,0.081697,0.27672,-0.031762,0.042233,0.002769,0.29217,0.13596
1336,0.072489,0.25139,-0.010715,0.052428,-0.019923,0.47272,0.11853
1337,0.058348,0.21653,0.0080309,0.052428,-0.037682,0.57335,0.094852
1338,0.033683,0.16852,0.022501,0.041247,-0.053467,0.58092,0.067556
1339,0.0017824,0.11064,0.033683,0.021843,-0.073857,0.50265,0.042562
1340,-0.03242,0.049797,0.039931,-0.0031506,-0.10148,0.37965,0.022501
1341,-0.0584,-0.0064392,0.045522,-0.026171,-0.12976,0.25205,0.0077021
1342,-0.069582,-0.054125,0.050126,-0.042286,-0.14719,0.14912,-0.0031506
1343,-0.069253,-0.09326,0.056374,-0.04689,-0.14752,0.082684,-0.0074258
1344,-0.060373,-0.12911,0.064925,-0.044588,-0.13141,0.048482,-0.0093991
1345,-0.052481,-0.1666,0.075778,-0.042615,-0.11102,0.03434,-0.013017
1346,-0.051165,-0.21297,0.085972,-0.04393,-0.094905,0.024145,-0.018936
1347,-0.057743,-0.26164,0.084657,-0.051165,-0.095891,0.0060577,-0.030118
1348,-0.07287,-0.30078,0.06624,-0.063004,-0.11661,-0.02946,-0.045246
1349,-0.09326,-0.31919,0.033354,-0.080434,-0.14917,-0.084052,-0.060373
1350,-0.10905,-0.31755,-0.0008485,-0.097536,-0.18534,-0.15279,-0.073199
1351,-0.11595,-0.2988,-0.027158,-0.10609,-0.21922,-0.22744,-0.08471
1352,-0.11595,-0.26526,-0.039984,-0.10839,-0.24717,-0.30209,-0.099509
1353,-0.11135,-0.22349,-0.040313,-0.10872,-0.27184,-0.3774,-0.11497
1354,-0.10477,-0.17712,-0.033735,-0.10872,-0.29157,-0.45995,-0.12483
1355,-0.099838,-0.12713,-0.028144,-0.10839,-0.30604,-0.55203,-0.12812
1356,-0.093589,-0.081092,-0.024527,-0.10641,-0.31525,-0.65168,-0.12713
1357,-0.085039,-0.040313,-0.023869,-0.10444,-0.32084,-0.75955,-0.12746
1358,-0.07583,-0.0051238,-0.027158,-0.10806,-0.32774,-0.87465,-0.13338
1359,-0.065964,0.024145,-0.033406,-0.11398,-0.33432,-0.98745,-0.14358
1360,-0.056756,0.047166,-0.037024,-0.11957,-0.33695,-1.0855,-0.14983
1361,-0.051494,0.064596,-0.036695,-0.1199,-0.33498,-1.1611,-0.15048
1362,-0.051165,0.071173,-0.032749,-0.11332,-0.32577,-1.215,-0.15246
1363,-0.052152,0.068214,-0.028802,-0.10115,-0.30933,-1.2509,-0.15903
1364,-0.051823,0.054401,-0.025514,-0.085696,-0.28762,-1.2755,-0.16002
1365,-0.044588,0.032038,-0.018607,-0.076488,-0.26493,-1.2903,-0.14423
1366,-0.028802,0.0060577,-0.0084125,-0.075173,-0.24355,-1.2903,-0.11365
1367,-0.010386,-0.015976,0.0017824,-0.077803,-0.21987,-1.2805,-0.083394
1368,0.0011247,-0.030775,0.012306,-0.079119,-0.18929,-1.2857,-0.065307
1369,0.00079584,-0.036366,0.01987,-0.07287,-0.15509,-1.3387,-0.067937
1370,-0.012688,-0.04097,0.022172,-0.057085,-0.12187,-1.4518,-0.0903
1371,-0.034064,-0.057085,0.017897,-0.036366,-0.079119,-1.5916,-0.11661
1372,-0.053467,-0.089972,0.0096753,-0.01203,-0.0087413,-1.6879,-0.13272
1373,-0.062347,-0.13009,0.0001381,0.014608,0.10011,-1.6527,-0.12944
1374,-0.053796,-0.16331,-0.0093991,0.045522,0.24087,-1.4005,-0.10313
1375,-0.032749,-0.18337,-0.015319,0.077751,0.39478,-0.89537,-0.060045
1376,-0.011701,-0.19159,-0.01795,0.10538,0.53488,-0.18205,-0.0093991
1377,0.0014536,-0.19192,-0.013345,0.12577,0.63847,0.6069,0.034011
1378,0.0060577,-0.17877,0.0011247,0.13892,0.69471,1.3061,0.062294
1379,0.0054,-0.14785,0.020199,0.1432,0.70128,1.7911,0.073147
1380,0.00079584,-0.10576,0.034998,0.13859,0.66116,2.0089,0.072489
1381,-0.004466,-0.065307,0.038287,0.1284,0.58618,1.974,0.064596
1382,-0.004466,-0.031433,0.026776,0.1159,0.49048,1.7481,0.052428
1383,0.0047422,-0.0067681,0.0011247,0.10044,0.38952,1.4208,0.036314
1384,0.020528,0.0086887,-0.034064,0.081039,0.29546,1.0972,0.022501
1385,0.039273,0.01691,-0.071884,0.057032,0.21785,0.87525,0.018226
1386,0.055059,0.020528,-0.10641,0.030394,0.15701,0.82592,0.019212
1387,0.06624,0.030394,-0.13404,0.0021113,0.1113,0.99365,0.028092
1388,0.071173,0.053415,-0.15344,-0.0265,0.074462,1.3768,0.041904
1389,0.071831,0.087946,-0.16035,-0.053796,0.042562,1.9214,0.063938
1390,0.071502,0.12609,-0.15509,-0.075501,0.012964,2.5324,0.088603
1391,0.070187,0.15438,-0.13864,-0.087669,-0.010386,3.0977,0.11261
1392,0.06624,0.16457,-0.11529,-0.088656,-0.018278,3.5016,0.13695
1393,0.056046,0.15931,-0.087998,-0.080106,-0.013017,3.6446,0.15997
1394,0.042233,0.14254,-0.061031,-0.066951,-0.0074258,3.4694,0.18069
1395,0.032696,0.12149,-0.039326,-0.054783,-0.011372,2.9922,0.18661
1396,0.025461,0.10143,-0.022883,-0.053138,-0.029789,2.3009,0.17181
1397,0.017897,0.082684,-0.011043,-0.057085,-0.059716,1.5258,0.13464
1398,0.0063866,0.066569,-0.0067681,-0.060702,-0.092603,0.80981,0.080382
1399,-0.0041372,0.052099,-0.0097279,-0.065635,-0.12549,0.2731,0.016253
1400,-0.0090702,0.038944,-0.015648,-0.073199,-0.15377,-0.028144,-0.046232
1401,-0.0090702,0.027763,-0.019594,-0.083723,-0.17318,-0.11595,-0.093918
1402,-0.0057815,0.023817,-0.018936,-0.090629,-0.18403,-0.062018,-0.11628
1403,-0.0018351,0.030394,-0.014003,-0.093918,-0.18765,0.060979,-0.11431
1404,0.0014536,0.043877,-0.0061104,-0.093589,-0.19126,0.19121,-0.090958
1405,0.0057288,0.061307,0.00079584,-0.087998,-0.20244,0.28132,-0.060373
1406,0.0077021,0.07216,0.0067154,-0.079448,-0.21823,0.31486,-0.026829
1407,0.0060577,0.074462,0.013293,-0.07287,-0.23566,0.30138,0.0040845
1408,-0.0011774,0.067227,0.024474,-0.070897,-0.25112,0.25468,0.030065
1409,-0.013017,0.05473,0.041575,-0.070897,-0.25835,0.17082,0.049797
1410,-0.024856,0.043549,0.061636,-0.067609,-0.25342,0.027763,0.064925
1411,-0.0265,0.038616,0.082355,-0.055112,-0.23698,-0.19422,0.067227
1412,-0.020581,0.037958,0.097812,-0.037024,-0.21198,-0.51257,0.059334
1413,-0.010057,0.037629,0.10044,-0.015976,-0.1814,-0.92135,0.041247
1414,0.0017824,0.035985,0.088603,0.0077021,-0.1518,-1.3864,0.012964
1415,0.011648,0.033354,0.07216,0.029407,-0.13075,-1.8639,-0.022883
1416,0.01691,0.031381,0.06361,0.04618,-0.11431,-2.3174,-0.053138
1417,0.018884,0.033025,0.071173,0.061965,-0.092603,-2.711,-0.071555
1418,0.018226,0.040589,0.093536,0.078409,-0.055112,-2.9807,-0.074186
1419,0.019541,0.055388,0.11623,0.09551,0.0014536,-3.0323,-0.062676
1420,0.021514,0.071173,0.12609,0.10965,0.072818,-2.7706,-0.037024
1421,0.02283,0.080053,0.11754,0.11754,0.14747,-2.1615,-0.0054526
1422,0.01987,0.080382,0.090577,0.1182,0.207,-1.3242,0.024474
1423,0.014608,0.073476,0.052099,0.11064,0.23857,-0.52901,0.046837
1424,0.010004,0.062294,0.014279,0.094523,0.23857,-0.056427,0.058348
1425,0.0057288,0.04881,-0.014003,0.076106,0.21028,-0.01203,0.059005
1426,0.002769,0.036971,-0.029789,0.06361,0.16786,-0.3067,0.054072
1427,-0.0008485,0.027434,-0.030118,0.062952,0.12807,-0.74705,0.047824
1428,-0.0011774,0.024145,-0.019594,0.072489,0.10077,-1.1598,0.042891
1429,0.0044134,0.029078,-0.0064392,0.084986,0.085972,-1.4617,0.035327
1430,0.0090175,0.035985,0.0030979,0.093865,0.073804,-1.6491,0.023817
1431,0.010004,0.038944,0.0034268,0.095839,0.055388,-1.7425,0.0096753
1432,0.0073732,0.036971,-0.0047949,0.088932,0.029407,-1.7376,-0.0015062
1433,0.0050711,0.027763,-0.016963,0.078409,-0.0041372,-1.5932,-0.0034794
1434,0.0067154,0.011648,-0.022225,0.062294,-0.038668,-1.2417,0.0073732
1435,0.0080309,-0.0077547,-0.014661,0.043877,-0.066293,-0.6405,0.029078
1436,0.0083598,-0.025842,0.0086887,0.029078,-0.078461,0.14846,0.06065
1437,0.0060577,-0.04097,0.040918,0.025461,-0.073199,0.94958,0.10209
1438,-0.0038083,-0.054783,0.072489,0.035985,-0.054783,1.5577,0.14352
1439,-0.014332,-0.063333,0.099456,0.055059,-0.032091,1.823,0.17477
1440,-0.022554,-0.065964,0.11787,0.07216,-0.020252,1.6971,0.18924
1441,-0.021896,-0.063333,0.12642,0.078409,-0.027487,1.263,0.18332
1442,-0.0087413,-0.056098,0.12116,0.071173,-0.055769,0.69898,0.16063
1443,0.014937,-0.047219,0.10307,0.057032,-0.092931,0.18496,0.12938
1444,0.037958,-0.039326,0.077751,0.042891,-0.12286,-0.16035,0.098798
1445,0.053086,-0.031104,0.047824,0.034011,-0.14062,-0.30439,0.070845
1446,0.055388,-0.02354,0.015924,0.032038,-0.14423,-0.29617,0.044864
1447,0.048153,-0.018936,-0.014661,0.031052,-0.13799,-0.22349,0.013622
1448,0.034998,-0.012688,-0.042615,0.027105,-0.12384,-0.16232,-0.018936
1449,0.019212,-0.0064392,-0.065964,0.021186,-0.10378,-0.14917,-0.04689
1450,0.0080309,-0.002164,-0.078132,0.015266,-0.083394,-0.18205,-0.065964
1451,0.002769,-0.0008485,-0.079777,0.0093464,-0.066951,-0.22974,-0.078132
1452,-0.0008485,-0.0034794,-0.073528,0.0021113,-0.053796,-0.2521,-0.085696
1453,-0.0047949,-0.010715,-0.066951,-0.0074258,-0.048863,-0.21659,-0.087998
1454,-0.0093991,-0.019923,-0.064649,-0.018278,-0.049521,-0.10346,-0.087669
1455,-0.01203,-0.025514,-0.069582,-0.025514,-0.049521,0.088275,-0.086683
1456,-0.013017,-0.025514,-0.079777,-0.025185,-0.038011,0.33821,-0.085039
1457,-0.013017,-0.022225,-0.090629,-0.014332,-0.01203,0.61183,-0.080106
1458,-0.0093991,-0.020252,-0.097536,0.0077021,0.024803,0.85848,-0.068924
1459,-0.0024928,-0.015319,-0.09326,0.030065,0.068214,1.0196,-0.051494
1460,0.0060577,-0.010715,-0.078461,0.044206,0.10932,1.068,-0.028802
1461,0.015595,-0.013345,-0.057085,0.04881,0.13991,1.0094,-0.0090702
1462,0.024474,-0.025514,-0.033406,0.047824,0.15306,0.86901,0.0054
1463,0.027105,-0.045903,-0.014003,0.043549,0.14747,0.68155,0.0080309
1464,0.017239,-0.068266,-0.0011774,0.038944,0.1284,0.46943,-0.0018351
1465,-0.0024928,-0.086683,0.0054,0.034998,0.10307,0.23298,-0.01795
1466,-0.0265,-0.098851,0.0063866,0.032038,0.07512,-0.048534,-0.035708
1467,-0.045246,-0.10411,0.0054,0.033025,0.04026,-0.4047,-0.050507
1468,-0.050836,-0.097536,0.0037556,0.031709,-0.0038083,-0.8536,-0.060373
1469,-0.040641,-0.079777,0.0034268,0.026776,-0.051823,-1.3735,-0.068266
1470,-0.019594,-0.054783,-0.0047949,0.021843,-0.088656,-1.8678,-0.075501
1471,0.0047422,-0.029131,-0.020909,0.017239,-0.10543,-2.1858,-0.078132
1472,0.025132,-0.0054526,-0.037353,0.010662,-0.098522,-2.2056,-0.072213
1473,0.039931,0.013293,-0.044917,0.0040845,-0.07583,-1.9086,-0.054125
1474,0.049468,0.027105,-0.039326,0.00046697,-0.048205,-1.3923,-0.025842
1475,0.05177,0.033025,-0.022225,-0.0011774,-0.027816,-0.79112,0.0047422
1476,0.046837,0.032367,0.00079584,-0.0015062,-0.017621,-0.21428,0.02579
1477,0.04026,0.026119,0.024803,-0.0038083,-0.015976,0.26422,0.029407
1478,0.031052,0.019541,0.044864,-0.0061104,-0.014003,0.59243,0.020857
1479,0.023159,0.01691,0.059663,-0.0080836,-0.0090702,0.74535,0.0037556
1480,0.021186,0.019541,0.066898,-0.010386,0.002769,0.73877,-0.019265
1481,0.027434,0.02579,0.070845,-0.010386,0.024474,0.61874,-0.042944
1482,0.040918,0.038287,0.074791,-0.0011774,0.055717,0.44806,-0.059716
1483,0.053086,0.060979,0.079724,0.016253,0.096825,0.28066,-0.065307
1484,0.056046,0.086301,0.080053,0.03434,0.13793,0.14188,-0.062018
1485,0.044864,0.10538,0.068543,0.042562,0.16819,0.039273,-0.050836
1486,0.021186,0.10669,0.041904,0.037629,0.1797,-0.031104,-0.037024
1487,-0.0038083,0.091892,0.0047422,0.02283,0.17049,-0.06728,-0.025185
1488,-0.018278,0.06624,-0.038668,0.0040845,0.14747,-0.065307,-0.021567
1489,-0.021238,0.041904,-0.074515,-0.01499,0.11524,-0.010057,-0.022554
1490,-0.016305,0.02579,-0.097207,-0.03242,0.081039,0.10472,-0.019265
1491,-0.0061104,0.021514,-0.10707,-0.045903,0.054072,0.26126,-0.011372
1492,0.0073732,0.02875,-0.10707,-0.05544,0.038944,0.43128,-0.00051963
1493,0.019541,0.045522,-0.098522,-0.060045,0.038616,0.58552,0.010333
1494,0.033354,0.063281,-0.081421,-0.059387,0.04881,0.70063,0.013293
1495,0.046837,0.071173,-0.062347,-0.050179,0.058348,0.7664,0.0073732
1496,0.053743,0.06624,-0.044588,-0.034393,0.052757,0.77627,-0.0051238
1497,0.04881,0.051441,-0.032091,-0.019594,0.030723,0.73614,-0.018607
1498,0.037629,0.039273,-0.029789,-0.014661,0.00079584,0.65656,-0.030118
1499,0.029407,0.04026,-0.03538,-0.016305,-0.024527,0.55362,-0.038668
1500,0.028092,0.05769,-0.043601,-0.015319,-0.04097,0.44838,-0.042944
1501,0.027105,0.08959,-0.049192,-0.013017,-0.049192,0.35795,-0.041299
1502,0.01987,0.12083,-0.04985,-0.0097279,-0.050179,0.28461,-0.034722
1503,0.0057288,0.14155,-0.046232,-0.0074258,-0.051165,0.22771,-0.023869
1504,-0.014661,0.14451,-0.037682,-0.007097,-0.053138,0.18496,-0.015319
1505,-0.038339,0.12938,-0.025842,-0.011701,-0.056098,0.15142,-0.012688
1506,-0.06432,0.099127,-0.012688,-0.016305,-0.060045,0.13136,-0.013017
1507,-0.088656,0.056374,0.0017824,-0.024527,-0.068266,0.13234,-0.013345
1508,-0.1097,0.0034268,0.017568,-0.035051,-0.076159,0.16293,-0.0097279
1509,-0.12878,-0.061031,0.036642,-0.044588,-0.080434,0.21785,-0.0051238
1510,-0.14522,-0.12746,0.053086,-0.047219,-0.078132,0.28921,-0.00019077
1511,-0.15805,-0.18008,0.063281,-0.036695,-0.066293,0.36584,0.0060577
1512,-0.16298,-0.20508,0.063938,-0.014661,-0.049521,0.44016,0.012306
1513,-0.15607,-0.19389,0.057032,0.010991,-0.034064,0.50495,0.019212
1514,-0.13338,-0.1518,0.046508,0.032696,-0.019923,0.55198,0.027763
1515,-0.099838,-0.09918,0.03434,0.044206,-0.002164,0.58092,0.040589
1516,-0.061689,-0.050507,0.02283,0.050455,0.020199,0.59605,0.055388
1517,-0.028802,-0.015648,0.014608,0.052099,0.044206,0.59637,0.071173
1518,-0.0077547,0.0014536,0.011648,0.050455,0.06065,0.58486,0.086301
1519,0.0017824,0.00046697,0.0096753,0.042233,0.059992,0.55888,0.099127
1520,0.0073732,-0.014661,0.0060577,0.031052,0.045522,0.52731,0.10669
1521,0.010662,-0.034393,0.0030979,0.020528,0.027763,0.49278,0.11261
1522,0.010662,-0.048863,0.0047422,0.012635,0.011977,0.45792,0.12182
1523,0.0083598,-0.054783,0.012306,0.0073732,0.0021113,0.42339,0.13103
1524,0.0070443,-0.052152,0.02283,0.0021113,0.00079584,0.38754,0.14056
1525,0.0073732,-0.042286,0.030394,-0.004466,0.0030979,0.34676,0.14484
1526,0.012306,-0.025514,0.029407,-0.014003,0.0030979,0.29086,0.14056
1527,0.020199,-0.013017,0.021514,-0.025185,-0.004466,0.21423,0.12215
1528,0.02875,-0.012359,0.0073732,-0.031762,-0.019265,0.11689,0.086301
1529,0.03434,-0.024527,-0.013345,-0.036695,-0.037353,0.0047422,0.043549
1530,0.034011,-0.04393,-0.038339,-0.038668,-0.052481,-0.11891,0.0093464
1531,0.028421,-0.059716,-0.056756,-0.039984,-0.063662,-0.24783,-0.011701
1532,0.020528,-0.062676,-0.06728,-0.038011,-0.073199,-0.38661,-0.01795
1533,0.014279,-0.050836,-0.067937,-0.030775,-0.081092,-0.54348,-0.013017
1534,0.01132,-0.027158,-0.060702,-0.018936,-0.087998,-0.72469,0.0040845
1535,0.014937,0.0017824,-0.049521,-0.0061104,-0.088656,-0.92135,0.026447
1536,0.026776,0.029736,-0.039326,0.002769,-0.08175,-1.0953,0.047166
1537,0.04322,0.052099,-0.030118,0.010991,-0.064978,-1.1963,0.062952
1538,0.06065,0.067227,-0.021896,0.021186,-0.043601,-1.192,0.073476
1539,0.076435,0.073147,-0.013017,0.036314,-0.018936,-1.0785,0.085315
1540,0.08959,0.069858,-0.0031506,0.050455,0.0047422,-0.88846,0.10209
1541,0.099456,0.055388,0.0083598,0.06065,0.02283,-0.67832,0.1182
1542,0.10209,0.030394,0.018226,0.065254,0.030065,-0.51553,0.12642
1543,0.097483,-0.0034794,0.023159,0.061636,0.021843,-0.45304,0.12083
1544,0.086301,-0.038339,0.024474,0.051441,-0.0008485,-0.50434,0.093865
1545,0.070516,-0.064978,0.025461,0.040918,-0.034064,-0.64181,0.052428
1546,0.049468,-0.082079,0.029407,0.03434,-0.069582,-0.81151,0.0047422
1547,0.027763,-0.087669,0.036971,0.033683,-0.1005,-0.96377,-0.038997
1548,0.0093464,-0.08175,0.044535,0.0373,-0.11891,-1.0644,-0.07287
1549,-0.0057815,-0.068595,0.049797,0.041904,-0.12384,-1.1035,-0.097536
1550,-0.014332,-0.056427,0.053415,0.047495,-0.11628,-1.0828,-0.11332
1551,-0.019594,-0.045903,0.056374,0.056703,-0.099838,-1.0082,-0.12187
1552,-0.024856,-0.039984,0.059992,0.067227,-0.079119,-0.89274,-0.12089
1553,-0.032749,-0.036366,0.061965,0.076764,-0.058071,-0.75165,-0.11299
1554,-0.039326,-0.031762,0.062294,0.077751,-0.036695,-0.60531,-0.098851
1555,-0.042615,-0.020581,0.059005,0.069858,-0.020252,-0.45995,-0.081092
1556,-0.042615,-0.0031506,0.053743,0.052099,-0.011372,-0.31755,-0.065635
1557,-0.038668,0.021843,0.046837,0.027105,-0.0084125,-0.18896,-0.059058
1558,-0.030118,0.05177,0.036971,0.0017824,-0.0093991,-0.094576,-0.058071
1559,-0.016963,0.078737,0.024474,-0.019265,-0.0090702,-0.034393,-0.057085
1560,-0.0041372,0.095839,0.014279,-0.034722,-0.0047949,0.018555,-0.052481
1561,0.0034268,0.1034,0.0083598,-0.048534,0.0030979,0.1205,-0.045246
1562,0.0040845,0.10242,0.0034268,-0.062018,0.020857,0.32572,-0.037024
1563,0.00046697,0.095839,0.00046697,-0.071555,0.043877,0.64965,-0.027816
1564,-0.0031506,0.088603,-0.0008485,-0.075501,0.06624,1.0334,-0.017292
1565,-0.0031506,0.082684,0.0011247,-0.073199,0.081697,1.3584,-0.0051238
1566,0.00046697,0.077093,0.0067154,-0.066951,0.094194,1.5037,0.010662
1567,0.0050711,0.070187,0.018555,-0.056098,0.1034,1.4083,0.025461
1568,0.0070443,0.059005,0.031052,-0.04097,0.10702,1.1111,0.034011
1569,0.0044134,0.044864,0.043877,-0.025185,0.10077,0.72693,0.033025
1570,-0.0031506,0.029736,0.052757,-0.010715,0.085972,0.37143,0.027434
1571,-0.014332,0.016581,0.059663,0.0060577,0.065912,0.11393,0.030723
1572,-0.025842,0.012306,0.064925,0.021514,0.049139,-0.038339,0.044206
1573,-0.033406,0.01987,0.067556,0.035656,0.042233,-0.10346,0.068871
1574,-0.03538,0.036642,0.065912,0.044206,0.042891,-0.087341,0.098141
1575,-0.02946,0.055059,0.058019,0.041575,0.05177,0.012964,0.12281
1576,-0.018278,0.068871,0.043549,0.029736,0.064596,0.21324,0.13826
1577,-0.0024928,0.080382,0.02283,0.01691,0.075778,0.54441,0.1455
1578,0.016253,0.094852,-0.0008485,0.010333,0.076106,1.0269,0.14583
1579,0.036642,0.11195,-0.02354,0.011648,0.067556,1.6307,0.14944
1580,0.055388,0.133,-0.040313,0.017568,0.054401,2.2549,0.16391
1581,0.071173,0.15832,-0.047548,0.024474,0.042562,2.7403,0.19581
1582,0.083342,0.18069,-0.047219,0.033025,0.037629,2.9382,0.23462
1583,0.090577,0.19154,-0.040313,0.042562,0.036642,2.7669,0.26553
1584,0.085972,0.18726,-0.034722,0.054072,0.034998,2.2539,0.27639
1585,0.070187,0.17279,-0.031433,0.065912,0.029407,1.5307,0.26455
1586,0.052099,0.15438,-0.033735,0.076106,0.02875,0.77035,0.23331
1587,0.035656,0.13859,-0.039326,0.08367,0.046508,0.13169,0.19417
1588,0.02283,0.12642,-0.044259,0.084657,0.095839,-0.28104,0.16095
1589,0.013293,0.1182,-0.047877,0.075778,0.17477,-0.42739,0.14418
1590,0.0070443,0.10702,-0.050836,0.061636,0.26521,-0.32215,0.1501
1591,0.0024402,0.091563,-0.054783,0.050455,0.34084,-0.031104,0.16819
1592,-0.0008485,0.071502,-0.059387,0.045522,0.37998,0.34578,0.18759
1593,-0.002164,0.050784,-0.061689,0.050126,0.37834,0.70391,0.19779
1594,-0.0024928,0.028421,-0.059387,0.056703,0.34413,0.96503,0.19746
1595,-0.0051238,0.0060577,-0.054783,0.054401,0.28921,1.1002,0.18529
1596,-0.013674,-0.010386,-0.051494,0.043549,0.22771,1.1157,0.15898
1597,-0.022554,-0.019594,-0.051823,0.029407,0.17279,1.0341,0.11689
1598,-0.028144,-0.022554,-0.053138,0.0096753,0.13004,0.88676,0.057361
1599,-0.028802,-0.023869,-0.052481,-0.011043,0.099785,0.70457,-0.013345
1600,-0.024198,-0.022554,-0.051823,-0.030118,0.077093,0.51218,-0.085039
1601,-0.013345,-0.025514,-0.052152,-0.045903,0.051113,0.32901,-0.14983
1602,0.00046697,-0.035708,-0.053138,-0.055112,0.020199,0.16359,-0.19981
1603,0.013622,-0.051165,-0.050179,-0.056756,-0.014003,0.0090175,-0.2304
1604,0.021843,-0.06432,-0.041299,-0.05281,-0.04985,-0.14456,-0.24257
1605,0.021514,-0.070897,-0.028802,-0.047548,-0.080434,-0.30439,-0.24059
1606,0.016253,-0.067937,-0.010057,-0.045903,-0.10839,-0.47968,-0.23204
1607,0.0086887,-0.051823,0.010004,-0.044917,-0.13766,-0.67536,-0.22579
1608,-0.0015062,-0.014661,0.029078,-0.045574,-0.17153,-0.88188,-0.2281
1609,-0.012359,0.04322,0.042562,-0.045246,-0.20738,-1.0838,-0.24092
1610,-0.023211,0.11491,0.04881,-0.045903,-0.23928,-1.268,-0.26131
1611,-0.034064,0.17937,0.045851,-0.04689,-0.26,-1.4321,-0.27611
1612,-0.045574,0.21851,0.038944,-0.047877,-0.26657,-1.583,-0.27808
1613,-0.052481,0.22344,0.024145,-0.048205,-0.26164,-1.7323,-0.26296
1614,-0.051823,0.19647,0.0001381,-0.045246,-0.25506,-1.8747,-0.23007
1615,-0.048863,0.13991,-0.028144,-0.041299,-0.2521,-1.9787,-0.18567
1616,-0.051823,0.059334,-0.051823,-0.034393,-0.25572,-1.981,-0.14062
1617,-0.061689,-0.03538,-0.066293,-0.029789,-0.2623,-1.8215,-0.10313
1618,-0.073857,-0.12976,-0.068595,-0.030775,-0.26263,-1.5064,-0.078461
1619,-0.081092,-0.21428,-0.061031,-0.031762,-0.25046,-1.1269,-0.06728
1620,-0.08471,-0.28104,-0.048205,-0.027487,-0.22678,-0.80361,-0.068266
1621,-0.089643,-0.33268,-0.037024,-0.020252,-0.2008,-0.62011,-0.078461
1622,-0.095562,-0.37411,-0.037024,-0.010715,-0.18173,-0.58656,-0.092931
1623,-0.10247,-0.4024,-0.047877,-0.00019077,-0.17087,-0.65793,-0.10214
1624,-0.10181,-0.41555,-0.065964,0.0080309,-0.15838,-0.7681,-0.10444
1625,-0.094247,-0.41621,-0.081421,0.0073732,-0.13996,-0.85788,-0.10115
1626,-0.08175,-0.41391,-0.082736,0.0017824,-0.11727,-0.89011,-0.096549
1627,-0.066293,-0.41884,-0.062347,-0.0038083,-0.098193,-0.86018,-0.093589
1628,-0.052152,-0.42673,-0.023869,-0.0074258,-0.087012,-0.7829,-0.091945
1629,-0.045574,-0.42509,0.017568,-0.0093991,-0.074844,-0.68292,-0.088985
1630,-0.048863,-0.40404,0.048153,-0.014003,-0.053138,-0.57242,-0.084381
1631,-0.059058,-0.35997,0.06065,-0.020581,-0.022554,-0.46028,-0.081092
1632,-0.071555,-0.29584,0.056046,-0.02354,0.0070443,-0.35603,-0.080434
1633,-0.08175,-0.21987,0.042891,-0.022225,0.026776,-0.26296,-0.080763
1634,-0.083723,-0.14292,0.027763,-0.014661,0.032367,-0.17975,-0.077146
1635,-0.075501,-0.075501,0.012306,-0.002164,0.029407,-0.10872,-0.068924
1636,-0.060045,-0.027487,-0.0028217,0.013622,0.021514,-0.051494,-0.055112
1637,-0.04689,0.0011247,-0.014332,0.02579,0.010991,-0.0051238,-0.04097
1638,-0.039326,0.016581,-0.018278,0.028092,-0.0018351,0.032696,-0.034722
1639,-0.03538,0.031709,-0.012688,0.014937,-0.019594,0.063281,-0.033735
1640,-0.030447,0.049468,0.00046697,-0.0087413,-0.038668,0.081039,-0.033078
1641,-0.018607,0.067556,0.014937,-0.030118,-0.052152,0.077093,-0.029789
1642,-0.0015062,0.079395,0.026447,-0.038339,-0.053467,0.043877,-0.024527
1643,0.015595,0.082684,0.033025,-0.031433,-0.042615,-0.013345,-0.018278
1644,0.027105,0.078409,0.033683,-0.014332,-0.028802,-0.085696,-0.010715
1645,0.026776,0.070516,0.028421,0.0057288,-0.020252,-0.16199,-0.0057815
1646,0.017239,0.062952,0.014937,0.021186,-0.021896,-0.2327,-0.0028217
1647,0.002769,0.063281,-0.0018351,0.021186,-0.031433,-0.28927,0.0011247
1648,-0.01203,0.067556,-0.013345,0.0060577,-0.045903,-0.32643,0.0060577
1649,-0.022225,0.071831,-0.013017,-0.014003,-0.060045,-0.35011,0.0077021
1650,-0.025842,0.066898,-0.0018351,-0.025842,-0.072542,-0.38661,0.0014536
1651,-0.019265,0.048153,0.011977,-0.029789,-0.08471,-0.45534,-0.014332
1652,-0.0047949,0.01691,0.021186,-0.026171,-0.093918,-0.554,-0.039984
1653,0.017897,-0.016634,0.025132,-0.018936,-0.1005,-0.65924,-0.065964
1654,0.045522,-0.035051,0.022172,-0.010057,-0.099509,-0.73455,-0.079119
1655,0.07216,-0.025514,0.010991,-0.0015062,-0.086683,-0.74705,-0.07287
1656,0.091234,0.016581,-0.0031506,0.0073732,-0.066951,-0.68884,-0.054125
1657,0.10044,0.077751,-0.014003,0.015266,-0.047877,-0.57637,-0.036366
1658,0.099785,0.13958,-0.015976,0.021514,-0.033406,-0.43627,-0.027816
1659,0.090905,0.18332,-0.011043,0.026119,-0.027158,-0.2919,-0.025514
1660,0.079066,0.20568,-0.0031506,0.02875,-0.027487,-0.15213,-0.026171
1661,0.06624,0.21193,0.00079584,0.027763,-0.030775,-0.012359,-0.024856
1662,0.06065,0.21324,0.0021113,0.021843,-0.031433,0.12905,-0.015319
1663,0.068543,0.21292,0.00046697,0.01132,-0.027816,0.27047,0.0067154
1664,0.08959,0.20897,-0.0057815,-0.0038083,-0.024527,0.39609,0.040918
1665,0.1159,0.20272,-0.015976,-0.020909,-0.0265,0.48193,0.078409
1666,0.13234,0.19581,-0.031433,-0.035708,-0.034393,0.51778,0.10669
1667,0.13004,0.18858,-0.051823,-0.044917,-0.046561,0.52929,0.12248
1668,0.10932,0.1797,-0.076817,-0.047219,-0.061031,0.56645,0.12445
1669,0.083013,0.17148,-0.10082,-0.040313,-0.072542,0.67728,0.11853
1670,0.059663,0.1672,-0.11464,-0.022225,-0.077146,0.88479,0.11195
1671,0.048482,0.16523,-0.11562,0.0017824,-0.073857,1.1726,0.11261
1672,0.053086,0.16589,-0.10181,0.024145,-0.062347,1.5034,0.12281
1673,0.068214,0.16687,-0.076488,0.042233,-0.040313,1.8339,0.13991
1674,0.088275,0.16589,-0.053796,0.056374,-0.0054526,2.1108,0.16293
1675,0.1034,0.16161,-0.039984,0.066569,0.038944,2.2687,0.18924
1676,0.10439,0.15536,-0.037024,0.076106,0.07512,2.2509,0.2093
1677,0.091892,0.14681,-0.036037,0.083342,0.090248,2.0398,0.21193
1678,0.071502,0.13464,-0.028473,0.084657,0.081368,1.6783,0.19088
1679,0.049468,0.12281,-0.013017,0.082026,0.056046,1.2561,0.15109
1680,0.031052,0.11228,0.0037556,0.074791,0.032038,0.8644,0.10373
1681,0.021186,0.1034,0.01691,0.06624,0.020857,0.57138,0.061307
1682,0.01987,0.098469,0.026119,0.055717,0.025461,0.39609,0.033354
1683,0.026776,0.091234,0.030065,0.043877,0.035985,0.31256,0.018226
1684,0.032367,0.080382,0.033025,0.034998,0.04881,0.26882,0.014608
1685,0.035327,0.068214,0.038287,0.029736,0.06065,0.22114,0.022172
1686,0.036314,0.061965,0.043549,0.032696,0.073476,0.15109,0.0373
1687,0.038287,0.059663,0.049139,0.036314,0.083013,0.056046,0.05473
1688,0.04026,0.059334,0.056046,0.038944,0.088275,-0.0584,0.072489
1689,0.039931,0.059334,0.062952,0.041575,0.098469,-0.19258,0.090905
1690,0.038287,0.057361,0.070187,0.045193,0.12313,-0.35504,0.10669
1691,0.037958,0.049797,0.07808,0.052428,0.15898,-0.54743,0.11985
1692,0.039602,0.037629,0.084986,0.062623,0.19976,-0.75395,0.13695
1693,0.039273,0.026447,0.092221,0.071173,0.23396,-0.92924,0.15964
1694,0.035656,0.020528,0.10011,0.07216,0.25698,-1.0072,0.17608
1695,0.027434,0.018226,0.10768,0.064267,0.27014,-0.93779,0.17444
1696,0.015266,0.015266,0.11228,0.058019,0.26849,-0.71515,0.15207
1697,0.00046697,0.01132,0.11656,0.058676,0.2583,-0.3797,0.11689
1698,-0.010057,0.0017824,0.12609,0.070516,0.2458,-0.0051238,0.080711
1699,-0.014003,-0.0097279,0.13892,0.089261,0.23495,0.3198,0.05473
1700,-0.010057,-0.020909,0.14747,0.10636,0.22541,0.53455,0.042233
1701,-0.0011774,-0.027158,0.14287,0.11656,0.21226,0.61446,0.044864
1702,0.0054,-0.025514,0.11952,0.11656,0.18924,0.57862,0.04881
1703,0.0070443,-0.021896,0.079395,0.10373,0.15865,0.46877,0.047166
1704,0.0017824,-0.023211,0.03434,0.080382,0.13136,0.33624,0.040918
1705,-0.0051238,-0.034722,-0.0097279,0.055388,0.11426,0.22147,0.03434
1706,-0.013017,-0.051494,-0.038339,0.0373,0.10899,0.13958,0.027763
1707,-0.021238,-0.071226,-0.047548,0.029078,0.11557,0.084328,0.021843
1708,-0.025514,-0.088327,-0.04097,0.031709,0.13201,0.033683,0.01987
1709,-0.027487,-0.098851,-0.026171,0.040589,0.1501,-0.040641,0.023817
1710,-0.027816,-0.097536,-0.012688,0.049797,0.15832,-0.16397,0.033025
1711,-0.025185,-0.085039,-0.0061104,0.054401,0.1455,-0.358,0.041575
1712,-0.021238,-0.065307,-0.0011774,0.049468,0.10669,-0.64905,0.041247
1713,-0.016634,-0.048205,0.002769,0.035656,0.044864,-1.0486,0.028421
1714,-0.013674,-0.034722,0.01132,0.013293,-0.028473,-1.5291,0.0063866
1715,-0.014332,-0.02354,0.025132,-0.011701,-0.095562,-2.0017,-0.015976
1716,-0.013674,-0.01203,0.039273,-0.028473,-0.14226,-2.3246,-0.025185
1717,-0.0084125,-0.00019077,0.04322,-0.034064,-0.16726,-2.3726,-0.014661
1718,-0.0034794,0.015924,0.03434,-0.029131,-0.17252,-2.1017,0.013622
1719,-0.0024928,0.035327,0.017568,-0.019923,-0.16758,-1.586,0.054401
1720,-0.0064392,0.054072,0.00046697,-0.015319,-0.15969,-0.97594,0.089919
1721,-0.013345,0.06624,-0.011043,-0.015648,-0.15706,-0.43232,0.11261
1722,-0.021238,0.068214,-0.020252,-0.015976,-0.16199,-0.058071,0.12083
1723,-0.027487,0.056046,-0.0265,-0.016634,-0.17318,0.12675,0.11228
1724,-0.032749,0.034669,-0.030775,-0.021896,-0.18008,0.16885,0.088275
1725,-0.037682,0.011977,-0.030775,-0.034064,-0.18008,0.14056,0.052757
1726,-0.04393,-0.0041372,-0.028802,-0.048205,-0.17482,0.090248,0.019212
1727,-0.049521,-0.016634,-0.02354,-0.060373,-0.16989,0.041575,-0.0051238
1728,-0.055112,-0.032749,-0.011043,-0.069253,-0.16857,-0.0018351,-0.021896
1729,-0.063004,-0.059716,0.0024402,-0.072542,-0.17022,-0.041957,-0.034393
1730,-0.073528,-0.095562,0.011648,-0.067937,-0.16824,-0.073528,-0.044917
1731,-0.084381,-0.13601,0.016581,-0.059387,-0.15936,-0.088985,-0.054454
1732,-0.092603,-0.16923,0.017239,-0.051823,-0.14391,-0.077146,-0.057085
1733,-0.097864,-0.19258,0.015924,-0.048534,-0.12516,-0.029789,-0.050507
1734,-0.098522,-0.20705,0.012635,-0.049521,-0.1051,0.066898,-0.036037
1735,-0.094905,-0.21099,0.0083598,-0.052481,-0.084052,0.21686,-0.016305
1736,-0.087998,-0.20146,0.0011247,-0.051823,-0.059387,0.40333,0.0040845
1737,-0.079119,-0.17416,-0.0061104,-0.043272,-0.0265,0.58684,0.02283
1738,-0.067937,-0.13601,-0.012688,-0.032091,0.016253,0.72036,0.039602
1739,-0.053467,-0.095891,-0.018278,-0.02354,0.065254,0.75555,0.054072
1740,-0.037353,-0.062676,-0.021238,-0.015648,0.11162,0.65228,0.060979
1741,-0.02354,-0.040313,-0.018936,-0.0084125,0.13662,0.40333,0.04881
1742,-0.013345,-0.025514,-0.015648,-0.0018351,0.13793,0.029407,0.014608
1743,-0.0093991,-0.014003,-0.011701,0.0070443,0.12215,-0.41292,-0.034393
1744,-0.010386,-0.0041372,-0.0077547,0.022501,0.10373,-0.82499,-0.090629
1745,-0.010386,0.0021113,-0.007097,0.038944,0.090905,-1.1124,-0.14555
1746,-0.0093991,0.0067154,-0.01203,0.047166,0.084657,-1.2285,-0.19126
1747,-0.010057,0.016253,-0.018936,0.041575,0.079395,-1.1825,-0.22349
1748,-0.015319,0.030723,-0.024856,0.025132,0.066898,-1.0348,-0.24191
1749,-0.025842,0.051113,-0.025514,0.0017824,0.042891,-0.86018,-0.25243
1750,-0.034064,0.073804,-0.019265,-0.022554,0.0080309,-0.71318,-0.26065
1751,-0.033735,0.093208,-0.0061104,-0.039655,-0.033735,-0.62241,-0.2623
1752,-0.022225,0.10768,0.011648,-0.044588,-0.073857,-0.60169,-0.25309
1753,-0.004466,0.11327,0.030723,-0.042286,-0.10806,-0.6645,-0.23171
1754,0.012635,0.11327,0.048153,-0.036037,-0.12878,-0.79901,-0.20244
1755,0.025461,0.11195,0.063281,-0.026171,-0.12615,-0.9595,-0.17153
1756,0.031052,0.11623,0.074462,-0.010386,-0.10082,-1.0407,-0.14029
1757,0.03434,0.12807,0.085644,0.0077021,-0.060702,-0.88123,-0.10773
1758,0.035656,0.14287,0.092221,0.020199,-0.013674,-0.3432,-0.069582
1759,0.034998,0.15306,0.085972,0.023817,0.026776,0.575,-0.024198
1760,0.031381,0.15043,0.059005,0.01691,0.055388,1.7178,0.023488
