,channel_1,channel_2,channel_3,channel_4,channel_5,channel_6,channel_7
0,-0.017292,0.05177,0.052099,0.037629,-0.013345,-0.54085,-0.11266
1,0.0024402,0.079066,0.072489,0.062952,0.036642,-0.61912,-0.12319
2,0.024803,0.094194,0.086301,0.084328,0.086959,-0.65233,-0.11858
3,0.044206,0.086959,0.091563,0.10143,0.12938,-0.61945,-0.098522
4,0.057032,0.055388,0.091234,0.1113,0.16095,-0.52145,-0.066951
5,0.059992,0.0040845,0.086301,0.11557,0.1774,-0.37872,-0.034064
6,0.058676,-0.053796,0.07808,0.11162,0.1774,-0.21691,-0.0018351
7,0.055388,-0.098851,0.0692,0.093536,0.15997,-0.0584,0.030394
8,0.052099,-0.11694,0.058348,0.066569,0.12478,0.081697,0.053086
9,0.050784,-0.10543,0.04322,0.036971,0.076435,0.19055,0.059005
10,0.046837,-0.077475,0.024803,0.012306,0.017897,0.26159,0.05177
11,0.039602,-0.050179,0.0077021,-0.0064392,-0.038668,0.30171,0.039931
12,0.027763,-0.039326,-0.0054526,-0.017621,-0.081092,0.32703,0.029407
13,0.014937,-0.045903,-0.015319,-0.022883,-0.096549,0.36091,0.024474
14,0.0040845,-0.065635,-0.020581,-0.02354,-0.077146,0.42109,0.027434
15,-0.0057815,-0.094247,-0.01795,-0.019594,-0.027487,0.5135,0.041904
16,-0.014003,-0.12056,-0.0067681,-0.011043,0.0373,0.63617,0.065583
17,-0.019265,-0.13766,0.0096753,0.0014536,0.099127,0.77857,0.093208
18,-0.019923,-0.13832,0.026447,0.020528,0.14747,0.92524,0.1182
19,-0.016634,-0.12648,0.038944,0.04881,0.17838,1.0542,0.133
20,-0.012688,-0.10411,0.046837,0.077751,0.19713,1.1433,0.13366
21,-0.010715,-0.07583,0.047824,0.098141,0.20206,1.1772,0.12478
22,-0.0090702,-0.049192,0.046837,0.10472,0.1991,1.1531,0.1136
23,-0.010386,-0.0265,0.048153,0.096167,0.18989,1.0834,0.10505
24,-0.018936,-0.0074258,0.055388,0.067556,0.1797,0.98806,0.10274
25,-0.030775,0.010991,0.066569,0.01691,0.17838,0.87821,0.10669
26,-0.038011,0.03434,0.081368,-0.05281,0.19812,0.76114,0.11327
27,-0.038997,0.061307,0.096167,-0.12713,0.23561,0.6457,0.12116
28,-0.036037,0.086301,0.10603,-0.1883,0.27869,0.53685,0.13037
29,-0.029789,0.10242,0.1034,-0.22744,0.31289,0.43885,0.13892
30,-0.024856,0.10636,0.08367,-0.23994,0.32407,0.34775,0.14089
31,-0.020581,0.10044,0.052428,-0.2304,0.30697,0.26257,0.13333
32,-0.013017,0.091234,0.019541,-0.20508,0.26882,0.18299,0.12116
33,-0.00051963,0.083013,-0.0057815,-0.16726,0.22475,0.11458,0.10965
34,0.013622,0.07808,-0.021567,-0.11102,0.18299,0.071831,0.10011
35,0.02579,0.077093,-0.031762,-0.02354,0.13333,0.061965,0.088932
36,0.025461,0.074791,-0.045574,0.10735,0.054401,0.074462,0.072818
37,0.011977,0.066569,-0.06432,0.2731,-0.060045,0.086959,0.052099
38,-0.010715,0.051441,-0.080763,0.44312,-0.18436,0.074462,0.031381
39,-0.032091,0.031381,-0.088327,0.57138,-0.27874,0.023488,0.014937
40,-0.048863,0.014608,-0.080763,0.61676,-0.32413,-0.062347,-0.00051963
41,-0.060373,0.011977,-0.057414,0.56941,-0.32972,-0.16561,-0.014661
42,-0.065307,0.020528,-0.019265,0.44937,-0.31492,-0.26394,-0.028473
43,-0.065307,0.033354,0.022501,0.30039,-0.29584,-0.3386,-0.041628
44,-0.061031,0.047495,0.055717,0.1649,-0.27447,-0.38266,-0.052152
45,-0.050179,0.054401,0.070187,0.069858,-0.2498,-0.39582,-0.055112
46,-0.035708,0.051113,0.062294,0.02283,-0.21724,-0.3774,-0.04689
47,-0.016963,0.039273,0.035656,0.010991,-0.17548,-0.3238,-0.030118
48,0.0037556,0.016253,0.002769,0.011648,-0.13009,-0.22875,-0.011043
49,0.01987,-0.016634,-0.024198,0.0093464,-0.082736,-0.098522,0.0047422
50,0.030065,-0.05281,-0.037682,-0.0015062,-0.034064,0.054401,0.013622
51,0.038944,-0.082079,-0.036037,-0.015648,0.015595,0.21292,0.014608
52,0.047495,-0.097207,-0.020581,-0.027816,0.06361,0.35236,0.012306
53,0.055059,-0.096549,0.0057288,-0.035051,0.10932,0.44345,0.014608
54,0.057361,-0.087341,0.038944,-0.037353,0.14385,0.47206,0.024474
55,0.053086,-0.078461,0.0692,-0.033406,0.16063,0.4349,0.035656
56,0.043877,-0.072542,0.087946,-0.024527,0.15503,0.34578,0.041247
57,0.038944,-0.065635,0.09255,-0.016963,0.13201,0.23199,0.035985
58,0.04322,-0.053138,0.08663,-0.011701,0.10209,0.12807,0.018884
59,0.057032,-0.037353,0.071502,-0.0057815,0.071173,0.049797,-0.0011774
60,0.077422,-0.014661,0.049797,0.0050711,0.048153,0.0057288,-0.017621
61,0.096825,0.010333,0.026776,0.020528,0.038944,-0.0047949,-0.029789
62,0.11228,0.035656,0.01132,0.041904,0.042891,0.0073732,-0.038011
63,0.1205,0.054072,0.010004,0.065912,0.054072,0.029078,-0.039655
64,0.11886,0.065912,0.015924,0.087288,0.067227,0.052757,-0.039326
65,0.10866,0.070845,0.026776,0.10472,0.07808,0.078737,-0.038339
66,0.095181,0.07512,0.037958,0.11393,0.082684,0.11524,-0.036695
67,0.087288,0.08663,0.050126,0.1113,0.080711,0.17246,-0.03242
68,0.087288,0.10702,0.064596,0.096825,0.077422,0.25271,-0.0265
69,0.089919,0.12741,0.076435,0.072818,0.073147,0.34907,-0.018278
70,0.090905,0.13695,0.074791,0.045522,0.065583,0.44806,-0.0080836
71,0.084657,0.1284,0.055059,0.016253,0.053086,0.53521,-0.0015062
72,0.068871,0.10406,0.015924,-0.012688,0.033683,0.58684,-0.00051963
73,0.044206,0.073476,-0.031433,-0.034393,0.011648,0.58223,-0.0087413
74,0.011977,0.043877,-0.07287,-0.047877,-0.013017,0.50199,-0.027158
75,-0.020252,0.018226,-0.09622,-0.053138,-0.038668,0.33558,-0.05281
76,-0.046561,-0.0077547,-0.10247,-0.051823,-0.06728,0.090905,-0.073528
77,-0.066293,-0.036037,-0.093589,-0.048863,-0.095562,-0.19883,-0.079777
78,-0.078461,-0.065307,-0.074186,-0.049192,-0.11793,-0.49185,-0.070897
79,-0.086025,-0.090958,-0.050179,-0.05544,-0.13174,-0.75461,-0.054454
80,-0.089643,-0.1074,-0.031104,-0.063662,-0.13536,-0.96903,-0.039984
81,-0.087998,-0.12089,-0.023869,-0.071226,-0.13338,-1.1341,-0.032091
82,-0.078132,-0.1324,-0.031433,-0.072213,-0.12582,-1.242,-0.025514
83,-0.056756,-0.13733,-0.051165,-0.06728,-0.11299,-1.2808,-0.012688
84,-0.02354,-0.13272,-0.071884,-0.059058,-0.089314,-1.2354,0.012964
85,0.01132,-0.11464,-0.079777,-0.047548,-0.055112,-1.1009,0.044864
86,0.038944,-0.084052,-0.069253,-0.037353,-0.013674,-0.89537,0.075449
87,0.059992,-0.044917,-0.045246,-0.031104,0.024474,-0.66352,0.097812
88,0.077093,-0.0047949,-0.016634,-0.026829,0.045193,-0.47343,0.10801
89,0.087617,0.031381,0.010333,-0.021238,0.044535,-0.38036,0.10735
90,0.08663,0.058348,0.033025,-0.016305,0.027434,-0.4047,0.10472
91,0.066898,0.072818,0.046837,-0.01795,-0.0008485,-0.51355,0.10439
92,0.032038,0.079724,0.050126,-0.035051,-0.027158,-0.62964,0.10505
93,-0.0090702,0.082355,0.042562,-0.069911,-0.039326,-0.67404,0.10274
94,-0.045246,0.07808,0.031381,-0.11825,-0.028802,-0.57867,0.097812
95,-0.073857,0.062623,0.020857,-0.1666,0.0034268,-0.31525,0.093865
96,-0.09326,0.034669,0.012964,-0.19916,0.041247,0.059005,0.091234
97,-0.1097,-0.0067681,0.0093464,-0.21001,0.068543,0.42372,0.091234
98,-0.12516,-0.06136,0.0080309,-0.20672,0.076764,0.66708,0.088275
99,-0.14489,-0.13108,0.0096753,-0.19948,0.067556,0.73713,0.074133
100,-0.16594,-0.21099,0.015266,-0.19817,0.054401,0.65491,0.043549
101,-0.18403,-0.28992,0.021843,-0.19324,0.048153,0.4862,0.0040845
102,-0.19455,-0.34879,0.02283,-0.16594,0.051113,0.30335,-0.034722
103,-0.19324,-0.3705,0.01691,-0.087012,0.055388,0.14944,-0.063004
104,-0.18271,-0.35701,0.0073732,0.045851,0.046837,0.03434,-0.072542
105,-0.16956,-0.3238,-0.002164,0.20667,0.019212,-0.048534,-0.065307
106,-0.15706,-0.29058,-0.012688,0.34907,-0.020909,-0.11398,-0.048534
107,-0.14358,-0.26822,-0.024198,0.43523,-0.053138,-0.17285,-0.030118
108,-0.1245,-0.25408,-0.035051,0.45167,-0.056098,-0.22711,-0.01795
109,-0.099838,-0.23862,-0.041628,0.40892,-0.027158,-0.2748,-0.013017
110,-0.073199,-0.20902,-0.038011,0.32637,0.022501,-0.30998,-0.015648
111,-0.046561,-0.16232,-0.020909,0.2264,0.068871,-0.32018,-0.023869
112,-0.023211,-0.10378,0.010333,0.13103,0.094194,-0.28861,-0.036037
113,-0.0077547,-0.041299,0.050455,0.054401,0.090248,-0.19981,-0.046232
114,-0.00051963,0.017897,0.094523,0.0040845,0.065254,-0.052481,-0.052481
115,0.0030979,0.065912,0.13333,-0.021567,0.038287,0.13695,-0.052481
116,0.0096753,0.098798,0.16095,-0.023869,0.02283,0.33164,-0.045574
117,0.019212,0.11656,0.16786,-0.0093991,0.020857,0.4839,-0.038011
118,0.030394,0.12248,0.15207,0.0077021,0.02579,0.55231,-0.03538
119,0.039273,0.12379,0.11689,0.01691,0.027434,0.526,-0.037353
120,0.043549,0.12609,0.07216,0.019212,0.021186,0.42405,-0.043601
121,0.048482,0.13201,0.026119,0.016253,0.0073732,0.28099,-0.045246
122,0.053743,0.14517,-0.015648,0.011648,-0.013017,0.12873,-0.045246
123,0.06361,0.15898,-0.053138,0.0044134,-0.036037,-0.0041372,-0.04689
124,0.075449,0.16786,-0.085039,-0.0038083,-0.055769,-0.09918,-0.049192
125,0.084986,0.16523,-0.11036,-0.01795,-0.070568,-0.15772,-0.049192
126,0.085315,0.15438,-0.13108,-0.037024,-0.084052,-0.17877,-0.042615
127,0.075778,0.13958,-0.14719,-0.060702,-0.10115,-0.16693,-0.033735
128,0.059334,0.12544,-0.15936,-0.082736,-0.11858,-0.12779,-0.023211
129,0.040918,0.11162,-0.16758,-0.097207,-0.1268,-0.071884,-0.011701
130,0.01987,0.098469,-0.17054,-0.10313,-0.1245,-0.01499,0.0001381
131,0.0044134,0.084657,-0.16923,-0.10378,-0.11694,0.032696,0.010004
132,-0.00051963,0.075449,-0.15838,-0.098851,-0.10773,0.062623,0.012306
133,0.0057288,0.077422,-0.13371,-0.089643,-0.10115,0.070845,0.0040845
134,0.017568,0.095181,-0.092931,-0.081092,-0.095562,0.077422,-0.010715
135,0.031709,0.12708,-0.044588,-0.076159,-0.086354,0.12971,-0.023211
136,0.045193,0.16556,0.0021113,-0.074844,-0.069582,0.28066,-0.030775
137,0.058348,0.20404,0.039931,-0.072542,-0.047219,0.51745,-0.030775
138,0.068214,0.23528,0.067227,-0.067609,-0.026829,0.74798,-0.024527
139,0.076106,0.25139,0.083013,-0.061031,-0.015648,0.8473,-0.016305
140,0.079066,0.25304,0.087946,-0.054454,-0.016634,0.7345,-0.011372
141,0.080711,0.2458,0.082684,-0.049192,-0.028144,0.43161,-0.014332
142,0.082684,0.22969,0.069858,-0.041628,-0.042944,0.042562,-0.021896
143,0.085315,0.20798,0.051441,-0.036037,-0.056427,-0.31097,-0.031433
144,0.088603,0.18036,0.033354,-0.033078,-0.063004,-0.54808,-0.041299
145,0.090248,0.15142,0.018226,-0.031433,-0.060702,-0.65266,-0.04985
146,0.092879,0.12675,0.002769,-0.028802,-0.04689,-0.65727,-0.053796
147,0.096167,0.11524,-0.013345,-0.027158,-0.01499,-0.62208,-0.048205
148,0.098798,0.11656,-0.028144,-0.028473,0.031709,-0.60268,-0.035051
149,0.10044,0.12313,-0.04097,-0.035051,0.082355,-0.62931,-0.017292
150,0.10143,0.13136,-0.050179,-0.04689,0.12873,-0.69509,0.0021113
151,0.097154,0.13662,-0.058071,-0.056098,0.16786,-0.76875,0.019212
152,0.091563,0.13892,-0.062018,-0.057085,0.19845,-0.80526,0.032038
153,0.088932,0.13366,-0.066622,-0.048534,0.21653,-0.79441,0.041247
154,0.091234,0.12083,-0.072213,-0.030447,0.22311,-0.76678,0.050784
155,0.099127,0.1034,-0.077803,-0.0054526,0.22048,-0.75856,0.061965
156,0.10669,0.086301,-0.081092,0.018555,0.21094,-0.78026,0.074133
157,0.10077,0.066569,-0.082736,0.034669,0.19647,-0.81348,0.081368
158,0.079066,0.043877,-0.08471,0.040918,0.18102,-0.80065,0.081039
159,0.041575,0.016581,-0.086354,0.039273,0.16852,-0.67733,0.077093
160,0.0014536,-0.010057,-0.08175,0.037958,0.16326,-0.39911,0.077751
161,-0.030775,-0.031433,-0.069253,0.044535,0.16227,0.045851,0.090248
162,-0.043601,-0.038011,-0.048863,0.061636,0.16293,0.6365,0.11853
163,-0.030447,-0.024856,-0.020581,0.084986,0.16786,1.3344,0.16128
164,0.0057288,0.0073732,0.014608,0.10866,0.17838,2.0954,0.2162
165,0.053086,0.051441,0.050126,0.1284,0.19614,2.8412,0.27902
166,0.10044,0.09551,0.080382,0.14024,0.21357,3.4417,0.33854
167,0.13399,0.12708,0.097812,0.13958,0.21555,3.7509,0.3734
168,0.13958,0.14089,0.099127,0.12642,0.19022,3.6785,0.3665
169,0.11491,0.13464,0.090248,0.099785,0.13432,3.2497,0.31454
170,0.067885,0.10965,0.079395,0.065583,0.057361,2.5913,0.22508
171,0.0093464,0.064596,0.06624,0.031052,-0.030118,1.8632,0.1136
172,-0.051494,0.0090175,0.051441,-0.0015062,-0.11529,1.1933,0.0001381
173,-0.10641,-0.044259,0.038616,-0.031433,-0.18534,0.64669,-0.096549
174,-0.14818,-0.084381,0.029736,-0.056427,-0.23336,0.22114,-0.16298
175,-0.17383,-0.10444,0.027763,-0.072213,-0.26,-0.11431,-0.20212
176,-0.1883,-0.10641,0.029078,-0.080434,-0.27775,-0.39911,-0.22152
177,-0.19291,-0.097207,0.033683,-0.083723,-0.30045,-0.65825,-0.2304
178,-0.19126,-0.089643,0.038287,-0.083394,-0.33037,-0.89668,-0.23204
179,-0.18666,-0.10082,0.039931,-0.086025,-0.36194,-1.1019,-0.22941
180,-0.18304,-0.13799,0.034998,-0.092931,-0.38661,-1.2657,-0.21987
181,-0.18403,-0.1985,0.026447,-0.09918,-0.40042,-1.3883,-0.20968
182,-0.18896,-0.27414,0.018226,-0.098851,-0.40174,-1.4722,-0.19948
183,-0.19817,-0.34649,0.0090175,-0.090629,-0.39812,-1.5255,-0.18765
184,-0.20836,-0.40174,-0.0041372,-0.079777,-0.39286,-1.5623,-0.17087
185,-0.21198,-0.43199,-0.020581,-0.072542,-0.38299,-1.5889,-0.15213
186,-0.20573,-0.43232,-0.038668,-0.070897,-0.3649,-1.611,-0.13503
187,-0.19192,-0.40568,-0.055769,-0.073528,-0.33925,-1.6439,-0.11891
188,-0.17482,-0.35899,-0.066951,-0.079448,-0.30933,-1.7228,-0.096878
189,-0.15476,-0.30341,-0.071555,-0.080106,-0.27743,-1.8711,-0.065307
190,-0.13141,-0.25013,-0.066951,-0.075501,-0.24125,-2.0592,-0.02946
191,-0.1074,-0.21297,-0.055769,-0.063333,-0.19455,-2.1849,0.0044134
192,-0.085039,-0.19751,-0.044588,-0.045903,-0.13371,-2.1102,0.030394
193,-0.068924,-0.19422,-0.035051,-0.025842,-0.058729,-1.735,0.051441
194,-0.062018,-0.18797,-0.028473,-0.0038083,0.020857,-1.0661,0.075449
195,-0.054125,-0.17087,-0.024527,0.015266,0.096167,-0.20771,0.10768
196,-0.035051,-0.14456,-0.018278,0.030723,0.16424,0.70227,0.15175
197,-0.0034794,-0.11299,-0.0087413,0.046837,0.22541,1.56,0.20239
198,0.033025,-0.078132,0.0021113,0.068871,0.28362,2.3509,0.25106
199,0.065912,-0.037024,0.013293,0.095181,0.34052,3.0921,0.28921
200,0.091234,0.0080309,0.02283,0.11754,0.39511,3.7584,0.31815
201,0.10899,0.05177,0.032038,0.12807,0.44575,4.2636,0.33887
202,0.11919,0.085644,0.045193,0.12642,0.48653,4.5027,0.34742
203,0.1205,0.11294,0.068214,0.11853,0.5112,4.401,0.33558
204,0.11689,0.13366,0.10044,0.10932,0.51843,3.959,0.30335
205,0.11195,0.1501,0.13366,0.10176,0.51482,3.2694,0.25501
206,0.10899,0.15832,0.15997,0.10307,0.49969,2.4709,0.1945
207,0.10735,0.16095,0.17312,0.11721,0.47469,1.6908,0.12905
208,0.10307,0.16457,0.16983,0.13793,0.43655,1.0009,0.070845
209,0.096825,0.16819,0.15043,0.15635,0.3813,0.40958,0.02875
210,0.090905,0.1751,0.11952,0.1695,0.31026,-0.10543,0.0014536
211,0.087617,0.18496,0.080053,0.17542,0.22706,-0.55927,-0.011701
212,0.084328,0.18957,0.036971,0.17181,0.13432,-0.95588,-0.020909
213,0.077422,0.17937,-0.0031506,0.15569,0.037629,-1.2884,-0.03538
214,0.065912,0.15372,-0.038011,0.12905,-0.058729,-1.5515,-0.054125
215,0.054401,0.11458,-0.063004,0.091892,-0.14391,-1.7389,-0.076159
216,0.04618,0.067885,-0.07879,0.049139,-0.21034,-1.8481,-0.10214
217,0.042562,0.024145,-0.083723,0.0080309,-0.24783,-1.8905,-0.13272
218,0.04322,-0.0047949,-0.080106,-0.021238,-0.25309,-1.8843,-0.16035
219,0.04618,-0.010715,-0.071555,-0.037682,-0.23073,-1.8534,-0.1837
220,0.044206,0.0057288,-0.062347,-0.039326,-0.19652,-1.8165,-0.19981
221,0.039273,0.034669,-0.051165,-0.029789,-0.16528,-1.7823,-0.20639
222,0.033683,0.066898,-0.038339,-0.016634,-0.14292,-1.7524,-0.2031
223,0.030065,0.098469,-0.022883,-0.011043,-0.13568,-1.7238,-0.18797
224,0.033025,0.12774,-0.0057815,-0.011701,-0.15147,-1.6975,-0.16166
225,0.044864,0.15569,0.011977,-0.014661,-0.18797,-1.6804,-0.1268
226,0.059992,0.18134,0.027434,-0.011043,-0.22908,-1.6761,-0.095562
227,0.07512,0.20173,0.035985,0.0057288,-0.25704,-1.6685,-0.073199
228,0.085644,0.21094,0.037629,0.030723,-0.25769,-1.611,-0.059716
229,0.087946,0.20798,0.032367,0.058019,-0.22777,-1.46,-0.052152
230,0.080382,0.1968,0.024145,0.080382,-0.1689,-1.2104,-0.048863
231,0.06624,0.17838,0.014937,0.094852,-0.088327,-0.89899,-0.053138
232,0.050455,0.14912,0.00079584,0.1034,0.014937,-0.5813,-0.062018
233,0.037629,0.11228,-0.018936,0.10768,0.1353,-0.30702,-0.074515
234,0.02875,0.071502,-0.037353,0.10669,0.24087,-0.11069,-0.088985
235,0.022501,0.0373,-0.045903,0.096825,0.29086,0.0034268,-0.10181
236,0.015595,0.016253,-0.045246,0.076435,0.25633,0.048482,-0.1074
237,0.0080309,0.0060577,-0.036366,0.047166,0.14879,0.038287,-0.09918
238,-0.0038083,-0.0034794,-0.024527,0.010662,0.0096753,-0.014003,-0.07879
239,-0.014661,-0.021896,-0.013674,-0.028144,-0.11694,-0.086683,-0.055769
240,-0.020252,-0.051823,-0.0087413,-0.062676,-0.19916,-0.15969,-0.037682
241,-0.020909,-0.085039,-0.013345,-0.087669,-0.23566,-0.21955,-0.025842
242,-0.019265,-0.11036,-0.029131,-0.095891,-0.24454,-0.27085,-0.019594
243,-0.02354,-0.12023,-0.054454,-0.084381,-0.24092,-0.31919,-0.025842
244,-0.036695,-0.10872,-0.07879,-0.062018,-0.23073,-0.35931,-0.047877
245,-0.056427,-0.081421,-0.092931,-0.035051,-0.21955,-0.38299,-0.078132
246,-0.072213,-0.047877,-0.088985,-0.010386,-0.20869,-0.38628,-0.10411
247,-0.076488,-0.017292,-0.07024,0.0077021,-0.19685,-0.36819,-0.11891
248,-0.070568,0.0050711,-0.048205,0.013293,-0.18534,-0.3284,-0.11924
249,-0.057743,0.018226,-0.030118,0.0044134,-0.17581,-0.27381,-0.11003
250,-0.042944,0.024474,-0.019923,-0.01499,-0.16824,-0.21823,-0.1005
251,-0.031433,0.024474,-0.014332,-0.03242,-0.15903,-0.17318,-0.094247
252,-0.025842,0.017897,-0.011372,-0.042944,-0.14785,-0.13371,-0.090958
253,-0.025185,0.0040845,-0.0097279,-0.043601,-0.14029,-0.094905,-0.085696
254,-0.033406,-0.016634,-0.0057815,-0.041957,-0.13996,-0.053467,-0.077475
255,-0.051494,-0.039326,0.0001381,-0.041299,-0.1518,-0.018278,-0.07287
256,-0.075173,-0.057414,0.0054,-0.043272,-0.17285,0.0034268,-0.076488
257,-0.095562,-0.069582,0.0070443,-0.04689,-0.19356,0.016253,-0.087341
258,-0.10609,-0.074186,0.0047422,-0.050836,-0.20606,0.028421,-0.097864
259,-0.10641,-0.070897,0.002769,-0.055112,-0.20508,0.043877,-0.10214
260,-0.099509,-0.063333,0.0044134,-0.057414,-0.19192,0.062952,-0.10115
261,-0.087669,-0.054783,0.010333,-0.057743,-0.17087,0.077093,-0.098851
262,-0.074515,-0.04393,0.018884,-0.056098,-0.14555,0.079724,-0.092274
263,-0.06136,-0.028473,0.033683,-0.055112,-0.1199,0.068543,-0.081092
264,-0.051165,-0.0080836,0.053743,-0.055769,-0.1005,0.04026,-0.061689
265,-0.038011,0.010333,0.073804,-0.057085,-0.090629,-0.0024928,-0.039655
266,-0.020909,0.019541,0.085315,-0.059716,-0.091616,-0.050507,-0.02354
267,-0.0074258,0.01691,0.080053,-0.065964,-0.095562,-0.083394,-0.018936
268,-0.0028217,0.011648,0.056374,-0.074844,-0.093918,-0.074844,-0.025842
269,-0.0041372,0.01132,0.020528,-0.079777,-0.077803,-0.014332,-0.038668
270,-0.0041372,0.020528,-0.019594,-0.073857,-0.044917,0.087946,-0.045903
271,0.0047422,0.040918,-0.05544,-0.063991,-0.0054526,0.20338,-0.040313
272,0.01987,0.064267,-0.084052,-0.054125,0.032367,0.29415,-0.019923
273,0.031052,0.080382,-0.10609,-0.048205,0.06361,0.34019,0.0086887
274,0.031381,0.083013,-0.1222,-0.038668,0.089261,0.34282,0.043877
275,0.022172,0.074133,-0.13108,-0.026171,0.11327,0.31782,0.07808
276,0.0093464,0.056046,-0.13338,-0.015319,0.13629,0.27935,0.10603
277,0.00046697,0.036314,-0.12845,-0.0093991,0.15898,0.23594,0.12577
278,-0.0028217,0.02283,-0.11299,-0.0067681,0.17937,0.18693,0.13958
279,0.0021113,0.018884,-0.089972,-0.0041372,0.19812,0.13037,0.15207
280,0.012635,0.019541,-0.066293,0.0034268,0.21193,0.073804,0.1695
281,0.022172,0.017568,-0.050507,0.011977,0.22179,0.039602,0.1968
282,0.027105,0.011977,-0.048205,0.017239,0.23298,0.04881,0.22607
283,0.026119,0.0040845,-0.059716,0.016253,0.24087,0.10472,0.24778
284,0.024474,-0.00051963,-0.082079,0.010991,0.24218,0.20009,0.25994
285,0.023817,0.0001381,-0.10806,0.0060577,0.23462,0.33295,0.26389
286,0.025132,0.0070443,-0.12944,0.0047422,0.21686,0.49114,0.26225
287,0.024474,0.016581,-0.137,0.0060577,0.19088,0.65458,0.25698
288,0.020199,0.023817,-0.12845,0.0070443,0.1603,0.79271,0.24547
289,0.011648,0.025461,-0.10543,0.0030979,0.13004,0.87821,0.22508
290,0.00079584,0.021514,-0.074844,-0.0015062,0.10866,0.89597,0.19713
291,-0.0067681,0.013293,-0.044917,-0.0018351,0.099785,0.8496,0.17016
292,-0.0077547,0.0063866,-0.020581,0.0024402,0.10538,0.75884,0.15339
293,-0.0041372,0.0057288,-0.0008485,0.0086887,0.11754,0.65393,0.14484
294,0.0014536,0.011977,0.017897,0.015924,0.13464,0.5602,0.13333
295,0.0090175,0.026119,0.033025,0.02283,0.15273,0.49443,0.11952
296,0.018884,0.038287,0.043877,0.030065,0.16326,0.46549,0.10932
297,0.031052,0.042233,0.049139,0.038616,0.1603,0.47239,0.10669
298,0.039273,0.036971,0.050784,0.050784,0.14813,0.50791,0.10735
299,0.036971,0.023817,0.049468,0.062623,0.13333,0.56217,0.10932
300,0.027763,0.0093464,0.050126,0.072489,0.12313,0.62663,0.10834
301,0.017239,0.0037556,0.056374,0.076764,0.12379,0.69635,0.10834
302,0.0086887,0.0086887,0.0692,0.076764,0.13103,0.76969,0.10899
303,0.0067154,0.020857,0.08663,0.073476,0.1376,0.83941,0.10866
304,0.010662,0.032696,0.10242,0.067556,0.1376,0.8838,0.10702
305,0.021186,0.041247,0.10998,0.055717,0.12609,0.87887,0.10801
306,0.034669,0.04322,0.1057,0.042233,0.097154,0.81441,0.10998
307,0.045851,0.038287,0.092221,0.032696,0.051113,0.70424,0.10406
308,0.047824,0.029078,0.078409,0.029736,-0.0064392,0.57467,0.090248
309,0.036642,0.023159,0.068871,0.033354,-0.069911,0.44148,0.071173
310,0.023488,0.020528,0.063281,0.043549,-0.12516,0.31848,0.050126
311,0.018226,0.018555,0.06065,0.060321,-0.15607,0.21357,0.028421
312,0.025132,0.012306,0.061307,0.081039,-0.14456,0.13596,0.015266
313,0.038944,0.0063866,0.061965,0.10307,-0.083065,0.090905,0.011977
314,0.053086,0.0014536,0.061307,0.12215,0.023488,0.073147,0.017568
315,0.058676,-0.0011774,0.058676,0.12971,0.14517,0.07216,0.026119
316,0.053415,-0.002164,0.055388,0.11754,0.24153,0.073147,0.030723
317,0.044206,-0.0011774,0.049468,0.077093,0.28231,0.061965,0.028421
318,0.034011,0.0001381,0.039602,0.01691,0.26159,0.037629,0.018555
319,0.026119,-0.0028217,0.021843,-0.038339,0.1968,-0.0031506,0.0063866
320,0.022172,-0.0077547,0.0044134,-0.069253,0.11853,-0.059058,-0.0064392
321,0.021514,-0.011043,-0.0087413,-0.072213,0.050126,-0.13174,-0.019923
322,0.022501,-0.010386,-0.01203,-0.053138,0.0001381,-0.22086,-0.032749
323,0.021514,-0.0084125,-0.0038083,-0.026829,-0.043272,-0.32084,-0.045903
324,0.01691,-0.0077547,0.011648,-0.007097,-0.092603,-0.42673,-0.056098
325,0.01132,-0.012688,0.030723,0.0040845,-0.14621,-0.52309,-0.063991
326,0.0083598,-0.027816,0.047495,0.0060577,-0.19159,-0.58426,-0.072542
327,0.011977,-0.050179,0.056703,-0.00019077,-0.21955,-0.5938,-0.080434
328,0.020199,-0.07583,0.055717,-0.012688,-0.22974,-0.55729,-0.086025
329,0.024474,-0.097864,0.042891,-0.02946,-0.23007,-0.49349,-0.093918
330,0.021186,-0.10839,0.02579,-0.048205,-0.22579,-0.42476,-0.1005
331,0.010333,-0.10346,0.0090175,-0.066293,-0.21922,-0.3649,-0.1051
332,-0.0067681,-0.084381,-0.0028217,-0.080434,-0.20705,-0.32215,-0.10444
333,-0.023869,-0.060045,-0.011043,-0.08471,-0.19521,-0.29716,-0.09918
334,-0.031762,-0.044588,-0.015648,-0.071884,-0.18567,-0.28696,-0.09326
335,-0.030775,-0.044917,-0.01795,-0.039984,-0.18041,-0.28696,-0.090629
336,-0.028473,-0.062676,-0.017292,0.0034268,-0.17383,-0.29453,-0.091945
337,-0.030775,-0.091287,-0.014661,0.044535,-0.1643,-0.30571,-0.09918
338,-0.041957,-0.1199,-0.0087413,0.071831,-0.15344,-0.31459,-0.10773
339,-0.057085,-0.13667,0.0001381,0.07808,-0.14555,-0.31393,-0.11299
340,-0.073528,-0.13272,0.01132,0.0692,-0.13799,-0.30341,-0.10905
341,-0.084381,-0.10905,0.02875,0.050784,-0.12878,-0.27874,-0.0903
342,-0.083065,-0.073199,0.053743,0.03434,-0.11233,-0.23698,-0.062018
343,-0.065964,-0.038011,0.085315,0.02579,-0.087012,-0.18107,-0.030447
344,-0.040313,-0.011701,0.1113,0.02283,-0.048205,-0.11464,-0.0034794
345,-0.015976,0.0017824,0.11689,0.022501,0.0011247,-0.036037,0.019212
346,0.002769,-0.00051963,0.098469,0.02579,0.05177,0.049139,0.039273
347,0.013293,-0.015319,0.064596,0.026119,0.092221,0.12971,0.058348
348,0.014608,-0.03538,0.026447,0.026447,0.11458,0.18825,0.078737
349,0.0093464,-0.051494,-0.0064392,0.02579,0.11426,0.21588,0.096825
350,0.0017824,-0.062018,-0.024856,0.026119,0.096167,0.21456,0.10307
351,-0.0087413,-0.066951,-0.029789,0.027763,0.071173,0.18792,0.095181
352,-0.022883,-0.072213,-0.024856,0.033683,0.053086,0.1478,0.076435
353,-0.038668,-0.074186,-0.01499,0.038287,0.049139,0.1011,0.049468
354,-0.053796,-0.069911,-0.0008485,0.037958,0.058676,0.05473,0.025461
355,-0.06136,-0.054454,0.014279,0.033354,0.076764,0.016581,0.012635
356,-0.0584,-0.02946,0.02875,0.028421,0.098798,-0.0061104,0.013622
357,-0.04689,-0.0008485,0.034011,0.02579,0.12182,-0.011701,0.026776
358,-0.031433,0.024803,0.030065,0.022172,0.1376,-0.004466,0.041247
359,-0.015648,0.044206,0.014608,0.018555,0.14287,0.0070443,0.051441
360,0.0011247,0.058019,-0.0047949,0.012306,0.14024,0.022172,0.054072
361,0.012635,0.065912,-0.02354,0.0034268,0.13464,0.046508,0.049797
362,0.019212,0.065912,-0.037682,-0.0074258,0.12511,0.083999,0.041575
363,0.023488,0.055059,-0.04985,-0.01795,0.11623,0.13497,0.034669
364,0.023159,0.03434,-0.061031,-0.023211,0.11228,0.18957,0.029736
365,0.019212,0.0093464,-0.068924,-0.021896,0.11393,0.2287,0.029407
366,0.015595,-0.012359,-0.071884,-0.015976,0.11623,0.23659,0.030394
367,0.013951,-0.0265,-0.071226,-0.0061104,0.1159,0.2093,0.027434
368,0.014937,-0.030447,-0.068266,0.0050711,0.10702,0.14912,0.020199
369,0.018226,-0.024856,-0.064649,0.012306,0.087288,0.062294,0.0077021
370,0.019212,-0.015319,-0.061689,0.012635,0.057361,-0.040313,-0.0041372
371,0.013951,-0.0034794,-0.0584,0.010662,0.022501,-0.14555,-0.0093991
372,0.0040845,0.0090175,-0.049521,0.0096753,-0.010715,-0.23632,-0.011372
373,-0.0064392,0.023159,-0.033735,0.012635,-0.036037,-0.30439,-0.01203
374,-0.0084125,0.0373,-0.015319,0.01987,-0.050836,-0.34879,-0.016305
375,-0.0018351,0.049139,-0.0011774,0.032696,-0.056756,-0.37543,-0.027158
376,0.0086887,0.057361,0.002769,0.047166,-0.057085,-0.3945,-0.04393
377,0.018555,0.059992,-0.0034794,0.055717,-0.059058,-0.41588,-0.06136
378,0.02283,0.058676,-0.015648,0.053415,-0.063991,-0.44416,-0.073199
379,0.018226,0.054401,-0.026171,0.039273,-0.071555,-0.48461,-0.081421
380,0.010004,0.050455,-0.033406,0.019212,-0.078132,-0.53789,-0.086025
381,-0.00051963,0.047824,-0.034393,0.00046697,-0.082079,-0.59643,-0.087998
382,-0.0077547,0.044535,-0.029789,-0.0090702,-0.083065,-0.66023,-0.089643
383,-0.0057815,0.041904,-0.019594,-0.013017,-0.083723,-0.73883,-0.094576
384,0.0044134,0.042562,-0.0077547,-0.013017,-0.087012,-0.83749,-0.095891
385,0.020199,0.04881,-0.0018351,-0.0077547,-0.089314,-0.94042,-0.090629
386,0.035327,0.056374,-0.0011774,-0.0024928,-0.086025,-1.0085,-0.084052
387,0.047824,0.059992,-0.00051963,-0.00051963,-0.075501,-0.98022,-0.080434
388,0.05177,0.057361,0.0070443,-0.0034794,-0.064649,-0.81381,-0.080106
389,0.048482,0.047495,0.022172,-0.011372,-0.060373,-0.52539,-0.082736
390,0.038616,0.031709,0.038287,-0.020581,-0.063991,-0.18666,-0.085367
391,0.026447,0.011977,0.046508,-0.034722,-0.078132,0.11097,-0.086683
392,0.014279,-0.0067681,0.04618,-0.057414,-0.10181,0.29546,-0.090629
393,0.0021113,-0.022883,0.036642,-0.091287,-0.13305,0.34644,-0.096878
394,-0.0093991,-0.032749,0.021514,-0.13536,-0.15509,0.29184,-0.10839
395,-0.013674,-0.037024,0.0054,-0.17844,-0.15344,0.18562,-0.11661
396,-0.0087413,-0.030775,-0.011372,-0.20771,-0.12286,0.078737,-0.11595
397,0.0014536,-0.014661,-0.023869,-0.21659,-0.071884,-0.004466,-0.11003
398,0.013951,0.0093464,-0.032091,-0.20803,-0.010715,-0.067937,-0.099509
399,0.023817,0.034669,-0.034064,-0.18534,0.049139,-0.12648,-0.084052
400,0.029407,0.055059,-0.032749,-0.15673,0.099456,-0.19521,-0.058071
401,0.031052,0.062294,-0.028473,-0.12976,0.1353,-0.284,-0.027158
402,0.028421,0.057361,-0.024198,-0.1005,0.1501,-0.40174,-0.0008485
403,0.022172,0.046837,-0.021896,-0.047548,0.13497,-0.53427,0.020528
404,0.010333,0.034998,-0.022225,0.052757,0.088932,-0.64214,0.038287
405,-0.0047949,0.019212,-0.028802,0.19614,0.015595,-0.68095,0.053086
406,-0.022883,0.0001381,-0.038997,0.34084,-0.071226,-0.61912,0.059334
407,-0.038668,-0.019265,-0.046232,0.43885,-0.14917,-0.43232,0.056374
408,-0.047877,-0.035051,-0.042286,0.4691,-0.19521,-0.092931,0.051113
409,-0.048534,-0.044588,-0.026171,0.43589,-0.1985,0.40136,0.052757
410,-0.039326,-0.045903,-0.004466,0.35992,-0.16561,1.0084,0.066569
411,-0.025842,-0.037353,0.018226,0.26948,-0.11398,1.6356,0.097483
412,-0.014332,-0.020909,0.039602,0.18661,-0.056427,2.1598,0.13958
413,-0.010386,0.0024402,0.06065,0.12445,-0.0051238,2.4699,0.18496
414,-0.011701,0.026447,0.078409,0.087288,0.032696,2.5209,0.22179
415,-0.014332,0.042891,0.088932,0.071831,0.058019,2.3535,0.2412
416,-0.0097279,0.05177,0.093536,0.069529,0.072489,2.0852,0.2458
417,0.0057288,0.056374,0.092879,0.074133,0.085972,1.8405,0.24251
418,0.027763,0.059005,0.083342,0.077093,0.10505,1.6823,0.23528
419,0.051441,0.060979,0.068543,0.076435,0.12248,1.5945,0.22179
420,0.071173,0.064596,0.050784,0.073804,0.12873,1.5136,0.20272
421,0.081039,0.068214,0.03434,0.068214,0.11689,1.3735,0.18167
422,0.076435,0.068871,0.023488,0.054401,0.089261,1.1383,0.16128
423,0.059663,0.065583,0.018226,0.032367,0.052428,0.80882,0.13432
424,0.035985,0.060979,0.016581,0.0070443,0.0090175,0.40563,0.10044
425,0.011977,0.058019,0.011977,-0.016634,-0.034064,-0.028802,0.058676
426,-0.0018351,0.058019,0.00046697,-0.036037,-0.076817,-0.45074,0.020199
427,0.00079584,0.056046,-0.016634,-0.051823,-0.11793,-0.82696,-0.011701
428,0.010333,0.050784,-0.030775,-0.07024,-0.15147,-1.1275,-0.032091
429,0.014608,0.045522,-0.030775,-0.090629,-0.17416,-1.3232,-0.043272
430,0.010333,0.044864,-0.013017,-0.10641,-0.18337,-1.3929,-0.049521
431,0.0011247,0.049468,0.017568,-0.10937,-0.18107,-1.3295,-0.051823
432,-0.0084125,0.05473,0.049139,-0.093589,-0.16627,-1.1486,-0.04689
433,-0.014332,0.057032,0.071173,-0.06432,-0.13766,-0.89076,-0.037353
434,-0.014661,0.055717,0.081368,-0.028802,-0.09918,-0.60794,-0.027487
435,-0.012688,0.050126,0.07512,0.0017824,-0.060702,-0.35471,-0.021896
436,-0.0084125,0.042233,0.055717,0.018555,-0.031104,-0.17515,-0.021896
437,-0.00019077,0.032367,0.028092,0.017568,-0.01203,-0.089643,-0.029131
438,0.0080309,0.021186,-0.002164,0.0060577,-0.0074258,-0.088327,-0.042944
439,0.0093464,0.0070443,-0.030775,-0.007097,-0.016634,-0.14029,-0.058729
440,0.0011247,-0.013017,-0.055112,-0.015648,-0.030447,-0.21461,-0.075501
441,-0.015976,-0.033406,-0.079448,-0.022554,-0.040313,-0.29617,-0.090629
442,-0.033735,-0.047877,-0.10477,-0.03242,-0.041957,-0.38102,-0.097536
443,-0.050836,-0.051165,-0.13141,-0.041957,-0.034064,-0.46554,-0.097207
444,-0.060373,-0.041628,-0.14851,-0.053467,-0.016305,-0.54776,-0.093918
445,-0.06136,-0.022225,-0.14423,-0.069253,0.013293,-0.62142,-0.088656
446,-0.053138,0.0054,-0.11332,-0.085039,0.051113,-0.68128,-0.08471
447,-0.04393,0.035656,-0.06136,-0.10214,0.083013,-0.72567,-0.083065
448,-0.037353,0.059663,0.0017824,-0.11924,0.10373,-0.75395,-0.082736
449,-0.033406,0.071502,0.06361,-0.13766,0.11228,-0.75626,-0.079448
450,-0.030118,0.069858,0.11031,-0.15607,0.10932,-0.72534,-0.069582
451,-0.029131,0.058676,0.133,-0.16956,0.098141,-0.65858,-0.051823
452,-0.0265,0.041575,0.12708,-0.18041,0.082026,-0.5688,-0.032091
453,-0.021567,0.026447,0.095181,-0.18666,0.069858,-0.47014,-0.01499
454,-0.018278,0.015266,0.044535,-0.18304,0.064925,-0.3751,-0.0061104
455,-0.024856,0.010991,-0.013345,-0.1666,0.067227,-0.29157,-0.0097279
456,-0.037682,0.010004,-0.068924,-0.13437,0.069858,-0.22875,-0.015976
457,-0.050507,0.011648,-0.11464,-0.086354,0.059992,-0.19948,-0.026171
458,-0.056427,0.010004,-0.1518,-0.027487,0.021843,-0.21527,-0.045574
459,-0.053467,0.0034268,-0.17975,0.041247,-0.046561,-0.28104,-0.073528
460,-0.04985,-0.0074258,-0.1985,0.11787,-0.12944,-0.38299,-0.11233
461,-0.048205,-0.017292,-0.20508,0.18858,-0.20014,-0.48593,-0.15377
462,-0.049192,-0.021567,-0.19784,0.23561,-0.23928,-0.55433,-0.18271
463,-0.048205,-0.017292,-0.17548,0.24383,-0.24289,-0.56255,-0.18666
464,-0.043601,-0.0051238,-0.14062,0.2116,-0.21987,-0.50862,-0.16824
465,-0.036366,0.0093464,-0.10082,0.15438,-0.1814,-0.41226,-0.14127
466,-0.027158,0.016581,-0.063662,0.088603,-0.13864,-0.30045,-0.11398
467,-0.019265,0.014608,-0.03538,0.029736,-0.1028,-0.20738,-0.091287
468,-0.015976,0.0057288,-0.017292,-0.013345,-0.082408,-0.16068,-0.081092
469,-0.017292,-0.0038083,-0.0041372,-0.034722,-0.076159,-0.17811,-0.081421
470,-0.025514,-0.012359,0.0017824,-0.038668,-0.078132,-0.25737,-0.079777
471,-0.034064,-0.019594,0.0001381,-0.036037,-0.080763,-0.38595,-0.068924
472,-0.038011,-0.027487,-0.0057815,-0.034064,-0.073199,-0.54776,-0.04689
473,-0.034722,-0.035051,-0.011701,-0.036037,-0.055112,-0.73126,-0.015319
474,-0.024527,-0.042944,-0.015319,-0.037024,-0.033735,-0.94075,0.019541
475,-0.010386,-0.054125,-0.01203,-0.028802,-0.016963,-1.1614,0.053086
476,0.0057288,-0.06728,-0.002164,-0.014332,-0.0008485,-1.3153,0.084657
477,0.017897,-0.082408,0.012635,-0.0011774,0.023159,-1.2841,0.11787
478,0.023488,-0.095562,0.030065,0.0096753,0.06065,-0.98712,0.15471
479,0.025461,-0.10115,0.048153,0.015266,0.11162,-0.45567,0.19285
480,0.027763,-0.097536,0.065912,0.018884,0.17016,0.17937,0.22574
481,0.031709,-0.085367,0.084986,0.021514,0.22311,0.7539,0.2435
482,0.036314,-0.062347,0.1034,0.02283,0.26192,1.1476,0.2412
483,0.041575,-0.03242,0.11491,0.02579,0.2777,1.3136,0.22508
484,0.042562,-0.004466,0.11491,0.031052,0.2708,1.2709,0.20206
485,0.040918,0.022501,0.098469,0.036314,0.24843,1.087,0.17641
486,0.040589,0.04881,0.071502,0.040918,0.22048,0.85552,0.1478
487,0.043877,0.07512,0.041575,0.041904,0.19154,0.65689,0.11426
488,0.053086,0.096825,0.01691,0.035985,0.16589,0.53751,0.079066
489,0.064596,0.10866,0.0017824,0.029078,0.1432,0.50594,0.051441
490,0.073804,0.10538,-0.0057815,0.027105,0.12182,0.54474,0.040589
491,0.07512,0.088603,-0.011043,0.02875,0.10209,0.61742,0.040589
492,0.068214,0.064267,-0.017621,0.027763,0.085972,0.69142,0.043549
493,0.050784,0.035985,-0.028802,0.017568,0.071831,0.74996,0.04322
494,0.025461,0.010991,-0.046561,0.0011247,0.059992,0.7983,0.038287
495,0.0021113,-0.0047949,-0.059716,-0.015648,0.050455,0.84763,0.027105
496,-0.0084125,-0.0064392,-0.063333,-0.026171,0.050784,0.8986,0.016581
497,-0.0067681,0.0054,-0.054783,-0.033078,0.064925,0.93807,0.015595
498,0.0021113,0.02579,-0.034393,-0.038011,0.084986,0.94037,0.026776
499,0.015595,0.047495,-0.0051238,-0.036037,0.098469,0.87558,0.043877
500,0.026776,0.064596,0.027763,-0.031762,0.098798,0.72595,0.059005
501,0.036314,0.07512,0.06065,-0.026829,0.084328,0.50626,0.059334
502,0.043877,0.083342,0.087288,-0.023869,0.059334,0.26027,0.041247
503,0.047166,0.087288,0.10242,-0.019594,0.033354,0.04322,0.014279
504,0.045522,0.082026,0.1057,-0.010715,0.015266,-0.11003,-0.0093991
505,0.035327,0.06065,0.094194,0.00079584,0.0054,-0.19981,-0.020252
506,0.017239,0.02283,0.065912,0.0093464,-0.002164,-0.24947,-0.020581
507,-0.0090702,-0.026829,0.027763,0.0077021,-0.01203,-0.27677,-0.014003
508,-0.04097,-0.080763,-0.013674,-0.0047949,-0.028144,-0.27414,-0.0031506
509,-0.071884,-0.11957,-0.049192,-0.026829,-0.044259,-0.22415,0.010004
510,-0.089643,-0.12911,-0.074844,-0.051494,-0.056098,-0.11497,0.028421
511,-0.086354,-0.10313,-0.0903,-0.07287,-0.063991,0.047824,0.050455
512,-0.064978,-0.058071,-0.097207,-0.087012,-0.073199,0.2241,0.072818
513,-0.04097,-0.025842,-0.09918,-0.096878,-0.087669,0.3586,0.090577
514,-0.027816,-0.030775,-0.096549,-0.10444,-0.10905,0.39281,0.10373
515,-0.030118,-0.07287,-0.089972,-0.11168,-0.13404,0.30368,0.10866
516,-0.044588,-0.12976,-0.079448,-0.11727,-0.1518,0.1205,0.1057
517,-0.058071,-0.17844,-0.06136,-0.11793,-0.15607,-0.091287,0.098141
518,-0.064649,-0.20705,-0.034064,-0.11135,-0.14785,-0.26131,0.08663
519,-0.065964,-0.21626,-0.0047949,-0.096549,-0.13042,-0.3432,0.070845
520,-0.06728,-0.21494,0.01987,-0.08175,-0.11299,-0.33366,0.055717
521,-0.069253,-0.21132,0.033354,-0.072542,-0.1005,-0.25539,0.037958
522,-0.068266,-0.20606,0.037958,-0.06728,-0.095233,-0.1245,0.021514
523,-0.062018,-0.19554,0.038616,-0.060045,-0.094905,0.069529,0.010662
524,-0.048205,-0.17745,0.044535,-0.04689,-0.092931,0.35696,0.010991
525,-0.027158,-0.14818,0.055059,-0.027487,-0.080763,0.76245,0.022501
526,-0.0041372,-0.10609,0.068543,-0.0057815,-0.053467,1.2479,0.046837
527,0.014279,-0.058729,0.079066,0.016581,-0.013345,1.7102,0.072489
528,0.024474,-0.01499,0.082684,0.041247,0.030394,2.02,0.08367
529,0.029407,0.019212,0.076435,0.064267,0.064596,2.0921,0.067227
530,0.032038,0.042562,0.062952,0.083999,0.083013,1.9128,0.024145
531,0.03434,0.056046,0.052757,0.097154,0.079066,1.5438,-0.036366
532,0.038616,0.060979,0.051441,0.10209,0.055717,1.0808,-0.1005
533,0.044206,0.059663,0.055059,0.10274,0.019541,0.61578,-0.14983
534,0.051113,0.052099,0.053743,0.098469,-0.013674,0.22739,-0.17186
535,0.060979,0.04322,0.039931,0.090248,-0.03538,-0.041957,-0.16331
536,0.072818,0.038616,0.010991,0.079066,-0.040313,-0.19685,-0.13601
537,0.081697,0.040589,-0.027158,0.066569,-0.029789,-0.2794,-0.096549
538,0.085644,0.047824,-0.063004,0.055059,-0.013674,-0.33892,-0.055769
539,0.082026,0.060979,-0.088656,0.047495,0.0001381,-0.4116,-0.021238
540,0.074791,0.077751,-0.1074,0.04618,0.0090175,-0.49612,0.0014536
541,0.065912,0.093865,-0.1245,0.047495,0.0073732,-0.57538,0.015595
542,0.059334,0.10735,-0.13568,0.04618,-0.0038083,-0.628,0.024803
543,0.056374,0.11985,-0.1347,0.039931,-0.015319,-0.63819,0.03434
544,0.053743,0.13333,-0.11825,0.028421,-0.020909,-0.59577,0.044206
545,0.04881,0.1432,-0.088327,0.014608,-0.023211,-0.49612,0.048153
546,0.041904,0.14583,-0.053138,0.0001381,-0.028144,-0.33399,0.047495
547,0.032367,0.13695,-0.020252,-0.014332,-0.043272,-0.11431,0.040589
548,0.020199,0.11327,0.0073732,-0.028144,-0.068266,0.12511,0.02875
549,0.0060577,0.081039,0.030065,-0.035051,-0.094576,0.3244,0.014279
550,-0.0054526,0.049468,0.050784,-0.031762,-0.10806,0.4224,-0.0024928
551,-0.014661,0.029736,0.071831,-0.019594,-0.10346,0.39281,-0.020252
552,-0.017621,0.023159,0.092879,-0.0024928,-0.079448,0.25731,-0.044917
553,-0.014332,0.027105,0.11557,0.013293,-0.037682,0.059663,-0.072213
554,-0.004466,0.0373,0.13596,0.020857,0.015924,-0.16101,-0.095233
555,0.0077021,0.049139,0.14418,0.022172,0.066569,-0.39516,-0.10609
556,0.021186,0.062294,0.13103,0.019541,0.10077,-0.67404,-0.096878
557,0.03434,0.077422,0.09255,0.020199,0.11721,-1.0388,-0.067609
558,0.042891,0.091234,0.04026,0.027105,0.11919,-1.4995,-0.030447
559,0.04881,0.10373,-0.0061104,0.045522,0.11656,-2.0316,-0.004466
560,0.054072,0.11426,-0.02946,0.077751,0.11393,-2.5657,0.0077021
561,0.068543,0.11853,-0.020909,0.12017,0.10735,-2.9985,0.012306
562,0.091892,0.1159,0.017239,0.16589,0.08959,-3.23,0.021514
563,0.11721,0.1034,0.065254,0.20436,0.067227,-3.2001,0.047495
564,0.13563,0.082026,0.10472,0.22212,0.047824,-2.9018,0.09255
565,0.14155,0.060321,0.12116,0.2162,0.041247,-2.3529,0.1478
566,0.13333,0.049468,0.11162,0.19417,0.050784,-1.5692,0.19746
567,0.11557,0.05473,0.085972,0.16753,0.071173,-0.59939,0.22936
568,0.10077,0.07512,0.055388,0.14583,0.097812,0.39182,0.24383
569,0.095181,0.10209,0.02579,0.13695,0.12873,1.1495,0.24317
570,0.093865,0.12511,0.0021113,0.13958,0.16852,1.5037,0.22969
571,0.091563,0.13497,-0.012688,0.14879,0.21686,1.435,0.20897
572,0.084986,0.12708,-0.017621,0.16161,0.26948,1.065,0.17838
573,0.074791,0.095181,-0.01203,0.17575,0.31454,0.5796,0.13399
574,0.055717,0.041904,0.0030979,0.19088,0.3392,0.16359,0.083342
575,0.025461,-0.028473,0.025461,0.20305,0.33394,-0.05281,0.0373
576,-0.018278,-0.10181,0.047824,0.20469,0.30007,-0.024856,0.0017824
577,-0.069582,-0.16298,0.063281,0.18924,0.2435,0.23067,-0.025842
578,-0.11793,-0.20573,0.072818,0.1603,0.17542,0.66807,-0.042615
579,-0.15575,-0.22645,0.075778,0.12445,0.11393,1.2275,-0.041957
580,-0.17745,-0.22119,0.070845,0.086301,0.073804,1.8323,-0.019923
581,-0.18436,-0.19324,0.056374,0.052428,0.053086,2.3716,0.013622
582,-0.17712,-0.14687,0.033354,0.022501,0.035985,2.7271,0.044535
583,-0.15706,-0.094247,0.0047422,-0.00019077,0.0067154,2.805,0.061307
584,-0.13272,-0.045903,-0.026171,-0.015976,-0.042286,2.5844,0.061636
585,-0.11332,-0.0093991,-0.059058,-0.030447,-0.10707,2.1276,0.046508
586,-0.097864,0.012964,-0.089314,-0.044588,-0.17712,1.5563,0.014608
587,-0.078461,0.02283,-0.10905,-0.06136,-0.24257,0.99233,-0.031433
588,-0.054783,0.028421,-0.11168,-0.078132,-0.30078,0.51613,-0.086683
589,-0.028144,0.038287,-0.10115,-0.09326,-0.35274,0.15668,-0.14358
590,-0.0067681,0.055717,-0.086354,-0.10477,-0.39582,-0.091616,-0.18929
591,0.0037556,0.074791,-0.07583,-0.11168,-0.42903,-0.25243,-0.22218
592,0.0021113,0.086959,-0.07879,-0.11431,-0.45107,-0.35175,-0.25145
593,-0.0024928,0.084986,-0.09622,-0.11628,-0.46159,-0.40766,-0.284
594,-0.0015062,0.065912,-0.12319,-0.12121,-0.46422,-0.43726,-0.31755
595,0.0021113,0.034669,-0.15147,-0.12845,-0.45962,-0.456,-0.34517
596,0.00046697,0.0054,-0.17515,-0.13733,-0.44942,-0.47606,-0.36458
597,-0.0090702,-0.016963,-0.18666,-0.14719,-0.42706,-0.51355,-0.37674
598,-0.019594,-0.030775,-0.18501,-0.15509,-0.39056,-0.58229,-0.37346
599,-0.021567,-0.036695,-0.1712,-0.15673,-0.33629,-0.67864,-0.34649
600,-0.010057,-0.033078,-0.15015,-0.14785,-0.26723,-0.77336,-0.2965
601,0.010333,-0.020909,-0.12746,-0.13042,-0.19356,-0.83157,-0.22875
602,0.025132,-0.01203,-0.10477,-0.1097,-0.1268,-0.83255,-0.15377
603,0.021843,-0.015648,-0.082079,-0.090958,-0.074844,-0.77961,-0.082408
604,-0.002164,-0.034064,-0.061031,-0.07583,-0.038997,-0.69673,-0.028473
605,-0.038668,-0.063662,-0.038997,-0.067937,-0.016634,-0.6086,0.0017824
606,-0.074515,-0.098193,-0.01795,-0.062676,0.0021113,-0.51684,0.01132
607,-0.097207,-0.1268,-0.00051963,-0.056427,0.032367,-0.42476,0.013622
608,-0.10115,-0.137,0.016581,-0.047877,0.080711,-0.34978,0.023159
609,-0.091616,-0.11793,0.03434,-0.045246,0.1307,-0.34221,0.044206
610,-0.079777,-0.075173,0.047824,-0.056098,0.1524,-0.44252,0.070187
611,-0.070568,-0.021896,0.051441,-0.077475,0.13366,-0.64839,0.092221
612,-0.065635,0.028092,0.049139,-0.094576,0.092879,-0.89307,0.10603
613,-0.060702,0.069529,0.04618,-0.09622,0.063938,-1.0776,0.11656
614,-0.056427,0.09551,0.043549,-0.073199,0.073804,-1.1302,0.12741
615,-0.054783,0.10505,0.043877,-0.030118,0.12346,-1.0371,0.13826
616,-0.051165,0.10274,0.045193,0.015924,0.19581,-0.84604,0.14352
617,-0.047548,0.091234,0.045193,0.046837,0.26323,-0.64181,0.13662
618,-0.045903,0.077093,0.041904,0.054401,0.30237,-0.48955,0.1182
619,-0.049521,0.062952,0.03434,0.045522,0.29941,-0.40437,0.091892
620,-0.054783,0.050455,0.026447,0.029407,0.25863,-0.34912,0.065583
621,-0.061031,0.041904,0.018555,0.016253,0.19088,-0.26888,0.047166
622,-0.062347,0.038287,0.014608,0.01132,0.10965,-0.13272,0.035656
623,-0.054125,0.044864,0.015266,0.01132,0.02579,0.04881,0.034998
624,-0.036037,0.063938,0.021843,0.012964,-0.050179,0.23922,0.050126
625,-0.011372,0.08959,0.036314,0.015924,-0.11102,0.39971,0.076764
626,0.01691,0.11261,0.058348,0.020199,-0.14752,0.51514,0.10669
627,0.041575,0.12281,0.081368,0.02283,-0.16166,0.59276,0.12905
628,0.059005,0.11721,0.10143,0.021186,-0.16462,0.65064,0.13596
629,0.066898,0.098798,0.11393,0.017239,-0.16265,0.70786,0.13169
630,0.068871,0.071173,0.10965,0.012635,-0.15509,0.76969,0.11985
631,0.069529,0.040918,0.086959,0.01132,-0.14095,0.83645,0.10274
632,0.068214,0.014279,0.056046,0.013951,-0.11332,0.90123,0.079724
633,0.062294,-0.0061104,0.024474,0.017568,-0.072213,0.9453,0.053743
634,0.050126,-0.020581,-0.0024928,0.021186,-0.023211,0.9305,0.030723
635,0.034669,-0.02354,-0.021896,0.024145,0.023817,0.83119,0.015266
636,0.024803,-0.016305,-0.030118,0.025132,0.051113,0.64373,0.0067154
637,0.025132,-0.00051963,-0.02946,0.021514,0.047824,0.37505,-0.0028217
638,0.031381,0.016581,-0.022225,0.015924,0.013951,0.021186,-0.013674
639,0.039602,0.033354,-0.015319,0.010991,-0.039326,-0.4241,-0.020909
640,0.045193,0.043877,-0.012359,0.012306,-0.092603,-0.92299,-0.025842
641,0.045193,0.047495,-0.01203,0.02579,-0.12812,-1.3765,-0.024198
642,0.047495,0.047166,-0.013674,0.050455,-0.13601,-1.6518,-0.012359
643,0.055059,0.043549,-0.013017,0.076435,-0.1176,-1.6478,0.013293
644,0.068214,0.038944,-0.0097279,0.096167,-0.076488,-1.3624,0.04618
645,0.078737,0.03434,-0.0034794,0.10274,-0.016963,-0.90063,0.079066
646,0.084328,0.031709,0.00079584,0.095181,0.050126,-0.41292,0.10176
647,0.084657,0.030394,0.0021113,0.080382,0.11524,-0.027487,0.10932
648,0.081368,0.029736,0.0017824,0.062952,0.16753,0.2014,0.10702
649,0.07808,0.028421,0.0001381,0.042891,0.20831,0.28724,0.094523
650,0.074462,0.027763,0.00046697,0.025132,0.23725,0.28428,0.073804
651,0.071173,0.025461,0.0073732,0.015595,0.25271,0.25369,0.046508
652,0.066898,0.020528,0.022172,0.015266,0.25304,0.23429,0.018226
653,0.061636,0.011648,0.044864,0.016253,0.24186,0.23232,-0.0074258
654,0.053743,-0.002164,0.068214,0.015266,0.22377,0.24153,-0.025185
655,0.044535,-0.016634,0.085315,0.011977,0.20173,0.25139,-0.03538
656,0.031709,-0.037024,0.088603,0.0070443,0.17378,0.26323,-0.046561
657,0.016581,-0.060045,0.083013,-0.0015062,0.14089,0.28855,-0.06432
658,0.0001381,-0.07879,0.074133,-0.012688,0.10538,0.3369,-0.090629
659,-0.018278,-0.083723,0.066569,-0.019923,0.071173,0.403,-0.11529
660,-0.031104,-0.071226,0.059334,-0.020909,0.040918,0.46614,-0.13108
661,-0.032749,-0.045246,0.050784,-0.01795,0.012306,0.49541,-0.13766
662,-0.028473,-0.012359,0.038944,-0.018936,-0.018278,0.47239,-0.13897
663,-0.022554,0.015595,0.023488,-0.022883,-0.053138,0.38919,-0.14423
664,-0.019923,0.033683,0.0044134,-0.031762,-0.089314,0.26455,-0.15542
665,-0.022225,0.040918,-0.015976,-0.044259,-0.12253,0.13563,-0.16956
666,-0.028802,0.038616,-0.035051,-0.054125,-0.14983,0.049139,-0.18074
667,-0.036037,0.029078,-0.053467,-0.059387,-0.17087,0.029736,-0.18699
668,-0.042615,0.016581,-0.068924,-0.062018,-0.18666,0.069858,-0.19159
669,-0.051165,-0.0015062,-0.08471,-0.06728,-0.1962,0.13728,-0.19258
670,-0.06432,-0.02354,-0.10313,-0.082079,-0.20146,0.18529,-0.18995
671,-0.078461,-0.043272,-0.12812,-0.10641,-0.19948,0.18299,-0.17745
672,-0.088327,-0.054125,-0.15377,-0.13404,-0.18732,0.1113,-0.15575
673,-0.087998,-0.051494,-0.17252,-0.15377,-0.16758,-0.068266,-0.12845
674,-0.078461,-0.035051,-0.17515,-0.15903,-0.14621,-0.40108,-0.1005
675,-0.063991,-0.0090702,-0.15969,-0.1495,-0.12878,-0.89043,-0.077475
676,-0.050179,0.018555,-0.13174,-0.13075,-0.11562,-1.4646,-0.060373
677,-0.038011,0.039931,-0.097536,-0.10806,-0.10543,-1.9602,-0.047877
678,-0.027487,0.055388,-0.065635,-0.084052,-0.092274,-2.1618,-0.033078
679,-0.015319,0.061307,-0.038997,-0.061031,-0.077475,-1.9218,-0.0097279
680,0.0030979,0.056703,-0.018936,-0.038997,-0.059716,-1.2966,0.021843
681,0.025132,0.045193,0.0017824,-0.020581,-0.041299,-0.54085,0.05769
682,0.045851,0.034998,0.020199,-0.0064392,-0.022225,0.056374,0.091234
683,0.059663,0.030065,0.03434,0.0044134,-0.0057815,0.35137,0.12017
684,0.065254,0.030065,0.044535,0.013951,0.0086887,0.38886,0.14352
685,0.061965,0.030394,0.052757,0.023817,0.027763,0.3244,0.1649
686,0.05177,0.030394,0.061965,0.034011,0.054072,0.31092,0.19121
687,0.038944,0.029736,0.075449,0.048153,0.084657,0.41056,0.22903
688,0.029078,0.027763,0.093536,0.068871,0.10899,0.57894,0.27836
689,0.028421,0.023488,0.11162,0.095839,0.11721,0.71477,0.33394
690,0.039931,0.015924,0.12577,0.12313,0.10603,0.70687,0.38853
691,0.05769,0.0063866,0.13497,0.14681,0.07808,0.48127,0.43161
692,0.077093,-0.00019077,0.13629,0.16622,0.039273,0.071502,0.45661
693,0.091234,-0.0015062,0.13201,0.17937,-0.0031506,-0.38825,0.45529
694,0.095839,-0.0018351,0.12807,0.18661,-0.038011,-0.73061,0.4303
695,0.088275,-0.0015062,0.13366,0.18463,-0.059058,-0.82959,0.38886
696,0.073804,0.0001381,0.15273,0.17115,-0.063004,-0.63589,0.3415
697,0.057032,0.002769,0.17641,0.14352,-0.053796,-0.17613,0.29053
698,0.040589,0.0037556,0.19088,0.10965,-0.03242,0.47239,0.2412
699,0.026447,0.002769,0.18529,0.077751,-0.0057815,1.212,0.19746
700,0.013951,0.0001381,0.15668,0.052428,0.024474,1.9401,0.16589
701,0.0037556,-0.0041372,0.10669,0.032038,0.052757,2.5581,0.15043
702,-0.0034794,-0.0097279,0.050455,0.012635,0.073476,2.9892,0.14977
703,-0.0093991,-0.016305,-0.0008485,-0.0074258,0.082684,3.1875,0.15635
704,-0.015319,-0.019923,-0.042286,-0.027816,0.082026,3.1388,0.15931
705,-0.022883,-0.019923,-0.072542,-0.048205,0.077093,2.8656,0.14451
706,-0.030775,-0.017292,-0.096549,-0.063662,0.074791,2.44,0.10373
707,-0.039326,-0.016634,-0.12187,-0.07287,0.068871,1.9707,0.043877
708,-0.052481,-0.019923,-0.15542,-0.073857,0.054401,1.5527,-0.021567
709,-0.068266,-0.028473,-0.19389,-0.065307,0.035327,1.2373,-0.083723
710,-0.082079,-0.042286,-0.22612,-0.052481,0.019212,1.013,-0.13667
711,-0.091616,-0.0584,-0.24191,-0.041628,0.0054,0.83842,-0.17613
712,-0.094576,-0.069911,-0.24059,-0.039984,-0.004466,0.66313,-0.19291
713,-0.089314,-0.076817,-0.23007,-0.04985,-0.015319,0.45858,-0.1906
714,-0.082736,-0.079448,-0.21165,-0.071884,-0.030775,0.21094,-0.17942
715,-0.082079,-0.08471,-0.19225,-0.10247,-0.056427,-0.081421,-0.16758
716,-0.087341,-0.09326,-0.17318,-0.12911,-0.092603,-0.40766,-0.15607
717,-0.097207,-0.10017,-0.15903,-0.13897,-0.13272,-0.73357,-0.14555
718,-0.1074,-0.10148,-0.15081,-0.12516,-0.16594,-0.99962,-0.13437
719,-0.11168,-0.097536,-0.14818,-0.093918,-0.18469,-1.1404,-0.13009
720,-0.10609,-0.090629,-0.1518,-0.056756,-0.18074,-1.0993,-0.13437
721,-0.091945,-0.087998,-0.1564,-0.027487,-0.15673,-0.87958,-0.1416
722,-0.074515,-0.092274,-0.15838,-0.011701,-0.12286,-0.56058,-0.14259
723,-0.058071,-0.099838,-0.14917,-0.0084125,-0.089643,-0.25177,-0.13371
724,-0.047219,-0.10905,-0.13075,-0.0087413,-0.062018,-0.047548,-0.12056
725,-0.044588,-0.11332,-0.10674,-0.0090702,-0.044917,0.01132,-0.11003
726,-0.050179,-0.1097,-0.086025,-0.01203,-0.038011,-0.059387,-0.10543
727,-0.053796,-0.098522,-0.073857,-0.01795,-0.037682,-0.23171,-0.1051
728,-0.04985,-0.085367,-0.069911,-0.02354,-0.043601,-0.47869,-0.10806
729,-0.037024,-0.074844,-0.065635,-0.02946,-0.052152,-0.76415,-0.11365
730,-0.016305,-0.068924,-0.056098,-0.027487,-0.059058,-1.0545,-0.11595
731,0.0096753,-0.065964,-0.038997,-0.013017,-0.060702,-1.3275,-0.11168
732,0.035985,-0.061689,-0.01499,0.012635,-0.058729,-1.5699,-0.09918
733,0.056046,-0.046232,0.013951,0.042891,-0.062347,-1.7685,-0.079448
734,0.068543,-0.01795,0.049468,0.071831,-0.073528,-1.9066,-0.054125
735,0.074133,0.015924,0.089261,0.097154,-0.093589,-1.9694,-0.030118
736,0.079395,0.041247,0.12609,0.12182,-0.11529,-1.9589,-0.014661
737,0.082355,0.050784,0.15471,0.14385,-0.12779,-1.8968,-0.0077547
738,0.080382,0.041575,0.17411,0.15931,-0.11957,-1.8188,-0.0038083
739,0.069529,0.017897,0.18036,0.16753,-0.085367,-1.754,-0.0024928
740,0.056046,-0.011043,0.17115,0.16918,-0.013674,-1.687,-0.00051963
741,0.046508,-0.037353,0.15142,0.16523,0.10932,-1.5597,0.0001381
742,0.04618,-0.056427,0.12675,0.1626,0.2777,-1.3032,0.0017824
743,0.051113,-0.065635,0.099456,0.16194,0.44838,-0.89931,0.0011247
744,0.052428,-0.064978,0.073476,0.15569,0.55625,-0.407,-0.0031506
745,0.041575,-0.055112,0.049468,0.1353,0.56316,0.059334,-0.0061104
746,0.017239,-0.043601,0.033683,0.10176,0.47732,0.39248,-0.0064392
747,-0.011701,-0.035708,0.030394,0.064596,0.35038,0.5431,-0.0067681
748,-0.037682,-0.032091,0.036642,0.035656,0.24416,0.5283,-0.0067681
749,-0.054125,-0.0265,0.048482,0.024803,0.20305,0.40695,-0.0051238
750,-0.059716,-0.0097279,0.06065,0.033025,0.23955,0.2606,-0.002164
751,-0.056756,0.028092,0.070187,0.054072,0.33624,0.15372,0.00079584
752,-0.046561,0.092221,0.079395,0.078409,0.45134,0.099456,0.0060577
753,-0.031433,0.17279,0.086301,0.099456,0.5454,0.055388,0.010991
754,-0.018278,0.24909,0.091892,0.11491,0.60032,-0.02354,0.018555
755,-0.0054526,0.30401,0.096167,0.12248,0.61742,-0.14489,0.027434
756,0.0080309,0.32605,0.1011,0.11919,0.60624,-0.27841,0.037958
757,0.021186,0.31552,0.10998,0.10866,0.57631,-0.36918,0.054072
758,0.029078,0.27672,0.12281,0.095181,0.53356,-0.35899,0.077751
759,0.02875,0.22443,0.13563,0.077422,0.47634,-0.2327,0.10406
760,0.024145,0.17345,0.14287,0.05769,0.40497,-0.030775,0.11952
761,0.017568,0.12577,0.14024,0.037629,0.32407,0.16983,0.11458
762,0.010333,0.080711,0.1284,0.023817,0.2389,0.30401,0.094852
763,0.0037556,0.035327,0.11261,0.016253,0.15734,0.34282,0.070516
764,0.0011247,-0.011043,0.098141,0.014937,0.086301,0.29447,0.050455
765,0.0057288,-0.057085,0.088275,0.011977,0.023159,0.18891,0.031709
766,0.016581,-0.10378,0.079724,0.0063866,-0.035708,0.070187,0.01132
767,0.026447,-0.15114,0.067885,-0.0038083,-0.097536,-0.03242,-0.013345
768,0.031381,-0.19817,0.050126,-0.021567,-0.16495,-0.10905,-0.045903
769,0.033354,-0.23928,0.027763,-0.045246,-0.23138,-0.16594,-0.084381
770,0.032367,-0.26953,0.0050711,-0.071555,-0.28631,-0.20113,-0.11891
771,0.027434,-0.27808,-0.0077547,-0.096549,-0.32182,-0.18896,-0.14226
772,0.016581,-0.25441,-0.0051238,-0.11135,-0.33827,-0.09326,-0.15114
773,0.0011247,-0.19981,0.013622,-0.11135,-0.34419,0.11853,-0.14818
774,-0.011701,-0.12089,0.042891,-0.10444,-0.34156,0.46647,-0.13634
775,-0.019923,-0.030118,0.072489,-0.095891,-0.32741,0.94695,-0.11858
776,-0.017292,0.052428,0.094523,-0.08471,-0.30571,1.5248,-0.089314
777,-0.0034794,0.11031,0.099127,-0.07024,-0.28598,2.1128,-0.048534
778,0.013293,0.13497,0.074133,-0.056427,-0.27644,2.5903,0.0011247
779,0.019212,0.12971,0.0063866,-0.051165,-0.27512,2.8291,0.050455
780,0.011977,0.10274,-0.10641,-0.055769,-0.27775,2.7534,0.088603
781,-0.0057815,0.058676,-0.2373,-0.06728,-0.27611,2.3867,0.099456
782,-0.030775,-0.0011774,-0.34649,-0.077146,-0.26953,1.8415,0.079395
783,-0.062347,-0.075501,-0.39911,-0.080763,-0.25802,1.2722,0.040918
784,-0.094905,-0.15015,-0.38431,-0.076817,-0.24421,0.81014,0.0067154
785,-0.12154,-0.20376,-0.31788,-0.063662,-0.23402,0.51909,-0.016305
786,-0.13503,-0.21626,-0.22251,-0.047548,-0.22875,0.39182,-0.028473
787,-0.13075,-0.18666,-0.12549,-0.033406,-0.23533,0.36847,-0.029131
788,-0.11168,-0.12648,-0.041628,-0.024856,-0.25408,0.37077,-0.020909
789,-0.078461,-0.05281,0.021843,-0.029131,-0.27808,0.3517,-0.0024928
790,-0.041957,0.013951,0.064596,-0.04393,-0.29782,0.30434,0.02875
791,-0.011043,0.067885,0.090577,-0.054454,-0.31196,0.25041,0.071831
792,0.015266,0.10866,0.10209,-0.05544,-0.31788,0.20206,0.11656
793,0.039931,0.13826,0.10176,-0.046232,-0.31853,0.1501,0.15207
794,0.066569,0.15799,0.088275,-0.028473,-0.3113,0.069858,0.17148
795,0.093208,0.16786,0.06361,-0.0074258,-0.2988,-0.055769,0.17838
796,0.11261,0.17016,0.032367,0.0093464,-0.28302,-0.22678,0.17806
797,0.11656,0.16293,0.00046697,0.01691,-0.27184,-0.42114,0.17246
798,0.10702,0.1478,-0.027816,0.015595,-0.26888,-0.6155,0.1649
799,0.094194,0.12609,-0.047877,0.013293,-0.27052,-0.78618,0.15668
800,0.083999,0.10439,-0.054125,0.015924,-0.26559,-0.90655,0.1455
801,0.083342,0.089919,-0.044588,0.025132,-0.24322,-0.947,0.13793
802,0.090248,0.086301,-0.02354,0.041575,-0.1962,-0.91181,0.13366
803,0.10044,0.095181,0.0037556,0.06065,-0.13141,-0.85689,0.13234
804,0.11294,0.10834,0.034669,0.076106,-0.068924,-0.84604,0.13201
805,0.12412,0.11557,0.063938,0.083013,-0.022225,-0.88879,0.12609
806,0.13267,0.1159,0.089919,0.082355,0.0047422,-0.93582,0.11162
807,0.13267,0.10603,0.10603,0.075778,0.018555,-0.9174,0.086959
808,0.11787,0.089919,0.10899,0.067885,0.026447,-0.7829,0.052757
809,0.090905,0.077751,0.10011,0.059992,0.035656,-0.54085,0.015924
810,0.06065,0.077751,0.083342,0.054401,0.053086,-0.24454,-0.01795
811,0.034669,0.089919,0.063281,0.051113,0.084986,0.036314,-0.04097
812,0.01132,0.11524,0.041575,0.054401,0.12544,0.25139,-0.04689
813,-0.010057,0.14977,0.017897,0.062623,0.16293,0.38097,-0.037353
814,-0.025842,0.18693,-0.0087413,0.069858,0.18858,0.41977,-0.025185
815,-0.031762,0.21982,-0.038339,0.066898,0.20042,0.37011,-0.019594
816,-0.032091,0.23758,-0.067937,0.045193,0.19943,0.24909,-0.026829
817,-0.027816,0.23298,-0.093589,0.0070443,0.18726,0.082684,-0.042286
818,-0.020909,0.20963,-0.11332,-0.04097,0.17115,-0.10148,-0.056756
819,-0.010057,0.17345,-0.12746,-0.091287,0.15997,-0.27151,-0.066622
820,0.0050711,0.13366,-0.12779,-0.13404,0.15602,-0.39154,-0.066293
821,0.024145,0.098141,-0.11398,-0.16397,0.15734,-0.42772,-0.057414
822,0.045851,0.073147,-0.087998,-0.1837,0.15931,-0.35899,-0.043601
823,0.067885,0.061307,-0.050179,-0.19751,0.15339,-0.17712,-0.029131
824,0.086959,0.061307,-0.011372,-0.20047,0.13464,0.10932,-0.014003
825,0.099127,0.064925,0.01691,-0.1689,0.10077,0.46154,0.002769
826,0.10077,0.064267,0.021514,-0.07879,0.050784,0.81902,0.020528
827,0.090577,0.052099,0.0060577,0.064596,-0.0087413,1.1097,0.035656
828,0.071173,0.031381,-0.020581,0.22706,-0.07287,1.2666,0.04881
829,0.046837,0.002769,-0.049192,0.36255,-0.12746,1.2278,0.059992
830,0.022501,-0.028473,-0.070897,0.4372,-0.16561,0.96701,0.058676
831,0.0014536,-0.051165,-0.077475,0.44279,-0.18403,0.53027,0.040589
832,-0.014661,-0.057743,-0.063662,0.39248,-0.18107,0.029078,0.0060577
833,-0.024198,-0.044588,-0.035708,0.30993,-0.16134,-0.40601,-0.029789
834,-0.021567,-0.018607,0.00079584,0.22278,-0.13174,-0.68785,-0.057414
835,-0.010386,0.0086887,0.038616,0.15043,-0.1051,-0.80329,-0.079119
836,0.00079584,0.029078,0.065912,0.096167,-0.089314,-0.80329,-0.097207
837,0.0034268,0.033683,0.074133,0.059992,-0.084052,-0.76941,-0.11168
838,-0.007097,0.024145,0.06624,0.034669,-0.083394,-0.76941,-0.12056
839,-0.030118,0.0014536,0.046837,0.01132,-0.087669,-0.83946,-0.12549
840,-0.059716,-0.03242,0.023817,-0.013674,-0.092931,-0.98022,-0.12812
841,-0.082736,-0.07024,0.0014536,-0.039326,-0.094576,-1.1627,-0.12779
842,-0.093589,-0.1005,-0.022554,-0.061689,-0.088656,-1.3476,-0.12352
843,-0.091287,-0.11398,-0.047877,-0.076159,-0.069253,-1.4969,-0.11431
844,-0.08175,-0.11168,-0.075173,-0.086683,-0.033735,-1.5742,-0.097207
845,-0.068266,-0.098522,-0.10214,-0.096549,0.0096753,-1.5524,-0.074515
846,-0.055112,-0.078132,-0.12516,-0.10477,0.052428,-1.4275,-0.050507
847,-0.044588,-0.058071,-0.13634,-0.10411,0.088275,-1.2183,-0.027487
848,-0.040313,-0.046561,-0.13338,-0.10017,0.11228,-0.95062,-0.010386
849,-0.044259,-0.049192,-0.11727,-0.09918,0.12248,-0.6428,-0.0034794
850,-0.057085,-0.063662,-0.095233,-0.10313,0.12642,-0.31623,-0.0018351
851,-0.074844,-0.093589,-0.073857,-0.1074,0.13399,0.014279,0.00046697
852,-0.0903,-0.13141,-0.057743,-0.10641,0.15306,0.32868,0.0077021
853,-0.099509,-0.16627,-0.044588,-0.097207,0.18332,0.60493,0.020528
854,-0.097864,-0.18173,-0.031762,-0.079119,0.22212,0.82264,0.033025
855,-0.081421,-0.16726,-0.014661,-0.051494,0.26685,0.97128,0.040589
856,-0.04985,-0.12483,0.0063866,-0.016634,0.31125,1.0397,0.04618
857,-0.012688,-0.06728,0.027105,0.014937,0.34512,1.0213,0.051113
858,0.016581,-0.013017,0.044535,0.030394,0.35104,0.92426,0.053415
859,0.028092,0.024474,0.05769,0.025132,0.32111,0.77232,0.049139
860,0.025132,0.045522,0.067885,0.0047422,0.25501,0.60821,0.033025
861,0.019541,0.056703,0.074133,-0.019265,0.16819,0.48259,0.0034268
862,0.016581,0.06624,0.07216,-0.036695,0.082684,0.43095,-0.036037
863,0.010991,0.075449,0.055059,-0.048205,0.015924,0.45233,-0.079119
864,-0.0015062,0.076764,0.015266,-0.065635,-0.033406,0.51613,-0.11924
865,-0.022225,0.06065,-0.046232,-0.10346,-0.08471,0.57335,-0.15673
866,-0.049192,0.027105,-0.12713,-0.16791,-0.14884,0.58552,-0.18436
867,-0.073857,-0.016305,-0.21428,-0.23994,-0.21889,0.52929,-0.19652
868,-0.091287,-0.062676,-0.28861,-0.29584,-0.27775,0.39215,-0.19422
869,-0.10346,-0.10674,-0.33432,-0.3113,-0.30867,0.17444,-0.18008
870,-0.11595,-0.14588,-0.34024,-0.28006,-0.30735,-0.1245,-0.16068
871,-0.1347,-0.18271,-0.30965,-0.21823,-0.28236,-0.49842,-0.14325
872,-0.15936,-0.2202,-0.25473,-0.14983,-0.24881,-0.8878,-0.12812
873,-0.18403,-0.26197,-0.18995,-0.096878,-0.2133,-1.1795,-0.11168
874,-0.2008,-0.30045,-0.12878,-0.066951,-0.17679,-1.2509,-0.088985
875,-0.20639,-0.32413,-0.07879,-0.054454,-0.1347,-1.0138,-0.058071
876,-0.19291,-0.3261,-0.037353,-0.050836,-0.086683,-0.46126,-0.016634
877,-0.1666,-0.30406,-0.0024928,-0.043601,-0.038997,0.24646,0.02875
878,-0.1324,-0.26427,0.023488,-0.027158,0.0034268,0.77067,0.0692
879,-0.1005,-0.21593,0.030394,-0.0051238,0.034998,0.78153,0.1011
880,-0.070897,-0.16627,0.0073732,0.014279,0.05769,0.20206,0.12642
881,-0.045246,-0.11924,-0.026171,0.026447,0.079395,-0.70857,0.14616
882,-0.021567,-0.076159,-0.035708,0.04026,0.1057,-1.4979,0.15931
883,0.0017824,-0.040313,0.024474,0.063938,0.14418,-1.8363,0.17246
884,0.027105,-0.0097279,0.19713,0.09551,0.19055,-1.6422,0.19253
885,0.054401,0.023159,0.49048,0.13366,0.23659,-1.068,0.22278
886,0.085315,0.059005,0.86572,0.17279,0.27277,-0.39944,0.25698
887,0.11853,0.098469,1.2229,0.21127,0.28987,0.11064,0.28362
888,0.1524,0.14254,1.4231,0.24613,0.28198,0.34808,0.29743
889,0.18299,0.19022,1.3781,0.27178,0.25205,0.36321,0.29875
890,0.20765,0.23659,1.1094,0.28888,0.2093,0.28527,0.28559
891,0.22443,0.2731,0.72825,0.2925,0.16556,0.23725,0.26027
892,0.23396,0.29447,0.36485,0.28165,0.12511,0.26521,0.231
893,0.23594,0.29612,0.10636,0.25304,0.086301,0.3494,0.20469
894,0.22969,0.28165,-0.028144,0.20831,0.049468,0.43359,0.182
895,0.21818,0.25633,-0.070568,0.14648,0.017239,0.47206,0.16227
896,0.19845,0.22377,-0.070897,0.075449,-0.0074258,0.44148,0.14714
897,0.16983,0.18332,-0.069253,0.0034268,-0.021238,0.36156,0.13399
898,0.13464,0.14089,-0.083723,-0.060702,-0.023869,0.27014,0.11787
899,0.095181,0.1034,-0.11562,-0.11069,-0.019923,0.207,0.094523
900,0.055388,0.070187,-0.15706,-0.14029,-0.016634,0.1991,0.062294
901,0.021186,0.036314,-0.20146,-0.15147,-0.014661,0.24942,0.029407
902,-0.0034794,-0.0011774,-0.24421,-0.15048,-0.0080836,0.35203,0.0037556
903,-0.01795,-0.040313,-0.28433,-0.14818,0.010004,0.4987,-0.012359
904,-0.024527,-0.078132,-0.31755,-0.15114,0.038287,0.68024,-0.015319
905,-0.025185,-0.11135,-0.34057,-0.15509,0.066898,0.8598,-0.0038083
906,-0.022554,-0.13108,-0.35307,-0.14687,0.084657,0.97622,0.015595
907,-0.016963,-0.13108,-0.35109,-0.11661,0.082684,0.96931,0.030065
908,-0.013674,-0.11003,-0.33399,-0.054125,0.050455,0.81145,0.030723
909,-0.021238,-0.074844,-0.30406,0.042233,-0.010386,0.52402,0.013951
910,-0.038339,-0.034722,-0.26953,0.15701,-0.079448,0.17312,-0.011701
911,-0.054454,0.00079584,-0.23204,0.25896,-0.13733,-0.16035,-0.036366
912,-0.061689,0.029078,-0.19554,0.3198,-0.16923,-0.41522,-0.057743
913,-0.056427,0.049797,-0.16462,0.32572,-0.17219,-0.55466,-0.076488
914,-0.043601,0.062294,-0.14062,0.28231,-0.1564,-0.58196,-0.094576
915,-0.028144,0.070187,-0.1245,0.2093,-0.13536,-0.52506,-0.1097
916,-0.01499,0.071173,-0.11924,0.12741,-0.11858,-0.42706,-0.12121
917,-0.0074258,0.065583,-0.12483,0.052428,-0.10543,-0.32149,-0.12845
918,-0.004466,0.05473,-0.1347,-0.013674,-0.091945,-0.22777,-0.13404
919,-0.0057815,0.042233,-0.14226,-0.077475,-0.071884,-0.14818,-0.1416
920,-0.011372,0.029078,-0.14259,-0.13832,-0.045903,-0.077146,-0.15213
921,-0.017621,0.019212,-0.13009,-0.18863,-0.013017,0.0037556,-0.16693
922,-0.022883,0.015924,-0.10806,-0.21626,0.01987,0.10932,-0.18304
923,-0.027487,0.018226,-0.082736,-0.2179,0.04322,0.24843,-0.19258
924,-0.034722,0.02579,-0.059058,-0.1985,0.053086,0.42339,-0.18797
925,-0.041299,0.036971,-0.036037,-0.16857,0.053086,0.62236,-0.17318
926,-0.045246,0.050455,-0.019265,-0.1347,0.042562,0.81211,-0.16035
927,-0.044588,0.064925,-0.007097,-0.094576,0.013293,0.9476,-0.15443
928,-0.039984,0.07512,-0.0038083,-0.028144,-0.048205,0.99266,-0.15476
929,-0.030775,0.080053,-0.007097,0.068871,-0.15048,0.93807,-0.15739
930,-0.021567,0.083342,-0.014661,0.16654,-0.2794,0.79961,-0.16199
931,-0.013674,0.086959,-0.023211,0.22443,-0.40075,0.59572,-0.16824
932,-0.0057815,0.096496,-0.02946,0.23133,-0.4833,0.34742,-0.16627
933,0.0021113,0.11294,-0.032749,0.19943,-0.51191,0.072489,-0.15575
934,0.0093464,0.13004,-0.036695,0.15109,-0.48757,-0.21889,-0.13733
935,0.020857,0.14385,-0.043601,0.099785,-0.42081,-0.51816,-0.11299
936,0.035985,0.15273,-0.04985,0.052099,-0.33268,-0.79441,-0.086683
937,0.051113,0.1524,-0.05544,0.010004,-0.24454,-0.99469,-0.058729
938,0.059005,0.14056,-0.057743,-0.023869,-0.17285,-1.0832,-0.034064
939,0.054072,0.11886,-0.05544,-0.051165,-0.11891,-1.0861,-0.013674
940,0.036971,0.092879,-0.05281,-0.071555,-0.077803,-1.0759,-0.0028217
941,0.014937,0.065583,-0.051823,-0.083723,-0.044917,-1.1187,-0.0038083
942,-0.0051238,0.038287,-0.055769,-0.085696,-0.011043,-1.2193,-0.013017
943,-0.015648,0.013293,-0.060045,-0.074515,0.0373,-1.314,-0.019923
944,-0.013017,-0.0057815,-0.059058,-0.05281,0.10669,-1.3361,-0.016963
945,0.0034268,-0.011701,-0.051165,-0.025842,0.18957,-1.2565,-0.0054526
946,0.025461,-0.0074258,-0.036366,-0.0038083,0.26948,-1.0772,0.011977
947,0.043549,0.0024402,-0.019594,0.0086887,0.32703,-0.82631,0.030723
948,0.056374,0.0093464,-0.0067681,0.015595,0.34874,-0.55663,0.04618
949,0.064267,0.0067154,0.0034268,0.02283,0.33131,-0.32774,0.061636
950,0.067556,-0.010057,0.016253,0.032367,0.28757,-0.18962,0.077422
951,0.064925,-0.041628,0.032367,0.042891,0.23791,-0.16528,0.092221
952,0.056046,-0.081421,0.050784,0.051113,0.19779,-0.24224,0.10801
953,0.038616,-0.12187,0.062952,0.052428,0.16885,-0.37707,0.12741
954,0.014279,-0.15673,0.066898,0.04618,0.14747,-0.51388,0.1478
955,-0.011372,-0.1814,0.06361,0.033025,0.12248,-0.60103,0.16194
956,-0.037353,-0.19422,0.055717,0.017897,0.093536,-0.59182,0.17082
957,-0.058071,-0.19126,0.044864,0.0017824,0.070516,-0.44548,0.17246
958,-0.068924,-0.17383,0.028421,-0.014661,0.062952,-0.14226,0.16885
959,-0.064978,-0.14391,0.0090175,-0.030775,0.073147,0.31092,0.16654
960,-0.048863,-0.10707,-0.013345,-0.038011,0.10274,0.88709,0.1695
961,-0.027158,-0.074515,-0.031433,-0.035708,0.14352,1.5524,0.17181
962,-0.0051238,-0.051494,-0.039326,-0.021896,0.18102,2.244,0.16654
963,0.010662,-0.038668,-0.038011,-0.0011774,0.20535,2.861,0.15734
964,0.017897,-0.031104,-0.033078,0.020199,0.2139,3.2766,0.14681
965,0.018226,-0.020581,-0.028473,0.036314,0.20371,3.3756,0.13958
966,0.018884,-0.0015062,-0.020909,0.045193,0.17641,3.1076,0.13234
967,0.020199,0.024474,-0.007097,0.053086,0.13366,2.5239,0.11557
968,0.020528,0.053415,0.010991,0.062294,0.077751,1.7576,0.085644
969,0.019541,0.075449,0.029407,0.061636,0.015924,0.96208,0.044864
970,0.017568,0.077093,0.04026,0.046837,-0.044259,0.24909,-0.0024928
971,0.018555,0.054401,0.037629,0.024803,-0.094905,-0.34221,-0.047548
972,0.021514,0.013951,0.023817,0.0037556,-0.13832,-0.84834,-0.08471
973,0.02283,-0.027158,0.0054,-0.010715,-0.17548,-1.3189,-0.11398
974,0.024145,-0.05544,-0.010386,-0.022554,-0.20244,-1.7508,-0.13338
975,0.023159,-0.06728,-0.016305,-0.035051,-0.21691,-2.0846,-0.14127
976,0.020857,-0.063004,-0.01499,-0.04689,-0.22382,-2.2457,-0.14029
977,0.013293,-0.04985,-0.0064392,-0.054454,-0.22744,-2.2069,-0.13568
978,-0.0057815,-0.032749,0.0060577,-0.060702,-0.23171,-2.0,-0.13272
979,-0.03538,-0.019265,0.018884,-0.069253,-0.23073,-1.6925,-0.13141
980,-0.062018,-0.0093991,0.032367,-0.078461,-0.22283,-1.3755,-0.12845
981,-0.074186,0.0017824,0.042233,-0.085696,-0.21001,-1.1338,-0.11793
982,-0.070897,0.013293,0.047495,-0.088327,-0.19685,-1.0009,-0.094247
983,-0.058071,0.02579,0.046508,-0.082736,-0.18271,-0.96213,-0.063333
984,-0.043601,0.040589,0.038616,-0.073199,-0.17219,-0.98383,-0.034064
985,-0.035708,0.055059,0.024145,-0.063662,-0.17087,-1.0309,-0.013674
986,-0.038997,0.067556,0.0086887,-0.059387,-0.17219,-1.0578,-0.007097
987,-0.048534,0.076764,-0.0028217,-0.056427,-0.16726,-1.0299,-0.011701
988,-0.056098,0.080711,-0.0031506,-0.049192,-0.14719,-0.91806,-0.01499
989,-0.055112,0.079395,0.01132,-0.036695,-0.10872,-0.68621,-0.0051238
990,-0.041957,0.072489,0.038944,-0.019265,-0.054454,-0.30012,0.02579
991,-0.019265,0.059005,0.070845,-0.0041372,0.010662,0.26257,0.074791
992,0.0063866,0.038616,0.1057,0.0070443,0.081039,0.98674,0.13728
993,0.02579,0.015924,0.13958,0.015924,0.15142,1.8293,0.20502
994,0.035327,-0.0054526,0.1672,0.026776,0.22081,2.7317,0.27441
995,0.0373,-0.027158,0.1797,0.042562,0.29119,3.616,0.34775
996,0.038287,-0.051165,0.17575,0.061636,0.36321,4.3958,0.42701
997,0.040589,-0.078132,0.15964,0.085315,0.43326,4.9453,0.50955
998,0.045522,-0.094247,0.13826,0.1113,0.48555,4.9601,0.57862
999,0.052099,-0.085039,0.11787,0.13333,0.49541,4.7483,0.6092
1000,0.06065,-0.050507,0.1011,0.14484,0.4497,3.9051,0.58289
1001,0.069858,-0.0074258,0.086959,0.14188,0.35729,2.7662,0.49607
1002,0.076764,0.025132,0.067227,0.12807,0.24383,1.6142,0.36715
1003,0.079066,0.033025,0.036642,0.10866,0.14155,0.68484,0.22541
1004,0.074133,0.015266,-0.0041372,0.089261,0.068543,0.074133,0.10143
1005,0.06624,-0.019594,-0.049192,0.077422,0.029736,-0.26427,0.018884
1006,0.058348,-0.056756,-0.091287,0.075449,0.012635,-0.44186,-0.018278
1007,0.050126,-0.080106,-0.12713,0.076435,0.0073732,-0.55663,-0.023869
1008,0.038616,-0.08471,-0.15081,0.072818,0.00079584,-0.66319,-0.022225
1009,0.026776,-0.073528,-0.16199,0.058348,-0.014003,-0.76974,-0.02946
1010,0.01691,-0.0584,-0.16265,0.036314,-0.040313,-0.83025,-0.042286
1011,0.0073732,-0.052152,-0.16002,0.010004,-0.072542,-0.78224,-0.054454
1012,-0.0034794,-0.063333,-0.15838,-0.015648,-0.097864,-0.58886,-0.064649
1013,-0.017292,-0.082736,-0.16134,-0.041628,-0.10444,-0.29617,-0.073528
1014,-0.033078,-0.10082,-0.16989,-0.063991,-0.088327,-0.013674,-0.076817
1015,-0.045903,-0.1097,-0.18107,-0.078132,-0.055112,0.15273,-0.070568
1016,-0.048205,-0.10674,-0.18732,-0.082408,-0.019923,0.15701,-0.054454
1017,-0.041299,-0.09622,-0.18238,-0.073199,-0.00051963,0.01691,-0.03538
1018,-0.034064,-0.086025,-0.16528,-0.055112,-0.0047949,-0.21231,-0.025842
1019,-0.026171,-0.079119,-0.13864,-0.036366,-0.028144,-0.4583,-0.027487
1020,-0.022883,-0.070897,-0.10773,-0.019923,-0.055112,-0.66648,-0.041628
1021,-0.025185,-0.059058,-0.07879,-0.010715,-0.073199,-0.81282,-0.065635
1022,-0.033406,-0.042615,-0.057414,-0.013017,-0.076159,-0.90063,-0.096549
1023,-0.04689,-0.018278,-0.041299,-0.0265,-0.067609,-0.9493,-0.12944
1024,-0.059058,0.0090175,-0.0265,-0.043601,-0.059716,-0.98515,-0.16068
1025,-0.070568,0.039602,-0.013017,-0.059387,-0.059716,-1.023,-0.18567
1026,-0.077803,0.072818,-0.0015062,-0.072213,-0.067937,-1.0621,-0.20113
1027,-0.076817,0.1057,0.0057288,-0.079119,-0.073199,-1.0924,-0.20573
1028,-0.06728,0.13662,0.010004,-0.079119,-0.066622,-1.1035,-0.19981
1029,-0.048205,0.16457,0.011977,-0.069253,-0.045574,-1.0897,-0.18929
1030,-0.0265,0.18167,0.011977,-0.051165,-0.010386,-1.0496,-0.17581
1031,-0.0047949,0.18167,0.017897,-0.0265,0.033683,-0.99173,-0.16166
1032,0.013293,0.16326,0.030723,0.0034268,0.078737,-0.92694,-0.1518
1033,0.024145,0.13695,0.047824,0.033683,0.11689,-0.8707,-0.15377
1034,0.026447,0.11393,0.063281,0.056703,0.13958,-0.83519,-0.16561
1035,0.021514,0.10439,0.075778,0.068214,0.13892,-0.82072,-0.17942
1036,0.012306,0.10505,0.080053,0.070516,0.11327,-0.8171,-0.18962
1037,0.002769,0.1113,0.080711,0.068543,0.069858,-0.81118,-0.18929
1038,-0.0015062,0.11656,0.081368,0.065254,0.01987,-0.79276,-0.17679
1039,-0.00051963,0.11985,0.082684,0.061965,-0.028144,-0.75198,-0.15969
1040,0.0034268,0.11787,0.084328,0.061636,-0.06728,-0.67766,-0.14687
1041,0.0096753,0.11195,0.08663,0.065254,-0.09326,-0.57275,-0.15015
1042,0.021514,0.10176,0.089919,0.070516,-0.10247,-0.45238,-0.17679
1043,0.031381,0.091234,0.092221,0.07216,-0.10214,-0.33761,-0.21987
1044,0.035985,0.081697,0.091892,0.067227,-0.098522,-0.24914,-0.26328
1045,0.034669,0.077751,0.093536,0.054401,-0.10346,-0.19389,-0.29518
1046,0.030065,0.080382,0.097812,0.036642,-0.1245,-0.16857,-0.30637
1047,0.021514,0.084986,0.10406,0.02579,-0.14818,-0.16068,-0.29223
1048,0.012635,0.087288,0.11261,0.028092,-0.16331,-0.16364,-0.25967
1049,0.0057288,0.08367,0.11919,0.037629,-0.16232,-0.17383,-0.22053
1050,0.0014536,0.065254,0.12313,0.047495,-0.14522,-0.19192,-0.18173
1051,-0.0011774,0.030065,0.12379,0.055717,-0.11497,-0.22349,-0.14522
1052,-0.0057815,-0.01499,0.12083,0.059992,-0.082079,-0.27841,-0.11135
1053,-0.0093991,-0.062676,0.11721,0.059992,-0.058729,-0.36721,-0.081421
1054,-0.011701,-0.10115,0.11393,0.056046,-0.04985,-0.49547,-0.056756
1055,-0.013674,-0.1245,0.10702,0.046508,-0.057414,-0.66319,-0.033078
1056,-0.019923,-0.12944,0.091563,0.031052,-0.077803,-0.87991,-0.0084125
1057,-0.031433,-0.12187,0.073476,0.010991,-0.10806,-1.1575,0.015266
1058,-0.043272,-0.10674,0.064267,-0.0097279,-0.14226,-1.4926,0.036642
1059,-0.048534,-0.086354,0.070516,-0.025514,-0.17186,-1.8313,0.055388
1060,-0.049521,-0.060702,0.088603,-0.032091,-0.1883,-2.0589,0.076435
1061,-0.04689,-0.033735,0.10834,-0.028473,-0.19126,-2.0168,0.099785
1062,-0.042615,-0.0077547,0.11754,-0.017292,-0.18633,-1.5883,0.12412
1063,-0.039984,0.011648,0.1057,-0.0047949,-0.18074,-0.84275,0.14583
1064,-0.041299,0.023488,0.068214,0.0021113,-0.18008,-0.037353,0.16194
1065,-0.048205,0.02579,0.010004,-0.0061104,-0.18699,0.54672,0.16687
1066,-0.057743,0.022172,-0.054125,-0.030118,-0.19817,0.80126,0.16326
1067,-0.068266,0.012635,-0.11003,-0.062347,-0.20738,0.79994,0.15471
1068,-0.07287,0.0014536,-0.14391,-0.090958,-0.21034,0.70359,0.1478
1069,-0.074186,-0.0061104,-0.15279,-0.10181,-0.20606,0.64998,0.14451
1070,-0.068266,-0.0064392,-0.14292,-0.091287,-0.18995,0.69175,0.14648
1071,-0.055112,0.00046697,-0.12713,-0.063662,-0.15936,0.80849,0.15536
1072,-0.033078,0.017568,-0.11201,-0.027158,-0.11168,0.943,0.16786
1073,-0.007097,0.041247,-0.092274,0.0073732,-0.046232,1.0453,0.17674
1074,0.018884,0.066569,-0.061689,0.038944,0.036314,1.0963,0.18036
1075,0.038287,0.088603,-0.014332,0.064925,0.13201,1.0966,0.17871
1076,0.045851,0.10373,0.041575,0.083342,0.22377,1.0555,0.17214
1077,0.047824,0.10801,0.092879,0.094523,0.30072,0.97885,0.16063
1078,0.047824,0.10011,0.12313,0.099127,0.34841,0.86605,0.14385
1079,0.047166,0.084986,0.12971,0.096825,0.36123,0.71115,0.12116
1080,0.048482,0.071831,0.12017,0.085972,0.33723,0.51679,0.09255
1081,0.053743,0.065254,0.10768,0.0692,0.27968,0.29415,0.059663
1082,0.064596,0.061636,0.10439,0.054401,0.20897,0.045851,0.027763
1083,0.082026,0.058348,0.11557,0.043549,0.14024,-0.23073,0.00079584
1084,0.099127,0.052757,0.12609,0.036314,0.086959,-0.54151,-0.01795
1085,0.10834,0.04026,0.1205,0.031709,0.052757,-0.87991,-0.025185
1086,0.10965,0.024474,0.091563,0.028092,0.038287,-1.2121,-0.017621
1087,0.1034,0.010004,0.048153,0.024803,0.04618,-1.4508,0.0083598
1088,0.093536,0.0014536,0.00046697,0.021186,0.074133,-1.4761,0.047495
1089,0.083999,0.0030979,-0.039326,0.013951,0.11458,-1.2213,0.09255
1090,0.080382,0.014937,-0.062676,0.0057288,0.15569,-0.72567,0.1353
1091,0.080711,0.036314,-0.067609,-0.00051963,0.18299,-0.11398,0.17444
1092,0.083013,0.06624,-0.060373,0.00079584,0.18693,0.47469,0.20831
1093,0.083342,0.10735,-0.051165,0.010004,0.16654,0.94629,0.23495
1094,0.077751,0.16227,-0.049192,0.018555,0.1307,1.2732,0.25435
1095,0.060321,0.22508,-0.057085,0.018226,0.094194,1.4692,0.25961
1096,0.030723,0.2777,-0.070897,0.0050711,0.062623,1.5557,0.24547
1097,-0.0051238,0.30007,-0.083065,-0.017621,0.034998,1.5501,0.2116
1098,-0.041299,0.28231,-0.085039,-0.042615,0.0050711,1.4695,0.16983
1099,-0.073857,0.2264,-0.07583,-0.065635,-0.026829,1.3396,0.13464
1100,-0.10148,0.14056,-0.056756,-0.079119,-0.061031,1.191,0.10965
1101,-0.12352,0.038616,-0.036037,-0.080106,-0.088985,1.042,0.091892
1102,-0.1393,-0.061031,-0.01795,-0.064978,-0.1051,0.88446,0.079395
1103,-0.14588,-0.14095,-0.0051238,-0.038339,-0.11168,0.70424,0.073147
1104,-0.13864,-0.19291,0.0044134,-0.0067681,-0.11464,0.49541,0.069529
1105,-0.11858,-0.21264,0.0096753,0.018226,-0.1199,0.26356,0.063938
1106,-0.090958,-0.20573,0.0067154,0.029736,-0.1347,0.023817,0.047495
1107,-0.062676,-0.19093,-0.0074258,0.023817,-0.15706,-0.19258,0.016253
1108,-0.041299,-0.18699,-0.036366,0.0047422,-0.186,-0.35471,-0.028802
1109,-0.033735,-0.20738,-0.07879,-0.018936,-0.22119,-0.45633,-0.07879
1110,-0.04097,-0.25112,-0.12549,-0.044259,-0.25967,-0.5152,-0.12023
1111,-0.051494,-0.30867,-0.16495,-0.069911,-0.2919,-0.54776,-0.14851
1112,-0.059058,-0.37181,-0.18567,-0.094247,-0.31229,-0.56124,-0.16528
1113,-0.062347,-0.43166,-0.18732,-0.11168,-0.31853,-0.55236,-0.17844
1114,-0.064649,-0.47409,-0.17548,-0.1245,-0.31261,-0.50434,-0.18929
1115,-0.06432,-0.48823,-0.15673,-0.1347,-0.29518,-0.40272,-0.19422
1116,-0.063333,-0.46587,-0.14292,-0.14522,-0.27085,-0.23763,-0.19126
1117,-0.060373,-0.40568,-0.1393,-0.14983,-0.24125,-0.027816,-0.17679
1118,-0.056427,-0.31623,-0.14259,-0.14325,-0.20409,0.18102,-0.15509
1119,-0.049521,-0.22185,-0.14423,-0.1245,-0.15805,0.33394,-0.13009
1120,-0.036366,-0.14851,-0.1416,-0.096549,-0.10674,0.38721,-0.1051
1121,-0.015648,-0.11036,-0.13272,-0.06728,-0.056427,0.3392,-0.080434
1122,0.010333,-0.10346,-0.12023,-0.04393,-0.013017,0.22574,-0.056427
1123,0.036642,-0.11168,-0.10346,-0.028144,0.018884,0.11327,-0.035708
1124,0.057361,-0.11529,-0.087341,-0.016634,0.0373,0.070845,-0.022554
1125,0.069529,-0.1028,-0.069253,-0.0034794,0.049139,0.16063,-0.013674
1126,0.073804,-0.073857,-0.047548,0.014279,0.065912,0.42503,-0.0067681
1127,0.076764,-0.034722,-0.022225,0.035656,0.10176,0.87131,0.0017824
1128,0.080053,0.0047422,0.0054,0.057032,0.15734,1.4402,0.017568
1129,0.082684,0.038616,0.028421,0.074791,0.21982,2.0033,0.04026
1130,0.083999,0.062294,0.046508,0.088603,0.26882,2.3825,0.067227
1131,0.085972,0.076106,0.058019,0.1011,0.29151,2.4469,0.088275
1132,0.093536,0.082355,0.060321,0.11393,0.28757,2.1736,0.097812
1133,0.10636,0.08959,0.048153,0.12544,0.2731,1.655,0.094523
1134,0.11557,0.10176,0.026776,0.13333,0.26685,1.0456,0.08367
1135,0.11754,0.12182,0.0017824,0.13793,0.27672,0.4941,0.069858
1136,0.11557,0.14944,-0.013674,0.14287,0.29645,0.088275,0.051441
1137,0.11426,0.182,-0.013674,0.14846,0.31125,-0.16495,0.030394
1138,0.11754,0.21094,0.0034268,0.15405,0.31421,-0.3136,0.012635
1139,0.12346,0.2287,0.034998,0.15536,0.30894,-0.41687,0.0017824
1140,0.13037,0.23002,0.067885,0.14912,0.29711,-0.52046,-0.0024928
1141,0.13333,0.21818,0.086301,0.12774,0.27902,-0.63655,-0.0077547
1142,0.12741,0.19746,0.07808,0.094852,0.25041,-0.75691,-0.021896
1143,0.11097,0.17575,0.047166,0.056703,0.20732,-0.873,-0.040313
1144,0.088932,0.15898,0.0067154,0.02283,0.15569,-0.9743,-0.0584
1145,0.063938,0.14681,-0.03242,0.00079584,0.10143,-1.0588,-0.072542
1146,0.038616,0.13925,-0.062676,-0.011372,0.051113,-1.1266,-0.083723
1147,0.01691,0.13333,-0.081421,-0.020252,0.0083598,-1.1798,-0.088656
1148,-0.00019077,0.12609,-0.090958,-0.023869,-0.022883,-1.2223,-0.082736
1149,-0.0090702,0.11754,-0.095233,-0.023211,-0.047548,-1.2548,-0.067937
1150,-0.012359,0.10702,-0.094576,-0.022883,-0.070897,-1.2755,-0.04985
1151,-0.011043,0.098798,-0.086354,-0.026171,-0.096878,-1.2726,-0.036695
1152,-0.010057,0.093208,-0.071226,-0.03538,-0.1245,-1.2298,-0.031762
1153,-0.01499,0.088275,-0.056427,-0.04689,-0.14752,-1.1338,-0.031433
1154,-0.027158,0.082026,-0.045903,-0.054454,-0.15772,-0.9766,-0.030775
1155,-0.046232,0.073804,-0.039326,-0.054125,-0.15147,-0.76316,-0.027816
1156,-0.06432,0.059005,-0.030447,-0.045246,-0.13404,-0.51421,-0.019594
1157,-0.071555,0.040918,-0.013017,-0.032091,-0.11266,-0.27381,-0.010715
1158,-0.062018,0.024145,0.014279,-0.019923,-0.098851,-0.083065,-0.0028217
1159,-0.036695,0.018226,0.045522,-0.014003,-0.10214,0.03434,0.0017824
1160,-0.007097,0.02283,0.070187,-0.012688,-0.11957,0.081039,-0.0031506
1161,0.013951,0.031052,0.081368,-0.016634,-0.14193,0.081368,-0.020909
1162,0.01691,0.0373,0.079066,-0.025842,-0.15838,0.079066,-0.044259
1163,0.0021113,0.039602,0.066898,-0.039326,-0.15607,0.13037,-0.065307
1164,-0.020252,0.037629,0.052428,-0.053796,-0.13042,0.28855,-0.07879
1165,-0.041628,0.032367,0.036642,-0.062676,-0.082079,0.58289,-0.080434
1166,-0.056098,0.028092,0.021186,-0.059716,-0.015319,1.0058,-0.067609
1167,-0.061689,0.027434,0.0080309,-0.044588,0.06065,1.4935,-0.041628
1168,-0.065635,0.026119,0.0030979,-0.019594,0.13103,1.9332,-0.0080836
1169,-0.07024,0.024474,0.012635,0.0063866,0.1843,2.1924,0.023817
1170,-0.069253,0.020199,0.040918,0.029078,0.21193,2.1634,0.049797
1171,-0.059716,0.015924,0.083013,0.049139,0.21555,1.8119,0.069858
1172,-0.04393,0.017568,0.12971,0.065583,0.19779,1.1844,0.087288
1173,-0.028144,0.029078,0.16457,0.078737,0.16227,0.38195,0.10472
1174,-0.014661,0.047824,0.17378,0.088275,0.11097,-0.46521,0.1182
1175,-0.0041372,0.071502,0.16227,0.095839,0.053415,-1.2374,0.12346
1176,-0.00051963,0.092221,0.14089,0.097812,-0.00019077,-1.8527,0.12511
1177,-0.0008485,0.10439,0.12577,0.097154,-0.030775,-2.2529,0.13234
1178,-0.002164,0.11031,0.11853,0.098141,-0.026171,-2.3894,0.14977
1179,-0.0054526,0.11097,0.1182,0.10077,0.010991,-2.2612,0.17904
1180,-0.010386,0.10472,0.11952,0.1034,0.064596,-1.9385,0.2139
1181,-0.01499,0.089261,0.11458,0.10242,0.11656,-1.5324,0.24712
1182,-0.016963,0.064596,0.10274,0.095181,0.14418,-1.1302,0.26849
1183,-0.020581,0.035656,0.082026,0.082355,0.14024,-0.77073,0.27343
1184,-0.027816,0.012306,0.057361,0.066898,0.10834,-0.4537,0.256
1185,-0.030447,-0.0041372,0.031709,0.050126,0.063938,-0.16561,0.22508
1186,-0.024856,-0.013017,0.0034268,0.041904,0.027434,0.072489,0.19549
1187,-0.016305,-0.016634,-0.024527,0.04618,0.013622,0.22739,0.1774
1188,-0.010386,-0.019923,-0.050179,0.06361,0.023159,0.28231,0.17214
1189,-0.0084125,-0.024856,-0.07024,0.085644,0.04881,0.25468,0.17115
1190,-0.007097,-0.026829,-0.082408,0.099127,0.073147,0.19022,0.16753
1191,-0.0064392,-0.017292,-0.087341,0.095181,0.080711,0.13596,0.15207
1192,-0.002164,0.0024402,-0.088656,0.077093,0.060321,0.11294,0.12379
1193,0.0083598,0.023817,-0.091945,0.049468,0.0090175,0.11853,0.084328
1194,0.02283,0.033683,-0.095562,0.023817,-0.062018,0.13859,0.037958
1195,0.030065,0.023488,-0.1005,0.00079584,-0.13568,0.15372,-0.0097279
1196,0.029078,-0.0028217,-0.1028,-0.018278,-0.19751,0.16095,-0.056098
1197,0.023488,-0.033735,-0.1028,-0.030775,-0.24388,0.15865,-0.0903
1198,0.013622,-0.057085,-0.098193,-0.042286,-0.27216,0.15273,-0.11036
1199,-0.00019077,-0.068595,-0.088656,-0.053138,-0.27644,0.15536,-0.12056
1200,-0.014332,-0.069911,-0.071884,-0.062347,-0.25506,0.17148,-0.12878
1201,-0.027487,-0.064978,-0.052152,-0.066293,-0.21494,0.20634,-0.13864
1202,-0.033735,-0.059058,-0.035051,-0.06136,-0.16758,0.25402,-0.15015
1203,-0.034064,-0.053138,-0.024198,-0.04985,-0.1245,0.29974,-0.16166
1204,-0.037024,-0.045903,-0.019594,-0.038011,-0.087341,0.32868,-0.17252
1205,-0.04689,-0.036037,-0.01499,-0.026829,-0.052152,0.33394,-0.17844
1206,-0.06136,-0.021567,-0.007097,-0.018278,-0.014661,0.32933,-0.1814
1207,-0.076817,-0.007097,0.0054,-0.014332,0.01987,0.33558,-0.1837
1208,-0.088985,0.002769,0.019212,-0.016634,0.053086,0.36288,-0.18929
1209,-0.097207,0.0034268,0.032367,-0.01795,0.082355,0.41484,-0.19488
1210,-0.098522,-0.0061104,0.038944,-0.013017,0.10538,0.4862,-0.1962
1211,-0.095891,-0.0265,0.041575,0.0001381,0.11754,0.55362,-0.19652
1212,-0.095562,-0.056756,0.040918,0.015266,0.10965,0.58289,-0.19817
1213,-0.10378,-0.094905,0.041247,0.030065,0.076435,0.54408,-0.20047
1214,-0.11135,-0.13634,0.039273,0.042562,0.019212,0.42734,-0.20475
1215,-0.11299,-0.17613,0.029736,0.045851,-0.051494,0.24745,-0.20639
1216,-0.10543,-0.20442,0.0096753,0.035327,-0.12483,0.039273,-0.20442
1217,-0.084381,-0.21132,-0.016634,0.014279,-0.19291,-0.1643,-0.2008
1218,-0.053467,-0.19258,-0.04097,-0.012359,-0.2452,-0.33925,-0.19718
1219,-0.021567,-0.14851,-0.056756,-0.040641,-0.27841,-0.4833,-0.19652
1220,0.0037556,-0.089643,-0.060373,-0.066622,-0.29321,-0.60531,-0.19685
1221,0.018555,-0.030447,-0.050836,-0.087998,-0.29518,-0.71153,-0.19389
1222,0.02283,0.019212,-0.034064,-0.10576,-0.28894,-0.8046,-0.18238
1223,0.020528,0.055717,-0.020909,-0.11793,-0.27545,-0.89011,-0.16101
1224,0.020199,0.082355,-0.020581,-0.12187,-0.25737,-0.98054,-0.13503
1225,0.027434,0.10505,-0.034064,-0.11924,-0.23763,-1.0884,-0.10872
1226,0.041904,0.12675,-0.051823,-0.11201,-0.2156,-1.19,-0.085039
1227,0.059334,0.15109,-0.066293,-0.10181,-0.18962,-1.2302,-0.06136
1228,0.072818,0.17773,-0.070568,-0.092603,-0.16495,-1.1601,-0.034722
1229,0.080382,0.20469,-0.063662,-0.084381,-0.14423,-0.9891,-0.004466
1230,0.076764,0.22311,-0.044588,-0.075501,-0.12549,-0.79605,0.024145
1231,0.062294,0.22212,-0.019594,-0.065635,-0.11069,-0.67207,0.04618
1232,0.04026,0.19285,0.0040845,-0.054454,-0.10313,-0.65365,0.055059
1233,0.018884,0.13497,0.021186,-0.041299,-0.11233,-0.71548,0.052757
1234,0.0021113,0.056374,0.031052,-0.028802,-0.13766,-0.80723,0.041575
1235,-0.0093991,-0.036366,0.037958,-0.019265,-0.17087,-0.88156,0.030394
1236,-0.018936,-0.13667,0.045851,-0.011043,-0.20113,-0.91674,0.024145
1237,-0.028802,-0.22678,0.057361,-0.0038083,-0.22086,-0.9299,0.023159
1238,-0.03538,-0.29354,0.068871,-0.0008485,-0.23138,-0.95851,0.025461
1239,-0.030775,-0.32643,0.079724,-0.0031506,-0.235,-1.0187,0.024145
1240,-0.014661,-0.33169,0.08959,-0.013345,-0.2327,-1.0927,0.014608
1241,0.002769,-0.31985,0.094852,-0.031433,-0.22711,-1.1397,-0.0034794
1242,0.0080309,-0.30078,0.092879,-0.056427,-0.21659,-1.1088,-0.027487
1243,-0.0038083,-0.27874,0.085644,-0.082408,-0.20244,-0.96246,-0.050507
1244,-0.027158,-0.25769,0.074791,-0.10247,-0.18337,-0.6918,-0.063991
1245,-0.052481,-0.23763,0.066569,-0.11003,-0.15903,-0.31294,-0.066622
1246,-0.069253,-0.21757,0.058348,-0.096878,-0.12121,0.14056,-0.052152
1247,-0.072542,-0.19291,0.052099,-0.062676,-0.063991,0.64077,-0.021896
1248,-0.066951,-0.16298,0.044864,-0.013017,0.0060577,1.1653,0.021186
1249,-0.05281,-0.12713,0.0373,0.040589,0.079395,1.6836,0.074462
1250,-0.034064,-0.079119,0.02579,0.086301,0.14352,2.1286,0.13004
1251,-0.015648,-0.018278,0.013293,0.1159,0.18595,2.4403,0.18463
1252,0.0060577,0.056046,0.0093464,0.12412,0.20535,2.6189,0.23396
1253,0.026119,0.14122,0.017897,0.11754,0.2162,2.7725,0.28264
1254,0.042233,0.2241,0.033025,0.10538,0.24153,3.0527,0.33788
1255,0.052428,0.28757,0.050126,0.09551,0.30368,3.5253,0.40169
1256,0.056374,0.32144,0.059005,0.092879,0.39774,4.0827,0.46845
1257,0.05177,0.3175,0.053086,0.095839,0.50594,4.5109,0.5181
1258,0.039273,0.27639,0.027763,0.099785,0.60229,4.6477,0.52698
1259,0.019212,0.21094,-0.012688,0.099785,0.66807,4.4767,0.48588
1260,-0.0015062,0.14155,-0.052152,0.099127,0.70918,4.112,0.41089
1261,-0.014332,0.08959,-0.079119,0.10044,0.73253,3.713,0.32637
1262,-0.01499,0.065254,-0.088327,0.10472,0.73943,3.397,0.25172
1263,-0.0018351,0.0692,-0.084381,0.10866,0.72562,3.2046,0.19943
1264,0.024803,0.088932,-0.079448,0.10636,0.68484,3.0843,0.17016
1265,0.05473,0.1113,-0.084381,0.090905,0.61775,2.9287,0.15602
1266,0.077093,0.12313,-0.10247,0.061636,0.52337,2.6363,0.14188
1267,0.090248,0.11952,-0.12516,0.021843,0.41024,2.1726,0.11524
1268,0.096167,0.10505,-0.14456,-0.02354,0.29415,1.583,0.077093
1269,0.09551,0.086959,-0.14884,-0.070897,0.19088,0.95221,0.035327
1270,0.09255,0.072818,-0.13601,-0.11431,0.11458,0.35301,-0.0015062
1271,0.08959,0.067885,-0.11135,-0.14983,0.068871,-0.18633,-0.031762
1272,0.090905,0.070516,-0.087998,-0.16956,0.050126,-0.68391,-0.056098
1273,0.10143,0.072818,-0.074515,-0.17416,0.049468,-1.195,-0.074515
1274,0.11458,0.068543,-0.068924,-0.16331,0.067227,-1.7804,-0.079448
1275,0.12609,0.058676,-0.065964,-0.14062,0.10834,-2.4739,-0.076159
1276,0.13234,0.043877,-0.059387,-0.11661,0.1672,-3.2412,-0.07287
1277,0.13695,0.033025,-0.051165,-0.10346,0.21423,-3.9647,-0.071226
1278,0.14122,0.037629,-0.045574,-0.096549,0.20864,-4.4524,-0.069911
1279,0.14616,0.057361,-0.045246,-0.067937,0.12478,-4.4853,-0.071884
1280,0.14681,0.081368,-0.051165,0.01132,-0.021896,-3.9489,-0.073199
1281,0.13826,0.091892,-0.059058,0.13399,-0.18271,-2.9636,-0.064978
1282,0.11985,0.076435,-0.062347,0.26619,-0.309,-1.8787,-0.048863
1283,0.092879,0.035985,-0.056098,0.36847,-0.37346,-1.0927,-0.033078
1284,0.061307,-0.018936,-0.038668,0.41254,-0.37642,-0.81151,-0.026829
1285,0.029736,-0.070568,-0.01499,0.40004,-0.33629,-0.94141,-0.032091
1286,0.0017824,-0.10082,0.014279,0.35236,-0.27644,-1.1884,-0.042286
1287,-0.018607,-0.10148,0.048482,0.29349,-0.21987,-1.2857,-0.052152
1288,-0.026829,-0.072542,0.085315,0.23857,-0.17548,-1.1519,-0.056756
1289,-0.019594,-0.024198,0.12017,0.19318,-0.14719,-0.88748,-0.058729
1290,-0.0018351,0.029736,0.14944,0.16095,-0.13207,-0.66812,-0.06136
1291,0.018884,0.070187,0.16753,0.13991,-0.11398,-0.60531,-0.066293
1292,0.038616,0.088932,0.1695,0.12873,-0.072213,-0.70693,-0.070568
1293,0.052757,0.081368,0.15799,0.12445,-0.0051238,-0.90129,-0.068266
1294,0.057032,0.05473,0.14254,0.11919,0.052757,-1.0897,-0.063333
1295,0.049139,0.020528,0.12905,0.10505,0.061965,-1.2213,-0.06432
1296,0.033354,-0.011701,0.11491,0.077093,0.0017824,-1.3094,-0.076488
1297,0.014279,-0.037024,0.096825,0.036314,-0.11201,-1.392,-0.10115
1298,-0.0031506,-0.057743,0.072818,-0.0087413,-0.23599,-1.4794,-0.13338
1299,-0.017292,-0.070897,0.045193,-0.04689,-0.32741,-1.5561,-0.16923
1300,-0.029789,-0.074186,0.019541,-0.06728,-0.36655,-1.5995,-0.20277
1301,-0.041957,-0.063662,-0.002164,-0.073528,-0.35603,-1.5899,-0.22546
1302,-0.051494,-0.04097,-0.016963,-0.069911,-0.31229,-1.5127,-0.22941
1303,-0.057743,-0.0093991,-0.024527,-0.064649,-0.25737,-1.3597,-0.21724
1304,-0.063004,0.025132,-0.025842,-0.06432,-0.21231,-1.1364,-0.19554
1305,-0.063004,0.048482,-0.022554,-0.069253,-0.18403,-0.85755,-0.17087
1306,-0.0584,0.056374,-0.014661,-0.078461,-0.17219,-0.55104,-0.14127
1307,-0.048534,0.052428,-0.0080836,-0.086354,-0.1712,-0.26098,-0.10905
1308,-0.034722,0.040918,-0.0038083,-0.088656,-0.17745,-0.057085,-0.078132
1309,-0.021896,0.026119,-0.0008485,-0.086683,-0.186,-0.0015062,-0.053138
1310,-0.013017,0.011977,0.002769,-0.084052,-0.1962,-0.11135,-0.038997
1311,-0.011701,-0.0015062,0.0057288,-0.082408,-0.21132,-0.34912,-0.031762
1312,-0.01795,-0.012359,0.010662,-0.085696,-0.22744,-0.6497,-0.025514
1313,-0.02946,-0.019265,0.021186,-0.091945,-0.24092,-0.96279,-0.017621
1314,-0.043272,-0.024527,0.039602,-0.10082,-0.24421,-1.2703,-0.0054526
1315,-0.058071,-0.031433,0.056374,-0.10937,-0.23106,-1.5699,0.010333
1316,-0.068266,-0.034064,0.064925,-0.11529,-0.20244,-1.8442,0.027763
1317,-0.07024,-0.02946,0.064267,-0.11727,-0.16199,-2.0438,0.044535
1318,-0.065964,-0.017292,0.060321,-0.1176,-0.11497,-2.0839,0.061307
1319,-0.055769,0.00046697,0.056703,-0.11398,-0.068266,-1.8714,0.080382
1320,-0.042944,0.018555,0.059334,-0.10674,-0.026829,-1.3222,0.1034
1321,-0.035051,0.030723,0.067885,-0.094905,0.0063866,-0.40108,0.13169
1322,-0.032749,0.032367,0.07808,-0.082079,0.029407,0.74272,0.15931
1323,-0.038339,0.027105,0.08367,-0.07024,0.041247,1.7326,0.18003
1324,-0.047548,0.021843,0.080382,-0.057743,0.041904,2.222,0.1843
1325,-0.054783,0.026119,0.067885,-0.044259,0.02875,2.0907,0.17246
1326,-0.053138,0.044864,0.046508,-0.035708,0.002769,1.5281,0.15503
1327,-0.038997,0.071173,0.018884,-0.034064,-0.033406,0.88545,0.14122
1328,-0.018278,0.089919,-0.0077547,-0.035708,-0.068924,0.45134,0.13136
1329,-0.002164,0.093865,-0.028144,-0.039655,-0.097536,0.32802,0.12149
1330,0.0030979,0.075449,-0.04393,-0.042944,-0.11464,0.44378,0.10866
1331,-0.0041372,0.037629,-0.056756,-0.048205,-0.1176,0.65458,0.090248
1332,-0.020252,-0.011043,-0.070568,-0.054454,-0.10641,0.83875,0.068214
1333,-0.035708,-0.059387,-0.08175,-0.061031,-0.077146,0.94465,0.048153
1334,-0.041628,-0.093589,-0.089643,-0.063333,-0.031762,0.98378,0.028092
1335,-0.037353,-0.10806,-0.095233,-0.062676,0.017568,0.98214,0.0073732
1336,-0.031762,-0.10313,-0.098851,-0.062018,0.056703,0.95254,-0.013017
1337,-0.02946,-0.085367,-0.10181,-0.060373,0.077422,0.89893,-0.025514
1338,-0.027816,-0.065307,-0.099838,-0.054454,0.077751,0.83184,-0.029131
1339,-0.026829,-0.049521,-0.095562,-0.039655,0.065583,0.76607,-0.02946
1340,-0.021896,-0.034722,-0.097536,-0.021896,0.056703,0.71477,-0.027816
1341,-0.015319,-0.014332,-0.11299,-0.0041372,0.058019,0.68977,-0.025514
1342,-0.011372,0.017239,-0.13733,0.012306,0.071502,0.69339,-0.026171
1343,-0.013345,0.056374,-0.16166,0.026447,0.088275,0.72595,-0.033735
1344,-0.024198,0.092221,-0.17877,0.035327,0.10044,0.76969,-0.050179
1345,-0.039984,0.11031,-0.18534,0.0373,0.10307,0.80257,-0.072213
1346,-0.056098,0.10406,-0.17745,0.033683,0.093536,0.81112,-0.095562
1347,-0.070897,0.074791,-0.15575,0.027105,0.084657,0.80257,-0.11562
1348,-0.082736,0.027763,-0.12089,0.024474,0.091563,0.79435,-0.12384
1349,-0.086683,-0.025185,-0.07287,0.032038,0.12675,0.80257,-0.11694
1350,-0.083065,-0.071555,-0.015319,0.052757,0.18628,0.8302,-0.093918
1351,-0.069911,-0.1051,0.045851,0.083342,0.2583,0.86736,-0.065307
1352,-0.053467,-0.12911,0.10801,0.1113,0.32341,0.89466,-0.037682
1353,-0.037682,-0.13996,0.16654,0.13136,0.36189,0.89268,-0.01795
1354,-0.025185,-0.12779,0.21061,0.14155,0.36123,0.84993,-0.0097279
1355,-0.014003,-0.0903,0.22673,0.14024,0.31947,0.76179,-0.014661
1356,-0.004466,-0.026829,0.20732,0.12774,0.25041,0.64505,-0.025842
1357,0.00046697,0.051441,0.15339,0.10472,0.17608,0.5283,-0.034393
1358,-0.0015062,0.12675,0.081368,0.076435,0.10801,0.4326,-0.036366
1359,-0.0067681,0.18134,0.012306,0.050784,0.056046,0.36617,-0.036037
1360,-0.012688,0.20831,-0.034393,0.035656,0.020528,0.33131,-0.03538
1361,-0.017292,0.20601,-0.055112,0.035656,-0.0031506,0.32276,-0.036037
1362,-0.014332,0.18463,-0.048534,0.041904,-0.021567,0.3267,-0.03538
1363,-0.0018351,0.16095,-0.021567,0.044206,-0.040641,0.30631,-0.028802
1364,0.018555,0.14517,0.011648,0.04026,-0.06728,0.20963,-0.015648
1365,0.043877,0.13432,0.037629,0.033025,-0.098193,0.0047422,0.0047422
1366,0.065912,0.1182,0.048482,0.025132,-0.12615,-0.29124,0.029078
1367,0.07808,0.087617,0.04322,0.017568,-0.14358,-0.61649,0.052757
1368,0.083342,0.041575,0.028092,0.010662,-0.15377,-0.90096,0.071831
1369,0.083999,-0.011701,0.0054,0.0060577,-0.16002,-1.0956,0.077751
1370,0.081368,-0.063004,-0.017292,0.0057288,-0.16758,-1.1828,0.066569
1371,0.071173,-0.10378,-0.03538,0.0086887,-0.17778,-1.1802,0.035327
1372,0.054401,-0.1324,-0.04689,0.010662,-0.1906,-1.1223,-0.0080836
1373,0.03434,-0.15377,-0.052481,0.0086887,-0.20442,-1.0466,-0.048534
1374,0.014608,-0.17318,-0.0584,-0.00051963,-0.21363,-0.97956,-0.075501
1375,0.002769,-0.18732,-0.066951,-0.015648,-0.21363,-0.92562,-0.087341
1376,0.0017824,-0.18732,-0.075173,-0.027816,-0.20376,-0.88188,-0.091945
1377,0.0073732,-0.16726,-0.076817,-0.030118,-0.18732,-0.83519,-0.095891
1378,0.017239,-0.12384,-0.062018,-0.021896,-0.16758,-0.77073,-0.098851
1379,0.032038,-0.066293,-0.032749,-0.0093991,-0.14555,-0.67864,-0.096878
1380,0.050455,-0.0093991,-0.0015062,0.0011247,-0.11825,-0.54677,-0.082079
1381,0.070187,0.033683,0.023817,0.010333,-0.086683,-0.33596,-0.057414
1382,0.083342,0.055717,0.040589,0.018884,-0.044588,0.012306,-0.027816
1383,0.082355,0.061965,0.041904,0.026776,0.0086887,0.51547,0.0060577
1384,0.072818,0.062952,0.026776,0.033354,0.071831,1.1061,0.044535
1385,0.062952,0.070845,0.0047422,0.042233,0.13399,1.6593,0.083342
1386,0.057032,0.088932,-0.014332,0.054401,0.18792,2.0542,0.11327
1387,0.05473,0.1113,-0.027158,0.0692,0.22673,2.2381,0.12708
1388,0.051113,0.13464,-0.036366,0.082026,0.24514,2.2407,0.12807
1389,0.044864,0.1478,-0.040313,0.087946,0.24843,2.1585,0.12873
1390,0.037629,0.14648,-0.037024,0.084657,0.24482,2.0881,0.13859
1391,0.030394,0.13004,-0.0265,0.071502,0.24021,2.0687,0.15767
1392,0.021843,0.10011,-0.0093991,0.052099,0.23462,2.0644,0.1797
1393,0.011977,0.060321,0.015924,0.034669,0.22475,2.0003,0.19746
1394,-0.0038083,0.015595,0.046837,0.025132,0.21094,1.8112,0.20239
1395,-0.025514,-0.031104,0.072818,0.02283,0.19187,1.4787,0.19549
1396,-0.048534,-0.077146,0.083013,0.024145,0.17345,1.0371,0.182
1397,-0.065307,-0.11924,0.070516,0.027105,0.16128,0.57631,0.16786
1398,-0.073528,-0.15443,0.04026,0.027434,0.15767,0.18825,0.15471
1399,-0.07287,-0.18238,0.0054,0.026776,0.16161,-0.088985,0.1353
1400,-0.069253,-0.20836,-0.020909,0.025461,0.16457,-0.2692,0.10636
1401,-0.066951,-0.2373,-0.033406,0.025461,0.16753,-0.3876,0.074133
1402,-0.066293,-0.26361,-0.034064,0.024474,0.17641,-0.46422,0.043549
1403,-0.065964,-0.27644,-0.034064,0.025132,0.18825,-0.49842,0.023488
1404,-0.059716,-0.26789,-0.039326,0.02579,0.18858,-0.4708,0.017897
1405,-0.047219,-0.23303,-0.05281,0.023159,0.16457,-0.358,0.01987
1406,-0.029131,-0.17811,-0.071226,0.015266,0.11261,-0.17844,0.017239
1407,-0.0064392,-0.11135,-0.089972,0.0011247,0.047824,-0.0011774,0.0057288
1408,0.018226,-0.045574,-0.10181,-0.017292,-0.016634,0.085972,-0.011372
1409,0.042233,0.0093464,-0.10247,-0.035051,-0.069253,0.029078,-0.027487
1410,0.06361,0.047495,-0.091616,-0.047219,-0.10609,-0.16561,-0.038011
1411,0.076764,0.071831,-0.072542,-0.054125,-0.12483,-0.45008,-0.042615
1412,0.077422,0.084328,-0.04985,-0.057085,-0.13075,-0.75461,-0.044588
1413,0.064925,0.086959,-0.030118,-0.059058,-0.13371,-1.0003,-0.047548
1414,0.042233,0.087617,-0.016963,-0.063662,-0.13667,-1.1312,-0.047877
1415,0.014279,0.091563,-0.010715,-0.071884,-0.13601,-1.121,-0.04097
1416,-0.0074258,0.10439,-0.0051238,-0.083394,-0.12384,-0.97989,-0.021238
1417,-0.019923,0.12379,0.0030979,-0.09622,-0.097864,-0.74606,0.011977
1418,-0.025514,0.13991,0.015924,-0.1051,-0.057743,-0.46225,0.055388
1419,-0.026171,0.14024,0.031052,-0.10346,-0.0093991,-0.14785,0.10669
1420,-0.023869,0.11721,0.044535,-0.086025,0.033683,0.19614,0.16128
1421,-0.01795,0.070845,0.055059,-0.050836,0.055717,0.53455,0.21324
1422,-0.011701,0.00079584,0.058676,-0.0064392,0.051441,0.79896,0.25797
1423,-0.012688,-0.087012,0.05473,0.030065,0.02283,0.94037,0.28855
1424,-0.02354,-0.17646,0.041575,0.044535,-0.021238,0.96734,0.3027
1425,-0.040641,-0.24257,0.027763,0.039602,-0.070897,0.90485,0.29546
1426,-0.053796,-0.2669,0.016253,0.02579,-0.12121,0.77561,0.2708
1427,-0.058729,-0.24553,0.01691,0.0080309,-0.16726,0.58421,0.23561
1428,-0.054125,-0.18534,0.034011,-0.01499,-0.20705,0.32933,0.1922
1429,-0.044917,-0.1074,0.062623,-0.039984,-0.24092,0.031381,0.13826
1430,-0.036366,-0.036037,0.095181,-0.061689,-0.27414,-0.26789,0.07808
1431,-0.036695,0.0070443,0.12149,-0.076488,-0.30308,-0.52342,0.017897
1432,-0.052481,0.010991,0.1307,-0.082408,-0.32544,-0.70331,-0.037682
1433,-0.080434,-0.020252,0.12116,-0.080106,-0.33235,-0.78816,-0.087341
1434,-0.11168,-0.066951,0.093865,-0.070897,-0.31656,-0.78783,-0.12615
1435,-0.13404,-0.10806,0.06065,-0.055112,-0.27512,-0.74639,-0.15279
1436,-0.13733,-0.12549,0.037958,-0.033735,-0.21198,-0.73389,-0.16528
1437,-0.12089,-0.11595,0.031381,-0.011372,-0.13799,-0.80855,-0.1712
1438,-0.088656,-0.084381,0.036971,0.010004,-0.07583,-0.97232,-0.18107
1439,-0.049192,-0.044917,0.047824,0.027763,-0.040641,-1.1841,-0.20047
1440,-0.012359,-0.007097,0.058348,0.042233,-0.030118,-1.3818,-0.22711
1441,0.018226,0.026447,0.062952,0.050784,-0.034722,-1.508,-0.25638
1442,0.036971,0.051113,0.058676,0.046508,-0.045903,-1.5173,-0.28236
1443,0.043549,0.065583,0.049797,0.030394,-0.055112,-1.3913,-0.30012
1444,0.041904,0.069858,0.033025,0.0073732,-0.056427,-1.1437,-0.31031
1445,0.034669,0.065583,0.010004,-0.010386,-0.045903,-0.81808,-0.3159
1446,0.031052,0.059663,-0.016634,-0.015319,-0.025185,-0.4754,-0.31492
1447,0.037629,0.057032,-0.042286,-0.012688,0.002769,-0.18436,-0.30209
1448,0.051441,0.061965,-0.06728,-0.0077547,0.034669,0.0054,-0.27315
1449,0.066569,0.077751,-0.093589,0.0017824,0.060979,0.076435,-0.22875
1450,0.078409,0.10242,-0.12023,0.014279,0.071173,0.030723,-0.18008
1451,0.085972,0.133,-0.14785,0.023159,0.059992,-0.11924,-0.14127
1452,0.087288,0.16589,-0.17022,0.024474,0.029736,-0.33827,-0.11299
1453,0.088603,0.2014,-0.18238,0.017239,-0.014003,-0.58294,-0.094576
1454,0.094194,0.23988,-0.18337,0.0070443,-0.062676,-0.8092,-0.084381
1455,0.10406,0.27836,-0.17153,-0.0041372,-0.1051,-0.98844,-0.079448
1456,0.11557,0.31158,-0.15575,-0.01203,-0.12845,-1.1019,-0.074186
1457,0.12281,0.33065,-0.13963,-0.01795,-0.12615,-1.1305,-0.054454
1458,0.12412,0.32736,-0.12286,-0.02354,-0.098522,-1.0644,-0.0090702
1459,0.1182,0.29513,-0.10576,-0.030447,-0.058729,-0.91674,0.055717
1460,0.10373,0.24186,-0.092931,-0.033735,-0.016634,-0.73521,0.12511
1461,0.08367,0.18233,-0.082079,-0.028802,0.01987,-0.54545,0.18069
1462,0.062294,0.13201,-0.068266,-0.01499,0.040918,-0.27907,0.2139
1463,0.04322,0.095839,-0.044917,0.0021113,0.041904,0.19713,0.2264
1464,0.029736,0.074462,-0.013017,0.01987,0.029078,0.90354,0.23462
1465,0.020528,0.062294,0.024145,0.038616,0.021843,1.6728,0.25633
1466,0.019212,0.05177,0.06065,0.06361,0.032696,2.2529,0.29579
1467,0.025132,0.038287,0.091234,0.092879,0.060979,2.4272,0.33788
1468,0.033025,0.018226,0.11261,0.12346,0.10011,2.1055,0.36255
1469,0.038616,0.0024402,0.12544,0.14944,0.14254,1.3794,0.36025
1470,0.039602,-0.004466,0.1353,0.17148,0.1843,0.49673,0.32999
1471,0.031709,0.00046697,0.14583,0.18496,0.21916,-0.24191,0.27869
1472,0.018884,0.014279,0.16227,0.18792,0.24087,-0.64378,0.21653
1473,0.0070443,0.028092,0.17838,0.18134,0.2458,-0.70561,0.15273
1474,0.0034268,0.035327,0.18397,0.16687,0.23692,-0.55466,0.089261
1475,0.010991,0.033025,0.17049,0.14944,0.22081,-0.37017,0.027763
1476,0.02283,0.030394,0.14484,0.133,0.20173,-0.2965,-0.022883
1477,0.03434,0.03434,0.11754,0.12017,0.18726,-0.38102,-0.0584
1478,0.034998,0.045851,0.097483,0.10702,0.17444,-0.57472,-0.086354
1479,0.023817,0.062952,0.080711,0.087617,0.15865,-0.77106,-0.1097
1480,0.0044134,0.080053,0.065254,0.060321,0.14352,-0.87136,-0.12812
1481,-0.015976,0.09255,0.044864,0.032696,0.14155,-0.85492,-0.13766
1482,-0.034064,0.096167,0.017568,0.015266,0.16194,-0.75527,-0.13568
1483,-0.056098,0.086959,-0.014661,0.0093464,0.20667,-0.61583,-0.12944
1484,-0.084052,0.064267,-0.046232,0.018884,0.27573,-0.45666,-0.1245
1485,-0.10905,0.038944,-0.065635,0.046837,0.36452,-0.235,-0.11825
1486,-0.11628,0.01691,-0.063004,0.085972,0.46581,0.1205,-0.10444
1487,-0.1028,0.0021113,-0.036037,0.12609,0.56678,0.61676,-0.077803
1488,-0.07583,-0.0074258,0.0047422,0.15767,0.65689,1.1403,-0.043272
1489,-0.051494,-0.019265,0.039602,0.17773,0.722,1.5346,-0.0087413
1490,-0.039655,-0.037024,0.053743,0.18332,0.7493,1.6922,0.017897
1491,-0.039984,-0.061689,0.039273,0.17312,0.72529,1.5794,0.033354
1492,-0.04393,-0.087012,-0.002164,0.14813,0.64209,1.2255,0.035985
1493,-0.045903,-0.10674,-0.05544,0.10735,0.50626,0.69207,0.029736
1494,-0.042615,-0.11628,-0.10181,0.05769,0.33986,0.070516,0.016253
1495,-0.037353,-0.11727,-0.12352,0.0063866,0.17115,-0.51816,0.0001381
1496,-0.033406,-0.11365,-0.11299,-0.038339,0.02283,-0.95687,-0.01203
1497,-0.035051,-0.1051,-0.080763,-0.072213,-0.0903,-1.166,-0.010057
1498,-0.037353,-0.095562,-0.047877,-0.091616,-0.17054,-1.145,0.010662
1499,-0.034393,-0.087998,-0.032091,-0.097864,-0.22744,-0.98318,0.050126
1500,-0.027816,-0.083723,-0.036695,-0.098193,-0.27249,-0.82696,0.094194
1501,-0.020252,-0.077475,-0.053796,-0.096549,-0.31294,-0.80164,0.12642
1502,-0.01795,-0.06432,-0.068924,-0.097207,-0.35011,-0.92793,0.13793
1503,-0.023211,-0.046232,-0.074844,-0.097207,-0.38036,-1.0802,0.1284
1504,-0.033406,-0.03242,-0.071884,-0.096878,-0.3945,-1.0575,0.10866
1505,-0.041957,-0.027158,-0.061031,-0.09326,-0.3899,-0.71416,0.09551
1506,-0.039326,-0.020252,-0.042286,-0.088656,-0.37576,-0.067609,0.10077
1507,-0.017621,0.0017824,-0.016305,-0.084052,-0.3603,0.64899,0.11853
1508,0.016581,0.045522,0.017239,-0.079448,-0.3603,1.0995,0.13234
1509,0.047495,0.09551,0.047495,-0.079777,-0.38727,1.0209,0.12544
1510,0.060979,0.12511,0.063281,-0.087669,-0.45107,0.34348,0.087288
1511,0.050455,0.11426,0.061307,-0.09918,-0.54907,-0.71712,0.014937
1512,0.018226,0.062952,0.048482,-0.11431,-0.66352,-1.7054,-0.079777
1513,-0.019923,-0.007097,0.032038,-0.1324,-0.76283,-2.2062,-0.17712
1514,-0.050179,-0.072213,0.017897,-0.15246,-0.81973,-2.0806,-0.25769
1515,-0.06432,-0.11529,0.0090175,-0.17087,-0.82992,-1.5495,-0.31393
1516,-0.061689,-0.1347,0.0034268,-0.18238,-0.80953,-1.0256,-0.34287
1517,-0.051165,-0.13503,-0.0041372,-0.18436,-0.77796,-0.78849,-0.34583
1518,-0.040641,-0.12089,-0.014332,-0.17811,-0.75165,-0.81841,-0.32972
1519,-0.033078,-0.097536,-0.026829,-0.16594,-0.73159,-0.88452,-0.30637
1520,-0.023869,-0.06728,-0.036695,-0.1518,-0.7135,-0.7362,-0.29091
1521,-0.013674,-0.034064,-0.035051,-0.13404,-0.68325,-0.25704,-0.28104
1522,-0.0061104,-0.0067681,-0.022554,-0.11497,-0.62964,0.4668,-0.26953
1523,-0.0015062,0.0093464,-0.0077547,-0.099509,-0.55466,1.1864,-0.24487
1524,0.00079584,0.0083598,0.0057288,-0.091287,-0.46981,1.633,-0.20573
1525,0.0030979,-0.007097,0.010991,-0.083723,-0.38365,1.6665,-0.15805
1526,0.0047422,-0.032091,0.010662,-0.073857,-0.29617,1.3176,-0.11201
1527,0.0037556,-0.062018,0.0044134,-0.060373,-0.19916,0.7687,-0.07024
1528,-0.002164,-0.089972,-0.0031506,-0.042286,-0.085039,0.27704,-0.033406
1529,-0.0057815,-0.11299,-0.0074258,-0.019923,0.043877,0.097483,0.0080309
1530,-0.0064392,-0.12615,-0.0067681,0.0024402,0.1797,0.40991,0.05769
1531,-0.0038083,-0.12878,-0.0028217,0.022501,0.30401,1.2005,0.11524
1532,-0.0034794,-0.12417,0.0001381,0.0373,0.40267,2.2012,0.17806
1533,-0.0057815,-0.11036,0.0040845,0.048153,0.47371,3.0616,0.24218
1534,-0.0093991,-0.085367,0.0093464,0.059334,0.52731,3.5598,0.30237
1535,-0.010057,-0.054454,0.014608,0.075778,0.57697,3.667,0.35038
1536,-0.0041372,-0.024856,0.018555,0.095181,0.62236,3.4746,0.3734
1537,0.0080309,0.0001381,0.020528,0.10965,0.6605,3.0708,0.36748
1538,0.02283,0.02579,0.021514,0.1136,0.68188,2.5035,0.33262
1539,0.034998,0.053086,0.027105,0.10636,0.67366,1.8076,0.27112
1540,0.04026,0.079395,0.038944,0.091234,0.62597,1.0315,0.19055
1541,0.037629,0.097812,0.053743,0.074133,0.53586,0.25238,0.10077
1542,0.027434,0.10406,0.060979,0.05473,0.40662,-0.39253,0.017239
1543,0.013951,0.093208,0.052757,0.035656,0.25665,-0.74508,-0.050507
1544,0.0017824,0.071831,0.030394,0.015595,0.11228,-0.75724,-0.097536
1545,-0.0041372,0.050126,0.0060577,-0.0054526,-0.0054526,-0.55762,-0.12516
1546,-0.002164,0.034011,-0.010057,-0.022554,-0.087669,-0.37576,-0.13437
1547,0.0040845,0.02283,-0.014661,-0.028802,-0.1347,-0.38858,-0.13305
1548,0.012964,0.014937,-0.012359,-0.022225,-0.14719,-0.62405,-0.12944
1549,0.01987,0.0047422,-0.010386,-0.0064392,-0.1347,-0.99534,-0.12615
1550,0.024803,-0.011372,-0.016305,0.0096753,-0.1097,-1.4094,-0.1222
1551,0.027105,-0.032091,-0.031762,0.019541,-0.084381,-1.809,-0.11497
1552,0.026776,-0.059716,-0.051823,0.020199,-0.067937,-2.1516,-0.10181
1553,0.024474,-0.092603,-0.068924,0.011977,-0.060702,-2.3687,-0.082408
1554,0.02283,-0.12319,-0.074515,0.0021113,-0.05544,-2.3575,-0.053467
1555,0.026119,-0.13503,-0.065964,0.0001381,-0.039655,-2.049,-0.014661
1556,0.034669,-0.12187,-0.04689,0.012306,0.0040845,-1.4765,0.026776
1557,0.043549,-0.088656,-0.026829,0.034998,0.079724,-0.77928,0.070187
1558,0.052428,-0.049192,-0.010057,0.059334,0.16852,-0.12878,0.11458
1559,0.062623,-0.014003,0.002769,0.083999,0.2458,0.39379,0.16227
1560,0.081039,0.012635,0.014608,0.10735,0.29645,0.83415,0.21883
1561,0.10702,0.031709,0.027105,0.12741,0.31947,1.2768,0.28066
1562,0.13497,0.048153,0.038616,0.14221,0.32506,1.7089,0.34446
1563,0.15438,0.064596,0.045851,0.15175,0.3198,2.0108,0.39642
1564,0.16161,0.081039,0.044864,0.15471,0.30763,2.0533,0.42668
1565,0.15273,0.087946,0.033354,0.15175,0.28329,1.781,0.42767
1566,0.12905,0.080711,0.013293,0.13859,0.23758,1.235,0.39642
1567,0.094852,0.058676,-0.011043,0.11294,0.16391,0.51975,0.33525
1568,0.055717,0.031709,-0.034064,0.077751,0.066569,-0.24651,0.2481
1569,0.019541,0.0073732,-0.053796,0.036971,-0.035708,-0.95062,0.14352
1570,-0.0090702,-0.0090702,-0.06728,-0.0074258,-0.12779,-1.4942,0.032696
1571,-0.028802,-0.010715,-0.073528,-0.051165,-0.20146,-1.785,-0.068924
1572,-0.041299,0.002769,-0.073528,-0.087998,-0.25506,-1.7504,-0.1518
1573,-0.049192,0.025461,-0.068266,-0.11201,-0.28927,-1.3933,-0.21001
1574,-0.052152,0.049468,-0.061031,-0.12187,-0.30341,-0.79868,-0.24059
1575,-0.050836,0.069858,-0.05544,-0.1222,-0.2988,-0.087998,-0.2452
1576,-0.048534,0.084328,-0.05281,-0.11398,-0.27743,0.61183,-0.22908
1577,-0.051165,0.093536,-0.047219,-0.097207,-0.25079,1.2018,-0.1985
1578,-0.058071,0.099785,-0.037024,-0.07287,-0.22842,1.6053,-0.16791
1579,-0.066951,0.10307,-0.025514,-0.048863,-0.21691,1.7579,-0.15607
1580,-0.074844,0.10077,-0.01499,-0.03242,-0.21889,1.6372,-0.17022
1581,-0.07879,0.090248,-0.0077547,-0.02946,-0.2327,1.2748,-0.20968
1582,-0.074515,0.073476,-0.0008485,-0.03538,-0.25835,0.74173,-0.26328
1583,-0.067937,0.054401,0.0067154,-0.046232,-0.29091,0.12971,-0.31426
1584,-0.064978,0.038287,0.012964,-0.052481,-0.32182,-0.46948,-0.35241
1585,-0.069253,0.030394,0.014608,-0.053138,-0.33827,-0.99863,-0.36819
1586,-0.078461,0.027434,0.0083598,-0.05544,-0.333,-1.4495,-0.36523
1587,-0.091287,0.024803,-0.007097,-0.063333,-0.31393,-1.831,-0.35011
1588,-0.1028,0.019212,-0.027158,-0.071884,-0.28466,-2.1138,-0.32643
1589,-0.10609,0.0073732,-0.046561,-0.073857,-0.24092,-2.2174,-0.2965
1590,-0.098522,-0.010057,-0.062347,-0.062347,-0.18107,-2.0543,-0.25572
1591,-0.08471,-0.028802,-0.070568,-0.037353,-0.1005,-1.5988,-0.19685
1592,-0.064649,-0.040641,-0.06728,-0.00019077,0.0060577,-0.93713,-0.11924
1593,-0.040641,-0.036695,-0.048863,0.045851,0.12971,-0.27644,-0.028473
1594,-0.016634,-0.01795,-0.01499,0.09551,0.25074,0.13497,0.058676
1595,0.0073732,0.012306,0.034011,0.14352,0.3494,0.182,0.12873
1596,0.031381,0.04618,0.094523,0.18266,0.40826,-0.015319,0.1797
1597,0.054401,0.076764,0.16063,0.21226,0.42503,-0.17022,0.21949
1598,0.077751,0.1011,0.22081,0.22936,0.4132,-0.025514,0.25435
1599,0.096496,0.11919,0.26257,0.23232,0.3905,0.44444,0.28428
1600,0.10636,0.12478,0.27047,0.2264,0.36584,1.0154,0.30302
1601,0.10603,0.11787,0.23331,0.21127,0.34775,1.411,0.30533
1602,0.099127,0.10077,0.14944,0.18661,0.3369,1.4754,0.28987
1603,0.086301,0.079066,0.032696,0.15273,0.32637,1.2367,0.26192
1604,0.068214,0.061307,-0.089643,0.11491,0.31421,0.85289,0.23067
1605,0.047166,0.055717,-0.19093,0.082355,0.3027,0.4816,0.207
1606,0.032038,0.057361,-0.25276,0.058348,0.29546,0.18233,0.20009
1607,0.026447,0.059005,-0.26559,0.04618,0.29053,-0.085696,0.20765
1608,0.024803,0.057032,-0.23467,0.04618,0.28329,-0.40568,0.21719
1609,0.021514,0.05177,-0.17054,0.051113,0.2708,-0.82729,0.21456
1610,0.020528,0.041575,-0.090958,0.053415,0.24975,-1.269,0.19088
1611,0.02283,0.029407,-0.014003,0.052099,0.22179,-1.4781,0.15405
1612,0.02875,0.01987,0.045522,0.047824,0.19746,-1.1614,0.11985
1613,0.038287,0.015595,0.08959,0.044864,0.18858,-0.22908,0.099456
1614,0.044206,0.010662,0.11919,0.045851,0.19516,1.013,0.096825
1615,0.041575,0.0001381,0.13267,0.049139,0.207,2.0214,0.10603
1616,0.031709,-0.014661,0.12577,0.052428,0.20436,2.4061,0.11228
1617,0.01987,-0.028802,0.099456,0.052099,0.18134,2.0796,0.098469
1618,0.0083598,-0.040313,0.064596,0.045522,0.13464,1.2561,0.061636
1619,0.0021113,-0.047877,0.036971,0.033683,0.07512,0.31717,0.016253
1620,0.00079584,-0.050179,0.026119,0.020199,0.018884,-0.39352,-0.027816
1621,0.00079584,-0.044588,0.027763,0.0063866,-0.022554,-0.72863,-0.060045
1622,0.0001381,-0.029789,0.032367,-0.0038083,-0.042615,-0.74771,-0.077803
1623,-0.0041372,-0.013345,0.031709,-0.011372,-0.045246,-0.59511,-0.0903
1624,-0.015976,-0.0011774,0.021843,-0.020909,-0.040313,-0.39976,-0.10313
1625,-0.03242,0.0001381,0.0034268,-0.033406,-0.039326,-0.23106,-0.11497
1626,-0.045246,-0.0057815,-0.015648,-0.047548,-0.049521,-0.096878,-0.11924
1627,-0.053796,-0.01203,-0.035051,-0.059058,-0.069253,0.027105,-0.11727
1628,-0.062676,-0.013017,-0.056427,-0.066293,-0.092931,0.15964,-0.11529
1629,-0.075173,-0.010386,-0.077475,-0.068266,-0.10674,0.29382,-0.11332
1630,-0.086683,-0.007097,-0.091616,-0.066622,-0.10543,0.41056,-0.1097
1631,-0.090958,-0.0047949,-0.095891,-0.063333,-0.097207,0.49541,-0.10247
1632,-0.085367,-0.0018351,-0.092603,-0.062676,-0.095233,0.55395,-0.088985
1633,-0.075501,0.0037556,-0.085367,-0.065964,-0.10806,0.58717,-0.069582
1634,-0.06432,0.010991,-0.075173,-0.069911,-0.14226,0.57631,-0.04985
1635,-0.05281,0.01987,-0.062018,-0.071555,-0.19192,0.47831,-0.036366
1636,-0.04393,0.02875,-0.045574,-0.07287,-0.24849,0.26225,-0.033406
1637,-0.037682,0.039602,-0.030118,-0.078461,-0.30505,-0.066622,-0.039326
1638,-0.036037,0.057032,-0.018278,-0.087669,-0.35668,-0.47277,-0.052481
1639,-0.041957,0.080382,-0.013017,-0.097207,-0.40601,-0.89208,-0.073199
1640,-0.056098,0.099785,-0.011701,-0.10313,-0.45008,-1.2568,-0.10082
1641,-0.074186,0.10998,-0.0077547,-0.10148,-0.48395,-1.5136,-0.13338
1642,-0.089972,0.1159,0.0034268,-0.091287,-0.49612,-1.6373,-0.16824
1643,-0.098851,0.12379,0.020528,-0.075501,-0.46718,-1.6337,-0.19784
1644,-0.095562,0.1376,0.043877,-0.058071,-0.38924,-1.5409,-0.21626
1645,-0.079777,0.15339,0.074791,-0.044588,-0.27973,-1.4048,-0.22218
1646,-0.055769,0.16359,0.11426,-0.051823,-0.18041,-1.2709,-0.21757
1647,-0.033078,0.16194,0.15438,-0.086025,-0.13075,-1.1545,-0.20508
1648,-0.024856,0.14681,0.182,-0.1324,-0.13897,-1.0476,-0.18995
1649,-0.030775,0.11787,0.19121,-0.17153,-0.18732,-0.9151,-0.17383
1650,-0.043272,0.078409,0.182,-0.18436,-0.24454,-0.72304,-0.15476
1651,-0.054783,0.034011,0.16128,-0.16298,-0.27907,-0.45403,-0.13404
1652,-0.056427,-0.0084125,0.13596,-0.11299,-0.2692,-0.11595,-0.10707
1653,-0.048534,-0.040641,0.10801,-0.051823,-0.20771,0.25797,-0.072542
1654,-0.034064,-0.056756,0.070845,0.0014536,-0.10839,0.62531,-0.035708
1655,-0.021238,-0.060045,0.019541,0.033354,0.0037556,0.93346,0.0014536
1656,-0.016963,-0.068266,-0.045903,0.041575,0.11097,1.1288,0.033354
1657,-0.025185,-0.099838,-0.1176,0.038616,0.20173,1.188,0.051113
1658,-0.039326,-0.16166,-0.17909,0.036642,0.27014,1.1288,0.057032
1659,-0.04985,-0.24947,-0.21659,0.043549,0.31815,1.0157,0.06361
1660,-0.052152,-0.34649,-0.22185,0.060979,0.34972,0.9157,0.079724
1661,-0.05281,-0.43627,-0.19126,0.082355,0.37373,0.86243,0.1057
1662,-0.056756,-0.50073,-0.13667,0.10439,0.40103,0.85585,0.13826
1663,-0.060373,-0.52835,-0.073199,0.11919,0.43391,0.87229,0.17542
1664,-0.058729,-0.51816,-0.021896,0.12281,0.46845,0.90156,0.21193
1665,-0.047548,-0.47935,0.0070443,0.11524,0.49574,0.96799,0.24284
1666,-0.024856,-0.4218,0.017239,0.10044,0.5089,1.0943,0.26093
1667,0.0034268,-0.35899,0.017568,0.08959,0.50002,1.2617,0.27408
1668,0.032367,-0.30012,0.019212,0.088275,0.4622,1.409,0.28888
1669,0.059005,-0.24454,0.026447,0.097154,0.39017,1.4468,0.30664
1670,0.083013,-0.18107,0.038944,0.11195,0.29513,1.2998,0.3221
1671,0.10834,-0.10247,0.052757,0.12905,0.19614,0.94826,0.33032
1672,0.13596,-0.014661,0.060979,0.14616,0.10768,0.44016,0.32802
1673,0.1626,0.070187,0.061636,0.16391,0.04026,-0.12352,0.31815
1674,0.18957,0.13958,0.054072,0.18102,-0.00019077,-0.62964,0.29842
1675,0.21061,0.18693,0.045522,0.19285,-0.020581,-0.9983,0.26718
1676,0.21851,0.21916,0.041575,0.19746,-0.033735,-1.1923,0.22837
1677,0.2162,0.24383,0.043877,0.18792,-0.051494,-1.2084,0.19154
1678,0.21061,0.26192,0.049468,0.16128,-0.081092,-1.07,0.15767
1679,0.20305,0.26981,0.056374,0.1205,-0.1199,-0.81019,0.12313
1680,0.18989,0.26159,0.055717,0.073476,-0.15805,-0.46718,0.088275
1681,0.16918,0.23791,0.04322,0.027105,-0.18337,-0.097864,0.059663
1682,0.1432,0.20371,0.018555,-0.010715,-0.19225,0.21653,0.041575
1683,0.11656,0.16457,-0.014332,-0.033735,-0.18271,0.40201,0.030723
1684,0.095839,0.12807,-0.049192,-0.041628,-0.15969,0.43359,0.025461
1685,0.083999,0.096496,-0.082079,-0.044259,-0.13503,0.33756,0.019541
1686,0.081039,0.077751,-0.10313,-0.054783,-0.11595,0.17608,0.0063866
1687,0.079724,0.069529,-0.10773,-0.07879,-0.10543,0.01132,-0.016634
1688,0.076106,0.068543,-0.09918,-0.11069,-0.096549,-0.12023,-0.043272
1689,0.067556,0.069529,-0.088327,-0.14029,-0.08175,-0.2031,-0.066293
1690,0.058019,0.070187,-0.087341,-0.16232,-0.061689,-0.25605,-0.079448
1691,0.047495,0.06624,-0.10346,-0.17581,-0.043601,-0.30406,-0.084381
1692,0.034011,0.05473,-0.137,-0.1814,-0.036366,-0.36227,-0.087012
1693,0.017568,0.036971,-0.17909,-0.18469,-0.047548,-0.42838,-0.09326
1694,0.00046697,0.015595,-0.21494,-0.18896,-0.070897,-0.49152,-0.10576
1695,-0.013017,-0.0028217,-0.23073,-0.1906,-0.094576,-0.54019,-0.1199
1696,-0.021896,-0.0090702,-0.22053,-0.1837,-0.10905,-0.56387,-0.1324
1697,-0.024856,-0.004466,-0.18929,-0.16002,-0.1176,-0.55433,-0.13766
1698,-0.024527,0.0073732,-0.14292,-0.11595,-0.13141,-0.51454,-0.1347
1699,-0.024527,0.020528,-0.08471,-0.047219,-0.16397,-0.45633,-0.12812
1700,-0.030118,0.028092,-0.016634,0.042233,-0.21231,-0.3899,-0.11793
1701,-0.04393,0.025461,0.057032,0.14122,-0.25243,-0.31755,-0.1005
1702,-0.061031,0.012306,0.12577,0.22804,-0.26197,-0.23632,-0.07879
1703,-0.07583,-0.0008485,0.17575,0.27902,-0.2304,-0.14884,-0.054783
1704,-0.081421,-0.014332,0.1945,0.28362,-0.16298,-0.062347,-0.030118
1705,-0.073857,-0.028473,0.17707,0.24876,-0.075501,0.0047422,-0.0087413
1706,-0.059058,-0.04689,0.12905,0.19088,0.0060577,0.042233,0.0047422
1707,-0.04985,-0.067609,0.067227,0.1307,0.057361,0.063281,0.0077021
1708,-0.050836,-0.085367,0.0093464,0.077751,0.065912,0.097483,0.00079584
1709,-0.06432,-0.092603,-0.033406,0.033683,0.034998,0.14517,-0.0084125
1710,-0.082408,-0.089643,-0.060702,-0.0064392,-0.024198,0.18759,-0.013017
1711,-0.10214,-0.084381,-0.075501,-0.044588,-0.090958,0.20535,-0.016963
1712,-0.12056,-0.084381,-0.083065,-0.082079,-0.15015,0.19088,-0.025842
1713,-0.13799,-0.090629,-0.086025,-0.11497,-0.19291,0.15372,-0.038668
1714,-0.15081,-0.091945,-0.086025,-0.14325,-0.22086,0.11689,-0.053467
1715,-0.15476,-0.08471,-0.083065,-0.16166,-0.2373,0.091892,-0.066951
1716,-0.14555,-0.072542,-0.080106,-0.16627,-0.24914,0.082355,-0.075501
1717,-0.12549,-0.058071,-0.080434,-0.15607,-0.25638,0.067556,-0.08175
1718,-0.10214,-0.038997,-0.075501,-0.13897,-0.25473,0.0057288,-0.086025
1719,-0.083065,-0.014661,-0.058071,-0.12976,-0.23763,-0.137,-0.095891
1720,-0.069253,0.010333,-0.027816,-0.13799,-0.20113,-0.35997,-0.11332
1721,-0.059387,0.030394,0.013622,-0.16758,-0.14884,-0.62175,-0.1324
1722,-0.050179,0.042562,0.063938,-0.20738,-0.091945,-0.8707,-0.14719
1723,-0.036366,0.054072,0.11853,-0.24257,-0.045574,-1.0621,-0.15706
1724,-0.016963,0.071173,0.17345,-0.26065,-0.020581,-1.1821,-0.15969
1725,0.0034268,0.098798,0.22048,-0.25835,-0.019265,-1.244,-0.15706
1726,0.019212,0.13103,0.24482,-0.24059,-0.035708,-1.2808,-0.15081
1727,0.02579,0.16063,0.24054,-0.21461,-0.062347,-1.3163,-0.13963
1728,0.027763,0.18167,0.21522,-0.18337,-0.091287,-1.3591,-0.1268
1729,0.030065,0.19285,0.17477,-0.13799,-0.12352,-1.4163,-0.11924
1730,0.032367,0.19483,0.12675,-0.0584,-0.16495,-1.5041,-0.11957
1731,0.027763,0.18628,0.073476,0.06361,-0.21428,-1.6304,-0.12319
1732,0.011977,0.16918,0.023817,0.20535,-0.26592,-1.7646,-0.12615
1733,-0.010715,0.14352,-0.019265,0.32078,-0.30341,-1.8211,-0.12516
1734,-0.034064,0.11524,-0.053138,0.38097,-0.29913,-1.6962,-0.11595
1735,-0.048863,0.087288,-0.074844,0.38919,-0.22645,-1.3055,-0.096878
1736,-0.055769,0.059992,-0.083723,0.35696,-0.091945,-0.60695,-0.06136
1737,-0.056427,0.038287,-0.083394,0.30072,0.063281,0.41024,-0.016963
1738,-0.052152,0.023488,-0.077475,0.22706,0.19055,1.681,0.032038
1739,-0.04097,0.012306,-0.07024,0.1501,0.26225,3.0665,0.082355
1740,-0.027158,-0.0028217,-0.06432,0.088275,0.2902,4.3451,0.13629
1741,-0.017292,-0.026829,-0.059058,0.052099,0.30105,4.9604,0.1922
1742,-0.019594,-0.057085,-0.051165,0.038287,0.31256,4.9601,0.23857
1743,-0.027158,-0.085696,-0.03538,0.038287,0.32605,4.9598,0.25633
1744,-0.03538,-0.11102,-0.011372,0.036642,0.33065,4.1412,0.23429
1745,-0.041957,-0.12746,0.011977,0.02579,0.32144,2.8688,0.18365
1746,-0.046232,-0.13601,0.023159,0.0040845,0.30237,1.6688,0.12412
1747,-0.043272,-0.13305,0.023159,-0.018936,0.2879,0.81704,0.079724
1748,-0.031104,-0.12089,0.017239,-0.033406,0.28888,0.44838,0.067885
1749,-0.0074258,-0.10609,0.011648,-0.035708,0.30598,0.54277,0.092879
1750,0.024474,-0.094905,0.010004,-0.024198,0.33953,0.92886,0.14681
1751,0.056046,-0.085367,0.012306,0.0024402,0.38031,1.3334,0.21489
1752,0.077422,-0.076488,0.016581,0.038287,0.41616,1.4498,0.27935
1753,0.083013,-0.069582,0.015595,0.073147,0.4303,1.0426,0.3244
1754,0.081039,-0.064649,0.01132,0.10011,0.41484,0.063281,0.34315
1755,0.082355,-0.058071,0.010004,0.1159,0.37834,-1.2969,0.34775
1756,0.09255,-0.045574,0.014279,0.11886,0.33525,-2.714,0.35827
1757,0.11031,-0.033735,0.019212,0.11195,0.30007,-3.8713,0.39017
1758,0.13136,-0.039326,0.019541,0.10209,0.28033,-4.4455,0.44806
1759,0.14583,-0.068924,0.023817,0.091892,0.26981,-4.1715,0.52074
1760,0.15207,-0.11497,0.046837,0.083013,0.25501,-3.0304,0.58815
1761,0.15536,-0.1495,0.099785,0.076435,0.22344,-1.3275,0.62597
1762,0.15767,-0.14621,0.1774,0.071502,0.17707,0.43391,0.61808
1763,0.15734,-0.090958,0.26225,0.07216,0.12774,1.7576,0.56776
1764,0.15668,0.0080309,0.33394,0.081697,0.083342,2.4634,0.49147
1765,0.15701,0.13662,0.37801,0.10011,0.048482,2.5538,0.40234
1766,0.15832,0.26915,0.39182,0.12478,0.027105,2.1812,0.30894
1767,0.16095,0.37899,0.37932,0.14813,0.017897,1.6129,0.22278
1768,0.1626,0.44707,0.34578,0.16293,0.016253,1.0893,0.15076
1769,0.16424,0.46877,0.28888,0.16457,0.010004,0.69931,0.095839
1770,0.1672,0.45792,0.21324,0.15076,-0.011701,0.39346,0.055717
1771,0.17115,0.4349,0.12511,0.12281,-0.047219,0.096167,0.017239
1772,0.17214,0.41616,0.024145,0.085972,-0.089643,-0.23434,-0.031104
1773,0.16687,0.40695,-0.083723,0.046837,-0.12878,-0.5767,-0.089972
1774,0.15799,0.4053,-0.18633,0.015266,-0.15509,-0.87169,-0.14785
1775,0.15142,0.40596,-0.26657,-0.007097,-0.15969,-1.0785,-0.19192
1776,0.14813,0.403,-0.30242,-0.015648,-0.13799,-1.1894,-0.2179
1777,0.13958,0.39215,-0.28631,-0.010386,-0.1005,-1.2242,-0.22481
1778,0.12116,0.36748,-0.22908,0.0063866,-0.058729,-1.2025,-0.21527
