,channel_1,channel_2,channel_3,channel_4,channel_5,channel_6,channel_7
0,0.014279,0.035985,0.0090175,0.019541,-0.02354,0.012964,-0.016634
1,0.02283,0.035327,0.0044134,0.030394,-0.016305,0.014608,-0.015976
2,0.02579,0.034998,-0.0034794,0.038616,-0.0093991,0.019541,-0.020909
3,0.023159,0.031709,-0.011701,0.038944,-0.0061104,0.028092,-0.027487
4,0.021514,0.027763,-0.018278,0.035327,-0.0061104,0.035656,-0.029131
5,0.025132,0.026119,-0.018278,0.028421,-0.0061104,0.038944,-0.021896
6,0.034998,0.027763,-0.012688,0.024474,-0.0097279,0.034011,-0.010057
7,0.04322,0.030394,-0.004466,0.025132,-0.019594,0.022172,-0.00019077
8,0.041247,0.03434,-0.00019077,0.024145,-0.031104,0.0090175,0.002769
9,0.030065,0.0373,-0.0015062,0.023159,-0.039326,-0.0031506,0.0047422
10,0.012306,0.038616,-0.0031506,0.024145,-0.040641,-0.011372,0.010333
11,-0.0011774,0.036971,-0.0031506,0.027105,-0.036037,-0.015976,0.019541
12,-0.0057815,0.033683,-0.0024928,0.02875,-0.029131,-0.018278,0.022501
13,-0.0047949,0.026119,-0.0031506,0.026447,-0.022225,-0.019594,0.017239
14,-0.0008485,0.018884,-0.0031506,0.020857,-0.016634,-0.018607,0.0086887
15,0.0040845,0.014279,-0.0018351,0.012635,-0.011372,-0.013345,0.00046697
16,0.0073732,0.014608,0.0024402,0.0057288,-0.00051963,-0.0038083,-0.004466
17,0.0077021,0.015924,0.0070443,0.00079584,0.013293,0.0050711,-0.0074258
18,0.0024402,0.020528,0.010333,-0.0031506,0.021843,0.013293,-0.01203
19,-0.0028217,0.024474,0.010004,-0.0061104,0.019541,0.019541,-0.016963
20,-0.0064392,0.026447,0.0086887,-0.0051238,0.010333,0.024145,-0.025185
21,-0.0087413,0.021186,0.0063866,0.0021113,0.0014536,0.024474,-0.033735
22,-0.0093991,0.010004,0.0044134,0.013951,-0.00051963,0.013951,-0.042286
23,-0.0084125,-0.0034794,0.0057288,0.027434,0.0040845,0.0024402,-0.044588
24,-0.0061104,-0.016634,0.0083598,0.037958,0.010662,-0.0038083,-0.040641
25,-0.00051963,-0.029789,0.0086887,0.041575,0.017239,-0.0051238,-0.032091
26,0.0060577,-0.038339,0.0037556,0.037958,0.023159,-0.002164,-0.024527
27,0.0070443,-0.044259,-0.0011774,0.031709,0.025132,0.0057288,-0.021238
28,0.0017824,-0.044259,-0.0024928,0.027105,0.02283,0.012306,-0.018278
29,-0.0051238,-0.035708,0.00079584,0.024474,0.011977,0.016581,-0.011372
30,-0.013345,-0.020909,0.0060577,0.02283,-0.0015062,0.016581,0.002769
31,-0.018278,-0.0067681,0.010333,0.021514,-0.011701,0.0096753,0.017568
32,-0.024198,0.002769,0.0096753,0.017568,-0.016634,-0.0041372,0.027763
33,-0.029789,0.0050711,0.0077021,0.013293,-0.015648,-0.020909,0.031381
34,-0.031104,-0.0008485,0.0060577,0.011977,-0.012359,-0.030775,0.027105
35,-0.027816,-0.010057,0.0077021,0.012635,-0.0054526,-0.028473,0.02283
36,-0.02354,-0.020252,0.010991,0.014608,0.0044134,-0.01795,0.023159
37,-0.017621,-0.028144,0.016581,0.014937,0.015266,-0.0054526,0.024145
38,-0.012688,-0.033078,0.024803,0.012964,0.023488,0.0054,0.024145
39,-0.0074258,-0.037682,0.033683,0.0086887,0.031709,0.010333,0.019212
40,-0.0034794,-0.045246,0.043877,0.0050711,0.035656,0.0096753,0.0070443
41,0.00079584,-0.053796,0.051113,0.0047422,0.028092,0.0057288,-0.011701
42,0.002769,-0.06136,0.05473,0.0093464,0.012635,0.0014536,-0.027487
43,-0.0015062,-0.069253,0.051441,0.017897,-0.002164,-0.0041372,-0.033406
44,-0.010057,-0.078461,0.041575,0.028092,-0.0077547,-0.011701,-0.024527
45,-0.013674,-0.087341,0.027434,0.035985,-0.002164,-0.019265,-0.0087413
46,-0.013345,-0.09326,0.013622,0.03434,0.0077021,-0.023211,0.0044134
47,-0.014332,-0.092274,0.0030979,0.029078,0.015266,-0.024856,0.011648
48,-0.015648,-0.082736,-0.0015062,0.025132,0.020528,-0.018936,0.014608
49,-0.014332,-0.066951,-0.00051963,0.026447,0.023817,-0.0093991,0.013622
50,-0.0097279,-0.04985,0.0040845,0.032696,0.025461,-0.0024928,0.010004
51,-0.0077547,-0.03538,0.0060577,0.037958,0.02579,-0.0031506,0.0057288
52,-0.0077547,-0.026171,0.0001381,0.0373,0.02579,-0.0097279,0.0011247
53,-0.0084125,-0.019594,-0.007097,0.030723,0.024145,-0.016634,-0.00051963
54,-0.010057,-0.010715,-0.011701,0.017239,0.017239,-0.018607,0.0021113
55,-0.012359,0.002769,-0.015648,0.0001381,0.0096753,-0.015648,0.0070443
56,-0.012359,0.018555,-0.019594,-0.012359,0.0044134,-0.010715,0.01132
57,-0.010386,0.033683,-0.018936,-0.015319,-0.002164,-0.004466,0.014937
58,-0.0051238,0.044535,-0.016963,-0.011701,-0.0057815,-0.0015062,0.020528
59,0.0040845,0.050784,-0.013674,-0.007097,-0.0041372,-0.004466,0.026447
60,0.013293,0.053415,-0.010715,-0.0077547,0.0037556,-0.01203,0.030723
61,0.020857,0.057032,-0.010715,-0.013674,0.012635,-0.022225,0.034998
62,0.024145,0.060321,-0.013345,-0.01795,0.018226,-0.032749,0.039273
63,0.021186,0.064267,-0.014003,-0.015648,0.01987,-0.041628,0.04881
64,0.014608,0.066569,-0.01499,-0.011701,0.01987,-0.048205,0.059005
65,0.0080309,0.071502,-0.016634,-0.0054526,0.022172,-0.049192,0.065912
66,0.0050711,0.078409,-0.020252,0.0021113,0.02579,-0.042615,0.066898
67,0.0044134,0.086959,-0.020909,0.0034268,0.029078,-0.03538,0.066569
68,0.0080309,0.090905,-0.018278,-0.00051963,0.02875,-0.027158,0.06361
69,0.015266,0.093208,-0.013345,-0.0041372,0.021843,-0.016305,0.061965
70,0.023817,0.093865,-0.0034794,-0.004466,0.014279,-0.007097,0.061636
71,0.029736,0.096825,0.0054,-0.0011774,0.012635,-0.0047949,0.059005
72,0.028421,0.097483,0.01132,-0.0018351,0.017568,-0.004466,0.05177
73,0.024474,0.09551,0.012635,-0.007097,0.02579,-0.0015062,0.040918
74,0.01987,0.086301,0.010333,-0.011701,0.032696,0.0067154,0.029407
75,0.017239,0.071173,0.0080309,-0.011701,0.032696,0.012635,0.021843
76,0.017239,0.052757,0.0086887,-0.0097279,0.025132,0.0086887,0.020199
77,0.018555,0.033683,0.014608,-0.0093991,0.014279,-0.0015062,0.021843
78,0.018884,0.015924,0.024803,-0.016963,0.0044134,-0.01203,0.023488
79,0.018555,0.00079584,0.034011,-0.030118,-0.0034794,-0.017621,0.024145
80,0.013293,-0.015319,0.040918,-0.045574,-0.0074258,-0.017292,0.026776
81,0.0037556,-0.028802,0.044206,-0.061031,-0.010386,-0.013345,0.028092
82,-0.0074258,-0.036037,0.042233,-0.07287,-0.016634,-0.0074258,0.025461
83,-0.014661,-0.034064,0.038944,-0.073857,-0.024856,-0.0015062,0.017239
84,-0.015648,-0.022883,0.036971,-0.06432,-0.030775,0.0001381,0.0077021
85,-0.0097279,-0.0093991,0.035327,-0.048534,-0.03538,-0.0061104,0.0021113
86,0.002769,-0.0015062,0.031052,-0.028144,-0.036366,-0.015976,0.0030979
87,0.018884,-0.0024928,0.024145,-0.010386,-0.033735,-0.021896,0.010662
88,0.033683,-0.01203,0.01691,0.0014536,-0.027816,-0.020252,0.018555
89,0.042562,-0.020909,0.010991,0.0080309,-0.025185,-0.011372,0.024474
90,0.042233,-0.025842,0.0050711,0.013951,-0.024198,0.0001381,0.029078
91,0.035656,-0.025842,-0.0008485,0.018884,-0.023869,0.0090175,0.03434
92,0.023817,-0.02354,-0.0054526,0.025132,-0.021238,0.012306,0.0373
93,0.0093464,-0.019923,-0.0024928,0.029078,-0.018607,0.012635,0.0373
94,-0.00019077,-0.016963,0.0077021,0.030723,-0.015976,0.01132,0.030394
95,-0.004466,-0.016305,0.015266,0.028092,-0.014332,0.0050711,0.017239
96,-0.0047949,-0.015319,0.011977,0.016581,-0.013674,-0.0051238,0.0037556
97,-0.004466,-0.011701,-0.0015062,0.0030979,-0.010386,-0.011701,-0.0038083
98,-0.004466,-0.0047949,-0.01499,-0.0074258,-0.0034794,-0.011372,-0.007097
99,-0.0087413,0.0030979,-0.02354,-0.011043,0.0021113,-0.0028217,-0.0097279
100,-0.015648,0.0086887,-0.024856,-0.0047949,0.0011247,0.0070443,-0.013674
101,-0.024527,0.0093464,-0.025185,0.010004,-0.0024928,0.011977,-0.016634
102,-0.030447,0.0037556,-0.030447,0.027105,-0.0074258,0.0086887,-0.016634
103,-0.033078,-0.0061104,-0.039326,0.037629,-0.011043,0.0034268,-0.014003
104,-0.028473,-0.012359,-0.045574,0.039931,-0.013674,0.0011247,-0.013017
105,-0.020909,-0.013345,-0.042615,0.036642,-0.017621,0.0017824,-0.014332
106,-0.013017,-0.0087413,-0.02946,0.030723,-0.020909,-0.0011774,-0.018278
107,-0.0034794,-0.0018351,-0.011701,0.026776,-0.024198,-0.0031506,-0.024527
108,0.0034268,0.0063866,0.0030979,0.027763,-0.0265,-0.0047949,-0.030118
109,0.0070443,0.0090175,0.010662,0.033354,-0.0265,-0.0034794,-0.034064
110,0.0037556,0.0037556,0.0093464,0.038616,-0.021238,0.00079584,-0.035708
111,-0.0034794,-0.0061104,-0.00051963,0.038287,-0.015648,0.0011247,-0.031762
112,-0.010057,-0.017292,-0.012688,0.030394,-0.011701,-0.004466,-0.020581
113,-0.011372,-0.0265,-0.020252,0.020199,-0.0093991,-0.016305,-0.0074258
114,-0.0084125,-0.032749,-0.020909,0.010662,-0.011372,-0.024527,0.0054
115,-0.0047949,-0.039984,-0.015319,0.0034268,-0.016305,-0.024856,0.014608
116,-0.0038083,-0.045903,-0.0093991,-0.0008485,-0.022554,-0.020581,0.020528
117,-0.004466,-0.049192,-0.0077547,-0.0018351,-0.023869,-0.011372,0.022172
118,-0.0067681,-0.047548,-0.010057,-0.00019077,-0.016634,0.0030979,0.020199
119,-0.010386,-0.043601,-0.015648,0.0014536,-0.0038083,0.018555,0.010004
120,-0.016305,-0.040313,-0.020581,0.0011247,0.0083598,0.030394,-0.0077547
121,-0.020581,-0.039326,-0.021567,0.0047422,0.017897,0.032696,-0.029789
122,-0.022883,-0.038668,-0.018936,0.012635,0.023159,0.029407,-0.049192
123,-0.019923,-0.037682,-0.013345,0.021843,0.022172,0.024145,-0.058729
124,-0.0093991,-0.032749,-0.0074258,0.032696,0.01132,0.021843,-0.056098
125,0.0030979,-0.020252,-0.0038083,0.04322,-0.0054526,0.024474,-0.039655
126,0.010333,-0.0024928,-0.0024928,0.052757,-0.022554,0.027763,-0.016963
127,0.0070443,0.013293,-0.0034794,0.056374,-0.033406,0.027434,0.0047422
128,-0.002164,0.028092,-0.0064392,0.055388,-0.034722,0.020528,0.021514
129,-0.007097,0.04322,-0.01203,0.057032,-0.027158,0.010004,0.028421
130,-0.0031506,0.059005,-0.016634,0.069529,-0.011043,0.0037556,0.027105
131,0.0090175,0.073804,-0.01795,0.084986,0.0034268,0.0090175,0.023159
132,0.016253,0.081697,-0.014332,0.09255,0.0096753,0.021514,0.016253
133,0.014608,0.079724,-0.0090702,0.088275,0.0054,0.032696,0.0086887
134,0.0054,0.0692,-0.0064392,0.07512,-0.0074258,0.035656,0.0011247
135,-0.0067681,0.052099,-0.0057815,0.059005,-0.021567,0.029407,0.0001381
136,-0.016963,0.034998,-0.004466,0.044864,-0.029789,0.018884,0.0047422
137,-0.02354,0.021514,-0.0057815,0.036314,-0.027816,0.013293,0.012306
138,-0.027158,0.015266,-0.010386,0.026447,-0.019594,0.010991,0.015595
139,-0.029131,0.017239,-0.014003,0.014279,-0.0087413,0.0090175,0.018226
140,-0.028144,0.026447,-0.015648,0.0047422,0.0017824,0.0093464,0.018226
141,-0.023869,0.033683,-0.01499,0.0021113,0.011977,0.014608,0.014279
142,-0.016963,0.039602,-0.013017,0.0054,0.020199,0.018555,0.013293
143,-0.0090702,0.042891,-0.011701,0.010991,0.024145,0.02283,0.021514
144,-0.0031506,0.045851,-0.014661,0.013622,0.024803,0.029407,0.034669
145,0.0001381,0.046508,-0.018607,0.01132,0.01987,0.038944,0.048153
146,0.0017824,0.047166,-0.018607,0.0030979,0.010333,0.04618,0.055717
147,0.0030979,0.049139,-0.01795,-0.0041372,0.0011247,0.046837,0.05473
148,0.0030979,0.048482,-0.016963,-0.0057815,-0.0034794,0.041904,0.042891
149,0.0021113,0.04881,-0.018278,-0.00019077,-0.0024928,0.032696,0.025132
150,0.0030979,0.051113,-0.018936,0.0067154,-0.00019077,0.018226,0.0096753
151,0.0070443,0.055388,-0.018278,0.012964,-0.0008485,0.0034268,0.0021113
152,0.0090175,0.06065,-0.01499,0.015595,-0.0051238,-0.012359,0.0054
153,0.0070443,0.061307,-0.0087413,0.013951,-0.010386,-0.023211,0.017568
154,0.0014536,0.059334,-0.0024928,0.0090175,-0.010715,-0.020581,0.030723
155,-0.0074258,0.058019,0.0001381,0.0040845,-0.0038083,-0.012359,0.036642
156,-0.013674,0.060979,0.0017824,0.0001381,0.0050711,-0.0080836,0.032367
157,-0.01795,0.064596,0.0001381,-0.0034794,0.0096753,-0.0093991,0.017897
158,-0.015976,0.065254,-0.00051963,-0.0087413,0.0080309,-0.013017,-0.00019077
159,-0.007097,0.062294,0.00079584,-0.014661,0.0047422,-0.016634,-0.014332
160,0.0037556,0.057032,0.0030979,-0.01795,0.00079584,-0.016305,-0.015976
161,0.012306,0.05177,0.0037556,-0.021567,0.0001381,-0.013345,-0.007097
162,0.015924,0.050455,0.0021113,-0.024527,0.0044134,-0.007097,0.0037556
163,0.014937,0.051441,-0.0018351,-0.027158,0.010991,0.0047422,0.010991
164,0.0096753,0.050126,-0.0057815,-0.033406,0.017239,0.021514,0.015924
165,0.0034268,0.047166,-0.0077547,-0.044588,0.018884,0.033683,0.022172
166,0.0014536,0.045522,-0.0074258,-0.057414,0.018226,0.036971,0.032367
167,0.0063866,0.045193,-0.0038083,-0.066951,0.016253,0.028092,0.040918
168,0.013622,0.04618,-0.00019077,-0.069253,0.012306,0.0093464,0.046508
169,0.023488,0.047495,0.0011247,-0.063991,0.0077021,-0.011372,0.047824
170,0.033354,0.047824,-0.0011774,-0.050179,0.0021113,-0.026171,0.042891
171,0.039602,0.043549,-0.0061104,-0.031104,-0.0047949,-0.034064,0.030723
172,0.043877,0.031052,-0.012688,-0.010715,-0.013345,-0.034393,0.014279
173,0.043877,0.012306,-0.014003,0.0047422,-0.024856,-0.03242,-0.0008485
174,0.041575,-0.0090702,-0.0093991,0.013951,-0.033406,-0.030775,-0.010715
175,0.038287,-0.025842,-0.0028217,0.018555,-0.034064,-0.027487,-0.014661
176,0.036971,-0.03538,0.0021113,0.017568,-0.032091,-0.020581,-0.012359
177,0.033025,-0.041957,0.002769,0.014937,-0.029789,-0.010057,-0.0090702
178,0.025461,-0.050836,-0.0018351,0.010991,-0.026829,0.0011247,-0.0074258
179,0.014937,-0.06136,-0.007097,0.0063866,-0.023211,0.0090175,0.00046697
180,0.0011247,-0.068924,-0.011701,0.0024402,-0.017621,0.0086887,0.015266
181,-0.016963,-0.071884,-0.012688,-0.0008485,-0.014661,-0.00051963,0.029078
182,-0.03538,-0.071884,-0.0097279,-0.0028217,-0.016963,-0.010386,0.032696
183,-0.04985,-0.071555,-0.0038083,-0.0038083,-0.022225,-0.020252,0.025132
184,-0.054454,-0.069582,0.0014536,0.0001381,-0.025842,-0.028802,0.012306
185,-0.047548,-0.065964,0.0080309,0.0096753,-0.028802,-0.032091,-0.00051963
186,-0.032091,-0.058729,0.01132,0.018226,-0.028802,-0.027158,-0.012688
187,-0.01795,-0.047219,0.012964,0.024145,-0.023211,-0.019923,-0.023211
188,-0.0084125,-0.037353,0.010662,0.027434,-0.010057,-0.011701,-0.031104
189,-0.0057815,-0.033406,0.0050711,0.02579,0.0096753,-0.0028217,-0.036366
190,-0.0087413,-0.036366,0.0014536,0.017897,0.027434,0.0037556,-0.03538
191,-0.01499,-0.042615,-0.00019077,0.0070443,0.034669,0.0047422,-0.031762
192,-0.021896,-0.04985,0.0024402,-0.0038083,0.027763,-0.0018351,-0.029789
193,-0.027816,-0.055112,0.0063866,-0.011043,0.017568,-0.012359,-0.033406
194,-0.02946,-0.054125,0.0086887,-0.012688,0.012306,-0.027158,-0.042615
195,-0.023211,-0.048863,0.0090175,-0.0084125,0.011648,-0.038339,-0.051823
196,-0.010386,-0.039326,0.0070443,-0.00051963,0.013622,-0.046232,-0.05544
197,0.0054,-0.032091,0.002769,0.002769,0.016253,-0.047548,-0.049192
198,0.01691,-0.030447,-0.0011774,-0.0018351,0.018884,-0.042286,-0.034064
199,0.02283,-0.033078,-0.0018351,-0.0077547,0.020199,-0.033406,-0.014332
200,0.021843,-0.035051,0.0030979,-0.013017,0.015924,-0.025514,-0.0015062
201,0.018555,-0.032749,0.012306,-0.01203,0.0034268,-0.018936,-0.0041372
202,0.015595,-0.027158,0.024145,-0.0041372,-0.010386,-0.011701,-0.018278
203,0.012964,-0.025185,0.034011,0.0070443,-0.020252,-0.0067681,-0.030775
204,0.013293,-0.030447,0.039273,0.014937,-0.020909,-0.004466,-0.034393
205,0.017239,-0.042615,0.037958,0.018555,-0.01499,-0.007097,-0.031433
206,0.017568,-0.060373,0.031709,0.020857,-0.0061104,-0.012688,-0.028802
207,0.015266,-0.081092,0.020528,0.028092,0.0001381,-0.017621,-0.03242
208,0.010991,-0.10017,0.0063866,0.038616,-0.0015062,-0.019265,-0.04097
209,0.0090175,-0.11102,-0.0077547,0.044206,-0.0097279,-0.017621,-0.050507
210,0.012964,-0.11102,-0.017292,0.036642,-0.01499,-0.016634,-0.056427
211,0.017897,-0.10017,-0.02354,0.01987,-0.01795,-0.01795,-0.056756
212,0.019212,-0.079119,-0.024198,0.0021113,-0.018607,-0.016634,-0.050507
213,0.017568,-0.055112,-0.020252,-0.0077547,-0.020581,-0.010057,-0.042615
214,0.011977,-0.036695,-0.012688,-0.0054526,-0.022883,-0.0015062,-0.03242
215,0.0057288,-0.027487,-0.0061104,0.0047422,-0.021896,0.0054,-0.022225
216,0.0011247,-0.024856,-0.00051963,0.012306,-0.015976,0.0040845,-0.015976
217,-0.0038083,-0.023211,0.0050711,0.010662,-0.010715,-0.0031506,-0.011701
218,-0.010057,-0.020581,0.010004,0.0024402,-0.0087413,-0.013674,-0.0090702
219,-0.017621,-0.013017,0.01132,-0.0038083,-0.007097,-0.01795,-0.0067681
220,-0.023869,-0.0028217,0.010991,-0.0011774,-0.0038083,-0.013017,-0.0047949
221,-0.027816,0.0083598,0.01132,0.0093464,-0.0011774,-0.004466,0.0017824
222,-0.027816,0.019212,0.010662,0.019212,-0.004466,0.0040845,0.012964
223,-0.025842,0.025132,0.0080309,0.020528,-0.012688,0.012964,0.023488
224,-0.02354,0.026776,0.0017824,0.015266,-0.020909,0.019212,0.031709
225,-0.017621,0.026447,-0.007097,0.0037556,-0.023869,0.021514,0.0373
226,-0.010057,0.027105,-0.017292,-0.0064392,-0.017292,0.023817,0.041247
227,-0.0038083,0.029736,-0.022225,-0.010715,-0.004466,0.026776,0.039602
228,-0.004466,0.030065,-0.020581,-0.0057815,0.0090175,0.029078,0.036642
229,-0.0077547,0.028421,-0.018607,0.0050711,0.01691,0.031709,0.036314
230,-0.013674,0.028421,-0.019923,0.01132,0.020199,0.034669,0.038616
231,-0.014661,0.031381,-0.025514,0.0083598,0.021186,0.036314,0.038287
232,-0.013017,0.035656,-0.033078,0.002769,0.018555,0.03434,0.035985
233,-0.0097279,0.039602,-0.035051,-0.002164,0.014608,0.031052,0.0373
234,-0.0038083,0.04322,-0.032091,-0.0057815,0.010333,0.032367,0.041904
235,0.0014536,0.049797,-0.025514,-0.0064392,0.0063866,0.036971,0.045851
236,0.0060577,0.059663,-0.019923,-0.0038083,0.0030979,0.04026,0.052757
237,0.0073732,0.071173,-0.014661,0.0024402,0.0021113,0.036314,0.062623
238,0.0040845,0.079395,-0.0090702,0.01132,0.0014536,0.02579,0.072489
239,0.00079584,0.085972,-0.00051963,0.016253,-0.00051963,0.013293,0.077093
240,0.0063866,0.089261,0.0080309,0.013951,-0.0031506,0.0044134,0.073147
241,0.017897,0.091563,0.015595,0.0083598,-0.0038083,0.0034268,0.059005
242,0.031052,0.091563,0.020857,0.0077021,-0.0015062,0.0077021,0.042233
243,0.040589,0.088275,0.02283,0.012964,0.0011247,0.0093464,0.029078
244,0.044535,0.081368,0.02283,0.021186,0.0001381,0.0086887,0.025132
245,0.04026,0.0692,0.020857,0.028092,-0.0051238,0.0093464,0.030723
246,0.033354,0.055059,0.015924,0.031381,-0.013017,0.01132,0.038616
247,0.028092,0.044206,0.0090175,0.028092,-0.020252,0.014608,0.04322
248,0.027763,0.039273,0.0034268,0.018555,-0.025514,0.015924,0.040589
249,0.030723,0.039273,0.0021113,0.0054,-0.024856,0.013622,0.032367
250,0.031381,0.041575,0.0050711,-0.0057815,-0.019594,0.010333,0.021843
251,0.024803,0.042891,0.0093464,-0.010715,-0.011372,0.0044134,0.014608
252,0.013622,0.038616,0.014279,-0.014661,-0.0034794,-0.0041372,0.012635
253,0.0060577,0.028092,0.017568,-0.014003,0.0034268,-0.01499,0.015924
254,0.0060577,0.017239,0.018555,-0.012359,0.0060577,-0.027816,0.020199
255,0.014608,0.010991,0.018555,-0.012359,0.0037556,-0.037353,0.026447
256,0.024145,0.011977,0.01691,-0.016963,-0.004466,-0.038011,0.029407
257,0.028421,0.017568,0.015924,-0.023211,-0.012688,-0.033735,0.026447
258,0.025461,0.022172,0.014608,-0.027816,-0.01795,-0.030118,0.024803
259,0.018226,0.023159,0.017897,-0.026829,-0.018278,-0.027487,0.029078
260,0.0096753,0.021514,0.020528,-0.023211,-0.01795,-0.022554,0.04026
261,0.0017824,0.020857,0.020857,-0.021238,-0.014003,-0.016634,0.055388
262,0.0001381,0.01691,0.018555,-0.025514,-0.002164,-0.013674,0.070187
263,0.0011247,0.010004,0.011977,-0.030118,0.013293,-0.017292,0.077751
264,0.0017824,0.0024402,-0.00019077,-0.033078,0.027763,-0.023869,0.076435
265,0.002769,-0.0018351,-0.014332,-0.033078,0.0373,-0.028473,0.067556
266,0.0047422,0.00079584,-0.023211,-0.025842,0.042233,-0.026829,0.05473
267,0.0086887,0.0086887,-0.024856,-0.014661,0.042891,-0.019265,0.044864
268,0.016581,0.021186,-0.024527,-0.0047949,0.041904,-0.013017,0.038287
269,0.024803,0.035985,-0.022225,0.0060577,0.036314,-0.011701,0.038287
270,0.028421,0.049468,-0.017621,0.016253,0.025461,-0.013017,0.039931
271,0.02283,0.056046,-0.010057,0.027105,0.012964,-0.0093991,0.042562
272,0.010333,0.053743,-0.0008485,0.034998,0.0017824,0.0014536,0.044206
273,-0.0038083,0.046508,0.0057288,0.037958,-0.0067681,0.0093464,0.044535
274,-0.013345,0.037958,0.010004,0.036971,-0.014003,0.010991,0.043877
275,-0.021238,0.031381,0.012635,0.033683,-0.01795,0.002769,0.039273
276,-0.027487,0.02579,0.013293,0.029078,-0.013017,-0.011043,0.031052
277,-0.02946,0.021843,0.01132,0.026119,-0.00019077,-0.025514,0.023817
278,-0.026171,0.018884,0.0060577,0.020199,0.016253,-0.034393,0.021186
279,-0.017292,0.014279,-0.00019077,0.013622,0.025132,-0.034064,0.01691
280,-0.0061104,0.0093464,-0.0054526,0.0077021,0.025132,-0.0265,0.010004
281,0.0030979,0.0044134,-0.010057,0.0086887,0.018884,-0.011701,0.0021113
282,0.0080309,0.0017824,-0.013674,0.013622,0.0093464,0.0054,-0.002164
283,0.0077021,0.002769,-0.015319,0.01691,-0.0031506,0.020528,0.0030979
284,0.00079584,0.0040845,-0.014332,0.017897,-0.011372,0.030723,0.01691
285,-0.0080836,0.0057288,-0.010386,0.017239,-0.010715,0.036314,0.030065
286,-0.017292,0.0060577,-0.0024928,0.018555,-0.004466,0.040589,0.036642
287,-0.02354,0.0047422,0.0086887,0.024145,0.0044134,0.038287,0.033025
288,-0.025514,0.0030979,0.01987,0.031052,0.012306,0.026447,0.020857
289,-0.022554,0.0034268,0.024474,0.038944,0.016581,0.010662,0.0070443
290,-0.014003,0.0080309,0.017897,0.048153,0.017568,-0.0041372,0.0001381
291,-0.0087413,0.012306,0.0054,0.052757,0.014937,-0.013674,0.0083598
292,-0.010715,0.013293,-0.007097,0.049468,0.010991,-0.019594,0.022501
293,-0.016963,0.0083598,-0.013674,0.039273,0.0090175,-0.020252,0.032696
294,-0.019594,-0.0011774,-0.011701,0.027434,0.0037556,-0.013017,0.030065
295,-0.01499,-0.0087413,-0.0038083,0.019212,-0.0031506,-0.0041372,0.015266
296,-0.007097,-0.0077547,0.0021113,0.011977,-0.0064392,0.0030979,-0.0057815
297,-0.0008485,0.0060577,0.0044134,0.0030979,-0.0031506,0.0060577,-0.023869
298,0.0011247,0.023159,0.0044134,-0.0024928,0.0063866,0.0054,-0.033078
299,-0.0038083,0.036314,0.0050711,-0.00019077,0.014608,0.00046697,-0.032091
300,-0.0097279,0.040918,0.0060577,0.0080309,0.016253,-0.0031506,-0.020909
301,-0.011372,0.042891,0.0067154,0.015266,0.0083598,-0.0041372,-0.002164
302,-0.0041372,0.04322,0.0034268,0.016581,-0.0067681,-0.0015062,0.017239
303,0.0080309,0.040918,-0.0031506,0.010333,-0.02354,0.0047422,0.033683
304,0.016253,0.038616,-0.010715,0.002769,-0.03538,0.012306,0.044864
305,0.015924,0.035656,-0.013674,-0.0051238,-0.039984,0.016581,0.046508
306,0.010662,0.030394,-0.014661,-0.012688,-0.036366,0.015266,0.037629
307,0.0017824,0.024803,-0.016634,-0.021238,-0.031104,0.012306,0.02283
308,-0.0077547,0.022172,-0.016963,-0.032091,-0.025514,0.010333,0.0080309
309,-0.015648,0.023159,-0.013345,-0.041299,-0.023211,0.010991,-0.0018351
310,-0.018607,0.025132,-0.0077547,-0.044259,-0.023869,0.013622,-0.004466
311,-0.016305,0.024145,-0.0041372,-0.043272,-0.023211,0.013951,-0.004466
312,-0.011701,0.019212,-0.004466,-0.038339,-0.021896,0.0086887,-0.0080836
313,-0.0038083,0.015266,-0.0074258,-0.030775,-0.016963,-0.0047949,-0.014332
314,0.002769,0.014279,-0.0074258,-0.020252,-0.010057,-0.019923,-0.018278
315,0.0086887,0.015924,-0.0074258,-0.010715,-0.007097,-0.031104,-0.019594
316,0.010991,0.019541,-0.0064392,-0.002164,-0.012359,-0.036366,-0.019265
317,0.0083598,0.025132,-0.0074258,0.0030979,-0.023211,-0.036037,-0.016634
318,0.00079584,0.030723,-0.0090702,0.0037556,-0.033406,-0.029131,-0.014661
319,-0.0067681,0.036971,-0.011043,0.0034268,-0.037353,-0.017292,-0.010715
320,-0.013017,0.039931,-0.012688,0.0021113,-0.033735,-0.0051238,-0.007097
321,-0.01795,0.036642,-0.013345,0.0001381,-0.02354,0.0047422,-0.0077547
322,-0.017621,0.029736,-0.011701,-0.0015062,-0.013674,0.0073732,-0.012688
323,-0.013674,0.01987,-0.0084125,-0.0031506,-0.0054526,0.0044134,-0.01795
324,-0.0090702,0.012964,-0.0047949,-0.0041372,0.0030979,0.00046697,-0.025185
325,-0.0051238,0.011648,-0.004466,-0.004466,0.010333,-0.002164,-0.036366
326,0.00046697,0.014608,-0.0064392,-0.0061104,0.013293,-0.0047949,-0.049192
327,0.0070443,0.016581,-0.012359,-0.0057815,0.0096753,-0.0077547,-0.059058
328,0.016253,0.014608,-0.018607,-0.0034794,0.0063866,-0.011701,-0.060045
329,0.027763,0.010662,-0.021896,0.00046697,0.0030979,-0.013674,-0.054454
330,0.035656,0.0077021,-0.021238,0.0070443,0.00046697,-0.0087413,-0.045903
331,0.038287,0.002769,-0.019594,0.0080309,0.00046697,0.0021113,-0.039984
332,0.03434,-0.0034794,-0.017621,0.0047422,-0.00019077,0.012306,-0.036366
333,0.024145,-0.011372,-0.017292,-0.0011774,0.00079584,0.018226,-0.033735
334,0.0070443,-0.01795,-0.017292,-0.0028217,0.0030979,0.021186,-0.029131
335,-0.0061104,-0.020252,-0.016634,-0.00051963,0.0021113,0.020199,-0.023211
336,-0.0061104,-0.021896,-0.014003,0.0057288,-0.0064392,0.012306,-0.020252
337,0.0044134,-0.023869,-0.01203,0.012306,-0.018278,-0.0018351,-0.019594
338,0.015924,-0.026171,-0.0077547,0.019212,-0.027487,-0.016634,-0.023211
339,0.01987,-0.02946,-0.00051963,0.024474,-0.03242,-0.025842,-0.023869
340,0.015924,-0.033406,0.0073732,0.029736,-0.031433,-0.025185,-0.022554
341,0.0093464,-0.037682,0.013293,0.034011,-0.031433,-0.015319,-0.01499
342,0.0011247,-0.041957,0.012306,0.035985,-0.032091,-0.00051963,-0.0064392
343,-0.0031506,-0.04689,0.010662,0.035985,-0.034722,0.012306,0.0014536
344,-0.0038083,-0.055112,0.0086887,0.03434,-0.038668,0.015595,0.0040845
345,-0.002164,-0.063333,0.0080309,0.036971,-0.04393,0.0090175,0.0024402
346,-0.00019077,-0.07024,0.0054,0.043549,-0.050179,-0.0038083,-0.0028217
347,-0.0008485,-0.076159,0.0011247,0.050784,-0.052152,-0.01795,-0.0077547
348,-0.0011774,-0.07583,-0.0061104,0.058676,-0.050179,-0.025842,-0.012359
349,0.0034268,-0.067937,-0.012688,0.063281,-0.047219,-0.025185,-0.014661
350,0.010991,-0.054454,-0.011701,0.062952,-0.041299,-0.020252,-0.015648
351,0.017239,-0.041628,-0.0077547,0.058348,-0.035708,-0.012688,-0.018278
352,0.014608,-0.032091,-0.0057815,0.052428,-0.034064,-0.004466,-0.022225
353,0.0024402,-0.02946,-0.0090702,0.048153,-0.039326,0.0047422,-0.024198
354,-0.010715,-0.034064,-0.015319,0.044864,-0.047877,0.015924,-0.020581
355,-0.018607,-0.040313,-0.018607,0.042891,-0.055769,0.028421,-0.014661
356,-0.021896,-0.048205,-0.017292,0.04026,-0.0584,0.036314,-0.011701
357,-0.018278,-0.056427,-0.011372,0.035327,-0.051165,0.037629,-0.015648
358,-0.014003,-0.061689,-0.0024928,0.031052,-0.039655,0.039273,-0.018936
359,-0.0084125,-0.063991,0.0060577,0.028421,-0.028473,0.045851,-0.016963
360,-0.0028217,-0.063991,0.013293,0.02579,-0.017621,0.055717,-0.013017
361,0.0001381,-0.062018,0.020857,0.02579,-0.01499,0.059663,-0.01203
362,0.00079584,-0.056427,0.027105,0.029078,-0.021896,0.051113,-0.012359
363,0.00046697,-0.049192,0.027763,0.033025,-0.034064,0.029078,-0.013017
364,0.002769,-0.046561,0.022172,0.033354,-0.041299,0.0054,-0.010715
365,0.0060577,-0.045246,0.012306,0.027434,-0.038997,-0.010386,-0.007097
366,0.0063866,-0.043601,0.0001381,0.017897,-0.0265,-0.019265,-0.0028217
367,0.0024402,-0.041628,-0.0093991,0.0070443,-0.013017,-0.024198,0.0034268
368,-0.002164,-0.039655,-0.012359,-0.0034794,-0.0015062,-0.025185,0.013951
369,-0.0038083,-0.038011,-0.010386,-0.0097279,0.0070443,-0.024198,0.024474
370,-0.0015062,-0.037024,-0.007097,-0.012688,0.010991,-0.022554,0.026447
371,0.0017824,-0.040641,-0.0041372,-0.010057,0.011648,-0.020581,0.017568
372,0.0057288,-0.047877,-0.0031506,-0.0041372,0.0060577,-0.017621,0.0054
373,0.0077021,-0.054783,-0.004466,0.0014536,-0.002164,-0.011372,-0.00051963
374,0.0047422,-0.059716,-0.0028217,0.0021113,-0.0061104,-0.0024928,-0.00051963
375,-0.004466,-0.059058,-0.0011774,-0.0028217,-0.0047949,0.0067154,-0.0018351
376,-0.015319,-0.054783,0.0017824,-0.0093991,0.0034268,0.013951,-0.0080836
377,-0.022225,-0.046232,0.0034268,-0.012688,0.013951,0.017897,-0.018936
378,-0.024856,-0.034393,0.0040845,-0.012688,0.025132,0.018226,-0.028802
379,-0.023211,-0.022554,0.0040845,-0.0080836,0.033354,0.018884,-0.033078
380,-0.017621,-0.017292,0.0054,-0.0041372,0.039602,0.01987,-0.026829
381,-0.010386,-0.012688,0.0096753,-0.0047949,0.042562,0.019212,-0.011043
382,-0.0057815,-0.004466,0.016253,-0.0087413,0.04322,0.01691,0.0063866
383,-0.0067681,0.0044134,0.023488,-0.013674,0.041904,0.010662,0.018884
384,-0.010715,0.013293,0.026776,-0.016634,0.040589,-0.0024928,0.020528
385,-0.017621,0.020857,0.025132,-0.015976,0.041247,-0.018278,0.013293
386,-0.027816,0.027105,0.018555,-0.01499,0.045851,-0.028802,0.0001381
387,-0.038339,0.033025,0.0086887,-0.014003,0.051441,-0.033406,-0.0077547
388,-0.042944,0.039273,-0.0047949,-0.01499,0.05177,-0.034064,-0.004466
389,-0.043272,0.04618,-0.016305,-0.018278,0.041247,-0.033406,0.0063866
390,-0.038997,0.053415,-0.018936,-0.020252,0.024474,-0.033078,0.02283
391,-0.034393,0.061636,-0.014003,-0.020252,0.010991,-0.031104,0.036642
392,-0.031433,0.065254,-0.0054526,-0.019265,0.0057288,-0.029131,0.042233
393,-0.029131,0.067556,0.0011247,-0.022225,0.01132,-0.025842,0.040589
394,-0.025842,0.066898,0.0030979,-0.028802,0.025132,-0.019594,0.036642
395,-0.022554,0.062623,0.00046697,-0.031762,0.040918,-0.013017,0.036314
396,-0.019923,0.055717,-0.0047949,-0.025514,0.053086,-0.0087413,0.038944
397,-0.014661,0.050784,-0.010386,-0.01499,0.057032,-0.0097279,0.039602
398,-0.0041372,0.047166,-0.011043,-0.0057815,0.055388,-0.013674,0.037629
399,0.0073732,0.046837,-0.0077547,-0.0028217,0.050784,-0.020252,0.03434
400,0.015266,0.052757,-0.0034794,-0.0038083,0.045851,-0.024856,0.029407
401,0.018226,0.059992,-0.0028217,-0.004466,0.043877,-0.022883,0.021843
402,0.018884,0.06361,-0.0024928,-0.0031506,0.044206,-0.015976,0.018555
403,0.01691,0.063938,-0.004466,0.0021113,0.04322,-0.0084125,0.021186
404,0.014608,0.060321,-0.0054526,0.0050711,0.034669,-0.0024928,0.027763
405,0.011648,0.05473,-0.0061104,0.0021113,0.019541,0.0011247,0.035985
406,0.0093464,0.045522,-0.0057815,-0.0054526,0.0086887,0.0001381,0.04026
407,0.010991,0.039602,-0.004466,-0.0064392,0.0037556,-0.0008485,0.037629
408,0.016581,0.038287,-0.0057815,-0.00051963,0.0077021,-0.0038083,0.036314
409,0.025461,0.038944,-0.010715,0.010004,0.016581,-0.007097,0.039931
410,0.034011,0.038944,-0.01499,0.017239,0.027105,-0.010715,0.046837
411,0.036642,0.039602,-0.016963,0.015595,0.033025,-0.015319,0.053415
412,0.034669,0.047495,-0.015319,0.011648,0.034998,-0.021567,0.059663
413,0.026447,0.059663,-0.011701,0.012306,0.032696,-0.027158,0.059992
414,0.018555,0.070187,-0.0047949,0.017897,0.026447,-0.031433,0.055388
415,0.011977,0.076106,0.0050711,0.027105,0.018884,-0.033406,0.050455
416,0.0077021,0.077751,0.013293,0.035985,0.014279,-0.032091,0.048153
417,0.0060577,0.074791,0.01691,0.040918,0.010004,-0.030447,0.047824
418,0.0077021,0.066898,0.018226,0.039931,0.0054,-0.027816,0.04322
419,0.014279,0.056703,0.01987,0.037629,-0.0038083,-0.024527,0.031052
420,0.023488,0.041247,0.021514,0.03434,-0.018278,-0.02946,0.018555
421,0.033025,0.020857,0.017568,0.031052,-0.036366,-0.041628,0.010991
422,0.038616,-0.0031506,0.0093464,0.031709,-0.049521,-0.052481,0.010991
423,0.038616,-0.02354,-0.0008485,0.034011,-0.050179,-0.056427,0.014937
424,0.031709,-0.036366,-0.0097279,0.0373,-0.038997,-0.050507,0.021843
425,0.018555,-0.04097,-0.013017,0.0373,-0.025842,-0.038011,0.028092
426,0.0030979,-0.038339,-0.011043,0.0373,-0.01795,-0.025185,0.028421
427,-0.0077547,-0.03242,-0.0041372,0.039931,-0.016963,-0.011701,0.017568
428,-0.0077547,-0.027487,0.0070443,0.044864,-0.022883,-0.00019077,0.0017824
429,0.0001381,-0.026171,0.014279,0.052099,-0.030447,0.0090175,-0.01203
430,0.010004,-0.030775,0.016253,0.059005,-0.036366,0.014937,-0.016963
431,0.013622,-0.040313,0.012635,0.060321,-0.040313,0.018884,-0.011701
432,0.010662,-0.052152,0.0090175,0.058348,-0.039984,0.019541,0.0021113
433,0.0063866,-0.062347,0.0073732,0.055388,-0.031433,0.014608,0.015266
434,0.0014536,-0.07287,0.0086887,0.052428,-0.020581,0.002769,0.026776
435,-0.0054526,-0.081092,0.0083598,0.047824,-0.013674,-0.0087413,0.035985
436,-0.019594,-0.088327,0.0077021,0.042233,-0.012688,-0.014661,0.038616
437,-0.036695,-0.089972,0.0063866,0.038616,-0.013345,-0.017621,0.036314
438,-0.048863,-0.087012,0.0054,0.036314,-0.012688,-0.016634,0.030394
439,-0.047219,-0.081421,0.002769,0.036642,-0.0093991,-0.0087413,0.023817
440,-0.030775,-0.071884,0.00046697,0.037958,-0.0054526,0.0034268,0.018884
441,-0.0057815,-0.059716,-0.00051963,0.037958,-0.002164,0.016253,0.015266
442,0.017568,-0.043272,-0.00051963,0.037958,-0.0047949,0.021186,0.013293
443,0.032038,-0.024527,-0.00051963,0.035985,-0.011372,0.015595,0.015266
444,0.035656,-0.0090702,-0.0015062,0.031052,-0.023211,0.0057288,0.01987
445,0.031052,0.0017824,-0.0011774,0.021186,-0.037353,-0.00051963,0.024474
446,0.021186,0.0093464,0.0017824,0.0080309,-0.046232,0.00046697,0.02875
447,0.013622,0.013951,0.0070443,-0.0018351,-0.045246,0.012306,0.032367
448,0.013293,0.017897,0.012306,-0.004466,-0.036037,0.034669,0.029407
449,0.017239,0.022501,0.017239,-0.0008485,-0.021896,0.055717,0.020857
450,0.019541,0.030065,0.017239,0.0090175,-0.0077547,0.064596,0.0086887
451,0.017897,0.038287,0.011977,0.021843,0.0030979,0.059992,-0.0024928
452,0.013293,0.043877,0.0034268,0.031052,0.0093464,0.052428,-0.0051238
453,0.0086887,0.043877,-0.0090702,0.032696,0.011977,0.048482,0.002769
454,0.0057288,0.042233,-0.020581,0.028421,0.0096753,0.045193,0.018884
455,0.0017824,0.039931,-0.027487,0.021843,0.0017824,0.039602,0.02875
456,-0.004466,0.0373,-0.027487,0.013622,-0.010386,0.032038,0.030723
457,-0.0087413,0.033683,-0.023211,0.0070443,-0.024856,0.026447,0.027105
458,-0.007097,0.032696,-0.021238,0.0024402,-0.033735,0.02579,0.017568
459,-0.0054526,0.035327,-0.022554,0.0017824,-0.033406,0.032367,0.0063866
460,-0.0051238,0.040589,-0.025185,-0.0015062,-0.0265,0.046837,-0.0031506
461,-0.0057815,0.048482,-0.027487,-0.010057,-0.014661,0.055717,-0.0090702
462,-0.0067681,0.056703,-0.024856,-0.019594,-0.0018351,0.053415,-0.0084125
463,-0.0097279,0.059663,-0.019594,-0.027158,0.0077021,0.042233,-0.0034794
464,-0.012359,0.057032,-0.01499,-0.030118,0.0077021,0.030394,0.0014536
465,-0.011043,0.048153,-0.013345,-0.028802,-0.0008485,0.023817,0.002769
466,-0.0018351,0.034011,-0.015648,-0.023211,-0.011701,0.027763,0.0030979
467,0.01132,0.020528,-0.018607,-0.018607,-0.019594,0.038616,0.0030979
468,0.02283,0.014937,-0.018607,-0.019594,-0.020909,0.047495,0.0044134
469,0.02283,0.020528,-0.015976,-0.025514,-0.018936,0.050455,0.0086887
470,0.012964,0.031052,-0.011372,-0.03538,-0.016963,0.046837,0.014608
471,0.0017824,0.040918,-0.0074258,-0.041299,-0.014661,0.038944,0.021843
472,-0.004466,0.044864,-0.0074258,-0.044588,-0.014003,0.029407,0.026776
473,-0.0057815,0.040589,-0.0087413,-0.049192,-0.015319,0.01987,0.023817
474,-0.0038083,0.030723,-0.0093991,-0.053467,-0.024856,0.018884,0.014608
475,-0.0024928,0.020199,-0.0074258,-0.058729,-0.036366,0.026447,0.0030979
476,-0.0011774,0.017897,-0.0047949,-0.061689,-0.041957,0.033683,-0.0080836
477,0.00079584,0.024145,-0.0024928,-0.058729,-0.035708,0.035327,-0.014332
478,0.0050711,0.037629,0.00046697,-0.054454,-0.018936,0.030065,-0.015648
479,0.010662,0.050126,0.0001381,-0.051494,-0.0008485,0.019541,-0.016634
480,0.013293,0.060321,-0.0064392,-0.052481,0.0093464,0.010991,-0.019923
481,0.010662,0.066898,-0.018278,-0.053467,0.0070443,0.0037556,-0.023869
482,0.0054,0.070845,-0.028802,-0.050836,-0.0034794,-0.0015062,-0.027158
483,-0.0008485,0.072489,-0.034722,-0.049192,-0.01203,-0.0051238,-0.030118
484,-0.002164,0.072489,-0.036366,-0.048205,-0.01499,-0.0080836,-0.033406
485,0.00079584,0.070187,-0.033078,-0.047219,-0.01499,-0.0087413,-0.036695
486,0.0040845,0.068543,-0.025842,-0.044259,-0.013017,-0.0067681,-0.037024
487,0.0047422,0.069529,-0.017621,-0.043272,-0.0093991,-0.0051238,-0.031762
488,0.0034268,0.070187,-0.012359,-0.045246,-0.0041372,-0.0051238,-0.020909
489,0.0063866,0.067556,-0.012359,-0.050179,0.00079584,-0.007097,-0.0080836
490,0.018226,0.062623,-0.012688,-0.050507,0.0024402,-0.0077547,0.0037556
491,0.035656,0.055059,-0.013017,-0.043601,0.0014536,-0.0087413,0.015266
492,0.049797,0.045522,-0.015319,-0.031433,-0.00019077,-0.01203,0.023817
493,0.057032,0.032696,-0.019265,-0.020909,-0.0031506,-0.018278,0.028421
494,0.053086,0.021843,-0.019594,-0.016305,-0.0047949,-0.024198,0.028421
495,0.040589,0.01691,-0.015319,-0.016305,-0.0018351,-0.026829,0.022501
496,0.023488,0.015924,-0.0051238,-0.015648,0.0067154,-0.029131,0.010004
497,0.0080309,0.012306,0.0083598,-0.0051238,0.015924,-0.036695,-0.0057815
498,-0.0041372,-0.002164,0.020528,0.014937,0.020199,-0.044259,-0.019265
499,-0.014332,-0.024527,0.026119,0.036971,0.01691,-0.050179,-0.029131
500,-0.020252,-0.045246,0.024145,0.052099,0.0070443,-0.053467,-0.03538
501,-0.023869,-0.059387,0.014937,0.056046,-0.0067681,-0.054454,-0.036695
502,-0.027158,-0.061689,0.0057288,0.051441,-0.018607,-0.052481,-0.035051
503,-0.029789,-0.054783,-0.0008485,0.038944,-0.022883,-0.045903,-0.031104
504,-0.027816,-0.04393,-0.0038083,0.020857,-0.019265,-0.035051,-0.027158
505,-0.027487,-0.034722,-0.0011774,0.0060577,-0.010386,-0.024527,-0.02354
506,-0.031762,-0.028473,0.0037556,0.0024402,0.00046697,-0.019923,-0.018278
507,-0.037024,-0.023211,0.0090175,0.013293,0.0086887,-0.024856,-0.010057
508,-0.039984,-0.017621,0.014937,0.02875,0.0096753,-0.034722,-0.0074258
509,-0.036037,-0.015976,0.021186,0.039931,0.0034268,-0.044588,-0.0093991
510,-0.027816,-0.017621,0.027434,0.042891,-0.0064392,-0.050179,-0.014332
511,-0.019923,-0.020909,0.030065,0.042562,-0.015976,-0.049521,-0.016305
512,-0.016634,-0.026171,0.027434,0.042562,-0.020909,-0.046561,-0.016963
513,-0.015319,-0.030775,0.021186,0.051113,-0.021238,-0.045574,-0.016305
514,-0.016634,-0.033078,0.016253,0.062623,-0.019265,-0.042944,-0.011701
515,-0.019594,-0.03242,0.013622,0.068543,-0.015319,-0.040313,-0.0024928
516,-0.02354,-0.030775,0.013951,0.06624,-0.010715,-0.034393,0.0073732
517,-0.029789,-0.033406,0.015595,0.058019,-0.0074258,-0.024198,0.011648
518,-0.03538,-0.039326,0.020199,0.047495,-0.007097,-0.011701,0.010991
519,-0.036037,-0.044917,0.023817,0.037958,-0.0074258,0.00046697,0.010991
520,-0.030775,-0.047219,0.023488,0.029736,-0.002164,0.0093464,0.010333
521,-0.022883,-0.047877,0.018555,0.02579,0.012306,0.013622,0.0054
522,-0.012359,-0.046561,0.015924,0.026776,0.033025,0.010004,-0.0038083
523,-0.0034794,-0.042615,0.016253,0.030394,0.048482,0.0070443,-0.011701
524,0.0017824,-0.039655,0.016253,0.036971,0.049139,0.0044134,-0.016963
525,0.0017824,-0.038997,0.015595,0.042891,0.037629,-0.00051963,-0.021238
526,0.00079584,-0.041957,0.013951,0.047495,0.021514,-0.0087413,-0.022554
527,0.002769,-0.044259,0.0086887,0.046508,0.0083598,-0.016634,-0.020581
528,0.0073732,-0.044259,-0.0008485,0.040589,0.0040845,-0.021238,-0.016963
529,0.011648,-0.040313,-0.010386,0.034011,0.0093464,-0.025842,-0.010386
530,0.010662,-0.029789,-0.016634,0.027434,0.017897,-0.028802,-0.0008485
531,0.0037556,-0.017292,-0.01795,0.02579,0.02283,-0.02946,0.0093464
532,-0.0077547,-0.0077547,-0.016305,0.031381,0.02283,-0.027487,0.014279
533,-0.020252,-0.0018351,-0.012688,0.0373,0.018226,-0.023211,0.010662
534,-0.0265,0.0014536,-0.0064392,0.040589,0.012964,-0.018278,0.0034268
535,-0.020581,0.0044134,-0.0018351,0.038287,0.010991,-0.015648,-0.0067681
536,-0.0077547,0.0093464,-0.00051963,0.033683,0.010004,-0.016634,-0.010057
537,0.0054,0.014608,-0.0031506,0.026776,0.0086887,-0.017621,-0.0047949
538,0.012635,0.019212,-0.0077547,0.014608,0.0047422,-0.019265,0.0060577
539,0.013293,0.019212,-0.011701,0.0001381,-0.0018351,-0.018607,0.016253
540,0.0093464,0.01691,-0.012688,-0.0077547,-0.0087413,-0.017621,0.01987
541,0.0073732,0.011977,-0.01203,-0.0061104,-0.017292,-0.014332,0.01987
542,0.011977,0.0047422,-0.010715,0.00046697,-0.022883,-0.0067681,0.020199
543,0.023817,-0.0024928,-0.0051238,0.0077021,-0.020909,0.0044134,0.024145
544,0.0373,-0.0051238,0.0047422,0.014937,-0.016305,0.013951,0.02875
545,0.045193,0.0021113,0.017897,0.021186,-0.012688,0.018555,0.032367
546,0.041247,0.019541,0.023159,0.023159,-0.0097279,0.018226,0.033025
547,0.028092,0.038944,0.020199,0.020528,-0.0041372,0.015266,0.032367
548,0.014608,0.053743,0.012306,0.014279,0.0073732,0.011648,0.030394
549,0.0030979,0.060979,0.0044134,0.0060577,0.015924,0.011648,0.026776
550,-0.0057815,0.060979,0.0021113,-0.0028217,0.013951,0.013293,0.022501
551,-0.0084125,0.056374,0.0063866,-0.0097279,0.0014536,0.015595,0.020857
552,-0.0034794,0.052099,0.014608,-0.014332,-0.011043,0.020199,0.023817
553,0.0063866,0.049797,0.01987,-0.013674,-0.015976,0.024474,0.032038
554,0.014279,0.053415,0.018226,-0.0067681,-0.013674,0.023159,0.0373
555,0.01987,0.059005,0.014279,0.0034268,-0.012359,0.01987,0.034011
556,0.01987,0.062623,0.010004,0.013951,-0.010057,0.017897,0.023159
557,0.012635,0.065254,0.0070443,0.019212,-0.0061104,0.018555,0.014937
558,0.0044134,0.066898,0.002769,0.01987,-0.0011774,0.01987,0.015924
559,-0.0011774,0.0692,0.0001381,0.017897,0.0021113,0.020199,0.023817
560,-0.0028217,0.066569,-0.0015062,0.018884,0.0021113,0.018555,0.03434
561,-0.0024928,0.055388,-0.002164,0.021843,-0.0008485,0.016253,0.044535
562,-0.0028217,0.036314,-0.0047949,0.020857,-0.004466,0.01132,0.051441
563,-0.0051238,0.01691,-0.0090702,0.011977,-0.0064392,0.0047422,0.051441
564,-0.0093991,0.00046697,-0.012359,-0.0018351,-0.004466,-0.0024928,0.048482
565,-0.011372,-0.0087413,-0.012359,-0.015648,-0.0011774,-0.0051238,0.045522
566,-0.0097279,-0.010057,-0.0077547,-0.021896,0.002769,-0.0018351,0.042562
567,-0.0064392,-0.0041372,-0.0011774,-0.021896,0.0037556,0.0090175,0.034998
568,-0.0028217,0.0047422,0.0073732,-0.017292,0.0021113,0.02283,0.031381
569,0.0021113,0.014608,0.014937,-0.01203,0.0021113,0.032038,0.035985
570,0.0083598,0.020528,0.016581,-0.007097,0.0044134,0.031381,0.043877
571,0.014608,0.024145,0.011648,-0.0028217,0.0073732,0.024474,0.047824
572,0.01987,0.025461,0.0054,-0.00019077,0.0073732,0.017568,0.044535
573,0.021843,0.025132,0.0001381,0.0040845,0.0034268,0.017239,0.034998
574,0.01691,0.022501,-0.0038083,0.014279,-0.0041372,0.022501,0.020528
575,0.0090175,0.021186,-0.0084125,0.028092,-0.011701,0.02875,0.0073732
576,-0.0008485,0.019541,-0.010057,0.04026,-0.013017,0.034669,-0.0015062
577,-0.0084125,0.016253,-0.012359,0.04322,-0.010715,0.038287,-0.0031506
578,-0.011372,0.0096753,-0.016963,0.035985,-0.0051238,0.039602,-0.002164
579,-0.011701,-0.0041372,-0.020581,0.021843,-0.002164,0.038616,-0.00051963
580,-0.011043,-0.020909,-0.020581,0.0096753,-0.0047949,0.036314,-0.00019077
581,-0.0093991,-0.032749,-0.016634,0.002769,-0.014003,0.034998,0.0001381
582,-0.0097279,-0.037353,-0.010386,-0.0018351,-0.0265,0.031381,-0.00019077
583,-0.01203,-0.031104,-0.00051963,-0.0084125,-0.032749,0.024145,-0.0041372
584,-0.014661,-0.023211,0.0086887,-0.018607,-0.027816,0.013622,-0.0087413
585,-0.016634,-0.017292,0.014279,-0.02946,-0.013345,0.0030979,-0.014661
586,-0.015319,-0.011372,0.012964,-0.03538,-0.0008485,-0.0015062,-0.017292
587,-0.0077547,-0.0051238,0.0063866,-0.034393,0.0037556,0.0021113,-0.010386
588,0.0047422,-0.00019077,-0.0024928,-0.030447,-0.0011774,0.010004,0.0054
589,0.019541,0.0044134,-0.011701,-0.024527,-0.014661,0.01691,0.021514
590,0.027763,0.0093464,-0.018936,-0.019265,-0.029131,0.018884,0.032696
591,0.029078,0.014279,-0.021567,-0.014661,-0.037024,0.014608,0.034011
592,0.02579,0.015924,-0.020909,-0.0093991,-0.038668,0.0050711,0.030065
593,0.021186,0.014279,-0.016305,-0.0024928,-0.038668,-0.0084125,0.026447
594,0.016253,0.010991,-0.011372,0.0034268,-0.036366,-0.019923,0.027763
595,0.012964,0.0080309,-0.007097,0.0073732,-0.036366,-0.028144,0.030065
596,0.010333,0.0047422,-0.0054526,0.010333,-0.038011,-0.032749,0.029736
597,0.0067154,0.0017824,-0.0047949,0.0093464,-0.035051,-0.034722,0.02875
598,0.0054,-0.0008485,-0.004466,0.002769,-0.025185,-0.035051,0.029407
599,0.0063866,-0.0041372,-0.0038083,-0.0067681,-0.01499,-0.032091,0.032696
600,0.0054,-0.0093991,-0.0011774,-0.014332,-0.0080836,-0.026829,0.034998
601,0.00079584,-0.014003,0.0021113,-0.015648,-0.0090702,-0.021238,0.033354
602,-0.0077547,-0.016963,0.0034268,-0.010386,-0.015976,-0.019265,0.02875
603,-0.014003,-0.019594,0.0011247,-0.0034794,-0.022554,-0.018278,0.023488
604,-0.015648,-0.024527,-0.0061104,0.0060577,-0.025842,-0.015976,0.018555
605,-0.0093991,-0.034064,-0.012359,0.018226,-0.020909,-0.012359,0.015595
606,0.0034268,-0.04689,-0.015319,0.029407,-0.010057,-0.010386,0.014937
607,0.018555,-0.054454,-0.015648,0.033025,0.0047422,-0.0080836,0.015266
608,0.026776,-0.054783,-0.016963,0.026776,0.018226,-0.0018351,0.017568
609,0.027434,-0.047548,-0.021567,0.018884,0.028092,0.0057288,0.020857
610,0.021843,-0.035708,-0.028473,0.012964,0.030723,0.012306,0.023488
611,0.017568,-0.025514,-0.034722,0.0090175,0.027763,0.018226,0.018555
612,0.017897,-0.015648,-0.037353,0.0047422,0.021186,0.020199,0.010991
613,0.020528,-0.0057815,-0.035051,-0.0011774,0.014937,0.018226,0.0034268
614,0.022501,-0.0011774,-0.027816,-0.011043,0.0086887,0.012964,-0.0038083
615,0.019212,-0.0008485,-0.021896,-0.022554,0.0054,0.0070443,-0.018278
616,0.010991,-0.00019077,-0.018278,-0.03242,0.0044134,0.0063866,-0.036695
617,-0.0018351,0.0034268,-0.015648,-0.033406,0.0073732,0.011648,-0.051165
618,-0.014661,0.0080309,-0.01203,-0.027487,0.013622,0.019212,-0.058071
619,-0.023869,0.011977,-0.0077547,-0.017621,0.016581,0.020528,-0.0584
620,-0.025185,0.014937,-0.0034794,-0.0090702,0.016253,0.018226,-0.055112
621,-0.021238,0.01691,0.002769,-0.0034794,0.013293,0.017239,-0.049192
622,-0.015648,0.017239,0.011648,0.0017824,0.012964,0.017897,-0.036695
623,-0.010057,0.012306,0.021843,0.0047422,0.015924,0.019212,-0.016634
624,-0.0047949,0.0030979,0.02875,0.0047422,0.019541,0.019541,0.0063866
625,-0.00051963,-0.007097,0.029407,-0.00019077,0.022501,0.014608,0.024145
626,0.0037556,-0.019594,0.02283,-0.0093991,0.018226,0.0047422,0.033683
627,0.0057288,-0.034393,0.013293,-0.01795,0.0073732,-0.0051238,0.035327
628,0.0034268,-0.049192,0.0050711,-0.021896,-0.004466,-0.012359,0.029078
629,-0.0028217,-0.0584,-0.00019077,-0.019923,-0.011701,-0.015648,0.015266
630,-0.014661,-0.055112,-0.0067681,-0.010057,-0.012359,-0.01499,-0.0031506
631,-0.027816,-0.041957,-0.014332,0.0024402,-0.0038083,-0.015976,-0.018936
632,-0.035051,-0.022225,-0.019265,0.0080309,0.0093464,-0.019265,-0.028473
633,-0.030118,0.00046697,-0.019923,0.0021113,0.018884,-0.024198,-0.030447
634,-0.018607,0.017897,-0.016305,-0.0087413,0.021186,-0.027158,-0.028802
635,-0.0061104,0.02579,-0.010057,-0.015976,0.017568,-0.026829,-0.024198
636,0.00079584,0.022172,-0.0015062,-0.016634,0.010004,-0.020581,-0.016305
637,-0.00019077,0.010991,0.0044134,-0.0093991,-0.0018351,-0.010057,-0.010057
638,-0.0067681,-0.0008485,0.0073732,0.0034268,-0.015319,-0.00051963,-0.007097
639,-0.018936,-0.0061104,0.0044134,0.017897,-0.022225,-0.00051963,-0.0054526
640,-0.030775,-0.00051963,0.0017824,0.028092,-0.022225,-0.010386,0.0021113
641,-0.034722,0.012306,-0.002164,0.030394,-0.012688,-0.0265,0.013293
642,-0.031104,0.027105,-0.0077547,0.024803,-0.0018351,-0.039655,0.024474
643,-0.020252,0.039602,-0.014003,0.01691,0.0044134,-0.047548,0.032038
644,-0.0038083,0.050784,-0.021896,0.012964,0.0021113,-0.044588,0.036314
645,0.014937,0.058019,-0.029131,0.011977,-0.010057,-0.034722,0.035327
646,0.029736,0.058019,-0.036695,0.010662,-0.028144,-0.024856,0.027763
647,0.040918,0.050455,-0.039984,0.0050711,-0.043272,-0.018936,0.015924
648,0.039602,0.036642,-0.036695,0.00079584,-0.049521,-0.020581,0.0070443
649,0.029736,0.017897,-0.028802,0.0030979,-0.044917,-0.027816,0.0063866
650,0.014937,0.0024402,-0.019265,0.014937,-0.033735,-0.03538,0.012964
651,0.0021113,-0.0061104,-0.0097279,0.032367,-0.021567,-0.04097,0.02283
652,-0.0064392,-0.0090702,-0.004466,0.049139,-0.011701,-0.040313,0.027763
653,-0.011372,-0.0064392,-0.0057815,0.059663,-0.0038083,-0.03538,0.023159
654,-0.011701,-0.002164,-0.0090702,0.062294,-0.004466,-0.028144,0.0093464
655,-0.013017,0.0014536,-0.011043,0.058676,-0.0090702,-0.022883,-0.010057
656,-0.018278,0.0021113,-0.011043,0.051441,-0.01203,-0.019923,-0.028144
657,-0.0265,0.00046697,-0.012359,0.042233,-0.0093991,-0.017292,-0.040313
658,-0.030118,-0.0041372,-0.014003,0.036971,-0.0018351,-0.011372,-0.042615
659,-0.027816,-0.011701,-0.014003,0.038287,0.0067154,-0.0047949,-0.042286
660,-0.019594,-0.020909,-0.012688,0.040589,0.010004,-0.0015062,-0.046561
661,-0.0077547,-0.027487,-0.011043,0.038287,0.0080309,-0.0041372,-0.051165
662,0.0054,-0.026829,-0.007097,0.026119,0.0017824,-0.011372,-0.050836
663,0.015266,-0.021238,-0.0028217,0.012964,-0.0080836,-0.019594,-0.045246
664,0.021514,-0.01203,0.00046697,0.0044134,-0.018936,-0.028144,-0.039984
665,0.026447,-0.0024928,0.00079584,0.0070443,-0.027816,-0.031104,-0.038011
666,0.02875,0.0067154,-0.0018351,0.013622,-0.035708,-0.023869,-0.036695
667,0.027105,0.010662,-0.0064392,0.017568,-0.038668,-0.0074258,-0.029789
668,0.021843,0.010991,-0.0077547,0.014937,-0.039655,0.0083598,-0.016305
669,0.015924,0.010333,-0.0038083,0.0080309,-0.037682,0.017568,-0.0028217
670,0.011977,0.012964,0.00046697,-0.00051963,-0.034393,0.016581,0.0073732
671,0.0080309,0.02283,0.0021113,-0.0061104,-0.028473,0.0093464,0.0063866
672,0.00046697,0.036971,0.0001381,-0.007097,-0.019923,0.0001381,-0.0018351
673,-0.0090702,0.052757,-0.0018351,-0.0031506,-0.0074258,-0.0077547,-0.013017
674,-0.019594,0.061965,-0.0011774,0.0044134,0.0044134,-0.014332,-0.020252
675,-0.02946,0.059992,0.0017824,0.010333,0.010333,-0.020581,-0.01795
676,-0.037353,0.048153,0.0040845,0.012635,0.0073732,-0.028802,-0.0087413
677,-0.041628,0.033354,0.0044134,0.012306,0.0044134,-0.033406,0.00079584
678,-0.041957,0.017897,0.0040845,0.010004,0.0080309,-0.038668,0.0030979
679,-0.04097,0.0040845,0.0021113,0.010333,0.017239,-0.04393,-0.004466
680,-0.038997,-0.0067681,-0.002164,0.012635,0.027763,-0.045246,-0.015648
681,-0.039326,-0.014332,-0.0074258,0.012635,0.032038,-0.03538,-0.024198
682,-0.044259,-0.018278,-0.011701,0.0077021,0.02283,-0.016963,-0.024856
683,-0.04985,-0.021238,-0.013674,0.0037556,0.0070443,0.00046697,-0.014332
684,-0.051494,-0.021896,-0.012688,0.0047422,-0.0077547,0.0096753,0.0073732
685,-0.043601,-0.021567,-0.011043,0.0060577,-0.011701,0.0093464,0.027763
686,-0.028144,-0.020252,-0.0057815,0.0021113,-0.0054526,0.0057288,0.037958
687,-0.0084125,-0.015648,-0.0018351,-0.0067681,0.0040845,0.0054,0.035656
688,0.0090175,-0.0067681,0.0011247,-0.018607,0.013622,0.0063866,0.026119
689,0.021186,0.0037556,0.0047422,-0.027487,0.01987,0.0080309,0.021843
690,0.023159,0.011648,0.0080309,-0.028802,0.024803,0.0054,0.026119
691,0.016253,0.014279,0.012306,-0.023211,0.02875,-0.0034794,0.036642
692,0.0086887,0.013622,0.018884,-0.011701,0.030065,-0.016634,0.044535
693,0.002769,0.012964,0.027434,0.0030979,0.026776,-0.024198,0.047495
694,-0.0034794,0.012635,0.032038,0.017239,0.021843,-0.022554,0.045193
695,-0.0090702,0.013293,0.033354,0.025461,0.017568,-0.015319,0.039273
696,-0.01499,0.012306,0.030723,0.025132,0.017239,-0.007097,0.02875
697,-0.014003,0.010662,0.025461,0.016253,0.01987,0.0047422,0.021843
698,-0.0038083,0.0096753,0.019212,0.0017824,0.021514,0.019212,0.025461
699,0.013293,0.010662,0.013293,-0.010715,0.023159,0.030394,0.036314
700,0.02579,0.013293,0.0093464,-0.014661,0.027434,0.031052,0.046508
701,0.027763,0.019212,0.0073732,-0.012359,0.030394,0.01987,0.053086
702,0.02283,0.028092,0.0077021,-0.0061104,0.029407,0.0030979,0.054072
703,0.012964,0.035656,0.0070443,-0.00051963,0.022172,-0.0087413,0.050455
704,0.0021113,0.040918,0.0057288,0.0024402,0.0093464,-0.013674,0.047495
705,-0.0041372,0.042233,0.0057288,0.0021113,-0.0015062,-0.0097279,0.050455
706,-0.0015062,0.038944,0.0067154,0.00046697,-0.0090702,0.0017824,0.06065
707,0.0063866,0.035327,0.0070443,-0.0011774,-0.014332,0.016581,0.067885
708,0.016581,0.033025,0.0067154,0.0017824,-0.017621,0.027434,0.067227
709,0.02875,0.029078,0.0024402,0.0093464,-0.015319,0.029078,0.057361
710,0.040589,0.023159,-0.0024928,0.01691,-0.0090702,0.018884,0.04618
711,0.047824,0.01987,-0.0074258,0.019212,0.0001381,0.0044134,0.038944
712,0.048482,0.024145,-0.0093991,0.014608,0.0086887,-0.0051238,0.036971
713,0.04322,0.035985,-0.0077547,0.0060577,0.013951,-0.0097279,0.038287
714,0.037629,0.046508,-0.0051238,0.0001381,0.020199,-0.010715,0.042891
715,0.03434,0.051113,-0.0028217,-0.0015062,0.027105,-0.0047949,0.049468
716,0.03434,0.050784,-0.0018351,0.0001381,0.028092,0.0063866,0.052428
717,0.038944,0.047824,0.0030979,0.0047422,0.022501,0.017239,0.049468
718,0.047824,0.045522,0.010662,0.011648,0.015266,0.022172,0.040918
719,0.055717,0.045851,0.017568,0.018884,0.0093464,0.023817,0.031709
720,0.05769,0.050784,0.019541,0.019541,0.0040845,0.028421,0.028092
721,0.050784,0.059334,0.016253,0.011977,-0.0018351,0.030065,0.030723
722,0.039931,0.069858,0.012306,0.0011247,-0.0064392,0.028421,0.033683
723,0.034669,0.079724,0.0093464,-0.0087413,-0.0074258,0.022501,0.031381
724,0.036971,0.089919,0.0090175,-0.014003,-0.0074258,0.017239,0.02579
725,0.043549,0.098141,0.0093464,-0.014332,-0.011043,0.012964,0.022501
726,0.052099,0.10538,0.012306,-0.0087413,-0.018607,0.012635,0.026119
727,0.055388,0.10636,0.014937,-0.0008485,-0.02354,0.015924,0.035985
728,0.052428,0.1011,0.013951,0.0086887,-0.022225,0.01987,0.044206
729,0.041904,0.08663,0.0083598,0.015266,-0.011372,0.022501,0.045193
730,0.029407,0.068543,-0.00051963,0.017568,-0.0015062,0.020199,0.037958
731,0.022501,0.051113,-0.0097279,0.016581,-0.00051963,0.016253,0.028092
732,0.026776,0.042891,-0.01203,0.013622,-0.0093991,0.0093464,0.022501
733,0.038944,0.042562,-0.0061104,0.01132,-0.020581,0.0017824,0.018884
734,0.053086,0.044535,0.0037556,0.017568,-0.027816,-0.0031506,0.017568
735,0.061965,0.042562,0.012635,0.030723,-0.031762,-0.004466,0.016581
736,0.064267,0.036642,0.016253,0.042891,-0.034393,-0.0015062,0.015924
737,0.059334,0.030394,0.015595,0.046837,-0.031762,0.00046697,0.018226
738,0.050455,0.023817,0.017239,0.042891,-0.021238,0.0014536,0.025461
739,0.042891,0.014279,0.020528,0.036314,-0.007097,-0.0008485,0.034011
740,0.0373,-0.0011774,0.020528,0.032696,0.0030979,-0.011043,0.03434
741,0.031709,-0.020909,0.013951,0.032367,0.0054,-0.027158,0.023488
742,0.023488,-0.04097,0.0021113,0.031052,0.0011247,-0.037682,0.0063866
743,0.017239,-0.059716,-0.010057,0.022501,-0.0077547,-0.040313,-0.0074258
744,0.010662,-0.076488,-0.016305,0.0096753,-0.017292,-0.038339,-0.01203
745,0.0024402,-0.087998,-0.01795,-0.0090702,-0.024527,-0.031762,-0.011043
746,-0.0051238,-0.095233,-0.015976,-0.026829,-0.028144,-0.023869,-0.010386
747,-0.012359,-0.096549,-0.010715,-0.037024,-0.030775,-0.016963,-0.012359
748,-0.018936,-0.092931,-0.0024928,-0.032749,-0.03242,-0.014661,-0.017292
749,-0.025514,-0.084052,0.0037556,-0.015976,-0.034064,-0.01499,-0.020581
750,-0.03242,-0.074515,0.0077021,0.0014536,-0.034064,-0.013345,-0.019265
751,-0.041299,-0.066293,0.0073732,0.010991,-0.030447,-0.0057815,-0.017621
752,-0.04985,-0.063991,0.0060577,0.0096753,-0.0265,0.0021113,-0.023211
753,-0.056756,-0.069911,0.0070443,0.0017824,-0.023211,0.0060577,-0.034393
754,-0.061689,-0.081421,0.0096753,-0.004466,-0.023869,0.0044134,-0.046232
755,-0.064649,-0.092603,0.011977,-0.0038083,-0.025842,0.002769,-0.050836
756,-0.065635,-0.099509,0.010662,0.0040845,-0.030118,0.0037556,-0.043272
757,-0.066622,-0.097536,0.0070443,0.015924,-0.030447,0.0054,-0.027487
758,-0.068924,-0.090958,0.0014536,0.026119,-0.026171,0.002769,-0.011701
759,-0.070568,-0.086354,-0.00019077,0.027434,-0.021238,-0.0054526,-0.00051963
760,-0.073199,-0.085367,0.0017824,0.020528,-0.016963,-0.017621,0.0040845
761,-0.078461,-0.083065,0.002769,0.0080309,-0.016305,-0.025514,0.0030979
762,-0.083394,-0.077146,-0.00019077,-0.0054526,-0.018278,-0.023211,-0.0011774
763,-0.084052,-0.068266,-0.0067681,-0.01499,-0.023211,-0.012688,-0.0061104
764,-0.080763,-0.059387,-0.01499,-0.019923,-0.027487,0.0024402,-0.013345
765,-0.07583,-0.054125,-0.020581,-0.021896,-0.028473,0.016581,-0.021567
766,-0.068266,-0.050507,-0.021896,-0.018607,-0.026171,0.02579,-0.030118
767,-0.059387,-0.043601,-0.018936,-0.011043,-0.020581,0.032038,-0.03538
768,-0.050507,-0.033735,-0.015976,-0.00051963,-0.013674,0.035985,-0.034393
769,-0.044259,-0.023211,-0.013017,0.01132,-0.0047949,0.040589,-0.0265
770,-0.039984,-0.015319,-0.0064392,0.023159,0.0070443,0.04322,-0.018936
771,-0.038997,-0.007097,0.0021113,0.032696,0.017897,0.041247,-0.018278
772,-0.037024,-0.0008485,0.0096753,0.035656,0.02283,0.033025,-0.026171
773,-0.034393,0.0054,0.010991,0.032696,0.021186,0.021514,-0.033406
774,-0.031433,0.012635,0.0070443,0.023817,0.010991,0.0093464,-0.03242
775,-0.028473,0.021514,-0.0008485,0.015266,0.00079584,-0.00019077,-0.024856
776,-0.023211,0.030394,-0.0064392,0.0096753,-0.0077547,-0.0015062,-0.016634
777,-0.013674,0.03434,-0.007097,0.0077021,-0.013674,0.010662,-0.011701
778,-0.0018351,0.033354,-0.0041372,0.010333,-0.018278,0.027763,-0.010715
779,0.0063866,0.026776,0.0034268,0.015924,-0.017621,0.037958,-0.012688
780,0.0093464,0.020528,0.011977,0.022172,-0.014003,0.038616,-0.014332
781,0.0093464,0.014608,0.018226,0.023159,-0.0067681,0.035656,-0.0074258
782,0.0077021,0.011648,0.021843,0.020528,-0.00051963,0.032367,0.010004
783,0.0070443,0.014608,0.022172,0.014937,0.0047422,0.02875,0.031052
784,0.0080309,0.025132,0.021514,0.012635,0.0086887,0.026119,0.043549
785,0.011648,0.039273,0.018226,0.017239,0.010662,0.025461,0.039602
786,0.017239,0.053415,0.011977,0.023488,0.0080309,0.027105,0.021186
787,0.021514,0.062294,0.0047422,0.024803,-0.00019077,0.025461,-0.00051963
788,0.020857,0.064267,-0.0024928,0.021843,-0.01203,0.017568,-0.015976
789,0.015595,0.059663,-0.0084125,0.017568,-0.023211,0.0086887,-0.020909
790,0.0063866,0.051441,-0.012688,0.012306,-0.030447,0.0054,-0.019265
791,-0.0054526,0.045522,-0.016963,0.0063866,-0.029131,0.0083598,-0.010386
792,-0.01499,0.043549,-0.023211,0.0001381,-0.019923,0.014279,0.0001381
793,-0.019923,0.045522,-0.02946,-0.0051238,-0.007097,0.020199,0.0083598
794,-0.013674,0.047166,-0.031104,-0.0097279,0.0034268,0.020528,0.013951
795,0.0011247,0.046837,-0.032749,-0.014003,0.0077021,0.01987,0.019541
796,0.019541,0.044864,-0.035051,-0.018607,0.0034268,0.016581,0.021514
797,0.03434,0.042891,-0.037024,-0.019594,-0.0024928,0.010991,0.016581
798,0.038944,0.040918,-0.039984,-0.013674,-0.0057815,0.0030979,0.0073732
799,0.037958,0.038287,-0.043601,-0.0018351,-0.0038083,-0.0047949,-0.0018351
800,0.035656,0.036314,-0.044259,0.015266,0.00079584,-0.010057,-0.0038083
801,0.034011,0.035327,-0.041628,0.032038,0.0044134,-0.014332,0.0001381
802,0.03434,0.036314,-0.039326,0.04881,0.0073732,-0.01795,0.0070443
803,0.034011,0.038287,-0.035051,0.05769,0.010662,-0.01795,0.015595
804,0.032696,0.041575,-0.026171,0.052757,0.015595,-0.012688,0.025132
805,0.032038,0.042891,-0.014332,0.034998,0.020857,-0.0034794,0.035985
806,0.028092,0.040918,-0.0054526,0.013622,0.02579,0.0070443,0.044535
807,0.021514,0.035656,-0.004466,-0.0054526,0.029078,0.013951,0.044206
808,0.014608,0.031381,-0.010057,-0.019923,0.032038,0.014937,0.033683
809,0.0093464,0.032367,-0.020909,-0.027158,0.034669,0.0093464,0.017239
810,0.0030979,0.037958,-0.027816,-0.030775,0.035985,0.0017824,0.0021113
811,-0.0034794,0.045522,-0.027816,-0.029789,0.034011,-0.0051238,-0.0077547
812,-0.0097279,0.048153,-0.022554,-0.022883,0.029078,-0.0090702,-0.013674
813,-0.013674,0.044864,-0.017621,-0.0097279,0.022501,-0.010057,-0.018278
814,-0.013674,0.035985,-0.014661,0.0030979,0.020528,-0.010715,-0.023211
815,-0.012359,0.027763,-0.014003,0.0090175,0.022172,-0.011372,-0.026829
816,-0.010386,0.01987,-0.013674,0.0086887,0.018555,-0.0084125,-0.028802
817,-0.0077547,0.01132,-0.014332,0.0080309,0.0070443,-0.00019077,-0.030447
818,-0.0041372,-0.00051963,-0.017292,0.0077021,-0.011372,0.0096753,-0.029789
819,-0.0015062,-0.013017,-0.022554,0.0090175,-0.026829,0.014937,-0.025842
820,0.0030979,-0.021896,-0.027158,0.01132,-0.034393,0.014608,-0.019923
821,0.010662,-0.025514,-0.031762,0.010991,-0.031104,0.011648,-0.011701
822,0.01987,-0.0265,-0.033735,0.0096753,-0.019265,0.0096753,-0.0067681
823,0.025132,-0.025842,-0.037682,0.010333,-0.0034794,0.011648,-0.0047949
824,0.02579,-0.021238,-0.038339,0.01132,0.010004,0.013951,-0.0074258
825,0.024474,-0.014661,-0.034393,0.013293,0.019212,0.01132,-0.0090702
826,0.027434,-0.0093991,-0.026171,0.014279,0.021186,0.0024402,-0.0093991
827,0.033354,-0.0097279,-0.014003,0.016253,0.015266,-0.007097,-0.0080836
828,0.036971,-0.013345,-0.00051963,0.01987,0.0047422,-0.014661,-0.0057815
829,0.032038,-0.020581,0.0096753,0.023817,-0.0061104,-0.016634,-0.0061104
830,0.020528,-0.02946,0.015266,0.025461,-0.015648,-0.011043,-0.0077547
831,0.0073732,-0.038668,0.016253,0.022501,-0.022883,-0.0028217,-0.0097279
832,-0.0034794,-0.04689,0.01987,0.017897,-0.027158,-0.00051963,-0.010057
833,-0.012359,-0.051823,0.024803,0.014279,-0.024527,-0.0061104,-0.0084125
834,-0.016634,-0.053138,0.029078,0.0096753,-0.01795,-0.015648,-0.0028217
835,-0.015319,-0.050179,0.029078,0.0034268,-0.013345,-0.023211,0.0050711
836,-0.012359,-0.040313,0.024803,0.0021113,-0.012359,-0.024527,0.011977
837,-0.0077547,-0.031433,0.019541,0.010991,-0.013345,-0.022554,0.015595
838,-0.0064392,-0.027158,0.017897,0.027434,-0.016634,-0.021238,0.017568
839,-0.0093991,-0.027816,0.019212,0.042891,-0.024198,-0.022225,0.019212
840,-0.015976,-0.029131,0.020528,0.052099,-0.036037,-0.024198,0.022501
841,-0.022225,-0.028473,0.020857,0.05769,-0.047219,-0.024527,0.021843
842,-0.027487,-0.025514,0.01987,0.058019,-0.054125,-0.02354,0.016253
843,-0.03242,-0.022554,0.019212,0.052099,-0.059058,-0.025842,0.0080309
844,-0.034064,-0.016634,0.01691,0.038944,-0.058729,-0.034064,0.002769
845,-0.029131,-0.011043,0.015266,0.026447,-0.052152,-0.040641,-0.0015062
846,-0.022883,-0.007097,0.013951,0.020199,-0.040313,-0.041299,-0.0087413
847,-0.015976,-0.0054526,0.014608,0.022501,-0.027158,-0.035708,-0.017621
848,-0.010386,-0.0038083,0.016253,0.028421,-0.016634,-0.027158,-0.018936
849,-0.0077547,-0.002164,0.019541,0.033354,-0.012359,-0.01795,-0.011372
850,-0.010057,0.0024402,0.022501,0.032038,-0.013345,-0.011701,0.0057288
851,-0.01499,0.0080309,0.023817,0.027105,-0.013017,-0.011701,0.023159
852,-0.021238,0.013293,0.024474,0.020857,-0.0090702,-0.021567,0.032696
853,-0.024198,0.013293,0.020199,0.017568,-0.0008485,-0.033735,0.032367
854,-0.025514,0.011977,0.01132,0.012964,0.0080309,-0.042286,0.023488
855,-0.024198,0.011648,0.0017824,0.0057288,0.013622,-0.037682,0.015924
856,-0.020252,0.014937,-0.0034794,-0.0011774,0.014937,-0.021567,0.01132
857,-0.015319,0.018226,-0.0034794,-0.0051238,0.013293,-0.002164,0.016253
858,-0.01203,0.023488,-0.0011774,-0.0051238,0.01132,0.015266,0.023817
859,-0.007097,0.027434,-0.00019077,0.00079584,0.013622,0.027105,0.026776
860,-0.0011774,0.028421,-0.0015062,0.010662,0.019541,0.029736,0.021186
861,0.0034268,0.028092,-0.0061104,0.013951,0.01987,0.020528,0.0090175
862,0.0067154,0.026776,-0.013017,0.0073732,0.01132,0.0054,0.00046697
863,0.012635,0.023817,-0.018607,-0.007097,-0.0051238,-0.0077547,0.0011247
864,0.022501,0.018555,-0.020909,-0.018278,-0.020909,-0.015319,0.0070443
865,0.030723,0.01132,-0.019265,-0.022883,-0.029131,-0.014332,0.014279
866,0.031052,0.0057288,-0.014661,-0.018278,-0.025842,-0.0064392,0.020528
867,0.022172,0.0060577,-0.011043,-0.012359,-0.013674,0.0047422,0.030723
868,0.016253,0.013293,-0.0084125,-0.0074258,0.0017824,0.012964,0.039931
869,0.017897,0.027763,-0.0090702,-0.011701,0.013622,0.014608,0.045193
870,0.023488,0.042233,-0.011043,-0.024527,0.020199,0.0090175,0.043877
871,0.030065,0.053415,-0.013345,-0.038339,0.020199,-0.0018351,0.039602
872,0.035656,0.056703,-0.01499,-0.051494,0.01691,-0.014003,0.034998
873,0.039931,0.05177,-0.015319,-0.058729,0.010004,-0.025514,0.032038
874,0.044864,0.042562,-0.011372,-0.056756,-0.00019077,-0.033078,0.030723
875,0.047166,0.029078,-0.007097,-0.050179,-0.0090702,-0.037353,0.027763
876,0.043549,0.015595,0.0001381,-0.042944,-0.01499,-0.038339,0.022501
877,0.035327,0.0070443,0.0090175,-0.040313,-0.017292,-0.036366,0.013293
878,0.024803,0.0060577,0.018226,-0.044917,-0.016634,-0.034722,0.0034268
879,0.014937,0.010662,0.024145,-0.053138,-0.014661,-0.032091,-0.002164
880,0.0083598,0.018226,0.026447,-0.057085,-0.014661,-0.026171,-0.0038083
881,0.0040845,0.023488,0.026776,-0.053796,-0.016305,-0.018607,-0.0018351
882,0.0001381,0.021186,0.020857,-0.047548,-0.020252,-0.018607,0.0057288
883,-0.0024928,0.012635,0.010333,-0.039655,-0.024856,-0.029789,0.015266
884,-0.0008485,0.0021113,-0.0028217,-0.034064,-0.028802,-0.042615,0.027763
885,0.0037556,-0.0057815,-0.013017,-0.034393,-0.030775,-0.045246,0.040918
886,0.0054,-0.0077547,-0.01795,-0.037682,-0.029789,-0.033406,0.051441
887,0.0060577,-0.004466,-0.017621,-0.036695,-0.029789,-0.011043,0.059005
888,0.0060577,0.0021113,-0.014661,-0.026171,-0.027487,0.010662,0.064596
889,0.010662,0.010991,-0.014003,-0.011372,-0.019265,0.021186,0.061636
890,0.018884,0.019541,-0.014003,0.0014536,-0.0041372,0.017239,0.046837
891,0.024145,0.022501,-0.011372,0.010333,0.013622,0.0034268,0.024145
892,0.020857,0.021186,-0.0057815,0.017239,0.02875,-0.010715,0.002769
893,0.0083598,0.015595,0.0014536,0.020857,0.034011,-0.022883,-0.012359
894,-0.0028217,0.0083598,0.0070443,0.021514,0.031381,-0.030775,-0.015319
895,-0.0080836,0.0014536,0.010662,0.021514,0.024803,-0.034722,-0.0077547
896,-0.0090702,-0.0054526,0.010333,0.022501,0.013293,-0.033735,0.0050711
897,-0.0090702,-0.01203,0.0080309,0.021514,0.0001381,-0.024527,0.018555
898,-0.0067681,-0.016963,0.0054,0.018226,-0.0093991,-0.014003,0.02875
899,-0.0047949,-0.017292,0.002769,0.014608,-0.015319,-0.0093991,0.029407
900,-0.0024928,-0.014332,0.0034268,0.013951,-0.019923,-0.0087413,0.020528
901,-0.00019077,-0.010715,0.0077021,0.017568,-0.025842,-0.0074258,0.0044134
902,-0.0008485,-0.007097,0.012306,0.02283,-0.033735,-0.0057815,-0.011043
903,-0.004466,-0.0061104,0.015266,0.025461,-0.038011,-0.007097,-0.018278
904,-0.011043,-0.0084125,0.015595,0.026447,-0.031762,-0.012359,-0.011043
905,-0.020909,-0.007097,0.014279,0.025132,-0.017621,-0.021896,0.0030979
906,-0.032091,-0.0034794,0.0086887,0.023817,0.00079584,-0.032749,0.014279
907,-0.038011,0.0014536,-0.00051963,0.02283,0.017239,-0.04097,0.020857
908,-0.034393,0.0040845,-0.011701,0.02283,0.028421,-0.046232,0.02283
909,-0.024527,0.0011247,-0.019594,0.020199,0.036314,-0.044588,0.021843
910,-0.012688,-0.0047949,-0.01795,0.019212,0.04026,-0.03242,0.020857
911,-0.0031506,-0.012359,-0.0093991,0.01691,0.042233,-0.016963,0.017897
912,0.0073732,-0.017292,-0.0034794,0.015266,0.045522,-0.0074258,0.016581
913,0.014937,-0.017292,-0.0047949,0.015924,0.048153,-0.0074258,0.018555
914,0.019212,-0.015319,-0.0097279,0.021514,0.048153,-0.012688,0.022501
915,0.014937,-0.017621,-0.012359,0.02875,0.045851,-0.013345,0.025132
916,0.0054,-0.020909,-0.013017,0.031052,0.043549,-0.0064392,0.025132
917,-0.0054526,-0.021567,-0.013345,0.027105,0.038287,0.0047422,0.02283
918,-0.013017,-0.015319,-0.010715,0.01691,0.02875,0.019212,0.021843
919,-0.01795,-0.0057815,-0.0047949,0.0030979,0.015924,0.034669,0.024803
920,-0.016634,0.0011247,0.002769,-0.011043,0.0021113,0.041575,0.025132
921,-0.0080836,0.0057288,0.0070443,-0.017292,-0.010715,0.038616,0.021186
922,0.0017824,0.0070443,0.0040845,-0.013017,-0.017292,0.029078,0.017897
923,0.0047422,0.0030979,-0.0024928,-0.0034794,-0.01499,0.018226,0.017568
924,0.0034268,-0.0015062,-0.0087413,0.0083598,-0.0054526,0.0077021,0.022501
925,0.0054,-0.0011774,-0.013017,0.016581,0.01132,-0.00051963,0.027434
926,0.013293,0.0057288,-0.014661,0.021186,0.02875,-0.0015062,0.030065
927,0.020199,0.013293,-0.014003,0.024474,0.038944,0.0070443,0.027105
928,0.022172,0.020199,-0.0087413,0.023817,0.033025,0.022172,0.020199
929,0.018884,0.023159,0.00079584,0.018555,0.017568,0.034998,0.011648
930,0.010662,0.020857,0.012964,0.010991,-0.00051963,0.04322,0.002769
931,0.00046697,0.013622,0.024145,0.0067154,-0.01499,0.049797,-0.0034794
932,-0.010057,0.0060577,0.030065,0.0044134,-0.022554,0.050455,-0.007097
933,-0.018278,0.0047422,0.028421,0.0017824,-0.024527,0.049468,-0.0084125
934,-0.020252,0.012306,0.018226,-0.002164,-0.022554,0.045851,-0.0080836
935,-0.015319,0.021186,0.0044134,-0.0061104,-0.01795,0.037629,-0.002164
936,-0.0047949,0.025461,-0.011372,-0.0087413,-0.013017,0.027105,0.0040845
937,0.0063866,0.024145,-0.0265,-0.010386,-0.0054526,0.020528,0.0086887
938,0.011977,0.017239,-0.036366,-0.010057,0.0060577,0.01691,0.013293
939,0.0096753,0.0067154,-0.041628,-0.0084125,0.020528,0.016253,0.019541
940,0.0011247,-0.0061104,-0.039984,-0.007097,0.03434,0.014937,0.026776
941,-0.0084125,-0.016305,-0.034393,-0.007097,0.045522,0.013622,0.031709
942,-0.019265,-0.01795,-0.026829,-0.0067681,0.047824,0.011648,0.029078
943,-0.028144,-0.013674,-0.018936,-0.0038083,0.037958,0.014608,0.024145
944,-0.02946,-0.0057815,-0.012688,-0.002164,0.022501,0.01987,0.025132
945,-0.023869,0.0017824,-0.0097279,-0.004466,0.0080309,0.023488,0.035656
946,-0.01795,0.01132,-0.010057,-0.0077547,0.0001381,0.027434,0.047495
947,-0.012359,0.021186,-0.013017,-0.0093991,-0.0024928,0.031709,0.049468
948,-0.010057,0.033025,-0.016305,-0.0064392,-0.0038083,0.034998,0.038287
949,-0.01499,0.045522,-0.019265,0.0024402,-0.0090702,0.035656,0.020857
950,-0.022225,0.055717,-0.016963,0.013622,-0.01795,0.031709,0.0054
951,-0.024527,0.063281,-0.012688,0.021186,-0.028802,0.027105,-0.0077547
952,-0.017621,0.065254,-0.0090702,0.020857,-0.038011,0.020528,-0.016963
953,-0.0061104,0.058348,-0.0061104,0.014279,-0.042944,0.015924,-0.024198
954,0.0054,0.049797,-0.0028217,0.0037556,-0.04097,0.014608,-0.024198
955,0.01132,0.041904,-0.0018351,-0.0077547,-0.031762,0.012635,-0.021567
956,0.016581,0.039273,-0.0028217,-0.013674,-0.019265,0.0083598,-0.017621
957,0.01987,0.039602,-0.0047949,-0.012359,-0.0041372,0.0057288,-0.012688
958,0.01691,0.04026,-0.0047949,-0.0061104,0.0067154,0.0090175,-0.010386
959,0.0086887,0.039931,-0.0015062,0.0034268,0.0080309,0.023488,-0.0097279
960,-0.0018351,0.039273,0.0034268,0.014279,0.0001381,0.042233,-0.0074258
961,-0.0093991,0.037629,0.0083598,0.024474,-0.0093991,0.055059,-0.0008485
962,-0.0077547,0.033025,0.0093464,0.031381,-0.016305,0.052757,0.011648
963,0.00079584,0.026119,0.0080309,0.033683,-0.019923,0.034998,0.023159
964,0.0093464,0.020857,0.0037556,0.035327,-0.021238,0.0086887,0.032696
965,0.015924,0.021186,-0.00051963,0.035656,-0.023211,-0.011701,0.037958
966,0.018884,0.023817,-0.0024928,0.0373,-0.023869,-0.022225,0.036642
967,0.018884,0.02579,-0.0011774,0.040918,-0.021896,-0.023869,0.029078
968,0.018555,0.025132,0.0017824,0.047166,-0.023211,-0.021567,0.021186
969,0.016581,0.024145,0.0070443,0.050455,-0.027158,-0.020252,0.014608
970,0.015924,0.021186,0.0090175,0.045851,-0.027487,-0.020252,0.0070443
971,0.018226,0.013293,0.0096753,0.034998,-0.022883,-0.017621,-0.0024928
972,0.019212,-0.00051963,0.0060577,0.024474,-0.019594,-0.0087413,-0.012688
973,0.017239,-0.015648,-0.002164,0.018555,-0.019594,0.0073732,-0.018278
974,0.013622,-0.028473,-0.011043,0.017239,-0.021896,0.021186,-0.01795
975,0.010004,-0.038011,-0.013017,0.013951,-0.025514,0.027105,-0.013674
976,0.0073732,-0.047219,-0.0084125,0.0054,-0.025514,0.022501,-0.0067681
977,0.0080309,-0.05544,-0.00051963,-0.0028217,-0.024527,0.013293,-0.0015062
978,0.011977,-0.059716,0.0077021,-0.0061104,-0.022883,0.0011247,0.0024402
979,0.015266,-0.057085,0.012306,-0.0054526,-0.023211,-0.0077547,-0.00051963
980,0.012964,-0.047548,0.015266,-0.00051963,-0.028473,-0.0080836,-0.013017
981,0.0073732,-0.033406,0.014608,0.0083598,-0.033078,-0.0054526,-0.028473
982,0.002769,-0.016963,0.01132,0.01987,-0.032749,-0.0064392,-0.040641
983,-0.0034794,-0.004466,0.0073732,0.029078,-0.025842,-0.013674,-0.039984
984,-0.010057,0.0021113,0.0044134,0.033025,-0.016634,-0.023869,-0.029789
985,-0.01499,0.0014536,0.0057288,0.032038,-0.0077547,-0.030775,-0.016305
986,-0.015648,-0.0054526,0.0090175,0.027105,-0.0038083,-0.034064,-0.004466
987,-0.013674,-0.014003,0.011648,0.023159,-0.0067681,-0.031433,0.0017824
988,-0.010386,-0.021238,0.010662,0.023817,-0.015319,-0.0265,-0.0008485
989,-0.007097,-0.022883,0.0050711,0.026776,-0.025185,-0.02354,-0.013345
990,-0.0028217,-0.018278,-0.0018351,0.036314,-0.028802,-0.022225,-0.031104
991,0.0011247,-0.0080836,-0.0093991,0.04618,-0.024856,-0.023869,-0.050507
992,0.0024402,0.0017824,-0.013345,0.053743,-0.016963,-0.027487,-0.064978
993,0.002769,0.0067154,-0.014332,0.055059,-0.0067681,-0.033078,-0.069253
994,0.0014536,0.0044134,-0.010057,0.053743,0.0024402,-0.033735,-0.064649
995,-0.0047949,-0.0038083,-0.0041372,0.052099,0.0063866,-0.027158,-0.053138
996,-0.013017,-0.010386,0.002769,0.050784,0.0070443,-0.01795,-0.038997
997,-0.019594,-0.011701,0.0090175,0.04881,0.00079584,-0.011043,-0.020909
998,-0.021567,-0.010057,0.011977,0.044864,-0.007097,-0.0051238,-0.0034794
999,-0.01795,-0.0080836,0.0093464,0.042233,-0.013345,0.0024402,0.0090175
1000,-0.0090702,-0.0057815,0.0021113,0.041904,-0.016963,0.014279,0.011648
1001,0.0017824,-0.0011774,-0.0080836,0.041575,-0.015648,0.028092,0.0047422
1002,0.012635,0.0040845,-0.01795,0.040589,-0.010386,0.035327,-0.0041372
1003,0.020857,0.0054,-0.024198,0.042233,0.00079584,0.031709,-0.010715
1004,0.026776,0.0030979,-0.025842,0.047166,0.012306,0.019212,-0.0093991
1005,0.02875,-0.0024928,-0.019594,0.052757,0.021843,0.0037556,-0.0067681
1006,0.02579,-0.0084125,-0.0084125,0.053086,0.026776,-0.010386,-0.0074258
1007,0.018555,-0.011043,0.0024402,0.05177,0.026447,-0.021896,-0.011043
1008,0.0090175,-0.0077547,0.0090175,0.050784,0.023817,-0.030447,-0.014661
1009,0.0017824,-0.0008485,0.01132,0.049797,0.018555,-0.032091,-0.015976
1010,-0.004466,0.0073732,0.011648,0.045193,0.015595,-0.024527,-0.01203
1011,-0.0080836,0.012635,0.011648,0.036314,0.013951,-0.011372,-0.0018351
1012,-0.0034794,0.010991,0.0083598,0.027434,0.010004,0.0024402,0.0083598
1013,0.0050711,0.0044134,0.0050711,0.023159,0.0017824,0.0096753,0.014279
1014,0.01132,-0.0057815,0.0040845,0.024803,-0.010386,0.0083598,0.016253
1015,0.010991,-0.012359,0.0044134,0.027105,-0.021567,0.0073732,0.018555
1016,0.0037556,-0.011372,0.0063866,0.02579,-0.024856,0.0040845,0.021186
1017,-0.0054526,-0.0057815,0.0060577,0.019541,-0.018936,0.00046697,0.019541
1018,-0.012359,0.0024402,0.0034268,0.010662,-0.0080836,-0.0061104,0.01132
1019,-0.013345,0.010662,0.002769,0.0017824,-0.0024928,-0.01499,-0.002164
1020,-0.0074258,0.019212,0.0057288,-0.0057815,-0.0054526,-0.024527,-0.013345
1021,0.0017824,0.02579,0.011977,-0.011043,-0.01499,-0.031104,-0.016963
1022,0.0063866,0.028092,0.020528,-0.015976,-0.022554,-0.030447,-0.011372
1023,0.0030979,0.025132,0.030394,-0.016634,-0.019594,-0.024856,0.0040845
1024,-0.0031506,0.021186,0.033683,-0.011701,-0.007097,-0.019265,0.024145
1025,-0.0067681,0.021843,0.031381,-0.0057815,0.0086887,-0.016963,0.04026
1026,-0.0031506,0.025461,0.024474,-0.0015062,0.019541,-0.019265,0.045522
1027,0.0030979,0.031709,0.015595,-0.00051963,0.020199,-0.020909,0.04026
1028,0.0090175,0.034998,0.0060577,-0.002164,0.011648,-0.019923,0.030394
1029,0.0093464,0.032696,-0.002164,-0.0047949,-0.0054526,-0.01499,0.020528
1030,0.0030979,0.030065,-0.0051238,-0.007097,-0.024527,-0.0067681,0.012635
1031,-0.0018351,0.029407,-0.0041372,-0.0097279,-0.037353,0.00046697,0.0083598
1032,-0.0054526,0.033354,-0.0008485,-0.012688,-0.034722,0.0060577,0.0044134
1033,-0.0057815,0.039273,0.0024402,-0.014332,-0.018936,0.010004,0.0040845
1034,-0.0064392,0.042891,0.0017824,-0.012359,0.0011247,0.0090175,0.00079584
1035,-0.0077547,0.045193,-0.0034794,-0.007097,0.016253,0.0040845,-0.0041372
1036,-0.007097,0.043877,-0.011372,-0.0031506,0.021843,-0.0018351,-0.0057815
1037,-0.004466,0.040589,-0.015648,-0.0054526,0.021514,-0.0064392,-0.0011774
1038,0.0017824,0.033025,-0.012688,-0.015319,0.020528,-0.0077547,0.0086887
1039,0.0080309,0.021186,-0.002164,-0.025514,0.021514,-0.0041372,0.022172
1040,0.0093464,0.0067154,0.0073732,-0.031433,0.026447,0.0024402,0.031052
1041,0.0017824,-0.0047949,0.010004,-0.03242,0.026447,0.0080309,0.031709
1042,-0.0084125,-0.010386,0.0060577,-0.030775,0.020199,0.0096753,0.022172
1043,-0.018607,-0.011043,0.0001381,-0.027816,0.0083598,0.0057288,0.010333
1044,-0.026171,-0.0097279,-0.0028217,-0.022883,-0.0024928,-0.00051963,0.0024402
1045,-0.02946,-0.0097279,-0.0038083,-0.018278,-0.0051238,-0.0034794,0.0030979
1046,-0.026171,-0.011701,-0.0067681,-0.015648,0.00079584,-0.00019077,0.0054
1047,-0.017292,-0.012688,-0.010386,-0.016305,0.012635,0.0093464,0.0086887
1048,-0.0080836,-0.010386,-0.011372,-0.020581,0.020857,0.021514,0.01132
1049,-0.0015062,-0.004466,-0.0090702,-0.026829,0.021186,0.029078,0.013622
1050,0.0040845,0.0047422,-0.002164,-0.033735,0.01132,0.027763,0.018555
1051,0.0040845,0.015595,0.0063866,-0.039984,-0.0034794,0.019212,0.026447
1052,-0.0024928,0.021843,0.013951,-0.043272,-0.018278,0.0093464,0.029736
1053,-0.014332,0.020528,0.020528,-0.044917,-0.026171,0.0037556,0.028092
1054,-0.02354,0.01132,0.024474,-0.050836,-0.023869,0.0054,0.026447
1055,-0.024856,0.0021113,0.025132,-0.057414,-0.014661,0.013622,0.027763
1056,-0.01499,-0.0038083,0.01987,-0.060702,0.00046697,0.019541,0.029078
1057,-0.00019077,-0.0041372,0.0093464,-0.056756,0.018555,0.018884,0.026119
1058,0.014937,0.0011247,-0.0057815,-0.04689,0.030394,0.012306,0.017897
1059,0.026447,0.0060577,-0.019923,-0.037024,0.026447,0.0057288,0.0090175
1060,0.033025,0.0080309,-0.031104,-0.034064,0.0070443,0.002769,0.002769
1061,0.034669,0.0063866,-0.03538,-0.040313,-0.018936,0.0037556,0.00079584
1062,0.02875,0.0024402,-0.034064,-0.045903,-0.039655,0.0040845,0.0040845
1063,0.015924,-0.002164,-0.031762,-0.046561,-0.051823,-0.0015062,0.015924
1064,0.0011247,-0.0080836,-0.028144,-0.041628,-0.055112,-0.011043,0.031709
1065,-0.011701,-0.016634,-0.024856,-0.032091,-0.046561,-0.022225,0.049139
1066,-0.020252,-0.024527,-0.022554,-0.022554,-0.030775,-0.030447,0.062294
1067,-0.020581,-0.032091,-0.020581,-0.014003,-0.015319,-0.032749,0.064267
1068,-0.016963,-0.036037,-0.020909,-0.0077547,-0.0067681,-0.03242,0.051113
1069,-0.013017,-0.032749,-0.022225,0.00046697,-0.0034794,-0.02946,0.02875
1070,-0.010057,-0.024198,-0.023211,0.0093464,0.00079584,-0.021238,0.0044134
1071,-0.0080836,-0.015319,-0.024527,0.017239,0.0070443,-0.0077547,-0.017292
1072,-0.0074258,-0.010715,-0.025842,0.024145,0.0090175,0.0070443,-0.028473
1073,-0.0080836,-0.012359,-0.027487,0.033683,0.0083598,0.015266,-0.032749
1074,-0.0093991,-0.020581,-0.027816,0.04322,0.0070443,0.013293,-0.030775
1075,-0.015319,-0.029789,-0.026829,0.04618,0.0073732,0.0047422,-0.025842
1076,-0.025842,-0.034064,-0.024527,0.042562,0.012306,-0.0054526,-0.020581
1077,-0.03538,-0.033735,-0.020909,0.035327,0.020199,-0.014661,-0.01499
1078,-0.036037,-0.03242,-0.017621,0.029736,0.027434,-0.022883,-0.011701
1079,-0.028144,-0.031762,-0.013017,0.028421,0.028092,-0.025842,-0.010057
1080,-0.013345,-0.033078,-0.0087413,0.028421,0.023159,-0.026171,-0.0051238
1081,0.002769,-0.03538,-0.0047949,0.027434,0.013951,-0.023869,0.0054
1082,0.015924,-0.035051,0.00046697,0.025132,0.0040845,-0.017621,0.014608
1083,0.026119,-0.028802,0.0047422,0.021186,-0.0028217,-0.0074258,0.01691
1084,0.035327,-0.019923,0.0054,0.016581,-0.010386,0.0037556,0.010991
1085,0.044864,-0.014332,0.0037556,0.016253,-0.013674,0.010991,0.0040845
1086,0.049139,-0.012688,0.0021113,0.019212,-0.012359,0.014937,-0.0015062
1087,0.046837,-0.013017,0.0001381,0.026447,-0.0064392,0.012306,-0.0018351
1088,0.036314,-0.014332,-0.00051963,0.03434,0.0017824,0.0037556,0.0057288
1089,0.021186,-0.013345,0.0014536,0.040589,0.010004,-0.007097,0.018226
1090,0.0044134,-0.010057,0.0057288,0.044535,0.015595,-0.016963,0.030394
1091,-0.0074258,-0.00019077,0.0063866,0.044535,0.010991,-0.020252,0.035327
1092,-0.011372,0.012306,0.0011247,0.042562,-0.0031506,-0.01499,0.02875
1093,-0.0084125,0.024145,-0.0084125,0.039602,-0.019265,-0.0024928,0.018884
1094,-0.002164,0.03434,-0.015319,0.033354,-0.032749,0.010004,0.012964
1095,0.0044134,0.038287,-0.018607,0.025132,-0.04097,0.016253,0.011977
1096,0.01132,0.034669,-0.016634,0.020199,-0.047877,0.018884,0.015266
1097,0.015924,0.027105,-0.013017,0.018226,-0.053796,0.020528,0.023488
1098,0.011977,0.021514,-0.011701,0.017897,-0.054454,0.025132,0.029078
1099,0.00079584,0.021514,-0.012359,0.015924,-0.048863,0.033025,0.029078
1100,-0.0097279,0.022501,-0.013674,0.012306,-0.038668,0.039273,0.030065
1101,-0.016634,0.024803,-0.014003,0.0057288,-0.026829,0.038616,0.030394
1102,-0.016634,0.024803,-0.012688,-0.0008485,-0.019265,0.033025,0.028421
1103,-0.011701,0.023488,-0.011043,-0.0057815,-0.018607,0.02283,0.021843
1104,-0.0031506,0.020857,-0.0074258,-0.0011774,-0.021567,0.011648,0.016253
1105,0.0063866,0.021514,-0.0038083,0.01132,-0.026171,0.0030979,0.013951
1106,0.0093464,0.025132,-0.0051238,0.021514,-0.02946,-0.0008485,0.018555
1107,0.0090175,0.033683,-0.011372,0.019212,-0.030118,-0.004466,0.030065
1108,0.010333,0.043549,-0.017621,0.0040845,-0.030447,-0.010715,0.043549
1109,0.015595,0.051113,-0.017292,-0.017292,-0.029131,-0.015648,0.053086
1110,0.020199,0.053415,-0.010057,-0.031433,-0.025514,-0.015976,0.053415
1111,0.018884,0.051441,-0.00019077,-0.034393,-0.019594,-0.014661,0.048153
1112,0.0086887,0.047166,0.0080309,-0.030118,-0.0084125,-0.015319,0.04322
1113,-0.0057815,0.044535,0.010333,-0.026829,0.0047422,-0.016634,0.039931
1114,-0.016963,0.044535,0.0073732,-0.029131,0.012306,-0.015976,0.039273
1115,-0.021896,0.045193,0.0001381,-0.031104,0.0090175,-0.014332,0.042233
1116,-0.022554,0.045193,-0.0074258,-0.030118,-0.0008485,-0.011372,0.050126
1117,-0.018607,0.045522,-0.0093991,-0.024198,-0.010715,-0.0087413,0.05473
1118,-0.0087413,0.04322,-0.004466,-0.01795,-0.014003,-0.0067681,0.055059
1119,0.0040845,0.039602,0.0060577,-0.016305,-0.011372,-0.0077547,0.047166
1120,0.010662,0.036642,0.015924,-0.022883,-0.0074258,-0.013674,0.028092
1121,0.012306,0.037629,0.023817,-0.032091,-0.0067681,-0.02354,0.0054
1122,0.012635,0.039931,0.028421,-0.039655,-0.010057,-0.028144,-0.011372
1123,0.016581,0.041575,0.031381,-0.041957,-0.015976,-0.025514,-0.016634
1124,0.02283,0.038944,0.031381,-0.038011,-0.019265,-0.017621,-0.013345
1125,0.027763,0.033354,0.026776,-0.031433,-0.014332,-0.0084125,-0.0077547
1126,0.028421,0.030723,0.016253,-0.023211,-0.0041372,-0.0031506,-0.0018351
1127,0.020199,0.035656,0.0063866,-0.01499,0.0077021,-0.0038083,0.0037556
1128,0.0083598,0.042891,0.00046697,-0.01203,0.01691,-0.0064392,0.0047422
1129,-0.0038083,0.047495,0.0021113,-0.0097279,0.02283,-0.0090702,0.0021113
1130,-0.011043,0.04881,0.0080309,-0.0067681,0.023159,-0.010386,-0.0011774
1131,-0.013017,0.050784,0.014608,-0.0015062,0.018555,-0.01203,-0.0051238
1132,-0.012359,0.052099,0.018884,0.0021113,0.01132,-0.01499,-0.0090702
1133,-0.0080836,0.049797,0.01987,0.0057288,0.010333,-0.016305,-0.0093991
1134,-0.0041372,0.042562,0.017239,0.0096753,0.012635,-0.015319,-0.0057815
1135,-0.0034794,0.033025,0.011977,0.010662,0.014608,-0.014332,0.0001381
1136,-0.0077547,0.024474,0.0090175,0.0080309,0.021514,-0.015319,0.0014536
1137,-0.013017,0.01691,0.010662,0.0017824,0.030723,-0.015648,-0.0018351
1138,-0.014661,0.010004,0.013622,-0.0054526,0.033354,-0.013017,-0.0080836
1139,-0.010715,0.0037556,0.016253,-0.01203,0.028421,-0.0051238,-0.011043
1140,-0.0054526,-0.0018351,0.013293,-0.013674,0.021186,0.0054,-0.007097
1141,-0.0024928,-0.0074258,0.0070443,-0.0087413,0.01691,0.015266,-0.0051238
1142,-0.0028217,-0.012688,0.002769,0.0001381,0.012635,0.019212,-0.0054526
1143,-0.004466,-0.014661,0.0021113,0.011977,0.0067154,0.017568,-0.0077547
1144,-0.007097,-0.011043,0.0054,0.027763,0.00079584,0.012306,-0.011372
1145,-0.0090702,-0.0038083,0.0054,0.042233,-0.0034794,0.0001381,-0.012359
1146,-0.0080836,0.0060577,0.0011247,0.05177,-0.0047949,-0.013674,-0.0097279
1147,-0.0034794,0.013951,-0.0051238,0.055059,-0.0067681,-0.021567,-0.0028217
1148,0.0050711,0.016253,-0.012359,0.052099,-0.0064392,-0.020909,0.010662
1149,0.012635,0.015595,-0.017621,0.040589,-0.0041372,-0.011701,0.025132
1150,0.016253,0.010991,-0.019265,0.024803,0.00046697,0.0024402,0.035656
1151,0.022172,0.0021113,-0.016634,0.013293,0.0021113,0.012635,0.036971
1152,0.027763,-0.0074258,-0.015648,0.010662,0.0011247,0.011977,0.031052
1153,0.028421,-0.017621,-0.018278,0.017568,-0.0015062,0.002769,0.021514
1154,0.021843,-0.025842,-0.022225,0.029078,-0.0057815,-0.0077547,0.012306
1155,0.0090175,-0.033735,-0.025842,0.041247,-0.010057,-0.012359,0.0047422
1156,-0.007097,-0.041628,-0.028802,0.04881,-0.011372,-0.013674,-0.004466
1157,-0.018278,-0.04689,-0.032091,0.05177,-0.0093991,-0.015319,-0.016963
1158,-0.022883,-0.051823,-0.03538,0.049139,-0.007097,-0.014661,-0.032091
1159,-0.019594,-0.054783,-0.038339,0.043549,-0.0067681,-0.011372,-0.043601
1160,-0.012688,-0.055112,-0.039984,0.037629,-0.010715,-0.0077547,-0.047548
1161,-0.0061104,-0.056098,-0.040313,0.031709,-0.020252,-0.0047949,-0.041957
1162,0.0001381,-0.059058,-0.037353,0.025461,-0.032091,-0.0041372,-0.031762
1163,0.0054,-0.060045,-0.029789,0.01987,-0.040313,-0.00051963,-0.022554
1164,0.002769,-0.057085,-0.019923,0.020199,-0.038997,0.0070443,-0.018607
1165,-0.0047949,-0.049521,-0.010715,0.026447,-0.027158,0.013951,-0.019265
1166,-0.014003,-0.040641,-0.002164,0.039602,-0.011372,0.017568,-0.018607
1167,-0.019265,-0.034064,0.0047422,0.052757,0.0047422,0.018226,-0.015648
1168,-0.021238,-0.034393,0.0083598,0.058019,0.017897,0.012635,-0.015319
1169,-0.018936,-0.038011,0.0073732,0.052099,0.027105,0.0024402,-0.017292
1170,-0.013017,-0.038997,0.0024402,0.0373,0.02875,-0.011372,-0.018607
1171,-0.0028217,-0.036037,-0.0054526,0.020199,0.024145,-0.021567,-0.013674
1172,0.0086887,-0.031433,-0.013674,0.0073732,0.015924,-0.02354,-0.0054526
1173,0.021186,-0.025842,-0.020909,0.0040845,0.0067154,-0.016963,0.0011247
1174,0.031381,-0.022883,-0.023211,0.0090175,0.0024402,-0.0015062,0.0024402
1175,0.032696,-0.017621,-0.018278,0.016253,0.0067154,0.014279,0.0001381
1176,0.023159,-0.011043,-0.0057815,0.023159,0.015924,0.023488,-0.0031506
1177,0.0093464,-0.0067681,0.010991,0.028092,0.022172,0.022501,-0.004466
1178,-0.0011774,-0.0067681,0.025132,0.029736,0.023159,0.011977,-0.0067681
1179,-0.0077547,-0.012359,0.030065,0.031052,0.017897,-0.0024928,-0.01203
1180,-0.013017,-0.020252,0.025132,0.032038,0.010991,-0.015648,-0.016634
1181,-0.016305,-0.025185,0.014279,0.032367,0.0086887,-0.022883,-0.012688
1182,-0.013674,-0.022225,0.0017824,0.033354,0.010004,-0.022554,-0.0034794
1183,-0.0024928,-0.01203,-0.007097,0.03434,0.015266,-0.01795,0.0044134
1184,0.012964,0.00079584,-0.010386,0.031709,0.017239,-0.0077547,0.0086887
1185,0.024803,0.01132,-0.0084125,0.027763,0.010991,0.0037556,0.0093464
1186,0.028421,0.016253,-0.0008485,0.023817,-0.0011774,0.01132,0.0067154
1187,0.025132,0.014608,0.0037556,0.019212,-0.013017,0.011648,-0.0008485
1188,0.015266,0.012964,0.0054,0.010991,-0.016963,0.0080309,-0.0074258
1189,0.0011247,0.015266,0.0063866,-0.0011774,-0.014661,0.0037556,-0.0087413
1190,-0.012359,0.021843,0.0054,-0.014661,-0.0074258,0.0047422,-0.0024928
1191,-0.021567,0.031381,0.0054,-0.028144,0.00046697,0.01132,0.0086887
1192,-0.024856,0.04026,0.0073732,-0.040641,0.0070443,0.019212,0.023488
1193,-0.027487,0.045851,0.01132,-0.048205,0.0083598,0.024145,0.036314
1194,-0.030447,0.048153,0.015595,-0.051165,0.0040845,0.023817,0.042562
1195,-0.035708,0.049139,0.015924,-0.046232,-0.002164,0.021186,0.039931
1196,-0.040313,0.046837,0.011977,-0.037682,-0.0097279,0.015595,0.031709
1197,-0.038997,0.041904,0.0070443,-0.032091,-0.015976,0.0090175,0.018555
1198,-0.034393,0.034669,0.0024402,-0.033735,-0.021567,0.0014536,0.0044134
1199,-0.027158,0.029078,-0.00019077,-0.042615,-0.024198,-0.0077547,-0.0011774
1200,-0.021567,0.026119,0.0017824,-0.052481,-0.023211,-0.012688,0.0017824
1201,-0.018936,0.024474,0.0060577,-0.05281,-0.019923,-0.011372,0.010333
1202,-0.019923,0.021843,0.01132,-0.041957,-0.018278,-0.0051238,0.020857
1203,-0.020252,0.015595,0.016253,-0.026171,-0.021238,0.0021113,0.030065
1204,-0.018936,0.011648,0.018555,-0.011043,-0.029131,0.0057288,0.033683
1205,-0.01203,0.012635,0.016253,-0.00051963,-0.035708,0.0057288,0.031381
1206,-0.0031506,0.020199,0.0090175,0.0040845,-0.037353,0.0047422,0.027763
1207,0.0047422,0.029736,0.00046697,0.0070443,-0.036366,0.0030979,0.025132
1208,0.013293,0.0373,-0.0084125,0.010004,-0.033406,0.002769,0.022501
1209,0.020199,0.040918,-0.014661,0.012635,-0.031762,0.0014536,0.021186
1210,0.021186,0.039602,-0.018936,0.010662,-0.028473,0.0017824,0.017897
1211,0.015924,0.038944,-0.018607,0.0050711,-0.021896,0.0044134,0.0083598
1212,0.0093464,0.037958,-0.01499,-0.0031506,-0.015976,0.0060577,-0.0061104
1213,0.0044134,0.035327,-0.0077547,-0.0097279,-0.011043,0.0030979,-0.017292
1214,0.002769,0.030723,0.0017824,-0.01203,-0.012359,-0.0015062,-0.018278
1215,0.0067154,0.02579,0.0086887,-0.007097,-0.014332,-0.004466,-0.0087413
1216,0.013293,0.019212,0.0086887,0.002769,-0.016963,-0.0047949,0.0054
1217,0.017239,0.014279,0.0063866,0.013293,-0.016963,-0.0034794,0.016581
1218,0.016253,0.012635,0.0040845,0.020199,-0.013674,-0.0031506,0.020528
1219,0.0070443,0.015595,0.0030979,0.023817,-0.0097279,-0.0024928,0.018226
1220,-0.0067681,0.024145,0.0040845,0.022172,-0.0064392,-0.0018351,0.011648
1221,-0.019265,0.033354,0.0030979,0.015266,-0.0024928,-0.0024928,0.0021113
1222,-0.025185,0.043549,0.0017824,0.0070443,-0.00019077,-0.00051963,-0.0061104
1223,-0.021896,0.049468,-0.00019077,-0.00051963,-0.0024928,0.0021113,-0.012359
1224,-0.010715,0.04322,-0.0011774,-0.004466,-0.0087413,0.0034268,-0.012359
1225,0.0047422,0.02283,-0.0031506,-0.0047949,-0.010715,0.00079584,-0.0074258
1226,0.020199,-0.002164,-0.0064392,-0.00019077,-0.0090702,-0.0064392,-0.0034794
1227,0.030394,-0.022883,-0.0097279,0.010004,-0.0031506,-0.013674,-0.0028217
1228,0.032696,-0.033406,-0.011043,0.025132,0.0044134,-0.016305,-0.0015062
1229,0.029407,-0.037682,-0.0093991,0.039273,0.012306,-0.016963,0.0014536
1230,0.024803,-0.039984,-0.0074258,0.04618,0.021514,-0.016963,0.0011247
1231,0.01987,-0.043272,-0.0064392,0.045522,0.029078,-0.016963,0.0037556
1232,0.020199,-0.042944,-0.0054526,0.042562,0.038616,-0.016634,0.011977
1233,0.024803,-0.038011,-0.0054526,0.037629,0.046508,-0.01795,0.02283
1234,0.030394,-0.031433,-0.0051238,0.031709,0.052099,-0.02354,0.029078
1235,0.032038,-0.026829,-0.0077547,0.029078,0.048153,-0.032091,0.029736
1236,0.029736,-0.025514,-0.011701,0.030065,0.035656,-0.037353,0.027434
1237,0.027763,-0.0265,-0.015319,0.032696,0.01691,-0.039326,0.023488
1238,0.029736,-0.028144,-0.016634,0.038287,-0.00019077,-0.036695,0.017568
1239,0.035327,-0.029789,-0.014661,0.044206,-0.0080836,-0.028802,0.0090175
1240,0.040589,-0.027487,-0.013017,0.046508,-0.0067681,-0.018936,-0.0028217
1241,0.040918,-0.024198,-0.011372,0.044206,0.0040845,-0.013017,-0.015648
1242,0.032367,-0.024856,-0.0080836,0.0373,0.014279,-0.012688,-0.025514
1243,0.021186,-0.032091,-0.0054526,0.033025,0.018884,-0.018607,-0.027816
1244,0.014937,-0.043272,-0.00019077,0.032696,0.013951,-0.025842,-0.021896
1245,0.020528,-0.051823,0.0057288,0.032038,0.0011247,-0.026829,-0.0087413
1246,0.033025,-0.053467,0.012635,0.029407,-0.0093991,-0.022883,0.0047422
1247,0.040589,-0.043601,0.018555,0.02579,-0.013017,-0.01795,0.012306
1248,0.036314,-0.0265,0.022172,0.023817,-0.012688,-0.012359,0.01691
1249,0.025132,-0.0090702,0.022172,0.024803,-0.011372,-0.0084125,0.020199
1250,0.014279,0.0021113,0.016253,0.029736,-0.007097,-0.0051238,0.023488
1251,0.0083598,0.0083598,0.0070443,0.034669,-0.002164,0.0014536,0.02579
1252,0.0090175,0.013622,0.0017824,0.033025,0.00079584,0.010333,0.025132
1253,0.014608,0.018884,0.0030979,0.028421,0.00046697,0.020857,0.023817
1254,0.018226,0.024145,0.0073732,0.025461,-0.0008485,0.026776,0.023817
1255,0.018226,0.029078,0.010004,0.025132,-0.0041372,0.027434,0.02579
1256,0.011977,0.030394,0.0086887,0.027105,-0.0084125,0.020199,0.027434
1257,0.0030979,0.024474,0.0021113,0.027763,-0.01795,0.0067154,0.026776
1258,-0.0061104,0.01132,-0.0057815,0.026447,-0.030118,-0.0090702,0.024145
1259,-0.010715,-0.0034794,-0.01499,0.023488,-0.038997,-0.021238,0.018884
1260,-0.0097279,-0.013674,-0.019265,0.020199,-0.039984,-0.020252,0.015266
1261,-0.0041372,-0.01499,-0.015648,0.014608,-0.034722,-0.0077547,0.011977
1262,-0.0008485,-0.0087413,-0.0051238,0.0093464,-0.023211,0.0086887,0.0067154
1263,-0.0054526,0.0030979,0.0073732,0.0040845,-0.0097279,0.021843,0.0001381
1264,-0.013674,0.015266,0.020857,0.0011247,0.0047422,0.028092,-0.0064392
1265,-0.018936,0.024474,0.031709,0.002769,0.01691,0.026447,-0.007097
1266,-0.019594,0.030723,0.037629,0.0060577,0.025461,0.020528,-0.0024928
1267,-0.019594,0.03434,0.036971,0.0083598,0.029078,0.016253,0.0044134
1268,-0.018936,0.036971,0.034998,0.010991,0.02875,0.016253,0.010991
1269,-0.018278,0.035656,0.033354,0.01132,0.026119,0.020528,0.013951
1270,-0.018936,0.032696,0.02875,0.0080309,0.018555,0.027105,0.012635
1271,-0.023211,0.02579,0.01987,-0.00051963,0.0030979,0.030394,0.0090175
1272,-0.030118,0.017897,0.0050711,-0.0087413,-0.014661,0.025461,0.0037556
1273,-0.03538,0.013293,-0.0093991,-0.015319,-0.024527,0.014937,-0.00019077
1274,-0.034064,0.014279,-0.017621,-0.018607,-0.02354,0.0044134,-0.0057815
1275,-0.027487,0.01987,-0.015976,-0.019923,-0.017621,-0.0047949,-0.0090702
1276,-0.017621,0.026447,-0.0097279,-0.016305,-0.011043,-0.014661,-0.0087413
1277,-0.0051238,0.035656,-0.0047949,-0.012688,-0.0074258,-0.02354,-0.0018351
1278,0.0050711,0.046837,-0.0028217,-0.0093991,-0.0015062,-0.028802,0.0083598
1279,0.010991,0.059992,-0.0024928,-0.0090702,0.0086887,-0.031762,0.014279
1280,0.012306,0.071173,-0.0031506,-0.0097279,0.018884,-0.030447,0.011648
1281,0.011648,0.079724,-0.0015062,-0.011043,0.029736,-0.025514,0.0011247
1282,0.010004,0.084328,0.0070443,-0.016634,0.036971,-0.016963,-0.0074258
1283,0.0096753,0.085315,0.019212,-0.025185,0.039273,-0.0041372,-0.0074258
1284,0.011648,0.082355,0.031052,-0.031104,0.035327,0.0090175,0.0017824
1285,0.012306,0.077422,0.038287,-0.030118,0.026447,0.019212,0.014279
1286,0.0096753,0.070516,0.036971,-0.022225,0.010991,0.024145,0.022172
1287,0.0070443,0.058348,0.027434,-0.014003,-0.0038083,0.021843,0.021514
1288,0.0040845,0.043877,0.014608,-0.010057,-0.013017,0.013293,0.017897
1289,0.0014536,0.026776,0.0054,-0.01499,-0.013017,0.002769,0.013293
1290,-0.0047949,0.0080309,-0.0008485,-0.024856,-0.0061104,-0.002164,0.0090175
1291,-0.014332,-0.010057,-0.0064392,-0.033078,-0.0015062,-0.00019077,0.0073732
1292,-0.024198,-0.026171,-0.011372,-0.035708,-0.0031506,0.0030979,0.0057288
1293,-0.032749,-0.039655,-0.01795,-0.027816,-0.0064392,0.0054,0.0024402
1294,-0.04097,-0.048863,-0.024527,-0.011372,-0.010386,0.0073732,-0.0024928
1295,-0.045246,-0.051823,-0.026829,0.0044134,-0.014003,0.0093464,-0.0064392
1296,-0.046232,-0.051494,-0.021567,0.013293,-0.018278,0.0093464,-0.010386
1297,-0.041299,-0.048863,-0.01203,0.014608,-0.022883,0.0067154,-0.013674
1298,-0.032749,-0.042615,-0.0018351,0.0096753,-0.027158,0.0060577,-0.011372
1299,-0.025185,-0.033735,0.0044134,0.0034268,-0.03242,0.0077021,-0.0047949
1300,-0.022225,-0.024198,0.0050711,0.0001381,-0.037353,0.0083598,0.002769
1301,-0.020909,-0.017292,0.00079584,0.0014536,-0.038997,0.0096753,0.0047422
1302,-0.018278,-0.011701,-0.0067681,0.002769,-0.035708,0.011977,0.0021113
1303,-0.012688,-0.0077547,-0.013674,0.0080309,-0.028802,0.012306,0.0011247
1304,-0.0061104,-0.0034794,-0.021567,0.015266,-0.023869,0.012306,0.0054
1305,-0.0011774,0.0017824,-0.026829,0.02283,-0.02354,0.012964,0.012964
1306,0.0017824,0.0060577,-0.025842,0.029078,-0.027158,0.014937,0.017239
1307,0.0021113,0.0080309,-0.021896,0.031381,-0.033078,0.014608,0.017897
1308,0.00046697,0.0086887,-0.019265,0.030065,-0.038339,0.011977,0.012964
1309,-0.0031506,0.0080309,-0.016963,0.023817,-0.040641,0.0060577,0.0054
1310,-0.0074258,0.0044134,-0.013674,0.015595,-0.040313,-0.0008485,0.0001381
1311,-0.013017,0.0011247,-0.011043,0.0050711,-0.034722,-0.004466,-0.0024928
1312,-0.017621,-0.004466,-0.013674,-0.007097,-0.028473,-0.0038083,-0.00019077
1313,-0.020252,-0.014003,-0.019594,-0.017292,-0.030118,-0.0031506,0.0017824
1314,-0.021238,-0.023211,-0.024198,-0.019923,-0.039655,-0.0034794,0.0024402
1315,-0.02354,-0.032091,-0.026829,-0.017621,-0.054454,-0.0057815,-0.00019077
1316,-0.032749,-0.039984,-0.02354,-0.013017,-0.063662,-0.0054526,-0.0077547
1317,-0.043601,-0.046232,-0.017292,-0.0090702,-0.062676,-0.0061104,-0.015648
1318,-0.050836,-0.047548,-0.012359,-0.007097,-0.053138,-0.0074258,-0.016963
1319,-0.049192,-0.042944,-0.010386,-0.0057815,-0.039326,-0.0074258,-0.013017
1320,-0.035708,-0.034722,-0.0080836,-0.0054526,-0.027158,-0.002164,-0.0054526
1321,-0.014003,-0.025185,-0.0064392,-0.0064392,-0.020581,0.0073732,0.0014536
1322,0.0054,-0.017292,-0.0057815,-0.0077547,-0.016963,0.011977,0.0073732
1323,0.016581,-0.01203,-0.0047949,-0.010715,-0.01203,0.0096753,0.010333
1324,0.021843,-0.01203,-0.0034794,-0.011372,-0.0057815,0.0060577,0.011648
1325,0.021514,-0.014661,-0.0034794,-0.010386,0.0011247,0.0054,0.013622
1326,0.020199,-0.018936,-0.0054526,-0.0054526,0.0040845,0.0083598,0.018555
1327,0.018226,-0.022225,-0.0051238,-0.0008485,0.0040845,0.012635,0.026119
1328,0.014279,-0.021238,-0.0018351,0.0030979,0.0050711,0.013951,0.034998
1329,0.011977,-0.018278,0.0017824,0.0073732,0.0077021,0.011648,0.041575
1330,0.010662,-0.014003,0.00046697,0.010991,0.0073732,0.0086887,0.045851
1331,0.010333,-0.0097279,-0.0038083,0.016581,0.00079584,0.0073732,0.042562
1332,0.010004,-0.004466,-0.007097,0.024145,-0.0097279,0.0073732,0.029078
1333,0.011648,0.00046697,-0.0093991,0.032038,-0.018936,0.0054,0.010662
1334,0.010004,0.0063866,-0.010386,0.034669,-0.022554,0.0024402,-0.007097
1335,0.0057288,0.012635,-0.012359,0.030394,-0.022225,0.0034268,-0.01795
1336,0.0014536,0.017897,-0.015976,0.019541,-0.019265,0.0093464,-0.019594
1337,-0.0011774,0.019541,-0.019923,0.0040845,-0.016305,0.018226,-0.011701
1338,-0.0018351,0.018884,-0.024198,-0.010715,-0.013674,0.026447,0.0047422
1339,0.0001381,0.020857,-0.026171,-0.020909,-0.012688,0.034011,0.021186
1340,0.0057288,0.029407,-0.026829,-0.026829,-0.015976,0.044206,0.034998
1341,0.015266,0.041247,-0.024856,-0.027487,-0.022225,0.05177,0.048482
1342,0.023159,0.052428,-0.022883,-0.024198,-0.027158,0.052757,0.060979
1343,0.028421,0.056374,-0.023869,-0.019923,-0.027158,0.047495,0.070516
1344,0.030394,0.056046,-0.028802,-0.018607,-0.02354,0.0373,0.074791
1345,0.025132,0.051441,-0.034722,-0.018278,-0.018936,0.024474,0.068543
1346,0.018555,0.04881,-0.039326,-0.023211,-0.013345,0.010333,0.056046
1347,0.010662,0.046508,-0.040313,-0.02946,-0.0011774,-0.0015062,0.043549
1348,0.0034268,0.046837,-0.040313,-0.032091,0.013951,-0.0084125,0.036314
1349,-0.00051963,0.048153,-0.038668,-0.031433,0.026447,-0.010057,0.033354
1350,-0.0011774,0.052428,-0.034722,-0.027487,0.028092,-0.0051238,0.032696
1351,0.0034268,0.058019,-0.028802,-0.022883,0.014937,-0.00019077,0.032367
1352,0.01132,0.059992,-0.019923,-0.01795,-0.0041372,0.0021113,0.035327
1353,0.021186,0.05769,-0.012688,-0.0084125,-0.018278,0.0034268,0.042233
1354,0.030723,0.052428,-0.0077547,0.0047422,-0.020909,0.0030979,0.047495
1355,0.035656,0.047166,-0.010715,0.017568,-0.01499,-0.004466,0.042891
1356,0.032038,0.040918,-0.015319,0.031709,-0.0057815,-0.017621,0.033354
1357,0.024474,0.031709,-0.019594,0.038944,0.0044134,-0.031433,0.026447
1358,0.020857,0.020199,-0.019923,0.0373,0.0093464,-0.039984,0.026119
1359,0.020528,0.0073732,-0.016305,0.023817,0.0037556,-0.039655,0.031709
1360,0.018555,0.0017824,-0.01203,0.0034268,-0.0074258,-0.034393,0.034669
1361,0.010991,0.0054,-0.0093991,-0.013017,-0.015319,-0.032091,0.032696
1362,0.0001381,0.015595,-0.0077547,-0.019265,-0.017292,-0.035708,0.027105
1363,-0.0074258,0.029736,-0.0057815,-0.014003,-0.010057,-0.041628,0.025132
1364,-0.011701,0.038616,-0.0090702,-0.002164,0.0093464,-0.046232,0.026119
1365,-0.0097279,0.039273,-0.015648,0.0093464,0.033683,-0.045574,0.023488
1366,-0.0034794,0.033683,-0.019265,0.016253,0.050455,-0.037682,0.01691
1367,-0.00019077,0.029407,-0.015976,0.018555,0.053086,-0.026829,0.0073732
1368,0.00046697,0.029736,-0.0074258,0.017239,0.047824,-0.016963,-0.0028217
1369,-0.0011774,0.035327,0.0034268,0.014937,0.037958,-0.012688,-0.010715
1370,-0.004466,0.042233,0.014279,0.010662,0.026119,-0.01499,-0.014661
1371,-0.0061104,0.048482,0.020528,0.0034268,0.020528,-0.024527,-0.013345
1372,-0.0087413,0.053415,0.021514,-0.0034794,0.021843,-0.038339,-0.0080836
1373,-0.013017,0.054401,0.018226,-0.0061104,0.027434,-0.047548,-0.0028217
1374,-0.016305,0.050784,0.011977,0.0001381,0.030065,-0.047877,-0.0008485
1375,-0.014661,0.043877,0.0063866,0.017239,0.031381,-0.039984,-0.00051963
1376,-0.010386,0.032367,0.0014536,0.038287,0.032038,-0.033735,-0.002164
1377,-0.0054526,0.018884,-0.00051963,0.057361,0.033354,-0.034064,-0.0047949
1378,-0.002164,0.0057288,-0.0008485,0.071502,0.036642,-0.038997,-0.0067681
1379,0.0017824,-0.0018351,-0.00019077,0.07512,0.038287,-0.043272,-0.0077547
1380,0.0030979,-0.0054526,0.0021113,0.071831,0.036971,-0.044917,-0.0077547
1381,0.0011247,-0.0041372,0.0067154,0.064267,0.032696,-0.040313,-0.0057815
1382,-0.0038083,-0.0011774,0.013951,0.057361,0.027763,-0.028802,-0.0038083
1383,-0.0064392,0.0024402,0.024474,0.053743,0.020199,-0.013017,-0.0041372
1384,-0.0051238,0.0037556,0.03434,0.055388,0.010004,0.00046697,-0.0041372
1385,-0.0031506,0.0017824,0.039602,0.056703,-0.0011774,0.0030979,-0.00019077
1386,-0.0015062,-0.0008485,0.0373,0.056046,-0.011701,-0.0061104,0.0057288
1387,-0.0008485,-0.0057815,0.033354,0.051441,-0.018936,-0.022883,0.0067154
1388,-0.0015062,-0.01795,0.030065,0.042891,-0.01795,-0.038339,0.00079584
1389,-0.0028217,-0.034064,0.025461,0.029078,-0.0084125,-0.049192,-0.0084125
1390,-0.0047949,-0.04689,0.020857,0.012306,-0.0011774,-0.052481,-0.010386
1391,-0.0051238,-0.052152,0.017568,-0.0038083,-0.0047949,-0.048534,-0.0015062
1392,-0.004466,-0.050507,0.015595,-0.013674,-0.0090702,-0.040313,0.0086887
1393,-0.0015062,-0.043601,0.017239,-0.01203,-0.010715,-0.03242,0.01132
1394,-0.0015062,-0.037353,0.021186,0.0021113,-0.0074258,-0.025185,0.002769
1395,-0.007097,-0.03538,0.024474,0.022501,-0.0031506,-0.021238,-0.011372
1396,-0.018936,-0.038011,0.024145,0.038944,0.0001381,-0.026171,-0.024527
1397,-0.028473,-0.041957,0.021186,0.048482,-0.0018351,-0.034064,-0.031104
1398,-0.030118,-0.046232,0.019212,0.049139,-0.010057,-0.038997,-0.028802
1399,-0.02354,-0.048205,0.017897,0.043877,-0.019923,-0.033735,-0.021567
1400,-0.012688,-0.048863,0.016253,0.033683,-0.02354,-0.021896,-0.011701
1401,-0.0047949,-0.046561,0.01691,0.026447,-0.021238,-0.01203,-0.00019077
1402,-0.00051963,-0.04393,0.015266,0.026447,-0.019265,-0.004466,0.011977
1403,-0.00019077,-0.043601,0.011648,0.030723,-0.024198,0.0017824,0.024145
1404,-0.0011774,-0.043272,0.0037556,0.035656,-0.032091,0.0060577,0.032367
1405,-0.0008485,-0.041957,-0.0074258,0.038287,-0.037024,0.0083598,0.034998
1406,0.002769,-0.038997,-0.017292,0.034998,-0.035051,0.0057288,0.031052
1407,0.0083598,-0.037353,-0.021238,0.026776,-0.031762,-0.002164,0.023159
1408,0.014279,-0.037024,-0.017621,0.018555,-0.028802,-0.010386,0.013293
1409,0.017568,-0.034722,-0.011372,0.013622,-0.028473,-0.01499,0.0093464
1410,0.020199,-0.031104,-0.0051238,0.012964,-0.027816,-0.011043,0.0086887
1411,0.01987,-0.024198,-0.0024928,0.014279,-0.022554,-0.002164,0.0073732
1412,0.016581,-0.016634,-0.0024928,0.017897,-0.011043,0.0037556,0.00046697
1413,0.010004,-0.0090702,-0.0064392,0.021186,0.0030979,0.0080309,-0.011701
1414,0.0024402,-0.0018351,-0.01203,0.022172,0.010991,0.0086887,-0.024198
1415,-0.002164,0.0080309,-0.014332,0.021186,0.0090175,0.0093464,-0.03242
1416,-0.0028217,0.015266,-0.01203,0.01987,0.002769,0.014608,-0.03538
1417,-0.0034794,0.019212,-0.0061104,0.020199,-0.004466,0.02283,-0.036695
1418,-0.0008485,0.01691,0.0011247,0.01987,-0.0061104,0.026447,-0.038339
1419,0.0047422,0.0077021,0.0047422,0.015924,-0.0041372,0.020857,-0.043601
1420,0.010333,-0.0038083,0.0034268,0.010004,-0.00051963,0.010662,-0.049521
1421,0.014608,-0.0097279,-0.0028217,0.0044134,0.0050711,-0.00019077,-0.054454
1422,0.016253,-0.0041372,-0.0087413,0.0017824,0.0096753,-0.0093991,-0.053796
1423,0.014937,0.0063866,-0.013017,0.0014536,0.015266,-0.013674,-0.044259
1424,0.011648,0.015924,-0.013017,-0.0011774,0.017897,-0.0057815,-0.022225
1425,0.0086887,0.020528,-0.010057,-0.0074258,0.018555,0.012964,0.00079584
1426,0.010333,0.022172,-0.0057815,-0.015976,0.018555,0.032696,0.017897
1427,0.019541,0.021843,-0.0047949,-0.022883,0.022501,0.045851,0.028421
1428,0.030723,0.023159,-0.004466,-0.024527,0.026776,0.050126,0.032367
1429,0.037958,0.029078,-0.0057815,-0.016634,0.030065,0.049797,0.031381
1430,0.037629,0.0373,-0.0054526,-0.0051238,0.033025,0.052099,0.028092
1431,0.032038,0.045522,-0.0034794,0.0021113,0.034669,0.056374,0.023817
1432,0.024474,0.049797,-0.00019077,0.0021113,0.029407,0.059663,0.017897
1433,0.016253,0.048482,0.002769,0.0001381,0.017239,0.058348,0.012964
1434,0.0060577,0.041904,0.0040845,0.00046697,0.0024402,0.049797,0.0077021
1435,-0.0041372,0.031381,0.0057288,-0.00019077,-0.013017,0.038287,0.0034268
1436,-0.0090702,0.020199,0.0047422,-0.0051238,-0.027487,0.02579,-0.002164
1437,-0.0093991,0.0083598,0.0047422,-0.014661,-0.036695,0.018884,-0.010386
1438,-0.0054526,-0.002164,0.0063866,-0.024198,-0.036037,0.015595,-0.019594
1439,-0.0011774,-0.0097279,0.0057288,-0.033078,-0.024527,0.014937,-0.024527
1440,0.0044134,-0.011701,0.0014536,-0.037682,-0.0084125,0.013622,-0.025185
1441,0.0090175,-0.0084125,-0.0018351,-0.038339,0.002769,0.010333,-0.020581
1442,0.014608,-0.0018351,-0.002164,-0.036366,0.012964,0.0080309,-0.0080836
1443,0.015924,0.0040845,-0.00051963,-0.03538,0.02283,0.0037556,0.0057288
1444,0.013951,0.0083598,0.0017824,-0.035708,0.030723,-0.00019077,0.014937
1445,0.0077021,0.0090175,0.0011247,-0.03538,0.031052,-0.0008485,0.015924
1446,-0.0018351,0.0080309,-0.0024928,-0.033078,0.026447,0.00079584,0.013622
1447,-0.010057,0.0067154,-0.0057815,-0.028144,0.024474,-0.00019077,0.0080309
1448,-0.013017,0.0080309,-0.0074258,-0.023211,0.028092,-0.0047949,-0.00019077
1449,-0.013674,0.010662,-0.0093991,-0.020909,0.034669,-0.016305,-0.0087413
1450,-0.01499,0.014279,-0.0097279,-0.021567,0.041247,-0.033406,-0.017292
1451,-0.020909,0.015266,-0.010057,-0.0265,0.04881,-0.047877,-0.024527
1452,-0.027816,0.013293,-0.011701,-0.035051,0.048482,-0.054125,-0.027158
1453,-0.030118,0.0096753,-0.011701,-0.043272,0.038944,-0.04689,-0.025842
1454,-0.026829,0.0024402,-0.010057,-0.045574,0.023817,-0.033735,-0.020909
1455,-0.024856,-0.0057815,-0.0057815,-0.039655,0.0080309,-0.022554,-0.012359
1456,-0.022883,-0.016305,0.00079584,-0.029131,-0.0057815,-0.017621,-0.0011774
1457,-0.01795,-0.026171,0.0093464,-0.024527,-0.013017,-0.014661,0.0073732
1458,-0.011043,-0.037682,0.015266,-0.022883,-0.018936,-0.012688,0.0096753
1459,-0.0031506,-0.04985,0.015266,-0.022554,-0.022225,-0.012359,0.012306
1460,0.0040845,-0.060373,0.0080309,-0.020909,-0.021567,-0.013017,0.01691
1461,0.0086887,-0.064978,-0.0031506,-0.014661,-0.015319,-0.011701,0.017897
1462,0.0083598,-0.06136,-0.011701,-0.0074258,-0.010386,-0.0080836,0.012635
1463,0.0044134,-0.050836,-0.015648,0.0014536,-0.0093991,0.0021113,0.0050711
1464,-0.0008485,-0.037024,-0.015319,0.0080309,-0.010715,0.014608,-0.0015062
1465,-0.0051238,-0.025514,-0.012359,0.0096753,-0.012688,0.024145,-0.0047949
1466,-0.0097279,-0.016305,-0.010386,0.010662,-0.014332,0.030394,-0.0047949
1467,-0.011372,-0.0093991,-0.010386,0.011648,-0.017621,0.031381,-0.0041372
1468,-0.01203,-0.0024928,-0.0093991,0.019541,-0.02354,0.030723,-0.004466
1469,-0.0093991,0.0024402,-0.0090702,0.034011,-0.028473,0.032038,-0.0041372
1470,-0.0034794,0.0037556,-0.010715,0.047495,-0.028802,0.036314,0.0021113
1471,0.0063866,0.0037556,-0.012688,0.053743,-0.029131,0.038944,0.012964
1472,0.012635,0.002769,-0.010386,0.047824,-0.032749,0.038287,0.022501
1473,0.0096753,-0.0008485,-0.0057815,0.03434,-0.036695,0.036314,0.027434
1474,-0.0008485,-0.0057815,-0.0024928,0.021514,-0.038668,0.035327,0.027763
1475,-0.0077547,-0.0080836,-0.0024928,0.015924,-0.038339,0.04026,0.025132
1476,-0.0090702,-0.0057815,-0.0028217,0.018226,-0.040313,0.048153,0.020857
1477,-0.0018351,0.002769,-0.0024928,0.023488,-0.045903,0.053086,0.018884
1478,0.0077021,0.015266,-0.00019077,0.027434,-0.050179,0.052757,0.017897
1479,0.014608,0.02579,0.0040845,0.028421,-0.048863,0.044206,0.018555
1480,0.013622,0.033025,0.0070443,0.029078,-0.041299,0.036642,0.018555
1481,0.0083598,0.034669,0.0067154,0.032696,-0.031762,0.033354,0.014608
1482,0.0017824,0.02875,0.0044134,0.039273,-0.024856,0.033025,0.01132
1483,-0.0051238,0.01987,0.00046697,0.050126,-0.017292,0.028421,0.012306
1484,-0.010057,0.0093464,-0.0015062,0.059334,-0.0093991,0.021514,0.014608
1485,-0.012359,-0.00051963,-0.00019077,0.067227,-0.0031506,0.014279,0.013622
1486,-0.012688,-0.0097279,0.0040845,0.070516,-0.0011774,0.0063866,0.012635
1487,-0.011043,-0.017292,0.010333,0.068214,-0.0028217,0.0011247,0.011977
1488,-0.0087413,-0.021567,0.013951,0.064267,-0.0057815,0.0011247,0.010004
1489,-0.0097279,-0.022225,0.012635,0.060979,-0.0090702,0.0040845,0.0070443
1490,-0.010715,-0.019594,0.0047422,0.05769,-0.010057,0.0093464,0.0017824
1491,-0.011701,-0.014332,-0.0051238,0.049139,-0.0090702,0.012635,-0.0031506
1492,-0.013345,-0.010057,-0.012359,0.035656,-0.0077547,0.0090175,-0.0034794
1493,-0.01499,-0.007097,-0.01499,0.021514,-0.01203,0.0037556,0.0030979
1494,-0.014003,-0.004466,-0.0084125,0.015924,-0.024856,0.00046697,0.013951
1495,-0.011372,-0.00051963,0.0040845,0.020199,-0.041957,0.00079584,0.023817
1496,-0.0080836,0.0080309,0.016581,0.02875,-0.057085,0.0070443,0.030394
1497,-0.0061104,0.018884,0.023817,0.033683,-0.064649,0.018884,0.029736
1498,-0.0077547,0.031052,0.022172,0.029078,-0.056098,0.028092,0.021843
1499,-0.01203,0.037958,0.014608,0.018884,-0.03538,0.032038,0.0093464
1500,-0.011701,0.039602,0.0044134,0.010662,-0.014332,0.030723,-0.0034794
1501,-0.0097279,0.039273,-0.0041372,0.0044134,-0.00019077,0.027434,-0.0093991
1502,-0.0064392,0.038944,-0.0093991,-0.00019077,0.0047422,0.023817,-0.007097
1503,-0.0034794,0.042233,-0.0084125,-0.0018351,-0.0024928,0.020857,0.0040845
1504,-0.0018351,0.047495,-0.0031506,-0.0015062,-0.019594,0.016581,0.023159
1505,-0.0008485,0.056046,0.002769,-0.0018351,-0.034064,0.01132,0.04322
1506,-0.0008485,0.062952,0.010004,-0.0008485,-0.038011,0.0067154,0.05473
1507,-0.002164,0.067227,0.014937,0.0021113,-0.033406,0.00046697,0.053415
1508,-0.007097,0.064267,0.014608,0.0017824,-0.02354,-0.0057815,0.044206
1509,-0.013017,0.055717,0.0093464,-0.0041372,-0.013017,-0.0064392,0.036314
1510,-0.017621,0.049797,0.0001381,-0.0097279,-0.0064392,-0.0031506,0.033025
1511,-0.022554,0.049468,-0.0080836,-0.015648,-0.0054526,0.00046697,0.033683
1512,-0.027487,0.056374,-0.012688,-0.021238,-0.0067681,-0.0018351,0.035327
1513,-0.026829,0.067885,-0.014332,-0.025514,-0.0093991,-0.010057,0.041247
1514,-0.019265,0.077093,-0.016305,-0.029789,-0.01203,-0.016963,0.048153
1515,-0.0074258,0.079066,-0.01795,-0.033078,-0.014003,-0.018607,0.053415
1516,0.0030979,0.074462,-0.019923,-0.038011,-0.011701,-0.013674,0.05177
1517,0.0073732,0.06624,-0.020909,-0.041299,-0.0047949,-0.0077547,0.047824
1518,0.0054,0.059663,-0.020252,-0.041628,0.0021113,-0.0051238,0.045851
1519,0.00079584,0.056703,-0.015648,-0.038997,0.0073732,-0.0064392,0.046508
1520,-0.00051963,0.057032,-0.011372,-0.037682,0.012306,-0.0084125,0.047824
1521,0.002769,0.058348,-0.0084125,-0.038997,0.013293,-0.0097279,0.050126
1522,0.010004,0.059663,-0.0090702,-0.04097,0.010004,-0.014003,0.051113
1523,0.018884,0.061307,-0.010386,-0.040641,0.0024402,-0.022225,0.044206
1524,0.026776,0.059992,-0.0090702,-0.036037,-0.0074258,-0.029131,0.029736
1525,0.033683,0.055388,-0.0084125,-0.032749,-0.017292,-0.031104,0.0093464
1526,0.036314,0.047495,-0.0074258,-0.030447,-0.021567,-0.030447,-0.010057
1527,0.033354,0.041904,-0.0047949,-0.027816,-0.016963,-0.029789,-0.01795
1528,0.027105,0.036971,-0.0024928,-0.023869,-0.0067681,-0.033078,-0.01499
1529,0.017897,0.034998,0.0011247,-0.01795,0.0047422,-0.039984,-0.0080836
1530,0.013293,0.030723,0.0057288,-0.01203,0.010991,-0.048205,-0.0011774
1531,0.01132,0.02283,0.0077021,-0.0090702,0.0083598,-0.056427,0.0024402
1532,0.010004,0.011977,0.0037556,-0.011701,0.00046697,-0.060045,0.0073732
1533,0.0073732,0.0001381,-0.0051238,-0.018936,-0.007097,-0.054454,0.012635
1534,0.0034268,-0.0061104,-0.013017,-0.020909,-0.011701,-0.039326,0.018555
1535,-0.0011774,-0.0093991,-0.019265,-0.018278,-0.011372,-0.022554,0.02283
1536,-0.0028217,-0.0074258,-0.020252,-0.013017,-0.0077547,-0.010386,0.023159
1537,0.0014536,-0.0051238,-0.016963,-0.0054526,-0.0028217,-0.0028217,0.017239
1538,0.0044134,-0.0074258,-0.0074258,-0.00019077,0.0011247,-0.00051963,0.0083598
1539,0.0044134,-0.013345,-0.00051963,0.0034268,0.0014536,-0.0051238,-0.0008485
1540,0.0024402,-0.019923,0.002769,0.0054,-0.0041372,-0.01499,-0.010057
1541,-0.002164,-0.0265,0.0011247,0.0080309,-0.0084125,-0.024856,-0.016634
1542,-0.0074258,-0.033078,-0.00051963,0.012306,-0.0093991,-0.031433,-0.019923
1543,-0.014003,-0.036366,-0.0018351,0.017897,-0.0064392,-0.041628,-0.017292
1544,-0.018607,-0.030775,-0.0047949,0.021843,-0.0015062,-0.057085,-0.012359
1545,-0.017292,-0.022225,-0.0077547,0.022172,0.0021113,-0.075501,-0.0084125
1546,-0.0080836,-0.016963,-0.010715,0.016253,0.0034268,-0.087998,-0.0047949
1547,0.0067154,-0.018936,-0.0084125,0.0077021,0.0017824,-0.086354,-0.0041372
1548,0.020528,-0.026171,-0.0011774,0.002769,-0.0011774,-0.07287,-0.0080836
1549,0.027434,-0.034064,0.0067154,0.0063866,-0.0024928,-0.054125,-0.014661
1550,0.028092,-0.038011,0.012964,0.017239,0.00046697,-0.036366,-0.018278
1551,0.027105,-0.036366,0.014937,0.028092,-0.0018351,-0.027816,-0.018278
1552,0.020857,-0.031433,0.014937,0.032367,-0.0084125,-0.028473,-0.016305
1553,0.0086887,-0.024856,0.016581,0.027763,-0.01499,-0.034722,-0.013017
1554,0.00079584,-0.019265,0.016581,0.021843,-0.017292,-0.044259,-0.0077547
1555,-0.00019077,-0.019923,0.012635,0.026776,-0.015648,-0.052152,0.0001381
1556,0.0001381,-0.028144,0.0080309,0.042891,-0.0064392,-0.060373,0.010333
1557,-0.00051963,-0.038997,0.0077021,0.064596,0.0093464,-0.062676,0.017568
1558,-0.0018351,-0.049192,0.011648,0.079066,0.024474,-0.052152,0.020528
1559,-0.0051238,-0.054125,0.014608,0.081039,0.032696,-0.030775,0.020199
1560,-0.0087413,-0.050179,0.014608,0.073147,0.029736,-0.0084125,0.018884
1561,-0.012359,-0.043601,0.01132,0.063281,0.020857,0.0014536,0.015595
1562,-0.015648,-0.039326,0.0070443,0.053415,0.0093464,-0.0018351,0.0086887
1563,-0.01499,-0.038011,-0.00019077,0.046508,-0.00019077,-0.01499,-0.0011774
1564,-0.0084125,-0.037024,-0.0074258,0.044535,-0.0057815,-0.031433,-0.004466
1565,-0.0018351,-0.035708,-0.014332,0.044864,-0.0051238,-0.044588,-0.0011774
1566,0.0040845,-0.031433,-0.018278,0.047824,-0.00051963,-0.052152,0.0044134
1567,0.0080309,-0.024856,-0.016634,0.050455,0.0054,-0.051165,0.0040845
1568,0.0063866,-0.016963,-0.0097279,0.048153,0.010333,-0.045574,-0.00019077
1569,0.0017824,-0.013674,-0.00019077,0.036314,0.014279,-0.039655,-0.007097
1570,-0.0054526,-0.014661,0.0077021,0.018884,0.020857,-0.03242,-0.013674
1571,-0.012688,-0.017292,0.012635,0.0021113,0.029078,-0.028802,-0.019594
1572,-0.020252,-0.018278,0.013293,-0.0084125,0.034669,-0.028144,-0.020909
1573,-0.028144,-0.017292,0.010991,-0.014003,0.035327,-0.028802,-0.01795
1574,-0.033078,-0.013345,0.0050711,-0.015648,0.030394,-0.030118,-0.011701
1575,-0.033406,-0.0061104,-0.0031506,-0.013674,0.025132,-0.02946,-0.0038083
1576,-0.025185,0.0014536,-0.011043,-0.010057,0.019541,-0.0265,0.0024402
1577,-0.010715,0.0077021,-0.016305,-0.0041372,0.014937,-0.022225,0.0047422
1578,0.0044134,0.011977,-0.018936,0.0001381,0.0090175,-0.01499,0.0047422
1579,0.013951,0.013293,-0.01795,0.00079584,-0.002164,-0.0047949,0.0070443
1580,0.015595,0.013951,-0.013674,-0.0034794,-0.017621,0.0086887,0.012306
1581,0.014608,0.014279,-0.012359,-0.011701,-0.028144,0.025132,0.020199
1582,0.012306,0.014608,-0.016634,-0.020581,-0.030447,0.041575,0.027763
1583,0.0093464,0.014608,-0.023869,-0.026171,-0.023869,0.054072,0.030723
1584,0.0073732,0.012964,-0.029789,-0.024527,-0.013345,0.06361,0.029407
1585,0.0044134,0.012964,-0.031762,-0.016634,-0.0038083,0.068543,0.026447
1586,0.00046697,0.013951,-0.030447,-0.0041372,0.002769,0.066569,0.024474
1587,-0.00051963,0.018884,-0.024527,0.0070443,0.0034268,0.059005,0.026447
1588,0.0054,0.023817,-0.015976,0.0090175,-0.0011774,0.048153,0.026447
1589,0.015266,0.025461,-0.0087413,0.002769,-0.0084125,0.035656,0.025461
1590,0.022172,0.026776,-0.007097,-0.0084125,-0.016634,0.026447,0.023159
1591,0.02283,0.027763,-0.010057,-0.01795,-0.022225,0.024474,0.018884
1592,0.016581,0.027434,-0.0087413,-0.023211,-0.022554,0.029078,0.011977
1593,0.0096753,0.023488,-0.0034794,-0.023869,-0.015976,0.041247,0.0063866
1594,0.002769,0.018555,0.00046697,-0.021896,-0.004466,0.056374,0.0060577
1595,0.00046697,0.016581,-0.0011774,-0.019265,0.010333,0.070516,0.01132
1596,0.0060577,0.015595,-0.0061104,-0.018278,0.026119,0.076435,0.013293
1597,0.015924,0.015924,-0.0077547,-0.019923,0.04026,0.072489,0.0083598
1598,0.023159,0.018555,-0.0031506,-0.021567,0.049139,0.059663,-0.0011774
1599,0.020528,0.021514,0.0047422,-0.020581,0.052099,0.046837,-0.0084125
1600,0.013293,0.026447,0.010333,-0.013674,0.049468,0.039602,-0.010057
1601,0.0047422,0.031709,0.011648,-0.004466,0.04618,0.035656,-0.0077547
1602,-0.0024928,0.039931,0.01132,0.0024402,0.044864,0.03434,-0.0054526
1603,-0.0080836,0.050784,0.0090175,0.0057288,0.04618,0.031709,-0.0061104
1604,-0.010057,0.061307,0.0030979,0.0060577,0.04881,0.030394,-0.010715
1605,-0.0077547,0.068214,-0.0038083,0.0083598,0.048482,0.035985,-0.015319
1606,0.0001381,0.071502,-0.0067681,0.0090175,0.042562,0.045851,-0.016963
1607,0.010991,0.068214,-0.0031506,0.0030979,0.035656,0.054072,-0.016963
1608,0.019212,0.054072,0.0017824,-0.0084125,0.02875,0.056046,-0.013674
1609,0.021843,0.032696,0.0011247,-0.01795,0.019541,0.04881,-0.0084125
1610,0.016253,0.0077021,-0.0057815,-0.024527,0.010991,0.034011,-0.0024928
1611,0.0044134,-0.0097279,-0.01499,-0.0265,0.0054,0.014937,0.0001381
1612,-0.0087413,-0.018278,-0.022554,-0.025842,0.00046697,-0.002164,-0.0008485
1613,-0.017292,-0.021896,-0.023869,-0.023869,-0.0051238,-0.013345,-0.0093991
1614,-0.019594,-0.019594,-0.017621,-0.022225,-0.0087413,-0.015319,-0.02354
1615,-0.017621,-0.015648,-0.0067681,-0.021238,-0.007097,-0.011043,-0.038339
1616,-0.013345,-0.01499,0.0044134,-0.017621,0.0014536,-0.0067681,-0.047219
1617,-0.0084125,-0.016963,0.011977,-0.011043,0.0083598,-0.0041372,-0.051165
1618,-0.0061104,-0.01795,0.013951,-0.0057815,0.01132,-0.004466,-0.050507
1619,-0.0047949,-0.015976,0.011648,-0.0038083,0.01132,-0.0093991,-0.048205
1620,-0.002164,-0.013017,0.0077021,-0.002164,0.0080309,-0.018936,-0.048863
1621,0.0014536,-0.0077547,0.0030979,0.0034268,0.0050711,-0.029131,-0.04985
1622,0.0070443,-0.0018351,-0.002164,0.010004,0.0086887,-0.034064,-0.046232
1623,0.014937,-0.0008485,-0.0064392,0.014608,0.015595,-0.034722,-0.038011
1624,0.026119,-0.0041372,-0.013017,0.018226,0.017239,-0.034393,-0.030447
1625,0.038287,-0.0084125,-0.020581,0.025132,0.011648,-0.036695,-0.024856
1626,0.049139,-0.010386,-0.025514,0.031052,-0.00019077,-0.041299,-0.021567
1627,0.053743,-0.0057815,-0.028144,0.032696,-0.01499,-0.041957,-0.018936
1628,0.050126,0.0017824,-0.0265,0.027105,-0.02946,-0.037353,-0.01795
1629,0.038944,0.0060577,-0.019923,0.020857,-0.038997,-0.026829,-0.019923
1630,0.02579,0.002769,-0.01203,0.021514,-0.041957,-0.017292,-0.025185
1631,0.015924,-0.0077547,-0.0080836,0.030394,-0.039984,-0.01203,-0.030118
1632,0.015266,-0.019923,-0.0090702,0.043549,-0.038668,-0.011701,-0.029789
1633,0.018226,-0.027487,-0.014661,0.053415,-0.042286,-0.01499,-0.026171
1634,0.023817,-0.028473,-0.019923,0.059663,-0.048205,-0.014661,-0.020909
1635,0.027105,-0.023211,-0.021567,0.06361,-0.050507,-0.0067681,-0.014003
1636,0.025132,-0.018936,-0.019923,0.067885,-0.046561,0.0090175,-0.0087413
1637,0.020199,-0.016305,-0.016305,0.068871,-0.040641,0.02579,-0.00051963
1638,0.014937,-0.014332,-0.0093991,0.062623,-0.037024,0.036642,0.012306
1639,0.011648,-0.011372,-0.0028217,0.053086,-0.037353,0.040589,0.026447
1640,0.010004,-0.011372,0.00079584,0.044535,-0.041299,0.038287,0.032696
1641,0.010991,-0.017292,0.0030979,0.0373,-0.04689,0.032367,0.031052
1642,0.0080309,-0.026829,0.0040845,0.030723,-0.047548,0.02579,0.023817
1643,0.0001381,-0.037682,0.0030979,0.022172,-0.038668,0.019212,0.017239
1644,-0.011043,-0.045903,0.0011247,0.014608,-0.019265,0.016581,0.012964
1645,-0.022883,-0.054125,-0.0051238,0.0083598,0.0017824,0.022501,0.014937
1646,-0.033078,-0.059387,-0.015648,0.0067154,0.015266,0.030394,0.018226
1647,-0.041299,-0.062018,-0.028473,0.0086887,0.01987,0.033683,0.022501
1648,-0.046232,-0.064649,-0.038668,0.011648,0.016581,0.03434,0.027763
1649,-0.047219,-0.066622,-0.04097,0.013293,0.0077021,0.034669,0.034998
1650,-0.044588,-0.063662,-0.036695,0.014279,-0.0028217,0.038944,0.042562
1651,-0.038997,-0.057414,-0.027816,0.013951,-0.010057,0.041247,0.049468
1652,-0.03242,-0.047877,-0.018278,0.012635,-0.011701,0.037958,0.054401
1653,-0.023211,-0.035051,-0.0097279,0.0086887,-0.0080836,0.029078,0.054401
1654,-0.012688,-0.021238,-0.0047949,0.0060577,-0.0084125,0.018226,0.048482
1655,-0.0028217,-0.010386,-0.0047949,0.0054,-0.013017,0.010991,0.041575
1656,0.0037556,-0.0047949,-0.0087413,0.0067154,-0.021567,0.0090175,0.042562
