,channel_1,channel_2,channel_3,channel_4,channel_5,channel_6,channel_7
0,-0.0054526,0.077422,-0.011043,-0.044588,0.020199,-0.014003,0.032367
1,-0.0074258,0.076764,-0.0041372,-0.041299,0.024474,-0.010386,0.035656
2,-0.011043,0.076435,0.002769,-0.039326,0.023817,-0.0084125,0.036314
3,-0.015319,0.072818,0.0047422,-0.037682,0.016581,-0.0051238,0.033683
4,-0.015976,0.066898,-0.00019077,-0.034064,0.0057288,-0.0031506,0.027763
5,-0.013345,0.057361,-0.0061104,-0.02946,-0.0018351,0.002769,0.020857
6,-0.010057,0.049139,-0.007097,-0.025185,0.00046697,0.010662,0.012635
7,-0.0077547,0.039602,-0.0067681,-0.026171,0.0073732,0.019212,0.0073732
8,-0.004466,0.033683,-0.0057815,-0.030775,0.015595,0.026119,0.01132
9,-0.00051963,0.036314,-0.004466,-0.029789,0.015924,0.027763,0.023159
10,0.002769,0.046508,-0.0015062,-0.020581,0.0080309,0.025461,0.0373
11,0.0050711,0.060979,0.0050711,-0.0034794,-0.0034794,0.02283,0.048482
12,0.0086887,0.072489,0.011648,0.014608,-0.011701,0.023159,0.056046
13,0.013951,0.079724,0.014937,0.02283,-0.013345,0.025132,0.059663
14,0.015595,0.081039,0.014608,0.018884,-0.0077547,0.027105,0.061307
15,0.012635,0.077093,0.012635,0.010662,-0.0047949,0.02875,0.062623
16,0.0063866,0.068871,0.012635,0.0054,-0.0087413,0.02579,0.06065
17,-0.00051963,0.058348,0.013951,0.0040845,-0.015976,0.014937,0.052428
18,-0.0064392,0.044206,0.013293,0.0024402,-0.022225,-0.0011774,0.040589
19,-0.0074258,0.024474,0.0096753,-0.0028217,-0.026829,-0.018607,0.029078
20,-0.0077547,0.00079584,0.0054,-0.0054526,-0.02946,-0.030775,0.01987
21,-0.010057,-0.023869,0.0017824,-0.0024928,-0.030118,-0.03538,0.010991
22,-0.014003,-0.044259,-0.00019077,0.0047422,-0.028473,-0.034064,0.0034268
23,-0.016634,-0.05544,0.0001381,0.014937,-0.025842,-0.028473,0.0030979
24,-0.013345,-0.056756,0.0011247,0.027105,-0.02354,-0.022883,0.0070443
25,-0.0061104,-0.052481,0.0024402,0.034998,-0.022554,-0.019594,0.0086887
26,0.0044134,-0.047877,0.0050711,0.034011,-0.021896,-0.020909,0.0017824
27,0.016581,-0.04985,0.0080309,0.026776,-0.024856,-0.024856,-0.011372
28,0.02579,-0.057414,0.0063866,0.01987,-0.031104,-0.0265,-0.026171
29,0.029078,-0.064978,0.002769,0.021186,-0.035051,-0.019923,-0.033735
30,0.026447,-0.066293,0.0001381,0.029736,-0.034722,-0.007097,-0.031104
31,0.021843,-0.06432,-0.0028217,0.040918,-0.030775,0.0083598,-0.022554
32,0.015266,-0.063004,-0.0074258,0.053415,-0.025842,0.021186,-0.013017
33,0.01132,-0.064649,-0.010057,0.062623,-0.026829,0.026119,-0.0047949
34,0.012635,-0.066951,-0.0093991,0.067885,-0.036037,0.025461,-0.0028217
35,0.014937,-0.065635,-0.0061104,0.071502,-0.04689,0.021514,-0.0067681
36,0.015924,-0.059058,0.0001381,0.071173,-0.045574,0.019541,-0.011043
37,0.014937,-0.050836,0.0057288,0.064267,-0.030775,0.022501,-0.016963
38,0.011977,-0.041957,0.0090175,0.052428,-0.011701,0.026447,-0.020252
39,0.0063866,-0.035051,0.0060577,0.040589,0.0017824,0.030394,-0.018936
40,-0.002164,-0.032749,-0.0024928,0.029736,0.0050711,0.036314,-0.013017
41,-0.014003,-0.031762,-0.014003,0.026119,0.0001381,0.042891,-0.0061104
42,-0.022225,-0.027816,-0.019923,0.026447,-0.010386,0.048482,-0.0018351
43,-0.025185,-0.020252,-0.016305,0.025132,-0.02354,0.045851,-0.0008485
44,-0.023211,-0.015648,-0.0077547,0.021514,-0.031433,0.03434,-0.0028217
45,-0.01795,-0.015319,0.0017824,0.017239,-0.030775,0.017897,-0.0024928
46,-0.014332,-0.01499,0.0080309,0.013622,-0.024527,0.0044134,-0.0038083
47,-0.011043,-0.013674,0.010662,0.013622,-0.020252,-0.00051963,-0.0054526
48,-0.0074258,-0.010057,0.010333,0.014608,-0.021238,0.0017824,-0.011372
49,-0.0038083,-0.0074258,0.0077021,0.015266,-0.019594,0.0080309,-0.021896
50,-0.0028217,-0.0064392,0.0040845,0.017568,-0.014003,0.013951,-0.030118
51,-0.0057815,-0.0057815,-0.0015062,0.021514,-0.0077547,0.013293,-0.030775
52,-0.010715,-0.0077547,-0.007097,0.025461,-0.0011774,0.0034268,-0.024527
53,-0.017621,-0.016963,-0.0077547,0.023488,0.0047422,-0.0084125,-0.016634
54,-0.026171,-0.030447,-0.0031506,0.015924,0.0090175,-0.01499,-0.0097279
55,-0.035708,-0.043601,0.0050711,0.0083598,0.0063866,-0.01499,-0.0041372
56,-0.04393,-0.050836,0.0096753,0.0054,-0.0015062,-0.011701,0.0024402
57,-0.047548,-0.047219,0.0083598,0.0073732,-0.011372,-0.007097,0.0090175
58,-0.046561,-0.03538,0.0037556,0.010333,-0.015648,0.0021113,0.018555
59,-0.040313,-0.018278,-0.0018351,0.01132,-0.014661,0.015595,0.030065
60,-0.027816,-0.0034794,-0.0018351,0.0073732,-0.0087413,0.030065,0.043549
61,-0.011701,0.0063866,0.0047422,0.0044134,-0.0034794,0.040589,0.053415
62,0.0014536,0.013293,0.017239,0.0057288,0.0001381,0.043877,0.055717
63,0.0073732,0.021514,0.029078,0.012635,-0.00051963,0.043549,0.052428
64,0.0086887,0.033354,0.0373,0.021843,-0.0038083,0.043877,0.047166
65,0.010004,0.048482,0.039602,0.028421,-0.0074258,0.04322,0.041575
66,0.013622,0.063938,0.034998,0.027434,-0.0041372,0.038287,0.039273
67,0.014279,0.074462,0.02579,0.017568,0.002769,0.031381,0.039273
68,0.012306,0.078737,0.017239,0.0021113,0.0096753,0.027105,0.042562
69,0.011648,0.079066,0.012306,-0.0074258,0.010662,0.022501,0.044535
70,0.013951,0.077093,0.0070443,-0.007097,0.0070443,0.015595,0.04026
71,0.017239,0.074791,0.0030979,-0.0018351,0.0050711,0.0080309,0.0373
72,0.020528,0.071502,0.0011247,0.0047422,0.0047422,0.002769,0.038944
73,0.01987,0.067885,0.0011247,0.0086887,0.0063866,-0.0008485,0.044864
74,0.015924,0.064925,0.0030979,0.0086887,0.0070443,-0.0008485,0.05473
75,0.0096753,0.059663,0.0080309,0.0073732,0.0057288,0.0024402,0.064267
76,0.0054,0.056374,0.014608,0.0070443,0.0021113,0.0057288,0.068543
77,0.0017824,0.049468,0.021186,0.0060577,-0.0028217,0.0030979,0.064925
78,0.0014536,0.042891,0.026447,0.0080309,-0.010715,-0.0061104,0.057361
79,0.0034268,0.040918,0.029407,0.01691,-0.022883,-0.014332,0.049797
80,0.0050711,0.04618,0.029078,0.027105,-0.030118,-0.01795,0.045522
81,0.0050711,0.054401,0.025461,0.033025,-0.029789,-0.016305,0.04322
82,0.002769,0.059005,0.020857,0.031709,-0.020909,-0.011372,0.040918
83,0.002769,0.058348,0.018555,0.025461,-0.012688,-0.0067681,0.037629
84,0.0073732,0.059663,0.019541,0.013951,-0.0093991,-0.0031506,0.030394
85,0.013293,0.061965,0.022172,0.0037556,-0.0084125,-0.0028217,0.019541
86,0.018884,0.065254,0.024474,-0.0077547,-0.007097,-0.0067681,0.011648
87,0.022501,0.065912,0.026119,-0.018936,-0.0034794,-0.011043,0.011648
88,0.02283,0.062294,0.022501,-0.026171,-0.00051963,-0.013017,0.01691
89,0.019212,0.056703,0.017239,-0.0265,-0.0008485,-0.012359,0.021514
90,0.014608,0.052099,0.013293,-0.015319,-0.0041372,-0.0084125,0.023488
91,0.010004,0.052757,0.014279,0.0030979,-0.004466,-0.0031506,0.023159
92,0.0077021,0.053743,0.017897,0.023817,-0.0015062,0.002769,0.01987
93,0.010333,0.054072,0.016253,0.037629,0.0047422,0.0070443,0.012635
94,0.014937,0.052757,0.0073732,0.045193,0.014608,0.0093464,0.0024402
95,0.019541,0.048482,-0.007097,0.046508,0.024803,0.0057288,-0.0064392
96,0.021843,0.0373,-0.019265,0.041247,0.032038,-0.0038083,-0.01499
97,0.018884,0.021186,-0.027158,0.028421,0.033025,-0.016634,-0.016305
98,0.015266,0.0060577,-0.03242,0.011648,0.026447,-0.027158,-0.0074258
99,0.014608,-0.004466,-0.034722,-0.0024928,0.010333,-0.030118,0.0034268
100,0.014608,-0.011043,-0.034722,-0.007097,-0.0093991,-0.027158,0.010991
101,0.014937,-0.015648,-0.034064,-0.0041372,-0.0265,-0.017621,0.0086887
102,0.016581,-0.020252,-0.038339,0.0040845,-0.036037,-0.0080836,-0.0034794
103,0.023159,-0.024527,-0.04689,0.015924,-0.035708,-0.0054526,-0.020252
104,0.034011,-0.027487,-0.055112,0.028421,-0.023869,-0.0090702,-0.03538
105,0.041247,-0.03242,-0.057414,0.035985,-0.0084125,-0.015319,-0.041957
106,0.042562,-0.040641,-0.055769,0.041247,0.0040845,-0.018936,-0.039655
107,0.039931,-0.048863,-0.049521,0.047824,0.0054,-0.018607,-0.034393
108,0.035656,-0.051823,-0.040313,0.052757,-0.004466,-0.014332,-0.027816
109,0.030723,-0.048863,-0.033078,0.05473,-0.016634,-0.0064392,-0.022225
110,0.026447,-0.039326,-0.030118,0.05473,-0.022225,0.0044134,-0.021896
111,0.022172,-0.028144,-0.032749,0.054401,-0.019594,0.011977,-0.026171
112,0.01691,-0.021567,-0.038339,0.055059,-0.012359,0.014937,-0.033406
113,0.011648,-0.022225,-0.044259,0.054401,-0.0051238,0.014937,-0.043601
114,0.0067154,-0.0265,-0.048534,0.052757,-0.0031506,0.018226,-0.049521
115,0.0034268,-0.030118,-0.04985,0.049797,-0.0093991,0.030723,-0.046561
116,0.0047422,-0.030118,-0.045574,0.045522,-0.016963,0.046508,-0.032091
117,0.0096753,-0.025842,-0.039655,0.040918,-0.023869,0.058019,-0.014003
118,0.014937,-0.018278,-0.037353,0.03434,-0.033078,0.067885,-0.0034794
119,0.014937,-0.0067681,-0.037682,0.026119,-0.037353,0.073804,-0.0067681
120,0.0073732,0.0034268,-0.038668,0.017239,-0.036695,0.075778,-0.01499
121,-0.0031506,0.010662,-0.037353,0.0093464,-0.029131,0.067885,-0.018278
122,-0.0093991,0.011977,-0.036695,0.0063866,-0.015319,0.050126,-0.014332
123,-0.012359,0.0083598,-0.035708,0.0057288,0.00079584,0.032367,-0.014661
124,-0.015976,0.0017824,-0.031762,0.0073732,0.014608,0.023488,-0.022225
125,-0.019594,-0.0093991,-0.022554,0.011648,0.017568,0.027105,-0.037353
126,-0.022225,-0.025185,-0.010057,0.018226,0.0096753,0.038616,-0.04985
127,-0.019265,-0.041957,0.0021113,0.027434,-0.0034794,0.047824,-0.051823
128,-0.0080836,-0.057414,0.0090175,0.036314,-0.01499,0.046837,-0.041299
129,0.0060577,-0.072213,0.011648,0.044535,-0.020252,0.037629,-0.027158
130,0.015595,-0.087012,0.011648,0.050784,-0.022883,0.023817,-0.016963
131,0.018226,-0.10477,0.013951,0.053415,-0.024527,0.0047422,-0.015319
132,0.012306,-0.12779,0.018884,0.052099,-0.025842,-0.018607,-0.018936
133,-0.0015062,-0.15311,0.026447,0.047824,-0.025185,-0.05281,-0.025514
134,-0.014003,-0.17712,0.032696,0.039931,-0.021567,-0.10346,-0.031762
135,-0.021567,-0.19159,0.030394,0.030723,-0.015976,-0.17679,-0.037682
136,-0.02354,-0.19126,0.020857,0.023488,-0.010386,-0.26592,-0.037682
137,-0.023869,-0.17778,0.0093464,0.015924,-0.0090702,-0.36194,-0.028473
138,-0.023869,-0.15311,-0.00051963,0.0054,-0.013017,-0.45271,-0.013674
139,-0.022554,-0.12023,-0.007097,-0.007097,-0.022225,-0.52145,-0.0031506
140,-0.019594,-0.082408,-0.0097279,-0.01795,-0.02946,-0.55696,-0.0047949
141,-0.015648,-0.047219,-0.0077547,-0.021567,-0.033735,-0.5471,-0.0093991
142,-0.010057,-0.021567,-0.0011774,-0.018278,-0.032091,-0.4879,-0.0080836
143,-0.0054526,-0.004466,0.0070443,-0.012688,-0.023869,-0.3945,-0.0008485
144,-0.002164,0.0096753,0.014279,-0.011372,-0.012359,-0.28894,0.0057288
145,-0.0028217,0.024803,0.016581,-0.013674,-0.0015062,-0.18962,0.0096753
146,-0.0057815,0.041575,0.015924,-0.01795,0.0093464,-0.11135,0.014937
147,-0.0093991,0.059005,0.015266,-0.023211,0.018226,-0.052152,0.022501
148,-0.012359,0.073147,0.016253,-0.02946,0.021514,-0.0051238,0.031052
149,-0.013017,0.086959,0.020199,-0.03538,0.019212,0.03434,0.037629
150,-0.013017,0.096167,0.027763,-0.039326,0.014279,0.067885,0.037629
151,-0.01795,0.10044,0.037629,-0.039326,0.010004,0.095839,0.031052
152,-0.024856,0.098141,0.044206,-0.039326,0.0063866,0.10932,0.019212
153,-0.027487,0.092221,0.044206,-0.039655,0.0054,0.10965,0.0070443
154,-0.018936,0.084986,0.036971,-0.038668,0.010004,0.098798,0.0001381
155,-0.0038083,0.076435,0.024474,-0.034722,0.015924,0.086959,0.002769
156,0.010991,0.07216,0.010662,-0.028144,0.020857,0.078737,0.015266
157,0.020857,0.070187,-0.0024928,-0.020909,0.023159,0.078737,0.028421
158,0.021843,0.068214,-0.01203,-0.018607,0.023817,0.091892,0.0373
159,0.016581,0.065583,-0.014332,-0.025514,0.028421,0.12215,0.041575
160,0.01132,0.064925,-0.0093991,-0.037024,0.036971,0.1649,0.042562
161,0.0096753,0.065912,-0.0015062,-0.046232,0.039273,0.20765,0.042562
162,0.0093464,0.069529,0.0070443,-0.045574,0.03434,0.24021,0.044206
163,0.0096753,0.072489,0.011977,-0.03538,0.027105,0.26652,0.046508
164,0.010004,0.075778,0.011648,-0.020252,0.024803,0.2948,0.050126
165,0.013622,0.082026,0.010333,-0.0064392,0.027105,0.33032,0.05177
166,0.018555,0.090905,0.010991,-0.00019077,0.030394,0.36946,0.05177
167,0.021514,0.1057,0.012635,-0.0028217,0.034011,0.40695,0.051441
168,0.020857,0.12346,0.013622,-0.012359,0.034011,0.43326,0.051113
169,0.020528,0.13201,0.0093464,-0.026171,0.031381,0.44246,0.04881
170,0.023817,0.12675,0.0060577,-0.038997,0.02579,0.42898,0.044535
171,0.030723,0.1136,0.0086887,-0.044588,0.018884,0.39346,0.039602
172,0.035656,0.10011,0.017568,-0.039326,0.013622,0.34249,0.031709
173,0.035327,0.089919,0.024145,-0.028473,0.011648,0.28724,0.022501
174,0.032696,0.086959,0.02283,-0.016963,0.01132,0.23166,0.013951
175,0.030723,0.090905,0.015924,-0.0054526,0.012964,0.18233,0.010991
176,0.028092,0.096167,0.0070443,0.0017824,0.010333,0.14122,0.012306
177,0.022172,0.091892,0.0044134,0.00079584,0.0001381,0.10735,0.016581
178,0.016581,0.080053,0.0070443,-0.0047949,-0.015976,0.082026,0.018884
179,0.017897,0.060979,0.012964,-0.0064392,-0.030447,0.061965,0.023488
180,0.026119,0.038287,0.018226,-0.0057815,-0.036695,0.04026,0.030065
181,0.038287,0.013293,0.021186,-0.0041372,-0.033078,0.013951,0.033025
182,0.047495,-0.013345,0.021843,-0.0011774,-0.022883,-0.016963,0.02875
183,0.04881,-0.035708,0.020199,0.002769,-0.017292,-0.047219,0.015924
184,0.041247,-0.053467,0.018226,0.0030979,-0.01795,-0.068266,-0.0057815
185,0.028092,-0.065964,0.013951,-0.002164,-0.02354,-0.075501,-0.027487
186,0.013293,-0.075501,0.0044134,-0.0077547,-0.027487,-0.074186,-0.037682
187,-0.0011774,-0.082079,-0.0084125,-0.011372,-0.025185,-0.073528,-0.02946
188,-0.013674,-0.083394,-0.019594,-0.012688,-0.020581,-0.077803,-0.012688
189,-0.019594,-0.076817,-0.024527,-0.013345,-0.018936,-0.088985,0.0024402
190,-0.02354,-0.064978,-0.022554,-0.011372,-0.024527,-0.10411,0.012635
191,-0.026171,-0.051823,-0.015648,-0.0067681,-0.030118,-0.11497,0.013622
192,-0.030118,-0.040641,-0.0061104,-0.004466,-0.034722,-0.11299,0.0040845
193,-0.033735,-0.031433,0.0030979,-0.0041372,-0.031433,-0.10346,-0.012359
194,-0.037024,-0.026829,0.0067154,-0.0054526,-0.021238,-0.093918,-0.025185
195,-0.041957,-0.025514,0.0040845,-0.0061104,-0.0097279,-0.0903,-0.0265
196,-0.049192,-0.033406,-0.0031506,-0.0041372,-0.0024928,-0.092931,-0.022225
197,-0.057414,-0.053796,-0.010715,0.0011247,-0.0034794,-0.094905,-0.018607
198,-0.063991,-0.081421,-0.014003,0.0093464,-0.0067681,-0.092603,-0.020909
199,-0.06728,-0.11135,-0.012688,0.017897,-0.0051238,-0.087012,-0.027816
200,-0.069911,-0.13601,-0.007097,0.024474,0.002769,-0.084381,-0.034722
201,-0.072213,-0.15015,-0.0008485,0.026776,0.012635,-0.085039,-0.033735
202,-0.072542,-0.14983,0.00079584,0.026119,0.018884,-0.091287,-0.024527
203,-0.069582,-0.13799,-0.0038083,0.021186,0.019212,-0.099509,-0.014661
204,-0.065635,-0.11825,-0.012688,0.015924,0.015924,-0.10641,-0.0077547
205,-0.063991,-0.097207,-0.019923,0.013293,0.013951,-0.11201,-0.002164
206,-0.060702,-0.082408,-0.019265,0.011977,0.018555,-0.11891,0.0057288
207,-0.051823,-0.073857,-0.010715,0.010991,0.028421,-0.12615,0.018226
208,-0.038668,-0.065964,-0.0015062,0.0093464,0.038616,-0.12911,0.033025
209,-0.021896,-0.050836,0.0030979,0.0070443,0.047495,-0.12878,0.045851
210,-0.0034794,-0.033078,0.0034268,0.0040845,0.051441,-0.12582,0.05473
211,0.017239,-0.018278,-0.0015062,0.0034268,0.049139,-0.11529,0.060321
212,0.035985,-0.010057,-0.0090702,0.0077021,0.043549,-0.099838,0.061965
213,0.05177,-0.0067681,-0.019594,0.012635,0.035985,-0.085696,0.058019
214,0.062294,-0.0080836,-0.031433,0.01132,0.024145,-0.071555,0.049139
215,0.065912,-0.0090702,-0.039984,0.0001381,0.012635,-0.060373,0.041904
216,0.059334,-0.0047949,-0.042286,-0.013674,0.0054,-0.051165,0.035985
217,0.047166,0.0080309,-0.037682,-0.018607,0.0014536,-0.044259,0.031709
218,0.034669,0.026776,-0.027816,-0.013017,0.0040845,-0.038997,0.031052
219,0.02579,0.046837,-0.019265,-0.0034794,0.0060577,-0.034064,0.036642
220,0.017239,0.06361,-0.013017,0.0030979,0.0001381,-0.026829,0.045851
221,0.0086887,0.074791,-0.0093991,0.0021113,-0.013017,-0.019594,0.050126
222,0.0037556,0.081368,-0.0074258,-0.0080836,-0.025185,-0.01499,0.045193
223,0.0014536,0.081039,-0.0087413,-0.020909,-0.026171,-0.011043,0.036314
224,0.0011247,0.076435,-0.013017,-0.031104,-0.01795,-0.0074258,0.028092
225,0.0054,0.072489,-0.01795,-0.033735,-0.0084125,-0.0038083,0.024803
226,0.010662,0.071502,-0.022883,-0.029789,-0.0038083,-0.00051963,0.024474
227,0.015595,0.074462,-0.030118,-0.022554,-0.002164,0.0063866,0.030065
228,0.017239,0.082026,-0.038011,-0.020252,-0.0031506,0.012635,0.042233
229,0.017239,0.092879,-0.040641,-0.020909,-0.0057815,0.015266,0.055059
230,0.017568,0.10439,-0.039326,-0.021567,-0.010057,0.014279,0.059334
231,0.017239,0.11491,-0.035708,-0.019594,-0.01499,0.012306,0.057032
232,0.014608,0.12149,-0.028473,-0.012359,-0.017292,0.012306,0.051441
233,0.010662,0.12544,-0.020581,-0.0031506,-0.015648,0.016253,0.043877
234,0.0083598,0.12511,-0.018278,0.0054,-0.010715,0.020857,0.034011
235,0.012306,0.11656,-0.019594,0.0073732,-0.0041372,0.027763,0.027105
236,0.019541,0.10472,-0.020252,0.0057288,0.0030979,0.029736,0.023488
237,0.025132,0.094852,-0.017621,-0.004466,0.0057288,0.027763,0.021843
238,0.026447,0.08959,-0.013345,-0.019265,-0.0008485,0.023159,0.023817
239,0.023817,0.088275,-0.0097279,-0.028802,-0.013017,0.017568,0.026776
240,0.019541,0.089919,-0.0041372,-0.0265,-0.0265,0.01132,0.029736
241,0.013951,0.091892,0.0040845,-0.014332,-0.035051,0.0040845,0.033354
242,0.0086887,0.093208,0.014279,0.0040845,-0.036037,-0.0077547,0.037629
243,0.0070443,0.090905,0.022172,0.018884,-0.031433,-0.0265,0.041247
244,0.0037556,0.086959,0.025132,0.026447,-0.025514,-0.04689,0.044864
245,-0.0031506,0.083013,0.024803,0.028092,-0.019265,-0.063662,0.047166
246,-0.014003,0.079724,0.023159,0.029407,-0.010715,-0.073528,0.04618
247,-0.022883,0.080053,0.021514,0.030723,-0.0018351,-0.075173,0.042891
248,-0.028802,0.082026,0.022172,0.034669,0.0034268,-0.067937,0.042233
249,-0.033078,0.080711,0.021843,0.044535,0.0044134,-0.054125,0.043549
250,-0.035051,0.077422,0.017897,0.059005,-0.0011774,-0.039326,0.046837
251,-0.030775,0.075449,0.012635,0.070187,-0.0087413,-0.028144,0.046837
252,-0.019594,0.076764,0.0096753,0.074462,-0.012359,-0.019594,0.04026
253,-0.0077547,0.07808,0.0073732,0.071173,-0.0097279,-0.010057,0.029736
254,0.0014536,0.077422,0.0044134,0.064596,-0.0031506,-0.0034794,0.021186
255,0.0044134,0.073147,0.0030979,0.058676,0.0011247,-0.0054526,0.012635
256,-0.00051963,0.065254,0.0037556,0.056374,0.0021113,-0.0090702,0.0037556
257,-0.013674,0.054401,0.0054,0.053086,-0.0015062,-0.010057,-0.0038083
258,-0.027487,0.045193,0.0044134,0.046508,-0.0054526,-0.012359,-0.0064392
259,-0.03242,0.040918,0.00046697,0.041575,-0.0057815,-0.01499,-0.0034794
260,-0.024527,0.037958,-0.002164,0.039273,-0.0028217,-0.014661,-0.00051963
261,-0.0084125,0.033683,-0.0028217,0.041247,0.0001381,-0.012359,-0.0008485
262,0.0070443,0.026447,0.0011247,0.045522,0.0040845,-0.0097279,-0.0080836
263,0.016581,0.01691,0.0077021,0.047824,0.0083598,-0.0054526,-0.023869
264,0.023488,0.0034268,0.014608,0.049797,0.012306,0.0021113,-0.038997
265,0.026447,-0.010057,0.018884,0.053415,0.012635,0.010333,-0.04689
266,0.025132,-0.02354,0.016581,0.059663,0.0073732,0.01987,-0.047548
267,0.020857,-0.036695,0.0080309,0.063938,-0.0015062,0.02875,-0.045574
268,0.018555,-0.044259,-0.0028217,0.063281,-0.013017,0.034011,-0.041957
269,0.018226,-0.043601,-0.014003,0.055717,-0.020581,0.03434,-0.038011
270,0.017897,-0.039655,-0.020581,0.040589,-0.025185,0.031381,-0.030775
271,0.015595,-0.032091,-0.019923,0.023817,-0.028802,0.028092,-0.021896
272,0.010004,-0.024856,-0.015648,0.012635,-0.030447,0.024145,-0.013017
273,0.0014536,-0.022883,-0.0090702,0.0096753,-0.029789,0.020528,-0.0093991
274,-0.0074258,-0.023869,-0.0038083,0.012964,-0.027158,0.016581,-0.0074258
275,-0.010386,-0.027487,0.0017824,0.019541,-0.031762,0.010991,-0.0018351
276,-0.0077547,-0.032749,0.0060577,0.026776,-0.042615,0.0017824,0.010333
277,-0.0034794,-0.040313,0.0093464,0.03434,-0.053796,-0.010057,0.023817
278,0.0034268,-0.04689,0.011977,0.04026,-0.054783,-0.019923,0.026119
279,0.010333,-0.047548,0.013622,0.043549,-0.042944,-0.024527,0.015266
280,0.015266,-0.043272,0.011977,0.04322,-0.027487,-0.020909,-0.0077547
281,0.01691,-0.03242,0.0073732,0.038944,-0.017292,-0.014332,-0.035708
282,0.01691,-0.02354,0.0070443,0.03434,-0.018278,-0.0093991,-0.061689
283,0.015924,-0.019265,0.013951,0.029078,-0.026829,-0.0047949,-0.076817
284,0.015266,-0.021567,0.02579,0.02283,-0.031762,-0.0011774,-0.077146
285,0.016253,-0.0265,0.036971,0.018226,-0.031433,-0.00019077,-0.063004
286,0.018226,-0.033406,0.042562,0.015266,-0.031104,-0.0018351,-0.042944
287,0.017897,-0.039655,0.040918,0.013951,-0.033735,-0.0011774,-0.026171
288,0.011977,-0.045246,0.035656,0.010991,-0.039326,0.002769,-0.018936
289,0.0060577,-0.053796,0.029078,0.0063866,-0.042944,0.0073732,-0.015648
290,0.0014536,-0.060045,0.023159,0.0014536,-0.041628,0.010004,-0.011372
291,-0.004466,-0.061031,0.018555,-0.0028217,-0.034064,0.010004,-0.0057815
292,-0.011372,-0.057743,0.017897,-0.010386,-0.0265,0.010991,0.0011247
293,-0.01795,-0.04985,0.022172,-0.015976,-0.019265,0.010333,0.0057288
294,-0.02354,-0.042615,0.025461,-0.017292,-0.01203,0.002769,0.0083598
295,-0.024527,-0.037353,0.025461,-0.015319,-0.007097,-0.0034794,0.0090175
296,-0.021238,-0.033406,0.02283,-0.011701,-0.0028217,-0.00019077,0.0083598
297,-0.016963,-0.032749,0.018555,-0.0097279,0.0014536,0.010991,0.002769
298,-0.013017,-0.035051,0.012964,-0.01203,0.0080309,0.02579,-0.0051238
299,-0.0080836,-0.037682,0.0044134,-0.019265,0.020199,0.038944,-0.011043
300,-0.0031506,-0.036695,-0.0051238,-0.025514,0.035985,0.052757,-0.011372
301,0.0001381,-0.028473,-0.013017,-0.024527,0.050784,0.068871,-0.010386
302,0.0030979,-0.015319,-0.017292,-0.01499,0.064925,0.088932,-0.0038083
303,0.0030979,-0.002164,-0.020252,-0.0038083,0.071831,0.10669,0.012306
304,0.0017824,0.012635,-0.020581,0.0044134,0.070516,0.12116,0.032367
305,0.002769,0.030394,-0.020909,0.0057288,0.062623,0.13399,0.04322
306,0.0093464,0.047166,-0.022883,0.0011247,0.049139,0.15076,0.044864
307,0.018884,0.058019,-0.024198,-0.0051238,0.0373,0.16523,0.042233
308,0.027434,0.058348,-0.022883,-0.010057,0.031381,0.17773,0.038287
309,0.030723,0.053415,-0.019265,-0.011372,0.032038,0.18792,0.037958
310,0.031052,0.049139,-0.014332,-0.0051238,0.031709,0.19779,0.036642
311,0.029736,0.048482,-0.011043,0.0060577,0.029736,0.2014,0.030065
312,0.023488,0.049139,-0.011372,0.016253,0.028421,0.1945,0.022501
313,0.010991,0.04881,-0.015319,0.021186,0.02875,0.1797,0.018884
314,-0.00051963,0.04322,-0.019265,0.014608,0.033025,0.16293,0.019212
315,-0.0038083,0.034998,-0.016963,0.0024402,0.04322,0.15043,0.023488
316,-0.00051963,0.02579,-0.011701,-0.0097279,0.054401,0.13925,0.032038
317,0.0080309,0.019541,-0.0064392,-0.022883,0.059334,0.12609,0.036314
318,0.014937,0.014279,-0.0038083,-0.033735,0.056703,0.10801,0.0373
319,0.019541,0.010662,-0.0034794,-0.038011,0.044535,0.085315,0.037958
320,0.015595,0.0063866,-0.004466,-0.035051,0.023817,0.058019,0.04322
321,0.0067154,-0.0031506,-0.0034794,-0.025514,0.0030979,0.029407,0.048153
322,-0.0024928,-0.01499,0.002769,-0.01499,-0.0097279,0.0011247,0.045851
323,-0.0074258,-0.028144,0.012306,-0.0067681,-0.014003,-0.020252,0.036971
324,-0.0097279,-0.040641,0.018555,-0.0028217,-0.01499,-0.029789,0.027434
325,-0.010057,-0.050836,0.018555,0.0034268,-0.016634,-0.026829,0.017239
326,-0.0074258,-0.061689,0.015595,0.01132,-0.019594,-0.021238,0.010004
327,-0.0011774,-0.073528,0.012964,0.017897,-0.02354,-0.020909,0.0037556
328,0.0054,-0.086683,0.010662,0.02283,-0.025514,-0.026171,-0.004466
329,0.0050711,-0.10181,0.0077021,0.028092,-0.027158,-0.03242,-0.014003
330,-0.0038083,-0.11365,0.0034268,0.035656,-0.029789,-0.04097,-0.027487
331,-0.016305,-0.11858,-0.00051963,0.040918,-0.031762,-0.051165,-0.039655
332,-0.024856,-0.11497,-0.0054526,0.037629,-0.032749,-0.062676,-0.048863
333,-0.028473,-0.10378,-0.0090702,0.029078,-0.030118,-0.073857,-0.052152
334,-0.031433,-0.089314,-0.0067681,0.01987,-0.027158,-0.086025,-0.047877
335,-0.036695,-0.076159,-0.0024928,0.015924,-0.023211,-0.098522,-0.038668
336,-0.041957,-0.066293,0.0021113,0.018555,-0.016634,-0.1074,-0.026829
337,-0.04393,-0.057414,0.0047422,0.024145,-0.0087413,-0.10937,-0.014661
338,-0.040641,-0.049521,0.0054,0.028092,0.0017824,-0.10576,-0.004466
339,-0.031104,-0.044588,0.0057288,0.02579,0.0096753,-0.1028,0.00079584
340,-0.020252,-0.044917,0.010004,0.014608,0.0096753,-0.099838,-0.0024928
341,-0.0090702,-0.048205,0.014608,0.0017824,0.002769,-0.098193,-0.013345
342,-0.002164,-0.051823,0.017239,-0.0057815,-0.0093991,-0.09918,-0.022554
343,0.0037556,-0.048863,0.01691,-0.0057815,-0.017621,-0.10247,-0.019594
344,0.0096753,-0.038011,0.012964,0.0024402,-0.016305,-0.10937,-0.0074258
345,0.017239,-0.02354,0.0077021,0.014937,-0.0057815,-0.11825,0.0030979
346,0.021186,-0.0084125,0.0014536,0.025461,0.0073732,-0.12286,0.0090175
347,0.020528,0.0034268,-0.0008485,0.031381,0.018555,-0.1176,0.010662
348,0.019212,0.010991,-0.00051963,0.032696,0.029078,-0.10543,0.0083598
349,0.019541,0.016253,-0.0008485,0.03434,0.035985,-0.091287,0.0034268
350,0.019541,0.01691,-0.0057815,0.038944,0.034669,-0.079119,-0.00051963
351,0.017239,0.015924,-0.014332,0.050784,0.026119,-0.068924,-0.0011774
352,0.012635,0.014937,-0.021567,0.066569,0.014279,-0.063662,0.0021113
353,0.0090175,0.014608,-0.023869,0.079066,0.00046697,-0.058729,0.0090175
354,0.0086887,0.013951,-0.021896,0.080711,-0.010057,-0.051165,0.017568
355,0.010004,0.010991,-0.021567,0.073147,-0.010057,-0.043272,0.021186
356,0.01132,0.0054,-0.024527,0.061636,0.00079584,-0.038011,0.017897
357,0.0093464,-0.0028217,-0.028144,0.049468,0.010333,-0.036366,0.010662
358,0.0080309,-0.0077547,-0.026829,0.039273,0.0093464,-0.038339,0.00079584
359,0.010333,-0.0051238,-0.019923,0.030723,-0.00019077,-0.043272,-0.0084125
360,0.017897,0.0021113,-0.014332,0.02579,-0.010715,-0.048205,-0.011372
361,0.025461,0.0086887,-0.013345,0.023159,-0.019923,-0.051494,-0.0097279
362,0.029736,0.012635,-0.015648,0.017897,-0.025842,-0.051823,-0.0067681
363,0.030394,0.013951,-0.016963,0.0077021,-0.028473,-0.050507,-0.0061104
364,0.027434,0.012306,-0.016305,-0.0054526,-0.025842,-0.048205,-0.010386
365,0.021514,0.012635,-0.013674,-0.014003,-0.020909,-0.044917,-0.017621
366,0.0096753,0.018226,-0.012359,-0.016305,-0.019594,-0.043601,-0.023211
367,-0.0064392,0.027105,-0.01203,-0.015648,-0.021238,-0.042615,-0.025514
368,-0.019594,0.034998,-0.013017,-0.014661,-0.027487,-0.042615,-0.027158
369,-0.025842,0.035656,-0.014661,-0.017292,-0.03242,-0.043272,-0.030118
370,-0.020581,0.027763,-0.014332,-0.022554,-0.028144,-0.048205,-0.03242
371,-0.0077547,0.016581,-0.010715,-0.027158,-0.019265,-0.056756,-0.033406
372,0.010662,0.011648,-0.007097,-0.030118,-0.011372,-0.063004,-0.034722
373,0.026776,0.011648,-0.0041372,-0.030118,-0.0057815,-0.060373,-0.036695
374,0.032367,0.014937,-0.00019077,-0.030118,-0.0034794,-0.050836,-0.038339
375,0.026776,0.018555,0.0044134,-0.028473,-0.0090702,-0.041628,-0.037353
376,0.013951,0.019212,0.010662,-0.029789,-0.022554,-0.039326,-0.035051
377,-0.0008485,0.020199,0.015595,-0.032749,-0.034722,-0.038668,-0.031433
378,-0.013017,0.024803,0.014937,-0.034722,-0.041628,-0.039326,-0.02354
379,-0.019594,0.0373,0.0086887,-0.030118,-0.037024,-0.037682,-0.014003
380,-0.022225,0.054401,-0.00019077,-0.018278,-0.02354,-0.03538,-0.0077547
381,-0.022554,0.068214,-0.0038083,-0.004466,-0.0087413,-0.030118,-0.0064392
382,-0.021896,0.071831,-0.002164,0.0073732,0.0024402,-0.025514,-0.0064392
383,-0.020909,0.063281,0.0014536,0.013951,0.0047422,-0.020909,-0.0061104
384,-0.017292,0.048482,0.0040845,0.015595,0.002769,-0.014332,-0.0041372
385,-0.013345,0.032038,0.0063866,0.014279,-0.0024928,-0.0057815,0.0014536
386,-0.0097279,0.021514,0.0080309,0.014608,-0.0067681,-0.002164,0.013622
387,-0.0093991,0.021843,0.010991,0.012635,-0.0087413,-0.0028217,0.028092
388,-0.0097279,0.03434,0.013951,0.0096753,-0.0084125,-0.0018351,0.039931
389,-0.0064392,0.054072,0.017568,0.0054,-0.0047949,0.0034268,0.048482
390,0.0011247,0.071831,0.022172,-0.0015062,0.0011247,0.0090175,0.047824
391,0.010004,0.082355,0.027105,-0.0067681,0.0080309,0.015266,0.043877
392,0.017239,0.083342,0.030723,-0.011372,0.0093464,0.020528,0.039931
393,0.017568,0.076764,0.030723,-0.016634,0.0047422,0.023159,0.038944
394,0.015924,0.066569,0.030065,-0.02354,-0.0047949,0.02283,0.044535
395,0.013951,0.059005,0.02579,-0.030775,-0.010057,0.022501,0.058676
396,0.013951,0.059005,0.018884,-0.03538,-0.0087413,0.026447,0.075778
397,0.016253,0.06065,0.014279,-0.036695,-0.0034794,0.035985,0.092221
398,0.018226,0.057361,0.013293,-0.034722,0.0037556,0.04322,0.099456
399,0.019212,0.05177,0.015924,-0.024856,0.012635,0.043877,0.099785
400,0.018884,0.047824,0.019212,-0.0097279,0.026119,0.038944,0.093208
401,0.017568,0.050126,0.020199,0.0017824,0.040589,0.032038,0.083999
402,0.014937,0.055717,0.017897,0.0030979,0.049797,0.027105,0.07216
403,0.010004,0.059992,0.0077021,-0.0034794,0.050126,0.025461,0.064925
404,0.0060577,0.059992,-0.0047949,-0.011372,0.043877,0.027105,0.061307
405,0.0083598,0.055059,-0.012359,-0.014003,0.030394,0.032038,0.056046
406,0.017239,0.048482,-0.012688,-0.0090702,0.013622,0.0373,0.050455
407,0.02283,0.043549,-0.010715,0.0030979,0.0011247,0.039931,0.04322
408,0.024474,0.039602,-0.010386,0.014608,-0.0077547,0.041904,0.039602
409,0.021843,0.032038,-0.013017,0.019212,-0.017621,0.044206,0.041247
410,0.018226,0.018884,-0.01499,0.017897,-0.027816,0.047166,0.048482
411,0.017239,0.0080309,-0.018278,0.013951,-0.032091,0.047824,0.056703
412,0.018555,0.0050711,-0.022554,0.013293,-0.023211,0.04618,0.060321
413,0.020528,0.0090175,-0.027487,0.01691,-0.007097,0.036642,0.058019
414,0.017897,0.012306,-0.028802,0.022172,0.011648,0.020857,0.049797
415,0.011648,0.0086887,-0.026829,0.02875,0.026119,0.0044134,0.038944
416,0.0040845,-0.0031506,-0.022883,0.03434,0.029736,-0.0051238,0.026119
417,-0.004466,-0.019923,-0.018278,0.03434,0.022501,-0.0087413,0.015266
418,-0.014003,-0.033406,-0.014332,0.031381,0.0086887,-0.0093991,0.0093464
419,-0.023211,-0.042944,-0.013017,0.028421,-0.0031506,-0.013017,0.0067154
420,-0.031762,-0.048534,-0.010386,0.025132,-0.0097279,-0.016963,0.0014536
421,-0.037353,-0.050836,-0.0064392,0.020199,-0.011372,-0.018278,-0.0031506
422,-0.039326,-0.04689,-0.0038083,0.017568,-0.014332,-0.018607,-0.0080836
423,-0.038011,-0.039984,-0.0047949,0.01691,-0.020252,-0.021896,-0.013345
424,-0.034393,-0.032091,-0.0057815,0.018226,-0.026829,-0.024527,-0.01499
425,-0.029789,-0.02354,-0.0038083,0.021186,-0.03242,-0.021567,-0.013674
426,-0.023211,-0.018936,0.0021113,0.022501,-0.035708,-0.010057,-0.014661
427,-0.016963,-0.021896,0.0093464,0.02283,-0.038668,0.0060577,-0.01795
428,-0.012688,-0.031762,0.014937,0.020199,-0.041299,0.01987,-0.020909
429,-0.013674,-0.041299,0.018555,0.016581,-0.037024,0.028092,-0.026171
430,-0.012359,-0.045903,0.020199,0.01132,-0.027816,0.032038,-0.031433
431,-0.0093991,-0.04689,0.019212,0.0093464,-0.017621,0.035985,-0.037353
432,-0.0054526,-0.048863,0.014608,0.011977,-0.011043,0.042233,-0.041299
433,-0.0008485,-0.053796,0.0086887,0.018555,-0.0077547,0.051113,-0.041628
434,0.002769,-0.0584,0.00079584,0.026776,-0.0087413,0.059992,-0.041628
435,0.0044134,-0.059387,-0.0064392,0.034669,-0.010386,0.064925,-0.039655
436,0.0047422,-0.056427,-0.011043,0.041904,-0.011043,0.063938,-0.032749
437,0.0034268,-0.048534,-0.011043,0.044535,-0.01499,0.058348,-0.024527
438,-0.0015062,-0.04097,-0.0061104,0.041575,-0.016305,0.050784,-0.020252
439,-0.0084125,-0.036037,0.00079584,0.03434,-0.012688,0.042562,-0.022554
440,-0.010715,-0.034722,0.0067154,0.02283,-0.0018351,0.035327,-0.02946
441,-0.0067681,-0.035708,0.0090175,0.016581,0.010333,0.031052,-0.039655
442,0.0040845,-0.036366,0.0096753,0.017568,0.018555,0.032367,-0.048534
443,0.013293,-0.033406,0.0083598,0.026447,0.021186,0.0373,-0.04985
444,0.01691,-0.02946,0.0086887,0.036971,0.021843,0.042233,-0.041299
445,0.017239,-0.024198,0.012635,0.039602,0.019212,0.041575,-0.022883
446,0.018226,-0.018278,0.01691,0.033025,0.016253,0.037958,0.0021113
447,0.020528,-0.011372,0.021186,0.023159,0.014937,0.034011,0.025132
448,0.021843,-0.0057815,0.02283,0.016581,0.018884,0.032367,0.04026
449,0.017568,-0.0038083,0.023817,0.014937,0.024145,0.032038,0.047824
450,0.010333,-0.0057815,0.023488,0.012306,0.024474,0.037629,0.049797
451,0.002769,-0.0097279,0.020199,0.0054,0.018555,0.047166,0.046508
452,-0.0038083,-0.013345,0.013622,-0.0054526,0.0037556,0.055059,0.040918
453,-0.0084125,-0.012688,0.0037556,-0.014003,-0.014332,0.05473,0.038944
454,-0.014661,-0.0051238,-0.0074258,-0.013017,-0.02946,0.047824,0.036642
455,-0.019594,0.01132,-0.015648,-0.0051238,-0.040313,0.035985,0.032038
456,-0.019594,0.030394,-0.022554,0.002769,-0.042944,0.018555,0.026119
457,-0.012688,0.046837,-0.026829,0.0093464,-0.039655,-0.0015062,0.017568
458,0.0014536,0.05769,-0.030118,0.013622,-0.035051,-0.018278,0.0050711
459,0.014937,0.063281,-0.032749,0.010662,-0.031762,-0.02354,-0.010715
460,0.023488,0.062952,-0.031762,0.0060577,-0.032091,-0.020581,-0.021238
461,0.024145,0.060979,-0.027816,0.0037556,-0.037024,-0.017292,-0.019594
462,0.014279,0.058348,-0.021238,0.0030979,-0.04097,-0.017292,-0.0097279
463,-0.0031506,0.056374,-0.013345,-0.0028217,-0.035708,-0.020581,-0.00051963
464,-0.022554,0.049468,-0.0057815,-0.016634,-0.021238,-0.020252,0.0060577
465,-0.034064,0.036971,-0.00051963,-0.033406,-0.004466,-0.013674,0.01132
466,-0.03538,0.02283,0.0034268,-0.044588,0.0090175,-0.0031506,0.015924
467,-0.027487,0.013622,0.0040845,-0.045574,0.012306,0.01132,0.017568
468,-0.01499,0.013951,0.0050711,-0.038339,0.0086887,0.027763,0.012306
469,-0.0018351,0.020528,0.0080309,-0.02946,0.0040845,0.040918,0.0050711
470,0.0057288,0.032367,0.010991,-0.022883,-0.00019077,0.046508,-0.0018351
471,0.0067154,0.042891,0.012964,-0.019265,0.0021113,0.042562,-0.0061104
472,0.0017824,0.049468,0.014279,-0.015976,0.010991,0.031052,-0.0067681
473,-0.0047949,0.04881,0.016581,-0.007097,0.023817,0.016253,-0.0034794
474,-0.011701,0.042891,0.018884,0.0060577,0.031381,0.0070443,0.0017824
475,-0.01795,0.036314,0.017239,0.019541,0.02875,0.0050711,0.0070443
476,-0.02354,0.030394,0.010004,0.026776,0.019541,0.0090175,0.0093464
477,-0.024198,0.025461,-0.0024928,0.020199,0.0080309,0.015266,0.014937
478,-0.019265,0.021514,-0.01499,0.0047422,-0.0011774,0.019212,0.022172
479,-0.013017,0.017239,-0.02354,-0.015976,-0.004466,0.025132,0.028092
480,-0.0087413,0.013951,-0.027158,-0.035051,-0.0028217,0.031709,0.032038
481,-0.0051238,0.017897,-0.028802,-0.045903,-0.00019077,0.036314,0.029407
482,-0.00051963,0.02579,-0.027487,-0.044917,0.0021113,0.036971,0.025132
483,0.0060577,0.036642,-0.0265,-0.035051,0.0044134,0.0373,0.019541
484,0.013951,0.046508,-0.025514,-0.021896,0.0073732,0.036971,0.01691
485,0.020199,0.049797,-0.024856,-0.011043,0.0054,0.03434,0.017568
486,0.023817,0.04881,-0.020252,-0.004466,0.0014536,0.031381,0.020199
487,0.023159,0.047495,-0.013345,-0.00051963,-0.00051963,0.025132,0.02579
488,0.021186,0.050126,-0.0090702,0.0067154,0.0017824,0.017568,0.035327
489,0.018884,0.054072,-0.0090702,0.015595,0.0073732,0.0086887,0.044864
490,0.019541,0.059663,-0.011043,0.027434,0.011648,0.0057288,0.051113
491,0.023488,0.060979,-0.010386,0.042233,0.014279,0.010662,0.049468
492,0.025461,0.057361,-0.0080836,0.056374,0.012306,0.018226,0.039273
493,0.020199,0.052099,-0.011372,0.061965,0.0070443,0.017568,0.028421
494,0.010662,0.046508,-0.015976,0.056046,0.00046697,0.0057288,0.018884
495,0.00046697,0.040918,-0.020581,0.043877,-0.0031506,-0.012688,0.015595
496,-0.0077547,0.035327,-0.023211,0.034998,-0.0018351,-0.031762,0.013293
497,-0.0093991,0.030394,-0.024527,0.036314,0.0001381,-0.042286,0.012306
498,-0.0041372,0.026447,-0.021567,0.045851,-0.00051963,-0.044917,0.013293
499,0.0047422,0.023817,-0.018278,0.058019,-0.002164,-0.040641,0.014608
500,0.013951,0.018226,-0.012688,0.062623,-0.0011774,-0.02946,0.014937
501,0.020199,0.0090175,-0.010386,0.056374,0.0054,-0.018278,0.014279
502,0.020857,-0.0015062,-0.012359,0.043549,0.012635,-0.0093991,0.014279
503,0.017568,-0.0077547,-0.01795,0.027434,0.015924,-0.002164,0.01132
504,0.015266,-0.0061104,-0.024527,0.01132,0.012964,0.0060577,0.0017824
505,0.01691,0.0034268,-0.028473,-0.002164,0.0054,0.0054,-0.011372
506,0.020857,0.015266,-0.028473,-0.010715,0.00046697,-0.00019077,-0.020581
507,0.020857,0.026776,-0.026171,-0.011701,0.00079584,-0.0067681,-0.020581
508,0.013622,0.032367,-0.024527,-0.0064392,0.0050711,-0.011372,-0.01499
509,0.0021113,0.031381,-0.022225,0.0040845,0.0044134,-0.013017,-0.0064392
510,-0.0041372,0.027105,-0.015319,0.013622,-0.0061104,-0.0090702,0.00079584
511,0.00046697,0.02579,-0.0061104,0.022501,-0.024856,-0.00051963,0.0070443
512,0.011648,0.028092,0.0024402,0.029078,-0.043601,0.0070443,0.016253
513,0.024474,0.030723,0.0080309,0.037629,-0.059387,0.0077021,0.026447
514,0.034011,0.032367,0.010662,0.04618,-0.066293,0.00079584,0.03434
515,0.040918,0.033683,0.010991,0.055388,-0.063662,-0.016305,0.039273
516,0.041247,0.035656,0.010004,0.061965,-0.051823,-0.037353,0.041575
517,0.039931,0.034011,0.0073732,0.065912,-0.033078,-0.059716,0.040589
518,0.038616,0.026447,0.0054,0.065912,-0.016305,-0.077475,0.038287
519,0.039931,0.012635,0.0040845,0.064596,-0.007097,-0.087669,0.038944
520,0.041247,-0.0041372,0.0054,0.062294,-0.010715,-0.088985,0.042562
521,0.040918,-0.022554,0.010662,0.055388,-0.021567,-0.081092,0.041904
522,0.035327,-0.040641,0.018226,0.04322,-0.028802,-0.063991,0.036314
523,0.021186,-0.0584,0.027434,0.032038,-0.02354,-0.038997,0.025461
524,0.002769,-0.07879,0.034998,0.02579,-0.011701,-0.012359,0.014608
525,-0.013674,-0.099838,0.039273,0.023817,-0.00019077,0.0096753,0.0096753
526,-0.022554,-0.1176,0.038287,0.026119,0.0057288,0.018884,0.01132
527,-0.026171,-0.13108,0.032038,0.028421,0.0096753,0.014937,0.016253
528,-0.024527,-0.13601,0.022172,0.028092,0.014608,-0.00051963,0.018226
529,-0.021896,-0.13338,0.011648,0.023159,0.014608,-0.018936,0.013293
530,-0.019923,-0.1222,0.0050711,0.014937,0.010004,-0.035708,0.0057288
531,-0.018278,-0.10543,0.0021113,0.0054,0.0040845,-0.047219,-0.00019077
532,-0.015319,-0.083065,0.0034268,-0.0031506,-0.0015062,-0.04985,-0.0008485
533,-0.011043,-0.058071,0.0050711,-0.0077547,-0.0047949,-0.043601,0.0021113
534,-0.0051238,-0.036695,0.0057288,-0.01203,-0.0077547,-0.03242,0.0054
535,-0.0008485,-0.020909,0.0044134,-0.017621,-0.0087413,-0.020581,0.0060577
536,-0.0031506,-0.0087413,0.0037556,-0.024856,-0.0054526,-0.014332,0.00079584
537,-0.0067681,0.0001381,0.0057288,-0.032091,0.00046697,-0.018278,-0.0031506
538,-0.0084125,0.0057288,0.0096753,-0.04097,0.0057288,-0.024856,-0.0008485
539,-0.0074258,0.0073732,0.015595,-0.047877,0.0054,-0.02946,0.0040845
540,-0.0024928,0.0040845,0.021514,-0.051494,-0.00051963,-0.034722,0.010004
541,0.0040845,-0.0011774,0.026119,-0.053138,-0.0064392,-0.041957,0.015266
542,0.0083598,-0.0057815,0.029078,-0.052152,-0.0064392,-0.048534,0.018884
543,0.0060577,-0.0031506,0.02875,-0.050179,-0.0047949,-0.051494,0.018555
544,-0.004466,0.0021113,0.023817,-0.045903,-0.002164,-0.048863,0.020199
545,-0.022883,0.0090175,0.012306,-0.040313,-0.0015062,-0.039655,0.020528
546,-0.042286,0.011977,0.0011247,-0.03538,0.00079584,-0.028144,0.020528
547,-0.054783,0.0090175,-0.0064392,-0.034064,0.00079584,-0.022554,0.019541
548,-0.056756,0.0044134,-0.0077547,-0.038997,-0.004466,-0.025185,0.020199
549,-0.04985,0.0021113,-0.004466,-0.047219,-0.013674,-0.036366,0.019212
550,-0.038997,0.0040845,0.0017824,-0.05281,-0.022883,-0.04985,0.013293
551,-0.027487,0.0083598,0.0070443,-0.054783,-0.030118,-0.058729,0.0017824
552,-0.016305,0.014279,0.0070443,-0.05544,-0.035051,-0.057414,-0.0093991
553,-0.011043,0.021186,0.0034268,-0.055769,-0.034393,-0.046561,-0.01795
554,-0.012688,0.029078,-0.0008485,-0.057085,-0.031762,-0.032749,-0.019594
555,-0.019594,0.036314,-0.0034794,-0.058729,-0.031433,-0.022554,-0.01203
556,-0.0265,0.044535,-0.002164,-0.054454,-0.034393,-0.017292,-0.00019077
557,-0.028473,0.053415,-0.0011774,-0.041299,-0.038668,-0.017292,0.014279
558,-0.02946,0.05769,-0.0031506,-0.024198,-0.039326,-0.017292,0.028421
559,-0.02946,0.056046,-0.0090702,-0.015319,-0.034064,-0.018278,0.042891
560,-0.029789,0.048482,-0.017292,-0.018278,-0.0265,-0.018607,0.050784
561,-0.029789,0.043549,-0.0265,-0.027816,-0.021896,-0.019594,0.044535
562,-0.025185,0.044864,-0.031104,-0.03538,-0.018278,-0.018936,0.027434
563,-0.014003,0.046508,-0.027816,-0.037024,-0.01499,-0.0093991,0.0070443
564,-0.0051238,0.04618,-0.017292,-0.034064,-0.0087413,0.0093464,-0.0090702
565,0.0001381,0.044864,-0.0064392,-0.028144,-0.0015062,0.028421,-0.019594
566,0.0034268,0.039602,-0.00019077,-0.022883,0.0067154,0.04322,-0.025842
567,0.0070443,0.029078,0.00046697,-0.020252,0.012635,0.047824,-0.027487
568,0.011977,0.017568,-0.002164,-0.019265,0.017239,0.048153,-0.022225
569,0.017568,0.01132,-0.0077547,-0.017621,0.023817,0.047824,-0.01499
570,0.024145,0.015595,-0.011701,-0.013017,0.029407,0.052757,-0.010057
571,0.027763,0.022172,-0.011372,-0.0064392,0.032696,0.060979,-0.0097279
572,0.027434,0.027434,-0.0093991,0.0017824,0.030065,0.070187,-0.012688
573,0.025461,0.027763,-0.0093991,0.0090175,0.021843,0.080382,-0.017621
574,0.024803,0.023817,-0.0097279,0.014608,0.011977,0.091234,-0.023211
575,0.025132,0.01691,-0.0067681,0.016253,0.0054,0.1034,-0.030447
576,0.026119,0.013622,-0.0011774,0.016253,0.0034268,0.12017,-0.036037
577,0.027105,0.017568,0.0054,0.016581,0.0096753,0.13793,-0.035051
578,0.029736,0.026447,0.0093464,0.019212,0.021843,0.15076,-0.027158
579,0.030394,0.032367,0.01132,0.026447,0.0373,0.15405,-0.018278
580,0.030723,0.032696,0.011648,0.036971,0.049468,0.15109,-0.014661
581,0.029407,0.029407,0.0083598,0.047495,0.053415,0.14616,-0.018278
582,0.028092,0.024803,0.0057288,0.054072,0.049468,0.14024,-0.023211
583,0.02579,0.01987,0.0086887,0.055388,0.039602,0.13596,-0.027487
584,0.020528,0.013951,0.014937,0.053415,0.032696,0.13432,-0.02946
585,0.017897,0.0083598,0.01691,0.053086,0.029407,0.13333,-0.031762
586,0.020857,0.0034268,0.0090175,0.05473,0.031381,0.12971,-0.040641
587,0.028092,0.00079584,-0.0038083,0.057361,0.034998,0.11524,-0.051823
588,0.030065,0.0011247,-0.015319,0.059992,0.038944,0.09255,-0.060373
589,0.02579,0.0011247,-0.022554,0.056703,0.040918,0.066898,-0.059058
590,0.013951,-0.00019077,-0.022225,0.047824,0.038287,0.041904,-0.047548
591,0.0024402,-0.0067681,-0.018278,0.038616,0.028092,0.026447,-0.02946
592,0.0001381,-0.019265,-0.013674,0.034011,0.014279,0.020857,-0.014003
593,0.0054,-0.03538,-0.0067681,0.036642,0.0014536,0.020528,-0.0047949
594,0.012635,-0.04689,0.0030979,0.043877,-0.0087413,0.018555,-0.00019077
595,0.015924,-0.051823,0.011977,0.053743,-0.011043,0.0080309,-0.00051963
596,0.014608,-0.050507,0.015266,0.06065,-0.0067681,-0.015319,0.0001381
597,0.012306,-0.046232,0.013622,0.059005,0.0044134,-0.051823,0.002769
598,0.01132,-0.041957,0.0096753,0.049797,0.018555,-0.099509,0.0073732
599,0.012635,-0.038339,0.0093464,0.039931,0.030065,-0.16068,0.014279
600,0.013951,-0.033735,0.010662,0.033025,0.032038,-0.24092,0.02283
601,0.010991,-0.028473,0.010991,0.033354,0.023159,-0.33892,0.027763
602,0.0050711,-0.023869,0.010662,0.036314,0.0090175,-0.44318,0.023817
603,-0.0028217,-0.020909,0.010662,0.039931,-0.002164,-0.53493,0.013951
604,-0.007097,-0.019594,0.010004,0.042233,-0.0057815,-0.59643,0.0024402
605,-0.0064392,-0.020252,0.0070443,0.042891,-0.0084125,-0.6109,-0.0074258
606,0.0001381,-0.022225,0.0017824,0.04026,-0.010386,-0.57275,-0.010715
607,0.010333,-0.022554,-0.004466,0.035985,-0.012688,-0.49053,-0.0093991
608,0.019541,-0.01795,-0.012359,0.033025,-0.017292,-0.38858,-0.0034794
609,0.023159,-0.010386,-0.01795,0.028421,-0.021896,-0.28071,0.0021113
610,0.018226,-0.0008485,-0.018278,0.017568,-0.023869,-0.17482,0.010991
611,0.0063866,0.0057288,-0.013345,0.0017824,-0.019923,-0.082408,0.021843
612,-0.0067681,0.0080309,-0.0074258,-0.010057,-0.012688,-0.0077547,0.03434
613,-0.018936,0.0034268,-0.0047949,-0.013017,-0.0077547,0.056374,0.045522
614,-0.028473,-0.0061104,-0.0067681,-0.0084125,-0.007097,0.11031,0.053415
615,-0.033406,-0.017292,-0.012359,0.0037556,-0.0067681,0.15273,0.058019
616,-0.03242,-0.0265,-0.020909,0.021514,-0.0080836,0.17904,0.060321
617,-0.026829,-0.030118,-0.026171,0.039602,-0.0087413,0.18957,0.063938
618,-0.015648,-0.020909,-0.026829,0.052428,-0.011043,0.18693,0.062623
619,-0.0077547,0.00079584,-0.023869,0.054072,-0.018607,0.17279,0.057361
620,-0.0051238,0.030394,-0.020909,0.042233,-0.030775,0.15109,0.049797
621,-0.0093991,0.058676,-0.019923,0.020199,-0.040641,0.12281,0.045522
622,-0.017621,0.079395,-0.020252,-0.00051963,-0.041957,0.094852,0.042891
623,-0.023211,0.087946,-0.01795,-0.010386,-0.03538,0.07216,0.038616
624,-0.023211,0.085315,-0.012359,-0.0041372,-0.023869,0.058348,0.032367
625,-0.016634,0.081697,-0.0057815,0.0083598,-0.010386,0.052428,0.02875
626,-0.0093991,0.08367,-0.0031506,0.017568,0.00046697,0.051441,0.025461
627,-0.0051238,0.093865,-0.004466,0.014279,0.0040845,0.050455,0.01987
628,-0.0047949,0.10702,-0.010715,-0.00019077,0.0021113,0.049468,0.014279
629,-0.0061104,0.11721,-0.019265,-0.016963,-0.0031506,0.053086,0.010662
630,-0.0087413,0.11919,-0.028473,-0.030118,-0.0093991,0.064267,0.0067154
631,-0.010715,0.11557,-0.031762,-0.037682,-0.016634,0.077422,0.0024402
632,-0.010386,0.10932,-0.028144,-0.039984,-0.021896,0.088932,0.00046697
633,-0.0057815,0.097812,-0.021896,-0.037353,-0.022225,0.097154,0.0037556
634,0.0044134,0.084328,-0.017621,-0.037682,-0.017621,0.1011,0.013293
635,0.015266,0.072489,-0.016963,-0.043601,-0.0051238,0.10373,0.026119
636,0.021186,0.059992,-0.016305,-0.048205,0.0054,0.11064,0.036314
637,0.017239,0.039931,-0.01499,-0.043272,0.0096753,0.12445,0.036971
638,0.0047422,0.012635,-0.014003,-0.033406,0.0077021,0.13826,0.028092
639,-0.010715,-0.017292,-0.0093991,-0.023211,0.0011247,0.14681,0.013622
640,-0.02354,-0.044588,-0.0015062,-0.015319,-0.011043,0.14912,0.0044134
641,-0.030775,-0.062347,0.0063866,-0.0084125,-0.023211,0.1432,0.0024402
642,-0.031104,-0.069582,0.011648,-0.0028217,-0.026829,0.13169,0.0050711
643,-0.025842,-0.065307,0.013293,0.0001381,-0.020581,0.11754,0.0073732
644,-0.014003,-0.04985,0.010333,-0.00051963,-0.004466,0.10242,0.010662
645,-0.0031506,-0.031104,0.0014536,-0.0034794,0.015266,0.088932,0.014608
646,0.0050711,-0.010386,-0.0084125,-0.0034794,0.031709,0.07216,0.020857
647,0.010662,0.010004,-0.015648,0.0017824,0.036642,0.049797,0.02283
648,0.015595,0.025461,-0.016305,0.0096753,0.031381,0.02283,0.021843
649,0.020199,0.032696,-0.014332,0.015266,0.019212,-0.004466,0.022172
650,0.027105,0.034998,-0.010057,0.018884,0.0044134,-0.025514,0.026119
651,0.033683,0.036642,-0.0047949,0.021186,-0.0067681,-0.038668,0.034669
652,0.038287,0.039931,0.0017824,0.021186,-0.013345,-0.046232,0.043549
653,0.037629,0.041575,0.010333,0.024474,-0.015648,-0.04689,0.046837
654,0.031709,0.039273,0.017568,0.031381,-0.012688,-0.037353,0.045193
655,0.023488,0.033683,0.023817,0.039602,-0.011043,-0.018607,0.041904
656,0.016253,0.026776,0.029736,0.041575,-0.015319,0.0054,0.036971
657,0.012635,0.02283,0.03434,0.034669,-0.020581,0.033683,0.028421
658,0.010991,0.020199,0.035327,0.020199,-0.022883,0.063281,0.014937
659,0.013951,0.016253,0.032696,0.0070443,-0.024527,0.087946,-0.0018351
660,0.020199,0.011977,0.02579,-0.0024928,-0.028473,0.10669,-0.015976
661,0.023159,0.0057288,0.016581,-0.007097,-0.034064,0.1205,-0.021567
662,0.01987,-0.0034794,0.010991,-0.0064392,-0.04097,0.13563,-0.019265
663,0.013293,-0.011043,0.013951,0.0014536,-0.045246,0.15438,-0.011372
664,0.0070443,-0.017621,0.024145,0.012306,-0.040313,0.18003,-0.0041372
665,0.0021113,-0.022883,0.031709,0.021843,-0.026171,0.20239,0.00079584
666,0.0014536,-0.028473,0.036314,0.029736,-0.0090702,0.20535,0.0040845
667,0.0014536,-0.034064,0.0373,0.034669,0.0060577,0.1751,0.0054
668,-0.0011774,-0.040641,0.034669,0.038616,0.012635,0.11623,0.0063866
669,-0.0057815,-0.048863,0.027763,0.041575,0.013622,0.044206,0.0070443
670,-0.0097279,-0.057743,0.018226,0.042233,0.012635,-0.023869,0.0077021
671,-0.013345,-0.068266,0.0086887,0.041575,0.0096753,-0.080434,0.0096753
672,-0.016634,-0.081092,0.00079584,0.0373,0.0054,-0.12154,0.012635
673,-0.016963,-0.087998,-0.0054526,0.027763,0.00046697,-0.14818,0.012306
674,-0.012359,-0.086025,-0.0080836,0.014937,-0.0054526,-0.16561,0.0037556
675,-0.0080836,-0.074186,-0.0064392,0.0040845,-0.010715,-0.17909,-0.0093991
676,-0.0087413,-0.060702,-0.004466,0.0001381,-0.017292,-0.1962,-0.022225
677,-0.0084125,-0.048205,-0.0051238,0.0054,-0.017292,-0.21724,-0.02946
678,-0.0077547,-0.039655,-0.0074258,0.012964,-0.0087413,-0.2327,-0.0265
679,-0.0077547,-0.034064,-0.010386,0.024145,0.0037556,-0.23763,-0.017621
680,-0.010057,-0.031433,-0.010057,0.036971,0.012635,-0.23171,-0.007097
681,-0.013017,-0.030447,-0.0024928,0.046508,0.01132,-0.21889,-0.00051963
682,-0.015976,-0.026829,0.0080309,0.056046,0.002769,-0.19981,0.0011247
683,-0.018936,-0.020252,0.015595,0.062623,-0.0031506,-0.17646,-0.0011774
684,-0.021567,-0.010386,0.01691,0.064925,-0.0061104,-0.14588,-0.0047949
685,-0.020909,0.0017824,0.013951,0.057361,-0.007097,-0.11102,-0.0051238
686,-0.015976,0.018884,0.0070443,0.045193,-0.0067681,-0.075173,-0.0038083
687,-0.0077547,0.036642,-0.0038083,0.032696,-0.0041372,-0.048534,-0.0047949
688,-0.0018351,0.053086,-0.012688,0.024474,-0.0018351,-0.030775,-0.0051238
689,0.0001381,0.063938,-0.015976,0.020199,0.0044134,-0.014003,-0.002164
690,-0.0008485,0.068214,-0.015976,0.018884,0.010333,0.01132,0.0047422
691,-0.002164,0.064596,-0.013345,0.015924,0.014279,0.051441,0.012306
692,0.0011247,0.056046,-0.0080836,0.0077021,0.015266,0.10669,0.013622
693,0.0086887,0.046837,0.0011247,-0.0031506,0.01691,0.16622,0.0057288
694,0.017897,0.038944,0.010662,-0.012359,0.020528,0.21982,-0.010386
695,0.026119,0.030723,0.019541,-0.019923,0.023488,0.26159,-0.033735
696,0.02579,0.024803,0.024474,-0.027158,0.027434,0.29053,-0.054454
697,0.019212,0.021514,0.027434,-0.032749,0.028421,0.30434,-0.060373
698,0.0090175,0.018226,0.027763,-0.033735,0.024803,0.29974,-0.048534
699,0.002769,0.011977,0.026447,-0.025185,0.013951,0.27408,-0.025842
700,0.0014536,0.002769,0.024145,-0.011701,0.0011247,0.2287,-0.002164
701,0.00079584,-0.010386,0.021843,-0.0011774,-0.011043,0.17477,0.013293
702,-0.0038083,-0.025185,0.016253,-0.00019077,-0.016634,0.12215,0.018226
703,-0.010386,-0.039326,0.0093464,-0.0047949,-0.014332,0.077751,0.013951
704,-0.016963,-0.051823,0.002769,-0.0087413,-0.0038083,0.042562,0.0067154
705,-0.024527,-0.063004,-0.0034794,-0.0090702,0.0077021,0.014279,-0.002164
706,-0.029789,-0.073857,-0.007097,-0.0038083,0.012306,-0.01203,-0.010386
707,-0.03538,-0.087669,-0.0080836,0.0014536,0.0090175,-0.041299,-0.018607
708,-0.040313,-0.10346,-0.0047949,0.0024402,0.0030979,-0.077146,-0.026829
709,-0.045574,-0.11233,0.0047422,-0.0057815,0.0001381,-0.11529,-0.02946
710,-0.04985,-0.10773,0.015924,-0.019923,-0.0018351,-0.14588,-0.024527
711,-0.048534,-0.089972,0.020528,-0.033078,-0.0064392,-0.1587,-0.013017
712,-0.04097,-0.066951,0.01691,-0.037024,-0.013345,-0.1541,0.0050711
713,-0.027487,-0.042286,0.0086887,-0.033735,-0.022225,-0.13864,0.024145
714,-0.0087413,-0.016963,-0.0024928,-0.027158,-0.031762,-0.12154,0.037958
715,0.0083598,0.0060577,-0.014661,-0.016963,-0.041957,-0.11135,0.035985
716,0.018884,0.025132,-0.024198,-0.0031506,-0.04985,-0.1051,0.02283
717,0.021186,0.038944,-0.028473,0.013951,-0.054125,-0.1005,0.0090175
718,0.016581,0.048482,-0.026829,0.027763,-0.056427,-0.09622,0.0011247
719,0.012635,0.052757,-0.021896,0.030065,-0.056756,-0.090629,0.0001381
720,0.011977,0.058348,-0.015976,0.019212,-0.05544,-0.086025,0.0054
721,0.013622,0.062952,-0.013674,0.002769,-0.04985,-0.079448,0.012306
722,0.019541,0.065912,-0.015648,-0.011701,-0.042944,-0.068924,0.015595
723,0.026119,0.06624,-0.021567,-0.022225,-0.038668,-0.054454,0.015266
724,0.029407,0.064925,-0.025842,-0.022554,-0.039655,-0.037024,0.014608
725,0.024145,0.061965,-0.025514,-0.012359,-0.04097,-0.024198,0.015924
726,0.013622,0.058676,-0.022554,0.0047422,-0.034722,-0.022883,0.019212
727,0.0011247,0.058348,-0.020252,0.020528,-0.025185,-0.033735,0.020199
728,-0.0057815,0.058019,-0.021567,0.031709,-0.016634,-0.048863,0.013293
729,-0.0077547,0.052757,-0.02354,0.034669,-0.010057,-0.054454,0.00046697
730,-0.0031506,0.043877,-0.025514,0.030723,-0.0034794,-0.04985,-0.01203
731,0.0037556,0.034998,-0.025514,0.020857,0.0070443,-0.041299,-0.015976
732,0.0080309,0.029736,-0.024198,0.011648,0.016581,-0.036037,-0.013345
733,0.0063866,0.031709,-0.021896,0.0044134,0.020528,-0.032749,-0.0034794
734,0.0011247,0.040589,-0.020252,0.0001381,0.019212,-0.031762,0.010004
735,-0.0031506,0.05177,-0.01795,0.0001381,0.013293,-0.03538,0.018884
736,-0.0054526,0.062294,-0.019923,-0.00051963,0.0057288,-0.041299,0.022172
737,-0.0047949,0.067556,-0.025514,-0.0015062,-0.0015062,-0.043272,0.021843
738,-0.0024928,0.068214,-0.03242,-0.0034794,-0.0080836,-0.037682,0.023159
739,0.0021113,0.065912,-0.037353,-0.0051238,-0.011701,-0.027158,0.026119
740,0.0067154,0.058676,-0.039655,-0.0077547,-0.011043,-0.017292,0.031052
741,0.010004,0.047166,-0.038668,-0.0093991,-0.0051238,-0.013017,0.036314
742,0.010991,0.033025,-0.032749,-0.0074258,0.0014536,-0.018607,0.039602
743,0.0090175,0.020857,-0.022883,-0.0064392,0.0044134,-0.032091,0.041575
744,0.0096753,0.014937,-0.011372,-0.0090702,0.0070443,-0.046561,0.044864
745,0.0096753,0.015266,-0.0015062,-0.015648,0.0063866,-0.056427,0.047495
746,0.0067154,0.018884,0.0080309,-0.02354,0.0044134,-0.061689,0.048153
747,0.0044134,0.021514,0.013293,-0.027816,0.0017824,-0.063662,0.04618
748,0.0054,0.017897,0.013951,-0.027816,0.0040845,-0.065635,0.04322
749,0.0086887,0.0086887,0.013951,-0.022554,0.013622,-0.066293,0.043549
750,0.0096753,-0.0015062,0.012635,-0.011043,0.023488,-0.063991,0.047495
751,0.0080309,-0.011701,0.013622,0.0040845,0.024474,-0.0584,0.053086
752,0.0050711,-0.019594,0.016253,0.020199,0.013951,-0.051165,0.058348
753,0.0044134,-0.023211,0.017897,0.033025,-0.0008485,-0.042286,0.061307
754,0.0067154,-0.021567,0.019541,0.04026,-0.010715,-0.03242,0.059334
755,0.0080309,-0.019594,0.018884,0.047495,-0.013017,-0.021567,0.05177
756,0.0050711,-0.018607,0.018226,0.054072,-0.013017,-0.0061104,0.040589
757,-0.0028217,-0.020909,0.015924,0.056046,-0.0090702,0.010662,0.026776
758,-0.0097279,-0.024856,0.015266,0.052428,0.0017824,0.021514,0.015266
759,-0.010386,-0.028802,0.014937,0.047495,0.01691,0.02283,0.0093464
760,-0.0047949,-0.029789,0.015924,0.045193,0.029407,0.015266,0.0070443
761,0.0050711,-0.027158,0.015924,0.044206,0.034998,0.0050711,0.0073732
762,0.015924,-0.025185,0.012306,0.038616,0.031709,-0.0018351,0.0070443
763,0.022501,-0.023869,0.0070443,0.028092,0.021514,-0.0031506,0.002769
764,0.023817,-0.020252,0.0017824,0.017897,0.0083598,-0.0024928,-0.0038083
765,0.017897,-0.015976,0.0011247,0.01132,-0.0074258,-0.0015062,-0.0061104
766,0.0093464,-0.012359,0.0054,0.0054,-0.018936,0.0054,-0.0034794
767,0.0070443,-0.0074258,0.010991,-0.0054526,-0.024198,0.018884,-0.0008485
768,0.010004,-0.0047949,0.014608,-0.019923,-0.018607,0.032367,0.0017824
769,0.015266,-0.0051238,0.012635,-0.027487,-0.0051238,0.041247,0.002769
770,0.018884,-0.0057815,0.0070443,-0.024198,0.010662,0.047495,0.0063866
771,0.022172,-0.0034794,0.0017824,-0.014661,0.022501,0.051441,0.015266
772,0.026119,0.002769,-0.00051963,-0.0047949,0.028092,0.055059,0.026119
773,0.031709,0.01132,0.002769,0.0014536,0.024474,0.056046,0.03434
774,0.034011,0.017568,0.0073732,0.0044134,0.014937,0.053415,0.035985
775,0.032367,0.01691,0.013293,0.0054,0.0080309,0.04881,0.031709
776,0.030394,0.013293,0.01691,0.0093464,0.0037556,0.04618,0.022501
777,0.030394,0.010991,0.017239,0.014279,0.0017824,0.046508,0.010991
778,0.032367,0.015924,0.013951,0.016581,0.0017824,0.047166,0.0001381
779,0.032367,0.02579,0.0073732,0.012635,0.0024402,0.04881,-0.0061104
780,0.026776,0.032038,-0.0015062,0.0037556,0.0040845,0.049139,-0.0028217
781,0.018884,0.034669,-0.010386,-0.004466,0.0044134,0.049139,0.0086887
782,0.011977,0.03434,-0.01795,-0.0057815,0.0021113,0.044864,0.027434
783,0.0086887,0.03434,-0.02354,-0.00019077,-0.004466,0.038287,0.044535
784,0.010662,0.033354,-0.022225,0.0037556,-0.011701,0.031709,0.04881
785,0.011648,0.033354,-0.014003,-0.0018351,-0.015319,0.029078,0.040589
786,0.010004,0.036971,-0.00051963,-0.015319,-0.01203,0.032367,0.020528
787,0.0017824,0.043549,0.013293,-0.030775,-0.0038083,0.038287,0.0011247
788,-0.012688,0.050784,0.023488,-0.037353,0.0054,0.043877,-0.01203
789,-0.027487,0.056703,0.026447,-0.033406,0.012306,0.04881,-0.0090702
790,-0.037353,0.059663,0.021186,-0.023869,0.014937,0.048482,0.0057288
791,-0.039326,0.057032,0.012635,-0.015319,0.010991,0.045851,0.025132
792,-0.036366,0.050126,0.0057288,-0.011372,0.002769,0.042233,0.039931
793,-0.033078,0.039273,0.0030979,-0.0097279,-0.0031506,0.039602,0.046508
794,-0.03242,0.027105,0.0067154,-0.0074258,-0.0064392,0.038616,0.042562
795,-0.03538,0.021514,0.01132,-0.0031506,-0.007097,0.04322,0.031381
796,-0.040641,0.02579,0.012306,-0.00019077,-0.0057815,0.05177,0.019212
797,-0.042944,0.03434,0.0083598,-0.0015062,-0.0054526,0.061965,0.0080309
798,-0.038997,0.041247,0.00046697,-0.0067681,-0.0051238,0.065583,0.0011247
799,-0.034064,0.041247,-0.0038083,-0.014003,-0.002164,0.059334,-0.0024928
800,-0.027158,0.036642,-0.00051963,-0.022883,0.0047422,0.042891,-0.002164
801,-0.020909,0.030723,0.0073732,-0.02946,0.01132,0.025132,-0.0057815
802,-0.014332,0.029407,0.014937,-0.029789,0.011648,0.010333,-0.016305
803,-0.0057815,0.033025,0.020199,-0.023211,0.0063866,0.00079584,-0.033078
804,0.0017824,0.038944,0.023488,-0.01203,-0.0051238,-0.0057815,-0.048863
805,0.0057288,0.04322,0.026447,0.0017824,-0.014332,-0.0067681,-0.060373
806,0.0054,0.042891,0.02579,0.014937,-0.012688,-0.0008485,-0.061689
807,0.0034268,0.036642,0.020857,0.022501,-0.004466,0.012964,-0.055112
808,0.0021113,0.025132,0.012306,0.02283,0.0040845,0.027105,-0.041299
809,0.002769,0.014279,0.0063866,0.01987,0.010004,0.032696,-0.024856
810,0.0060577,0.0073732,0.0050711,0.021843,0.013293,0.029736,-0.0097279
811,0.010004,0.0054,0.0063866,0.028421,0.011977,0.024803,-0.0011774
812,0.014608,0.0057288,0.0044134,0.0373,0.0073732,0.021186,0.00046697
813,0.020857,0.0077021,-0.0031506,0.042891,0.0011247,0.019212,-0.0008485
814,0.026119,0.010004,-0.013017,0.044206,-0.004466,0.01987,-0.0041372
815,0.029407,0.0080309,-0.024527,0.043877,-0.0057815,0.021186,-0.004466
816,0.030723,0.0017824,-0.034393,0.041904,-0.002164,0.023817,-0.0031506
817,0.032696,-0.0041372,-0.041957,0.034669,0.0047422,0.030065,0.002769
818,0.032367,-0.0093991,-0.045574,0.025132,0.0073732,0.0373,0.010991
819,0.028421,-0.013345,-0.041957,0.01691,0.0070443,0.036314,0.017897
820,0.024803,-0.014332,-0.034722,0.011648,0.0044134,0.026776,0.018884
821,0.021186,-0.016963,-0.028802,0.0093464,0.0044134,0.01132,0.015266
822,0.013293,-0.020909,-0.025842,0.011977,0.0070443,-0.0031506,0.011648
823,0.0037556,-0.024856,-0.022883,0.015924,0.0086887,-0.011701,0.0060577
824,-0.00051963,-0.026829,-0.019923,0.020199,0.010004,-0.016305,0.0001381
825,0.0037556,-0.024527,-0.020252,0.024803,0.0080309,-0.016305,-0.0015062
826,0.014279,-0.021896,-0.022225,0.026447,0.0047422,-0.012688,0.0024402
827,0.024474,-0.022883,-0.026171,0.024474,0.0001381,-0.0093991,0.0093464
828,0.032696,-0.026171,-0.031104,0.020528,-0.0018351,-0.0061104,0.016581
829,0.036642,-0.028802,-0.034064,0.016581,0.0017824,0.00046697,0.024145
830,0.038287,-0.032091,-0.033735,0.011648,0.010662,0.0093464,0.026119
831,0.039273,-0.038011,-0.0265,0.0086887,0.018884,0.017239,0.019541
832,0.044864,-0.043601,-0.015319,0.010004,0.022172,0.01987,0.0057288
833,0.053086,-0.047877,-0.004466,0.015266,0.018884,0.017568,-0.0093991
834,0.059005,-0.047877,0.0024402,0.022172,0.010662,0.015595,-0.018936
835,0.058348,-0.044917,0.0044134,0.032367,0.0044134,0.015924,-0.017621
836,0.048482,-0.045574,0.0044134,0.044206,0.0037556,0.015595,-0.0084125
837,0.031381,-0.051165,0.0070443,0.056703,0.0054,0.010004,0.0037556
838,0.014937,-0.057414,0.012306,0.066898,0.0073732,0.0014536,0.015266
839,0.002769,-0.056427,0.015595,0.071502,0.0083598,-0.0031506,0.023159
840,-0.0038083,-0.050836,0.01691,0.067885,0.0057288,0.0014536,0.020857
841,-0.007097,-0.042286,0.015924,0.057361,0.0024402,0.013622,0.0077021
842,-0.010057,-0.034064,0.013293,0.045851,0.0044134,0.025461,-0.013017
843,-0.015648,-0.030447,0.010662,0.038944,0.0090175,0.033354,-0.031433
844,-0.020252,-0.028802,0.0080309,0.04026,0.010004,0.028092,-0.038011
845,-0.024527,-0.028802,0.0044134,0.047166,0.0037556,0.013951,-0.029789
846,-0.027816,-0.030775,-0.0015062,0.054072,-0.007097,-0.0031506,-0.014661
847,-0.027487,-0.03538,-0.0097279,0.057361,-0.017621,-0.013674,-0.0011774
848,-0.022554,-0.038997,-0.014332,0.055717,-0.026171,-0.014332,0.0080309
849,-0.01499,-0.042944,-0.013674,0.04881,-0.030118,-0.0090702,0.0093464
850,-0.0061104,-0.044259,-0.0064392,0.038287,-0.028473,-0.0061104,0.0050711
851,0.0024402,-0.045574,0.0047422,0.030394,-0.027158,-0.011372,0.00046697
852,0.0070443,-0.047219,0.012635,0.027434,-0.030447,-0.024198,-0.0038083
853,0.0083598,-0.045246,0.011648,0.028092,-0.037682,-0.042615,-0.0077547
854,0.0044134,-0.043272,0.0054,0.029736,-0.043272,-0.061031,-0.0093991
855,-0.0031506,-0.044588,-0.004466,0.030394,-0.044588,-0.073857,-0.004466
856,-0.015319,-0.04985,-0.011701,0.030065,-0.038668,-0.077803,0.0063866
857,-0.024198,-0.052152,-0.016634,0.029736,-0.02946,-0.072542,0.017239
858,-0.023869,-0.04689,-0.01795,0.031052,-0.023869,-0.0584,0.025461
859,-0.01795,-0.03242,-0.016305,0.031052,-0.025185,-0.041957,0.031709
860,-0.011701,-0.013017,-0.014003,0.024803,-0.029789,-0.030118,0.03434
861,-0.0074258,0.0050711,-0.012688,0.01132,-0.034064,-0.024527,0.035327
862,-0.0064392,0.017568,-0.013674,-0.004466,-0.036037,-0.020252,0.037629
863,-0.007097,0.024803,-0.015319,-0.016634,-0.033735,-0.020252,0.040918
864,-0.0054526,0.029736,-0.01795,-0.022554,-0.023869,-0.025842,0.045851
865,-0.0038083,0.035656,-0.018278,-0.019923,-0.013017,-0.03242,0.047824
866,-0.0061104,0.042562,-0.01499,-0.011372,-0.0051238,-0.036366,0.041904
867,-0.010386,0.049797,-0.0090702,-0.0031506,-0.0067681,-0.038668,0.030723
868,-0.014003,0.055717,-0.0028217,0.0040845,-0.016305,-0.04097,0.017897
869,-0.014332,0.056046,0.0011247,0.0096753,-0.028802,-0.046232,0.0054
870,-0.011701,0.05177,0.0021113,0.014279,-0.034393,-0.053467,-0.0041372
871,-0.0057815,0.04618,-0.00019077,0.016253,-0.029789,-0.0584,-0.010715
872,0.00079584,0.040589,-0.0051238,0.012635,-0.016963,-0.060045,-0.011043
873,0.0001381,0.036314,-0.011701,0.002769,-0.0047949,-0.056098,-0.0041372
874,-0.0097279,0.032367,-0.017621,-0.011043,-0.00019077,-0.049192,0.0044134
875,-0.020252,0.031052,-0.021896,-0.021896,-0.0015062,-0.038997,0.010333
876,-0.027487,0.033683,-0.022554,-0.028144,-0.0034794,-0.029131,0.013293
877,-0.032091,0.041247,-0.019923,-0.031104,-0.0061104,-0.019594,0.013622
878,-0.033406,0.052757,-0.017621,-0.031104,-0.010386,-0.0097279,0.011977
879,-0.031433,0.066569,-0.017292,-0.028802,-0.017292,-0.0015062,0.0080309
880,-0.023869,0.074133,-0.014332,-0.029131,-0.020909,0.0037556,0.0017824
881,-0.011372,0.078409,-0.0090702,-0.033078,-0.018607,0.0030979,-0.0018351
882,0.00079584,0.079066,-0.0024928,-0.038011,-0.013674,0.0001381,0.00046697
883,0.0080309,0.074133,0.0047422,-0.039984,-0.011043,-0.00051963,0.010991
884,0.0093464,0.064596,0.011648,-0.040313,-0.011043,0.0060577,0.025461
885,0.0073732,0.055717,0.015266,-0.043601,-0.010386,0.013951,0.0373
886,0.0017824,0.049139,0.016253,-0.047877,-0.0067681,0.020857,0.038616
887,-0.0064392,0.045522,0.011977,-0.051494,0.0001381,0.021514,0.02875
888,-0.014332,0.04618,0.0096753,-0.050836,0.0086887,0.01691,0.014608
889,-0.016305,0.046837,0.013293,-0.042286,0.016581,0.012635,0.0030979
890,-0.0090702,0.048482,0.022172,-0.024856,0.019541,0.013293,-0.0077547
891,0.0040845,0.049468,0.031709,-0.0034794,0.020199,0.01691,-0.015319
892,0.017239,0.049139,0.037629,0.010004,0.021843,0.021514,-0.018278
893,0.029078,0.047824,0.036642,0.011977,0.02875,0.026776,-0.015976
894,0.039273,0.046508,0.030723,0.011977,0.032696,0.030723,-0.013017
895,0.042891,0.047166,0.022501,0.010662,0.035327,0.030723,-0.0087413
896,0.037629,0.049139,0.015924,0.0093464,0.030065,0.025132,-0.0054526
897,0.024803,0.05473,0.010662,0.0054,0.014608,0.013951,-0.0031506
898,0.0096753,0.062952,0.0083598,-0.0024928,-0.007097,-0.0011774,-0.0018351
899,-0.002164,0.067227,0.0067154,-0.01203,-0.028144,-0.017621,-0.0028217
900,-0.0061104,0.064925,0.0047422,-0.020252,-0.041628,-0.031433,-0.0051238
901,-0.0047949,0.056374,0.0037556,-0.0265,-0.04689,-0.036695,-0.0038083
902,-0.0038083,0.043549,0.0054,-0.030447,-0.04689,-0.03242,0.0037556
903,-0.0024928,0.029078,0.0090175,-0.031433,-0.044588,-0.028144,0.01691
904,0.0001381,0.012635,0.012964,-0.029789,-0.040641,-0.028802,0.031381
905,0.00079584,-0.0038083,0.015595,-0.02354,-0.037353,-0.038997,0.042891
906,-0.0024928,-0.019594,0.016253,-0.015648,-0.034064,-0.049521,0.046837
907,-0.0064392,-0.037353,0.016581,-0.007097,-0.028802,-0.053467,0.038616
908,-0.01203,-0.05544,0.018226,-0.0011774,-0.019265,-0.049521,0.023159
909,-0.016963,-0.070568,0.020528,0.002769,-0.010715,-0.043601,0.0070443
910,-0.021567,-0.076159,0.021843,0.0057288,-0.0064392,-0.037353,-0.0038083
911,-0.025842,-0.07024,0.021186,0.010662,-0.0090702,-0.031104,-0.010715
912,-0.029789,-0.06136,0.019212,0.021843,-0.015648,-0.02354,-0.015648
913,-0.035708,-0.054783,0.015595,0.035656,-0.025514,-0.013345,-0.019594
914,-0.045246,-0.051165,0.011977,0.046837,-0.034722,-0.0057815,-0.018936
915,-0.055112,-0.050836,0.0090175,0.05177,-0.039326,-0.0093991,-0.015319
916,-0.066622,-0.057085,0.0070443,0.049797,-0.041628,-0.023869,-0.012688
917,-0.081092,-0.06728,0.0054,0.043549,-0.038997,-0.039326,-0.011372
918,-0.093918,-0.077803,0.0037556,0.032038,-0.034393,-0.046561,-0.0097279
919,-0.097864,-0.083723,0.0001381,0.017568,-0.03242,-0.043601,-0.010386
920,-0.089643,-0.083065,-0.0074258,0.0021113,-0.030775,-0.032091,-0.013017
921,-0.073857,-0.075173,-0.014332,-0.010715,-0.025514,-0.017621,-0.016305
922,-0.053467,-0.061689,-0.018607,-0.020252,-0.015648,0.0017824,-0.018278
923,-0.03242,-0.045903,-0.017292,-0.025185,-0.0024928,0.02579,-0.022554
924,-0.015319,-0.029131,-0.012688,-0.023211,0.0070443,0.050126,-0.030118
925,-0.0057815,-0.016634,-0.007097,-0.017292,0.0057288,0.073476,-0.037353
926,0.0017824,-0.0074258,-0.0015062,-0.011372,-0.0034794,0.096167,-0.042286
927,0.0054,0.0001381,0.0044134,-0.004466,-0.011701,0.11393,-0.041628
928,0.0086887,0.0070443,0.010991,0.0037556,-0.010386,0.12083,-0.032091
929,0.011977,0.0083598,0.011977,0.011977,-0.0031506,0.11557,-0.015648
930,0.016581,0.0040845,0.0086887,0.017568,0.0057288,0.1034,0.0050711
931,0.022501,-0.002164,0.0011247,0.018555,0.010662,0.089919,0.020857
932,0.029736,-0.00019077,-0.0064392,0.013622,0.012635,0.07808,0.034011
933,0.033025,0.01132,-0.010715,0.0054,0.017568,0.061965,0.046508
934,0.033354,0.02579,-0.010386,-0.0011774,0.032038,0.041904,0.052099
935,0.031052,0.035327,-0.0090702,0.00046697,0.049797,0.028092,0.051113
936,0.027763,0.04026,-0.0084125,0.0077021,0.061965,0.026119,0.045851
937,0.025461,0.042562,-0.013345,0.012964,0.06065,0.032038,0.038944
938,0.01987,0.040589,-0.019594,0.0093464,0.052099,0.040918,0.032696
939,0.0070443,0.039273,-0.022554,-0.0024928,0.041575,0.042562,0.026447
940,-0.0080836,0.035985,-0.020581,-0.014332,0.035985,0.03434,0.018555
941,-0.015648,0.034669,-0.017621,-0.020909,0.034669,0.021843,0.0080309
942,-0.015319,0.033354,-0.014661,-0.023211,0.034669,0.0054,-0.00019077
943,-0.010386,0.031381,-0.011701,-0.024856,0.033025,-0.010057,-0.002164
944,-0.0024928,0.029078,-0.013017,-0.029789,0.029736,-0.021567,-0.00019077
945,0.0070443,0.028421,-0.01203,-0.035708,0.023817,-0.034393,0.0037556
946,0.017239,0.031381,-0.0077547,-0.036037,0.015266,-0.061031,0.0057288
947,0.026119,0.034998,-0.00051963,-0.030447,0.0080309,-0.10937,0.0060577
948,0.033354,0.039931,0.0054,-0.025185,0.0044134,-0.18469,0.0080309
949,0.036971,0.044535,0.0090175,-0.024856,0.0080309,-0.28269,0.010991
950,0.037958,0.050784,0.0070443,-0.030447,0.014608,-0.39056,0.015266
951,0.039602,0.055059,0.0001381,-0.033406,0.015595,-0.48757,0.020199
952,0.04026,0.056374,-0.0061104,-0.027816,0.010662,-0.554,0.026776
953,0.0373,0.054401,-0.011701,-0.015319,0.00046697,-0.57275,0.036971
954,0.030723,0.048482,-0.013674,-0.0047949,-0.0084125,-0.54052,0.046508
955,0.025132,0.0373,-0.010715,-0.0008485,-0.01203,-0.46356,0.047824
956,0.018884,0.021514,-0.0067681,-0.0018351,-0.010386,-0.36063,0.041247
957,0.01132,0.0037556,-0.0061104,-0.0034794,-0.0077547,-0.24783,0.031052
958,0.0044134,-0.0090702,-0.011372,-0.0028217,-0.0061104,-0.13042,0.025132
959,0.0014536,-0.015648,-0.019265,0.0034268,-0.0054526,-0.019923,0.02875
960,0.00079584,-0.016963,-0.025842,0.010004,-0.0074258,0.076435,0.038287
961,0.0050711,-0.013345,-0.029789,0.017239,-0.0097279,0.15306,0.04618
962,0.011977,-0.0028217,-0.030118,0.023817,-0.0047949,0.20864,0.045193
963,0.020528,0.013951,-0.030118,0.02579,0.0060577,0.24284,0.034998
964,0.026119,0.032367,-0.028802,0.022172,0.020857,0.26027,0.020199
965,0.028421,0.04618,-0.028473,0.01132,0.031709,0.26751,0.0080309
966,0.029078,0.055717,-0.027158,-0.0031506,0.030065,0.26948,0.0001381
967,0.030723,0.065254,-0.023211,-0.013017,0.016581,0.26882,-0.0038083
968,0.029407,0.07512,-0.018278,-0.012688,-0.0011774,0.26257,-0.0047949
969,0.027763,0.080711,-0.01499,-0.0024928,-0.013345,0.25468,-0.0061104
970,0.02579,0.080053,-0.016634,0.012635,-0.016963,0.25205,-0.0084125
971,0.023817,0.073476,-0.020252,0.027763,-0.011372,0.25961,-0.010386
972,0.022501,0.064267,-0.022225,0.036971,-0.0011774,0.26751,-0.011043
973,0.021514,0.055717,-0.019265,0.036971,0.0086887,0.27408,-0.0064392
974,0.021843,0.050455,-0.0093991,0.034998,0.016581,0.27606,0.0030979
975,0.025132,0.049468,0.0083598,0.029407,0.023817,0.27047,0.013293
976,0.032696,0.048153,0.025132,0.024474,0.031381,0.25139,0.018884
977,0.039273,0.045522,0.03434,0.024474,0.036971,0.21883,0.019212
978,0.04322,0.039602,0.04026,0.031709,0.040589,0.17937,0.018555
979,0.043549,0.031052,0.04322,0.037958,0.039602,0.14287,0.020199
980,0.039273,0.018555,0.042233,0.040918,0.033354,0.11524,0.023817
981,0.033025,-0.00019077,0.036642,0.038287,0.020857,0.097483,0.029078
982,0.030723,-0.022883,0.028421,0.036971,0.012306,0.085644,0.035985
983,0.035656,-0.04689,0.018555,0.040918,0.012635,0.074133,0.039273
984,0.040918,-0.06728,0.0090175,0.049139,0.015266,0.062623,0.033354
985,0.040589,-0.079448,0.0011247,0.058676,0.013293,0.056703,0.018555
986,0.030723,-0.079448,-0.0024928,0.0692,0.0030979,0.055388,0.0044134
987,0.012964,-0.070568,0.0017824,0.079395,-0.010057,0.055059,-0.007097
988,-0.0031506,-0.058729,0.011648,0.088275,-0.022554,0.049797,-0.01203
989,-0.0087413,-0.047548,0.01987,0.090577,-0.031433,0.0373,-0.01203
990,-0.0028217,-0.037024,0.01987,0.087288,-0.036366,0.020857,-0.0097279
991,0.0047422,-0.027158,0.013622,0.079395,-0.038011,0.0024402,-0.0093991
992,0.0090175,-0.022883,0.0034268,0.067556,-0.038668,-0.016634,-0.0093991
993,0.010662,-0.02354,-0.0041372,0.056703,-0.040641,-0.035051,-0.0090702
994,0.010991,-0.0265,-0.0054526,0.050455,-0.041957,-0.049192,-0.0087413
995,0.011648,-0.027816,-0.0024928,0.054072,-0.041957,-0.055112,-0.0097279
996,0.0083598,-0.028144,0.0030979,0.066898,-0.040313,-0.054454,-0.0093991
997,0.0011247,-0.032091,0.0044134,0.078409,-0.034393,-0.049521,-0.0087413
998,-0.0057815,-0.035051,-0.00019077,0.081039,-0.02946,-0.045246,-0.010386
999,-0.0084125,-0.036366,-0.0087413,0.076435,-0.025185,-0.042286,-0.01795
1000,-0.0084125,-0.036037,-0.016634,0.070516,-0.022883,-0.039984,-0.028802
1001,-0.0018351,-0.034064,-0.019265,0.062623,-0.027158,-0.037682,-0.038011
1002,0.013622,-0.029131,-0.01499,0.053086,-0.037682,-0.036366,-0.037024
1003,0.032367,-0.022883,-0.0064392,0.045851,-0.049192,-0.036366,-0.027158
1004,0.045522,-0.014332,0.0011247,0.04322,-0.055112,-0.034722,-0.013674
1005,0.048153,-0.0057815,0.0040845,0.044864,-0.051165,-0.033078,-0.0024928
1006,0.038944,0.0014536,0.0011247,0.049797,-0.040313,-0.030447,0.0030979
1007,0.020528,0.0080309,-0.0080836,0.054072,-0.027487,-0.028473,0.0057288
1008,0.00079584,0.012964,-0.021567,0.052757,-0.015648,-0.028802,0.0057288
1009,-0.012688,0.01691,-0.033735,0.045522,-0.0051238,-0.033735,0.0073732
1010,-0.019594,0.019541,-0.038997,0.034998,0.00079584,-0.040641,0.0044134
1011,-0.020909,0.023817,-0.036037,0.024474,0.00046697,-0.047877,0.00079584
1012,-0.022225,0.02875,-0.029789,0.019541,-0.0034794,-0.048534,0.00079584
1013,-0.027487,0.032038,-0.023211,0.021186,-0.0080836,-0.040641,0.0044134
1014,-0.034064,0.027763,-0.018936,0.028421,-0.011701,-0.027487,0.010333
1015,-0.040313,0.019212,-0.018278,0.036642,-0.012688,-0.018278,0.016253
1016,-0.045574,0.012635,-0.019594,0.039602,-0.011372,-0.020252,0.025132
1017,-0.04985,0.013951,-0.018936,0.032367,-0.0067681,-0.03242,0.033354
1018,-0.049521,0.018555,-0.01795,0.019212,-0.00019077,-0.044917,0.0373
1019,-0.045903,0.020528,-0.018278,0.0047422,0.0070443,-0.057414,0.041247
1020,-0.039984,0.016253,-0.021567,-0.0057815,0.010004,-0.066293,0.051113
1021,-0.032749,0.0096753,-0.023211,-0.011043,0.0083598,-0.070568,0.061307
1022,-0.026171,0.0030979,-0.020581,-0.016634,0.0030979,-0.074186,0.061636
1023,-0.02354,-0.0015062,-0.014332,-0.024856,-0.004466,-0.078132,0.049468
1024,-0.028802,-0.0015062,-0.0074258,-0.036366,-0.013017,-0.081421,0.032696
1025,-0.037353,0.0017824,0.0044134,-0.04393,-0.020909,-0.082736,0.01691
1026,-0.04097,0.0054,0.016253,-0.042615,-0.024856,-0.082736,0.0073732
1027,-0.035051,0.0096753,0.024474,-0.037682,-0.028144,-0.080763,0.0080309
1028,-0.025514,0.013951,0.026119,-0.032091,-0.027158,-0.07287,0.017568
1029,-0.013674,0.018884,0.021514,-0.029789,-0.019594,-0.058071,0.027763
1030,-0.0061104,0.022501,0.012635,-0.029131,-0.004466,-0.044259,0.034669
1031,-0.0018351,0.020199,0.0034268,-0.031433,0.010662,-0.035051,0.03434
1032,-0.0031506,0.014937,0.00079584,-0.03538,0.02283,-0.031433,0.030394
1033,-0.0067681,0.012306,0.0040845,-0.045246,0.030394,-0.026171,0.026447
1034,-0.013674,0.01132,0.011648,-0.060373,0.034011,-0.011372,0.022501
1035,-0.024527,0.010991,0.021186,-0.07287,0.033683,0.011648,0.016253
1036,-0.034393,0.015595,0.026447,-0.074844,0.027105,0.04026,0.0080309
1037,-0.038997,0.025132,0.026776,-0.065307,0.019212,0.069529,-0.0008485
1038,-0.038011,0.036971,0.026119,-0.05281,0.016253,0.092221,-0.007097
1039,-0.02946,0.04618,0.027434,-0.045574,0.017897,0.10538,-0.011043
1040,-0.017621,0.050784,0.029078,-0.046232,0.019541,0.10899,-0.0077547
1041,-0.007097,0.052757,0.029407,-0.051823,0.015924,0.10209,0.0024402
1042,-0.002164,0.053415,0.029078,-0.056098,0.0063866,0.086959,0.016581
1043,-0.0031506,0.056703,0.02579,-0.053796,0.0014536,0.06624,0.027434
1044,-0.0093991,0.061965,0.019212,-0.043272,0.010662,0.049797,0.033354
1045,-0.014003,0.065583,0.0067154,-0.028144,0.028092,0.039931,0.033025
1046,-0.014003,0.062623,-0.0077547,-0.014332,0.047824,0.030723,0.031052
1047,-0.010057,0.052428,-0.01795,-0.0077547,0.059334,0.019541,0.025461
1048,-0.0061104,0.037629,-0.022554,-0.0093991,0.055388,0.0050711,0.020199
1049,-0.0038083,0.024145,-0.020252,-0.015648,0.038287,-0.0061104,0.017897
1050,-0.0008485,0.013293,-0.012688,-0.017621,0.020857,-0.011701,0.023159
1051,0.0024402,0.0047422,-0.0054526,-0.01499,0.012635,-0.010057,0.034011
1052,0.0037556,-0.0041372,-0.0015062,-0.0057815,0.015924,-0.0057815,0.04322
1053,0.0047422,-0.012688,-0.0038083,0.0067154,0.023817,0.002769,0.047166
1054,0.0057288,-0.020252,-0.0097279,0.012306,0.030065,0.013293,0.044864
1055,0.0057288,-0.024856,-0.016634,0.0090175,0.026776,0.021514,0.039602
1056,-0.00051963,-0.028802,-0.026171,0.0001381,0.016253,0.025461,0.033354
1057,-0.011701,-0.036695,-0.031104,-0.0087413,0.0030979,0.023817,0.027763
1058,-0.022225,-0.045903,-0.029789,-0.014332,-0.0057815,0.017568,0.024145
1059,-0.028473,-0.052152,-0.021567,-0.012359,-0.007097,0.0030979,0.02283
1060,-0.02946,-0.04985,-0.012688,-0.0031506,-0.0051238,-0.01795,0.022501
1061,-0.024527,-0.038339,-0.0047949,0.0030979,-0.0011774,-0.038011,0.020199
1062,-0.017621,-0.022554,-0.0038083,0.0070443,0.0047422,-0.056427,0.017239
1063,-0.012359,-0.0087413,-0.0064392,0.0073732,0.0073732,-0.072542,0.017239
1064,-0.013674,0.0001381,-0.011043,0.0037556,0.0021113,-0.087012,0.016253
1065,-0.015976,0.0024402,-0.014003,-0.0041372,-0.010715,-0.095233,0.012635
1066,-0.015319,-0.0015062,-0.014003,-0.014003,-0.022883,-0.094247,0.0030979
1067,-0.0090702,-0.010715,-0.010057,-0.021567,-0.028144,-0.087998,-0.0047949
1068,0.0044134,-0.020581,-0.0074258,-0.015319,-0.028144,-0.07583,-0.0067681
1069,0.018884,-0.030118,-0.0067681,0.002769,-0.025842,-0.062018,0.00046697
1070,0.029736,-0.036695,-0.0067681,0.025461,-0.025185,-0.048863,0.01132
1071,0.034998,-0.04097,-0.0064392,0.043877,-0.027487,-0.039655,0.021186
1072,0.034669,-0.044588,-0.0087413,0.05177,-0.028473,-0.033735,0.022172
1073,0.029736,-0.047548,-0.014332,0.047824,-0.024198,-0.034064,0.017239
1074,0.020857,-0.053467,-0.019265,0.036642,-0.015648,-0.037682,0.01132
1075,0.010662,-0.060045,-0.021567,0.025132,-0.0067681,-0.042944,0.0090175
1076,0.0044134,-0.063004,-0.022554,0.017897,-0.0008485,-0.044588,0.0047422
1077,0.0037556,-0.06136,-0.019923,0.014937,-0.00051963,-0.041957,0.0021113
1078,0.0054,-0.055112,-0.013345,0.013293,-0.0057815,-0.034064,0.00046697
1079,0.0060577,-0.047548,-0.0038083,0.0096753,-0.016634,-0.022554,-0.0041372
1080,0.0057288,-0.04097,0.0070443,0.0057288,-0.027487,-0.0080836,-0.013674
1081,0.0086887,-0.037353,0.016253,0.0001381,-0.034064,0.0086887,-0.024856
1082,0.014608,-0.033735,0.021843,-0.002164,-0.034064,0.025132,-0.033735
1083,0.020199,-0.029131,0.025461,0.0014536,-0.033078,0.040918,-0.04393
1084,0.021843,-0.020909,0.027434,0.012635,-0.033078,0.053415,-0.050507
1085,0.015266,-0.01203,0.029407,0.028421,-0.034393,0.061636,-0.051165
1086,0.0063866,-0.0064392,0.029078,0.041575,-0.03538,0.062294,-0.046232
1087,0.0001381,-0.0067681,0.028092,0.048153,-0.034064,0.053086,-0.038339
1088,-0.002164,-0.012688,0.026119,0.048153,-0.029789,0.036971,-0.032091
1089,0.00046697,-0.016963,0.024474,0.042891,-0.027816,0.017568,-0.030447
1090,0.0090175,-0.013674,0.021514,0.036971,-0.02946,0.0034268,-0.03242
1091,0.020528,-0.0041372,0.017239,0.031052,-0.02946,-0.0054526,-0.035051
1092,0.030394,0.0080309,0.014608,0.026447,-0.024856,-0.010715,-0.031762
1093,0.036971,0.018884,0.013622,0.02283,-0.016634,-0.011372,-0.023211
1094,0.039602,0.028092,0.011977,0.019541,-0.0084125,-0.011701,-0.015319
1095,0.038287,0.035985,0.010333,0.015595,-0.0034794,-0.013017,-0.014661
1096,0.035985,0.039931,0.0090175,0.012306,-0.00019077,-0.014332,-0.019594
1097,0.032367,0.0373,0.0070443,0.011648,0.0011247,-0.011372,-0.022883
1098,0.027434,0.02875,0.0014536,0.012964,-0.0024928,-0.0028217,-0.021567
1099,0.022501,0.017239,-0.0051238,0.014608,-0.0084125,0.0067154,-0.017292
1100,0.019541,0.010004,-0.011043,0.013951,-0.014003,0.017568,-0.013017
1101,0.01987,0.0093464,-0.013017,0.010333,-0.014661,0.023817,-0.0084125
1102,0.021514,0.012635,-0.010715,0.0050711,-0.013017,0.02579,-0.0018351
1103,0.021514,0.016581,-0.002164,-0.0024928,-0.010057,0.025461,0.0090175
1104,0.017897,0.020857,0.0077021,-0.014661,-0.0084125,0.024145,0.022172
1105,0.01132,0.024474,0.012964,-0.025514,-0.015319,0.024474,0.028421
1106,0.0054,0.028092,0.015595,-0.027816,-0.0265,0.022501,0.026776
1107,0.0030979,0.033683,0.015924,-0.015319,-0.029131,0.014937,0.02283
1108,0.0054,0.044206,0.013951,0.0060577,-0.022883,0.0050711,0.020857
1109,0.0086887,0.060321,0.010991,0.025461,-0.011043,-0.0061104,0.021514
1110,0.0057288,0.075449,0.01132,0.035327,0.0014536,-0.013345,0.020199
1111,-0.0054526,0.085644,0.014937,0.033683,0.0054,-0.016634,0.018884
1112,-0.020581,0.087617,0.021186,0.027763,0.0024402,-0.013674,0.01987
1113,-0.029789,0.083999,0.024474,0.021843,-0.0008485,-0.0074258,0.020528
1114,-0.027816,0.07808,0.024145,0.01691,-0.0018351,-0.0008485,0.018226
1115,-0.016963,0.071502,0.018226,0.018884,0.0024402,0.0017824,0.012306
1116,-0.0024928,0.06361,0.010662,0.022172,0.0067154,0.002769,0.002769
1117,0.0073732,0.059663,0.0054,0.02283,0.011977,0.0057288,-0.007097
1118,0.010004,0.059992,0.0017824,0.020199,0.017897,0.0096753,-0.011372
1119,0.0096753,0.063281,0.00079584,0.013951,0.020857,0.013622,-0.0084125
1120,0.0063866,0.063281,0.0011247,0.0047422,0.018555,0.015595,-0.0061104
1121,0.0014536,0.06065,0.00046697,-0.0057815,0.015266,0.014937,-0.0093991
1122,-0.0015062,0.06065,-0.0024928,-0.016634,0.010991,0.013293,-0.013017
1123,-0.002164,0.066569,-0.007097,-0.021238,0.0060577,0.012635,-0.011372
1124,0.00079584,0.071173,-0.011372,-0.018936,-0.0011774,0.014279,-0.0034794
1125,0.0014536,0.070516,-0.014003,-0.010715,-0.0077547,0.017897,0.0096753
1126,-0.0018351,0.065912,-0.014332,-0.0011774,-0.011372,0.023488,0.024474
1127,-0.004466,0.059005,-0.012359,0.0030979,-0.013674,0.032038,0.035656
1128,-0.0087413,0.049139,-0.011701,-0.0008485,-0.014003,0.037629,0.040918
1129,-0.014332,0.036971,-0.012359,-0.0084125,-0.010057,0.039931,0.041904
1130,-0.020581,0.027763,-0.014003,-0.015976,-0.0051238,0.037629,0.041575
1131,-0.021238,0.021843,-0.015976,-0.019594,-0.004466,0.034011,0.04322
1132,-0.014332,0.019212,-0.016634,-0.018607,-0.0090702,0.032696,0.044206
1133,-0.0024928,0.017239,-0.014332,-0.016963,-0.01499,0.032367,0.037629
1134,0.0080309,0.013951,-0.0093991,-0.013674,-0.019265,0.031709,0.027105
1135,0.017239,0.010662,-0.0061104,-0.007097,-0.021896,0.031709,0.012306
1136,0.022501,0.010004,-0.0074258,0.0014536,-0.027816,0.03434,-0.0024928
1137,0.022172,0.012635,-0.013017,0.0047422,-0.03538,0.038287,-0.012359
1138,0.016253,0.012635,-0.021567,0.0054,-0.040313,0.039931,-0.0097279
1139,0.0086887,0.0057288,-0.029789,0.00046697,-0.036366,0.036314,0.0024402
1140,0.0030979,-0.0067681,-0.034722,-0.0077547,-0.022554,0.030723,0.017239
1141,0.0001381,-0.016963,-0.034064,-0.019265,-0.0024928,0.03434,0.026776
1142,-0.00019077,-0.021238,-0.027158,-0.026171,0.017239,0.043877,0.02875
1143,0.0024402,-0.02354,-0.015648,-0.025514,0.032367,0.053743,0.026776
1144,0.0057288,-0.023869,-0.00051963,-0.018607,0.04322,0.058019,0.023159
1145,0.0070443,-0.02354,0.011648,-0.01203,0.047824,0.054401,0.018555
1146,0.0054,-0.026829,0.018884,-0.0084125,0.043877,0.040918,0.013293
1147,0.0030979,-0.030775,0.020199,-0.0077547,0.030065,0.022501,0.0073732
1148,-0.0008485,-0.037353,0.018884,-0.0047949,0.010333,0.0060577,0.0040845
1149,-0.0061104,-0.041628,0.018555,0.00079584,-0.0097279,-0.0064392,0.0060577
1150,-0.015319,-0.045574,0.020528,0.010991,-0.021567,-0.011701,0.0090175
1151,-0.0265,-0.046561,0.022501,0.021186,-0.024198,-0.010386,0.010662
1152,-0.038011,-0.048863,0.023159,0.027763,-0.017621,-0.0067681,0.0096753
1153,-0.045903,-0.04985,0.020528,0.030394,-0.0067681,-0.0087413,0.0060577
1154,-0.050836,-0.050507,0.017897,0.031709,0.002769,-0.016963,0.0040845
1155,-0.049192,-0.047877,0.013622,0.03434,0.0090175,-0.03242,0.0054
1156,-0.039984,-0.043601,0.0080309,0.037629,0.013293,-0.049521,0.0050711
1157,-0.027816,-0.036037,0.00046697,0.040918,0.015924,-0.060045,-0.0008485
1158,-0.016634,-0.02354,-0.0084125,0.042562,0.013293,-0.06136,-0.011701
1159,-0.010715,-0.010057,-0.01795,0.039931,0.0060577,-0.056098,-0.023211
1160,-0.007097,0.002769,-0.027816,0.036314,-0.0047949,-0.048534,-0.030118
1161,-0.0018351,0.011977,-0.031762,0.032367,-0.016634,-0.044259,-0.030775
1162,0.0070443,0.018555,-0.032749,0.028421,-0.025842,-0.045574,-0.025842
1163,0.014608,0.018226,-0.031762,0.025461,-0.028802,-0.04985,-0.024198
1164,0.019212,0.0077021,-0.026829,0.023488,-0.027816,-0.053138,-0.022225
1165,0.019541,-0.0080836,-0.017292,0.025132,-0.028473,-0.051494,-0.016305
1166,0.017239,-0.021567,-0.0061104,0.029407,-0.029131,-0.046561,-0.0008485
1167,0.013951,-0.031433,0.0030979,0.033683,-0.028144,-0.041299,0.022172
1168,0.011977,-0.039326,0.0080309,0.034998,-0.0265,-0.039984,0.039273
1169,0.0070443,-0.050836,0.0096753,0.031381,-0.030775,-0.04097,0.044206
1170,0.0001381,-0.067937,0.010662,0.024474,-0.037353,-0.043601,0.038616
1171,-0.0087413,-0.087012,0.011648,0.017568,-0.040641,-0.049521,0.02875
1172,-0.018278,-0.10115,0.0083598,0.013293,-0.033735,-0.052481,0.019212
1173,-0.025842,-0.10872,0.0001381,0.013293,-0.022554,-0.05281,0.012306
1174,-0.025514,-0.1097,-0.0090702,0.013293,-0.011372,-0.048205,0.0090175
1175,-0.016634,-0.10641,-0.01795,0.013293,-0.0057815,-0.042286,0.010991
1176,-0.0057815,-0.097207,-0.022225,0.015266,-0.0047949,-0.038668,0.018226
1177,0.0021113,-0.075501,-0.019923,0.020528,-0.0047949,-0.038339,0.028092
1178,0.0063866,-0.042944,-0.014003,0.02283,-0.0034794,-0.039655,0.036314
1179,0.0080309,-0.010386,-0.0090702,0.020528,-0.0047949,-0.036037,0.042233
1180,0.0080309,0.01132,-0.007097,0.015266,-0.0064392,-0.023869,0.046508
1181,0.0083598,0.021514,-0.004466,0.0077021,-0.0067681,-0.0061104,0.047166
1182,0.01132,0.027763,-0.0011774,0.00079584,-0.0038083,0.011648,0.038287
1183,0.017239,0.035985,0.0011247,-0.0031506,0.0014536,0.023159,0.022172
1184,0.023159,0.048153,-0.0018351,-0.007097,0.0063866,0.024803,0.0054
1185,0.028092,0.061307,-0.0080836,-0.0097279,0.0093464,0.017897,-0.0024928
1186,0.030394,0.06624,-0.015648,-0.0047949,0.012306,0.0037556,-0.0015062
1187,0.026776,0.06065,-0.019923,0.0017824,0.013293,-0.0080836,0.0040845
1188,0.017897,0.048482,-0.022554,0.0017824,0.012635,-0.016634,0.0073732
1189,0.0093464,0.04026,-0.023869,-0.0054526,0.0096753,-0.018278,0.0063866
1190,-0.0011774,0.036314,-0.022225,-0.01499,0.0057288,-0.018278,-0.0011774
1191,-0.010386,0.033025,-0.020581,-0.018936,-0.0015062,-0.018936,-0.013017
1192,-0.014332,0.027763,-0.015976,-0.015976,-0.0097279,-0.018278,-0.02354
1193,-0.0057815,0.025132,-0.011043,-0.0080836,-0.014332,-0.01203,-0.030447
1194,0.012964,0.030394,-0.0074258,-0.0011774,-0.015976,-0.00019077,-0.030118
1195,0.029407,0.041247,-0.007097,0.002769,-0.014661,0.0070443,-0.023211
1196,0.034998,0.052099,-0.0090702,0.0014536,-0.018607,0.0073732,-0.014661
1197,0.033025,0.058019,-0.0090702,-0.0024928,-0.023869,0.00046697,-0.0067681
1198,0.026447,0.059334,-0.007097,-0.0051238,-0.028473,-0.0080836,-0.0057815
1199,0.017568,0.059334,-0.0057815,-0.0051238,-0.024856,-0.017292,-0.0084125
1200,0.0070443,0.059005,-0.0064392,-0.0011774,-0.015319,-0.023869,-0.0080836
1201,-0.0018351,0.061636,-0.01203,0.0044134,-0.0034794,-0.028473,-0.0087413
1202,-0.0061104,0.069858,-0.018607,0.010991,0.0077021,-0.034064,-0.0074258
1203,-0.0041372,0.076764,-0.021238,0.018555,0.016581,-0.036366,-0.0028217
1204,0.0014536,0.07808,-0.017292,0.025132,0.021843,-0.031433,0.0034268
1205,0.0080309,0.070845,-0.0093991,0.032367,0.025461,-0.018607,0.014608
1206,0.014279,0.058348,0.00079584,0.042891,0.029078,0.0001381,0.026776
1207,0.014279,0.045522,0.0093464,0.050455,0.031381,0.018555,0.034669
1208,0.0090175,0.038944,0.015595,0.052428,0.033025,0.029736,0.033025
1209,0.0017824,0.038287,0.020199,0.049139,0.034998,0.029078,0.02283
1210,-0.0008485,0.040918,0.023159,0.047824,0.039931,0.015266,0.010333
1211,0.0030979,0.043549,0.024474,0.047495,0.047495,-0.0018351,-0.00019077
1212,0.0096753,0.043549,0.021514,0.045851,0.054401,-0.016305,-0.0034794
1213,0.016581,0.039602,0.017568,0.038944,0.059663,-0.024527,-0.00051963
1214,0.022501,0.029407,0.013951,0.031381,0.06624,-0.025842,0.0077021
1215,0.023817,0.0090175,0.013951,0.025461,0.067556,-0.022554,0.017568
1216,0.017897,-0.020581,0.013622,0.021514,0.062294,-0.013674,0.025461
1217,0.0054,-0.052481,0.015595,0.022172,0.055059,-0.0041372,0.023817
1218,-0.0093991,-0.079119,0.01691,0.029078,0.050126,0.0054,0.015595
1219,-0.02354,-0.091287,0.015924,0.036314,0.045851,0.01132,0.0063866
1220,-0.034722,-0.086354,0.014608,0.038287,0.042233,0.014279,-0.0008485
1221,-0.041628,-0.069253,0.013622,0.033683,0.037958,0.015924,-0.004466
1222,-0.043272,-0.049192,0.012635,0.026119,0.0373,0.012306,-0.0047949
1223,-0.039326,-0.031762,0.010004,0.018226,0.042233,0.0037556,-0.0028217
1224,-0.02946,-0.020909,0.011977,0.010333,0.046837,-0.007097,0.00079584
1225,-0.018936,-0.01795,0.017239,0.0063866,0.045851,-0.016305,0.0067154
1226,-0.0097279,-0.020581,0.020857,0.0090175,0.042891,-0.016634,0.013622
1227,-0.0015062,-0.024856,0.017239,0.022172,0.037958,-0.010715,0.020528
1228,0.0054,-0.0265,0.0063866,0.034998,0.032367,0.0001381,0.028092
1229,0.0080309,-0.023869,-0.0064392,0.04322,0.028092,0.012306,0.036971
1230,0.0080309,-0.018278,-0.015319,0.044864,0.019541,0.017897,0.044206
1231,0.011977,-0.013345,-0.018278,0.044864,0.0096753,0.015266,0.045193
1232,0.022501,-0.010386,-0.016963,0.046508,0.0014536,0.011977,0.041904
1233,0.035656,-0.0090702,-0.012688,0.047166,-0.00019077,0.013622,0.037629
1234,0.041904,-0.0041372,-0.0087413,0.042891,0.0030979,0.020199,0.031709
1235,0.036642,0.0047422,-0.0084125,0.031381,0.0024402,0.029736,0.018555
1236,0.020199,0.017239,-0.011701,0.012964,-0.0031506,0.038616,0.00046697
1237,0.0030979,0.027434,-0.016963,-0.0041372,-0.011701,0.04618,-0.014332
1238,-0.0061104,0.034011,-0.020252,-0.013674,-0.019923,0.052428,-0.020252
1239,-0.0067681,0.0373,-0.020909,-0.015976,-0.026829,0.052428,-0.015976
1240,-0.00019077,0.04026,-0.018936,-0.013674,-0.031762,0.044864,-0.0041372
1241,0.01132,0.048482,-0.016963,-0.010386,-0.03538,0.032038,0.0057288
1242,0.025461,0.055717,-0.01795,-0.0077547,-0.035051,0.015595,0.010004
1243,0.041904,0.059334,-0.019923,-0.0047949,-0.033078,-0.0011774,0.0080309
1244,0.061307,0.057361,-0.019923,-0.0024928,-0.032749,-0.011372,0.0034268
1245,0.073804,0.046837,-0.015648,-0.0011774,-0.037024,-0.017621,0.0030979
1246,0.070516,0.028092,-0.010715,-0.0028217,-0.043272,-0.022554,0.0093464
1247,0.048482,0.00046697,-0.0093991,-0.010057,-0.045903,-0.02946,0.017239
1248,0.015266,-0.033406,-0.010386,-0.018278,-0.042615,-0.038668,0.021843
1249,-0.01795,-0.068924,-0.007097,-0.025842,-0.034064,-0.050179,0.023488
1250,-0.044917,-0.099509,-0.00019077,-0.0265,-0.022225,-0.067937,0.022172
1251,-0.062347,-0.12056,0.0044134,-0.020581,-0.0097279,-0.087669,0.021186
1252,-0.066622,-0.12779,0.0024402,-0.012688,-0.0008485,-0.1051,0.01987
1253,-0.061689,-0.11924,-0.0018351,-0.010715,0.00079584,-0.11793,0.020528
1254,-0.050507,-0.099838,-0.0061104,-0.01499,-0.0031506,-0.12483,0.022501
1255,-0.038011,-0.077146,-0.0077547,-0.020909,-0.011043,-0.1268,0.023817
1256,-0.026171,-0.053467,-0.0041372,-0.021896,-0.016305,-0.12779,0.021514
1257,-0.019923,-0.031104,0.0054,-0.016305,-0.019594,-0.12483,0.017568
1258,-0.020581,-0.013345,0.018555,-0.0093991,-0.022225,-0.11529,0.01132
1259,-0.022554,-0.0028217,0.027434,-0.0054526,-0.020252,-0.10082,0.0070443
1260,-0.02354,0.0024402,0.029078,-0.0097279,-0.013017,-0.080763,0.0047422
1261,-0.020252,0.0060577,0.021514,-0.022225,-0.0018351,-0.060702,0.0017824
1262,-0.013017,0.013293,0.0080309,-0.033078,0.0083598,-0.042944,-0.0034794
1263,-0.0038083,0.024803,-0.0041372,-0.036366,0.011648,-0.027158,-0.0097279
1264,0.0017824,0.039931,-0.011701,-0.034064,0.0070443,-0.0093991,-0.01795
1265,0.0001381,0.056703,-0.015319,-0.031433,-0.0008485,0.017897,-0.027816
1266,-0.010386,0.071831,-0.016634,-0.031433,-0.0057815,0.055717,-0.030447
1267,-0.022554,0.083999,-0.014332,-0.029789,-0.0054526,0.09551,-0.021896
1268,-0.031433,0.092221,-0.010386,-0.026829,-0.0061104,0.12971,-0.0051238
1269,-0.036037,0.09255,-0.004466,-0.025514,-0.010057,0.15734,0.010004
1270,-0.03538,0.085644,0.00079584,-0.025514,-0.014661,0.18726,0.022172
1271,-0.030447,0.076435,0.0037556,-0.024198,-0.01499,0.22443,0.031052
1272,-0.020581,0.070516,0.0067154,-0.021896,-0.010715,0.26882,0.038944
1273,-0.010057,0.064267,0.0096753,-0.019265,-0.0038083,0.31717,0.045851
1274,-0.0057815,0.058019,0.015266,-0.01795,0.0024402,0.35926,0.050126
1275,-0.010057,0.05473,0.018555,-0.014332,0.0057288,0.38261,0.050126
1276,-0.021238,0.059663,0.017568,-0.0090702,0.0073732,0.38228,0.050126
1277,-0.032091,0.071173,0.013951,-0.0011774,0.0047422,0.35433,0.051113
1278,-0.038339,0.08367,0.0093464,0.0044134,-0.0024928,0.30039,0.049468
1279,-0.038668,0.088275,0.0054,0.0080309,-0.013017,0.23265,0.038944
1280,-0.033406,0.083342,0.0047422,0.0086887,-0.024198,0.1626,0.023488
1281,-0.028802,0.073147,0.0044134,0.0057288,-0.031433,0.1011,0.011648
1282,-0.031104,0.065912,0.0024402,0.0011247,-0.03538,0.056046,0.0073732
1283,-0.037353,0.065583,-0.002164,-0.0031506,-0.037353,0.026776,0.01132
1284,-0.04097,0.068543,-0.0038083,-0.012688,-0.042615,0.010004,0.016581
1285,-0.034722,0.072489,-0.0038083,-0.029131,-0.047877,-0.0024928,0.013951
1286,-0.020909,0.079724,-0.0028217,-0.045903,-0.047219,-0.016963,0.0030979
1287,-0.0038083,0.088275,-0.0051238,-0.054783,-0.040641,-0.036366,-0.011701
1288,0.0093464,0.094523,-0.0077547,-0.051165,-0.028802,-0.060045,-0.024856
1289,0.017897,0.09551,-0.0084125,-0.038339,-0.015319,-0.080763,-0.032749
1290,0.022501,0.091563,-0.0034794,-0.02354,-0.0064392,-0.091945,-0.033735
1291,0.023817,0.08367,0.0030979,-0.013345,-0.004466,-0.09326,-0.032749
1292,0.017568,0.074462,0.0080309,-0.0077547,-0.0057815,-0.091945,-0.0265
1293,0.0060577,0.065912,0.010662,-0.0047949,-0.01203,-0.095233,-0.013345
1294,-0.0041372,0.058348,0.011977,0.0017824,-0.027816,-0.10346,0.002769
1295,-0.0090702,0.050126,0.0093464,0.0070443,-0.045903,-0.11135,0.012306
1296,-0.0038083,0.036971,0.0011247,0.010662,-0.059716,-0.11036,0.010991
1297,0.0070443,0.017897,-0.0077547,0.01132,-0.061689,-0.097207,0.0021113
1298,0.017897,-0.0034794,-0.014332,0.010662,-0.052152,-0.081421,-0.010715
1299,0.026447,-0.02354,-0.013017,0.0096753,-0.035051,-0.072213,-0.024856
1300,0.029407,-0.038011,-0.0074258,0.012306,-0.019594,-0.068266,-0.036037
1301,0.028092,-0.048205,-0.00019077,0.019212,-0.0074258,-0.066622,-0.040313
1302,0.023488,-0.056427,0.0040845,0.02579,-0.0028217,-0.062347,-0.038997
1303,0.01691,-0.070897,0.0047422,0.028092,-0.0028217,-0.057743,-0.030775
1304,0.0067154,-0.092931,0.0014536,0.025132,-0.0064392,-0.054783,-0.020581
1305,-0.0084125,-0.12352,-0.0028217,0.021186,-0.010057,-0.056427,-0.011372
1306,-0.026171,-0.1564,-0.0080836,0.019212,-0.013017,-0.06136,-0.0041372
1307,-0.041628,-0.18469,-0.018278,0.021514,-0.014661,-0.064649,0.00079584
1308,-0.051823,-0.20277,-0.030447,0.030723,-0.01795,-0.06432,0.0001381
1309,-0.05281,-0.20244,-0.041299,0.038287,-0.023211,-0.064978,-0.0038083
1310,-0.041957,-0.18699,-0.046561,0.042562,-0.029131,-0.06728,-0.0067681
1311,-0.023869,-0.16232,-0.045903,0.043549,-0.032091,-0.06728,-0.004466
1312,-0.0084125,-0.13371,-0.040313,0.042233,-0.02946,-0.062347,-0.0024928
1313,-0.0018351,-0.1051,-0.034722,0.038616,-0.028802,-0.05281,-0.0038083
1314,-0.002164,-0.074844,-0.030447,0.032367,-0.034064,-0.047548,-0.0084125
1315,-0.0034794,-0.046561,-0.024856,0.026447,-0.040641,-0.049192,-0.0097279
1316,0.00079584,-0.022883,-0.01795,0.022501,-0.041299,-0.057743,-0.0054526
1317,0.013622,-0.010715,-0.011372,0.023817,-0.038339,-0.065307,-0.0011774
1318,0.02579,-0.0097279,-0.0064392,0.028421,-0.033735,-0.067609,-0.0018351
1319,0.033354,-0.013345,-0.0024928,0.03434,-0.030118,-0.060702,-0.007097
1320,0.035985,-0.015648,0.0024402,0.040918,-0.025842,-0.045903,-0.011043
1321,0.036314,-0.014003,0.010004,0.044535,-0.020581,-0.022883,-0.013017
1322,0.037958,-0.010057,0.016253,0.041904,-0.018936,0.0037556,-0.013017
1323,0.038944,-0.0038083,0.017897,0.033025,-0.024527,0.026447,-0.012688
1324,0.036971,0.0021113,0.016581,0.021514,-0.03242,0.0373,-0.010715
1325,0.035656,0.010662,0.013293,0.012306,-0.041628,0.033025,-0.0054526
1326,0.033354,0.019541,0.011977,0.0063866,-0.046232,0.023488,0.0001381
1327,0.036971,0.029736,0.011977,0.0037556,-0.042615,0.016581,0.0067154
1328,0.043549,0.040918,0.01132,0.002769,-0.034064,0.01691,0.012635
1329,0.052757,0.047824,0.0080309,0.0034268,-0.024527,0.021514,0.017568
1330,0.057361,0.052099,0.002769,0.0001381,-0.017621,0.028092,0.022501
1331,0.058019,0.053743,-0.0028217,-0.0090702,-0.0087413,0.030723,0.027105
1332,0.057361,0.055717,-0.010057,-0.019923,-0.0011774,0.029736,0.027763
1333,0.055059,0.055717,-0.015648,-0.0265,0.0001381,0.029078,0.023817
1334,0.050455,0.054401,-0.015648,-0.026171,-0.0038083,0.030723,0.014608
1335,0.044206,0.053415,-0.010057,-0.01795,-0.0080836,0.035327,0.0040845
1336,0.039602,0.054072,-0.0011774,-0.0024928,-0.011701,0.037629,-0.0051238
1337,0.035327,0.05769,0.0067154,0.011648,-0.011372,0.041247,-0.0090702
1338,0.032367,0.059992,0.011977,0.016253,-0.0074258,0.042233,-0.007097
1339,0.032038,0.059334,0.016253,0.011648,-0.0018351,0.038944,0.0037556
1340,0.031381,0.055059,0.019212,0.0030979,0.00079584,0.032038,0.022501
1341,0.028421,0.052099,0.018884,-0.0077547,0.00079584,0.015924,0.04322
1342,0.024145,0.05473,0.012964,-0.015648,-0.0011774,-0.015319,0.059992
1343,0.02283,0.065254,0.0040845,-0.019923,0.00079584,-0.056427,0.0692
1344,0.02579,0.075449,-0.0034794,-0.021567,0.0063866,-0.10247,0.071173
1345,0.030394,0.07808,-0.0087413,-0.025514,0.010991,-0.15081,0.067227
1346,0.033354,0.07216,-0.013345,-0.031762,0.013293,-0.21001,0.06065
1347,0.03434,0.061307,-0.016634,-0.036695,0.017897,-0.28631,0.05473
1348,0.034011,0.05177,-0.018278,-0.038339,0.020528,-0.37609,0.050126
1349,0.030723,0.04618,-0.012688,-0.03538,0.021514,-0.46883,0.042233
1350,0.028092,0.042891,-0.00051963,-0.026829,0.01987,-0.54118,0.033354
1351,0.023488,0.039931,0.010991,-0.010386,0.016253,-0.57045,0.024145
1352,0.017239,0.038287,0.018884,0.0060577,0.0093464,-0.53986,0.018884
1353,0.012635,0.041904,0.020857,0.015924,0.0001381,-0.45173,0.020857
1354,0.010662,0.046837,0.017897,0.019212,-0.0080836,-0.32741,0.028421
1355,0.010333,0.048482,0.013622,0.018555,-0.011372,-0.19652,0.036971
1356,0.0083598,0.044206,0.010333,0.018226,-0.010386,-0.074186,0.041247
1357,0.0070443,0.035656,0.0090175,0.016253,-0.0077547,0.035985,0.043549
1358,0.0040845,0.023488,0.0083598,0.013951,-0.00019077,0.13464,0.044864
1359,0.002769,0.013951,0.0086887,0.011648,0.010004,0.21949,0.046837
1360,0.0047422,0.010662,0.0060577,0.010991,0.021186,0.28691,0.049468
1361,0.012306,0.010991,0.002769,0.010991,0.030065,0.33164,0.050126
1362,0.020528,0.010662,0.0021113,0.010004,0.039273,0.35301,0.050126
1363,0.023159,0.0096753,0.0047422,0.0077021,0.047824,0.35795,0.049468
1364,0.023488,0.011977,0.0083598,0.0093464,0.052757,0.35301,0.047495
1365,0.024474,0.015924,0.010004,0.01987,0.058676,0.33986,0.045522
1366,0.024803,0.020199,0.0080309,0.0373,0.06361,0.32078,0.043549
1367,0.018884,0.024145,0.0011247,0.055717,0.063938,0.29283,0.0373
1368,0.0073732,0.023159,-0.0080836,0.068543,0.058676,0.25665,0.027763
1369,-0.0057815,0.015924,-0.012359,0.069529,0.052428,0.21588,0.020857
1370,-0.016634,0.0021113,-0.010386,0.060321,0.045193,0.17312,0.015924
1371,-0.019923,-0.0093991,-0.0097279,0.047495,0.035656,0.13037,0.013951
1372,-0.018278,-0.014661,-0.0090702,0.042562,0.026776,0.090905,0.014937
1373,-0.016963,-0.0087413,-0.010057,0.043877,0.019541,0.061965,0.018555
1374,-0.017621,0.0067154,-0.0093991,0.04881,0.014608,0.044206,0.022501
1375,-0.016634,0.021186,-0.0064392,0.055059,0.01132,0.031709,0.025132
1376,-0.019265,0.032038,0.0001381,0.059334,0.012306,0.020199,0.021514
1377,-0.025514,0.034011,0.0044134,0.06065,0.015595,0.0096753,0.012964
1378,-0.035708,0.02579,0.0047422,0.056046,0.015595,0.0014536,-0.0015062
1379,-0.044588,0.010991,0.002769,0.046837,0.0096753,-0.0018351,-0.017621
1380,-0.045903,-0.0024928,-0.0028217,0.034998,0.00079584,0.0011247,-0.028473
1381,-0.041299,-0.012359,-0.0087413,0.020528,-0.0061104,0.0034268,-0.036695
1382,-0.031433,-0.018607,-0.011701,0.010333,-0.0057815,0.0021113,-0.043272
1383,-0.020581,-0.019923,-0.010057,0.0073732,-0.0011774,-0.0038083,-0.049192
1384,-0.012688,-0.019923,-0.0018351,0.013293,0.0037556,-0.0084125,-0.051165
1385,-0.010057,-0.022554,0.0073732,0.023817,0.0040845,-0.011372,-0.041299
1386,-0.011372,-0.026829,0.014279,0.034011,0.0017824,-0.01203,-0.020909
1387,-0.013017,-0.031762,0.019212,0.038287,0.00079584,-0.0097279,-0.0024928
1388,-0.014003,-0.036366,0.024145,0.04026,0.002769,-0.0041372,0.0050711
1389,-0.010386,-0.038668,0.027105,0.041575,0.0014536,0.0037556,0.0011247
1390,-0.0015062,-0.040313,0.02875,0.041904,0.00046697,0.013622,-0.007097
1391,0.0090175,-0.044588,0.029078,0.042233,0.002769,0.026119,-0.014332
1392,0.016253,-0.04985,0.027763,0.04026,0.0090175,0.037958,-0.018278
1393,0.016253,-0.054783,0.024145,0.038944,0.016581,0.045193,-0.020581
1394,0.010991,-0.058071,0.01691,0.039602,0.020857,0.052428,-0.022883
1395,0.0057288,-0.059387,0.010333,0.045193,0.020199,0.061307,-0.031104
1396,0.00046697,-0.057414,0.0050711,0.053415,0.020528,0.070187,-0.043601
1397,-0.007097,-0.053796,0.0001381,0.059992,0.02283,0.074462,-0.053467
1398,-0.01499,-0.050179,-0.0031506,0.061636,0.028421,0.072489,-0.051823
1399,-0.017621,-0.045903,-0.004466,0.056046,0.033025,0.064596,-0.043272
1400,-0.015319,-0.045574,-0.0041372,0.048482,0.035656,0.055059,-0.031433
1401,-0.010715,-0.048863,-0.0031506,0.041904,0.037629,0.047166,-0.025842
1402,-0.0064392,-0.055112,-0.0028217,0.036971,0.041575,0.043549,-0.024198
1403,-0.0077547,-0.061031,-0.0011774,0.031709,0.046837,0.040918,-0.024527
1404,-0.015976,-0.062347,0.0001381,0.026776,0.053415,0.041904,-0.024856
1405,-0.025514,-0.053138,-0.0024928,0.01987,0.055388,0.047166,-0.025514
1406,-0.031433,-0.03538,-0.0087413,0.012306,0.053086,0.056046,-0.024198
1407,-0.030775,-0.013345,-0.016634,0.0034268,0.046837,0.064267,-0.018278
1408,-0.028473,0.0040845,-0.02354,-0.004466,0.039931,0.066569,-0.0084125
1409,-0.027816,0.014937,-0.0265,-0.0084125,0.033025,0.058019,0.0044134
1410,-0.025842,0.017897,-0.02354,-0.011043,0.021514,0.044206,0.014937
1411,-0.021896,0.015924,-0.017621,-0.014332,0.0060577,0.029736,0.021186
1412,-0.018607,0.010004,-0.012688,-0.019923,-0.012359,0.018555,0.026776
1413,-0.010057,0.0014536,-0.0093991,-0.024198,-0.026829,0.0083598,0.033354
1414,0.0021113,-0.0084125,-0.004466,-0.025185,-0.032091,-0.0034794,0.037958
1415,0.011648,-0.018936,-0.00019077,-0.020581,-0.031104,-0.014332,0.034669
1416,0.014608,-0.02946,0.0017824,-0.013345,-0.031762,-0.026829,0.024803
1417,0.0090175,-0.038339,0.0017824,-0.0061104,-0.035051,-0.042944,0.014608
1418,-0.00051963,-0.04393,0.00079584,-0.0018351,-0.036695,-0.056098,0.0090175
1419,-0.0061104,-0.041628,0.00046697,-0.0011774,-0.034393,-0.066293,0.01132
1420,-0.0047949,-0.035051,-0.0015062,-0.0038083,-0.030447,-0.07583,0.020857
1421,-0.0018351,-0.027487,-0.0047949,-0.010386,-0.027487,-0.084052,0.031381
1422,-0.0047949,-0.022225,-0.0061104,-0.020252,-0.024527,-0.087341,0.040918
1423,-0.014003,-0.019265,-0.0031506,-0.030447,-0.019594,-0.083065,0.046508
1424,-0.021567,-0.016305,0.0050711,-0.040641,-0.01499,-0.073528,0.050455
1425,-0.025514,-0.010386,0.016253,-0.046561,-0.010715,-0.061031,0.052757
1426,-0.024856,0.00046697,0.026447,-0.049521,-0.0077547,-0.054125,0.048482
1427,-0.022554,0.011648,0.029736,-0.053138,-0.0087413,-0.059058,0.036642
1428,-0.020252,0.022172,0.02579,-0.057414,-0.013345,-0.07287,0.02283
1429,-0.023211,0.029078,0.016581,-0.062676,-0.015648,-0.090629,0.010333
1430,-0.031104,0.030394,0.0044134,-0.068595,-0.014332,-0.10346,-0.0018351
1431,-0.040313,0.025132,-0.0077547,-0.073199,-0.0087413,-0.1074,-0.0067681
1432,-0.047219,0.017897,-0.018278,-0.070897,-0.0018351,-0.097536,-0.004466
1433,-0.051823,0.013293,-0.025842,-0.060702,0.0030979,-0.076159,0.0001381
1434,-0.052481,0.012964,-0.029131,-0.047877,0.0077021,-0.053138,0.0034268
1435,-0.04985,0.019212,-0.028802,-0.033735,0.015595,-0.038011,0.0060577
1436,-0.045903,0.027434,-0.024198,-0.018278,0.023159,-0.034722,0.0086887
1437,-0.041957,0.03434,-0.019923,-0.0015062,0.026119,-0.04097,0.0093464
1438,-0.037682,0.034669,-0.01795,0.010333,0.022172,-0.05281,0.0030979
1439,-0.032749,0.026447,-0.018278,0.012964,0.016253,-0.065307,-0.012359
1440,-0.025842,0.01132,-0.019265,0.0063866,0.0083598,-0.070897,-0.027487
1441,-0.019594,0.0001381,-0.024198,-0.0077547,-0.0051238,-0.065964,-0.037682
1442,-0.015976,0.00046697,-0.031104,-0.021567,-0.021238,-0.054125,-0.041957
1443,-0.016963,0.0096753,-0.03538,-0.031104,-0.037024,-0.041957,-0.040313
1444,-0.017621,0.023488,-0.034064,-0.033406,-0.049192,-0.033406,-0.033078
1445,-0.01499,0.034998,-0.030118,-0.031104,-0.053467,-0.030775,-0.022883
1446,-0.010715,0.04322,-0.022883,-0.028144,-0.045246,-0.02946,-0.012359
1447,-0.0084125,0.045522,-0.020252,-0.027487,-0.026829,-0.025185,-0.007097
1448,-0.0087413,0.043877,-0.02354,-0.026171,-0.0093991,-0.018936,-0.0084125
1449,-0.011043,0.039273,-0.029131,-0.020252,0.00046697,-0.012688,-0.014003
1450,-0.0090702,0.031052,-0.033735,-0.0077547,0.0024402,-0.0090702,-0.018607
1451,0.00046697,0.021843,-0.035051,0.0054,-0.00051963,-0.0084125,-0.018278
1452,0.013622,0.015266,-0.033078,0.011648,-0.0061104,-0.013017,-0.014003
1453,0.023817,0.0093464,-0.026829,0.013293,-0.012688,-0.023869,-0.010057
1454,0.027105,0.0057288,-0.018936,0.012306,-0.021896,-0.034393,-0.0087413
1455,0.02283,0.0047422,-0.010386,0.012964,-0.030775,-0.035708,-0.013017
1456,0.010662,0.0077021,-0.0061104,0.015595,-0.038668,-0.026829,-0.016634
1457,-0.00019077,0.015266,-0.0061104,0.020528,-0.047548,-0.012359,-0.016963
1458,-0.0038083,0.023817,-0.0080836,0.023488,-0.059058,-0.0024928,-0.013017
1459,0.0044134,0.031052,-0.010715,0.018884,-0.069911,-0.0008485,-0.0090702
1460,0.018555,0.037958,-0.011372,0.0063866,-0.077475,-0.0067681,-0.0077547
1461,0.032367,0.042562,-0.0067681,-0.010386,-0.079448,-0.014332,-0.004466
1462,0.04026,0.042233,0.0017824,-0.024527,-0.077803,-0.020252,-0.0015062
1463,0.041247,0.034669,0.015595,-0.023869,-0.073199,-0.019923,0.0037556
1464,0.041247,0.020528,0.031052,-0.0090702,-0.063662,-0.018936,0.0060577
1465,0.041247,0.0057288,0.044206,0.013951,-0.047877,-0.021238,0.0050711
1466,0.038287,-0.0031506,0.047495,0.034011,-0.030775,-0.027816,0.0021113
1467,0.030065,-0.0074258,0.037958,0.04322,-0.017621,-0.033735,0.0014536
1468,0.021514,-0.007097,0.022172,0.042233,-0.013674,-0.032749,0.0034268
1469,0.019541,-0.0038083,0.0073732,0.036314,-0.019923,-0.022554,0.0054
1470,0.029078,0.0040845,-0.004466,0.031709,-0.028802,-0.0074258,0.0011247
1471,0.042562,0.011977,-0.0090702,0.032696,-0.035051,0.0050711,-0.010057
1472,0.049468,0.014279,-0.0084125,0.039273,-0.03538,0.0093464,-0.02354
1473,0.047824,0.010004,-0.0041372,0.046508,-0.030118,0.0040845,-0.034064
1474,0.041247,0.002769,0.0014536,0.049139,-0.022883,-0.0054526,-0.034722
1475,0.033683,-0.0051238,0.0047422,0.045193,-0.015319,-0.014332,-0.020581
1476,0.023488,-0.010715,0.0047422,0.032696,-0.0064392,-0.016305,0.0024402
1477,0.0096753,-0.0097279,0.0014536,0.015595,-0.00051963,-0.010057,0.025461
1478,-0.0061104,-0.0047949,-0.00051963,-0.0015062,-0.002164,0.0011247,0.038616
1479,-0.01795,0.0001381,-0.00019077,-0.007097,-0.011701,0.0090175,0.043549
1480,-0.023869,0.0017824,0.00046697,0.0030979,-0.021238,0.010004,0.045522
1481,-0.026171,0.00079584,0.0001381,0.022172,-0.025842,0.0060577,0.048153
1482,-0.025514,-0.0011774,-0.00051963,0.041575,-0.022883,0.0024402,0.05177
1483,-0.022225,0.0001381,0.0024402,0.05177,-0.01203,0.0021113,0.056703
1484,-0.013674,0.0047422,0.002769,0.051113,0.00079584,0.002769,0.059005
1485,-0.0028217,0.0093464,0.00046697,0.045522,0.0073732,0.0030979,0.057032
1486,0.0037556,0.01132,-0.0011774,0.039273,0.0080309,0.0050711,0.054072
1487,0.0063866,0.0083598,-0.0041372,0.035327,0.0060577,0.010333,0.05473
1488,0.0054,0.0030979,-0.0087413,0.03434,0.0060577,0.014279,0.058676
1489,0.0057288,-0.00051963,-0.012688,0.036314,0.01132,0.015595,0.058676
1490,0.0070443,0.00079584,-0.014661,0.035656,0.018555,0.01987,0.05473
1491,0.0080309,0.0080309,-0.013017,0.034011,0.02283,0.030723,0.048482
1492,0.0077021,0.018884,-0.01203,0.029736,0.024803,0.04322,0.046508
1493,0.0060577,0.030065,-0.010057,0.02579,0.026119,0.052428,0.049468
1494,0.0073732,0.039602,-0.0064392,0.024803,0.025132,0.056046,0.053086
1495,0.012306,0.04618,-0.0031506,0.025132,0.021514,0.053086,0.052757
1496,0.018884,0.050126,-0.0054526,0.026447,0.023159,0.047166,0.046508
1497,0.023817,0.052428,-0.011701,0.026447,0.027105,0.037958,0.035327
1498,0.027763,0.052099,-0.018607,0.022172,0.02875,0.027105,0.023159
1499,0.030723,0.051441,-0.018278,0.014937,0.02283,0.01691,0.015266
1500,0.030065,0.050455,-0.0084125,0.010004,0.0086887,0.012635,0.011977
1501,0.025461,0.048153,0.0047422,0.013293,-0.0057815,0.013951,0.015266
1502,0.017568,0.041904,0.013951,0.023817,-0.015648,0.01987,0.024474
1503,0.010991,0.031052,0.017568,0.0373,-0.020252,0.025132,0.035656
1504,0.0083598,0.018884,0.019212,0.047824,-0.018936,0.032696,0.043877
1505,0.0067154,0.0083598,0.020528,0.049139,-0.012359,0.04322,0.052099
1506,0.0060577,0.0017824,0.022501,0.041575,-0.004466,0.056046,0.059005
1507,0.0047422,0.0001381,0.026119,0.031381,0.002769,0.068214,0.062294
1508,0.0034268,0.0024402,0.028092,0.023159,0.0073732,0.074462,0.058348
1509,0.0011247,0.0086887,0.028092,0.016253,0.012635,0.075449,0.049139
1510,0.0011247,0.016581,0.024803,0.010004,0.017568,0.070845,0.04322
1511,0.0073732,0.023817,0.021186,0.0070443,0.017568,0.061965,0.043549
1512,0.015924,0.031709,0.020199,0.0063866,0.013293,0.048482,0.049139
1513,0.020199,0.041247,0.022501,0.010991,0.0047422,0.027763,0.056703
1514,0.015266,0.050455,0.023817,0.015924,-0.0061104,0.0047422,0.06065
1515,0.0017824,0.059992,0.022172,0.014608,-0.015976,-0.0093991,0.06065
1516,-0.013345,0.066898,0.018884,0.0001381,-0.021238,-0.011372,0.055388
1517,-0.017621,0.070187,0.01691,-0.023869,-0.022554,-0.0038083,0.047166
1518,-0.004466,0.070516,0.01987,-0.051165,-0.022225,0.0077021,0.037629
1519,0.018555,0.068543,0.024474,-0.074186,-0.020252,0.01691,0.028421
1520,0.035656,0.063281,0.025461,-0.088985,-0.020252,0.019541,0.022172
1521,0.04026,0.057032,0.022172,-0.092274,-0.024527,0.016581,0.01691
1522,0.039602,0.049468,0.015595,-0.083065,-0.029131,0.013293,0.014608
1523,0.036971,0.040589,0.0073732,-0.065307,-0.029789,0.016581,0.016253
1524,0.035327,0.031381,-0.00051963,-0.044917,-0.023211,0.031709,0.019212
1525,0.034998,0.02579,-0.0031506,-0.027487,-0.010715,0.051441,0.018555
1526,0.031052,0.026447,-0.0031506,-0.016963,-0.0028217,0.064925,0.016581
1527,0.020857,0.03434,-0.0008485,-0.014003,-0.0018351,0.067885,0.016253
1528,0.0060577,0.046508,0.0017824,-0.013674,-0.0038083,0.062623,0.016253
1529,-0.0090702,0.058348,0.00079584,-0.011043,-0.007097,0.053743,0.01132
1530,-0.018936,0.064267,-0.0038083,-0.0067681,-0.007097,0.047824,0.0014536
1531,-0.019265,0.059663,-0.0087413,-0.0024928,-0.0034794,0.049468,-0.013674
1532,-0.01203,0.043549,-0.013017,-0.0008485,0.0034268,0.05769,-0.028802
1533,-0.0008485,0.022501,-0.01499,0.0011247,0.010662,0.066569,-0.039326
1534,0.0096753,0.0047422,-0.013674,0.0037556,0.014608,0.073147,-0.042944
1535,0.014279,-0.0024928,-0.011701,0.0070443,0.0083598,0.071831,-0.039655
1536,0.013622,0.0001381,-0.011372,0.0073732,-0.0061104,0.061307,-0.033735
1537,0.0060577,0.0040845,-0.012359,0.0077021,-0.020909,0.049468,-0.026171
1538,-0.0028217,0.0047422,-0.011372,0.010662,-0.030775,0.038944,-0.018607
1539,-0.011043,0.0030979,-0.0097279,0.015924,-0.036366,0.030065,-0.016305
1540,-0.019265,0.0001381,-0.0047949,0.021186,-0.038339,0.017239,-0.018936
1541,-0.027158,-0.0074258,0.00079584,0.027105,-0.036695,0.0021113,-0.023869
1542,-0.031762,-0.017621,0.0080309,0.033025,-0.035051,-0.014661,-0.028802
1543,-0.035051,-0.028473,0.014279,0.034011,-0.033406,-0.028144,-0.037682
1544,-0.034064,-0.045246,0.019212,0.030723,-0.031433,-0.032091,-0.047877
1545,-0.032749,-0.06728,0.017897,0.026776,-0.026171,-0.024856,-0.058071
1546,-0.030775,-0.091616,0.01132,0.025132,-0.014332,-0.013345,-0.065307
1547,-0.032749,-0.11431,0.002769,0.027763,-0.00019077,-0.0038083,-0.069253
1548,-0.038339,-0.12911,-0.0031506,0.029078,0.011977,-0.00019077,-0.066951
1549,-0.045246,-0.13404,-0.0067681,0.02875,0.022172,-0.0031506,-0.057743
1550,-0.047219,-0.12976,-0.0077547,0.032696,0.031709,-0.0090702,-0.046561
1551,-0.04393,-0.1199,-0.0077547,0.039931,0.042233,-0.015319,-0.038011
1552,-0.038668,-0.10707,-0.0093991,0.048482,0.054401,-0.024198,-0.032749
1553,-0.031433,-0.095891,-0.012688,0.05473,0.06624,-0.036037,-0.031762
1554,-0.022554,-0.085367,-0.015648,0.055059,0.067556,-0.049521,-0.033078
1555,-0.013345,-0.073857,-0.020252,0.047824,0.057361,-0.060373,-0.032749
1556,-0.007097,-0.063333,-0.026171,0.034669,0.042562,-0.065964,-0.0265
1557,-0.0067681,-0.051823,-0.031104,0.019541,0.031052,-0.06728,-0.019594
1558,-0.015648,-0.041957,-0.03538,0.0093464,0.02875,-0.067609,-0.018278
1559,-0.028802,-0.037353,-0.038668,0.010662,0.034011,-0.067937,-0.020581
1560,-0.038339,-0.038011,-0.038339,0.018884,0.039602,-0.065635,-0.023211
1561,-0.04097,-0.042944,-0.036695,0.026776,0.038616,-0.062018,-0.022554
1562,-0.038339,-0.045574,-0.035051,0.031052,0.027434,-0.060373,-0.017621
1563,-0.032749,-0.044588,-0.03242,0.030065,0.0037556,-0.059716,-0.014332
1564,-0.025514,-0.038997,-0.028802,0.025461,-0.023869,-0.054783,-0.013674
1565,-0.021896,-0.026829,-0.022883,0.018884,-0.045574,-0.043601,-0.016305
1566,-0.022225,-0.011043,-0.011372,0.013951,-0.054783,-0.030118,-0.016305
1567,-0.025842,0.0050711,0.002769,0.010004,-0.050507,-0.018607,-0.016963
1568,-0.027816,0.017239,0.011648,0.0060577,-0.036037,-0.0097279,-0.020581
1569,-0.025842,0.027105,0.0090175,0.0014536,-0.018278,-0.0051238,-0.024198
1570,-0.019923,0.030723,-0.0074258,-0.0041372,-0.0034794,-0.0024928,-0.019923
1571,-0.014003,0.027434,-0.032091,-0.014332,0.0034268,0.0047422,-0.011701
1572,-0.0097279,0.018555,-0.054454,-0.028473,-0.0008485,0.016253,-0.0011774
1573,-0.0067681,0.0096753,-0.066293,-0.038668,-0.0080836,0.025132,0.0077021
1574,-0.0054526,0.0067154,-0.063991,-0.04097,-0.010715,0.028092,0.014608
1575,0.0001381,0.01132,-0.051823,-0.040641,-0.004466,0.02283,0.020528
1576,0.012306,0.018884,-0.038011,-0.036695,0.0096753,0.012306,0.023159
1577,0.024474,0.024145,-0.027487,-0.033078,0.024474,0.0037556,0.021514
1578,0.030723,0.02579,-0.020909,-0.032749,0.033025,-0.0034794,0.015266
1579,0.031381,0.022172,-0.018278,-0.039326,0.029736,-0.0093991,0.0086887
1580,0.031052,0.014608,-0.015648,-0.048205,0.016581,-0.014661,0.0034268
1581,0.029078,0.0083598,-0.01499,-0.053796,0.00079584,-0.022225,0.00079584
1582,0.027434,0.0057288,-0.015976,-0.051823,-0.0074258,-0.031433,-0.00019077
1583,0.027105,0.0080309,-0.016634,-0.042944,-0.0057815,-0.040313,0.0021113
1584,0.029407,0.012635,-0.016634,-0.030775,0.0024402,-0.045246,0.0057288
1585,0.033025,0.017897,-0.01795,-0.025514,0.010991,-0.046232,0.012964
1586,0.033025,0.021186,-0.01795,-0.026171,0.012635,-0.042944,0.02283
1587,0.031381,0.023817,-0.012688,-0.028802,0.0054,-0.041628,0.031381
1588,0.029736,0.024803,-0.0047949,-0.028802,-0.0031506,-0.044259,0.0373
1589,0.032696,0.021843,0.0037556,-0.026171,-0.0087413,-0.046232,0.044864
1590,0.038616,0.018555,0.0086887,-0.019923,-0.0080836,-0.044588,0.053743
1591,0.043877,0.016581,0.0080309,-0.0090702,-0.0080836,-0.039326,0.060321
1592,0.045522,0.017239,0.0030979,-0.00019077,-0.011701,-0.033078,0.061636
1593,0.042233,0.022172,0.0011247,0.0044134,-0.018607,-0.026171,0.058348
1594,0.030723,0.029736,0.00046697,0.0040845,-0.024527,-0.020909,0.055717
1595,0.016581,0.0373,0.00046697,0.00046697,-0.025514,-0.01499,0.05473
1596,0.0080309,0.045522,0.0017824,-0.0061104,-0.019594,-0.0090702,0.05473
1597,0.010333,0.053743,0.0057288,-0.01499,-0.01203,0.00079584,0.053086
1598,0.018226,0.06065,0.013293,-0.025842,-0.0061104,0.012964,0.047495
1599,0.024474,0.06624,0.021186,-0.034064,-0.0067681,0.020857,0.036642
1600,0.021843,0.066898,0.025461,-0.034064,-0.011043,0.018555,0.023817
1601,0.015266,0.064925,0.025461,-0.024856,-0.01203,0.0086887,0.015266
1602,0.0090175,0.061965,0.021843,-0.01499,-0.0097279,-0.0031506,0.014608
1603,0.0050711,0.058348,0.014937,-0.014332,-0.0061104,-0.010057,0.018884
1604,0.0030979,0.055717,0.0086887,-0.019265,-0.0031506,-0.0087413,0.021843
1605,0.0024402,0.055717,0.0050711,-0.025185,-0.0018351,-0.0041372,0.023159
1606,-0.0018351,0.054401,0.0083598,-0.026171,-0.0061104,-0.0054526,0.026776
1607,-0.010057,0.053415,0.014608,-0.018278,-0.012688,-0.010715,0.032367
1608,-0.019594,0.050126,0.020199,-0.0054526,-0.013674,-0.015648,0.039273
1609,-0.028802,0.043549,0.024145,0.010662,-0.0077547,-0.015976,0.041247
1610,-0.03538,0.035656,0.024474,0.027763,0.0021113,-0.011372,0.035327
1611,-0.037353,0.029736,0.020199,0.040918,0.011648,-0.0084125,0.022501
1612,-0.036366,0.022501,0.018226,0.047166,0.018555,-0.010386,0.0086887
1613,-0.030447,0.012964,0.020857,0.04881,0.022172,-0.018607,0.0001381
1614,-0.022225,0.0040845,0.024145,0.045851,0.020857,-0.025842,-0.0008485
1615,-0.015319,-0.0067681,0.024803,0.041247,0.013293,-0.027487,0.0034268
1616,-0.01203,-0.015319,0.024474,0.037629,0.0050711,-0.022883,0.0090175
1617,-0.011701,-0.018278,0.026776,0.037629,-0.00019077,-0.013017,0.015924
1618,-0.011043,-0.020252,0.027434,0.044535,-0.0024928,0.0017824,0.022501
1619,-0.0064392,-0.021238,0.026119,0.052428,-0.0034794,0.015595,0.02579
1620,0.0050711,-0.023211,0.025132,0.052757,-0.0028217,0.018555,0.028092
1621,0.018555,-0.021567,0.027434,0.042562,-0.0024928,0.0090175,0.03434
1622,0.023488,-0.019594,0.032696,0.027434,-0.0034794,-0.0097279,0.039602
1623,0.017239,-0.017621,0.033683,0.013951,-0.0051238,-0.031104,0.038616
1624,0.0054,-0.018607,0.027105,0.0086887,-0.0067681,-0.049192,0.027763
1625,-0.0038083,-0.022225,0.01691,0.012635,-0.0097279,-0.0584,0.015595
1626,-0.0034794,-0.025842,0.0093464,0.022501,-0.01203,-0.051823,0.0080309
1627,0.0070443,-0.027487,0.0090175,0.034669,-0.011701,-0.031104,0.0057288
1628,0.020857,-0.028802,0.014937,0.044864,-0.0067681,-0.010057,-0.00019077
1629,0.03434,-0.031762,0.022172,0.04618,-0.0008485,-0.00051963,-0.0080836
1630,0.042233,-0.035051,0.029078,0.037958,0.0021113,-0.0087413,-0.014661
1631,0.040918,-0.03538,0.031052,0.02579,0.0011247,-0.027487,-0.015976
1632,0.031052,-0.031762,0.030065,0.016253,0.00046697,-0.046232,-0.015976
1633,0.018884,-0.027816,0.023159,0.012635,0.0001381,-0.053796,-0.012688
1634,0.010004,-0.028144,0.014279,0.015266,0.0011247,-0.044588,-0.0077547
1635,0.0063866,-0.031762,0.0057288,0.019212,0.0060577,-0.025514,-0.0024928
1636,0.0054,-0.036695,0.0011247,0.020857,0.012964,-0.007097,0.0057288
1637,0.0037556,-0.04097,0.00046697,0.018884,0.020528,0.0050711,0.014937
1638,0.0017824,-0.042615,0.00079584,0.015266,0.026776,0.0057288,0.021843
1639,-0.00051963,-0.041628,0.0011247,0.010991,0.023817,-0.00051963,0.021843
1640,-0.0024928,-0.038997,-0.00051963,0.0080309,0.012306,-0.0097279,0.013951
1641,-0.0047949,-0.037024,-0.0054526,0.0080309,-0.0051238,-0.019265,0.0040845
1642,-0.0057815,-0.034393,-0.010057,0.0096753,-0.025514,-0.024856,-0.0028217
1643,-0.007097,-0.02946,-0.012688,0.010662,-0.04393,-0.023211,-0.007097
1644,-0.0077547,-0.020581,-0.015648,0.010662,-0.055769,-0.016634,-0.011372
1645,-0.0067681,-0.0087413,-0.01795,0.010333,-0.060045,-0.0077547,-0.014003
1646,-0.0024928,0.0017824,-0.018607,0.010333,-0.059387,-0.0011774,-0.014332
1647,0.0067154,0.010991,-0.015648,0.0083598,-0.051823,0.0034268,-0.013674
1648,0.017897,0.019212,-0.010386,0.0040845,-0.040313,0.0063866,-0.011701
1649,0.024803,0.023817,-0.0051238,-0.00019077,-0.027158,0.013293,-0.0077547
1650,0.026447,0.024474,-0.00051963,-0.0054526,-0.013017,0.026447,-0.00019077
1651,0.021843,0.026119,0.0014536,-0.010057,-0.00051963,0.039602,0.0060577
1652,0.012306,0.033354,0.0014536,-0.012359,0.0077021,0.046837,0.010333
1653,0.00079584,0.046837,0.0030979,-0.012688,0.0077021,0.047166,0.010991
1654,-0.0087413,0.062294,0.0047422,-0.014332,-0.0008485,0.044535,0.0090175
1655,-0.0093991,0.073476,0.0050711,-0.017621,-0.013345,0.044206,0.0083598
1656,0.0011247,0.077751,0.0014536,-0.017621,-0.024198,0.056046,0.010991
1657,0.014937,0.07808,-0.0047949,-0.014003,-0.028473,0.077751,0.014279
1658,0.025461,0.078409,-0.012359,-0.0054526,-0.027816,0.10143,0.015924
1659,0.03434,0.080711,-0.018278,0.0044134,-0.021567,0.11886,0.013951
1660,0.042562,0.085315,-0.020909,0.015924,-0.010386,0.133,0.0096753
1661,0.047824,0.093865,-0.020909,0.023159,0.0011247,0.14122,0.0073732
1662,0.04881,0.10538,-0.017292,0.02579,0.010333,0.14385,0.0090175
1663,0.045851,0.11458,-0.010715,0.027434,0.017568,0.14418,0.019212
1664,0.036642,0.1113,-0.0018351,0.029736,0.026447,0.1478,0.033354
1665,0.023159,0.090248,0.0083598,0.035327,0.036642,0.15635,0.043549
1666,0.0073732,0.058676,0.016253,0.044864,0.044535,0.16753,0.044864
1667,-0.011701,0.022501,0.021514,0.055388,0.047495,0.17279,0.039602
1668,-0.03242,-0.013345,0.021514,0.059992,0.045193,0.16326,0.030394
1669,-0.053138,-0.043272,0.018884,0.05769,0.037629,0.14155,0.022172
1670,-0.066951,-0.06432,0.013951,0.051441,0.029407,0.10899,0.018555
1671,-0.073528,-0.07583,0.010662,0.042233,0.021843,0.073804,0.019541
1672,-0.076817,-0.079777,0.0080309,0.034011,0.015924,0.040589,0.019212
1673,-0.079119,-0.077475,0.0017824,0.026447,0.0096753,0.011648,0.015595
1674,-0.080434,-0.066622,-0.0084125,0.018226,0.0024402,-0.013345,0.0093464
1675,-0.077146,-0.04985,-0.019923,0.0083598,-0.0047949,-0.033406,0.002769
