,channel_1,channel_2,channel_3,channel_4,channel_5,channel_6,channel_7
0,0.0077021,0.0093464,-0.025514,-0.022883,-0.0015062,0.033354,0.017568
1,0.010991,0.013293,-0.024527,-0.013674,0.0044134,0.044864,0.024474
2,0.01132,0.017239,-0.0265,0.0014536,0.0054,0.061965,0.025132
3,0.0083598,0.01691,-0.030447,0.018884,0.002769,0.080053,0.015266
4,0.0021113,0.011977,-0.033406,0.031381,-0.0031506,0.091563,-0.00051963
5,-0.0064392,0.0014536,-0.03242,0.036642,-0.012688,0.093865,-0.013017
6,-0.014332,-0.0093991,-0.030118,0.035985,-0.021567,0.090577,-0.01795
7,-0.021896,-0.016305,-0.026171,0.032696,-0.025185,0.08663,-0.012359
8,-0.024856,-0.019594,-0.02354,0.032038,-0.022225,0.080711,-0.0008485
9,-0.022225,-0.01795,-0.02354,0.03434,-0.016305,0.068871,0.01132
10,-0.019923,-0.012688,-0.022225,0.035327,-0.011372,0.055388,0.022501
11,-0.018278,-0.0067681,-0.017621,0.034998,-0.0077547,0.049797,0.031381
12,-0.016305,-0.0038083,-0.0087413,0.03434,-0.0024928,0.055059,0.040918
13,-0.01203,-0.0090702,0.0011247,0.033683,0.0063866,0.061636,0.049468
14,-0.0061104,-0.018607,0.011648,0.034669,0.017568,0.058676,0.05177
15,-0.0008485,-0.026171,0.018884,0.0373,0.028421,0.047495,0.049468
16,0.0017824,-0.031762,0.023488,0.041904,0.036971,0.032696,0.041904
17,0.0037556,-0.036037,0.023817,0.047824,0.038287,0.01987,0.033025
18,0.0090175,-0.043601,0.019541,0.052428,0.036314,0.0063866,0.021514
19,0.014937,-0.053138,0.010004,0.052757,0.030394,-0.012359,0.010662
20,0.020528,-0.062676,0.0011247,0.051441,0.018884,-0.033078,-0.0011774
21,0.022501,-0.070897,-0.007097,0.047495,0.0034268,-0.051165,-0.013345
22,0.020857,-0.073199,-0.011701,0.042233,-0.014332,-0.063991,-0.022225
23,0.015595,-0.069253,-0.011701,0.038944,-0.030775,-0.070897,-0.024198
24,0.0073732,-0.060702,-0.0067681,0.04026,-0.039655,-0.069253,-0.01795
25,-0.0008485,-0.047877,0.0021113,0.04618,-0.037682,-0.058071,-0.0077547
26,-0.0034794,-0.032749,0.010662,0.056046,-0.027487,-0.042615,-0.0061104
27,-0.00019077,-0.021238,0.016581,0.067885,-0.01499,-0.027158,-0.019594
28,0.0054,-0.018278,0.019541,0.076435,-0.0067681,-0.013017,-0.042944
29,0.01132,-0.02354,0.019212,0.079066,-0.0024928,-0.0054526,-0.06728
30,0.013951,-0.029789,0.015924,0.07512,-0.0008485,-0.0041372,-0.083394
31,0.012964,-0.033735,0.014279,0.065583,-0.0024928,-0.0087413,-0.086025
32,0.010991,-0.035708,0.014608,0.052099,-0.004466,-0.014003,-0.076817
33,0.0083598,-0.036037,0.018884,0.036971,-0.0084125,-0.019923,-0.060373
34,0.0070443,-0.036366,0.023488,0.02283,-0.015319,-0.022554,-0.04393
35,0.0093464,-0.03538,0.021514,0.014608,-0.021567,-0.020581,-0.030118
36,0.013622,-0.033735,0.014608,0.013293,-0.022554,-0.013345,-0.012359
37,0.018884,-0.032091,0.0063866,0.013293,-0.019594,-0.002164,0.0080309
38,0.026776,-0.028144,0.0021113,0.011977,-0.013017,0.0037556,0.026776
39,0.037629,-0.025842,0.0024402,0.010991,-0.0047949,0.0030979,0.042233
40,0.047166,-0.026829,0.0057288,0.017897,0.0021113,-0.0011774,0.048482
41,0.049468,-0.031104,0.01132,0.032367,0.0060577,-0.004466,0.044864
42,0.04322,-0.034064,0.013951,0.046508,0.010004,-0.0077547,0.039273
43,0.031709,-0.032749,0.016253,0.052428,0.011977,-0.0067681,0.034669
44,0.017239,-0.023869,0.017897,0.046508,0.010991,-0.0018351,0.033683
45,0.0067154,-0.0077547,0.014937,0.033354,0.01132,0.0063866,0.035656
46,0.0040845,0.0090175,0.0090175,0.017897,0.014608,0.016253,0.042233
47,0.0073732,0.020528,0.0014536,0.0083598,0.022501,0.028421,0.051113
48,0.010991,0.024145,-0.0064392,0.0034268,0.026776,0.039602,0.06065
49,0.010662,0.021514,-0.0097279,0.0017824,0.020857,0.044535,0.066569
50,0.0070443,0.014608,-0.011372,-0.0024928,0.011977,0.043877,0.064596
51,0.0037556,0.0080309,-0.011372,-0.007097,0.0083598,0.041247,0.058019
52,0.0063866,0.0044134,-0.0084125,-0.010386,0.010662,0.04322,0.054072
53,0.010662,0.0054,-0.0034794,-0.0090702,0.011977,0.057361,0.052757
54,0.014937,0.0070443,0.0024402,-0.00051963,0.011648,0.08367,0.053086
55,0.016253,0.0067154,0.0067154,0.0080309,0.0060577,0.11524,0.052757
56,0.017897,0.0060577,0.012964,0.010991,-0.0034794,0.14221,0.051113
57,0.020528,0.0060577,0.018555,0.0073732,-0.014003,0.15767,0.052757
58,0.023159,0.01132,0.02283,-0.002164,-0.021896,0.15865,0.055059
59,0.023488,0.019212,0.023159,-0.014332,-0.0265,0.14681,0.053086
60,0.01691,0.027105,0.020528,-0.025514,-0.026829,0.12149,0.044864
61,0.0011247,0.031381,0.017568,-0.030118,-0.023869,0.090577,0.029407
62,-0.01795,0.032696,0.014608,-0.0265,-0.019923,0.056703,0.010333
63,-0.037682,0.03434,0.012306,-0.018278,-0.014661,0.028421,-0.0057815
64,-0.057085,0.032696,0.0073732,-0.011043,-0.0074258,0.0070443,-0.014003
65,-0.072542,0.02875,0.0024402,-0.012359,0.0014536,-0.0074258,-0.013674
66,-0.077475,0.029407,0.0001381,-0.02354,0.0083598,-0.012688,-0.011043
67,-0.069911,0.034998,0.002769,-0.038011,0.012635,-0.014332,-0.011372
68,-0.051823,0.043549,0.0067154,-0.051494,0.016253,-0.021896,-0.019265
69,-0.027158,0.049139,0.010333,-0.061689,0.020857,-0.036695,-0.030775
70,-0.0038083,0.048153,0.010333,-0.07024,0.025461,-0.055112,-0.040313
71,0.010333,0.041904,0.0050711,-0.078461,0.02579,-0.073199,-0.043272
72,0.015595,0.035656,-0.002164,-0.085696,0.021514,-0.085696,-0.038339
73,0.018555,0.036971,-0.0087413,-0.091616,0.016253,-0.0903,-0.030775
74,0.021514,0.046837,-0.010057,-0.094247,0.012635,-0.08471,-0.019594
75,0.025132,0.061307,-0.004466,-0.0903,0.014279,-0.070897,-0.0064392
76,0.030394,0.075449,0.0077021,-0.082079,0.020857,-0.0584,0.0047422
77,0.0373,0.085972,0.018884,-0.076159,0.02579,-0.057414,0.0083598
78,0.04026,0.08959,0.026119,-0.076159,0.024145,-0.062018,0.0037556
79,0.034669,0.085315,0.02579,-0.082079,0.014608,-0.063333,-0.0097279
80,0.02579,0.071831,0.01987,-0.087998,0.00079584,-0.06136,-0.024198
81,0.018884,0.055717,0.012306,-0.086683,-0.014003,-0.06136,-0.032749
82,0.016581,0.042891,0.0086887,-0.07287,-0.02354,-0.06432,-0.02946
83,0.021514,0.032367,0.011648,-0.052481,-0.028802,-0.069911,-0.015976
84,0.031381,0.025461,0.01987,-0.030118,-0.032749,-0.07287,0.00079584
85,0.041575,0.019212,0.030723,-0.01203,-0.034393,-0.068924,0.012964
86,0.044535,0.015266,0.039273,0.00046697,-0.033406,-0.061689,0.017568
87,0.036642,0.0090175,0.043549,0.0030979,-0.029789,-0.054454,0.013293
88,0.02283,0.0060577,0.044864,-0.002164,-0.024527,-0.046561,0.0030979
89,0.0080309,0.0086887,0.041575,-0.013017,-0.020581,-0.040641,-0.0057815
90,-0.0031506,0.013293,0.031052,-0.021896,-0.019265,-0.038997,-0.0084125
91,-0.0077547,0.014937,0.017239,-0.025514,-0.018936,-0.04097,-0.007097
92,-0.004466,0.010991,0.0040845,-0.018936,-0.019923,-0.044917,-0.0074258
93,0.0054,0.0054,-0.007097,-0.0064392,-0.019923,-0.049192,-0.01203
94,0.013951,0.0014536,-0.016305,0.0040845,-0.019923,-0.05281,-0.01795
95,0.014608,0.0040845,-0.021896,0.0054,-0.021567,-0.055112,-0.021567
96,0.0073732,0.012964,-0.02354,-0.0018351,-0.029131,-0.057414,-0.019923
97,-0.0034794,0.025461,-0.025185,-0.007097,-0.040313,-0.060702,-0.016305
98,-0.010057,0.029736,-0.028802,-0.00051963,-0.048205,-0.061031,-0.016305
99,-0.010386,0.022501,-0.033406,0.014608,-0.04985,-0.054454,-0.018278
100,-0.0067681,0.010333,-0.037682,0.03434,-0.048863,-0.043272,-0.018278
101,-0.0051238,-0.004466,-0.039984,0.052757,-0.049521,-0.033406,-0.01795
102,-0.0097279,-0.014003,-0.040313,0.060979,-0.04985,-0.025842,-0.017292
103,-0.016305,-0.022225,-0.037024,0.060979,-0.047219,-0.020581,-0.018278
104,-0.024198,-0.030775,-0.028144,0.05769,-0.040641,-0.01795,-0.021896
105,-0.030118,-0.038997,-0.015648,0.056046,-0.030775,-0.016305,-0.024527
106,-0.031104,-0.045246,-0.0067681,0.055388,-0.019923,-0.01499,-0.025842
107,-0.028473,-0.050836,-0.0024928,0.053415,-0.0090702,-0.011372,-0.028473
108,-0.023211,-0.056427,-0.0031506,0.04881,-0.00019077,-0.0064392,-0.029131
109,-0.019265,-0.064649,-0.0093991,0.045193,0.0021113,0.0001381,-0.029789
110,-0.020581,-0.076159,-0.021238,0.040589,0.0001381,0.0037556,-0.032749
111,-0.026829,-0.08471,-0.034064,0.034011,-0.0018351,0.002769,-0.038997
112,-0.03242,-0.087341,-0.042615,0.026776,-0.0015062,-0.0054526,-0.043272
113,-0.032091,-0.082408,-0.049521,0.025132,0.0011247,-0.019923,-0.040313
114,-0.022225,-0.068924,-0.057414,0.031052,0.0014536,-0.034393,-0.030118
115,-0.0074258,-0.050179,-0.064978,0.041904,0.00079584,-0.042944,-0.015976
116,0.0067154,-0.031104,-0.068266,0.05473,-0.0034794,-0.041957,0.0021113
117,0.014937,-0.01499,-0.063662,0.065912,-0.0090702,-0.032749,0.02283
118,0.015266,-0.0047949,-0.051823,0.075449,-0.011372,-0.017621,0.042233
119,0.0090175,0.002769,-0.034393,0.080711,-0.0097279,-0.0028217,0.053743
120,0.0034268,0.0093464,-0.017621,0.082026,-0.0057815,0.0090175,0.056703
121,0.0054,0.015266,-0.0074258,0.081697,-0.002164,0.020857,0.04881
122,0.010004,0.017568,-0.0028217,0.079395,-0.00019077,0.02875,0.030394
123,0.013293,0.012964,-0.0041372,0.075449,-0.002164,0.033025,0.0080309
124,0.013951,0.0021113,-0.0090702,0.067556,-0.0061104,0.039273,-0.01203
125,0.010991,-0.0077547,-0.011043,0.061636,-0.007097,0.045851,-0.021567
126,0.0073732,-0.014332,-0.0067681,0.059005,-0.0038083,0.049468,-0.019265
127,0.0050711,-0.016634,0.0040845,0.060979,0.00079584,0.04881,-0.0093991
128,0.0037556,-0.01795,0.014937,0.064596,0.0070443,0.045522,0.0011247
129,0.0044134,-0.022225,0.017568,0.063938,0.016581,0.039273,0.0080309
130,0.0040845,-0.026171,0.016253,0.055388,0.027434,0.035656,0.0090175
131,-0.0011774,-0.02946,0.01132,0.040918,0.033354,0.037958,0.0044134
132,-0.0077547,-0.031433,0.0070443,0.023817,0.030065,0.04618,-0.00051963
133,-0.011701,-0.031104,0.0047422,0.012635,0.019541,0.050455,-0.0028217
134,-0.014332,-0.025185,0.0047422,0.0096753,0.0060577,0.050126,-0.0024928
135,-0.021896,-0.01795,0.0063866,0.0093464,-0.0054526,0.044864,-0.0034794
136,-0.030775,-0.0090702,0.0040845,0.010662,-0.014332,0.036642,-0.0028217
137,-0.037353,0.0011247,0.00046697,0.013951,-0.01795,0.024474,-0.00019077
138,-0.035708,0.013293,-0.004466,0.020528,-0.013017,0.011648,0.0054
139,-0.028473,0.025132,-0.0067681,0.028092,-0.0047949,0.0011247,0.014608
140,-0.021567,0.032696,-0.0074258,0.033683,0.0017824,-0.0038083,0.025132
141,-0.016963,0.036314,-0.0080836,0.033354,0.0011247,-0.0008485,0.033025
142,-0.011701,0.037958,-0.0087413,0.026447,-0.004466,0.0096753,0.0373
143,-0.0008485,0.038287,-0.0093991,0.014608,-0.010057,0.018555,0.042233
144,0.0070443,0.039602,-0.0061104,0.0014536,-0.012688,0.021514,0.052428
145,0.0096753,0.04618,-0.00019077,-0.0064392,-0.013674,0.017897,0.063281
146,0.0063866,0.056374,0.0057288,-0.0084125,-0.0087413,0.012306,0.067885
147,-0.0024928,0.066569,0.0086887,-0.007097,0.0030979,0.012635,0.071173
148,-0.013017,0.069858,0.0090175,-0.0047949,0.01691,0.01691,0.078737
149,-0.019923,0.067556,0.0083598,-0.0047949,0.028092,0.021843,0.093208
150,-0.018278,0.063281,0.0063866,-0.010386,0.038944,0.027763,0.10702
151,-0.010057,0.063281,0.0037556,-0.020909,0.04881,0.032696,0.11623
152,-0.0041372,0.067556,0.0024402,-0.033735,0.053415,0.034011,0.11952
153,-0.0031506,0.073147,0.0021113,-0.044259,0.054072,0.030065,0.12017
154,-0.0051238,0.074462,0.0030979,-0.056098,0.053086,0.022172,0.12083
155,-0.0041372,0.069858,0.0077021,-0.066951,0.049797,0.013951,0.12083
156,0.0021113,0.06361,0.012635,-0.076817,0.04618,0.0090175,0.11162
157,0.0093464,0.058676,0.014608,-0.086025,0.041904,0.0096753,0.092879
158,0.011648,0.057032,0.013293,-0.09326,0.034011,0.01132,0.068871
159,0.0090175,0.059663,0.0086887,-0.091287,0.025461,0.0093464,0.046508
160,0.0070443,0.065254,0.0030979,-0.083394,0.020199,0.0014536,0.026447
161,0.0047422,0.072818,-0.00019077,-0.071555,0.015924,-0.0084125,0.0096753
162,0.0070443,0.078737,-0.0008485,-0.060702,0.0096753,-0.018607,0.0011247
163,0.012964,0.080382,0.0001381,-0.053138,0.0024402,-0.023211,0.0001381
164,0.021186,0.07512,-0.0011774,-0.048534,-0.0067681,-0.023869,-0.00051963
165,0.027434,0.06624,-0.0090702,-0.044917,-0.015648,-0.020252,-0.007097
166,0.031381,0.058676,-0.019923,-0.042286,-0.021896,-0.016305,-0.018607
167,0.033025,0.05473,-0.030118,-0.039655,-0.024527,-0.01203,-0.032091
168,0.033025,0.051441,-0.035051,-0.036037,-0.021567,-0.010057,-0.037353
169,0.027105,0.049797,-0.033406,-0.031762,-0.013674,-0.01203,-0.030447
170,0.012964,0.043877,-0.028802,-0.026171,-0.0047949,-0.014332,-0.015319
171,-0.004466,0.03434,-0.021238,-0.020252,0.0034268,-0.014003,0.0014536
172,-0.01795,0.023159,-0.011372,-0.013674,0.010662,-0.0061104,0.014608
173,-0.023211,0.012306,-0.0028217,-0.0090702,0.016253,0.0037556,0.019541
174,-0.020909,0.0067154,0.0024402,-0.0041372,0.017239,0.012635,0.016253
175,-0.016305,0.0070443,0.002769,0.0014536,0.011648,0.016581,0.0044134
176,-0.011043,0.010333,0.002769,0.0034268,-0.0028217,0.0090175,-0.0097279
177,-0.0054526,0.016253,0.0030979,-0.00019077,-0.020909,-0.010386,-0.017621
178,0.0037556,0.022501,0.0063866,-0.0054526,-0.034722,-0.028144,-0.010715
179,0.014279,0.02283,0.0090175,-0.0074258,-0.041299,-0.037353,0.0073732
180,0.023159,0.017568,0.013293,-0.0018351,-0.043601,-0.038997,0.02579
181,0.026776,0.01132,0.016253,0.010333,-0.04393,-0.038668,0.034998
182,0.020857,0.0090175,0.019212,0.026119,-0.045574,-0.037024,0.032696
183,0.012306,0.010333,0.021186,0.04026,-0.045574,-0.034393,0.023159
184,0.0086887,0.011648,0.021843,0.050126,-0.043601,-0.032749,0.010991
185,0.0096753,0.010004,0.016253,0.053415,-0.043272,-0.031433,0.0044134
186,0.011648,0.0021113,0.0073732,0.04881,-0.04393,-0.028473,0.0040845
187,0.01132,-0.0064392,-0.0031506,0.037629,-0.042944,-0.022554,0.00079584
188,0.011977,-0.015319,-0.011372,0.020199,-0.040641,-0.016634,-0.0061104
189,0.013622,-0.024198,-0.016963,0.0030979,-0.030775,-0.01499,-0.018936
190,0.016253,-0.030447,-0.020252,-0.0087413,-0.01499,-0.014332,-0.037024
191,0.015595,-0.036366,-0.020252,-0.014003,0.0021113,-0.014661,-0.053796
192,0.010333,-0.043272,-0.017621,-0.010386,0.012964,-0.010057,-0.063991
193,0.0040845,-0.049521,-0.013674,0.0001381,0.017568,-0.0015062,-0.063333
194,-0.00019077,-0.05281,-0.0061104,0.013951,0.014937,0.0057288,-0.049192
195,0.0024402,-0.049192,0.0037556,0.024803,0.0073732,0.0080309,-0.027158
196,0.010333,-0.040641,0.010662,0.030394,-0.0057815,0.002769,-0.0084125
197,0.01987,-0.030775,0.010991,0.032367,-0.019594,-0.0077547,0.0057288
198,0.022501,-0.020909,0.0040845,0.030394,-0.029131,-0.019265,0.013951
199,0.016581,-0.013674,-0.004466,0.021514,-0.02946,-0.027487,0.014279
200,0.0080309,-0.010715,-0.0077547,0.011977,-0.019923,-0.026829,0.0047422
201,0.0054,-0.012359,-0.0024928,0.0070443,-0.0061104,-0.019923,-0.0064392
202,0.010004,-0.015319,0.0070443,0.0096753,0.00046697,-0.014332,-0.0090702
203,0.020199,-0.01499,0.017897,0.017239,-0.002164,-0.015319,-0.00019077
204,0.030723,-0.0097279,0.027434,0.026447,-0.011372,-0.023211,0.017239
205,0.031709,-0.0034794,0.031381,0.030065,-0.024198,-0.034064,0.032696
206,0.01987,0.00079584,0.027434,0.027105,-0.033735,-0.044259,0.038287
207,-0.0018351,0.0001381,0.018226,0.020857,-0.038011,-0.04689,0.031381
208,-0.024198,-0.0031506,0.0080309,0.013622,-0.036695,-0.039984,0.01691
209,-0.041628,-0.0064392,-0.0041372,0.010333,-0.035051,-0.024856,0.0034268
210,-0.04985,-0.010386,-0.015319,0.01132,-0.034393,-0.010057,-0.00051963
211,-0.047548,-0.013345,-0.022225,0.010333,-0.031433,0.0014536,0.0063866
212,-0.038011,-0.014003,-0.025514,0.0080309,-0.024856,0.011977,0.025461
213,-0.025842,-0.0097279,-0.022883,0.0044134,-0.019923,0.023817,0.050126
214,-0.01499,-0.00051963,-0.018607,0.0017824,-0.011043,0.035656,0.071831
215,-0.007097,0.012306,-0.01203,0.0021113,0.0037556,0.051441,0.082026
216,-0.0047949,0.026447,-0.0054526,0.0030979,0.020199,0.067885,0.078737
217,-0.002164,0.03434,0.00079584,0.002769,0.028092,0.080711,0.070516
218,0.0050711,0.0373,0.0080309,0.0030979,0.025132,0.085644,0.065254
219,0.012635,0.034011,0.012306,0.0037556,0.013293,0.08367,0.067227
220,0.016253,0.027763,0.012964,0.0044134,-0.0011774,0.079724,0.074462
221,0.017568,0.023488,0.0090175,0.0011247,-0.010057,0.075778,0.082355
222,0.017239,0.023488,0.0030979,-0.0038083,-0.013674,0.071173,0.08663
223,0.011648,0.024803,0.0001381,-0.0041372,-0.01203,0.06624,0.082684
224,0.0011247,0.025132,0.0017824,-0.0018351,-0.0093991,0.061965,0.073476
225,-0.013674,0.027763,0.0044134,-0.0028217,-0.0064392,0.056374,0.065583
226,-0.025842,0.033354,0.0057288,-0.0090702,-0.002164,0.043877,0.061965
227,-0.03242,0.041904,0.0037556,-0.020581,0.0050711,0.026447,0.057032
228,-0.03242,0.049139,0.00046697,-0.02946,0.013293,0.0093464,0.044206
229,-0.028802,0.051441,-0.0047949,-0.032091,0.018884,-0.0024928,0.025132
230,-0.024856,0.045193,-0.011372,-0.029131,0.020528,-0.0077547,0.0001381
231,-0.019923,0.038944,-0.01795,-0.020909,0.019212,-0.0084125,-0.024856
232,-0.016305,0.035327,-0.021238,-0.0064392,0.016253,-0.0041372,-0.042944
233,-0.014003,0.035327,-0.019594,0.01132,0.011977,0.0021113,-0.046561
234,-0.010386,0.033025,-0.014332,0.027105,0.0063866,0.0054,-0.039326
235,-0.0057815,0.027434,-0.0087413,0.038287,-0.0018351,0.00079584,-0.032091
236,-0.0018351,0.018555,-0.0018351,0.039931,-0.012359,-0.0087413,-0.028473
237,0.0021113,0.013293,0.0054,0.037629,-0.020252,-0.018278,-0.028802
238,0.00079584,0.0083598,0.012635,0.034011,-0.024856,-0.021896,-0.037353
239,-0.0087413,0.0034268,0.014608,0.031709,-0.031762,-0.019594,-0.055112
240,-0.025185,-0.0047949,0.013293,0.032038,-0.039326,-0.01499,-0.076488
241,-0.041628,-0.015648,0.01132,0.034669,-0.039984,-0.017292,-0.092603
242,-0.048863,-0.029789,0.011648,0.0373,-0.02946,-0.02354,-0.095233
243,-0.047877,-0.044917,0.014937,0.038616,-0.010715,-0.031104,-0.082408
244,-0.041628,-0.059716,0.017239,0.04026,0.0060577,-0.037682,-0.06136
245,-0.033406,-0.073199,0.017897,0.04618,0.016581,-0.037353,-0.041628
246,-0.027158,-0.085696,0.017239,0.056703,0.021514,-0.028473,-0.028802
247,-0.021567,-0.092931,0.018555,0.064596,0.023817,-0.016963,-0.027158
248,-0.020909,-0.092931,0.019212,0.065912,0.024145,-0.010715,-0.03242
249,-0.026171,-0.086025,0.018884,0.056703,0.023159,-0.010715,-0.04393
250,-0.029789,-0.074186,0.016581,0.040918,0.021843,-0.01203,-0.056756
251,-0.026171,-0.062347,0.015924,0.026776,0.024145,-0.011372,-0.06432
252,-0.014332,-0.048205,0.013293,0.01987,0.031052,-0.010715,-0.062676
253,0.0017824,-0.036037,0.010004,0.019212,0.040918,-0.012688,-0.056427
254,0.015924,-0.0265,0.0040845,0.022172,0.049468,-0.018278,-0.047877
255,0.021514,-0.019594,-0.0015062,0.029078,0.054072,-0.024856,-0.036366
256,0.018555,-0.010386,-0.004466,0.039273,0.051113,-0.028144,-0.02354
257,0.0093464,0.002769,-0.0047949,0.052757,0.039931,-0.024198,-0.015976
258,0.0014536,0.016253,-0.0057815,0.065254,0.023817,-0.018936,-0.018607
259,-0.0054526,0.026776,-0.007097,0.074462,0.0050711,-0.020252,-0.0265
260,-0.012688,0.029736,-0.0087413,0.079395,-0.0090702,-0.028802,-0.029131
261,-0.018278,0.025461,-0.010386,0.080053,-0.016963,-0.039984,-0.02354
262,-0.021896,0.015595,-0.011701,0.077422,-0.017292,-0.04393,-0.01499
263,-0.02354,0.0024402,-0.014003,0.071502,-0.010715,-0.041957,-0.011372
264,-0.022554,-0.01203,-0.013345,0.061636,0.0001381,-0.037353,-0.01203
265,-0.016963,-0.028473,-0.010715,0.050784,0.010333,-0.034064,-0.012359
266,-0.007097,-0.047219,-0.0077547,0.044206,0.020199,-0.033735,-0.012688
267,0.0011247,-0.067609,-0.007097,0.045193,0.030394,-0.034064,-0.015648
268,0.0037556,-0.087341,-0.0084125,0.053743,0.035327,-0.028802,-0.019594
269,0.0040845,-0.10641,-0.013345,0.061636,0.02875,-0.018278,-0.016634
270,0.0054,-0.1222,-0.01795,0.063281,0.012306,-0.0077547,-0.0090702
271,0.0067154,-0.13437,-0.023869,0.058676,-0.0074258,-0.0074258,0.00079584
272,0.0060577,-0.14127,-0.028802,0.051113,-0.023869,-0.012688,0.010333
273,0.0011247,-0.1416,-0.031433,0.039602,-0.031762,-0.019594,0.013622
274,-0.0090702,-0.13536,-0.030775,0.029078,-0.031433,-0.022225,0.0080309
275,-0.021896,-0.1222,-0.027158,0.017568,-0.023869,-0.015319,-0.00051963
276,-0.030775,-0.10082,-0.020909,0.0070443,-0.015976,-0.0047949,-0.007097
277,-0.035051,-0.074844,-0.014003,-0.004466,-0.012688,0.0011247,-0.0090702
278,-0.031762,-0.050507,-0.0084125,-0.011043,-0.014661,0.0040845,-0.010386
279,-0.022554,-0.036037,-0.010386,-0.0097279,-0.020909,0.0063866,-0.011372
280,-0.012359,-0.030775,-0.014332,-0.0015062,-0.028802,0.01132,-0.010386
281,-0.0084125,-0.031104,-0.019923,0.0083598,-0.034064,0.018555,-0.004466
282,-0.011372,-0.032749,-0.021567,0.016581,-0.033406,0.024145,0.0034268
283,-0.015648,-0.031762,-0.016634,0.024803,-0.028473,0.026119,0.0083598
284,-0.01499,-0.028473,-0.0051238,0.036642,-0.024198,0.021514,0.010004
285,-0.0047949,-0.01795,0.0067154,0.045851,-0.022883,0.018555,0.0080309
286,0.011648,-0.0041372,0.01691,0.045193,-0.024198,0.015595,-0.002164
287,0.029078,0.0080309,0.019212,0.033683,-0.029789,0.0070443,-0.022225
288,0.040918,0.011977,0.014608,0.014279,-0.038011,-0.0064392,-0.048205
289,0.04618,0.010004,0.0063866,-0.007097,-0.04393,-0.021896,-0.066622
290,0.043549,0.010662,0.00046697,-0.025514,-0.042615,-0.033735,-0.069253
291,0.032696,0.017568,-0.0041372,-0.038997,-0.032091,-0.036037,-0.059387
292,0.018884,0.031381,-0.0067681,-0.046561,-0.016634,-0.02946,-0.041299
293,0.011977,0.044864,-0.0067681,-0.042286,-0.0011774,-0.01795,-0.018936
294,0.014608,0.055059,-0.0024928,-0.030775,0.011977,-0.0077547,0.0086887
295,0.024803,0.059334,0.0044134,-0.017292,0.017568,-0.00019077,0.038287
296,0.04026,0.059334,0.012635,-0.0041372,0.017568,0.0054,0.062623
297,0.057361,0.06065,0.01691,0.0054,0.018226,0.011977,0.077093
298,0.07216,0.065912,0.013293,0.0070443,0.01987,0.022501,0.086301
299,0.078737,0.0692,0.0054,-0.0008485,0.024803,0.032696,0.089261
300,0.075449,0.0692,0.00079584,-0.0097279,0.026447,0.039931,0.091234
301,0.06065,0.0692,0.00079584,-0.014661,0.021843,0.040918,0.090248
302,0.038287,0.070187,0.0017824,-0.014661,0.014937,0.036642,0.086301
303,0.018884,0.074133,0.0024402,-0.01499,0.01132,0.031052,0.082026
304,0.0077021,0.082684,0.0040845,-0.016634,0.012306,0.027434,0.082026
305,0.0060577,0.090577,0.0060577,-0.015648,0.020199,0.027434,0.085972
306,0.011648,0.093208,0.0060577,-0.011043,0.029736,0.028092,0.090905
307,0.019212,0.090577,0.0047422,-0.0080836,0.035656,0.024803,0.088932
308,0.02283,0.086959,0.0030979,-0.0093991,0.031052,0.018226,0.081697
309,0.027105,0.08367,0.0017824,-0.01499,0.014279,0.013622,0.070187
310,0.031709,0.084657,0.0034268,-0.018936,-0.0074258,0.012635,0.052757
311,0.038287,0.088603,0.0054,-0.018936,-0.025514,0.0096753,0.032696
312,0.044864,0.091563,0.0070443,-0.018607,-0.032091,0.0044134,0.014937
313,0.050126,0.091563,0.0060577,-0.021896,-0.028802,-0.002164,0.0037556
314,0.050126,0.086959,0.0017824,-0.026829,-0.021567,-0.0087413,-0.0008485
315,0.041247,0.077751,-0.002164,-0.03242,-0.017292,-0.017292,-0.0024928
316,0.030065,0.064596,-0.004466,-0.038339,-0.015976,-0.022554,-0.0031506
317,0.02283,0.052428,-0.0028217,-0.045574,-0.01795,-0.019594,-0.0011774
318,0.019541,0.044864,0.0024402,-0.052481,-0.019594,-0.0090702,0.00079584
319,0.020199,0.042233,0.0080309,-0.057414,-0.018936,0.0021113,0.0044134
320,0.023488,0.041247,0.010662,-0.057085,-0.015319,0.011977,0.012306
321,0.028421,0.042891,0.0090175,-0.053138,-0.010057,0.024474,0.023817
322,0.03434,0.045851,0.0034268,-0.04985,-0.0018351,0.036314,0.036314
323,0.036971,0.046837,-0.0015062,-0.048863,0.010333,0.042891,0.047166
324,0.034998,0.047495,-0.0041372,-0.047877,0.020199,0.040589,0.056374
325,0.030065,0.04881,-0.0008485,-0.043601,0.01987,0.033025,0.060321
326,0.021514,0.050455,0.0054,-0.034393,0.010004,0.021514,0.05473
327,0.010662,0.049468,0.01132,-0.024527,-0.0034794,0.0086887,0.044535
328,0.00079584,0.044206,0.016253,-0.013674,-0.011701,-0.0018351,0.035985
329,-0.0093991,0.037958,0.018884,-0.0031506,-0.015319,-0.0038083,0.031381
330,-0.019265,0.033354,0.01987,0.0057288,-0.019923,0.00079584,0.028421
331,-0.027816,0.031052,0.018555,0.0096753,-0.022554,0.0070443,0.02283
332,-0.027158,0.029736,0.014608,0.010662,-0.019923,0.0090175,0.013293
333,-0.015976,0.02875,0.0073732,0.010333,-0.015976,0.0054,0.0060577
334,0.0040845,0.02579,-0.0011774,0.0070443,-0.014003,0.0011247,-0.0015062
335,0.023817,0.020528,-0.0090702,-0.0015062,-0.012688,-0.0024928,-0.0074258
336,0.029736,0.01132,-0.01499,-0.012359,-0.016305,-0.004466,-0.013345
337,0.020528,-0.00019077,-0.015648,-0.019923,-0.022883,-0.007097,-0.016634
338,0.002769,-0.010057,-0.0097279,-0.022554,-0.03242,-0.0084125,-0.01499
339,-0.015648,-0.016634,0.0014536,-0.021567,-0.04097,-0.0093991,-0.0097279
340,-0.025842,-0.023211,0.012635,-0.020252,-0.048534,-0.0054526,-0.0051238
341,-0.0265,-0.028144,0.01987,-0.019594,-0.054454,-0.0011774,-0.0011774
342,-0.022225,-0.030118,0.019541,-0.01795,-0.056098,-0.0011774,0.0034268
343,-0.017621,-0.029131,0.010662,-0.01203,-0.05281,-0.0028217,0.010991
344,-0.012688,-0.027816,-0.00051963,-0.0038083,-0.043272,-0.002164,0.018226
345,-0.007097,-0.027158,-0.010715,0.0040845,-0.027487,0.0001381,0.01987
346,-0.0028217,-0.031104,-0.016963,0.0073732,-0.0090702,-0.0028217,0.015266
347,-0.0015062,-0.038011,-0.016305,0.0034268,0.0037556,-0.012688,0.0054
348,-0.0024928,-0.044588,-0.01203,-0.0024928,0.0083598,-0.024527,-0.0038083
349,-0.0034794,-0.047219,-0.0093991,-0.0031506,0.0044134,-0.03242,-0.012359
350,-0.0041372,-0.04689,-0.0087413,0.0017824,-0.0031506,-0.029789,-0.019265
351,-0.0041372,-0.04097,-0.0090702,0.010004,-0.0080836,-0.017292,-0.024856
352,-0.004466,-0.031433,-0.0084125,0.017568,-0.0067681,-0.0028217,-0.028144
353,-0.0047949,-0.022554,-0.0061104,0.023159,0.0021113,0.0096753,-0.028473
354,-0.007097,-0.018278,-0.0051238,0.025461,0.014608,0.018555,-0.030118
355,-0.015648,-0.021238,-0.0074258,0.026119,0.02579,0.017897,-0.034064
356,-0.030775,-0.032091,-0.011701,0.024145,0.030723,0.0067154,-0.041957
357,-0.046232,-0.046561,-0.015648,0.024145,0.028092,-0.010386,-0.050836
358,-0.051823,-0.057743,-0.019594,0.025461,0.021514,-0.027487,-0.059716
359,-0.047548,-0.060373,-0.020909,0.026776,0.014937,-0.042944,-0.069582
360,-0.038997,-0.053467,-0.018936,0.027763,0.0083598,-0.053138,-0.076817
361,-0.032091,-0.040313,-0.014661,0.029736,0.0017824,-0.055112,-0.077803
362,-0.025842,-0.025842,-0.0093991,0.032038,-0.0018351,-0.054783,-0.070897
363,-0.020581,-0.012359,-0.0084125,0.034011,-0.0015062,-0.052481,-0.057743
364,-0.016305,-0.0018351,-0.01203,0.032696,0.0044134,-0.050507,-0.041628
365,-0.016305,0.0044134,-0.01795,0.02579,0.0090175,-0.042286,-0.023211
366,-0.017292,0.0030979,-0.025185,0.016581,0.0080309,-0.024856,0.0014536
367,-0.020252,-0.0018351,-0.029789,0.0077021,0.0021113,0.0011247,0.028092
368,-0.025514,-0.0057815,-0.028144,0.0011247,-0.0054526,0.028092,0.046508
369,-0.026171,-0.0028217,-0.022883,-0.0024928,-0.0087413,0.051113,0.053415
370,-0.020909,0.0073732,-0.015976,-0.0038083,-0.0057815,0.064596,0.054401
371,-0.011372,0.021843,-0.010386,-0.0018351,-0.0015062,0.065583,0.051441
372,0.00046697,0.035656,-0.0084125,0.0054,0.0014536,0.051113,0.045522
373,0.0073732,0.044206,-0.0087413,0.013293,-0.00051963,0.030394,0.039931
374,0.0057288,0.051113,-0.010386,0.018226,-0.0038083,0.013293,0.039602
375,-0.0008485,0.055388,-0.011372,0.020528,-0.0054526,0.0093464,0.043877
376,-0.0038083,0.058019,-0.0074258,0.020199,-0.002164,0.017568,0.052099
377,-0.0034794,0.062623,-0.0008485,0.018555,0.0001381,0.032367,0.061965
378,0.002769,0.065912,0.010991,0.014279,-0.0028217,0.047495,0.070845
379,0.010004,0.066569,0.022501,0.010991,-0.0084125,0.062294,0.076435
380,0.0096753,0.059992,0.029078,0.0090175,-0.014661,0.079066,0.074791
381,-0.002164,0.04618,0.028092,0.010991,-0.022225,0.097812,0.067556
382,-0.022225,0.028421,0.020857,0.016581,-0.028802,0.11031,0.059334
383,-0.038011,0.012635,0.014608,0.021186,-0.035051,0.11261,0.050784
384,-0.041299,-0.00051963,0.0090175,0.01987,-0.039655,0.10735,0.042562
385,-0.036037,-0.0047949,0.0040845,0.015266,-0.040641,0.099785,0.038944
386,-0.028473,-0.00051963,0.00046697,0.011977,-0.037024,0.093536,0.042233
387,-0.024527,0.010333,-0.0015062,0.012635,-0.025185,0.091892,0.050784
388,-0.022554,0.01987,-0.0015062,0.015924,-0.011043,0.093208,0.059334
389,-0.017292,0.025461,-0.0015062,0.021186,0.00079584,0.094852,0.063938
390,-0.0084125,0.027434,-0.002164,0.027763,0.011977,0.08959,0.067885
391,0.0017824,0.029736,-0.0047949,0.031052,0.022501,0.072818,0.07216
392,0.0080309,0.033683,-0.010715,0.02875,0.031381,0.048153,0.078737
393,0.010004,0.035985,-0.016305,0.020199,0.038616,0.01987,0.080711
394,0.0073732,0.037958,-0.016963,0.0067154,0.038944,-0.0093991,0.076106
395,0.0047422,0.038616,-0.0087413,-0.0038083,0.036314,-0.034722,0.069529
396,0.0063866,0.037958,0.0011247,-0.0051238,0.033025,-0.054454,0.061636
397,0.010662,0.034669,0.0054,0.0067154,0.02875,-0.068266,0.053415
398,0.014937,0.033025,0.00046697,0.024145,0.024803,-0.077475,0.044206
399,0.01691,0.030723,-0.0093991,0.041575,0.021514,-0.083394,0.03434
400,0.011977,0.026119,-0.015976,0.055388,0.01691,-0.082736,0.022172
401,0.0047422,0.022501,-0.015976,0.060979,0.012306,-0.07583,0.010004
402,0.0021113,0.021186,-0.0080836,0.059992,0.0047422,-0.067937,0.00079584
403,0.0057288,0.021843,0.0001381,0.055388,-0.002164,-0.060373,-0.0041372
404,0.014279,0.020528,0.0040845,0.048482,-0.0061104,-0.05281,-0.0067681
405,0.022501,0.016253,0.0037556,0.0373,-0.0087413,-0.047877,-0.01203
406,0.027763,0.01132,-0.00051963,0.024474,-0.013345,-0.046561,-0.023869
407,0.027763,0.0067154,-0.007097,0.01691,-0.015319,-0.049192,-0.043601
408,0.023817,0.0044134,-0.015319,0.018226,-0.012359,-0.05544,-0.063991
409,0.019541,-0.00051963,-0.019594,0.021514,-0.010386,-0.06432,-0.077146
410,0.014608,-0.0064392,-0.019923,0.023159,-0.01203,-0.069582,-0.081092
411,0.011648,-0.013017,-0.017621,0.019212,-0.013017,-0.07024,-0.078461
412,0.0096753,-0.015648,-0.014332,0.0083598,-0.014003,-0.07024,-0.074515
413,0.0096753,-0.015319,-0.012688,-0.0054526,-0.017621,-0.069253,-0.072213
414,0.014279,-0.013017,-0.013345,-0.013017,-0.024198,-0.066293,-0.068595
415,0.024803,-0.013017,-0.016634,-0.011372,-0.029789,-0.059387,-0.063991
416,0.038944,-0.012359,-0.020909,-0.0084125,-0.030447,-0.051823,-0.062018
417,0.053086,-0.01203,-0.024198,-0.0090702,-0.029131,-0.042944,-0.069582
418,0.061965,-0.012688,-0.026171,-0.01203,-0.029789,-0.036695,-0.084381
419,0.063281,-0.015648,-0.025514,-0.010386,-0.032749,-0.036037,-0.10115
420,0.06065,-0.020252,-0.018936,-0.00019077,-0.033406,-0.040313,-0.11299
421,0.055059,-0.028802,-0.0077547,0.011977,-0.031762,-0.045574,-0.11233
422,0.04618,-0.042286,0.0011247,0.021186,-0.028802,-0.048534,-0.099838
423,0.032367,-0.059058,0.0054,0.02579,-0.024527,-0.050179,-0.084052
424,0.013293,-0.075173,0.0080309,0.025461,-0.020581,-0.051165,-0.073199
425,-0.0067681,-0.088656,0.0093464,0.020528,-0.014661,-0.051823,-0.064978
426,-0.019923,-0.097207,0.010333,0.012306,-0.0090702,-0.052152,-0.056098
427,-0.023211,-0.10214,0.012635,0.0044134,-0.0061104,-0.053796,-0.050507
428,-0.017292,-0.1028,0.017568,0.0030979,-0.007097,-0.056098,-0.048534
429,-0.0057815,-0.099838,0.025132,0.0090175,-0.0077547,-0.055112,-0.04689
430,0.0021113,-0.09326,0.02875,0.018226,-0.007097,-0.051823,-0.041299
431,-0.00051963,-0.078132,0.028421,0.024803,-0.0028217,-0.045246,-0.031104
432,-0.0077547,-0.055112,0.023159,0.026119,0.0037556,-0.041628,-0.017292
433,-0.016634,-0.029789,0.015924,0.020857,0.0096753,-0.04393,-0.0038083
434,-0.023211,-0.0067681,0.012964,0.014937,0.010662,-0.048205,0.0054
435,-0.025185,0.010333,0.013293,0.0077021,0.011977,-0.049192,0.0077021
436,-0.022554,0.020528,0.018226,0.00046697,0.015595,-0.044588,0.002769
437,-0.01499,0.02283,0.028092,-0.0034794,0.01987,-0.03242,-0.004466
438,-0.0067681,0.014608,0.036642,-0.002164,0.01987,-0.020252,-0.0074258
439,0.0054,-0.0011774,0.039602,-0.0008485,0.014608,-0.01499,-0.0024928
440,0.013951,-0.014332,0.038616,0.0011247,0.0060577,-0.016963,0.0090175
441,0.014608,-0.020581,0.032367,0.00046697,-0.0011774,-0.021238,0.024803
442,0.0070443,-0.021896,0.022501,-0.0028217,-0.0061104,-0.024856,0.037958
443,-0.0008485,-0.018607,0.010662,-0.010057,-0.0064392,-0.025185,0.050455
444,-0.0074258,-0.014332,-0.0028217,-0.018936,-0.0051238,-0.015648,0.06065
445,-0.012688,-0.0077547,-0.011701,-0.02354,-0.0015062,-0.00051963,0.070516
446,-0.016963,-0.0008485,-0.014661,-0.022225,0.0014536,0.015595,0.081039
447,-0.021238,0.002769,-0.01203,-0.013345,0.0067154,0.030723,0.092221
448,-0.024198,0.00079584,-0.0077547,-0.0024928,0.014279,0.046837,0.10439
449,-0.022883,-0.0041372,-0.0018351,0.0057288,0.022501,0.064596,0.1159
450,-0.018278,-0.0067681,0.0057288,0.0070443,0.026776,0.079066,0.12379
451,-0.011372,-0.0031506,0.012306,0.0021113,0.024145,0.088603,0.12577
452,-0.0011774,0.010333,0.015266,-0.0057815,0.014937,0.092221,0.12379
453,0.013293,0.029078,0.012635,-0.015648,0.0067154,0.088932,0.11458
454,0.026447,0.046508,0.0037556,-0.023211,0.0024402,0.08367,0.10077
455,0.034011,0.056703,-0.007097,-0.024856,0.0044134,0.075778,0.081697
456,0.031052,0.060979,-0.015319,-0.020909,0.0093464,0.067227,0.058019
457,0.021843,0.067885,-0.018278,-0.01499,0.015924,0.057361,0.034998
458,0.013622,0.080053,-0.01499,-0.0084125,0.020199,0.045193,0.018884
459,0.0073732,0.092221,-0.0061104,-0.004466,0.017897,0.035656,0.011977
460,0.0060577,0.1034,0.0044134,-0.0041372,0.010004,0.029078,0.0080309
461,0.010004,0.10965,0.013293,-0.0090702,0.0017824,0.020528,0.0063866
462,0.014937,0.11064,0.015924,-0.015648,-0.0038083,0.010333,0.0063866
463,0.017239,0.10834,0.011977,-0.021896,-0.0067681,-0.00051963,0.0080309
464,0.016253,0.10307,0.0011247,-0.025842,-0.0097279,-0.0090702,0.0096753
465,0.012635,0.094194,-0.014661,-0.028144,-0.016305,-0.018278,0.010991
466,0.0073732,0.082026,-0.030775,-0.030118,-0.022554,-0.02946,0.011977
467,0.00079584,0.066898,-0.042615,-0.028144,-0.02354,-0.037024,0.017239
468,-0.0074258,0.048482,-0.043601,-0.027816,-0.016963,-0.039655,0.023817
469,-0.014661,0.024803,-0.035708,-0.031762,-0.0047949,-0.038011,0.031709
470,-0.017292,-0.0008485,-0.021567,-0.034064,0.0093464,-0.030775,0.0373
471,-0.017621,-0.02946,-0.0054526,-0.030775,0.020857,-0.022554,0.037958
472,-0.023211,-0.059716,0.0070443,-0.024198,0.024474,-0.015648,0.035327
473,-0.034722,-0.089643,0.012964,-0.014003,0.020199,-0.012359,0.029078
474,-0.048863,-0.11266,0.012635,0.00079584,0.011977,-0.011043,0.018555
475,-0.06136,-0.12352,0.0083598,0.010991,0.0024402,-0.011701,0.0054
476,-0.073857,-0.12056,-0.0008485,0.010333,-0.011043,-0.013345,-0.0080836
477,-0.082079,-0.1051,-0.01203,0.0034268,-0.025185,-0.015976,-0.01795
478,-0.08471,-0.07879,-0.023869,-0.0028217,-0.037024,-0.017621,-0.023869
479,-0.081421,-0.045574,-0.032749,-0.0038083,-0.043272,-0.019923,-0.025185
480,-0.070897,-0.010386,-0.038339,-0.00019077,-0.041957,-0.017621,-0.019594
481,-0.05281,0.020528,-0.040641,0.0024402,-0.040313,-0.011701,-0.0074258
482,-0.028473,0.040589,-0.041957,0.0021113,-0.038339,-0.0057815,0.0050711
483,-0.0051238,0.048153,-0.04393,0.0030979,-0.033406,-0.0041372,0.012635
484,0.0096753,0.049139,-0.043601,0.0044134,-0.030775,-0.0077547,0.010662
485,0.013622,0.045522,-0.038668,0.0030979,-0.031104,-0.014003,0.0060577
486,0.0093464,0.0373,-0.02946,0.00046697,-0.029789,-0.020252,-0.0011774
487,0.00079584,0.031052,-0.020581,-0.0018351,-0.022883,-0.022883,-0.014003
488,-0.0024928,0.029078,-0.016305,0.0001381,-0.011701,-0.020909,-0.027487
489,-0.0015062,0.031381,-0.01795,0.0040845,-0.0018351,-0.01795,-0.035708
490,0.00079584,0.032367,-0.021238,0.0083598,0.002769,-0.014003,-0.038668
491,0.0050711,0.030723,-0.023211,0.013622,0.0060577,-0.007097,-0.038011
492,0.01132,0.028092,-0.023869,0.021843,0.010662,0.0050711,-0.034064
493,0.011648,0.030065,-0.021567,0.032367,0.015266,0.021843,-0.028473
494,0.0080309,0.036642,-0.019594,0.043877,0.017239,0.041575,-0.021238
495,0.0030979,0.041575,-0.020581,0.054072,0.014608,0.058348,-0.015976
496,-0.0028217,0.043549,-0.020909,0.059992,0.010333,0.067556,-0.012359
497,-0.0028217,0.04322,-0.018278,0.05769,0.0060577,0.072489,-0.011701
498,0.0057288,0.044864,-0.01203,0.049797,0.0047422,0.07216,-0.015976
499,0.017239,0.04618,-0.004466,0.039273,0.0054,0.064267,-0.020252
500,0.024474,0.042562,0.0030979,0.030394,0.0086887,0.05177,-0.019265
501,0.026447,0.029078,0.0054,0.026447,0.012635,0.037629,-0.017292
502,0.02283,0.01132,0.0060577,0.030723,0.015595,0.029078,-0.01203
503,0.016253,-0.0064392,0.0070443,0.040589,0.018226,0.02875,-0.0051238
504,0.010662,-0.01795,0.0063866,0.050126,0.020857,0.032696,0.0024402
505,-0.0008485,-0.024527,0.0047422,0.052757,0.018884,0.035985,0.011977
506,-0.015648,-0.02946,0.0017824,0.047824,0.0093464,0.035327,0.023817
507,-0.028473,-0.038339,-0.004466,0.039602,-0.0061104,0.031709,0.02875
508,-0.034722,-0.047219,-0.010057,0.034998,-0.015648,0.026119,0.024145
509,-0.034722,-0.051494,-0.012688,0.033354,-0.013345,0.020199,0.010662
510,-0.028802,-0.050507,-0.0087413,0.030394,-0.0011774,0.016581,-0.0080836
511,-0.015319,-0.045903,-0.0011774,0.026447,0.012635,0.013951,-0.02354
512,-0.0015062,-0.037353,0.0047422,0.022501,0.018884,0.011977,-0.027487
513,0.0063866,-0.025842,0.0070443,0.017897,0.01691,0.010662,-0.020581
514,0.0090175,-0.012359,0.0050711,0.013622,0.0080309,0.013293,-0.0084125
515,0.0073732,0.0014536,0.0037556,0.011977,0.00046697,0.01987,0.00079584
516,0.0037556,0.013951,0.0077021,0.013622,-0.002164,0.027434,0.0050711
517,-0.002164,0.021843,0.016253,0.015595,0.0030979,0.032038,0.0030979
518,-0.0064392,0.02579,0.02579,0.016581,0.012306,0.032696,-0.0008485
519,-0.0087413,0.029078,0.032038,0.018226,0.018555,0.026447,-0.0057815
520,-0.0084125,0.034011,0.031709,0.017897,0.019541,0.01691,-0.013345
521,-0.0077547,0.037958,0.027434,0.016253,0.016253,0.0044134,-0.022554
522,-0.0061104,0.039931,0.01987,0.013622,0.012635,-0.0077547,-0.027487
523,-0.0024928,0.035656,0.01132,0.0060577,0.0070443,-0.012688,-0.024198
524,0.0034268,0.026776,0.0050711,-0.0028217,-0.0008485,-0.01203,-0.012359
525,0.011977,0.016581,0.0017824,-0.010715,-0.004466,-0.011701,0.0034268
526,0.021186,0.0083598,0.0030979,-0.011372,-0.0018351,-0.015976,0.021514
527,0.029078,0.0017824,0.0070443,-0.011043,0.0030979,-0.024856,0.037629
528,0.031381,-0.0008485,0.0086887,-0.012359,0.0044134,-0.031762,0.04618
529,0.026776,-0.0011774,0.00046697,-0.015319,0.0001381,-0.030447,0.04618
530,0.019212,-0.0024928,-0.012688,-0.019265,-0.0057815,-0.024198,0.040918
531,0.012635,-0.0041372,-0.02354,-0.023211,-0.011701,-0.020581,0.033025
532,0.010004,-0.0041372,-0.024856,-0.023869,-0.01499,-0.020909,0.024145
533,0.0040845,-0.0038083,-0.01795,-0.020581,-0.01499,-0.021567,0.01691
534,-0.0057815,-0.0008485,-0.010057,-0.014661,-0.013674,-0.020909,0.013622
535,-0.015648,0.0030979,-0.0015062,-0.0074258,-0.016305,-0.021567,0.015266
536,-0.019594,0.0063866,0.0060577,-0.002164,-0.021896,-0.023869,0.018555
537,-0.019594,0.012964,0.012306,-0.0041372,-0.033406,-0.027158,0.023159
538,-0.018936,0.023488,0.015266,-0.013674,-0.045246,-0.027158,0.02875
539,-0.01795,0.03434,0.011648,-0.025842,-0.053138,-0.020909,0.034998
540,-0.01499,0.042233,0.0017824,-0.035708,-0.055769,-0.0064392,0.043877
541,-0.0074258,0.043877,-0.0093991,-0.037682,-0.054125,0.013951,0.055388
542,0.0034268,0.040589,-0.019265,-0.033735,-0.048534,0.034998,0.067556
543,0.01132,0.034998,-0.0265,-0.025842,-0.038668,0.049468,0.077422
544,0.014608,0.028421,-0.029789,-0.020581,-0.031762,0.050126,0.075778
545,0.011648,0.025461,-0.029789,-0.019594,-0.032091,0.038287,0.062952
546,0.0086887,0.028092,-0.024198,-0.023869,-0.036366,0.022172,0.046508
547,0.0073732,0.034998,-0.011701,-0.031433,-0.04097,0.010004,0.034669
548,0.0073732,0.043877,0.0017824,-0.036695,-0.045246,0.0060577,0.030394
549,0.011648,0.05473,0.012635,-0.02946,-0.045574,0.0054,0.032367
550,0.018555,0.064596,0.020857,-0.016963,-0.038668,0.0060577,0.039273
551,0.02875,0.069529,0.027763,-0.0064392,-0.025185,0.0070443,0.047495
552,0.039602,0.068214,0.033683,-0.002164,-0.013017,0.0083598,0.051113
553,0.046508,0.061307,0.038287,-0.007097,-0.0064392,0.0070443,0.044535
554,0.047495,0.054401,0.040589,-0.015976,-0.0051238,-0.00051963,0.030065
555,0.042891,0.04881,0.037958,-0.020581,-0.0057815,-0.012688,0.012635
556,0.035985,0.047166,0.028421,-0.016305,-0.0097279,-0.0265,-0.0051238
557,0.028421,0.050126,0.017568,-0.0080836,-0.018607,-0.038668,-0.021238
558,0.02283,0.05769,0.0086887,-0.0051238,-0.025842,-0.041957,-0.033078
559,0.017897,0.067556,0.0037556,-0.0034794,-0.030775,-0.035708,-0.037682
560,0.013951,0.073147,0.0073732,-0.004466,-0.031104,-0.024856,-0.034722
561,0.015924,0.068871,0.012964,-0.0067681,-0.026171,-0.019923,-0.028473
562,0.023817,0.053086,0.015924,-0.010715,-0.013674,-0.024198,-0.024198
563,0.033354,0.032038,0.015924,-0.013017,0.0030979,-0.033735,-0.020581
564,0.040918,0.013622,0.013951,-0.01203,0.015595,-0.041628,-0.017621
565,0.041247,0.0014536,0.014279,-0.0090702,0.021514,-0.041957,-0.013674
566,0.036642,-0.0008485,0.016253,-0.00051963,0.018226,-0.036695,-0.0077547
567,0.02875,0.0054,0.018884,0.011648,0.01132,-0.024856,0.00079584
568,0.018884,0.012635,0.017568,0.025461,0.0037556,-0.014003,0.010004
569,0.0093464,0.013293,0.010991,0.041575,-0.0041372,-0.0080836,0.022172
570,0.0014536,0.0070443,0.0034268,0.055388,-0.010715,-0.007097,0.0373
571,-0.0034794,-0.0028217,-0.002164,0.059992,-0.011372,-0.0077547,0.049468
572,-0.0067681,-0.010715,-0.0054526,0.05473,-0.0084125,-0.0051238,0.05769
573,-0.0047949,-0.014332,-0.0067681,0.043877,-0.004466,-0.004466,0.059663
574,0.0011247,-0.012688,-0.0080836,0.032038,-0.0031506,-0.0064392,0.055717
575,0.010004,-0.0084125,-0.011701,0.022501,-0.0041372,-0.011372,0.050126
576,0.018226,-0.0061104,-0.014332,0.021514,-0.0034794,-0.019265,0.046508
577,0.022501,-0.0074258,-0.017621,0.028421,-0.00019077,-0.029131,0.041575
578,0.023817,-0.014003,-0.020909,0.0373,0.0037556,-0.04097,0.035985
579,0.022501,-0.024198,-0.022225,0.043877,0.0040845,-0.051823,0.029736
580,0.021186,-0.034064,-0.019594,0.042891,-0.00051963,-0.058729,0.026447
581,0.01691,-0.042944,-0.01499,0.033354,-0.0090702,-0.059716,0.029078
582,0.010991,-0.051494,-0.010057,0.020199,-0.01499,-0.053467,0.037958
583,0.0057288,-0.060373,-0.0074258,0.010004,-0.017621,-0.042944,0.050126
584,0.0040845,-0.065964,-0.0097279,0.0070443,-0.017621,-0.034393,0.061636
585,0.0083598,-0.069253,-0.013345,0.013622,-0.015976,-0.029131,0.07216
586,0.016253,-0.069911,-0.011372,0.023159,-0.012359,-0.019923,0.077422
587,0.027434,-0.07024,-0.0041372,0.031052,-0.0051238,-0.002164,0.073147
588,0.035327,-0.067609,0.0017824,0.037629,0.0060577,0.024145,0.056703
589,0.03434,-0.060373,0.002769,0.045522,0.020528,0.053743,0.035985
590,0.026776,-0.04985,0.0014536,0.050455,0.034998,0.085315,0.022172
591,0.019541,-0.039326,0.0034268,0.049139,0.044864,0.11261,0.024145
592,0.014608,-0.032091,0.0080309,0.04618,0.046508,0.13169,0.034669
593,0.014279,-0.030447,0.012306,0.043549,0.041904,0.13958,0.038944
594,0.015595,-0.034064,0.016581,0.042233,0.033025,0.13201,0.031381
595,0.015924,-0.037353,0.019212,0.038616,0.019541,0.11097,0.017897
596,0.014279,-0.036037,0.017897,0.027763,0.0044134,0.078409,0.0054
597,0.0096753,-0.030118,0.011977,0.013622,-0.004466,0.040589,-0.0024928
598,0.0021113,-0.02354,0.0057288,0.0054,-0.007097,0.0067154,-0.0067681
599,-0.0064392,-0.015648,0.0047422,0.0070443,-0.0064392,-0.014003,-0.0054526
600,-0.014332,-0.0057815,0.0093464,0.018884,-0.0061104,-0.021896,-0.00051963
601,-0.014332,0.0017824,0.015266,0.032038,-0.0097279,-0.019594,0.0037556
602,-0.0090702,0.0044134,0.022501,0.041575,-0.0097279,-0.013017,-0.00019077
603,-0.0024928,0.0034268,0.029078,0.045193,-0.0038083,-0.0064392,-0.01203
604,0.00046697,-0.00019077,0.030065,0.041904,0.0047422,-0.0034794,-0.026829
605,-0.0015062,-0.0038083,0.023817,0.033025,0.012306,-0.0061104,-0.040641
606,-0.0074258,-0.007097,0.015595,0.018555,0.01691,-0.014661,-0.053796
607,-0.016963,-0.007097,0.0086887,0.0034268,0.019212,-0.024527,-0.062676
608,-0.024527,-0.0018351,0.0014536,-0.007097,0.016581,-0.036695,-0.068595
609,-0.029789,0.0077021,-0.004466,-0.013017,0.010333,-0.052481,-0.07024
610,-0.033078,0.013622,-0.011043,-0.010386,0.0030979,-0.068266,-0.065964
611,-0.04097,0.012635,-0.018607,-0.00019077,-0.002164,-0.079448,-0.061689
612,-0.05281,0.0040845,-0.026171,0.010662,-0.0038083,-0.08175,-0.061689
613,-0.063004,-0.0084125,-0.032749,0.017897,-0.0024928,-0.079448,-0.065964
614,-0.067937,-0.017292,-0.036366,0.015924,-0.0034794,-0.070897,-0.074186
615,-0.06728,-0.018607,-0.038339,0.0044134,-0.0067681,-0.058729,-0.081092
616,-0.065635,-0.0093991,-0.037024,-0.011701,-0.0097279,-0.04689,-0.086025
617,-0.063662,0.0093464,-0.03242,-0.023211,-0.0087413,-0.039326,-0.091945
618,-0.059058,0.029078,-0.020909,-0.028473,-0.0047949,-0.039326,-0.098522
619,-0.054454,0.04322,-0.0090702,-0.025842,-0.0015062,-0.045574,-0.10444
620,-0.048534,0.052428,-0.0024928,-0.018607,0.0017824,-0.051165,-0.10247
621,-0.041957,0.059663,-0.00051963,-0.012688,0.0040845,-0.056756,-0.092274
622,-0.033078,0.0692,-0.0031506,-0.016305,0.0060577,-0.061031,-0.080763
623,-0.022225,0.079395,-0.0080836,-0.02354,0.0096753,-0.063662,-0.071884
624,-0.011701,0.085315,-0.010715,-0.030447,0.01132,-0.060373,-0.063333
625,-0.0090702,0.083013,-0.01203,-0.031762,0.0077021,-0.050836,-0.051165
626,-0.016305,0.071502,-0.013017,-0.029789,-0.0047949,-0.038339,-0.039326
627,-0.028144,0.055388,-0.011701,-0.021567,-0.01795,-0.025842,-0.030775
628,-0.038997,0.036971,-0.0093991,-0.013345,-0.026829,-0.022225,-0.019923
629,-0.042286,0.018555,-0.0061104,-0.004466,-0.027158,-0.026171,-0.0074258
630,-0.03538,0.002769,-0.0018351,0.0030979,-0.022225,-0.030447,0.0011247
631,-0.022883,-0.0087413,0.0024402,0.0073732,-0.015648,-0.033078,0.0017824
632,-0.013345,-0.01795,0.0057288,0.0060577,-0.0087413,-0.031104,-0.0061104
633,-0.014661,-0.027816,0.0080309,0.0047422,-0.0028217,-0.029131,-0.016634
634,-0.022554,-0.037682,0.0077021,0.0050711,0.0037556,-0.0265,-0.021567
635,-0.032091,-0.042944,0.0034268,0.0050711,0.012306,-0.022554,-0.01795
636,-0.036037,-0.036366,-0.0018351,0.00046697,0.022172,-0.015319,-0.0067681
637,-0.034064,-0.020252,-0.0054526,-0.0064392,0.031381,-0.0067681,0.0044134
638,-0.028802,-0.0018351,-0.0041372,-0.011701,0.041247,0.0030979,0.011977
639,-0.022554,0.013622,0.0021113,-0.014003,0.050455,0.016581,0.015266
640,-0.016305,0.021514,0.0086887,-0.014332,0.052428,0.030723,0.017897
641,-0.0090702,0.01987,0.0077021,-0.01203,0.045851,0.038944,0.024145
642,0.0014536,0.013622,0.00079584,-0.0090702,0.036971,0.036971,0.035985
643,0.014608,0.0073732,-0.0077547,-0.0047949,0.03434,0.02579,0.046837
644,0.028092,0.0017824,-0.013674,-0.00051963,0.035656,0.0096753,0.050455
645,0.040918,-0.0008485,-0.016963,0.0057288,0.036971,-0.0031506,0.047824
646,0.049139,-0.0024928,-0.01795,0.01132,0.036642,-0.010386,0.04322
647,0.052757,-0.0034794,-0.019265,0.014937,0.031709,-0.007097,0.0373
648,0.05177,-0.0051238,-0.021238,0.015924,0.023817,0.0070443,0.032696
649,0.049139,-0.0090702,-0.024198,0.015924,0.013293,0.027763,0.032367
650,0.044535,-0.0090702,-0.024198,0.01691,0.002769,0.043877,0.034669
651,0.039273,-0.0084125,-0.018936,0.018884,-0.0038083,0.04881,0.038287
652,0.035656,-0.0074258,-0.0097279,0.016581,-0.007097,0.047495,0.04322
653,0.036642,-0.007097,-0.0011774,0.0086887,-0.012688,0.042562,0.049468
654,0.039931,-0.0061104,0.0054,-0.0008485,-0.018936,0.0373,0.052428
655,0.041247,-0.0057815,0.0083598,-0.0064392,-0.024856,0.033683,0.047824
656,0.0373,-0.007097,0.010333,-0.0047949,-0.027816,0.035656,0.039931
657,0.033025,-0.0074258,0.01132,0.0030979,-0.025185,0.040589,0.032367
658,0.028421,-0.0064392,0.013293,0.010333,-0.020909,0.043877,0.030723
659,0.023817,-0.0047949,0.014279,0.015266,-0.017621,0.041575,0.036971
660,0.022501,-0.0051238,0.015266,0.024145,-0.016963,0.038287,0.043877
661,0.021843,-0.01203,0.014279,0.033025,-0.019923,0.035327,0.042562
662,0.018226,-0.021896,0.010004,0.036971,-0.027816,0.02875,0.036971
663,0.011648,-0.027487,0.0047422,0.035656,-0.038997,0.018226,0.031381
664,0.0021113,-0.026829,-0.0008485,0.033354,-0.052152,0.0086887,0.029736
665,-0.011043,-0.024198,-0.0047949,0.035327,-0.062018,0.0011247,0.029407
666,-0.020909,-0.020252,-0.0061104,0.043549,-0.065307,0.0001381,0.027105
667,-0.026829,-0.015976,-0.0090702,0.052099,-0.060045,0.0093464,0.021186
668,-0.022554,-0.011701,-0.014003,0.053415,-0.051494,0.023817,0.014937
669,-0.010057,-0.010057,-0.018607,0.046508,-0.042286,0.036971,0.010991
670,0.0047422,-0.013017,-0.022225,0.034011,-0.035708,0.036971,0.010991
671,0.016253,-0.019265,-0.021238,0.022501,-0.038997,0.027434,0.015924
672,0.020528,-0.028473,-0.014332,0.017897,-0.047548,0.011648,0.025461
673,0.018555,-0.03538,-0.007097,0.020199,-0.055112,-0.004466,0.033025
674,0.013293,-0.037024,-0.0028217,0.026776,-0.053796,-0.013345,0.039273
675,0.0054,-0.02946,-0.0008485,0.037958,-0.039984,-0.0077547,0.041247
676,-0.0047949,-0.015976,0.0017824,0.050455,-0.021238,0.0080309,0.03434
677,-0.015319,-0.0031506,0.0024402,0.06065,-0.0041372,0.024145,0.018884
678,-0.020909,0.0040845,0.0001381,0.06624,0.0054,0.030394,0.0037556
679,-0.018607,0.0054,-0.002164,0.06624,0.0080309,0.024474,-0.0051238
680,-0.0093991,-0.00051963,-0.004466,0.056703,0.0063866,0.013622,-0.0047949
681,0.0021113,-0.011372,-0.0051238,0.045193,0.0017824,0.0086887,0.0030979
682,0.012964,-0.018936,-0.0041372,0.039931,-0.0064392,0.011648,0.013622
683,0.017897,-0.01499,-0.0038083,0.042233,-0.014003,0.016581,0.022172
684,0.01691,0.00079584,-0.0038083,0.049797,-0.016305,0.015266,0.023817
685,0.011977,0.021843,-0.0028217,0.055388,-0.012359,0.0080309,0.018555
686,0.0037556,0.036971,-0.00019077,0.055059,-0.007097,-0.0018351,0.010991
687,-0.0061104,0.044206,-0.0011774,0.047166,-0.0038083,-0.013674,0.002769
688,-0.0087413,0.04618,-0.0057815,0.035656,-0.0018351,-0.025185,0.00079584
689,-0.0057815,0.043877,-0.010386,0.026776,-0.00051963,-0.030775,0.0044134
690,0.00046697,0.038944,-0.012688,0.023817,-0.00019077,-0.021567,0.010004
691,0.0080309,0.033354,-0.013017,0.024474,0.00079584,-0.002164,0.012306
692,0.010991,0.030065,-0.01499,0.02875,0.0040845,0.018555,0.01132
693,0.0080309,0.027763,-0.016634,0.035985,0.010662,0.033025,0.010333
694,0.0054,0.029407,-0.013674,0.042562,0.01987,0.039602,0.010662
695,0.0021113,0.033354,-0.0057815,0.039273,0.026119,0.036971,0.010991
696,0.0001381,0.036642,0.0021113,0.027105,0.029078,0.024803,0.01132
697,0.0034268,0.038287,0.0083598,0.010662,0.025132,0.011648,0.014937
698,0.011977,0.037958,0.0096753,-0.0018351,0.014608,0.00046697,0.018555
699,0.019541,0.038944,0.0067154,-0.0061104,0.0014536,-0.0028217,0.018555
700,0.020528,0.043549,0.00079584,-0.002164,-0.0074258,0.0054,0.014937
701,0.015595,0.050126,-0.0064392,0.0011247,-0.012688,0.022501,0.010662
702,0.0060577,0.055059,-0.012688,0.0021113,-0.015976,0.034998,0.0093464
703,-0.0011774,0.056374,-0.017292,-0.0011774,-0.015976,0.036971,0.015924
704,-0.0061104,0.055388,-0.018936,-0.0064392,-0.014003,0.029078,0.031052
705,-0.0074258,0.049468,-0.018607,-0.013017,-0.0090702,0.017897,0.042562
706,-0.0090702,0.044535,-0.016634,-0.018607,-0.0031506,0.0080309,0.045193
707,-0.013674,0.043877,-0.013674,-0.021567,0.0017824,-0.0008485,0.038944
708,-0.024527,0.043877,-0.0074258,-0.018936,0.0054,-0.0047949,0.029736
709,-0.037024,0.041247,-0.0024928,-0.013674,0.0054,-0.0038083,0.018555
710,-0.04393,0.036642,-0.0008485,-0.0061104,0.0047422,0.00046697,0.012635
711,-0.040641,0.031709,-0.0031506,0.00046697,0.0044134,0.0034268,0.015266
712,-0.028802,0.026447,-0.0061104,-0.00019077,0.0070443,0.0044134,0.023159
713,-0.015976,0.021514,-0.0090702,-0.007097,0.010991,0.0040845,0.030394
714,-0.0041372,0.014608,-0.0090702,-0.012688,0.016581,0.00046697,0.035656
715,0.0001381,0.011977,-0.0057815,-0.012688,0.022501,-0.0061104,0.038944
716,-0.0057815,0.017239,-0.0011774,-0.0090702,0.020857,-0.010386,0.035656
717,-0.017292,0.030394,0.0040845,-0.0034794,0.0096753,-0.012359,0.025461
718,-0.0265,0.045851,0.0080309,0.0014536,-0.0061104,-0.014332,0.0090175
719,-0.025842,0.060979,0.0060577,-0.0008485,-0.016634,-0.018607,-0.0038083
720,-0.016305,0.070187,-0.00019077,-0.0077547,-0.020909,-0.025842,-0.0077547
721,-0.004466,0.071502,-0.007097,-0.01795,-0.020581,-0.030447,-0.0054526
722,0.0024402,0.06361,-0.0097279,-0.03242,-0.014332,-0.030118,-0.00019077
723,0.0040845,0.045522,-0.0074258,-0.045903,-0.002164,-0.024198,0.0057288
724,0.0017824,0.022501,-0.0041372,-0.056427,0.011648,-0.015319,0.012635
725,0.0014536,0.0011247,0.0001381,-0.061031,0.021843,-0.0067681,0.017568
726,0.0044134,-0.013674,0.0040845,-0.059058,0.028092,0.00079584,0.01691
727,0.0034268,-0.020909,0.0057288,-0.048534,0.026447,0.010004,0.011977
728,-0.007097,-0.020909,0.0063866,-0.034722,0.020528,0.015595,0.0093464
729,-0.023869,-0.018936,0.0073732,-0.023211,0.017568,0.014608,0.01132
730,-0.038668,-0.014332,0.0083598,-0.016963,0.018884,0.0067154,0.012635
731,-0.043601,-0.0080836,0.0090175,-0.019923,0.02283,-0.0054526,0.0090175
732,-0.038668,-0.0034794,0.0093464,-0.030118,0.024474,-0.015648,-0.0038083
733,-0.028802,-0.00051963,0.0093464,-0.039326,0.019541,-0.018936,-0.020581
734,-0.020581,0.0030979,0.0086887,-0.046232,0.013293,-0.020252,-0.030118
735,-0.010715,0.0040845,0.0080309,-0.049521,0.0060577,-0.020252,-0.028144
736,-0.0031506,-0.002164,0.0093464,-0.044917,0.0021113,-0.020909,-0.017621
737,0.0050711,-0.014332,0.011648,-0.032091,0.00079584,-0.022554,-0.0041372
738,0.0096753,-0.027487,0.011648,-0.01499,0.0014536,-0.023211,0.0067154
739,0.010004,-0.037682,0.0083598,0.0017824,0.0047422,-0.01795,0.016253
740,0.0073732,-0.042615,0.0044134,0.010333,0.0077021,-0.0077547,0.024803
741,0.0034268,-0.042615,0.002769,0.012306,0.0060577,0.0030979,0.030394
742,0.002769,-0.041957,0.00079584,0.010333,0.0034268,0.013951,0.030394
743,0.0077021,-0.037353,-0.0028217,0.0090175,0.0030979,0.02283,0.026119
744,0.01691,-0.030775,-0.0090702,0.0080309,0.0014536,0.027105,0.018555
745,0.024145,-0.024527,-0.016963,0.0073732,0.00046697,0.023817,0.0054
746,0.026776,-0.019923,-0.024856,0.0044134,-0.0038083,0.01132,-0.012359
747,0.029078,-0.017292,-0.027158,0.0011247,-0.010057,-0.007097,-0.033406
748,0.029736,-0.020909,-0.022554,-0.0024928,-0.013674,-0.029789,-0.053796
749,0.029078,-0.027816,-0.013674,-0.0047949,-0.011701,-0.057414,-0.071226
750,0.025132,-0.035708,-0.0084125,-0.0061104,-0.0074258,-0.086354,-0.082079
751,0.01987,-0.041957,-0.0080836,-0.0057815,-0.004466,-0.10872,-0.083723
752,0.01691,-0.044588,-0.0097279,-0.0038083,-0.0077547,-0.11661,-0.077146
753,0.01691,-0.044588,-0.0097279,-0.0028217,-0.014332,-0.10609,-0.068595
754,0.019212,-0.042615,-0.0064392,-0.0031506,-0.015976,-0.083065,-0.059058
755,0.017897,-0.039655,-0.0018351,-0.0047949,-0.0093991,-0.0584,-0.047548
756,0.010333,-0.034064,0.0040845,-0.0054526,0.00046697,-0.038668,-0.030775
757,0.0001381,-0.026829,0.010662,-0.0031506,0.0090175,-0.026171,-0.0090702
758,-0.007097,-0.021896,0.014937,0.0014536,0.0093464,-0.025185,0.017239
759,-0.011372,-0.026829,0.0096753,0.0086887,0.00079584,-0.032091,0.039273
760,-0.011701,-0.038011,-0.0041372,0.01691,-0.012688,-0.039984,0.049797
761,-0.011372,-0.047877,-0.018607,0.022172,-0.025842,-0.04689,0.047824
762,-0.0090702,-0.046561,-0.023211,0.020528,-0.038339,-0.049192,0.0373
763,-0.0028217,-0.033406,-0.015648,0.013293,-0.048205,-0.04097,0.028092
764,0.0073732,-0.013674,0.0011247,0.0067154,-0.052481,-0.020909,0.024145
765,0.015595,0.0093464,0.018555,0.0040845,-0.052152,0.002769,0.026447
766,0.018226,0.032696,0.028092,0.0034268,-0.052481,0.024474,0.026776
767,0.020857,0.051441,0.024145,0.0047422,-0.053138,0.043549,0.025132
768,0.02875,0.060979,0.012635,0.0070443,-0.051823,0.061307,0.022172
769,0.034669,0.061307,-0.0015062,0.0093464,-0.047877,0.076435,0.01987
770,0.035656,0.054401,-0.012359,0.010004,-0.04097,0.086959,0.022172
771,0.032038,0.044864,-0.018278,0.011648,-0.035051,0.093536,0.026447
772,0.02579,0.036971,-0.018278,0.015924,-0.030118,0.097812,0.030723
773,0.019541,0.032367,-0.010715,0.022172,-0.026171,0.1011,0.038287
774,0.014937,0.031709,0.0011247,0.02579,-0.022554,0.10373,0.048482
775,0.010991,0.030723,0.01691,0.026447,-0.018607,0.10669,0.056046
776,0.0054,0.02875,0.031381,0.023159,-0.019265,0.10735,0.060979
777,-0.0011774,0.021514,0.039602,0.015266,-0.022554,0.10274,0.066569
778,-0.0047949,0.0090175,0.041247,0.0057288,-0.020909,0.093208,0.074133
779,-0.0041372,-0.0018351,0.034998,-0.0008485,-0.013017,0.085972,0.080711
780,-0.0015062,-0.0097279,0.023488,-0.002164,-0.004466,0.082355,0.084657
781,0.0014536,-0.014332,0.010991,-0.0008485,0.00046697,0.080711,0.08663
782,0.002769,-0.013674,0.0024402,0.0017824,0.00079584,0.073147,0.084986
783,0.0017824,-0.0087413,0.002769,0.0050711,-0.0051238,0.055388,0.076764
784,0.0014536,0.00079584,0.0090175,0.0054,-0.01203,0.029078,0.064925
785,0.0024402,0.010991,0.015924,0.0011247,-0.014332,0.0011247,0.049139
786,0.0070443,0.017897,0.018884,-0.0054526,-0.0080836,-0.028144,0.026776
787,0.012635,0.024474,0.014608,-0.013017,0.0037556,-0.051494,-0.00019077
788,0.015266,0.031052,0.0044134,-0.015648,0.0096753,-0.065964,-0.027487
789,0.013293,0.036642,-0.0057815,-0.011701,0.0017824,-0.074186,-0.045574
790,0.011977,0.039602,-0.012688,-0.004466,-0.017621,-0.083065,-0.048534
791,0.013951,0.042562,-0.011372,0.0057288,-0.041628,-0.089643,-0.039326
792,0.023488,0.047495,-0.0051238,0.014937,-0.060373,-0.094247,-0.034064
793,0.032696,0.055059,0.0034268,0.021186,-0.068595,-0.092603,-0.034393
794,0.033025,0.06065,0.010333,0.024145,-0.062018,-0.085367,-0.037024
795,0.021843,0.064596,0.013293,0.021186,-0.041957,-0.076488,-0.034064
796,0.0037556,0.066898,0.010662,0.016253,-0.013674,-0.065307,-0.024527
797,-0.011372,0.065583,0.0037556,0.012306,0.013293,-0.04985,-0.013017
798,-0.014332,0.05769,-0.0074258,0.0096753,0.033354,-0.031104,-0.0038083
799,-0.004466,0.043877,-0.019265,0.0073732,0.040918,-0.016305,0.002769
800,0.0090175,0.024474,-0.025842,0.002769,0.037629,-0.0087413,0.0083598
801,0.014937,0.0073732,-0.027158,-0.0077547,0.02875,-0.0047949,0.013951
802,0.012635,-0.0054526,-0.021567,-0.021567,0.017897,-0.0008485,0.018884
803,0.0034268,-0.01203,-0.013017,-0.036695,0.010004,0.0017824,0.02283
804,-0.0064392,-0.01203,-0.0028217,-0.047877,0.002769,0.0014536,0.025461
805,-0.012359,-0.0054526,0.0044134,-0.055769,-0.0047949,-0.0015062,0.026776
806,-0.013017,0.0017824,0.0060577,-0.061689,-0.011701,-0.0034794,0.028092
807,-0.007097,0.0060577,0.00046697,-0.065964,-0.020909,-0.0041372,0.028092
808,0.0011247,0.0044134,-0.0087413,-0.068924,-0.037353,-0.0084125,0.024474
809,0.0054,-0.0041372,-0.018278,-0.069582,-0.054783,-0.018278,0.015595
810,0.0060577,-0.015976,-0.02354,-0.065964,-0.063662,-0.028802,0.0044134
811,0.0054,-0.0265,-0.023211,-0.056098,-0.062347,-0.034064,-0.0024928
812,0.0037556,-0.032091,-0.018936,-0.037353,-0.050179,-0.030775,-0.0074258
813,0.0017824,-0.03538,-0.015976,-0.013017,-0.029131,-0.021567,-0.007097
814,-0.0038083,-0.036366,-0.015648,0.0073732,-0.0047949,-0.0087413,-0.0018351
815,-0.01203,-0.036695,-0.014661,0.018884,0.019541,0.0080309,0.010004
816,-0.019265,-0.03538,-0.011043,0.023488,0.039602,0.026447,0.024145
817,-0.023869,-0.031433,-0.0038083,0.029078,0.050784,0.045851,0.0373
818,-0.023211,-0.026171,0.0014536,0.036314,0.056046,0.065254,0.045851
819,-0.019594,-0.024198,0.0037556,0.044535,0.058019,0.085644,0.047824
820,-0.015648,-0.024527,0.0011247,0.051113,0.059334,0.10077,0.04322
821,-0.014661,-0.027816,-0.0047949,0.053743,0.057361,0.10834,0.036314
822,-0.021567,-0.032091,-0.0097279,0.055717,0.049139,0.10636,0.027105
823,-0.035708,-0.035708,-0.010715,0.056703,0.039273,0.098469,0.019541
824,-0.047548,-0.036695,-0.0051238,0.058019,0.030723,0.084986,0.015924
825,-0.051823,-0.036037,0.002769,0.057361,0.025132,0.068543,0.010991
826,-0.051165,-0.03538,0.0086887,0.056374,0.02283,0.048482,0.0040845
827,-0.048863,-0.037682,0.012306,0.055059,0.020857,0.02283,-0.0077547
828,-0.047219,-0.045246,0.015924,0.05177,0.01691,-0.007097,-0.022225
829,-0.047877,-0.052152,0.019212,0.047824,0.0080309,-0.034722,-0.038997
830,-0.048534,-0.053796,0.018555,0.044206,-0.0041372,-0.04985,-0.05544
831,-0.044917,-0.046232,0.013951,0.044864,-0.013674,-0.052152,-0.064978
832,-0.035708,-0.031104,0.0060577,0.048153,-0.01795,-0.045903,-0.060702
833,-0.022883,-0.012359,-0.00051963,0.050455,-0.017292,-0.04097,-0.045574
834,-0.01203,0.0044134,-0.002164,0.052099,-0.016634,-0.039655,-0.0265
835,-0.0015062,0.013951,0.0001381,0.05177,-0.01795,-0.041628,-0.011701
836,0.0057288,0.010004,0.0017824,0.051113,-0.019265,-0.043272,-0.0064392
837,0.0083598,-0.0011774,0.0044134,0.05177,-0.017292,-0.047219,-0.0084125
838,0.0044134,-0.015319,0.010991,0.051441,-0.0097279,-0.054125,-0.014332
839,-0.0047949,-0.024527,0.021514,0.05473,0.0057288,-0.062676,-0.018607
840,-0.014332,-0.022554,0.035985,0.060979,0.023488,-0.068924,-0.022883
841,-0.018278,-0.0087413,0.048482,0.06361,0.036971,-0.068595,-0.025514
842,-0.015648,0.01132,0.053415,0.059663,0.04026,-0.067609,-0.02354
843,-0.0067681,0.028421,0.046508,0.050784,0.034669,-0.063333,-0.021238
844,0.0014536,0.038287,0.032367,0.039931,0.024803,-0.0584,-0.021896
845,0.0044134,0.043877,0.016581,0.030394,0.018555,-0.050179,-0.025514
846,0.0024402,0.049797,0.0034268,0.025132,0.024474,-0.04097,-0.033406
847,-0.00051963,0.056046,-0.0018351,0.024474,0.037629,-0.036037,-0.041957
848,-0.0051238,0.059334,-0.004466,0.024145,0.048153,-0.038997,-0.045903
849,-0.0093991,0.061965,-0.007097,0.023488,0.048153,-0.047548,-0.04689
850,-0.011372,0.060979,-0.010057,0.024145,0.038944,-0.060373,-0.049192
851,-0.010715,0.053086,-0.013017,0.025132,0.023159,-0.072542,-0.054125
852,-0.0090702,0.039931,-0.018278,0.023817,0.0093464,-0.076817,-0.060373
853,-0.007097,0.023817,-0.025514,0.01987,-0.0015062,-0.071555,-0.064978
854,-0.0064392,0.0086887,-0.035051,0.011977,-0.0093991,-0.06432,-0.062018
855,-0.0038083,0.0011247,-0.041299,0.0021113,-0.010057,-0.05544,-0.050507
856,-0.0008485,0.002769,-0.042944,-0.0041372,-0.0018351,-0.048863,-0.034722
857,-0.00019077,0.010004,-0.038668,-0.0054526,0.0083598,-0.043601,-0.018278
858,-0.00051963,0.018884,-0.032091,-0.0051238,0.010662,-0.039655,-0.00051963
859,-0.0064392,0.028092,-0.027158,-0.0061104,-0.00051963,-0.033735,0.018555
860,-0.016634,0.0373,-0.022554,-0.007097,-0.023211,-0.027158,0.028092
861,-0.023869,0.050126,-0.018278,-0.010386,-0.044917,-0.020909,0.024474
862,-0.023869,0.060979,-0.013674,-0.013674,-0.056756,-0.012359,0.010333
863,-0.014661,0.070845,-0.010715,-0.013674,-0.054125,-0.0034794,-0.004466
864,0.0014536,0.07808,-0.011043,-0.01203,-0.038339,0.0017824,-0.014332
865,0.015595,0.079066,-0.012359,-0.0041372,-0.015976,-0.0018351,-0.016305
866,0.017568,0.073476,-0.012359,0.0080309,0.0057288,-0.011372,-0.011043
867,0.0070443,0.067227,-0.011701,0.01691,0.017239,-0.019923,0.0037556
868,-0.01203,0.062294,-0.0061104,0.019212,0.017239,-0.018936,0.025461
869,-0.026829,0.058676,0.0014536,0.016253,0.010333,-0.0084125,0.038287
870,-0.027158,0.053415,0.0070443,0.010662,0.0037556,0.0077021,0.036971
871,-0.0097279,0.049139,0.0063866,0.0057288,0.0014536,0.020199,0.028421
872,0.017568,0.045522,0.0001381,0.0030979,-0.00051963,0.024474,0.020199
873,0.039931,0.04322,-0.0074258,0.0037556,-0.0054526,0.024145,0.014608
874,0.049797,0.039602,-0.015319,0.0060577,-0.014661,0.02579,0.011648
875,0.046508,0.034011,-0.019923,0.0070443,-0.020252,0.026776,0.010662
876,0.03434,0.027434,-0.021238,0.0057288,-0.019265,0.024474,0.012964
877,0.023488,0.021186,-0.016305,0.00079584,-0.013674,0.022172,0.020199
878,0.016581,0.013622,-0.010715,-0.0031506,-0.0054526,0.020528,0.031052
879,0.014937,0.0063866,-0.010386,-0.0038083,0.0021113,0.01691,0.042891
880,0.018884,0.0011247,-0.01499,0.0001381,0.0054,0.010991,0.049139
881,0.024474,-0.0015062,-0.01795,0.0030979,0.0040845,0.0090175,0.050784
882,0.027763,-0.0008485,-0.017292,0.0014536,-0.0024928,0.013622,0.047495
883,0.023488,0.00046697,-0.014003,-0.004466,-0.014003,0.023159,0.043549
884,0.014608,-0.00051963,-0.010057,-0.013017,-0.030118,0.033354,0.044206
885,0.010662,-0.0011774,-0.0097279,-0.01795,-0.045246,0.038287,0.047495
886,0.015266,-0.0018351,-0.0097279,-0.016634,-0.048863,0.035985,0.044206
887,0.026447,-0.002164,-0.011043,-0.010057,-0.042286,0.029078,0.029407
888,0.04026,-0.0031506,-0.01203,-0.0034794,-0.031104,0.021843,0.011648
889,0.050126,-0.0047949,-0.011701,-0.002164,-0.019265,0.018555,0.00046697
890,0.051441,-0.0038083,-0.011372,-0.007097,-0.0084125,0.01691,0.00079584
891,0.047166,-0.0008485,-0.013674,-0.013674,-0.0041372,0.015924,0.010662
892,0.041575,0.00079584,-0.015319,-0.01795,-0.0038083,0.015266,0.020199
893,0.040918,0.0017824,-0.014003,-0.018936,-0.0047949,0.012635,0.023817
894,0.041247,0.0021113,-0.010386,-0.016634,-0.0054526,0.011648,0.014608
895,0.040589,0.0014536,-0.0054526,-0.011701,-0.0087413,0.010004,-0.004466
896,0.040918,-0.002164,-0.0038083,-0.0061104,-0.011701,0.0080309,-0.019265
897,0.041247,-0.010386,-0.0080836,-0.0028217,-0.011372,0.0057288,-0.022554
898,0.040589,-0.018278,-0.01499,-0.00051963,-0.0084125,0.0021113,-0.017621
899,0.041904,-0.022225,-0.018607,0.0014536,-0.0047949,-0.0024928,-0.014003
900,0.045522,-0.022554,-0.021567,0.0024402,-0.002164,-0.0067681,-0.019594
901,0.048482,-0.024527,-0.022554,0.0047422,-0.0057815,-0.0054526,-0.032749
902,0.049797,-0.0265,-0.02354,0.010004,-0.010715,0.00046697,-0.044259
903,0.048153,-0.028144,-0.022883,0.01691,-0.015976,0.0083598,-0.042615
904,0.044206,-0.031433,-0.023211,0.025132,-0.01795,0.015595,-0.025514
905,0.0373,-0.036037,-0.023869,0.034011,-0.015648,0.021514,-0.0031506
906,0.031052,-0.039655,-0.024198,0.041904,-0.010386,0.02579,0.014937
907,0.029736,-0.043601,-0.01795,0.043549,-0.0047949,0.029407,0.02283
908,0.03434,-0.045903,-0.007097,0.040918,-0.002164,0.027434,0.023159
909,0.042891,-0.047877,0.0040845,0.033354,-0.0018351,0.01987,0.023817
910,0.04881,-0.04985,0.010991,0.023817,-0.0011774,0.012306,0.028092
911,0.046837,-0.051823,0.013622,0.013951,0.0001381,0.0040845,0.030065
912,0.034669,-0.051823,0.01132,0.0054,0.0050711,-0.0038083,0.030723
913,0.017897,-0.049521,0.0050711,0.0017824,0.012306,-0.011701,0.033354
914,0.0024402,-0.044917,-0.004466,0.0034268,0.017239,-0.015976,0.0373
915,-0.0087413,-0.041957,-0.014661,0.0057288,0.016253,-0.012359,0.037629
916,-0.01499,-0.037682,-0.021238,0.0067154,0.014279,0.0011247,0.034011
917,-0.015976,-0.035051,-0.019923,0.0047422,0.014937,0.023488,0.026776
918,-0.011043,-0.034064,-0.013674,0.00046697,0.020857,0.047824,0.021186
919,-0.0034794,-0.033406,-0.0061104,-0.0034794,0.026776,0.065254,0.018884
920,0.0040845,-0.028802,-0.0011774,-0.0054526,0.027105,0.072489,0.021514
921,0.010004,-0.024856,0.0037556,-0.0034794,0.02579,0.072489,0.027763
922,0.012964,-0.024527,0.010004,-0.0024928,0.026119,0.069529,0.033354
923,0.014937,-0.024856,0.01987,-0.002164,0.024803,0.062952,0.039602
924,0.020199,-0.024198,0.02875,-0.0015062,0.016581,0.053086,0.04881
925,0.021514,-0.023211,0.035656,-0.00019077,0.0017824,0.042562,0.056046
926,0.016253,-0.018278,0.035327,0.00046697,-0.014332,0.035327,0.054072
927,0.0054,-0.0087413,0.027105,0.00046697,-0.025842,0.028421,0.043877
928,-0.0051238,0.0050711,0.017897,0.0001381,-0.032091,0.02283,0.035656
929,-0.010386,0.018555,0.016581,0.0001381,-0.034722,0.018555,0.033683
930,-0.01203,0.027763,0.021843,-0.0028217,-0.036695,0.015924,0.036642
931,-0.013345,0.035985,0.028092,-0.0047949,-0.035708,0.010991,0.036314
932,-0.016963,0.041904,0.03434,-0.0051238,-0.032091,0.0044134,0.033025
933,-0.020909,0.047495,0.036642,-0.0041372,-0.025185,-0.0008485,0.030723
934,-0.026171,0.051113,0.038287,-0.0031506,-0.016634,-0.0024928,0.030065
935,-0.029131,0.051113,0.036971,-0.0074258,-0.0084125,0.0001381,0.030394
936,-0.029789,0.044206,0.031381,-0.01203,-0.0015062,0.0070443,0.032038
937,-0.028144,0.034669,0.021514,-0.01795,0.00079584,0.010662,0.03434
938,-0.022883,0.032038,0.010662,-0.024198,-0.0041372,0.011648,0.033025
939,-0.01499,0.037629,0.002769,-0.0265,-0.015976,0.013293,0.031709
940,-0.007097,0.048482,0.00046697,-0.02354,-0.027816,0.018226,0.032696
941,-0.0064392,0.056046,0.002769,-0.017621,-0.033735,0.021186,0.035656
942,-0.015648,0.059663,0.0073732,-0.0097279,-0.032091,0.018226,0.040589
943,-0.030775,0.058019,0.014279,0.00046697,-0.027487,0.011977,0.04322
944,-0.045246,0.051441,0.019212,0.010662,-0.02354,0.0021113,0.037629
945,-0.052152,0.040918,0.017239,0.020528,-0.019594,-0.004466,0.026447
946,-0.048534,0.029078,0.0093464,0.029407,-0.01795,-0.0054526,0.015924
947,-0.038339,0.020528,0.0011247,0.036971,-0.021567,-0.0008485,0.0096753
948,-0.031433,0.020199,-0.0057815,0.035985,-0.030118,0.0090175,0.0070443
949,-0.02946,0.026447,-0.010057,0.024145,-0.040641,0.020199,0.0047422
950,-0.031433,0.0373,-0.0061104,0.0063866,-0.04689,0.034998,0.0011247
951,-0.034064,0.044535,0.002769,-0.01499,-0.049192,0.047495,-0.004466
952,-0.037682,0.045193,0.0086887,-0.034393,-0.051165,0.054072,-0.011043
953,-0.039984,0.043549,0.010991,-0.048205,-0.054125,0.055717,-0.021896
954,-0.038997,0.044206,0.010662,-0.054125,-0.056427,0.051113,-0.028802
955,-0.036366,0.048482,0.0096753,-0.053138,-0.056098,0.046508,-0.026829
956,-0.033406,0.051441,0.0073732,-0.047548,-0.053796,0.043877,-0.014332
957,-0.032091,0.05177,0.0054,-0.038011,-0.047877,0.040918,0.0057288
958,-0.03242,0.048153,0.0067154,-0.028144,-0.039984,0.0373,0.026119
959,-0.031433,0.040589,0.0073732,-0.020581,-0.033078,0.033354,0.039931
960,-0.030775,0.029078,0.0054,-0.015648,-0.031104,0.027763,0.044206
961,-0.029789,0.015924,0.0034268,-0.013674,-0.033078,0.01987,0.043549
962,-0.028802,0.0060577,0.0011247,-0.010715,-0.03538,0.0080309,0.041247
963,-0.024527,-0.00019077,0.0011247,-0.0080836,-0.029789,-0.0093991,0.037958
964,-0.017292,-0.004466,0.0017824,-0.0047949,-0.015648,-0.028473,0.034998
965,-0.0074258,-0.0074258,0.0057288,-0.00019077,0.00079584,-0.044917,0.030065
966,0.002769,-0.0074258,0.0096753,0.0054,0.012964,-0.056098,0.023488
967,0.0093464,-0.0051238,0.010662,0.01132,0.018884,-0.057085,0.014608
968,0.010991,-0.0008485,0.01132,0.01987,0.022172,-0.050836,0.0060577
969,0.010004,0.0037556,0.0093464,0.028092,0.028421,-0.044588,-0.0061104
970,0.0077021,0.0060577,0.0070443,0.031381,0.036314,-0.04393,-0.020252
971,0.0070443,0.0040845,-0.00051963,0.026776,0.045522,-0.045574,-0.034064
972,0.0067154,-0.00051963,-0.010386,0.018226,0.052099,-0.048863,-0.042286
973,0.0040845,-0.0057815,-0.018278,0.010662,0.054072,-0.05281,-0.046232
974,-0.0015062,-0.014661,-0.020252,0.0001381,0.049797,-0.056427,-0.045903
975,-0.0061104,-0.023211,-0.017621,-0.010386,0.040918,-0.057743,-0.041628
976,-0.011043,-0.032091,-0.014332,-0.017621,0.029736,-0.057085,-0.033078
977,-0.016305,-0.038011,-0.013345,-0.016963,0.02283,-0.060373,-0.024527
978,-0.018607,-0.038668,-0.014661,-0.0087413,0.023488,-0.066951,-0.018936
979,-0.014003,-0.035708,-0.016634,0.0060577,0.02283,-0.072542,-0.022225
980,-0.0054526,-0.030775,-0.014332,0.017897,0.020857,-0.07024,-0.027487
981,0.0024402,-0.025514,-0.010386,0.025461,0.014279,-0.0584,-0.025185
982,0.0080309,-0.020581,-0.0054526,0.029078,0.0070443,-0.039984,-0.015648
983,0.013622,-0.015976,-0.0008485,0.030065,0.0030979,-0.021238,-0.0041372
984,0.018555,-0.013017,0.0017824,0.02875,0.0073732,-0.013017,0.0060577
985,0.019212,-0.013017,0.0014536,0.027434,0.014937,-0.013674,0.011648
986,0.013293,-0.015976,-0.0008485,0.028092,0.022501,-0.019265,0.01132
987,0.002769,-0.018607,-0.0047949,0.032696,0.030394,-0.024856,0.0080309
988,-0.0090702,-0.018607,-0.0054526,0.036971,0.039602,-0.022883,0.0030979
989,-0.021896,-0.018278,-0.002164,0.039602,0.049797,-0.013345,-0.0051238
990,-0.033406,-0.018278,0.002769,0.041575,0.057032,0.0001381,-0.017292
991,-0.039326,-0.021238,0.0054,0.041575,0.059663,0.0096753,-0.028473
992,-0.039326,-0.02354,0.002769,0.040918,0.054401,0.012635,-0.034064
993,-0.033078,-0.023211,-0.0038083,0.040918,0.046837,0.0067154,-0.031433
994,-0.023211,-0.02354,-0.011701,0.043549,0.04026,-0.013017,-0.021896
995,-0.016305,-0.025514,-0.01795,0.049468,0.033354,-0.037682,-0.0090702
996,-0.013674,-0.027158,-0.019923,0.053743,0.027105,-0.054783,0.0044134
997,-0.013345,-0.027158,-0.018936,0.052428,0.022172,-0.057743,0.018555
998,-0.017292,-0.024856,-0.016634,0.047495,0.017897,-0.050507,0.033025
999,-0.020909,-0.02354,-0.016634,0.041247,0.013951,-0.040313,0.044206
1000,-0.021896,-0.020252,-0.014003,0.037629,0.0086887,-0.037024,0.045522
1001,-0.015976,-0.014661,-0.011043,0.038287,0.0067154,-0.039326,0.039602
1002,-0.007097,-0.0061104,-0.0077547,0.04026,0.0086887,-0.046561,0.030394
1003,0.0034268,0.0034268,-0.0057815,0.04026,0.010662,-0.04985,0.021843
1004,0.015266,0.0090175,-0.0041372,0.038944,0.0090175,-0.044259,0.01691
1005,0.029736,0.0093464,-0.0034794,0.037629,0.0040845,-0.028473,0.01691
1006,0.042562,0.0054,-0.0093991,0.038944,-0.0015062,-0.012359,0.016581
1007,0.045851,-0.0028217,-0.020581,0.038287,-0.0054526,-0.0047949,0.010991
1008,0.036642,-0.0077547,-0.030447,0.035656,-0.007097,-0.004466,0.002769
1009,0.021514,-0.0054526,-0.03242,0.030723,-0.007097,-0.0093991,-0.0028217
1010,0.0080309,0.0017824,-0.024856,0.024474,-0.0061104,-0.011043,-0.0038083
1011,0.0021113,0.011648,-0.014003,0.016253,-0.0018351,-0.0084125,-0.0015062
1012,0.0060577,0.01987,-0.0057815,0.0063866,0.00046697,-0.004466,0.0060577
1013,0.016253,0.023488,-0.0041372,-0.0031506,0.00079584,0.00046697,0.016253
1014,0.024145,0.026447,-0.010057,-0.0077547,0.0021113,0.0060577,0.029078
1015,0.025461,0.032696,-0.020909,-0.0047949,0.0070443,0.012306,0.041247
1016,0.024145,0.040918,-0.030775,0.0030979,0.013293,0.013293,0.05177
1017,0.024145,0.044864,-0.034393,0.0090175,0.015266,0.0090175,0.057032
1018,0.023488,0.042891,-0.032091,0.012306,0.0073732,0.0054,0.053086
1019,0.021186,0.03434,-0.025842,0.015266,-0.010386,0.0047422,0.040589
1020,0.020199,0.02579,-0.01795,0.018884,-0.035708,0.0044134,0.024803
1021,0.018555,0.020857,-0.0097279,0.018884,-0.0584,0.002769,0.010662
1022,0.01691,0.022501,-0.0031506,0.013293,-0.070568,-0.0008485,-0.0051238
1023,0.013951,0.029078,0.0001381,0.0034268,-0.069253,-0.0054526,-0.023211
1024,0.014608,0.036971,0.0021113,-0.0074258,-0.057085,-0.0084125,-0.040313
1025,0.021843,0.042891,0.0014536,-0.021896,-0.040641,-0.0077547,-0.044259
1026,0.029736,0.045193,0.0017824,-0.033078,-0.022883,-0.0028217,-0.030447
1027,0.032038,0.045522,0.002769,-0.037682,-0.0061104,0.0040845,-0.0054526
1028,0.025132,0.04618,0.0047422,-0.032749,0.0040845,0.0073732,0.019212
1029,0.010662,0.046837,0.0070443,-0.022883,0.0034268,0.0011247,0.035985
1030,-0.0067681,0.048153,0.0054,-0.012359,-0.0061104,-0.011701,0.041904
1031,-0.022225,0.047824,0.00079584,-0.0047949,-0.013674,-0.027816,0.0373
1032,-0.036037,0.044864,-0.0061104,0.00079584,-0.012688,-0.040313,0.024803
1033,-0.044259,0.042562,-0.010386,0.0063866,-0.0067681,-0.045903,0.0093464
1034,-0.045246,0.044535,-0.0077547,0.0093464,0.00046697,-0.041628,-0.00019077
1035,-0.041299,0.049139,0.0011247,0.010004,0.0044134,-0.02946,0.0024402
1036,-0.033406,0.053086,0.012306,0.0073732,0.0014536,-0.013674,0.01691
1037,-0.025842,0.05177,0.017239,0.0044134,-0.0057815,0.0021113,0.035327
1038,-0.021567,0.045851,0.013951,0.0063866,-0.011043,0.014937,0.04881
1039,-0.019594,0.039931,0.0011247,0.015266,-0.0087413,0.018555,0.053086
1040,-0.015976,0.036642,-0.014661,0.025132,0.0017824,0.014279,0.049797
1041,-0.0093991,0.035327,-0.0265,0.029736,0.0093464,0.0070443,0.04618
1042,-0.0018351,0.035327,-0.028802,0.025132,0.0083598,0.0070443,0.042891
1043,0.0030979,0.032367,-0.023869,0.013951,-0.00051963,0.014937,0.033683
1044,0.0060577,0.02875,-0.01795,0.0014536,-0.013345,0.032367,0.024145
1045,0.0093464,0.027434,-0.014332,-0.0080836,-0.023869,0.053086,0.018226
1046,0.010662,0.027105,-0.013017,-0.013674,-0.0265,0.067556,0.012964
1047,0.010662,0.027434,-0.010715,-0.015976,-0.018936,0.07216,0.0073732
1048,0.0077021,0.029736,-0.0077547,-0.015976,-0.0057815,0.071173,0.00046697
1049,0.0037556,0.031709,-0.0034794,-0.012688,0.0054,0.066569,-0.0064392
1050,0.0034268,0.033354,0.0011247,-0.0090702,0.0067154,0.062952,-0.010386
1051,0.0067154,0.03434,0.0057288,-0.0061104,0.0014536,0.063938,-0.007097
1052,0.010991,0.029736,0.010333,-0.0061104,-0.0061104,0.066569,0.0021113
1053,0.015924,0.020528,0.013622,-0.0057815,-0.01203,0.07216,0.014937
1054,0.017239,0.0096753,0.015595,-0.0067681,-0.011701,0.081039,0.023488
1055,0.011977,-0.0051238,0.013293,-0.0087413,-0.0093991,0.088275,0.027434
1056,0.0011247,-0.018607,0.0083598,-0.012688,-0.0093991,0.08959,0.029736
1057,-0.014661,-0.027487,0.0030979,-0.012688,-0.012688,0.083999,0.029078
1058,-0.031104,-0.031433,-0.0018351,-0.0074258,-0.017621,0.068543,0.023488
1059,-0.041299,-0.031104,-0.0034794,-0.00019077,-0.021567,0.043549,0.01132
1060,-0.045574,-0.032091,-0.0018351,0.0073732,-0.025514,0.014937,-0.0041372
1061,-0.046561,-0.037353,0.0014536,0.014279,-0.029789,-0.0057815,-0.016305
1062,-0.046561,-0.048205,0.0054,0.018226,-0.03538,-0.015319,-0.021896
1063,-0.044588,-0.062347,0.0070443,0.021186,-0.037682,-0.016305,-0.019265
1064,-0.039984,-0.078461,0.0083598,0.025132,-0.031762,-0.016963,-0.010386
1065,-0.034722,-0.092603,0.0070443,0.028092,-0.016305,-0.018278,-0.0067681
1066,-0.031104,-0.10543,0.0054,0.02579,0.0001381,-0.020909,-0.01499
1067,-0.032749,-0.11661,0.0034268,0.020199,0.0093464,-0.019265,-0.032749
1068,-0.042615,-0.12976,0.0017824,0.015266,0.0096753,-0.016634,-0.051494
1069,-0.05544,-0.14292,0.00079584,0.0090175,0.0060577,-0.014661,-0.06432
1070,-0.062676,-0.15213,-0.0015062,0.0054,0.0034268,-0.016305,-0.067937
1071,-0.060045,-0.15147,-0.0047949,0.0060577,0.0011247,-0.018278,-0.06728
1072,-0.051165,-0.14062,-0.0084125,0.0096753,-0.002164,-0.019923,-0.065307
1073,-0.041299,-0.12089,-0.010715,0.015924,-0.0067681,-0.019923,-0.060702
1074,-0.034064,-0.09622,-0.01203,0.02579,-0.013345,-0.017621,-0.054125
1075,-0.028473,-0.072213,-0.013017,0.035656,-0.020581,-0.017292,-0.045574
1076,-0.020909,-0.049192,-0.013345,0.044535,-0.022554,-0.021567,-0.039326
1077,-0.011701,-0.033735,-0.01499,0.053086,-0.016634,-0.027487,-0.036366
1078,-0.0008485,-0.024856,-0.018278,0.056374,-0.0028217,-0.034722,-0.038668
1079,0.012306,-0.021896,-0.020581,0.049468,0.0096753,-0.041628,-0.040641
1080,0.02579,-0.017621,-0.019594,0.037629,0.014608,-0.04393,-0.034722
1081,0.036314,-0.013017,-0.013017,0.029736,0.0077021,-0.036695,-0.020581
1082,0.037958,-0.0067681,0.0001381,0.029736,-0.0077547,-0.025514,-0.0051238
1083,0.03434,-0.00051963,0.015924,0.031381,-0.022554,-0.019265,0.0030979
1084,0.030723,0.0073732,0.031709,0.032367,-0.025185,-0.021238,-0.00051963
1085,0.033683,0.01691,0.044535,0.031052,-0.016634,-0.031104,-0.010386
1086,0.037629,0.02579,0.051113,0.029078,-0.0024928,-0.044588,-0.018936
1087,0.038616,0.034011,0.047824,0.027434,0.01132,-0.054454,-0.024856
1088,0.039273,0.037958,0.038616,0.026776,0.014279,-0.056427,-0.024856
1089,0.042233,0.0373,0.030065,0.025461,0.0054,-0.050507,-0.018936
1090,0.048153,0.034669,0.020528,0.01987,-0.011701,-0.039984,-0.01203
1091,0.056046,0.035985,0.01132,0.010662,-0.028473,-0.03242,-0.0057815
1092,0.06065,0.045193,0.0001381,0.0014536,-0.037024,-0.030775,-0.0038083
1093,0.064596,0.059005,-0.011043,-0.004466,-0.038339,-0.02946,-0.010386
1094,0.068543,0.070845,-0.018278,-0.0054526,-0.034722,-0.028473,-0.021567
1095,0.071831,0.07808,-0.018278,-0.0031506,-0.02946,-0.028473,-0.028473
1096,0.072818,0.080711,-0.014003,-0.0018351,-0.024198,-0.030118,-0.029789
1097,0.071831,0.079066,-0.0067681,-0.0038083,-0.020252,-0.02946,-0.023869
1098,0.070187,0.077093,0.0011247,-0.0097279,-0.020252,-0.022883,-0.014003
1099,0.066898,0.075778,0.0073732,-0.018936,-0.020252,-0.013017,0.0011247
1100,0.067885,0.076106,0.0086887,-0.027487,-0.02354,-0.0024928,0.017239
1101,0.070187,0.077751,0.0034268,-0.033078,-0.024856,0.0093464,0.024145
1102,0.076106,0.081039,-0.0038083,-0.037024,-0.024198,0.022172,0.01987
1103,0.080711,0.079066,-0.0093991,-0.038997,-0.017621,0.030065,0.010662
1104,0.07808,0.07512,-0.0097279,-0.036366,-0.0051238,0.031381,0.002769
1105,0.0692,0.07216,-0.0084125,-0.030118,0.011648,0.023159,0.0040845
1106,0.056703,0.07216,-0.0067681,-0.021238,0.025132,0.011977,0.016581
1107,0.040918,0.071173,-0.0057815,-0.013017,0.030394,0.0057288,0.031381
1108,0.022501,0.0692,-0.0051238,-0.011372,0.028092,0.0063866,0.04026
1109,0.0030979,0.064596,-0.004466,-0.018278,0.019541,0.012635,0.040918
1110,-0.010386,0.056703,-0.002164,-0.02946,0.0080309,0.020857,0.032696
1111,-0.011372,0.046837,-0.00051963,-0.039655,-0.0074258,0.022501,0.023488
1112,-0.002164,0.039931,0.0021113,-0.045903,-0.024527,0.014279,0.018884
1113,0.010662,0.038287,0.0073732,-0.04985,-0.039326,-0.0054526,0.021843
1114,0.017897,0.040589,0.01691,-0.048205,-0.04985,-0.030775,0.032367
1115,0.017239,0.043549,0.029078,-0.043601,-0.051494,-0.050179,0.049139
1116,0.010991,0.045193,0.042891,-0.04097,-0.046561,-0.055112,0.068214
1117,0.0063866,0.044206,0.04881,-0.041628,-0.040313,-0.047548,0.080382
1118,0.0044134,0.046837,0.044535,-0.048205,-0.034722,-0.031762,0.078409
1119,0.0044134,0.054401,0.03434,-0.053467,-0.033735,-0.011043,0.060979
1120,0.0080309,0.069529,0.022501,-0.055112,-0.035708,0.0073732,0.037629
1121,0.012306,0.087617,0.011648,-0.050179,-0.039326,0.01691,0.019541
1122,0.017239,0.10044,0.002769,-0.041957,-0.038339,0.019212,0.014937
1123,0.01987,0.10209,-0.0047949,-0.031104,-0.036366,0.017239,0.025132
1124,0.018555,0.091234,-0.011043,-0.019265,-0.032749,0.012635,0.039931
1125,0.01132,0.071502,-0.016963,-0.0047949,-0.029131,0.0060577,0.050455
1126,0.0017824,0.050455,-0.020909,0.0083598,-0.024527,0.0001381,0.055717
1127,-0.0064392,0.034011,-0.02354,0.020199,-0.019594,-0.002164,0.058676
1128,-0.011372,0.02283,-0.022883,0.029736,-0.013345,0.0001381,0.058676
1129,-0.016963,0.017239,-0.022554,0.035327,-0.0090702,0.0060577,0.053415
1130,-0.022883,0.012964,-0.02354,0.038287,-0.004466,0.014937,0.04322
1131,-0.027816,0.0096753,-0.026171,0.040589,0.0021113,0.020528,0.034998
1132,-0.03242,0.010662,-0.025514,0.039273,0.0067154,0.018226,0.0373
1133,-0.035051,0.014608,-0.019923,0.034669,0.0044134,0.011648,0.044864
1134,-0.036366,0.015924,-0.011701,0.027763,-0.0034794,0.0096753,0.048482
1135,-0.033735,0.010662,-0.0087413,0.023159,-0.011701,0.012964,0.038944
1136,-0.026171,-0.0038083,-0.014003,0.02283,-0.015319,0.018226,0.02283
1137,-0.017621,-0.022225,-0.021896,0.024145,-0.01499,0.020528,0.013293
1138,-0.010057,-0.039984,-0.024856,0.02579,-0.013674,0.018226,0.013951
1139,-0.0064392,-0.050836,-0.023211,0.029407,-0.013017,0.010662,0.016581
1140,-0.0077547,-0.049192,-0.022554,0.035656,-0.013345,0.0001381,0.0060577
1141,-0.01499,-0.040641,-0.026829,0.041575,-0.0097279,-0.014332,-0.019923
1142,-0.024198,-0.029789,-0.031433,0.042562,-0.0024928,-0.0265,-0.050836
1143,-0.0265,-0.025185,-0.036695,0.041575,0.0054,-0.032749,-0.074844
1144,-0.021238,-0.030118,-0.041299,0.042562,0.01132,-0.034064,-0.086683
1145,-0.011043,-0.042615,-0.043272,0.048482,0.013622,-0.031762,-0.088327
1146,-0.00019077,-0.057414,-0.041299,0.055717,0.010004,-0.030118,-0.08175
1147,0.0090175,-0.06728,-0.034722,0.060979,0.0060577,-0.030118,-0.070568
1148,0.014279,-0.069582,-0.028802,0.061636,0.0070443,-0.032749,-0.056756
1149,0.014279,-0.06432,-0.026171,0.065254,0.017239,-0.034064,-0.043272
1150,0.0080309,-0.05544,-0.023211,0.068214,0.031052,-0.034064,-0.033735
1151,-0.0028217,-0.045903,-0.018278,0.066569,0.041904,-0.03538,-0.024527
1152,-0.011372,-0.039326,-0.013345,0.059334,0.044864,-0.038668,-0.011701
1153,-0.018278,-0.035051,-0.0097279,0.050126,0.037629,-0.039326,-0.0031506
1154,-0.022883,-0.02946,-0.0054526,0.040918,0.023817,-0.032091,-0.0054526
1155,-0.024527,-0.025514,-0.0011774,0.0373,0.01132,-0.01499,-0.014332
1156,-0.0265,-0.02354,-0.00051963,0.037629,0.0067154,0.0096753,-0.020252
1157,-0.027487,-0.025185,-0.0031506,0.038944,0.0080309,0.033683,-0.017621
1158,-0.02354,-0.025514,-0.0064392,0.039931,0.011648,0.051441,-0.0057815
1159,-0.014332,-0.026171,-0.0041372,0.039602,0.019212,0.061965,0.012306
1160,-0.002164,-0.028802,0.0030979,0.037629,0.028421,0.071831,0.036642
1161,0.0090175,-0.034393,0.010991,0.035985,0.037629,0.080711,0.062623
1162,0.014937,-0.039655,0.015924,0.034011,0.044864,0.090248,0.085972
1163,0.013951,-0.042615,0.014937,0.030394,0.045851,0.097483,0.097812
1164,0.0054,-0.042944,0.010333,0.024474,0.041904,0.10077,0.096496
1165,-0.010386,-0.038997,0.0034268,0.019212,0.033025,0.098141,0.081697
1166,-0.029131,-0.031104,-0.0057815,0.012964,0.01987,0.088275,0.060321
1167,-0.04393,-0.016963,-0.012688,0.0047422,0.0077021,0.080382,0.040918
1168,-0.050507,0.0011247,-0.015648,-0.0031506,-0.00019077,0.076106,0.030065
1169,-0.047219,0.017897,-0.013674,-0.0080836,0.00046697,0.072489,0.03434
1170,-0.036695,0.026447,-0.0090702,-0.010386,0.012964,0.063938,0.052757
1171,-0.025185,0.026776,-0.0011774,-0.0077547,0.030394,0.050784,0.074133
1172,-0.020909,0.020528,0.0073732,-0.0024928,0.044535,0.034669,0.088932
1173,-0.024856,0.011648,0.014279,0.0011247,0.049468,0.021186,0.095839
1174,-0.030447,0.0044134,0.022172,0.0001381,0.04618,0.015924,0.095839
1175,-0.033078,-0.002164,0.02875,-0.0061104,0.040918,0.017568,0.092879
1176,-0.031762,-0.010057,0.032367,-0.014003,0.034011,0.014937,0.090248
1177,-0.028144,-0.01795,0.033354,-0.017292,0.026119,0.0001381,0.084328
1178,-0.022883,-0.023869,0.032038,-0.011043,0.020528,-0.021238,0.077093
1179,-0.019923,-0.027816,0.027105,-0.0061104,0.018226,-0.038011,0.073147
1180,-0.01795,-0.028473,0.021514,-0.0087413,0.01691,-0.041299,0.073147
1181,-0.01795,-0.027487,0.014608,-0.018607,0.016581,-0.032749,0.072489
1182,-0.021567,-0.02354,0.0073732,-0.027816,0.020857,-0.013017,0.067556
1183,-0.028802,-0.013674,0.0011247,-0.030775,0.030065,0.016253,0.059334
1184,-0.03242,-0.0041372,-0.0038083,-0.026829,0.041247,0.047495,0.054072
1185,-0.033406,-0.00051963,-0.0051238,-0.018936,0.052428,0.076435,0.054072
1186,-0.031433,-0.0051238,-0.0047949,-0.010057,0.057361,0.097483,0.058019
1187,-0.027816,-0.011372,-0.004466,-0.0047949,0.050455,0.10998,0.061965
1188,-0.020581,-0.013674,-0.0028217,-0.0024928,0.034669,0.10998,0.064925
1189,-0.013674,-0.007097,0.0024402,-0.004466,0.013622,0.096167,0.06361
1190,-0.0057815,0.0077021,0.011648,-0.011701,-0.0054526,0.078737,0.053415
1191,0.0011247,0.025132,0.017897,-0.021567,-0.017292,0.062952,0.034669
1192,0.0047422,0.038287,0.020857,-0.031104,-0.022883,0.047824,0.014279
1193,0.0037556,0.041575,0.018884,-0.037353,-0.026829,0.030723,0.0001381
1194,0.0011247,0.038616,0.014608,-0.036695,-0.035051,0.01132,-0.0057815
1195,-0.0015062,0.033354,0.0080309,-0.032091,-0.045574,-0.010057,-0.0028217
1196,-0.0057815,0.026776,-0.0008485,-0.027158,-0.050507,-0.028473,-0.00051963
1197,-0.010386,0.021186,-0.0090702,-0.024527,-0.045903,-0.041628,-0.00019077
1198,-0.011043,0.018555,-0.013674,-0.02354,-0.034064,-0.047877,-0.0008485
1199,-0.0061104,0.023488,-0.013674,-0.020252,-0.0265,-0.044917,-0.0057815
1200,0.0014536,0.033683,-0.011372,-0.014661,-0.022883,-0.040641,-0.019923
1201,0.013293,0.047824,-0.0041372,-0.0084125,-0.01795,-0.039984,-0.039984
1202,0.026447,0.058348,0.0077021,-0.0031506,-0.011043,-0.042944,-0.060045
1203,0.033683,0.061965,0.017568,-0.0018351,-0.0057815,-0.048205,-0.071226
1204,0.033683,0.057032,0.023159,-0.0054526,-0.0084125,-0.051823,-0.072542
1205,0.026119,0.050784,0.021843,-0.0087413,-0.018936,-0.052481,-0.06432
1206,0.015924,0.047495,0.017897,-0.011372,-0.028802,-0.050836,-0.052481
1207,0.0060577,0.047166,0.016581,-0.0097279,-0.029789,-0.051165,-0.041957
1208,-0.0011774,0.049797,0.018555,-0.0064392,-0.022883,-0.053796,-0.041628
1209,-0.0038083,0.052428,0.021514,-0.002164,-0.015648,-0.053796,-0.048534
1210,-0.0034794,0.049139,0.023817,0.0060577,-0.013017,-0.052152,-0.057085
1211,-0.0024928,0.039273,0.023159,0.01691,-0.014003,-0.048205,-0.059716
1212,-0.002164,0.025132,0.017897,0.023817,-0.017621,-0.044917,-0.054125
1213,0.0001381,0.011648,0.010991,0.021186,-0.021896,-0.048863,-0.042615
1214,0.0030979,0.0047422,0.0024402,0.010991,-0.018936,-0.058729,-0.033406
1215,0.0054,0.0040845,-0.002164,0.0017824,-0.0077547,-0.073857,-0.032091
1216,0.0080309,0.0060577,0.00046697,-0.0011774,0.0050711,-0.085367,-0.038668
1217,0.013293,0.0070443,0.0080309,0.0017824,0.016581,-0.088327,-0.044588
1218,0.01987,0.0021113,0.017897,0.0070443,0.025132,-0.07879,-0.044259
1219,0.023159,-0.011701,0.026447,0.0077021,0.026776,-0.063662,-0.038668
1220,0.018555,-0.027158,0.028092,0.0070443,0.02283,-0.050179,-0.030118
1221,0.010004,-0.038997,0.022501,0.010333,0.014937,-0.039326,-0.021567
1222,0.0070443,-0.041957,0.013293,0.019541,0.0047422,-0.033735,-0.015319
1223,0.0093464,-0.036366,0.0060577,0.03434,-0.002164,-0.031762,-0.013017
1224,0.014608,-0.028144,0.00046697,0.049139,-0.0080836,-0.034722,-0.014661
1225,0.019212,-0.023211,-0.002164,0.056703,-0.015319,-0.041957,-0.016634
1226,0.020857,-0.025185,-0.0015062,0.054072,-0.021567,-0.053138,-0.02354
1227,0.02283,-0.033078,0.00079584,0.044864,-0.023869,-0.063004,-0.033406
1228,0.021843,-0.04393,0.0021113,0.036314,-0.022554,-0.066951,-0.045246
1229,0.020857,-0.053138,0.0014536,0.032038,-0.022883,-0.06728,-0.056756
1230,0.019212,-0.062018,-0.00019077,0.032367,-0.024527,-0.065635,-0.067937
1231,0.014608,-0.06728,-0.002164,0.036314,-0.023211,-0.065964,-0.071555
1232,0.0080309,-0.069582,-0.0034794,0.042891,-0.018607,-0.066622,-0.066951
1233,0.0073732,-0.066293,-0.0051238,0.049139,-0.01499,-0.060702,-0.054125
1234,0.014279,-0.057743,-0.0051238,0.04881,-0.015976,-0.049521,-0.036366
1235,0.030065,-0.049192,-0.0028217,0.042891,-0.019594,-0.034393,-0.023211
1236,0.044535,-0.042615,-0.00019077,0.032696,-0.025842,-0.02354,-0.019923
1237,0.052428,-0.036037,0.0030979,0.026447,-0.032749,-0.017292,-0.024856
1238,0.049468,-0.024527,0.0057288,0.023159,-0.039326,-0.011372,-0.036037
1239,0.041247,-0.010386,0.0044134,0.020199,-0.047877,-0.0067681,-0.045903
1240,0.031709,0.0021113,0.0001381,0.01691,-0.056427,-0.0011774,-0.044917
1241,0.023817,0.0060577,-0.0054526,0.011977,-0.059058,0.0040845,-0.034393
1242,0.018555,0.0024402,-0.0097279,0.0063866,-0.054783,0.0060577,-0.024527
1243,0.015595,-0.0034794,-0.011043,0.0017824,-0.050836,-0.0008485,-0.021896
1244,0.010991,-0.0077547,-0.0090702,-0.0051238,-0.049192,-0.015648,-0.027816
1245,0.0057288,-0.0034794,-0.0034794,-0.014332,-0.046561,-0.033735,-0.033735
1246,-0.0015062,0.0054,0.0034268,-0.024856,-0.038668,-0.051494,-0.033078
1247,-0.0051238,0.015595,0.0090175,-0.028802,-0.027816,-0.06136,-0.022554
1248,-0.0015062,0.023159,0.012306,-0.024527,-0.017292,-0.061689,-0.0047949
1249,0.0047422,0.027763,0.011977,-0.014003,-0.01203,-0.051165,0.012306
1250,0.0083598,0.028092,0.0070443,-0.004466,-0.01203,-0.036037,0.026776
1251,0.010662,0.026776,0.0017824,0.0030979,-0.016305,-0.021896,0.036314
1252,0.010662,0.026119,-0.0008485,0.010662,-0.025514,-0.0093991,0.041247
1253,0.0083598,0.031052,-0.00019077,0.018226,-0.034064,0.00046697,0.042233
1254,0.0057288,0.038616,0.00079584,0.023159,-0.036037,0.0070443,0.041247
1255,0.0070443,0.047495,-0.0018351,0.024145,-0.03242,0.0096753,0.032696
1256,0.01132,0.050455,-0.007097,0.018555,-0.021567,0.010333,0.018884
1257,0.016581,0.046837,-0.013017,0.0054,-0.0090702,0.0086887,0.0024402
1258,0.019212,0.038944,-0.018936,-0.011043,0.0014536,0.0040845,-0.0087413
1259,0.018226,0.031381,-0.02354,-0.025514,0.0073732,-0.0015062,-0.012359
1260,0.015595,0.026776,-0.027487,-0.03242,0.0030979,-0.0057815,-0.0084125
1261,0.0093464,0.028421,-0.032749,-0.03538,-0.004466,-0.007097,-0.0011774
1262,0.0017824,0.037629,-0.038011,-0.037682,-0.0067681,-0.0054526,0.0086887
1263,-0.0054526,0.048153,-0.039984,-0.042286,-0.0028217,-0.0034794,0.022501
1264,-0.010386,0.055717,-0.038339,-0.045903,0.0017824,-0.002164,0.031709
1265,-0.011701,0.05769,-0.035708,-0.047548,0.0001381,-0.0034794,0.032038
1266,-0.0097279,0.056374,-0.032091,-0.045574,-0.0061104,-0.0061104,0.027105
1267,-0.011701,0.056046,-0.028473,-0.041628,-0.011043,-0.010386,0.018884
1268,-0.017621,0.057361,-0.026171,-0.039326,-0.011701,-0.010715,0.0054
1269,-0.027487,0.060979,-0.024856,-0.036366,-0.010715,-0.0074258,-0.01203
1270,-0.036695,0.064925,-0.023211,-0.03538,-0.013674,-0.0031506,-0.025514
1271,-0.042286,0.068543,-0.021238,-0.035708,-0.019265,-0.002164,-0.030775
1272,-0.040641,0.066569,-0.017292,-0.038997,-0.021238,-0.0028217,-0.028802
1273,-0.038011,0.059992,-0.013345,-0.039984,-0.019594,0.00046697,-0.022883
1274,-0.034064,0.048482,-0.011701,-0.039326,-0.010057,0.010333,-0.013674
1275,-0.026829,0.03434,-0.012359,-0.034722,0.0060577,0.02283,0.0011247
1276,-0.017292,0.017897,-0.014003,-0.027816,0.023817,0.030723,0.023817
1277,-0.0051238,0.0054,-0.016634,-0.022554,0.036971,0.032696,0.053743
1278,0.0073732,0.00079584,-0.020909,-0.020252,0.044206,0.031381,0.08367
1279,0.014937,0.0057288,-0.022883,-0.019265,0.049468,0.033025,0.1057
1280,0.014937,0.017897,-0.020252,-0.019594,0.04881,0.041247,0.11919
1281,0.011977,0.032367,-0.016305,-0.018936,0.042233,0.05177,0.12379
1282,0.0096753,0.043549,-0.014003,-0.014003,0.028092,0.058676,0.12379
1283,0.0083598,0.044864,-0.014332,-0.0067681,0.014937,0.06065,0.12248
1284,0.0073732,0.036971,-0.01499,0.0011247,0.011977,0.061636,0.12182
1285,0.0090175,0.026447,-0.016305,0.0073732,0.018226,0.059663,0.12313
1286,0.010662,0.018226,-0.019265,0.0047422,0.027105,0.055059,0.12478
1287,0.0070443,0.012964,-0.018278,-0.0041372,0.033354,0.045851,0.12313
1288,-0.0018351,0.0093464,-0.015319,-0.010386,0.03434,0.036314,0.11787
1289,-0.010057,0.0070443,-0.011701,-0.0084125,0.030723,0.034011,0.11162
1290,-0.014661,0.0050711,-0.010057,-0.00019077,0.023817,0.041575,0.10406
1291,-0.015319,0.0037556,-0.014003,0.0090175,0.015266,0.052428,0.096825
1292,-0.01499,0.0021113,-0.019265,0.016253,0.013622,0.061965,0.093536
1293,-0.013674,-0.0011774,-0.021238,0.020199,0.017568,0.07512,0.093208
1294,-0.0084125,-0.0074258,-0.018936,0.02283,0.027105,0.092879,0.093208
1295,-0.002164,-0.019594,-0.013674,0.026447,0.036971,0.1159,0.093536
1296,0.0063866,-0.034722,-0.0064392,0.033025,0.042891,0.14188,0.091234
1297,0.014937,-0.046561,-0.00051963,0.042562,0.046837,0.16194,0.081368
1298,0.020857,-0.050836,0.002769,0.049139,0.04618,0.16885,0.067227
1299,0.021843,-0.048205,0.0044134,0.054072,0.040589,0.15635,0.050455
1300,0.022172,-0.039326,0.0034268,0.059005,0.033025,0.13136,0.02875
1301,0.020199,-0.030447,-0.00051963,0.059992,0.025461,0.10143,0.0021113
1302,0.015266,-0.024198,-0.0051238,0.054401,0.018555,0.072818,-0.025185
1303,0.0090175,-0.019594,-0.0067681,0.04322,0.015266,0.052099,-0.047548
1304,-0.0018351,-0.017621,-0.010057,0.034669,0.011648,0.036642,-0.057743
1305,-0.018607,-0.016305,-0.014003,0.032696,-0.00019077,0.024145,-0.056098
1306,-0.039326,-0.015319,-0.018607,0.039602,-0.019265,0.011977,-0.050179
1307,-0.056427,-0.015648,-0.022554,0.05177,-0.034393,-0.0011774,-0.048863
1308,-0.063991,-0.014332,-0.022883,0.062952,-0.039655,-0.014332,-0.05544
1309,-0.06136,-0.012359,-0.018278,0.071502,-0.035051,-0.025185,-0.065307
1310,-0.048534,-0.0087413,-0.011701,0.078409,-0.0265,-0.031762,-0.070568
1311,-0.033078,-0.0051238,-0.0057815,0.080053,-0.020581,-0.034064,-0.070897
1312,-0.023211,-0.0028217,-0.0008485,0.077751,-0.02354,-0.036366,-0.063662
1313,-0.020581,-0.0015062,0.0060577,0.072818,-0.03242,-0.038011,-0.049521
1314,-0.020909,-0.0061104,0.012964,0.068214,-0.040313,-0.037682,-0.029789
1315,-0.011701,-0.018278,0.017239,0.065912,-0.04097,-0.03538,-0.010057
1316,0.0057288,-0.03242,0.017239,0.065254,-0.036695,-0.031433,0.0050711
1317,0.022501,-0.043272,0.013622,0.069529,-0.032749,-0.024527,0.014608
1318,0.031381,-0.045246,0.0086887,0.076435,-0.034064,-0.016963,0.020199
1319,0.029407,-0.037682,0.0044134,0.080053,-0.042944,-0.011372,0.023817
1320,0.01987,-0.027816,0.0030979,0.078409,-0.051165,-0.01203,0.026447
1321,0.0070443,-0.02354,0.0073732,0.073476,-0.053796,-0.021567,0.028092
1322,-0.0061104,-0.025514,0.014937,0.065912,-0.048205,-0.039984,0.027434
1323,-0.014003,-0.031104,0.021514,0.060979,-0.035708,-0.05544,0.027763
1324,-0.015648,-0.034393,0.023159,0.058348,-0.018936,-0.060702,0.029078
1325,-0.011701,-0.032091,0.023488,0.056046,-0.002164,-0.051494,0.029407
1326,-0.0087413,-0.024856,0.024474,0.054401,0.0083598,-0.034064,0.026119
1327,-0.010386,-0.014003,0.024803,0.052099,0.010991,-0.020252,0.018555
1328,-0.014661,-0.00019077,0.020857,0.046837,0.0093464,-0.016963,0.0040845
1329,-0.021896,0.011977,0.012964,0.037958,0.0044134,-0.021238,-0.012359
1330,-0.024856,0.016581,0.0054,0.029736,0.0001381,-0.030118,-0.023869
1331,-0.022225,0.016581,0.00046697,0.023159,-0.0031506,-0.038011,-0.028473
1332,-0.01795,0.018226,0.00046697,0.018884,-0.0057815,-0.042615,-0.026171
1333,-0.014332,0.023159,0.0047422,0.014608,-0.010715,-0.04393,-0.020252
1334,-0.014003,0.033683,0.01132,0.0044134,-0.017621,-0.036366,-0.011372
1335,-0.011701,0.047824,0.015595,-0.0047949,-0.022225,-0.025514,-0.0041372
1336,-0.0074258,0.059334,0.015595,-0.01203,-0.022554,-0.019594,-0.0047949
1337,-0.0047949,0.064596,0.010333,-0.014661,-0.018278,-0.026829,-0.01203
1338,-0.0034794,0.06361,0.0030979,-0.014332,-0.013674,-0.041628,-0.020909
1339,-0.0038083,0.058348,-0.0015062,-0.015319,-0.012359,-0.052152,-0.025185
1340,-0.0038083,0.050126,-0.0018351,-0.024527,-0.01203,-0.052481,-0.027158
1341,-0.0034794,0.041247,0.00046697,-0.036366,-0.012359,-0.047548,-0.023869
1342,-0.00051963,0.036642,0.0034268,-0.046232,-0.0097279,-0.04097,-0.01499
1343,0.0044134,0.03434,0.0047422,-0.04985,-0.0041372,-0.033078,0.00079584
1344,0.0096753,0.030723,0.0037556,-0.048863,0.0034268,-0.031762,0.022172
1345,0.012635,0.023817,0.0011247,-0.047548,0.0096753,-0.039984,0.043877
1346,0.010991,0.016581,-0.0008485,-0.047877,0.011977,-0.050507,0.055717
1347,0.0017824,0.012635,0.00079584,-0.045903,0.012635,-0.056427,0.056374
1348,-0.0097279,0.016581,0.0034268,-0.042286,0.010991,-0.056427,0.049139
1349,-0.017292,0.024474,0.0060577,-0.039984,0.011977,-0.051165,0.032367
1350,-0.018278,0.031052,0.0073732,-0.041957,0.014937,-0.044588,0.0090175
1351,-0.011701,0.031052,0.0080309,-0.044259,0.018555,-0.039984,-0.010715
1352,-0.0028217,0.024474,0.0096753,-0.044259,0.014608,-0.036037,-0.025185
1353,0.0030979,0.016581,0.0093464,-0.044259,0.0021113,-0.034722,-0.034722
1354,0.0034268,0.013622,0.0030979,-0.049192,-0.013017,-0.038668,-0.04097
1355,-0.002164,0.017897,-0.0041372,-0.057414,-0.025514,-0.045246,-0.043272
1356,-0.010057,0.028092,-0.0090702,-0.063004,-0.031762,-0.052481,-0.040313
1357,-0.018278,0.039602,-0.0097279,-0.060373,-0.034722,-0.05544,-0.031762
1358,-0.018936,0.045851,-0.0074258,-0.049521,-0.034064,-0.051165,-0.022225
1359,-0.013017,0.045522,-0.0038083,-0.034393,-0.027158,-0.040313,-0.013674
1360,-0.00019077,0.040589,-0.00019077,-0.01795,-0.012688,-0.022883,-0.0077547
1361,0.018226,0.03434,0.0040845,-0.0061104,0.0037556,-0.0018351,-0.0047949
1362,0.035656,0.028092,0.010004,-0.0011774,0.015595,0.019212,0.0030979
1363,0.04881,0.018555,0.016253,0.0001381,0.019541,0.033025,0.016253
1364,0.054401,0.0077021,0.017568,0.00046697,0.018884,0.03434,0.028421
1365,0.052099,-0.0057815,0.014608,0.0011247,0.018884,0.024145,0.035985
1366,0.044864,-0.018278,0.010991,0.0034268,0.01987,0.0093464,0.04026
1367,0.036642,-0.028144,0.0067154,0.0080309,0.022172,-0.0031506,0.040589
1368,0.027763,-0.027158,0.00046697,0.012635,0.023159,-0.0084125,0.034669
1369,0.015924,-0.015319,-0.0031506,0.017897,0.021843,-0.0054526,0.02579
1370,0.0054,0.002769,-0.0008485,0.021514,0.019541,0.0017824,0.015266
1371,0.0001381,0.018226,0.0070443,0.01987,0.019541,0.01132,0.0063866
1372,0.0054,0.026776,0.014608,0.010991,0.02283,0.017897,0.0034268
1373,0.018884,0.02579,0.01987,0.00046697,0.029736,0.01987,0.00046697
1374,0.032696,0.017897,0.021514,-0.0057815,0.034669,0.018226,-0.0047949
1375,0.04026,0.0070443,0.020528,-0.0047949,0.035985,0.014279,-0.010715
1376,0.039931,-0.0057815,0.018884,0.0030979,0.035327,0.010991,-0.01795
1377,0.034998,-0.014003,0.018884,0.016253,0.029736,0.0086887,-0.025185
1378,0.032038,-0.017621,0.016581,0.032038,0.01691,0.010333,-0.031433
1379,0.028421,-0.019594,0.010004,0.044535,0.0017824,0.014279,-0.031762
1380,0.023817,-0.022225,0.0044134,0.053415,-0.011043,0.017897,-0.0265
1381,0.018555,-0.024527,0.0001381,0.059334,-0.019923,0.018884,-0.020909
1382,0.011977,-0.025185,-0.0031506,0.061636,-0.024527,0.01691,-0.019594
1383,0.0011247,-0.023211,-0.0064392,0.059005,-0.028802,0.012635,-0.023869
1384,-0.012359,-0.018278,-0.010057,0.05769,-0.030775,0.0063866,-0.032749
1385,-0.024527,-0.015319,-0.010386,0.05769,-0.028144,0.0011247,-0.038668
1386,-0.031433,-0.015976,-0.0067681,0.054401,-0.020581,0.0040845,-0.038339
1387,-0.036695,-0.017621,-0.0034794,0.047824,-0.0084125,0.013293,-0.031433
1388,-0.038339,-0.019594,-0.0011774,0.039273,0.0021113,0.023488,-0.023211
1389,-0.031433,-0.019265,-0.002164,0.032038,0.0096753,0.032038,-0.015648
1390,-0.011701,-0.018607,-0.0061104,0.026776,0.013622,0.034998,-0.01499
1391,0.013622,-0.020909,-0.013345,0.021186,0.011977,0.030394,-0.024856
1392,0.035985,-0.021896,-0.020909,0.014279,0.002769,0.020199,-0.036695
1393,0.051113,-0.022225,-0.0265,0.0086887,-0.010386,0.0086887,-0.042615
1394,0.059663,-0.023211,-0.028473,0.010333,-0.022883,0.0021113,-0.038997
1395,0.060979,-0.029131,-0.024856,0.017568,-0.028473,0.00079584,-0.030118
1396,0.055717,-0.038668,-0.016634,0.027763,-0.027816,0.0080309,-0.018278
1397,0.041904,-0.045903,-0.007097,0.038287,-0.022225,0.017568,-0.0077547
1398,0.023159,-0.046232,-0.0018351,0.043549,-0.018278,0.024145,-0.00051963
1399,0.0054,-0.04097,-0.0015062,0.037958,-0.020252,0.023817,0.0044134
1400,-0.011043,-0.030447,-0.0018351,0.020528,-0.025842,0.017239,0.0083598
1401,-0.024527,-0.018278,0.0001381,0.0001381,-0.031433,0.0057288,0.0093464
1402,-0.031104,-0.0051238,0.0034268,-0.013674,-0.037024,-0.0047949,0.0040845
1403,-0.027158,0.0057288,0.0057288,-0.018278,-0.042944,-0.010057,-0.0041372
1404,-0.012688,0.0093464,0.0070443,-0.01795,-0.045574,-0.0074258,-0.010057
1405,0.010004,0.0063866,0.0063866,-0.01795,-0.04393,0.0001381,-0.01203
1406,0.028092,-0.0028217,0.0030979,-0.021896,-0.037024,0.012964,-0.012688
1407,0.03434,-0.013017,-0.0015062,-0.027816,-0.027487,0.02875,-0.0093991
1408,0.027105,-0.023869,-0.0074258,-0.034064,-0.018936,0.037958,-0.0077547
1409,0.014608,-0.035051,-0.016305,-0.038339,-0.015976,0.036314,-0.0080836
1410,-0.00019077,-0.037682,-0.024856,-0.040641,-0.014661,0.024145,-0.0093991
1411,-0.011043,-0.0265,-0.03242,-0.040641,-0.014661,0.01132,-0.010057
1412,-0.01499,-0.0054526,-0.038997,-0.039984,-0.011701,0.0021113,-0.011701
1413,-0.015648,0.018884,-0.043272,-0.037353,-0.0034794,0.0024402,-0.013345
1414,-0.015319,0.036314,-0.043272,-0.035708,0.0096753,0.0080309,-0.012359
1415,-0.014332,0.048153,-0.041628,-0.038011,0.022501,0.017239,-0.0018351
1416,-0.01203,0.061307,-0.038339,-0.039984,0.03434,0.025132,0.015924
1417,-0.0097279,0.080711,-0.030447,-0.036695,0.044864,0.029407,0.036314
1418,-0.0090702,0.096496,-0.024198,-0.030447,0.049139,0.029407,0.049468
1419,-0.011701,0.10143,-0.021896,-0.020909,0.045193,0.026119,0.05177
1420,-0.017292,0.098469,-0.023869,-0.011701,0.035656,0.021514,0.042233
1421,-0.022883,0.089919,-0.026171,-0.0067681,0.022172,0.018884,0.031052
1422,-0.026829,0.076435,-0.027487,-0.011043,0.0083598,0.015924,0.028092
1423,-0.0265,0.058019,-0.027158,-0.026171,-0.00019077,0.0073732,0.033683
1424,-0.023211,0.043877,-0.025842,-0.045574,-0.0054526,-0.0077547,0.042233
1425,-0.020252,0.034011,-0.023211,-0.0584,-0.0090702,-0.023869,0.049468
1426,-0.013017,0.028092,-0.019923,-0.06136,-0.011372,-0.035051,0.053086
1427,-0.004466,0.022501,-0.016634,-0.055112,-0.013674,-0.037353,0.054072
1428,0.00079584,0.014279,-0.01499,-0.045246,-0.013674,-0.030775,0.055717
1429,0.0037556,0.0040845,-0.013674,-0.037024,-0.0087413,-0.018936,0.057032
1430,0.0024402,-0.007097,-0.013674,-0.030447,-0.002164,-0.0074258,0.05769
1431,-0.002164,-0.015648,-0.01795,-0.018936,0.0040845,-0.00019077,0.055388
1432,-0.011372,-0.019594,-0.027487,-0.0024928,0.010333,0.0044134,0.048482
1433,-0.023211,-0.01499,-0.036037,0.012635,0.01691,0.0070443,0.045522
1434,-0.031104,-0.002164,-0.043272,0.027434,0.021514,0.0063866,0.051441
1435,-0.031762,0.017568,-0.047219,0.038616,0.022501,0.0063866,0.062294
1436,-0.022225,0.037958,-0.045903,0.042891,0.022501,0.010991,0.07216
1437,-0.0061104,0.054072,-0.040641,0.038944,0.020528,0.023488,0.075778
1438,0.010004,0.064596,-0.034722,0.027105,0.017239,0.041575,0.073147
1439,0.017897,0.067227,-0.027158,0.010991,0.0063866,0.055059,0.070845
1440,0.017568,0.065254,-0.019265,-0.0031506,-0.011043,0.056703,0.071173
1441,0.012306,0.064925,-0.015648,-0.0093991,-0.035708,0.043877,0.071502
1442,0.0073732,0.0692,-0.014332,-0.0084125,-0.060702,0.022501,0.068871
1443,0.0037556,0.071502,-0.015648,-0.0024928,-0.079777,0.0060577,0.06361
1444,0.0067154,0.065912,-0.014661,0.0040845,-0.087669,0.0014536,0.056703
1445,0.013622,0.047166,-0.0084125,0.0077021,-0.082736,0.0044134,0.050784
1446,0.020857,0.023488,0.0011247,0.0060577,-0.064978,0.0086887,0.042891
1447,0.02283,0.0044134,0.015924,0.0090175,-0.041628,0.010662,0.035327
1448,0.017239,-0.002164,0.030394,0.017568,-0.024198,0.01132,0.026776
1449,0.0073732,0.0014536,0.039602,0.027105,-0.021896,0.010004,0.013622
1450,-0.00051963,0.0083598,0.041904,0.031709,-0.033735,0.0057288,-0.0011774
1451,-0.0054526,0.012306,0.035985,0.030065,-0.047548,-0.0008485,-0.011701
1452,-0.011043,0.010004,0.027763,0.026119,-0.054454,-0.0093991,-0.016634
1453,-0.018607,-0.0008485,0.023817,0.023817,-0.056756,-0.019265,-0.018278
1454,-0.026829,-0.018278,0.026776,0.025132,-0.058729,-0.025514,-0.018936
1455,-0.037024,-0.04393,0.034011,0.030065,-0.058729,-0.027487,-0.019923
1456,-0.04985,-0.074515,0.039602,0.031709,-0.051494,-0.029131,-0.021896
1457,-0.064978,-0.10576,0.042562,0.024474,-0.033406,-0.03242,-0.021567
1458,-0.074844,-0.13009,0.042562,0.011977,-0.011043,-0.038997,-0.018278
1459,-0.07287,-0.14259,0.042891,0.0001381,0.0057288,-0.048205,-0.0087413
1460,-0.058729,-0.14226,0.044864,-0.0061104,0.014608,-0.050836,0.0014536
1461,-0.039984,-0.12976,0.049139,-0.007097,0.015924,-0.044588,0.0093464
1462,-0.025842,-0.11036,0.051113,-0.0047949,0.013951,-0.032091,0.010004
1463,-0.021896,-0.094247,0.047166,-0.0024928,0.012964,-0.018278,0.0073732
1464,-0.024527,-0.08471,0.039602,0.0030979,0.01691,-0.010386,0.0030979
1465,-0.027158,-0.082408,0.028092,0.010004,0.021186,-0.0077547,-0.0051238
1466,-0.024856,-0.080106,0.01987,0.017897,0.021514,-0.0093991,-0.012688
1467,-0.020252,-0.072542,0.015266,0.024474,0.018226,-0.015648,-0.016963
1468,-0.013017,-0.059058,0.014279,0.032367,0.016253,-0.021896,-0.014332
1469,-0.0054526,-0.043601,0.012306,0.040589,0.02283,-0.023869,-0.0047949
1470,-0.00051963,-0.030775,0.0093464,0.051441,0.033683,-0.023869,0.0070443
1471,0.0034268,-0.024856,0.010004,0.060321,0.038944,-0.023211,0.013951
1472,0.0080309,-0.02354,0.014608,0.061965,0.038944,-0.021896,0.011977
1473,0.012635,-0.023869,0.023159,0.055388,0.030723,-0.01795,-0.0024928
1474,0.015595,-0.025514,0.031709,0.043549,0.017239,-0.013345,-0.019923
1475,0.016253,-0.023211,0.036971,0.032367,0.002769,-0.0097279,-0.034064
1476,0.016253,-0.015976,0.037958,0.025461,-0.010715,-0.0047949,-0.039326
1477,0.016253,-0.0034794,0.033683,0.023817,-0.018278,0.0040845,-0.036366
1478,0.014608,0.0073732,0.025132,0.028421,-0.021567,0.012306,-0.026829
1479,0.0090175,0.015924,0.015266,0.040589,-0.019594,0.014937,-0.013674
1480,0.0037556,0.022172,0.0067154,0.054072,-0.012359,0.0080309,0.0011247
1481,0.0047422,0.029407,0.0017824,0.063938,-0.0018351,-0.0077547,0.010004
1482,0.010333,0.034669,0.0021113,0.063938,0.0054,-0.026171,0.0090175
1483,0.017568,0.036642,0.0030979,0.056046,0.0090175,-0.040641,0.0011247
1484,0.02579,0.036642,0.0054,0.044206,0.012635,-0.046561,-0.010715
1485,0.033025,0.0373,0.0077021,0.033025,0.017897,-0.047548,-0.025842
1486,0.038287,0.038616,0.0067154,0.023159,0.022501,-0.046561,-0.038997
1487,0.041575,0.040918,0.002769,0.015924,0.027105,-0.048863,-0.046232
1488,0.046508,0.041575,-0.0047949,0.010333,0.026447,-0.056098,-0.04689
1489,0.054401,0.038944,-0.012359,0.0054,0.021843,-0.062676,-0.043601
1490,0.061965,0.034998,-0.016634,-0.0011774,0.014937,-0.065307,-0.039326
1491,0.067885,0.030065,-0.013017,-0.010057,0.01132,-0.06728,-0.037682
1492,0.070187,0.028421,-0.0064392,-0.019265,0.01132,-0.063662,-0.04097
1493,0.06624,0.033354,0.0030979,-0.025514,0.0096753,-0.055769,-0.045246
1494,0.054401,0.041575,0.012635,-0.027487,0.0067154,-0.046561,-0.048534
1495,0.038616,0.051441,0.017897,-0.022883,0.0057288,-0.032091,-0.039984
1496,0.024474,0.05769,0.021514,-0.012359,0.0063866,-0.015648,-0.01795
1497,0.015595,0.05769,0.024145,-0.00019077,0.0054,0.0024402,0.010991
1498,0.014937,0.054072,0.024145,0.0083598,0.0054,0.014608,0.035327
1499,0.021186,0.04881,0.021843,0.011648,0.0063866,0.020199,0.047495
1500,0.031052,0.042233,0.016253,0.0096753,0.01132,0.021514,0.048153
1501,0.040589,0.038944,0.0083598,0.0057288,0.018226,0.02283,0.042562
1502,0.041575,0.038944,0.0014536,0.0014536,0.021843,0.026119,0.038944
1503,0.034011,0.040918,-0.0080836,-0.0024928,0.017239,0.031709,0.044535
1504,0.022501,0.048153,-0.015319,-0.007097,-0.0008485,0.03434,0.055717
1505,0.013622,0.056703,-0.021567,-0.012359,-0.025842,0.02875,0.065254
1506,0.011648,0.064267,-0.026171,-0.016305,-0.046561,0.016581,0.064596
1507,0.015266,0.069858,-0.027158,-0.016305,-0.058729,0.0034268,0.055717
1508,0.020528,0.073476,-0.025185,-0.0090702,-0.056427,-0.0064392,0.04322
1509,0.025461,0.074462,-0.01795,0.002769,-0.041628,-0.0087413,0.036971
1510,0.026447,0.072818,-0.0061104,0.015595,-0.021567,-0.00019077,0.041575
1511,0.021186,0.068214,0.0083598,0.019541,-0.002164,0.016253,0.052099
1512,0.013622,0.062623,0.017897,0.014279,0.014937,0.038287,0.060979
1513,0.0077021,0.055059,0.020199,0.0034268,0.027434,0.06065,0.063281
1514,0.00079584,0.049468,0.014937,-0.0097279,0.035327,0.078409,0.058019
1515,-0.0054526,0.048153,0.0050711,-0.023869,0.037629,0.085315,0.053086
1516,-0.0097279,0.049468,-0.0084125,-0.03538,0.035327,0.079724,0.053415
1517,-0.0093991,0.051441,-0.023211,-0.039326,0.032038,0.068214,0.060979
1518,-0.0064392,0.054401,-0.037024,-0.035708,0.029736,0.058348,0.068871
1519,-0.0024928,0.05769,-0.045574,-0.02946,0.030723,0.05473,0.072818
1520,-0.0024928,0.06065,-0.050179,-0.023211,0.03434,0.054072,0.074462
1521,-0.0084125,0.058676,-0.051494,-0.018936,0.0373,0.052757,0.073476
1522,-0.016963,0.051441,-0.048863,-0.020252,0.038287,0.049797,0.070187
1523,-0.025842,0.038616,-0.044588,-0.025514,0.035985,0.040918,0.06624
1524,-0.030118,0.026776,-0.040313,-0.030447,0.027105,0.026776,0.060321
1525,-0.031762,0.020857,-0.037353,-0.031433,0.017239,0.010662,0.050455
1526,-0.028473,0.021514,-0.036037,-0.031433,0.0080309,0.0017824,0.036971
1527,-0.023211,0.026447,-0.036366,-0.027158,0.00046697,-0.0011774,0.025461
1528,-0.018278,0.030394,-0.04097,-0.017621,-0.004466,-0.0018351,0.017568
1529,-0.016634,0.030723,-0.046232,-0.004466,-0.0097279,0.0001381,0.013622
1530,-0.019594,0.023817,-0.050507,0.010004,-0.01499,0.0060577,0.010004
1531,-0.027816,0.013293,-0.051823,0.023159,-0.014661,0.019212,0.010333
1532,-0.035051,0.0017824,-0.050179,0.035327,-0.0067681,0.038616,0.018555
1533,-0.035708,-0.011043,-0.047219,0.044206,0.0047422,0.064925,0.030723
1534,-0.02946,-0.022225,-0.042944,0.053086,0.010991,0.092221,0.036642
1535,-0.020909,-0.033735,-0.037682,0.059005,0.0086887,0.1159,0.033354
1536,-0.013017,-0.045903,-0.030775,0.062952,0.002769,0.12938,0.021514
1537,-0.011701,-0.056098,-0.022225,0.066898,-0.00051963,0.12741,0.0070443
1538,-0.015648,-0.062347,-0.01499,0.070516,-0.0008485,0.1113,-0.0090702
1539,-0.030447,-0.065635,-0.01203,0.064925,-0.0038083,0.085644,-0.025514
1540,-0.052152,-0.068595,-0.014332,0.052428,-0.013017,0.055388,-0.039326
1541,-0.071884,-0.072542,-0.015976,0.038616,-0.024856,0.026776,-0.047219
1542,-0.083065,-0.075173,-0.01499,0.029078,-0.031104,0.0021113,-0.05281
1543,-0.077475,-0.074844,-0.013345,0.026776,-0.02946,-0.016305,-0.060045
1544,-0.055769,-0.071226,-0.0080836,0.032038,-0.020909,-0.025842,-0.064978
1545,-0.027487,-0.064978,-0.0041372,0.041904,-0.010386,-0.029131,-0.066622
1546,0.0001381,-0.055769,-0.004466,0.053086,-0.0034794,-0.028802,-0.064978
1547,0.018884,-0.04393,-0.007097,0.057361,0.0001381,-0.028144,-0.062018
1548,0.028092,-0.032749,-0.0061104,0.054401,0.002769,-0.02946,-0.061689
1549,0.029078,-0.024856,-0.0008485,0.050126,0.0077021,-0.02946,-0.060373
1550,0.022501,-0.020909,0.0096753,0.049139,0.015924,-0.030118,-0.056098
1551,0.014937,-0.022554,0.022172,0.051113,0.021514,-0.032749,-0.049521
1552,0.010991,-0.029789,0.030065,0.05177,0.016253,-0.040313,-0.044588
1553,0.012635,-0.04097,0.032367,0.050455,0.0014536,-0.052481,-0.044588
1554,0.015595,-0.050179,0.029407,0.044864,-0.014661,-0.066293,-0.054454
1555,0.019541,-0.053796,0.024145,0.0373,-0.023211,-0.076817,-0.065635
1556,0.01987,-0.053467,0.017568,0.028092,-0.021896,-0.077475,-0.070897
1557,0.015924,-0.053796,0.010662,0.018884,-0.014661,-0.069582,-0.067937
1558,0.010991,-0.052152,0.0021113,0.010662,-0.011701,-0.059716,-0.057743
1559,0.0073732,-0.044917,-0.0041372,0.0067154,-0.014332,-0.054125,-0.046561
1560,0.0024402,-0.033406,-0.0084125,0.0047422,-0.020909,-0.057743,-0.036366
1561,-0.0031506,-0.021567,-0.0097279,0.0050711,-0.030447,-0.069253,-0.02946
1562,-0.0097279,-0.011043,-0.0090702,0.0044134,-0.038339,-0.080434,-0.028802
1563,-0.014332,-0.0038083,-0.010715,-0.0018351,-0.041957,-0.085367,-0.037353
1564,-0.016634,0.00046697,-0.013345,-0.0090702,-0.041628,-0.083394,-0.048205
1565,-0.017621,0.0014536,-0.015319,-0.011043,-0.036695,-0.079448,-0.05281
1566,-0.018936,-0.00019077,-0.014661,-0.0064392,-0.027816,-0.077146,-0.04985
1567,-0.017292,-0.0057815,-0.014003,0.0017824,-0.022883,-0.079119,-0.042286
1568,-0.014332,-0.012688,-0.013017,0.0090175,-0.023869,-0.082408,-0.033735
1569,-0.0097279,-0.018278,-0.011701,0.012306,-0.026829,-0.086683,-0.029789
1570,-0.0038083,-0.016634,-0.011701,0.0096753,-0.028473,-0.090958,-0.028802
1571,0.0011247,-0.0087413,-0.013674,0.0057288,-0.029131,-0.089643,-0.027816
1572,0.0024402,0.0034268,-0.012688,0.002769,-0.027487,-0.081092,-0.024527
1573,-0.0024928,0.018555,-0.0057815,-0.0011774,-0.025185,-0.067609,-0.018936
1574,-0.010715,0.033683,0.0083598,-0.004466,-0.023211,-0.053796,-0.012359
1575,-0.016634,0.045193,0.026119,-0.0051238,-0.019594,-0.038668,-0.002164
1576,-0.018278,0.049468,0.038287,-0.00051963,-0.013017,-0.021896,0.010662
1577,-0.018278,0.047495,0.039931,0.0044134,-0.0057815,-0.0080836,0.023159
1578,-0.01795,0.04322,0.032038,0.0037556,0.0057288,-0.0024928,0.030394
1579,-0.015976,0.042233,0.021514,-0.0051238,0.015924,-0.0057815,0.030394
1580,-0.012359,0.044864,0.011648,-0.017292,0.018555,-0.015319,0.026119
1581,-0.0074258,0.051113,0.0047422,-0.028144,0.011977,-0.025185,0.024474
1582,-0.0008485,0.05769,0.0044134,-0.03242,0.00046697,-0.031104,0.027763
1583,0.0034268,0.061307,0.0086887,-0.027816,-0.015319,-0.030775,0.031381
1584,0.0044134,0.062294,0.0083598,-0.017292,-0.029789,-0.028144,0.030065
1585,0.0017824,0.061636,0.0011247,-0.011701,-0.043272,-0.02354,0.026776
1586,-0.0041372,0.056703,-0.0051238,-0.013674,-0.053796,-0.019594,0.022172
1587,-0.004466,0.050784,-0.0093991,-0.018936,-0.057414,-0.017292,0.016581
1588,0.0067154,0.047166,-0.0097279,-0.024198,-0.053138,-0.016305,0.0090175
1589,0.024474,0.052099,-0.0087413,-0.026829,-0.040641,-0.016634,0.0037556
1590,0.04026,0.063281,-0.010057,-0.029131,-0.0265,-0.01795,0.0037556
1591,0.041575,0.07216,-0.011701,-0.028802,-0.018936,-0.024198,0.010004
1592,0.027105,0.073147,-0.015319,-0.027158,-0.024856,-0.034064,0.020857
1593,0.0057288,0.063938,-0.016963,-0.024198,-0.040641,-0.045246,0.031709
1594,-0.010386,0.051441,-0.015976,-0.022225,-0.058729,-0.050507,0.037958
1595,-0.014661,0.041575,-0.011701,-0.017292,-0.072213,-0.046561,0.040918
1596,-0.0061104,0.035985,-0.0051238,-0.010715,-0.076488,-0.035708,0.040589
1597,0.0060577,0.036314,-0.0018351,-0.0041372,-0.072213,-0.024856,0.042562
1598,0.014937,0.037958,0.0014536,-0.0011774,-0.060373,-0.020909,0.045851
1599,0.017897,0.041247,0.0044134,-0.0011774,-0.04393,-0.024856,0.050126
1600,0.021843,0.047166,0.0083598,-0.0031506,-0.027158,-0.026171,0.055717
1601,0.02875,0.054401,0.013293,-0.0034794,-0.012359,-0.015976,0.059992
1602,0.035985,0.060979,0.019541,0.0021113,-0.0057815,0.0044134,0.059005
1603,0.040918,0.065912,0.023817,0.015595,-0.0031506,0.026447,0.050126
1604,0.040589,0.068871,0.026447,0.030394,-0.002164,0.042562,0.039602
1605,0.036642,0.069529,0.026119,0.036971,-0.0031506,0.051113,0.031381
1606,0.030394,0.065583,0.024145,0.032038,-0.0011774,0.053743,0.026447
1607,0.024145,0.053743,0.02579,0.017897,0.0014536,0.053415,0.029078
1608,0.020528,0.035327,0.031709,0.0060577,0.0014536,0.054072,0.036314
1609,0.016253,0.012635,0.038616,0.002769,0.0014536,0.056046,0.047495
1610,0.013951,-0.011043,0.041575,0.0093464,-0.0008485,0.058019,0.059992
1611,0.010333,-0.028802,0.040918,0.017897,0.0011247,0.054401,0.070187
1612,0.0024402,-0.036366,0.039602,0.018555,0.0086887,0.042891,0.079066
1613,-0.007097,-0.037353,0.039602,0.010004,0.017568,0.034011,0.088275
1614,-0.012688,-0.036037,0.042891,-0.0011774,0.024145,0.032038,0.099127
1615,-0.017292,-0.034064,0.043877,-0.0093991,0.027434,0.035656,0.1011
1616,-0.021567,-0.034393,0.041575,-0.013017,0.026447,0.041247,0.094523
1617,-0.029131,-0.039655,0.036642,-0.0087413,0.023488,0.046508,0.080711
1618,-0.038339,-0.048205,0.029407,0.0021113,0.015266,0.050126,0.064925
1619,-0.04689,-0.054783,0.023817,0.012964,0.0017824,0.05473,0.046508
1620,-0.054783,-0.059387,0.021186,0.020857,-0.011701,0.060321,0.029407
1621,-0.056427,-0.062676,0.021514,0.021843,-0.017621,0.062623,0.014608
1622,-0.04985,-0.065635,0.02283,0.018555,-0.013017,0.06065,0.0054
1623,-0.037682,-0.068266,0.021186,0.010991,-0.0018351,0.054401,0.0040845
1624,-0.024856,-0.071555,0.016253,0.0050711,0.012306,0.042233,0.0090175
1625,-0.014003,-0.074186,0.012635,0.002769,0.021186,0.026119,0.013293
1626,-0.0034794,-0.074186,0.0083598,0.0021113,0.018884,0.010333,0.01691
1627,0.0054,-0.06728,0.0017824,0.0014536,0.0063866,-0.0008485,0.016581
1628,0.010333,-0.056098,-0.0061104,0.002769,-0.0057815,-0.0057815,0.010991
1629,0.01132,-0.046232,-0.012359,0.0050711,-0.011372,-0.0067681,0.0021113
1630,0.012635,-0.040641,-0.016963,0.0073732,-0.0077547,-0.0067681,-0.0047949
1631,0.018226,-0.039984,-0.015976,0.0083598,0.0037556,-0.007097,-0.0080836
1632,0.031052,-0.042615,-0.010715,0.0080309,0.015266,-0.0057815,-0.0041372
1633,0.049468,-0.045574,-0.0061104,0.0086887,0.018884,-0.0041372,0.0017824
1634,0.064267,-0.048534,-0.0024928,0.010004,0.013293,-0.00051963,0.0047422
1635,0.066898,-0.052481,-0.0011774,0.012635,0.0054,0.0021113,0.0050711
1636,0.057032,-0.058729,-0.0011774,0.015266,-0.00051963,0.0021113,0.0054
1637,0.042562,-0.062676,-0.0034794,0.015595,-0.0054526,0.002769,0.0070443
1638,0.032038,-0.062676,-0.0057815,0.017239,-0.0064392,0.0047422,0.0090175
1639,0.029078,-0.055112,-0.0077547,0.019541,-0.0034794,0.0086887,0.01132
1640,0.030723,-0.040313,-0.0064392,0.022501,0.0040845,0.014279,0.011648
1641,0.037958,-0.02354,-0.0038083,0.022172,0.0096753,0.018226,0.010662
1642,0.047824,-0.011043,-0.002164,0.021186,0.012635,0.020199,0.011648
1643,0.054072,-0.0031506,-0.00051963,0.025132,0.015924,0.018555,0.015266
1644,0.053415,0.0011247,0.0017824,0.029736,0.020857,0.012635,0.018226
1645,0.048482,0.0037556,0.0030979,0.033354,0.02579,0.0067154,0.018226
1646,0.041904,0.0067154,0.0021113,0.035985,0.030065,0.0034268,0.010991
1647,0.033683,0.012964,-0.002164,0.036314,0.031381,0.0054,-0.004466
1648,0.028092,0.018884,-0.0067681,0.030723,0.029736,0.010333,-0.022225
1649,0.024803,0.025461,-0.013017,0.01987,0.024803,0.013622,-0.036366
1650,0.020857,0.032038,-0.020252,0.010662,0.019541,0.014279,-0.044588
1651,0.013951,0.038616,-0.028144,0.0080309,0.016581,0.010333,-0.047219
1652,0.0057288,0.04322,-0.035051,0.014279,0.017568,0.0077021,-0.04393
1653,0.0014536,0.044864,-0.039326,0.024145,0.025461,0.010004,-0.041299
1654,0.00046697,0.042891,-0.038668,0.029407,0.036971,0.018226,-0.038997
1655,0.0014536,0.04026,-0.034722,0.026447,0.047166,0.032038,-0.033735
1656,0.0044134,0.035656,-0.030118,0.020528,0.052428,0.045522,-0.025185
1657,0.0096753,0.029736,-0.024856,0.014937,0.050784,0.055388,-0.014661
1658,0.015595,0.021514,-0.020909,0.011648,0.043877,0.056703,-0.0064392
1659,0.017239,0.012964,-0.01795,0.010333,0.032038,0.053086,-0.0015062
1660,0.012306,0.0067154,-0.016634,0.0067154,0.021186,0.050126,0.00079584
1661,0.0030979,0.0030979,-0.016305,-0.00051963,0.012635,0.04881,0.0011247
1662,-0.0080836,0.002769,-0.016634,-0.0077547,0.0034268,0.04618,0.0021113
1663,-0.019923,0.0021113,-0.016634,-0.01499,-0.0015062,0.038616,0.00079584
1664,-0.033078,0.0001381,-0.017292,-0.018607,-0.0024928,0.028092,-0.0031506
1665,-0.047548,0.0001381,-0.023211,-0.016634,0.0021113,0.015595,-0.0067681
1666,-0.057743,0.0060577,-0.032749,-0.010715,0.0070443,0.0040845,-0.007097
1667,-0.062347,0.014937,-0.043601,-0.0057815,0.011648,-0.0061104,-0.0047949
1668,-0.062018,0.025132,-0.053138,-0.002164,0.013622,-0.013345,-0.0034794
1669,-0.055769,0.031052,-0.056427,-0.0028217,0.013293,-0.015976,-0.0051238
