-0.095068    -0.01549   -0.040825   -0.056416   -0.059339   -0.042774   -0.044723
-0.095393  -0.0024977   -0.035953   -0.055766   -0.050244   -0.035628   -0.052518
-0.088896    0.013093   -0.037577   -0.054467   -0.030431   -0.026858   -0.054467
-0.07493    0.030957   -0.042124   -0.052843   0.0020496   -0.021661   -0.047321
-0.055116    0.043625   -0.046022   -0.050244    0.041027   -0.017764    -0.03238
-0.035303    0.047847   -0.044073   -0.045047    0.072533    -0.01549   -0.011267
-0.023285    0.040702   -0.035628   -0.036602    0.084876   -0.011592    0.011469
-0.018088    0.028034   -0.022311   -0.025559    0.076431  -0.0028225     0.03453
-0.013541    0.014717  -0.0024977   -0.015815    0.054993    0.014717    0.056292
-0.0034721   0.0091954    0.025761  -0.0099683    0.029009    0.036154    0.072533
0.013093     0.01829    0.056617   -0.007045   0.0069217    0.050121    0.079354
0.024786    0.034855    0.084226  -0.0041217  -0.0076946    0.053044    0.078704
0.026085    0.048172    0.095269   0.0026992   -0.013541    0.046223    0.070909
0.021213    0.049147    0.085525    0.012119   -0.011592    0.031282    0.056617
0.017316    0.036154    0.061814    0.020239  -0.0054209    0.014717     0.04395
0.017316    0.016016    0.033556    0.026735  0.00042559 -0.00087364    0.032906
0.021538 -0.00054884   0.0072465    0.030308   0.0036737   -0.011267    0.023162
0.028684   -0.010618   -0.011267    0.029333   0.0049729   -0.015165    0.016666
0.033231   -0.013541   -0.024909    0.023162  0.00042559   -0.011267    0.011794
0.036479  -0.0099683   -0.031081    0.016016  -0.0080194  -0.0028225   0.0088706
0.038753  0.00075039   -0.028482    0.009845   -0.018738    0.010819   0.0095202
0.042326    0.019264   -0.018088   0.0091954   -0.025559    0.026735    0.013743
0.044599    0.042326  -0.0054209    0.011144   -0.025234    0.040052    0.022837
0.042975    0.061165   0.0059473    0.016991   -0.017439    0.048822    0.034206
0.038753    0.072533    0.013743    0.021538   -0.007045    0.049147    0.042975
0.035505    0.078379    0.016341    0.023812   0.0023744    0.040052    0.042975
0.03518    0.080328     0.01894    0.020888   0.0046481    0.023162    0.037778
0.0433    0.079679    0.020888    0.015042  0.00042559   0.0049729     0.03518
0.057267    0.077405    0.024137    0.011794  -0.0060706  -0.0089938    0.037129
0.070259    0.077405    0.028034    0.012443  -0.0093186   -0.011592    0.042001
0.081627    0.080653    0.026085    0.017316  -0.0076946 -0.00087364    0.040377
0.088448     0.08585    0.020564    0.023812  -0.0015233    0.016016    0.032257
0.089423    0.090072    0.011469    0.030633   0.0033489    0.030308    0.024786
0.0865     0.09397   0.0023744    0.033556   0.0026992    0.034206    0.022188
0.085525    0.098193  -0.0024977     0.03453 -0.00087364    0.027709    0.024137
0.089098     0.10306  -0.0057458     0.03518  -0.0047713    0.014717    0.029009
0.094295     0.10534   -0.011267    0.032582  -0.0076946   0.0026992    0.031607
0.096244    0.099817   -0.017764    0.024786  -0.0099683   -0.007045    0.029333
0.090072    0.089423   -0.026209    0.014068   -0.011592   -0.013866    0.020888
0.076106    0.076106   -0.033679   0.0049729   -0.011592    -0.01614   0.0062721
0.063113    0.065712   -0.034978 -0.00022403  -0.0096434   -0.015815  -0.0093186
0.05142    0.059216   -0.026209  -0.0011985   -0.010293   -0.016464   -0.019712
0.0433    0.053694  -0.0089938   0.0039985   -0.013216   -0.019388    -0.02426
0.040377    0.048172   0.0091954    0.012443   -0.017439   -0.026209   -0.023935
0.039402    0.049147    0.025761    0.019264   -0.020037   -0.033679   -0.022961
0.03583    0.058241    0.038753    0.020888   -0.019712   -0.034654   -0.021337
0.024786    0.068635    0.047198    0.019264   -0.016464   -0.028807   -0.019063
0.0091954    0.065387    0.047847    0.016666   -0.013866    -0.01614   -0.017439
-0.0050961    0.041676    0.041027    0.013093   -0.012567 -0.00087364   -0.013866
-0.018088   0.0056225    0.028684    0.011469   -0.013866    0.013418  -0.0080194
-0.028482   -0.030431    0.015692   0.0095202   -0.017114    0.022837  -0.0024977
-0.034329   -0.059664   0.0033489   0.0078962   -0.023935    0.029658  -0.0011985
-0.037902   -0.076229  -0.0063954   0.0056225   -0.033679    0.034206  -0.0018481
-0.043099   -0.080776   -0.013216   0.0010752   -0.044398     0.03518  -0.0024977
-0.04992   -0.081751   -0.018413  -0.0076946   -0.052843    0.028684   -0.007045
-0.055766   -0.085324   -0.023935   -0.019388   -0.059014    0.015367   -0.012892
-0.058689   -0.091495   -0.030431   -0.030431   -0.061613   0.0017248   -0.021012
-0.05804   -0.097991   -0.034978   -0.034329   -0.059014  -0.0089938    -0.03173
-0.051868    -0.10026   -0.038876   -0.030431   -0.052518   -0.015165   -0.045372
-0.044073   -0.096042   -0.042449   -0.022961   -0.042774   -0.021012   -0.060313
-0.038876   -0.089546   -0.047321   -0.012892   -0.030106   -0.029457   -0.072656
-0.039201   -0.081751    -0.04992  -0.0024977   -0.016464   -0.038227    -0.07493
-0.044723   -0.073631   -0.044723   0.0069217  -0.0034721   -0.043423    -0.06681
-0.053492   -0.064536   -0.035628    0.015692   0.0046481   -0.042449   -0.054142
-0.056741   -0.058365   -0.021661    0.021213   0.0052977    -0.03238     -0.0405
-0.04992   -0.056091  -0.0073698     0.01894    0.003024   -0.019063   -0.026858
-0.037902   -0.054467   0.0039985    0.010495  0.00075039  -0.0093186   -0.012892
-0.025559    -0.04992    0.011794  0.00010078  0.00075039  -0.0054209   0.0043233
-0.012242   -0.044073    0.014717   -0.010618   0.0010752   -0.008669    0.021213
0.00042559   -0.036278    0.011144   -0.018738 -0.00087364   -0.017114    0.033556
0.01017   -0.025559   0.0059473   -0.021661  -0.0047713   -0.028482    0.038428
0.014392   -0.013216   0.0020496   -0.020687  -0.0089938   -0.042124     0.03453
0.012768  -0.0024977   0.0036737   -0.018088   -0.013866   -0.054792    0.023487
0.0069217 -0.00022403    0.010495   -0.013866   -0.020362   -0.062912    0.009845
-0.0021729  -0.0050961    0.020564  -0.0057458   -0.025234   -0.067784 -0.00054884
-0.011592   -0.011592    0.028684   0.0046481   -0.028157   -0.070707  -0.0031473
-0.021012    -0.01549    0.033231    0.009845   -0.026858   -0.072006 -0.00087364
-0.030106   -0.014191    0.033556   0.0088706   -0.021337   -0.071357    0.003024
-0.035953  -0.0076946    0.028034   0.0049729   -0.014516    -0.06551   0.0091954
-0.035628   0.0033489    0.020564   0.0020496  -0.0083442   -0.054467    0.016341
-0.028157    0.012443    0.013418   0.0033489  -0.0031473   -0.042124    0.020564
-0.016789    0.016991   0.0065969    0.009845   0.0049729   -0.029782     0.02706
-0.0073698     0.01764   0.0046481    0.024461     0.01829   -0.018088     0.03453
0.0017248    0.019264    0.011144    0.049147    0.033881  -0.0076946      0.0433
0.010495    0.024137    0.022837    0.083251    0.046873 -0.00087364    0.050446
0.019264    0.029009    0.034206     0.12385    0.056617  -0.0028225    0.055318
0.025761    0.034206    0.037778     0.16445    0.063113   -0.011267    0.055643
0.031282    0.037454    0.031932     0.19563    0.067986   -0.021337    0.055643
0.03518    0.040702    0.022188     0.21188    0.070909   -0.028157     0.05272
0.038103      0.0433    0.013093      0.2096     0.07773   -0.032055    0.045574
0.039727    0.042975   0.0095202     0.19174    0.087149   -0.034004     0.03583
0.039078    0.039078   0.0078962     0.16608    0.092671   -0.033354     0.02641
0.037454     0.03453   0.0072465     0.13912    0.090072   -0.032705    0.016666
0.035505    0.029658   0.0033489     0.11801    0.079679   -0.030756   0.0069217
0.029658    0.027385  -0.0024977     0.10696    0.067011   -0.028482  -0.0044465
0.021213    0.027709   -0.010293     0.10501    0.051096   -0.024909   -0.010943
0.013743    0.029333    -0.01614     0.10761    0.031932   -0.018413   -0.011917
0.0069217    0.028684   -0.019388     0.10242    0.014717   -0.008669  -0.0067202
0.0033489    0.027385   -0.017114    0.084876   0.0046481   0.0049729  0.00010078
0.0072465    0.027709   -0.010618    0.057917   0.0062721    0.019589    0.009845
0.01764     0.03453  -0.0011985    0.029658    0.016991    0.036154    0.018615
0.029333    0.045899   0.0095202   0.0010752    0.025436     0.05207    0.022512
0.036479    0.058566    0.019264   -0.024909    0.029333    0.065062    0.025436
0.037129    0.069285    0.026085   -0.050894    0.028359    0.071558    0.029658
0.033231     0.07708    0.023487   -0.077203    0.020564    0.070259    0.033556
0.027385    0.082927    0.012768    -0.10221   0.0052977    0.056617    0.032257
0.018615    0.084876 -0.00087364    -0.12203   -0.013866     0.03453    0.020564
0.0056225    0.081627  -0.0096434    -0.13404   -0.033679    0.010819   0.0017248
-0.008669    0.069285  -0.0093186    -0.13599    -0.04927   -0.010293   -0.020687
-0.022961    0.049796  0.00075039    -0.12787   -0.061613   -0.025884   -0.043099
-0.03238    0.031607    0.014068    -0.11586   -0.066485   -0.032705   -0.059664
-0.036278    0.020888    0.022188    -0.10351   -0.065186   -0.027508   -0.066485
-0.034329     0.01764    0.024786   -0.093119   -0.056741   -0.012892   -0.061613
-0.025884    0.016666    0.023162   -0.084349    -0.04115   0.0017248    -0.04927
-0.01549    0.015042    0.019914   -0.080127   -0.021661    0.011144   -0.035953
-0.0096434    0.011144    0.015042   -0.081426  -0.0073698    0.011144    -0.03173
-0.011917   0.0052977   0.0069217   -0.084999  -0.0031473   0.0036737   -0.035953
-0.022961  -0.0041217  -0.0089938   -0.085648   -0.010293  -0.0047713   -0.045697
-0.034329    -0.01614   -0.026533   -0.078178   -0.021986  -0.0073698   -0.053817
-0.041799   -0.029782   -0.038227   -0.062262    -0.03238  -0.0031473   -0.055441
-0.043748   -0.041799   -0.034329   -0.039201   -0.034654   0.0052977   -0.051219
-0.042774   -0.048296   -0.018088   -0.013541   -0.027833    0.016991    -0.04115
-0.038227    -0.04992   0.0033489    0.010495   -0.017439    0.036154   -0.027508
-0.029782   -0.047646    0.022512    0.027385   -0.012242    0.057592   -0.014191
-0.018088     -0.0405    0.032906    0.036154   -0.010293    0.071558 -0.00087364
-0.0063954    -0.03173    0.033231    0.038753  -0.0099683     0.07708    0.013093
0.003024   -0.022961    0.026735    0.038753  -0.0067202    0.079354    0.022512
0.009845    -0.01484    0.015692    0.037454 -0.00022403    0.075131    0.021863
0.014068  -0.0063954   0.0078962     0.03453   0.0075714    0.062464    0.015042
0.015042   0.0023744   0.0078962    0.032582    0.014068    0.039727   0.0091954
0.012119     0.01017    0.014068    0.033231    0.017316    0.011469   0.0095202
0.010819    0.012768     0.01894    0.034855     0.01764   -0.011917    0.016666
0.012443    0.010495    0.017965     0.03518    0.016341   -0.029457    0.026735
0.014717   0.0062721   0.0095202    0.033556    0.016016   -0.040825    0.033556
0.014717  -0.0024977  -0.0031473    0.030633    0.015042   -0.043748    0.033556
0.0091954   -0.013541    -0.01549    0.026735     0.01017   -0.036927    0.029333
-0.0067202   -0.027508   -0.023285    0.021213   0.0043233    -0.02361     0.02641
-0.025884   -0.041799   -0.029132    0.012443  -0.0018481  -0.0096434    0.029333
-0.041475   -0.052843    -0.03303   0.0043233  -0.0067202      0.0014    0.035505
-0.050569   -0.056416    -0.03238   0.0036737  -0.0080194    0.009845    0.041351
-0.052518   -0.056416   -0.027508    0.010495  -0.0054209     0.01829    0.042975
-0.04862   -0.057715   -0.017439    0.021538  -0.0024977    0.024137    0.041351
-0.043099   -0.061288  -0.0063954    0.032906  0.00075039    0.025761    0.039727
-0.035953   -0.062587      0.0014    0.041027   0.0017248    0.023162    0.042651
-0.029132   -0.055766   0.0065969    0.046548  -0.0041217    0.017965    0.047198
-0.022311   -0.043099    0.009845    0.048822    -0.01614    0.011794    0.048497
-0.018413   -0.028807    0.009845    0.046873   -0.027508   0.0062721    0.042651
-0.01614   -0.015815   0.0078962    0.042326   -0.036278   0.0026992    0.029658
-0.0083442  -0.0073698   0.0046481    0.036804   -0.040175  0.00010078    0.018615
0.0065969  -0.0057458   0.0056225    0.035505   -0.043423  -0.0050961     0.01764
0.028034   -0.007045    0.013418    0.038428   -0.047971   -0.010293    0.030633
0.048497  -0.0060706    0.023162    0.044924   -0.055116    -0.01484    0.051096
0.061489 -0.00054884    0.030633    0.049796   -0.063886   -0.021337    0.067336
0.067011    0.008221    0.034855    0.047198   -0.067134   -0.033679     0.06961
0.067661    0.019914    0.036154    0.040377   -0.063561   -0.054142    0.058241
0.063763    0.031932    0.033881    0.032582   -0.054142   -0.080127    0.036804
0.053044    0.038753    0.028034    0.027385   -0.042124    -0.10709    0.013743
0.038753    0.039402    0.019589    0.024786   -0.032055    -0.12722  -0.0041217
0.022837    0.033556    0.008221    0.025436    -0.02426    -0.13664   -0.019063
0.0072465    0.023487   0.0020496    0.028034   -0.020687    -0.13599   -0.032705
-0.0034721    0.015042   0.0020496    0.032906   -0.018088    -0.12625   -0.046671
-0.007045    0.012119   0.0026992    0.036479   -0.012892    -0.10481   -0.058689
-0.0024977    0.017316  0.00010078    0.038428  -0.0024977   -0.072656   -0.061613
0.0052977    0.027385  -0.0034721    0.038428    0.015042   -0.035628   -0.056741
0.014717    0.038103  -0.0089938    0.038103     0.03453  -0.0037969    -0.04862
0.022837    0.046548   -0.013866    0.038103    0.047847    0.020239    -0.04115
0.028684    0.054019   -0.010293    0.035505    0.050446    0.036479   -0.036927
0.032906     0.06019   0.0020496    0.027709      0.0433    0.047523    -0.03303
0.036479    0.065387     0.01764    0.015692    0.029658    0.054019   -0.030756
0.037778    0.070584    0.028684   0.0033489    0.015042    0.057592   -0.030106
0.029658    0.069934    0.029983  -0.0047713   0.0056225    0.059541    -0.03238
0.013418    0.061489    0.024461  -0.0060706  -0.0015233    0.061814   -0.040175
-0.0047713    0.048822    0.019914  -0.0034721   -0.007045    0.064737   -0.056091
-0.020362    0.038428    0.017316      0.0014  -0.0093186    0.066686    -0.07428
-0.030431    0.031607    0.014392   0.0062721  -0.0041217    0.068635   -0.086948
-0.034329    0.024786   0.0091954    0.010495     0.01017    0.075456   -0.086298
-0.028157    0.016016 -0.00087364    0.013418    0.025436    0.087474   -0.069408
-0.010618    0.008221   -0.013541    0.012443    0.031932    0.097218   -0.045372
0.014068   0.0059473   -0.026533   0.0091954    0.025761    0.098517   -0.024585
0.036479   0.0088706   -0.034654   0.0059473   0.0075714    0.089423  -0.0099683
0.053044    0.017965   -0.037577 -0.00022403    -0.01484     0.06896   0.0049729
0.057267    0.029333   -0.034654  -0.0063954   -0.037577    0.036479    0.020239
0.050121    0.039727   -0.026858   -0.010943   -0.055766  -0.0018481     0.03583
0.032257    0.046223   -0.020362   -0.011267   -0.064861    -0.04115    0.048497
0.010819    0.049796   -0.016464  -0.0080194   -0.061937   -0.072981    0.055318
-0.0041217     0.05207   -0.015165  -0.0041217   -0.049595   -0.094418    0.053694
-0.0073698    0.051096   -0.014191  -0.0018481    -0.03173    -0.10611    0.042651
0.0023744    0.045574   -0.013216 -0.00022403   -0.014191    -0.10644    0.027385
0.020888    0.034855    -0.01484   0.0017248  -0.0044465   -0.094743    0.013418
0.039727    0.023487   -0.018413   0.0052977  -0.0057458   -0.072331   0.0049729
0.05207    0.016016   -0.021337   0.0085458    -0.01549   -0.042449   0.0043233
0.055643    0.012768   -0.021012   0.0052977   -0.028807  -0.0096434   0.0075714
0.050446    0.013743   -0.018088  -0.0031473   -0.042124     0.01829    0.015367
0.038753    0.016016   -0.013541  -0.0093186   -0.050569    0.039402    0.027709
0.02706    0.013743   -0.011917   -0.010618   -0.052843    0.054344    0.039727
0.01764   0.0046481   -0.012242  -0.0060706   -0.050569    0.060515    0.044275
0.010495   -0.008669   -0.012567  -0.0018481   -0.045372    0.059541    0.038753
0.003024   -0.018413   -0.011592  -0.0024977   -0.032055    0.052395    0.027385
-0.0047713   -0.021986   -0.011592  -0.0093186   -0.012242    0.042975    0.019914
-0.013216   -0.019388   -0.011267   -0.017764    0.011144     0.03453     0.01894
-0.016789   -0.012242   -0.007045   -0.021337    0.034855     0.03453    0.024137
-0.01549  -0.0031473  -0.0028225   -0.023285    0.053369    0.047847    0.031282
-0.0099683   0.0026992  -0.0044465    -0.02361    0.059216    0.066362    0.032257
-0.0031473   0.0039985   -0.010293   -0.022636    0.049472    0.080653    0.022837
0.0026992   0.0036737   -0.014516   -0.022636    0.022188    0.086175   0.0056225
0.0072465   0.0052977   -0.015815   -0.024585   -0.014191    0.082277   -0.011592
0.0088706    0.008221    -0.01614   -0.024585   -0.046671    0.073832   -0.017439
0.011469    0.011469   -0.014516   -0.021337    -0.06551    0.067986   -0.010293
0.016666    0.014068   -0.013866   -0.019712    -0.06616    0.064413   0.0017248
0.019914    0.016991   -0.011917    -0.02361   -0.050569    0.063438   0.0091954
0.01894    0.019589  -0.0060706   -0.028157   -0.024585    0.063113    0.012443
0.016666    0.016341   0.0043233   -0.029132   0.0062721    0.063763    0.013418
0.015042    0.013743    0.017316   -0.023285    0.040377    0.064413    0.017965
0.014068    0.013743    0.031282   -0.010943    0.071234    0.062789    0.028359
0.015692    0.013418    0.043625   0.0056225    0.090397    0.055968    0.042975
0.019914   0.0088706    0.054019    0.024786    0.094945    0.048172    0.061814
0.030633   0.0010752    0.058891    0.050121    0.084876    0.039402    0.080653
0.039402  -0.0076946    0.058891    0.081303    0.066037    0.024461    0.091696
0.0433   -0.012567    0.056617     0.11801     0.04395  -0.0011985    0.092021
0.04395  -0.0083442     0.05207     0.15016    0.023812   -0.035628    0.082927
0.048172   0.0023744    0.046548     0.16803    0.011469   -0.071357    0.066686
0.053694    0.016991    0.040702      0.1651   0.0043233   -0.099615    0.047523
0.057267    0.031282    0.032906     0.14302   0.0020496    -0.11878    0.031607
0.055643    0.042326    0.024786     0.11281  0.00010078     -0.1269    0.020564
0.053369    0.050121    0.020239      0.0865  -0.0054209    -0.12527    0.014068
0.055968    0.055643     0.01894     0.06831   -0.018738    -0.11878   0.0088706
0.061814    0.062139    0.016991    0.056942   -0.038876    -0.11228   0.0036737
0.067661    0.068635    0.009845    0.046223   -0.054467    -0.10416   0.0010752
0.069934    0.072858      0.0014     0.03453   -0.055441   -0.090845  -0.0011985
0.064413    0.074806  -0.0054209    0.028684    -0.04115   -0.072656  -0.0015233
0.048497     0.07773  -0.0096434    0.029333   -0.019063   -0.053168      0.0014
0.021538    0.080003   -0.010293    0.035505   0.0052977   -0.034978   0.0072465
-0.011267    0.077405  -0.0011985    0.043625     0.03518   -0.022636    0.012443
-0.042124    0.067336    0.014068    0.050446    0.065062   -0.015815    0.016666
-0.062587    0.049147    0.029983     0.05272    0.086824  -0.0089938    0.019914
-0.068758    0.029009    0.041676    0.046223    0.096244   0.0023744    0.023162
-0.060963   0.0095202    0.042975    0.028034    0.096244    0.014068    0.020239
-0.053492  -0.0089938    0.032906  -0.0018481    0.088773    0.018615   0.0085458
-0.056416   -0.031406    0.014392   -0.038227    0.075131   0.0056225   -0.016464
-0.075904   -0.059989  -0.0041217   -0.070382    0.059865    -0.02426   -0.052193
-0.10709    -0.09117   -0.018088    -0.09117    0.040702   -0.061613   -0.081426
-0.14216    -0.12008   -0.029132   -0.096692    0.015692   -0.094418   -0.095393
-0.16847    -0.13697   -0.037902   -0.088247  -0.0067202    -0.11521    -0.09182
-0.17789    -0.13827   -0.044398   -0.075255   -0.021986    -0.11878   -0.079152
-0.1688    -0.12398    -0.04862   -0.062912   -0.027183    -0.10774   -0.063561
-0.14281   -0.098316   -0.045697   -0.055116   -0.022636   -0.090196   -0.046996
-0.10514   -0.068109   -0.035628    -0.04862   -0.010943   -0.075904   -0.028157
-0.063237   -0.035628   -0.023935   -0.038227   0.0052977   -0.068434   -0.007045
-0.025884  -0.0054209   -0.013541   -0.018738     0.01829   -0.064861    0.015042
0.0020496    0.019914   -0.007045   0.0078962     0.02641   -0.059664    0.038103
0.017965    0.042001  -0.0044465    0.037454    0.031282   -0.052843    0.058241
0.026085    0.061165  -0.0018481    0.062789    0.034206   -0.046996    0.071558
0.032582    0.076106   0.0026992    0.080328    0.036154   -0.042774    0.076106
0.041027    0.088773   0.0095202    0.092996    0.036154   -0.039201    0.072858
0.047198    0.099817    0.018615     0.10599    0.032257   -0.034654    0.062139
0.050121     0.11118    0.026735     0.11801    0.021213   -0.034004    0.046873
0.048497     0.12807    0.031607     0.12255   0.0059473   -0.039201    0.028684
0.042651     0.14204    0.033881     0.11313  -0.0080194   -0.048945    0.011144
0.030957     0.14009    0.029658    0.088773   -0.013541   -0.056741  -0.0031473
0.013418     0.11508    0.017316    0.054993  -0.0067202   -0.059989   -0.014191
-0.0083442    0.071883 -0.00054884    0.015692   0.0056225   -0.055766   -0.019712
-0.031081    0.024786   -0.021661    -0.02361   0.0046481   -0.049595   -0.022961
-0.051219   -0.012242   -0.038876   -0.056416   -0.026209   -0.043423   -0.026533
-0.059989   -0.034329   -0.042124   -0.078827   -0.084349   -0.037902   -0.028807
-0.054467     -0.0405   -0.028157   -0.086298    -0.14801   -0.030106    -0.02361
-0.038227   -0.035628  -0.0037969   -0.078503    -0.19738   -0.018088   -0.007045
-0.022961   -0.024585    0.019589   -0.063886    -0.22434  -0.0015233    0.016666
-0.011592   -0.014516    0.030957   -0.050894    -0.22856    0.016666    0.041027
-0.0047713  -0.0057458    0.025111   -0.044073    -0.21525    0.031607    0.060515
0.0020496   0.0026992    0.011794   -0.035628    -0.19089    0.040052    0.070909
0.013743   0.0095202  0.00042559   -0.015165    -0.15938    0.042651    0.073182
0.030308    0.011469  -0.0050961    0.025436    -0.13015    0.042975    0.072208
0.047198   0.0062721  -0.0054209    0.083901    -0.11163    0.044924    0.070584
0.058241  -0.0011985  -0.0024977     0.14399    -0.10611    0.047523    0.070909
0.06019  -0.0044465   0.0072465     0.19304    -0.10676    0.048497    0.071883
0.054668  -0.0011985    0.020239     0.22032    -0.10741    0.044275    0.070259
0.047847    0.014717    0.032582     0.22584    -0.10351    0.033231    0.063763
0.045899    0.049472    0.038753     0.21058   -0.092794    0.019914    0.050771
0.051096     0.10501    0.038103      0.1755   -0.073955   0.0088706    0.031282
0.058241      0.1677    0.035505     0.11183   -0.048296   0.0056225    0.008221
0.059216     0.21155    0.033881     0.01017   -0.016789    0.012119  -0.0076946
0.049147     0.20993    0.031932    -0.13112    0.013743    0.021213   -0.011592
0.029983     0.15861    0.022837     -0.2919    0.033881    0.028684  -0.0057458
0.013418    0.079679   0.0059473    -0.43287    0.040377    0.033231   0.0020496
0.009845   0.0059473   -0.013541    -0.51309     0.03518    0.033881   0.0020496
0.022512   -0.034654   -0.027508    -0.51147    0.026085    0.032582  -0.0054209
0.042326   -0.040825   -0.034654    -0.43319     0.01764    0.031607   -0.016464
0.054019   -0.032705   -0.040175    -0.31171    0.011469    0.028359   -0.025884
0.042975   -0.030106   -0.045372    -0.18634   0.0052977    0.019914    -0.03173
0.012443   -0.043423   -0.045372     -0.0837  -0.0028225   0.0059473   -0.033679
-0.022636   -0.067784   -0.039851   -0.013866  -0.0047713   -0.011592   -0.028482
-0.050569   -0.093119   -0.030431    0.025111  0.00042559    -0.02361   -0.020362
-0.065186    -0.11131   -0.020037    0.043625    0.012119   -0.025234   -0.010293
-0.068434    -0.12105   -0.011267    0.049472    0.022188   -0.020037 -0.00022403
-0.061288     -0.1256  -0.0073698    0.049472    0.032257   -0.010293    0.009845
-0.046347     -0.1269  -0.0047713    0.052395      0.0433   0.0049729    0.015367
-0.024585    -0.12592   0.0017248     0.06084    0.053694    0.019914    0.013093
-0.0018481     -0.1178    0.009845    0.070259    0.061489    0.028034   0.0020496
0.01764    -0.10254    0.016341    0.074157    0.062464    0.028359   -0.012242
0.027385   -0.086298    0.017965     0.06896    0.054344    0.021863   -0.023935
0.029009   -0.072656    0.013418    0.054344    0.034206    0.014068   -0.028807
0.029658   -0.061288   0.0069217    0.037778   0.0059473   0.0065969   -0.030106
0.030308   -0.052518   0.0036737    0.026085   -0.020037  0.00042559   -0.025884
0.036804   -0.044723    0.003024    0.020564   -0.036927  -0.0021729   -0.018413
0.045574   -0.034004   0.0033489    0.022188   -0.043748 -0.00087364   -0.010943
0.053694   -0.020037   0.0036737    0.028034   -0.045047  -0.0024977   -0.007045
0.053369   -0.007045   0.0026992     0.03453   -0.047646  -0.0044465   -0.010943
0.042975   0.0017248      0.0014    0.042326    -0.04862  -0.0096434   -0.018088
0.022512   0.0039985   0.0010752    0.045899   -0.042124   -0.013866   -0.022636
-0.0015233  -0.0018481   0.0043233    0.047523   -0.024585   -0.015815   -0.021337
-0.021337   -0.011592   0.0072465    0.049796  -0.0015233   -0.010943   -0.014191
-0.035628   -0.021986    0.009845    0.053044    0.024137 -0.00054884  -0.0041217
-0.038227    -0.03173    0.012443    0.058566    0.046873    0.014392   0.0039985
-0.031081     -0.0405    0.015692    0.065387    0.061814    0.030308    0.013093
-0.01549   -0.042774    0.020239    0.071558    0.067986    0.045249    0.020564
0.0075714   -0.036602    0.022512    0.072533    0.072208    0.057592    0.023487
0.027385   -0.025234     0.01829    0.065712     0.07773    0.064737    0.013743
0.036479   -0.012567     0.01017    0.053044    0.083251    0.067011  -0.0028225
0.027709  -0.0041217      0.0014    0.037454    0.087799    0.063763   -0.017114
0.0069217      0.0014  -0.0034721    0.025761    0.090072    0.054993   -0.026533
-0.014516   0.0039985  -0.0047713    0.025436    0.089423    0.045899   -0.029782
-0.029782   0.0059473  -0.0050961    0.036479    0.083576    0.038753   -0.027508
-0.035953   0.0095202  -0.0060706    0.053369    0.073507    0.033231   -0.022636
-0.034978    0.016666  -0.0076946    0.066686    0.064413    0.029983   -0.017764
-0.029132    0.024137   -0.010618    0.074157    0.057267    0.024786   -0.013216
-0.019063    0.029983   -0.014191    0.075781    0.053044    0.019589  -0.0057458
-0.0089938    0.034855   -0.018413    0.074482    0.050446    0.015367   0.0026992
-0.0031473    0.037454   -0.021012    0.069934    0.048172    0.013743   0.0088706
-0.00054884    0.038428   -0.022961    0.061814    0.043625    0.016341    0.012768
0.003024    0.042326   -0.021012    0.050771    0.031282    0.021538    0.016341
0.014068    0.049796   -0.012242    0.041676     0.01017    0.034855    0.022512
0.031932    0.059865   0.0036737    0.040052   -0.012567    0.055643    0.031607
0.048172    0.071558    0.023162    0.046873   -0.027833    0.076755    0.040377
0.056292    0.081303    0.033881    0.057267   -0.030756    0.087799    0.042001
0.05142    0.082602    0.030633    0.066037   -0.024585    0.084551    0.034206
0.036154    0.077405     0.01829    0.070259   -0.014191    0.071234    0.027385
0.01894    0.070909   0.0072465    0.071883  -0.0076946    0.052395    0.029983
0.0075714     0.06831   0.0046481    0.073832  -0.0047713    0.036154    0.043625
0.0062721    0.074157     0.01017    0.079679  -0.0034721    0.029009    0.058566
0.016016    0.084226    0.020564    0.087474  0.00042559    0.030957    0.070909
0.033231    0.088124    0.027709    0.092996   0.0026992    0.035505    0.077405
0.049147    0.080328    0.030633    0.093645   0.0059473    0.034855    0.072858
0.054993    0.067336    0.028684    0.089748    0.011469    0.023487    0.056617
0.049472    0.059216    0.024137    0.082277    0.015042   0.0043233    0.031282
0.038753    0.061489    0.023487     0.06831    0.009845    -0.01614   0.0078962
0.031607    0.074157     0.02641    0.050446 -0.00054884    -0.03303  -0.0080194
0.028684    0.092021     0.03453    0.030633   -0.011592   -0.047321   -0.011917
0.029333     0.10306    0.038753    0.017316   -0.021337   -0.059664  -0.0054209
0.028359     0.10209    0.036804    0.014392    -0.03173   -0.069083   0.0043233
0.023162    0.087149    0.030633    0.015692   -0.044073   -0.072331   0.0085458
0.014392    0.068635    0.024137    0.016016   -0.058365   -0.069733   0.0085458
0.0039985    0.055318    0.020239    0.014717   -0.068758   -0.060313   0.0085458
-0.0063954    0.050771    0.023162    0.014392   -0.071032   -0.045372   0.0088706
-0.018738    0.051745    0.029658    0.013418   -0.060638   -0.029132    0.011144
-0.030431    0.053369    0.032257   0.0088706   -0.042774   -0.016789    0.014068
-0.035628    0.054668    0.030633   0.0017248   -0.021986   -0.012242    0.016016
-0.032705    0.054019    0.028359  -0.0047713  -0.0015233   -0.013216    0.012443
-0.021337     0.05142    0.026085  -0.0096434    0.015692   -0.018088   0.0026992
-0.0083442    0.045899    0.025111   -0.013866    0.021863   -0.023285  -0.0067202
0.0036737    0.040052    0.023487   -0.016464    0.019914   -0.025559   -0.010293
0.013418    0.030308    0.017965   -0.017114    0.020564   -0.019712  -0.0057458
0.020888    0.011794   0.0065969   -0.018088    0.028359  -0.0037969   0.0039985
0.027385   -0.010618  -0.0060706   -0.023935    0.042326    0.015367    0.015042
0.028684   -0.029132   -0.014191   -0.028482    0.059541    0.029658    0.022837
0.024461   -0.042124   -0.013216   -0.022636    0.077405    0.031932    0.026735
0.021213   -0.047321  -0.0050961 -0.00054884    0.093645    0.020239     0.02706
0.020888   -0.047321   0.0052977    0.034206     0.10242 -0.00054884    0.024461
0.020888   -0.046022   0.0088706    0.076106     0.09462   -0.022636    0.016666
0.021213   -0.044723   0.0020496     0.11703     0.06961   -0.041799   0.0056225
0.021213   -0.046347  -0.0099683     0.14594    0.035505   -0.055116  -0.0083442
0.01894   -0.048945   -0.021012     0.15114      0.0014   -0.064536   -0.021012
0.012119   -0.051219   -0.025234      0.1336    -0.02361   -0.071682   -0.031406
0.0020496   -0.051868   -0.017764    0.098842   -0.035953   -0.079152   -0.041475
-0.0099683   -0.050244  -0.0034721    0.057267   -0.036602   -0.083375    -0.04992
-0.021661   -0.045047    0.012768    0.019264   -0.024909    -0.08305    -0.05739
-0.029782     -0.0405    0.022188  -0.0060706  -0.0083442    -0.07428   -0.060313
-0.031081   -0.035953    0.024137    -0.01614   0.0095202   -0.060313   -0.056091
-0.026209    -0.03303    0.021213   -0.015815    0.024786    -0.04862   -0.045372
-0.019388   -0.032055    0.016341   -0.013216    0.029983   -0.046671   -0.033679
-0.012242    -0.03238    0.015042   -0.013541    0.020564   -0.056091   -0.022961
-0.0031473   -0.030756    0.017316   -0.021337  -0.0015233   -0.068758   -0.013216
0.0062721    -0.02361    0.016666    -0.03238   -0.024585   -0.077203  -0.0050961
0.015042  -0.0096434   0.0095202   -0.039201   -0.043748   -0.077203  0.00075039
0.021538   0.0059473  0.00042559   -0.037902   -0.044073    -0.06681 -0.00022403
0.025761    0.019589  -0.0018481   -0.030106   -0.025559   -0.046671  -0.0050961
0.025436    0.029009 -0.00054884   -0.020362    0.003024   -0.020362  -0.0076946
0.022512    0.031932   0.0036737   -0.014516    0.028359   0.0049729  -0.0050961
0.021213    0.028034   0.0062721   -0.013541    0.045574    0.024137   0.0046481
0.023487    0.020564   0.0072465   -0.014516    0.055643    0.032906    0.020564
0.029333    0.013418    0.008221   -0.012892    0.059541    0.032582    0.040702
0.03453   0.0085458   0.0088706   -0.010293    0.058566    0.025111    0.058241
0.037129   0.0056225   0.0046481  -0.0083442    0.047198    0.016666    0.071558
0.037454   0.0056225  -0.0054209  -0.0080194    0.021538    0.013093    0.079354
0.038428   0.0065969   -0.015165   -0.010293   -0.021986    0.016991    0.080653
0.036154   0.0088706    -0.02426   -0.014191   -0.080451    0.025111    0.072208
0.031282    0.012119   -0.031406   -0.019063    -0.14087     0.03518    0.057592
0.023162    0.015042   -0.036278    -0.02426    -0.18764     0.04395    0.042001
0.016016    0.015042   -0.039851   -0.029457    -0.21102    0.045899    0.031282
0.008221   0.0072465   -0.046022   -0.031081    -0.21005    0.042975    0.028034
0.00010078  -0.0063954    -0.05739   -0.028157    -0.19219     0.03518    0.030308
-0.0089938   -0.015815   -0.072006   -0.018413    -0.16912    0.022512     0.03518
-0.018738   -0.016789   -0.084349  -0.0054209    -0.15126   0.0085458    0.039402
-0.029132  -0.0093186   -0.084999   0.0046481    -0.13762 -0.00054884    0.037778
-0.038227  0.00042559   -0.070058   0.0085458     -0.1269  -0.0057458    0.030957
-0.045047     0.01017   -0.045372   0.0039985    -0.11521   -0.010618    0.021538
-0.046347    0.016341   -0.019063  -0.0063954   -0.097341   -0.015815    0.013743
-0.041799    0.019914  -0.0021729   -0.019388   -0.072331   -0.019388   0.0075714
-0.034654    0.024137   0.0049729   -0.026858   -0.038227   -0.017439   0.0059473
-0.028807    0.029333   0.0072465   -0.027183   0.0017248  -0.0089938    0.012119
-0.022636    0.034206   0.0072465    -0.02361    0.042651   0.0033489    0.024461
-0.017764    0.037454   0.0088706   -0.021661    0.081303    0.011144    0.034855
-0.011592    0.036479    0.011144    -0.02361     0.11833   0.0088706    0.036804
-0.0044465    0.033231    0.014392   -0.026533     0.15309  -0.0031473    0.024786
0.00075039    0.029009    0.015692   -0.031081     0.18427   -0.021337 -0.00054884
0.0046481    0.029658    0.019589   -0.035628     0.20018   -0.040175   -0.026209
0.0036737     0.03583    0.029983   -0.043099     0.18946   -0.052193   -0.043423
-0.0024977    0.044924      0.0433    -0.04927     0.15016   -0.050894   -0.047971
-0.012242    0.054344    0.054668   -0.052193    0.096893   -0.039526   -0.044073
-0.019063    0.054019    0.059865   -0.053492    0.048497   -0.024909   -0.038551
-0.02361    0.041676    0.055968   -0.056741    0.020888    -0.01614   -0.031081
-0.025234    0.021863    0.045899   -0.062912     0.01894   -0.015165   -0.021337
-0.021986 -0.00087364    0.034206   -0.073306    0.027709   -0.022311  -0.0099683
-0.017114   -0.021012    0.020888   -0.088247    0.034855   -0.034329  -0.0034721
-0.016464   -0.035953    0.010495    -0.10481    0.031607   -0.045697  -0.0083442
-0.025234   -0.042449   0.0010752    -0.11391    0.013743   -0.054467   -0.021986
-0.044723   -0.045372  -0.0044465    -0.10806   -0.017764   -0.059664   -0.038227
-0.068109   -0.046671  -0.0063954    -0.08305    -0.04927   -0.062912   -0.054142
-0.080776   -0.047971  -0.0044465   -0.045047   -0.072981   -0.066485   -0.067459
-0.076229    -0.04927  -0.0034721  -0.0050961   -0.084999   -0.069733   -0.075255
-0.05804   -0.052518  -0.0063954    0.031607   -0.084999   -0.069408   -0.075255
-0.035628   -0.055441   -0.015165     0.06019   -0.076229   -0.061613   -0.067134
-0.020037   -0.055766   -0.024909    0.078704   -0.062587   -0.047646   -0.055116
-0.017439   -0.054142   -0.031406    0.084876   -0.050244   -0.025884   -0.046022
-0.027183   -0.052193   -0.028157    0.079679    -0.04115 -0.00087364   -0.041799
-0.038227   -0.046022   -0.015165    0.067986   -0.033679    0.021213   -0.039851
-0.044723   -0.035303    0.003024     0.05142   -0.029782    0.034206   -0.037252
-0.043423   -0.021337     0.01829    0.031607   -0.027183    0.037129   -0.030431
-0.036278   -0.011592    0.024786    0.014392   -0.026533    0.033231   -0.020362
-0.026858   -0.011592    0.022188   0.0039985    -0.03303    0.027709   -0.007045
-0.015815   -0.017764    0.014068  -0.0028225   -0.049595    0.021863    0.008221
-0.0047713   -0.023935   0.0072465   -0.007045   -0.077203    0.014392    0.025761
0.011469   -0.023935   0.0065969  -0.0080194    -0.10936   0.0072465     0.04395
0.033231    -0.01549   0.0085458  -0.0047713    -0.13762   0.0036737    0.056617
0.054019  -0.0073698    0.009845  -0.0011985    -0.15451   0.0036737    0.056617
0.066037  -0.0044465   0.0062721   0.0026992    -0.15841   0.0043233    0.042326
0.06831  -0.0083442      0.0014   0.0078962    -0.15223   0.0046481    0.022188
0.063763   -0.013866  -0.0041217    0.013093    -0.13794   0.0056225   0.0059473
0.056292    -0.01614  -0.0083442    0.016341    -0.11488   0.0078962  -0.0034721
0.050121   -0.012242  -0.0093186    0.022188   -0.084024    0.010495  -0.0060706
0.047198  -0.0024977  -0.0044465    0.033556    -0.04992    0.011469  -0.0031473
0.045249    0.010819   0.0052977    0.048497    -0.01484    0.015042   0.0017248
0.043625    0.022512    0.016666    0.064088     0.01829    0.022512   0.0052977
0.037778    0.028034    0.022837    0.074806    0.045574     0.03518   0.0049729
0.031282     0.02706    0.022188    0.081952    0.065387    0.049796   0.0020496
0.024786    0.023162    0.013093    0.085525    0.081952    0.057917  -0.0031473
0.019589    0.021538 -0.00087364    0.087149    0.099492    0.058241   -0.011592
0.015692    0.021538   -0.012242    0.088773     0.11866     0.05142   -0.020037
0.015042    0.021538   -0.021012    0.092346     0.13652    0.045249   -0.022311
0.018615    0.021213   -0.024909    0.096244     0.14756    0.042001   -0.012567
0.025111    0.021213   -0.023285    0.097218     0.15114    0.044924   0.0056225
0.030957    0.019589   -0.021012    0.095269     0.14724    0.051096    0.025761
0.033881    0.016341   -0.018088    0.089098      0.1349    0.054019    0.038103
0.036154    0.018615   -0.017114    0.080653     0.11313    0.049147    0.040377
0.039727    0.024137   -0.021337    0.071234    0.088124    0.040052    0.035505
0.042001    0.029333   -0.027833    0.060515    0.066686    0.028684    0.032906
0.041351    0.030308    -0.03238    0.054019    0.055968     0.01829     0.03583
0.037778    0.029333   -0.032705    0.053694    0.057592    0.011469    0.044924
0.036479     0.03453   -0.025884    0.058566     0.06831    0.010819    0.058566
0.036804    0.047198   -0.013541    0.069934    0.087149    0.019914    0.073182
0.037129    0.064088   0.0036737      0.0852     0.11541    0.036479    0.082927
0.037129    0.078379    0.023487    0.097868     0.15179     0.05272    0.083901
0.033231    0.085525    0.037129     0.10274     0.19044    0.059216    0.077405
0.029333    0.087474    0.041027     0.09462     0.22292    0.051096    0.064737
0.029658      0.0852    0.039402    0.076106     0.24338    0.031932    0.047847
0.031282    0.080328    0.036154    0.053044     0.24273    0.008221    0.028684
0.031607    0.073182    0.035505    0.029333     0.21123    -0.01484   0.0095202
0.031282    0.062789    0.037129   0.0039985     0.15016   -0.032055  -0.0063954
0.027385    0.048822    0.036804   -0.025234    0.068635   -0.039201   -0.014191
0.016991    0.037778    0.031607    -0.05739    -0.01549   -0.037902   -0.015165
0.0014    0.031932    0.023487   -0.081751   -0.084674   -0.031406   -0.015165
-0.016464     0.03453    0.011794    -0.09182     -0.1295   -0.025884   -0.015815
-0.030756    0.041351   0.0039985   -0.084999    -0.15158   -0.020687   -0.015815
-0.037577    0.048497   0.0043233    -0.06616    -0.15483   -0.014516   -0.010293
-0.036602     0.05207    0.013418   -0.041799    -0.14704  -0.0089938 -0.00022403
-0.030106    0.053369    0.029009   -0.018738    -0.13372  -0.0073698    0.011144
-0.019388    0.055318    0.040052 -0.00054884    -0.11715  -0.0083442    0.021538
-0.010943    0.056617    0.040377    0.015367    -0.10156  -0.0089938    0.029658
-0.0083442    0.055643    0.029009    0.029983   -0.090521  -0.0096434    0.036154
-0.0099683     0.05272    0.010495    0.042001   -0.088896   -0.011592    0.041027
-0.013541    0.047198  -0.0041217    0.048822   -0.095717   -0.011917      0.0433
-0.014191    0.042326   -0.011267     0.05207    -0.10611  -0.0093186    0.044275
-0.007045    0.037778  -0.0096434    0.053694    -0.11391  -0.0041217    0.042001
0.0049729    0.030957  -0.0041217    0.056942    -0.11293 -0.00087364    0.042975
0.016666     0.02706  0.00010078    0.061814    -0.10579   0.0039985    0.049796
0.027709    0.024786 -0.00022403    0.063438   -0.098965    0.012443    0.058891
0.037778    0.024137  -0.0015233    0.059216   -0.098316    0.020239    0.063113
0.043625    0.024137  -0.0044465    0.049472    -0.10709    0.022512    0.056292
0.042975    0.028684   -0.008669    0.034206     -0.1243     0.01894    0.041027
0.037778     0.03583   -0.015165    0.017965    -0.14379    0.013093    0.021538
0.029983    0.041676   -0.018738      0.0014    -0.15191   0.0069217   0.0069217
0.022512      0.0433   -0.016789  -0.0089938    -0.14184   0.0036737  -0.0018481
0.015042    0.040377  -0.0099683   -0.010618    -0.11521   0.0059473  -0.0054209
0.0085458    0.030633  -0.0011985  -0.0037969     -0.0824   0.0091954  -0.0076946
0.0059473    0.016341    0.003024   0.0065969   -0.052518   0.0095202   -0.011592
0.0033489    0.003024  -0.0015233    0.013418   -0.028157   0.0062721   -0.016789
0.0014  -0.0044465   -0.011917    0.016666   -0.014191   0.0056225   -0.020687
-0.0021729  -0.0044465   -0.017439    0.013743   -0.011917   0.0075714    -0.02361
-0.0044465   0.0020496   -0.016464   0.0085458   -0.016464   0.0065969   -0.022961
-0.007045    0.013743  -0.0093186   0.0036737    -0.02426  0.00042559   -0.018088
-0.0073698    0.025436  -0.0024977   0.0010752    -0.03303  -0.0076946   -0.008669
-0.0050961    0.034206      0.0014 -0.00022403   -0.045047   -0.011917    0.003024
0.00075039    0.037454   0.0017248  0.00010078   -0.056091   -0.010618    0.013418
0.012443     0.03518  -0.0034721  0.00010078   -0.059664  -0.0031473    0.023162
0.028034    0.032257  -0.0099683  -0.0031473   -0.050894   0.0020496    0.029658
0.03583    0.027385   -0.013866   -0.011917   -0.039851   0.0017248    0.029009
0.034206    0.019914    -0.01614   -0.024909   -0.034654  -0.0018481    0.023487
0.023812    0.011144   -0.023285   -0.036278   -0.036927  -0.0076946     0.01764
0.009845   0.0052977   -0.036278   -0.041799   -0.043423   -0.011592    0.012443
-0.0015233   0.0043233    -0.04927   -0.042774   -0.047646    -0.01614   0.0039985
-0.0057458    0.008221   -0.060313   -0.042449   -0.047646   -0.018413   -0.010293
-0.00022403    0.011144   -0.064861   -0.042774   -0.044723   -0.020037   -0.026858
0.013093   0.0085458   -0.058365   -0.044723   -0.043748   -0.022311   -0.037577
0.020888 -0.00054884   -0.046347   -0.052518   -0.046022   -0.027833   -0.043099
0.016666   -0.017114   -0.030756   -0.063237   -0.051219   -0.039201    -0.04862
0.0020496   -0.036602   -0.011592   -0.072656   -0.060963   -0.052843   -0.054792
-0.019712   -0.056741   0.0075714   -0.080451   -0.076229   -0.064536   -0.060638
-0.044073   -0.071032    0.022837   -0.086623   -0.092469   -0.068434   -0.062912
-0.064536    -0.07493    0.034206   -0.086623    -0.10286   -0.061613   -0.059339
-0.073631   -0.069083    0.039078   -0.079802    -0.10384   -0.044723   -0.050894
-0.076229   -0.061288    0.033556   -0.068434   -0.096042    -0.02426    -0.04115
-0.071032   -0.053817    0.016341   -0.057715   -0.078503   -0.008669    -0.03173
-0.056416   -0.046022  -0.0060706   -0.046022   -0.052193  -0.0041217   -0.026533
-0.038876   -0.036278   -0.025234   -0.026533   -0.020037  -0.0073698   -0.027833
-0.023285   -0.025559   -0.034978  0.00042559    0.012119   -0.015815   -0.029457
-0.008669    -0.01614   -0.030106    0.030957    0.040052   -0.021337   -0.028807
0.0043233   -0.012567   -0.017764    0.063113    0.060515   -0.023285   -0.021986
0.013093   -0.017439  -0.0028225    0.088124    0.073507   -0.023285   -0.011592
0.012119   -0.029457    0.012443     0.10436    0.080328   -0.021337  -0.0011985
0.00042559   -0.039201    0.025761     0.10826    0.082602   -0.019063   0.0056225
-0.016789   -0.043099    0.031932     0.10306    0.084551   -0.017764   0.0033489
-0.032705   -0.043423    0.032257    0.092671    0.085525   -0.020037  -0.0057458
-0.0405   -0.046671    0.029983    0.084551    0.087149   -0.022311    -0.01484
-0.039851   -0.058365    0.030308    0.079679    0.091372   -0.024585    -0.01614
-0.038876   -0.071682    0.034206    0.074482    0.097218   -0.028807   -0.011592
-0.037902   -0.079802    0.039402     0.06831     0.10469    -0.03238  -0.0067202
-0.033679   -0.078503    0.041027    0.062789     0.10371   -0.036278  -0.0060706
-0.026858   -0.068758     0.03518     0.06019    0.089748   -0.037252   -0.008669
-0.021337   -0.055766    0.022837     0.06019    0.061165    -0.03303  -0.0099683
-0.015815   -0.043423    0.010819    0.059216    0.026085   -0.025559  -0.0054209
-0.0099683   -0.031081   0.0059473    0.054993  -0.0054209   -0.019063  0.00042559
-0.0011985   -0.020037    0.009845    0.048822   -0.022636   -0.014191   0.0046481
0.0043233   -0.011592    0.019914    0.039727   -0.025234  -0.0096434   0.0052977
0.0043233  -0.0044465    0.030633    0.027385   -0.016464  -0.0063954    0.003024
0.0010752  0.00075039    0.037129    0.012768 -0.00087364  -0.0063954   0.0020496
-0.0018481   0.0052977    0.040702  -0.0031473    0.016666   -0.011592   0.0020496
0.00010078    0.010495    0.044924   -0.017764    0.030633   -0.019063   0.0043233
0.0091954    0.016666    0.044924   -0.028807    0.040702   -0.022961   0.0091954
0.022188    0.025436    0.040377   -0.035953    0.047847   -0.018088    0.015692
0.03453    0.037129    0.032257   -0.039526    0.055318  -0.0073698    0.021863
0.039727    0.045249    0.025436   -0.041475     0.06896   0.0043233     0.02706
0.036804    0.044599    0.020564   -0.040825    0.088448     0.01017    0.029333
0.028359    0.033881    0.016991   -0.035303     0.10729   0.0085458    0.026735
0.017965    0.014068    0.012768    -0.02426     0.11508   0.0023744    0.017965
0.01017  -0.0054209   0.0075714  -0.0096434     0.10436  -0.0044465   0.0065969
0.0026992    -0.01484   0.0043233   0.0036737    0.079029  -0.0089938  -0.0028225
-0.0024977   -0.010618   0.0052977    0.010495    0.050446  -0.0080194   -0.007045
-0.0034721   0.0043233   0.0069217   0.0085458     0.02706  -0.0041217  -0.0031473
0.0026992    0.025111   0.0072465   0.0039985    0.013743  0.00075039   0.0085458
0.013093    0.044599  0.00042559   0.0033489    0.013418   0.0026992    0.019589
0.021538    0.061489   -0.010943   0.0078962    0.021538   0.0033489    0.022837
0.025111    0.072533   -0.022636    0.015692    0.032257  0.00010078    0.016341
0.024786    0.076755   -0.028807    0.021538    0.039078  -0.0031473   0.0056225
0.020564    0.074806   -0.026209    0.024461    0.039402  -0.0037969 -0.00054884
0.011144     0.06896   -0.016464    0.024786     0.03583  -0.0011985   0.0033489
0.0010752    0.064737  -0.0018481    0.023162    0.027385  -0.0050961    0.013418
-0.0057458     0.06831    0.013418    0.017965    0.015692   -0.015815    0.022837
-0.0073698    0.078055    0.024137   0.0091954   0.0026992   -0.028157    0.030633
-0.0034721    0.083901    0.028034  -0.0018481  -0.0093186    -0.03173     0.03583
0.0052977    0.078379     0.02641   -0.011592   -0.019388   -0.023935     0.03518
0.018615     0.06019    0.020564   -0.016789    -0.02361   -0.010293    0.030957
0.029658     0.03518    0.013093   -0.018738   -0.021986 -0.00022403    0.029009
0.03518    0.014717   0.0049729   -0.017114    -0.01549   0.0020496    0.031282
0.03583   0.0049729      0.0014   -0.015165  -0.0073698      0.0014     0.03518
0.037454    0.008221   0.0020496  -0.0076946  -0.0021729  0.00010078    0.037129
0.039402    0.020239   0.0072465   0.0017248 -0.00054884 -0.00022403     0.03583
0.038753     0.03453    0.011794    0.011144 -0.00087364   0.0026992    0.033556
0.03518    0.044924    0.012443     0.01829  -0.0018481   0.0095202    0.031932
0.032257    0.051096    0.009845    0.026085  -0.0044465    0.016991    0.033881
0.032257     0.05272   0.0065969     0.03453  -0.0073698    0.022512    0.038428
0.030308    0.048822   0.0062721    0.038753   -0.011917    0.024461    0.046873
0.025761    0.038428   0.0078962    0.039727   -0.012892    0.026735    0.055318
0.021538    0.028034    0.009845    0.040702   -0.008669    0.029983    0.063113
0.019589    0.019264    0.010819    0.042001  -0.0037969    0.039078    0.071234
0.019914    0.014717   0.0091954    0.040052  -0.0028225    0.048822    0.078055
0.020564    0.012768   0.0065969    0.032257  -0.0063954    0.050446    0.081952
0.01829     0.01017   0.0033489    0.020564   -0.012892    0.040377    0.080653
0.013743   0.0056225  0.00042559   0.0069217   -0.021012    0.019264    0.073507
0.012443      0.0014  -0.0018481  -0.0034721   -0.030756  -0.0037969    0.062789
0.019264   0.0017248  -0.0021729  -0.0067202   -0.038551   -0.017439    0.053044
0.02706   0.0062721 -0.00054884 -0.00054884     -0.0405    -0.01614    0.046548
0.034855    0.013093  -0.0034721    0.013093   -0.036602  -0.0044465    0.044275
0.040377    0.013743   -0.014516    0.027709   -0.026209   0.0085458    0.041351
0.0433   0.0069217   -0.030756    0.037129   -0.015165     0.01894    0.038428
0.044275  -0.0054209   -0.043423    0.036154  -0.0080194    0.022512    0.033881
0.046548   -0.017439   -0.048945    0.027385   -0.010618    0.018615    0.028684
0.05207   -0.024909   -0.046671    0.016666   -0.019712    0.008221    0.025761
0.058566   -0.021012   -0.037252    0.008221   -0.029457  -0.0011985    0.025761
0.061165  -0.0050961    -0.02361   0.0020496   -0.034978   -0.010293    0.027709
0.058566    0.019914  -0.0096434  -0.0015233    -0.03238   -0.013866    0.030957
0.054993    0.052395    0.003024  -0.0021729   -0.022636   -0.011267    0.034855
0.045899    0.088773    0.015367   0.0010752  -0.0083442  -0.0041217    0.037129
0.030308     0.11541    0.028034   0.0069217   0.0059473   0.0046481    0.033881
0.0069217     0.11476    0.039078    0.012119    0.015042    0.017965    0.026085
-0.019712    0.082277    0.043625    0.016016    0.019914    0.033231    0.013093
-0.045047    0.028684    0.041351    0.020888    0.021213    0.047198  -0.0015233
-0.068434   -0.026858    0.033881    0.026085    0.024137    0.053369   -0.012567
-0.084024    -0.06616    0.021863    0.031932    0.028684    0.047523   -0.018413
-0.087272   -0.084024    0.008221    0.036154    0.035505    0.030308   -0.021012
-0.081751   -0.081751   -0.007045    0.038753    0.044599   0.0069217   -0.021986
-0.071032   -0.067134    -0.02361    0.035505    0.049796    -0.01614   -0.025884
-0.056091   -0.046347   -0.035628    0.030308    0.046548   -0.035628   -0.031406
-0.036278   -0.026533   -0.041475    0.026735    0.031607   -0.044398   -0.038227
-0.015165    -0.01614   -0.041475    0.027709   0.0088706   -0.038876   -0.042449
0.0049729   -0.018738   -0.033354    0.030308   -0.010618   -0.021012   -0.037577
0.024461   -0.029457   -0.020362    0.032582   -0.021337   0.0017248   -0.022311
0.039402     -0.0405  -0.0057458    0.031932   -0.022311    0.021538  -0.0015233
0.046873   -0.046347   0.0049729    0.027385   -0.020362    0.033881    0.015042
0.044275   -0.045697    0.011794    0.016991   -0.019063    0.038103    0.024461
0.031607   -0.037577    0.017316   0.0043233   -0.019388    0.031932     0.02641
0.015692   -0.024585    0.020564  -0.0050961   -0.021986    0.019264    0.022188
0.0026992   -0.010943    0.021863   -0.010618   -0.031081   0.0069217    0.017316
-0.0034721      0.0014    0.021538   -0.012567   -0.046022 -0.00022403    0.012768
0.0014    0.014068     0.01764   -0.011592   -0.058365 -0.00022403    0.011469
0.014717     0.02706    0.016341  -0.0060706   -0.061288   0.0033489    0.012768
0.030957    0.042326    0.018615  0.00075039   -0.052843   0.0085458    0.020564
0.046223    0.060515    0.021213   0.0017248   -0.034978    0.016341    0.032582
0.054019    0.071558     0.01764  -0.0031473   -0.016464    0.026735    0.042001
0.048172    0.068635   0.0052977   -0.010293  -0.0034721    0.034855      0.0433
0.03453    0.051096    -0.01484   -0.017114   0.0036737    0.036154     0.03583
0.01764    0.025436   -0.034329   -0.019063   0.0043233    0.033231    0.021213
0.003024  0.00075039   -0.047971    -0.01484    0.003024    0.026085   0.0062721
-0.0067202   -0.018088   -0.047971  -0.0080194   0.0039985    0.016016  -0.0034721
-0.0089938   -0.026209   -0.037577  -0.0015233   0.0046481   0.0052977  -0.0057458
-0.007045    -0.02426   -0.022636      0.0014   0.0026992  -0.0034721  -0.0037969
-0.0031473  -0.0099683   -0.012567  0.00010078  -0.0037969  -0.0093186  -0.0011985
0.0020496    0.015042  -0.0076946  -0.0011985   -0.012567   -0.010293   0.0020496
0.0069217    0.038753  -0.0024977 -0.00087364   -0.022961  -0.0073698   0.0049729
0.0059473    0.057917   0.0036737   0.0033489    -0.03303  -0.0037969   0.0043233
0.00010078     0.06896   0.0075714    0.011794   -0.042124  -0.0044465  -0.0034721
-0.010943    0.074482   0.0039985    0.021538    -0.04927  -0.0099683   -0.022636
-0.024585    0.078704  -0.0041217    0.030308   -0.054792   -0.019712   -0.050244
-0.036927    0.083251  -0.0099683    0.035505   -0.060963    -0.03303   -0.078503
-0.042124    0.085525   -0.010618    0.038753   -0.070058   -0.048296    -0.09117
-0.03303     0.08585  -0.0063954    0.039727   -0.079802   -0.059664   -0.081101
-0.010293    0.089748   0.0039985    0.040052   -0.088896   -0.064861   -0.055766
0.01764    0.099817    0.021538    0.041351   -0.096367   -0.059989   -0.028807
0.041027     0.10956    0.042001    0.042326    -0.10416   -0.047646   -0.012892
0.046873     0.10826    0.057917    0.042001    -0.10709   -0.036927   -0.012892
0.03453    0.082602    0.061489    0.037778    -0.10676   -0.034004   -0.021661
0.010819     0.03583    0.049472    0.029658    -0.10319   -0.038551   -0.030431
-0.016464   -0.019388    0.025111     0.01894   -0.097666   -0.046996   -0.036602
-0.037252    -0.06551 -0.00022403   0.0078962    -0.09117   -0.053168   -0.038227
-0.046671   -0.094418   -0.020687  0.00010078     -0.0824   -0.054792     -0.0405
-0.044723    -0.10319   -0.036278   0.0020496    -0.06616   -0.054467   -0.043423
-0.033679   -0.094743   -0.044723    0.010819   -0.045697   -0.051868   -0.045697
-0.018088    -0.07493   -0.043099    0.023487   -0.026533   -0.045047   -0.047646
-0.0060706   -0.051219    -0.03303    0.034855   -0.013216   -0.034654   -0.046996
-0.00054884   -0.028157   -0.022961      0.0433  -0.0050961    -0.02426   -0.042449
0.0010752   -0.010943   -0.019388    0.046873  -0.0011985   -0.017114   -0.036278
0.008221  0.00042559   -0.023935    0.046548   0.0036737   -0.015165   -0.031406
0.016341   0.0062721   -0.033679    0.041027    0.013418   -0.012892   -0.025559
0.022837     0.01017   -0.044398    0.033231    0.031607  -0.0047713   -0.015165
0.02641     0.01764   -0.051219    0.024461    0.055643   0.0052977  -0.0031473
0.027385    0.023162   -0.052518    0.019914    0.082277    0.014392   0.0072465
0.022188    0.023162   -0.046347     0.01764     0.10826    0.020239    0.013418
0.010495    0.016666   -0.036278    0.016341      0.1349    0.022837    0.015692
-0.0044465   0.0026992    -0.02426    0.013418     0.15244    0.022512    0.013418
-0.017764   -0.010618   -0.013216   0.0095202     0.15568    0.017316   0.0078962
-0.025884   -0.020362  -0.0021729   0.0062721     0.14367   0.0088706   0.0017248
-0.030431   -0.025884   0.0059473   0.0043233     0.12483  0.00042559  0.00010078
-0.030756   -0.029457   0.0095202   0.0065969     0.10534  -0.0063954   0.0046481
-0.028482   -0.034978   0.0091954    0.015042    0.091047   -0.013866    0.008221
-0.025234   -0.044398    0.010495    0.029983     0.07773   -0.019388   0.0069217
-0.025559   -0.052843    0.013743    0.046873    0.057917   -0.022961 -0.00054884
-0.028157   -0.055766    0.016991     0.06019    0.027709   -0.023285  -0.0099683
-0.031081   -0.054467    0.016341    0.069934  -0.0099683   -0.020687   -0.013866
-0.027508   -0.048296    0.014392    0.081303   -0.044398   -0.015165   -0.013866
-0.016464   -0.039526    0.014068     0.10566   -0.069408  -0.0096434   -0.010618
-0.00087364   -0.027508    0.016341     0.14821   -0.081426  -0.0080194  -0.0037969
0.014392    -0.01614    0.024461     0.19921   -0.086623   -0.010618   0.0043233
0.02641  -0.0044465    0.037454     0.24598   -0.086948   -0.013866    0.009845
0.033881   0.0049729    0.047523     0.27229   -0.082076   -0.012892    0.013418
0.032257    0.011144    0.051096     0.27002   -0.074605  -0.0073698    0.015367
0.023487    0.014392    0.048172     0.24046   -0.069733 -0.00054884     0.01829
0.013093    0.014392      0.0433     0.18297   -0.069083   0.0056225    0.025111
0.0095202    0.013418    0.038103    0.096569   -0.069408   0.0085458    0.032906
0.014717    0.009845    0.036154   -0.029457   -0.069083   0.0065969    0.038753
0.022512   0.0059473    0.032582    -0.19186    -0.06616   0.0062721    0.040377
0.028034   0.0033489    0.025436    -0.36173   -0.057715   0.0078962    0.037129
0.027385   0.0023744    0.015367    -0.49718   -0.034978   0.0095202    0.027709
0.021213 -0.00022403   0.0036737    -0.55987   0.0075714    0.009845    0.014068
0.014717  -0.0057458  -0.0073698    -0.53063    0.066037    0.013093    0.003024
0.012119   -0.016464   -0.011592    -0.42865     0.12288    0.021213    0.003024
0.014392   -0.030106  -0.0080194     -0.2945     0.15893    0.032906    0.011469
0.018615   -0.045697 -0.00054884    -0.17237     0.15991    0.046223    0.019589
0.017965   -0.059664   0.0069217   -0.085648     0.12807    0.055643    0.023487
0.0075714   -0.071032    0.013093   -0.034654    0.075456     0.06084    0.018615
-0.011592   -0.078827    0.016666   -0.010943    0.028034    0.063763   0.0069217
-0.03173   -0.082076    0.013743  -0.0015233   0.0072465    0.063113  -0.0060706
-0.043423   -0.079152   0.0091954   0.0075714    0.017316    0.059216   -0.013216
-0.047971   -0.069408   0.0072465    0.026085    0.042651    0.054668   -0.015815
-0.045372   -0.055116   0.0078962    0.054993    0.061814    0.048497   -0.013216
-0.038551   -0.037902    0.011794    0.087149     0.06019    0.039078  -0.0083442
-0.03238   -0.022636    0.017965     0.11768     0.03453    0.028359  -0.0047713
-0.029132   -0.010943    0.026735     0.14107  -0.0060706    0.017316  -0.0057458
-0.028157  -0.0031473    0.037129     0.14886   -0.047321    0.008221   -0.012242
-0.029782  0.00075039     0.04395     0.13912   -0.077528   0.0062721   -0.017439
-0.03238   0.0026992    0.042001     0.11573   -0.093119   0.0091954   -0.017114
-0.034329   0.0046481    0.031282    0.088448    -0.09117    0.010819   -0.013216
-0.034654   0.0088706     0.01829    0.062464   -0.072006   0.0075714  -0.0076946
-0.03173     0.01764   0.0091954    0.042326   -0.034654  0.00010078 -0.00054884
-0.022311    0.029009   0.0046481    0.030308    0.015692   -0.010293    0.011144
-0.0047713    0.038753   0.0052977    0.024786    0.067986   -0.017439    0.022837
0.013093    0.048497    0.012443     0.02641     0.11054   -0.013866    0.028034
0.021863    0.057592    0.023162    0.029009     0.13782  -0.0021729    0.023812
0.019589    0.064088    0.030957    0.028359     0.15016   0.0065969    0.014717
0.011144    0.069285    0.028684    0.023162     0.14529   0.0043233   0.0043233
0.0014    0.074482    0.018615    0.016341     0.12255  -0.0073698  -0.0063954
-0.0018481    0.080328    0.011144   0.0078962    0.085525   -0.022311    -0.01484
0.003024    0.084876     0.01017   0.0010752    0.038103   -0.034654    -0.01549
0.017316     0.08585    0.014717  -0.0018481   -0.007045   -0.037902  -0.0047713
0.034855    0.085525    0.021213 -0.00022403   -0.040175   -0.034329    0.011144
0.049472    0.086824    0.027385   0.0046481   -0.060963   -0.027183     0.02641
0.054668    0.090072    0.030957    0.011144   -0.071357   -0.021337    0.032582
0.051745    0.091372    0.028684     0.01829   -0.074605   -0.020362    0.027385
0.04395    0.089423    0.025111    0.025436   -0.069733   -0.024585    0.016666
0.032906    0.086824    0.023812    0.032257   -0.057715   -0.031081   0.0069217
0.019914    0.082602    0.029009    0.037129   -0.034329   -0.033679   0.0026992
0.0046481    0.078379    0.036154    0.039402   0.0078962   -0.031406   0.0010752
-0.0089938    0.075781    0.036479    0.041027    0.063763   -0.025234   0.0033489
-0.014516    0.075781    0.030308    0.044924     0.12158   -0.019063     0.01017
-0.0060706    0.075781    0.021213    0.051745     0.16283   -0.015165     0.01764
0.014068    0.075131    0.013743    0.058891     0.17939   -0.010618    0.022837
0.042975    0.070584   0.0091954    0.065387     0.17452  -0.0047713    0.023487
0.070259    0.063438   0.0062721    0.070584     0.15666   0.0036737    0.022188
0.086175    0.057267   0.0072465    0.076755      0.1258    0.008221    0.022512
0.087149    0.056617    0.013418    0.084226    0.082277   0.0052977    0.026735
0.082277    0.061814    0.016991    0.091372    0.031282 -0.00054884    0.030308
0.074806    0.067011    0.014717    0.095594   -0.011592  -0.0041217    0.032257
0.066362    0.067986   0.0069217    0.094295   -0.039201 -0.00022403    0.033231
0.058241    0.064088  -0.0028225    0.087474   -0.054467   0.0043233    0.038428
0.051096    0.061489  -0.0083442    0.080653   -0.059989   0.0062721    0.049796
0.043625    0.061814  -0.0047713     0.07708   -0.055116   0.0043233    0.064413
0.03583    0.061814   0.0056225    0.078704   -0.043099  0.00010078    0.073832
0.030308    0.057917    0.014392    0.081303   -0.034329  -0.0024977    0.075456
0.026085    0.050771    0.016991    0.079029   -0.044398  0.00010078     0.06831
0.016666    0.040052    0.011794    0.073507   -0.078503   0.0078962    0.056617
0.0039985    0.030957  0.00010078    0.066037    -0.13047    0.014392    0.046223
-0.0083442    0.022512   -0.010293    0.064413    -0.18309     0.01829    0.039078
-0.018413    0.017965   -0.020037    0.070584    -0.22142    0.015692    0.033881
-0.027183    0.019914   -0.027508    0.075131    -0.22921   0.0069217    0.024786
-0.033679    0.024461   -0.034004    0.074482     -0.2042  -0.0037969   0.0091954
-0.034329    0.025436   -0.036278    0.070259    -0.16458   -0.013541   -0.010618
-0.029782    0.019589   -0.033354    0.062464     -0.1282   -0.022961   -0.029782
-0.021661     0.01017   -0.028482    0.054019    -0.10838   -0.028807   -0.042449
-0.014516      0.0014   -0.023935    0.042975    -0.10579   -0.031406   -0.043748
-0.014516  -0.0050961   -0.020362    0.029658    -0.11066    -0.03173    -0.03173
-0.021012  -0.0076946   -0.020362    0.016666    -0.11553   -0.031081   -0.012242
-0.027183   -0.011592   -0.021012   0.0039985    -0.11715   -0.029457   0.0085458
-0.028157   -0.015165   -0.017764   -0.010293    -0.11358   -0.029132    0.027385
-0.019388   -0.019063   -0.012892   -0.027833    -0.10741   -0.028482    0.040702
-0.0028225   -0.020037   -0.011592   -0.048296    -0.10449   -0.023935    0.049472
0.015692   -0.018088   -0.018738   -0.069733    -0.10156   -0.018738    0.054019
0.028034    -0.01549   -0.028807   -0.088896   -0.094418   -0.013541    0.052395
0.032906   -0.011917   -0.035628    -0.10384   -0.082725   -0.010943    0.048497
0.031282   -0.011592   -0.040825    -0.11521   -0.071682   -0.011267    0.041351
0.031282   -0.013216   -0.047646    -0.12463   -0.065186   -0.011267    0.031932
0.033231   -0.013541   -0.053817    -0.13145   -0.064861   -0.010943    0.021538
0.033231   -0.012242   -0.056416    -0.13664   -0.070058   -0.007045    0.015692
0.029983   -0.010618   -0.054467    -0.14054   -0.077528  -0.0041217    0.014717
0.026085  -0.0080194    -0.04927    -0.14411   -0.079802  -0.0047713    0.017316
0.020888  -0.0057458   -0.044723    -0.14476   -0.074605   -0.010293    0.023487
0.013418  -0.0018481   -0.043099    -0.14152   -0.063886   -0.015815    0.031282
0.0020496   0.0039985   -0.044723    -0.13567   -0.052193    -0.01549    0.038753
-0.010618   0.0088706   -0.046996    -0.12495   -0.040175  -0.0099683    0.044924
-0.021661    0.009845   -0.044723    -0.10806   -0.029782  -0.0024977    0.047198
-0.029132   0.0056225   -0.038551   -0.086948   -0.018413   0.0046481    0.044924
-0.030106 -0.00087364   -0.029457   -0.065835  -0.0076946   0.0085458    0.034855
-0.028157  -0.0083442   -0.015815   -0.047971  0.00075039    0.011144    0.020888
-0.026858    -0.01484   0.0023744   -0.033679   0.0065969     0.01017   0.0072465
-0.028482   -0.019712    0.019914   -0.023935    0.011794   0.0033489  -0.0015233
-0.032055   -0.020037    0.031607   -0.017439    0.021538   -0.007045  -0.0015233
-0.032705   -0.019063     0.03518   -0.010943    0.031932   -0.018413   0.0065969
-0.030756   -0.017439    0.032582  -0.0041217    0.038428   -0.025234    0.020888
-0.027508    -0.01484    0.032906   0.0043233    0.037454   -0.025559    0.036154
-0.027183   -0.014516    0.035505    0.011794    0.032257   -0.020362    0.045899
-0.026858   -0.018413    0.036479    0.016991    0.029333   -0.010618    0.049472
-0.022636   -0.025559    0.034855    0.017965    0.035505   0.0036737    0.048172
-0.013866   -0.029132    0.032906    0.017316    0.050771    0.019264    0.046548
-0.00022403   -0.025234    0.030957     0.01829     0.06961    0.033231     0.04395
0.01764    -0.01614    0.031932    0.022512    0.082602    0.038428    0.041676
0.033881  -0.0057458    0.032257    0.029983    0.087149    0.032906    0.032582
0.043625   0.0020496    0.032257    0.040052    0.080003     0.01829    0.014068
0.049796   0.0036737    0.031607    0.052395    0.066362  0.00010078  -0.0063954
0.053369   0.0023744     0.02706    0.064088    0.044599   -0.013541   -0.020037
0.054993    0.003024     0.01894    0.072858    0.022512   -0.014191   -0.022311
0.053044   0.0046481    0.010495    0.079679   0.0039985  -0.0034721   -0.012242
0.045574   0.0059473   0.0046481    0.083901  -0.0044465   0.0091954   0.0046481
0.034855   0.0088706    0.003024    0.083901  -0.0041217     0.01894    0.024461
0.029009    0.012443   0.0033489    0.078379   0.0033489    0.019914    0.037454
0.029983    0.016991   0.0052977     0.06831    0.012443    0.011794    0.037454
0.033881    0.026085    0.008221    0.056617    0.017965  -0.0041217    0.022512
0.03583    0.037778    0.011794    0.048172    0.014717    -0.02361 -0.00022403
0.031607    0.046873    0.015692    0.044924   0.0065969   -0.046022    -0.02426
0.022188    0.049796    0.014717      0.0433  -0.0011985   -0.068758   -0.047646
0.010819    0.046223    0.009845    0.039078  -0.0037969   -0.090521    -0.07493
-0.00087364    0.040052   0.0056225    0.033231  -0.0034721    -0.11033    -0.10449
-0.013216    0.031932   0.0046481    0.027385  -0.0034721    -0.12755     -0.1321
-0.026858    0.021213   0.0065969    0.024786  -0.0076946    -0.14119    -0.15581
-0.040825    0.012443   0.0046481    0.022837   -0.014516    -0.14866    -0.17335
-0.051219   0.0065969 -0.00087364    0.021213   -0.020037    -0.14704    -0.18439
-0.056741   0.0036737  -0.0083442    0.021538   -0.019388    -0.13632    -0.18894
-0.060313   0.0033489   -0.019388    0.022512   -0.015165    -0.11651    -0.18374
-0.063561   0.0049729   -0.029782    0.021213  -0.0063954   -0.089871     -0.1701
-0.06681   0.0065969   -0.034329    0.016991   0.0023744   -0.062587    -0.15191
-0.071682   0.0033489    -0.03303    0.013418   0.0075714   -0.041799    -0.13469
-0.07428  -0.0050961   -0.029457    0.014717    0.012443   -0.028482     -0.1178
-0.072331   -0.017764   -0.025234    0.019589    0.020888   -0.018413   -0.096042
-0.065835   -0.029457   -0.019388    0.025111    0.032582  -0.0080194   -0.068758
-0.052843   -0.033679   -0.011592    0.030957    0.038753   0.0059473   -0.037902
-0.032705   -0.027183  -0.0047713    0.033556    0.038103    0.024461   -0.010293
-0.0093186   -0.012892   0.0017248    0.034855    0.028359    0.037454    0.012443
0.012443   0.0020496   0.0039985    0.032582    0.015692    0.034855     0.03518
0.028359    0.013418   0.0036737    0.030633   0.0075714    0.016991    0.057917
0.0433    0.022837   0.0033489    0.032582   0.0085458  -0.0080194    0.080003
0.058891    0.029009    0.003024    0.040702    0.013743   -0.031406    0.097543
0.072533    0.031282   0.0056225     0.05142    0.016991   -0.042124     0.10794
0.080653    0.029983    0.010495     0.06019    0.015692   -0.033354     0.10891
0.080978    0.027385     0.01829    0.063113    0.011794  -0.0073698    0.099492
0.075781    0.024461    0.022837    0.058241   0.0065969    0.023487    0.081627
0.065387    0.020564    0.026085    0.047523   0.0043233    0.046873     0.06084
0.054019    0.012119    0.026085    0.031932   0.0052977    0.059541    0.039727
0.042651  -0.0018481    0.022837    0.013093    0.010495    0.064088    0.024786
0.030308   -0.019063    0.016016  -0.0044465    0.015042    0.066362    0.011794
0.016341   -0.036927   0.0078962    -0.01614    0.012768     0.06961  -0.0034721
0.003024   -0.049595   0.0017248   -0.021986   0.0056225    0.073832   -0.018088
-0.010618    -0.05804  -0.0063954   -0.021012  -0.0076946    0.078379   -0.029457
-0.023285   -0.060963   -0.011267   -0.015815   -0.022311     0.07773    -0.03238
-0.034004   -0.057065   -0.010293  -0.0067202   -0.033679    0.072858   -0.024909
-0.037577   -0.047971  -0.0024977   0.0017248   -0.042124    0.067661   -0.010618
-0.035953   -0.038551   0.0072465  0.00042559   -0.047321    0.065062   0.0010752
-0.034329   -0.032705    0.017316  -0.0060706   -0.048945    0.064088   0.0085458
-0.035953   -0.034004    0.024137   -0.014516   -0.044073    0.065712   0.0088706
-0.039526    -0.04115    0.024786    -0.02426    -0.03238    0.066686   0.0056225
-0.045372   -0.048945    0.022188    -0.03173   -0.016789    0.064737   0.0056225
-0.051544   -0.052843    0.016016   -0.034004      0.0014    0.059865    0.010495
-0.056416   -0.052518    0.008221   -0.028482    0.021863    0.056617    0.016016
-0.055116   -0.050569    0.003024   -0.014516    0.047523    0.061814     0.01894
-0.047971   -0.046996   0.0039985   0.0039985    0.076431    0.073507    0.024786
-0.036927   -0.042124   0.0095202    0.022188     0.10696    0.087799    0.032257
-0.023285   -0.033354    0.014717    0.042001     0.13944     0.09462    0.038103
-0.0076946   -0.023285    0.015367    0.059541     0.17095    0.092346    0.038103
0.011469   -0.010943    0.009845    0.072533     0.19109    0.077405    0.030957
0.030308   0.0023744   0.0033489    0.078055     0.18849    0.054993    0.021863
0.046548    0.011469  -0.0018481    0.080978     0.16413     0.03453    0.015692
0.059216     0.01764  -0.0041217    0.084226     0.12807    0.024786    0.015692
0.064737    0.022512      0.0014    0.088773    0.092671    0.025111    0.022837
0.063763    0.026085    0.011144    0.091047    0.063763    0.031282    0.031607
0.057592     0.02641    0.019264    0.087149    0.039402    0.036804    0.037454
0.048172     0.02706    0.024786    0.077405    0.020239    0.036804      0.0433
0.039402    0.030308    0.029983    0.064737   0.0075714    0.028359    0.051096
0.030308    0.036154    0.035505    0.051745  -0.0044465    0.013418    0.059541
0.018615    0.042326    0.035505    0.036479   -0.018738  -0.0018481    0.065062
0.0085458    0.045574    0.033231    0.024137    -0.03173   -0.011917    0.066037
0.0014    0.045249    0.030633    0.015042   -0.039201    -0.01614     0.06084
-0.0034721    0.039402    0.022837    0.009845   -0.038876   -0.014191    0.050121
-0.0096434    0.028684    0.008221   0.0072465   -0.031406  -0.0067202    0.032906
-0.015165    0.014717  -0.0073698   0.0059473   -0.020362   0.0010752    0.013418
-0.015165   0.0036737    -0.01484   0.0036737  -0.0076946   0.0059473  -0.0047713
-0.0089938  -0.0037969   -0.012567 -0.00054884   0.0043233   0.0026992   -0.017764
-0.00087364  -0.0054209  -0.0047713  -0.0083442    0.012768   -0.011917   -0.028157
0.008221 -0.00054884   0.0017248   -0.016789     0.01829   -0.030756   -0.037252
0.014392    0.009845  0.00010078   -0.022636    0.020239   -0.046996   -0.047971
0.015042    0.022188  -0.0050961   -0.023285     0.01829   -0.052193    -0.05804
0.0069217    0.033556   -0.010943   -0.018413    0.012443   -0.047971   -0.061937
-0.0041217    0.041027    -0.01484  -0.0099683 -0.00087364   -0.036927   -0.055441
-0.014191    0.040702    -0.01549  -0.0047713   -0.017764   -0.022636   -0.039851
-0.020037    0.036804   -0.014191  -0.0041217   -0.036927   -0.007045    -0.01614
-0.019712    0.030633   -0.010943  -0.0057458   -0.052843   0.0065969   0.0091954
-0.016789    0.025436  -0.0076946   -0.007045   -0.061613    0.012119    0.029009
-0.011267    0.026085  -0.0060706  -0.0047713   -0.058689    0.013093    0.039078
0.00010078    0.033881  -0.0057458    0.003024   -0.044073    0.011469    0.042001
0.016341    0.046223  -0.0031473    0.015692   -0.022636     0.01017    0.042651
0.040052    0.059216   0.0033489    0.029983  -0.0037969    0.011144    0.049147
0.064088     0.06961     0.01017    0.037129   0.0049729    0.010819    0.061814
0.081303    0.075781    0.011794    0.030957   0.0033489   0.0036737    0.072858
0.087474    0.078055   0.0078962    0.013093  -0.0034721   -0.013541     0.07708
0.084226    0.078379   0.0036737   -0.010943   -0.013216   -0.038551    0.073832
0.073182    0.073507   0.0059473   -0.034004   -0.028157   -0.059664     0.06896
0.060515    0.068635    0.016991    -0.04927   -0.046022   -0.068109    0.066362
0.05272    0.064088    0.032257   -0.053817   -0.061613   -0.062912    0.070259
0.049147     0.06019    0.039078   -0.048296   -0.073306   -0.048945    0.080328
0.048497    0.056292    0.031932   -0.040825   -0.085648    -0.03238    0.089098
0.048172    0.057267    0.017316   -0.038227   -0.094743   -0.020037    0.091047
0.05272    0.061489   0.0043233   -0.037577   -0.098965   -0.013541    0.084551
0.061489    0.065387  -0.0024977   -0.035303   -0.093444  -0.0099683    0.076431
0.067986    0.064413  -0.0034721   -0.026533   -0.080127  -0.0080194    0.070259
0.067986    0.058891 -0.00087364   -0.010618   -0.064536  -0.0096434    0.064413
0.059541    0.049796   0.0039985   0.0095202   -0.052193    -0.01549    0.055318
0.048172    0.039727    0.010819    0.028034   -0.044398   -0.024585     0.04395
0.037778    0.030957    0.016991    0.041351    -0.03303    -0.03303    0.036479
0.032582    0.028359    0.022188    0.050771  -0.0099683   -0.040175     0.03518
0.032906    0.028034    0.023162    0.056617    0.021213   -0.043748    0.038428
0.038428    0.028034    0.019914    0.059541    0.053369   -0.042124    0.040052
0.046223    0.029983    0.012768    0.059216    0.076106   -0.034004    0.039727
0.053369    0.033881   0.0023744    0.057592    0.080978   -0.025234     0.03583
0.054344    0.031607  -0.0080194    0.056617     0.06831   -0.019063    0.027385
0.048172    0.022837   -0.017764    0.055643    0.048822   -0.017439     0.01894
0.036804    0.012119   -0.025884    0.053369    0.037129   -0.018738    0.011794
0.022512   0.0069217   -0.032705    0.052395    0.037778   -0.019388   0.0095202
0.0056225   0.0069217   -0.037902     0.05272    0.050446   -0.019712   0.0095202
-0.010943   0.0085458   -0.040825    0.053044    0.069934   -0.020687   0.0062721
-0.027508    0.011794    -0.04115    0.049796    0.086175   -0.028157  -0.0047713
-0.044723    0.021538   -0.035953    0.042975    0.099167   -0.043423   -0.024585
-0.061613    0.037129   -0.022636     0.03518     0.11378   -0.063237   -0.047321
-0.080776    0.048497  -0.0044465    0.028684     0.12905   -0.077528   -0.066485
-0.10546    0.040702   0.0088706     0.02706     0.13944   -0.080451   -0.075904
-0.1308    0.011469    0.013743    0.026735     0.13035   -0.073955   -0.072656
-0.14509   -0.034329   0.0091954    0.027709    0.091047   -0.065835   -0.060313
-0.14184   -0.082725  -0.0021729     0.02706    0.023487   -0.060313   -0.045372
-0.12657    -0.11683   -0.016464    0.021863   -0.054792   -0.062912   -0.034329
-0.10774    -0.13307   -0.025884    0.012768    -0.12625   -0.067784   -0.030106
-0.094093    -0.13372   -0.025559  -0.0011985    -0.17952   -0.069408   -0.032055
-0.088572     -0.1269   -0.015815   -0.017439    -0.21492   -0.068758   -0.036927
-0.088247     -0.1191  -0.0024977   -0.029782    -0.23571   -0.072006   -0.042449
-0.09117    -0.11293   0.0088706   -0.037252    -0.24643   -0.081751    -0.04992
-0.092145    -0.11131    0.014392   -0.039851    -0.24643   -0.095068   -0.057715
-0.084674    -0.10968    0.014717   -0.038227    -0.23441    -0.10741   -0.061288
-0.069083    -0.10319    0.012768    -0.03303    -0.20908    -0.10936   -0.059339
-0.049595   -0.092145    0.011469   -0.027183    -0.16945   -0.098316   -0.051544
-0.028807   -0.075255    0.010819   -0.021337    -0.11326   -0.075255    -0.04115
-0.012892   -0.056091   0.0062721   -0.013866    -0.04115   -0.046347   -0.024585
-0.0021729   -0.041799  -0.0028225  -0.0018481    0.037129   -0.019712  -0.0063954
0.0056225   -0.033679   -0.012242    0.014392     0.10729  0.00042559   0.0091954
0.016666   -0.026858   -0.016789    0.032582     0.15666    0.016666    0.019589
0.031607   -0.015815   -0.013541    0.048497     0.17355    0.031932    0.025111
0.049796   0.0017248  -0.0063954    0.060515     0.15341    0.042651    0.030308
0.065712    0.023162 -0.00087364    0.063113     0.10664    0.048497     0.03518
0.076755    0.042651 -0.00054884    0.054993     0.05142    0.050446    0.036154
0.0852    0.056617  -0.0024977    0.042001   0.0026992    0.048172    0.038103
0.095594    0.067661 -0.00087364    0.028359   -0.028157    0.046223    0.042001
0.10794    0.075456   0.0056225    0.016666   -0.035628    0.050121    0.049472
0.11736    0.083576    0.016666   0.0075714   -0.021337    0.058241    0.055318
0.11995    0.092021    0.026735  -0.0034721    0.009845    0.066037    0.054668
0.11313    0.099817    0.029983   -0.018413      0.0433    0.065712    0.047847
0.097218     0.10469    0.026085   -0.042124    0.061489    0.058566    0.036154
0.078055     0.10144    0.014392   -0.070058    0.058566    0.050771    0.022512
0.056617    0.091372 -0.00054884   -0.091495    0.039727    0.045249   0.0085458
0.03453    0.075781   -0.011917   -0.097341    0.016341    0.042975  -0.0024977
0.011794    0.059216    -0.01614   -0.082076  -0.0015233    0.041676  -0.0099683
-0.0080194    0.043625   -0.012567   -0.048296  -0.0083442    0.040377   -0.014516
-0.026858    0.032257  -0.0060706   -0.011592 -0.00087364    0.038103   -0.016464
-0.042449    0.024137  0.00075039    0.015042    0.012443    0.032906   -0.017764
-0.049595    0.022512   0.0039985    0.023812    0.016341    0.025111   -0.018088
-0.047971    0.026085   0.0052977    0.019264  -0.0015233    0.024786   -0.016789
-0.04115     0.03453   0.0052977    0.011469   -0.043099    0.028684   -0.015165
-0.028807    0.048172   0.0052977   0.0072465    -0.10124     0.03583   -0.017439
-0.01484    0.065062   0.0043233   0.0088706    -0.15938    0.042326   -0.024909
-0.0018481    0.080328   0.0065969    0.013743    -0.19738    0.046873   -0.034004
0.01017    0.093645     0.01017    0.017316    -0.20063    0.046873   -0.037252
0.023487     0.11054    0.013743    0.017316    -0.17335    0.041676   -0.029457
0.035505     0.13295    0.016341    0.012119    -0.12495    0.033881   -0.011592
0.044924     0.15666    0.014392   0.0043233   -0.073955    0.029009   0.0091954
0.056292     0.16835   0.0075714  -0.0034721   -0.035953    0.030308    0.027709
0.068635     0.15666   0.0039985  -0.0076946  -0.0099683    0.035505    0.038103
0.077405     0.12125   0.0062721  -0.0067202    0.010495    0.038753      0.0433
0.076755     0.07708    0.011144 -0.00022403    0.032257    0.038428    0.046223
0.070909    0.042651    0.018615   0.0056225    0.055968    0.037129    0.048172
0.065712     0.02641    0.025111   0.0069217    0.069934    0.033881    0.053694
0.064413    0.023487    0.028359 -0.00022403    0.067986    0.025111    0.057267
0.062139    0.023162     0.02706   -0.015815    0.046873    0.014717    0.050121
0.053369    0.016666    0.019589   -0.035953    0.010495  0.00042559    0.036154
0.03583   0.0046481    0.010495   -0.051219   -0.026209   -0.013541    0.024461
0.016341  -0.0080194   0.0020496   -0.059014   -0.053168   -0.024585     0.01829
0.0014    -0.01484  0.00042559   -0.058689   -0.066485    -0.03303     0.01764
-0.007045   -0.012567    0.008221   -0.052518   -0.068758   -0.035303     0.01894
-0.0096434  -0.0018481    0.018615   -0.039526    -0.06616   -0.030106    0.020239
-0.0093186    0.011469    0.029009   -0.018738    -0.06551   -0.022961    0.020239
-0.0076946    0.021863    0.036804    0.016991    -0.06616   -0.015815    0.015042
-0.0089938     0.02641    0.040702    0.066037   -0.063886  -0.0080194   0.0059473
-0.012567    0.025761    0.039078     0.11866   -0.058365  -0.0011985  -0.0031473
-0.01614    0.019914    0.029983     0.15828   -0.052193    0.008221   -0.008669
-0.018088   0.0088706    0.020239     0.17387   -0.044073    0.015042  -0.0083442
-0.016789  -0.0044465    0.012119      0.1638   -0.035303    0.016016  -0.0044465
-0.016464   -0.014191   0.0043233     0.13684   -0.028482    0.013743  -0.0024977
-0.019063   -0.022961 -0.00054884     0.10794   -0.023935    0.011794  -0.0037969
-0.022636   -0.030756  -0.0024977      0.0852   -0.021661    0.009845  -0.0076946
-0.025559   -0.039201  0.00075039    0.067986   -0.019063   0.0085458  -0.0099683
-0.027833   -0.047321   0.0072465    0.056942   -0.014516    0.010819  -0.0099683
-0.026209   -0.054142    0.014392    0.051096  -0.0089938    0.019589  -0.0037969
-0.021337   -0.054142     0.01894    0.046548  -0.0067202     0.03453   0.0026992
-0.020687   -0.050894    0.020239    0.040702   -0.010618    0.048497   0.0069217
-0.026533   -0.046347     0.01829    0.033231   -0.020037    0.055318   0.0072465
-0.037577   -0.041799    0.014392     0.02641   -0.033354    0.048822   0.0059473
-0.048296   -0.037577     0.01017    0.022512    -0.04115    0.030957   0.0036737
-0.053492   -0.036927    0.013418    0.023812   -0.038551    0.010819   0.0046481
-0.054142   -0.040175    0.019914    0.026735   -0.023935  -0.0021729   0.0072465
-0.053168   -0.045372    0.019589    0.029009  -0.0057458   -0.007045     0.01017
-0.04927   -0.046671   0.0072465     0.02641   0.0075714  -0.0021729   0.0078962
-0.044723   -0.046022   -0.013541     0.01894    0.013093    0.008221    0.003024
-0.035953   -0.044398   -0.029782   0.0095202    0.010495    0.016991  -0.0050961
-0.021986   -0.042124   -0.035628 -0.00054884   0.0039985    0.015042   -0.018413
-0.0063954   -0.038227    -0.03303  -0.0093186   0.0020496   0.0017248   -0.037577
0.0069217   -0.036927   -0.026858   -0.017114   0.0017248   -0.013541   -0.053817
0.011469   -0.041475   -0.022636   -0.024585   0.0020496   -0.025884   -0.062912
0.0052977   -0.046671   -0.022636   -0.030756   0.0056225   -0.031081   -0.063561
-0.0060706   -0.046996   -0.021012   -0.035628    0.010819   -0.030431   -0.057065
-0.01614   -0.038551   -0.014191   -0.043099     0.01764   -0.023935   -0.043423
-0.019712   -0.026209  -0.0063954    -0.04927    0.019914   -0.018088    -0.02426
-0.016464   -0.020687  -0.0034721   -0.054792    0.016341   -0.019388  -0.0073698
-0.0096434    -0.02426  -0.0063954   -0.063561   0.0095202   -0.026209 -0.00087364
-0.0024977   -0.034004   -0.010943   -0.075904  0.00075039   -0.035303  -0.0057458
0.0056225   -0.042124   -0.015815   -0.086298  -0.0054209   -0.039851   -0.020037
0.015042   -0.043423   -0.016789   -0.090845   -0.011267   -0.035628   -0.037252
0.017965   -0.035628    -0.01614   -0.088896   -0.018088    -0.02426   -0.053492
0.01017   -0.025884   -0.013866   -0.081101   -0.024909   -0.013866   -0.066485
-0.0034721    -0.01614   -0.011267   -0.069733   -0.026858   -0.008669   -0.075579
-0.01549   -0.010943  -0.0083442   -0.055766   -0.019063  -0.0083442   -0.077528
-0.018738  -0.0063954  -0.0054209   -0.036602  -0.0021729   -0.007045   -0.070382
-0.011592  -0.0021729  -0.0034721   -0.010943    0.021213  -0.0031473   -0.052843
0.0017248   0.0043233  -0.0028225    0.013093    0.048172    0.003024   -0.034004
0.014717    0.016666  -0.0037969    0.030633     0.07773   0.0088706   -0.018413
0.022512    0.029983  -0.0067202     0.04395     0.10826    0.013743  -0.0080194
0.026735    0.040377  -0.0063954    0.064413     0.12775    0.014717   0.0033489
0.027385    0.040702  -0.0044465     0.10079     0.13295    0.013093    0.015042
0.028684    0.029658      0.0014     0.15373      0.1232    0.013093    0.024137
0.032257    0.013743   0.0091954      0.2083     0.10404    0.016666    0.030633
0.039078   0.0023744    0.011469      0.2515    0.081952    0.023812     0.03518
0.050446   0.0026992    0.010819     0.27684    0.063763    0.031932    0.040052
0.067011    0.014392    0.012119     0.28398    0.050446    0.038753    0.050446
0.083576    0.036479    0.020239     0.27651    0.041027    0.043625    0.064088
0.088124    0.055968    0.031932      0.2489    0.037129    0.041027    0.076755
0.075131    0.062464    0.038428     0.18589    0.039402    0.032906    0.083901
0.050121    0.056292    0.037454     0.07773    0.046223    0.019589    0.081303
0.028034    0.043625    0.027385   -0.073631     0.05142   0.0026992    0.065712
0.01017    0.026085    0.013093    -0.24415    0.045249   -0.013541    0.041027
-0.0024977   0.0069217    0.003024    -0.38902    0.026085   -0.028807    0.012768
-0.012567   -0.011267  -0.0011985    -0.46762  -0.0028225     -0.0405   -0.011592
-0.020362   -0.024585   0.0020496    -0.45495   -0.030431   -0.048296   -0.023935
-0.023285   -0.031081    0.009845    -0.35979   -0.046671   -0.054792   -0.023935
-0.018738   -0.034654    0.014717     -0.2159   -0.052518   -0.062262   -0.014191
-0.008669   -0.033354    0.015042   -0.062912   -0.049595   -0.069408 -0.00087364
0.00042559   -0.026533   0.0091954    0.065062   -0.039851   -0.069408     0.01017
0.0049729   -0.013541 -0.00054884     0.15211   -0.024909   -0.061937    0.014717
0.0023744   0.0033489  -0.0093186     0.19206   -0.013866   -0.052843    0.012768
-0.0044465    0.020239   -0.014191     0.19044  -0.0083442   -0.045372   0.0085458
-0.0083442    0.033231   -0.013216     0.15796  -0.0096434   -0.039201   0.0043233
-0.0076946    0.036154  -0.0037969     0.11248   -0.018413   -0.032705  -0.0011985
-0.0021729    0.032906   0.0078962    0.070259   -0.039201   -0.029132  -0.0057458
0.0078962    0.027385    0.013743    0.042326   -0.071032   -0.026858  -0.0018481
0.016016    0.024461    0.011144    0.030308    -0.10254   -0.024585   0.0078962
0.019589    0.022188   0.0010752    0.028034    -0.12105   -0.020687    0.020239
0.019589    0.019264  -0.0089938    0.030957    -0.11878   -0.017114     0.03583
0.020239    0.013093   -0.017764    0.031607   -0.098641   -0.012892    0.049147
0.021213   0.0069217   -0.020037    0.028034   -0.070058  -0.0089938     0.05207
0.022188   0.0020496    -0.01614    0.023812   -0.039526  -0.0047713    0.047523
0.022512 -0.00054884  -0.0063954    0.022837   -0.011592 -0.00087364    0.039402
0.021863 -0.00087364   0.0056225    0.025761    0.012443 -0.00022403    0.032906
0.022837    0.003024    0.012443    0.029983    0.029009  -0.0044465    0.028034
0.023162    0.012443    0.011794     0.03583    0.038103   -0.010943    0.020239
0.020239    0.027385   0.0059473    0.040377    0.040377    -0.01549    0.009845
0.012443    0.040377 -0.00022403    0.040052    0.036154   -0.015165   0.0026992
0.0036737    0.049796  -0.0047713    0.031282    0.024461   -0.012892  -0.0031473
-0.0067202    0.056942   -0.007045    0.016991    0.012119   -0.012567  -0.0041217
-0.015165    0.065062  -0.0083442   0.0069217  0.00042559   -0.012242  -0.0024977
-0.020687    0.071883   -0.008669   0.0017248  -0.0073698   -0.013541  -0.0018481
-0.025559    0.070909   -0.008669  -0.0024977    -0.01484   -0.015815  -0.0041217
-0.027833    0.061165  -0.0096434  -0.0076946   -0.023285   -0.021661  -0.0067202
-0.027508    0.048497  -0.0099683   -0.015815   -0.028157   -0.027833  -0.0080194
-0.028157    0.037778  -0.0083442   -0.018088   -0.026209   -0.034329  -0.0047713
-0.032705    0.030633  -0.0041217   -0.012892   -0.016789   -0.037252   0.0020496
-0.039526    0.026085  -0.0018481  -0.0028225  -0.0031473   -0.034329    0.008221
-0.04115    0.019264  -0.0054209   0.0062721    0.011144   -0.028482     0.01017
-0.038876    0.009845   -0.012892    0.012443    0.021863   -0.021012   0.0091954
-0.034004   0.0017248   -0.018413     0.01829    0.029333   -0.021012   0.0069217
-0.03238  -0.0034721   -0.021337    0.023162    0.033231   -0.027183   0.0036737
-0.033679  -0.0031473   -0.022311     0.02706    0.036154   -0.036602 -0.00054884
-0.036927  0.00042559   -0.017764    0.026735    0.038753   -0.043748  -0.0044465
-0.039201  0.00075039  -0.0089938    0.023162    0.045249   -0.042774  -0.0067202
-0.042124  -0.0011985   0.0026992    0.017965    0.058566   -0.036278  -0.0083442
-0.046022  -0.0018481    0.014392    0.014392    0.076106   -0.026533  -0.0073698
-0.046671  0.00042559    0.021213    0.012768    0.089423   -0.019063  -0.0028225
-0.037252   0.0059473    0.019264    0.013418     0.09462   -0.013866   0.0059473
-0.020037    0.011794    0.011469    0.016666    0.092996   -0.008669    0.015692
-0.0041217    0.015042   0.0036737    0.022188    0.087149 -0.00054884    0.026085
0.0056225    0.015367  -0.0018481    0.030957    0.080003   0.0095202    0.035505
0.0088706    0.017316  -0.0028225      0.0433    0.073507     0.01764    0.037454
0.010495    0.019914  0.00010078    0.057592    0.065387    0.022188    0.033881
0.012443    0.025111   0.0046481    0.068635    0.053694    0.023487    0.028034
0.014068    0.031607   0.0069217    0.076106    0.038428    0.023812    0.022188
0.012768    0.034855   0.0046481    0.081303    0.019914    0.020888    0.018615
0.0088706    0.029983   0.0046481    0.085525   0.0017248    0.016341    0.017965
0.0075714    0.018615   0.0075714    0.090722   -0.014191    0.013093     0.01894
0.0059473   0.0046481    0.009845    0.094295   -0.026533   0.0088706    0.020564
0.0010752   -0.007045    0.011794    0.091696   -0.035303   0.0033489    0.022512
-0.00087364   -0.012892    0.013093    0.084551   -0.039526  -0.0041217    0.028359
0.0017248    -0.01549    0.013418    0.074157   -0.036278   -0.010293    0.036479
0.0049729    -0.01549    0.012119    0.061489   -0.028807   -0.019063    0.042975
0.0062721    -0.01614    0.010819    0.050446   -0.016464   -0.030431     0.04395
0.003024   -0.020362    0.013093    0.041351  -0.0067202   -0.038227    0.037454
-0.0044465   -0.026533    0.016991    0.031282  -0.0024977   -0.037902    0.028359
-0.011917   -0.031406     0.01829    0.016341   0.0033489   -0.028482    0.019914
-0.013866   -0.029457    0.013093  -0.0034721    0.015692   -0.010293     0.01894
-0.0067202   -0.016789   0.0036737   -0.024909    0.034855    0.012119    0.025111
0.0065969    0.003024  -0.0050961   -0.042449    0.055318    0.032257    0.032257
0.022188    0.024137   -0.011267   -0.053817    0.069285    0.041351    0.036804
0.035505    0.040052   -0.012892    -0.05804    0.068635    0.038103     0.03583
0.04395    0.047847   -0.011917   -0.057715    0.054344    0.031607    0.031607
0.046223    0.046223  -0.0076946   -0.056091    0.031282    0.028684    0.028034
0.041027    0.040052  -0.0031473   -0.057065   0.0046481    0.030308    0.029658
0.029009    0.031607   0.0023744   -0.061288   -0.017439     0.03518    0.038103
0.013743    0.025761   0.0088706   -0.067134   -0.022636    0.039078    0.046873
0.0049729    0.023487    0.011469   -0.072331   -0.010943    0.038753    0.054019
0.0014    0.023487    0.009845   -0.068758    0.014068    0.033881     0.05272
-0.00087364    0.025111   0.0059473   -0.060313    0.041676    0.024461    0.042651
-0.0024977    0.027709   0.0033489   -0.046022    0.065062    0.015692     0.02706
0.0010752    0.030633   0.0017248   -0.029132    0.079029    0.012119    0.011469
0.010819     0.03583   0.0010752   -0.010618    0.080653    0.016016 -0.00054884
0.024137    0.040702      0.0014   0.0059473    0.076106    0.028034   -0.008669
0.037778    0.044275   0.0049729    0.019589     0.06896     0.04395   -0.012567
0.047523    0.048497    0.010819    0.029658    0.063438     0.05142   -0.013541
0.054019    0.053369    0.015042    0.035505    0.063113    0.047523  -0.0083442
0.054019    0.055318    0.016666    0.037454    0.068635    0.038103   0.0049729
0.047847    0.053044    0.015042    0.037129    0.077405    0.028684    0.017965
0.039727    0.047847   0.0091954    0.035505    0.078379    0.022512    0.026735
0.036804    0.047523  -0.0015233    0.033556    0.064088    0.019589    0.028684
0.041676    0.054019   -0.012242    0.032582    0.030957    0.017316    0.025111
0.049472    0.063113   -0.019712    0.032582   -0.011917    0.015042    0.016666
0.054344    0.074806   -0.020362    0.034855   -0.054142    0.014392   0.0049729
0.057592    0.084551   -0.017114     0.03518   -0.088572    0.016016  -0.0050961
0.060515    0.091047   -0.012242    0.036154    -0.11293     0.01764   -0.014516
0.066037    0.090072  -0.0060706    0.037454    -0.13015    0.016016   -0.020037
0.072533    0.081627 -0.00054884     0.03518    -0.14054    0.009845   -0.020037
0.074482    0.067011   0.0017248    0.029658    -0.14346 -0.00022403   -0.019388
0.066686    0.051745 -0.00054884    0.025111    -0.13502   -0.010293   -0.020687
0.048497     0.03518  -0.0047713    0.023487    -0.11391   -0.015815   -0.027508
0.01829    0.020564   -0.010618    0.022512     -0.0824   -0.015815   -0.039851
-0.01484   0.0075714   -0.018088    0.022512   -0.050569   -0.010293   -0.046022
-0.04115  0.00075039    -0.02361    0.022188   -0.024585 -0.00087364   -0.042449
-0.055441 -0.00054884   -0.022636    0.021538  -0.0076946    0.011144   -0.031406
-0.057715  0.00042559   -0.013541    0.021538 -0.00022403    0.022837   -0.018413
-0.050569  -0.0021729  -0.0021729    0.025436  -0.0018481    0.027385  -0.0080194
-0.042449  -0.0093186   0.0052977     0.03453  -0.0073698    0.020239  -0.0011985
-0.039526   -0.018088   0.0065969    0.045574   -0.010618   0.0046481 -0.00087364
-0.041475   -0.024585   0.0023744    0.054019   -0.014191   -0.011267  -0.0083442
-0.046996   -0.028157  -0.0015233    0.058241   -0.026209   -0.021337   -0.018088
-0.050569   -0.027833  -0.0024977    0.057917   -0.050569   -0.023935   -0.022636
-0.051544   -0.026209  -0.0011985    0.053044   -0.079802   -0.019712   -0.019388
-0.049595   -0.025884   0.0026992    0.044275    -0.10319   -0.016464   -0.013866
-0.043099   -0.025234   0.0065969    0.030633     -0.1191   -0.018413  -0.0089938
-0.029132   -0.026533    0.010495    0.015367    -0.12625   -0.023285  -0.0057458
-0.012567   -0.030431    0.013093  0.00042559     -0.1243   -0.025234  -0.0011985
0.0017248   -0.034004    0.014068   -0.015165    -0.11651   -0.021661   0.0026992
0.013093   -0.035303    0.015042   -0.032055    -0.10546   -0.019388   0.0023744
0.020564   -0.034004    0.016991   -0.050894   -0.098316   -0.018088  -0.0018481
0.025436   -0.029457     0.01764   -0.069083   -0.098316   -0.017439  -0.0083442
0.02706   -0.024909    0.016016   -0.077203    -0.10254   -0.016789    -0.01484
0.025436   -0.020037    0.018615   -0.068434    -0.10709   -0.016464   -0.018413
0.019589   -0.017764    0.017965   -0.046347    -0.10806   -0.013866    -0.01549
0.011469   -0.018413    0.015042   -0.020687    -0.10156   -0.011267  -0.0096434
0.0043233   -0.023935    0.011469   0.0039985   -0.084349   -0.010293  -0.0011985
-0.0015233   -0.035628    0.011144    0.022188   -0.062912   -0.011267   0.0095202
-0.0021729    -0.04992    0.013093    0.034206   -0.043423   -0.013541    0.019914
0.00075039   -0.060313    0.016016    0.039402    -0.03238   -0.015815    0.028359
0.0059473   -0.062587    0.019589    0.039727   -0.034978   -0.017764     0.03518
0.01017   -0.056741    0.025436    0.028359   -0.048945   -0.020362    0.042001
0.013418    -0.04927    0.033556   0.0056225    -0.06551   -0.019388    0.047847
0.012119   -0.044723    0.042651   -0.027833   -0.079477  -0.0099683    0.052395
0.0069217   -0.045697    0.046223    -0.06551    -0.09117   0.0062721    0.055968
0.00075039    -0.04992    0.042001   -0.097666   -0.097666    0.024786    0.057267
0.0010752   -0.054467    0.033231    -0.11586   -0.098965    0.040377    0.058566
0.0075714   -0.054142    0.023812    -0.11488   -0.090521     0.05272    0.059541
0.020239   -0.046996    0.019264   -0.096692    -0.07428    0.059865    0.058891
0.030957   -0.034004    0.016341   -0.073306   -0.056416    0.059216    0.055318
0.036479   -0.017439    0.010495   -0.052518   -0.037577     0.05272    0.051745
0.035505  -0.0034721   0.0049729   -0.041799   -0.021661    0.042651    0.050121
0.034855   0.0056225   0.0036737   -0.037577   -0.010618    0.030633    0.047847
0.036479   0.0091954   0.0046481   -0.034654  -0.0057458    0.019589    0.039078
0.038103    0.011469   0.0046481   -0.027833  -0.0041217    0.012119    0.023162
0.037778    0.013093   0.0010752   -0.020037  -0.0063954   0.0085458   0.0049729
0.03453    0.012443   0.0017248   -0.011592  -0.0060706    0.003024   -0.010943
0.030308   0.0088706   0.0078962  -0.0044465  0.00010078  -0.0047713   -0.022311
0.029333   0.0078962    0.019264  0.00010078    0.009845   -0.016464   -0.026209
0.032582    0.012443    0.030308   0.0049729    0.022188   -0.029132   -0.022961
0.035505    0.020239     0.03583    0.012443    0.036804   -0.040175   -0.014516
0.029009    0.029983    0.034206    0.018615    0.051096   -0.044723  -0.0063954
0.016341    0.036804    0.024461    0.016341    0.058241   -0.045697  -0.0073698
0.0017248    0.039078   0.0075714   0.0046481    0.051096    -0.04992   -0.017764
-0.007045    0.037778   -0.010618   -0.008669    0.034855   -0.059014   -0.032055
-0.0083442    0.035505    -0.02426    -0.01549    0.019264   -0.070058   -0.043748
-0.0018481    0.036154   -0.029782   -0.014191    0.010495   -0.077203   -0.047971
0.011144    0.037129   -0.027508  -0.0083442   0.0088706   -0.079477   -0.046671
0.020239    0.037129   -0.019063  -0.0024977    0.010819   -0.075579   -0.037902
0.01829    0.037129   -0.010943   0.0056225    0.017316   -0.068758    -0.02361
0.010819    0.039727  -0.0031473    0.015692    0.026735    -0.05804   -0.010293
0.0085458    0.045249    0.008221    0.028359    0.031607   -0.044073  -0.0018481
0.011794    0.052395    0.021863      0.0433    0.028034   -0.029132   0.0010752
0.019264    0.057267    0.034206    0.057267    0.016341   -0.017114  0.00075039
0.027385    0.056942    0.041351    0.067336   0.0017248   -0.010293  -0.0018481
0.032257    0.051745    0.042001    0.072208   -0.010293   -0.011917  -0.0021729
0.031282    0.045249    0.036479    0.070259   -0.016464   -0.017764   0.0020496
0.023812    0.038428    0.024461    0.065387   -0.016789   -0.023285     0.01017
0.014068     0.03518   0.0091954     0.06084   -0.011917   -0.026209    0.019264
0.0065969    0.034855  -0.0080194    0.057917  -0.0080194   -0.025234    0.025111
0.0036737    0.038103   -0.020362    0.057267  -0.0057458    -0.02361    0.026085
0.0039985    0.042651   -0.025559    0.058566  -0.0031473   -0.021012    0.021213
0.0069217    0.042326   -0.025234    0.064088 -0.00022403   -0.013866    0.016016
0.008221    0.033231   -0.021661    0.067011   0.0039985  -0.0041217    0.011794
0.0046481    0.016016   -0.012892    0.065062   0.0091954   0.0056225   0.0095202
-0.0037969  -0.0041217  -0.0044465    0.058891    0.015367    0.011469     0.01017
-0.01484   -0.015815 -0.00022403    0.054019    0.021213    0.016016    0.012119
-0.021661   -0.017439 -0.00022403    0.053369    0.028684    0.020888    0.010819
-0.021337   -0.010293  -0.0021729    0.055968     0.03453    0.023812   0.0056225
-0.013866  0.00010078  -0.0057458    0.057592    0.038753    0.019589  0.00075039
-0.0044465   0.0091954   -0.011592    0.054993    0.044924   0.0095202  -0.0011985
0.0069217    0.016341   -0.019388    0.048497    0.054344      0.0014  0.00042559
0.020564    0.024461   -0.028482    0.039727    0.067661 -0.00022403   0.0010752
0.029658    0.037129    -0.03173    0.030633    0.080328   0.0049729  -0.0034721
0.031932    0.048172   -0.028157    0.026085    0.091047    0.011469   -0.011267
0.024137    0.058891   -0.020362     0.02706    0.095269    0.014717   -0.021661
0.0069217    0.076431   -0.011917    0.031607    0.089748    0.014717   -0.025884
-0.01484     0.10079  -0.0024977    0.036154    0.076106    0.016666   -0.022961
-0.034004     0.12515   0.0078962    0.041027     0.06084    0.020564   -0.015815
-0.047321     0.13295    0.016341    0.047198     0.05207    0.024786  -0.0073698
-0.053168     0.10924     0.01764    0.050771    0.055968    0.030308  0.00010078
-0.054792    0.058241    0.010495    0.048822    0.067011     0.03518   0.0052977
-0.052843 -0.00022403  -0.0024977    0.041351    0.076431    0.037454   0.0078962
-0.047321    -0.04862   -0.012242     0.02706    0.075131    0.036154    0.012119
-0.034654   -0.073955   -0.016789    0.009845    0.062464    0.029333    0.019264
-0.016789   -0.072656   -0.020037  -0.0093186    0.045249     0.01764    0.025436
-0.00054884   -0.053168    -0.02361   -0.026209    0.023812    0.003024    0.023812
0.0078962   -0.028157   -0.028807   -0.039201  -0.0015233   -0.010618    0.010819
0.0065969   -0.008669   -0.037577   -0.045697    -0.03303   -0.016464  -0.0057458
-0.00022403 -0.00022403   -0.044073   -0.043423   -0.067459   -0.017114   -0.019063
-0.0067202 -0.00087364   -0.042449   -0.030756    -0.10221   -0.018738   -0.024585
-0.007045 -0.00022403   -0.031081   -0.013866    -0.12592   -0.021337   -0.024909
-0.00087364   0.0033489   -0.016789   0.0065969    -0.13177   -0.021337   -0.018088
0.01017   0.0062721  -0.0044465    0.026085    -0.11975    -0.01484  -0.0031473
0.022837   0.0072465   0.0056225    0.040377   -0.094743  -0.0028225    0.016016
0.030308   0.0039985    0.013743    0.049472   -0.066485    0.011469    0.029983
0.02641  -0.0057458    0.020239    0.051096   -0.038551    0.022188    0.034206
0.012768   -0.018738    0.022512    0.048822   -0.011267    0.027385    0.029009
-0.0054209   -0.030431    0.023812      0.0433    0.017316    0.026085    0.017316
-0.022636   -0.037902    0.020888    0.037778     0.04395    0.016016   0.0062721
-0.03173   -0.039526    0.013743    0.031932    0.061489  0.00010078  -0.0057458
-0.031081   -0.034654   0.0052977    0.024786    0.066037    -0.01549   -0.012892
-0.023285   -0.026533   0.0033489    0.015367    0.059541   -0.029132   -0.014516
-0.012892   -0.018738     0.01017   0.0033489    0.044924    -0.04115   -0.020037
-0.0041217   -0.011917    0.020239   -0.007045    0.026735   -0.050244   -0.031081
-0.0011985   -0.007045    0.024137   -0.012892    0.011469   -0.053817   -0.040825
-0.0054209  -0.0037969    0.021538   -0.010618      0.0014   -0.050244   -0.045047
-0.013216   0.0010752    0.017965  -0.0015233  -0.0054209   -0.043423   -0.044073
-0.021986   0.0052977    0.019589    0.010819   -0.010943   -0.036602   -0.042124
-0.027833   0.0069217    0.025761    0.020564   -0.013216   -0.027833   -0.038227
-0.031406   0.0026992    0.033231     0.02641  -0.0073698   -0.018413    -0.03173
-0.032055  -0.0054209    0.037454    0.027709   0.0046481   -0.013216   -0.021012
-0.03238   -0.012567    0.037778    0.029983    0.019264    -0.01484   -0.012892
-0.03238    -0.01614    0.037778     0.03518    0.029009   -0.021661   -0.010618
-0.034329    -0.01614    0.036479     0.04395    0.030957   -0.028807   -0.014516
-0.038551   -0.012892     0.03518     0.05142     0.02706    -0.03173   -0.019388
-0.0405  -0.0096434    0.034855     0.05272    0.021538   -0.029782   -0.021337
-0.038227  -0.0096434    0.032582    0.047523    0.019264    -0.02361   -0.015165
-0.028807    -0.01614    0.027709    0.040702    0.030308   -0.013541 -0.00087364
-0.011917   -0.027508    0.020239     0.03583    0.064088  -0.0011985    0.015367
0.009845    -0.03238    0.010819    0.032257     0.12515    0.011144    0.025111
0.031282   -0.023935   0.0026992    0.029009     0.20343    0.021538    0.030957
0.045574   0.0017248  -0.0011985    0.025111     0.27684     0.02641    0.031932
0.049147    0.033231  -0.0018481    0.020564     0.31549    0.028684    0.028684
0.04395     0.06084  -0.0041217    0.014392     0.30737    0.030308    0.022837
0.030957     0.07708  -0.0099683   0.0091954     0.26092    0.031282    0.021213
0.016666    0.082277   -0.019712   0.0062721     0.20505    0.029983    0.027709
0.0065969    0.078379   -0.030431   0.0052977     0.17257    0.029333    0.039402
0.0069217    0.067336   -0.036278   0.0065969     0.18004    0.027709    0.048172
0.014392    0.050771   -0.035953    0.010819     0.21837    0.022837    0.054019
0.025111    0.031607   -0.029457     0.01764       0.258    0.017316    0.058566
0.03518    0.016666   -0.022636    0.022512     0.26904    0.016991    0.060515
0.042001   0.0052977   -0.017764    0.023487     0.23364    0.023487    0.059865
0.047198  -0.0015233   -0.019063    0.019589     0.15731    0.030957    0.057267
0.05142  -0.0034721   -0.024585    0.011144    0.059216    0.034855     0.05142
0.054668  -0.0073698   -0.031406 -0.00022403   -0.041799    0.033556      0.0433
0.056292   -0.014516   -0.035628   -0.010618     -0.1256    0.030308    0.034206
0.054344   -0.022311   -0.034978   -0.020037    -0.18212    0.026085    0.026085
0.046548    -0.02361   -0.031081   -0.026209    -0.21167    0.022188     0.01764
0.03453   -0.018413   -0.029457   -0.030756    -0.22077    0.014717    0.010495
0.023162  -0.0060706   -0.031406   -0.034329    -0.21752   0.0049729   0.0043233
0.017965    0.008221   -0.033354   -0.035953     -0.2055  -0.0024977 -0.00022403
0.014717    0.020239   -0.032705   -0.034978    -0.18504  -0.0080194   -0.007045
0.0065969     0.02641   -0.032055    -0.03173    -0.15678   -0.014191   -0.017764
-0.007045    0.021538   -0.029132   -0.026858    -0.12592   -0.025884   -0.029457
-0.020687   0.0078962   -0.025234   -0.020037    -0.10156     -0.0405   -0.038876
-0.026858  -0.0076946   -0.020362   -0.010618   -0.097341   -0.053817   -0.041799
-0.025234   -0.014191   -0.015815  -0.0018481     -0.1217   -0.061613   -0.037902
-0.020037  -0.0096434   -0.010943    0.003024    -0.17107   -0.059989   -0.030106
-0.019063  0.00042559  -0.0083442   0.0033489    -0.22856    -0.04862   -0.018088
-0.025884    0.008221  -0.0096434   0.0017248    -0.27761   -0.030431   -0.008669
-0.036927   0.0091954   -0.012567  -0.0037969    -0.30262   -0.012567  -0.0067202
-0.04862    0.003024    -0.01549   -0.012242    -0.29677  0.00010078   -0.012242
-0.057065  -0.0060706    -0.01484   -0.018413    -0.26527   0.0072465   -0.017764
-0.061288   -0.013541   -0.013216   -0.019063    -0.22207   0.0065969   -0.018413
-0.060963   -0.015165   -0.013866   -0.017439    -0.17854  -0.0015233  -0.0096434
-0.053492  -0.0076946   -0.017114   -0.017114    -0.14119   -0.011592   0.0059473
-0.042774   0.0091954   -0.019712   -0.021012    -0.11845   -0.020037    0.024137
-0.028157    0.030957   -0.023285   -0.028157    -0.10838    -0.02361    0.037778
-0.01484    0.055318   -0.026858   -0.031406    -0.10384   -0.027183    0.046223
-0.0015233    0.076755   -0.027183   -0.025234   -0.097341   -0.028482     0.05142
0.013743    0.092671   -0.017439  -0.0083442   -0.088247   -0.028157    0.056617
0.035505     0.10306  0.00075039    0.012443   -0.078178   -0.029132    0.063113
0.061165     0.10664    0.020239    0.028684   -0.072656    -0.03303    0.064737
0.079679     0.10112    0.032257    0.033881   -0.075904   -0.039851    0.060515
0.082927    0.089098    0.039402    0.029009   -0.084349   -0.043748    0.049472
0.074157    0.077405    0.044924    0.021213   -0.090845   -0.044073    0.030957
0.062139    0.071234    0.053369    0.017316   -0.086623   -0.040825    0.016016
0.056617    0.076431    0.063438    0.015042   -0.072656   -0.034654    0.013093
0.064413    0.087149    0.074482    0.014068   -0.054467   -0.027508    0.025436
0.080978    0.091372    0.082602    0.016666   -0.039851   -0.018738    0.050121
0.096569    0.071883    0.084876    0.017965   -0.031406  -0.0067202    0.079679
0.097543     0.02706    0.077405    0.014392   -0.024585   0.0065969     0.10177
0.081627   -0.029457    0.066037   0.0088706   -0.019063    0.013093     0.10664
0.055643   -0.079802    0.050446   0.0026992    -0.01614   0.0062721    0.092996
0.023487    -0.11261    0.033881  -0.0028225   -0.017114   -0.010618    0.061489
-0.012242    -0.12268    0.017965   -0.010943   -0.022961   -0.031081    0.021863
-0.048296    -0.11228   0.0026992   -0.020687    -0.03303   -0.045047   -0.013541
-0.078503   -0.091495  -0.0076946   -0.027508   -0.042124   -0.047321   -0.033679
-0.097341   -0.071682  -0.0099683   -0.030756   -0.046671   -0.040175   -0.034329
-0.10384   -0.057715   -0.007045   -0.032705   -0.046671   -0.028482   -0.018738
-0.098965   -0.049595  -0.0037969   -0.031081   -0.040175   -0.013216   0.0065969
-0.084999   -0.045047 -0.00022403   -0.022636   -0.029457   0.0059473    0.033231
-0.062912   -0.039526   0.0026992   -0.010293   -0.012567    0.028359    0.052395
-0.039526    -0.03303   0.0056225   0.0033489   0.0069217    0.047523    0.058566
-0.021337   -0.025234   0.0078962    0.018615    0.023812    0.057267    0.053694
-0.013216   -0.016789    0.009845    0.032257    0.032257    0.059216    0.041676
-0.011267   -0.017439    0.012443    0.040702    0.031932    0.058241    0.028684
-0.0067202   -0.028157    0.015367    0.044599    0.030957    0.058241    0.016991
0.0010752   -0.046347    0.019914    0.044599    0.030957     0.06084    0.008221
0.01017   -0.057715    0.021213    0.045249    0.032906    0.062464   0.0026992
0.020888   -0.056741    0.020888    0.047523    0.037778    0.060515   0.0010752
0.028034   -0.043423    0.020564    0.045899    0.041027    0.055968   0.0039985
0.028034   -0.024585    0.020888    0.041027    0.038428    0.048822    0.008221
0.020564  -0.0083442    0.020888    0.034206    0.027709    0.039727   0.0095202
0.012768      0.0014    0.019264    0.029333    0.010495     0.02706    0.010495
0.0075714   0.0036737    0.019914    0.030633  -0.0089938    0.015692     0.01764
0.0085458   0.0036737    0.022512    0.035505    -0.02426   0.0095202    0.028684
0.015692   0.0069217     0.02706    0.038428   -0.032055   0.0088706    0.036154
0.02641    0.013093    0.032257    0.036479   -0.027833    0.011144    0.033231
0.037454    0.015692    0.032906    0.027709   -0.017114    0.012443    0.022837
0.047198    0.013743    0.027385    0.020239  -0.0015233     0.01017    0.010495
0.05207    0.012768     0.01894     0.01764    0.012768   0.0072465  -0.0018481
0.05142    0.015367    0.014392    0.016991    0.024786    0.003024   -0.012242
0.047523    0.017965    0.015042     0.01764     0.03453  -0.0015233   -0.019388
0.042326     0.01894    0.017965    0.017316    0.044599  -0.0044465   -0.016464
0.036479     0.01764    0.017316     0.01894    0.056617  -0.0034721  -0.0034721
0.031282    0.017965    0.010819    0.020564    0.069285  -0.0011985    0.012768
0.027709    0.023487      0.0014    0.022837    0.076755 -0.00022403    0.024461
0.02706    0.032257  -0.0063954    0.027385    0.076755  -0.0044465    0.027709
0.025436    0.042326   -0.012242    0.031607    0.070909   -0.023935    0.023812
0.023812     0.05207   -0.013216     0.03453    0.061814   -0.060313    0.014068
0.022837    0.061165   -0.010943    0.032257    0.051745    -0.10741   0.0059473
0.024137     0.06831   -0.010293    0.028034      0.0433    -0.14996   0.0043233
0.030308    0.072208   -0.012242    0.025761    0.038753     -0.1753   0.0091954
0.039727    0.073182   -0.016464    0.023812    0.037454    -0.17594    0.016341
0.048497    0.072533   -0.021012    0.020564    0.036804    -0.15516    0.021538
0.054668     0.06961   -0.021661    0.016991    0.038103    -0.12105    0.021213
0.057267    0.063438   -0.015815     0.01764    0.040377   -0.083375    0.016666
0.057917    0.055968  -0.0080194    0.022512    0.043625   -0.047971    0.011794
0.056617     0.05207  -0.0021729    0.033231    0.045899   -0.020687   0.0078962
0.054019    0.052395 -0.00054884    0.044924      0.0433      0.0014   0.0088706
0.05272    0.055318  -0.0034721     0.05272     0.03453    0.021538    0.013093
0.051096    0.059216  -0.0083442    0.056942    0.022188    0.039727    0.020239
0.048822    0.064737   -0.011592    0.055643   0.0085458    0.053369    0.025111
0.042001    0.071558    -0.01484    0.051745  -0.0080194    0.063438    0.021538
0.029658     0.07773    -0.01549    0.045249   -0.022311    0.076106    0.011144
0.01829    0.081303   -0.010293    0.038428   -0.026858    0.093645  -0.0021729
0.014717    0.083576   0.0026992    0.030308   -0.021012     0.11021   -0.011592
0.016016    0.081952    0.020239    0.022512   -0.008669     0.11866    -0.01484
0.018615    0.078379    0.039402    0.016341   0.0062721     0.11963   -0.013541
0.017316    0.070584    0.051096    0.011469    0.017965     0.11346   -0.013541
0.0091954    0.059216    0.055643   0.0056225    0.020888     0.10079    -0.01614
-0.0050961    0.046873    0.053369 -0.00022403    0.016016    0.086175   -0.023285
-0.019388    0.033556    0.046873  -0.0018481   0.0033489    0.072533   -0.034978
-0.028482    0.021538    0.038428      0.0014  -0.0099683    0.065387   -0.047971
-0.026533    0.014717    0.031932   0.0078962   -0.017114    0.063763    -0.05804
-0.015165    0.015692    0.033881    0.016016   -0.013541    0.067986   -0.062912
0.00042559    0.026735    0.043625    0.024786   0.0010752    0.072208   -0.064861
0.016016    0.041351    0.056617    0.031282    0.020239    0.070909   -0.065835
0.021213    0.049796    0.063763    0.033556    0.041676    0.059541   -0.069408
0.011144    0.042975    0.061489    0.030308    0.057592    0.040377   -0.076554
-0.0099683    0.022837    0.048172    0.024461    0.065712    0.021213   -0.086948
-0.03238  -0.0024977    0.030308    0.016666    0.070584   0.0088706   -0.097666
-0.048945   -0.021012    0.017965    0.008221    0.075456   0.0033489    -0.10611
-0.057065   -0.027183    0.013743 -0.00087364    0.080328   0.0039985    -0.10838
-0.059339   -0.022961    0.010495  -0.0073698    0.083251   0.0085458    -0.10416
-0.05804   -0.015165   0.0026992  -0.0099683      0.0865    0.012768    -0.09117
-0.055766  -0.0067202  -0.0093186  -0.0089938    0.094945    0.012443   -0.072331
-0.051219  -0.0021729   -0.026533  -0.0054209     0.11086   0.0046481   -0.047321
-0.044723   -0.007045   -0.044073  0.00042559     0.13327  -0.0073698   -0.023935
-0.035303   -0.015165   -0.059014   0.0049729     0.15438   -0.018413  -0.0063954
-0.027833   -0.022961    -0.06616   0.0046481     0.16738   -0.023285   0.0017248
-0.02426   -0.027183    -0.06681  0.00042559     0.16868   -0.020687   0.0020496
-0.02426   -0.026533   -0.060638  -0.0073698     0.15926   -0.013216  -0.0024977
-0.025884    -0.02361   -0.047971   -0.015165     0.14302  -0.0054209   -0.007045
-0.028807   -0.020687   -0.034978   -0.018088     0.12385   0.0017248  -0.0099683
-0.033354   -0.021661   -0.026209    -0.01614     0.10404   0.0049729  -0.0067202
-0.039201   -0.025234   -0.024585   -0.012242    0.089423   0.0020496   0.0036737
-0.043099   -0.027183   -0.028482  -0.0083442    0.082277  -0.0060706     0.01017
-0.045697   -0.027183    -0.03238  -0.0060706    0.081627   -0.017764   0.0095202
-0.046671   -0.028482    -0.03238  -0.0067202    0.082277   -0.031081 -0.00054884
-0.046996    -0.03173   -0.029782   -0.010943     0.07708   -0.045047   -0.013216
-0.047646   -0.034329   -0.024585    -0.01614    0.063438   -0.060963   -0.027833
-0.047321    -0.03238   -0.020687   -0.016464    0.040702     -0.0824   -0.038876
-0.044723   -0.024585   -0.018413  -0.0093186    0.014717    -0.10416   -0.044073
-0.036278   -0.013216   -0.016464   0.0049729  -0.0034721    -0.11683   -0.043423
-0.021986 -0.00087364   -0.011592    0.021538   -0.012567    -0.11358    -0.04115
-0.0047713    0.010819 -0.00087364    0.037454   -0.014516   -0.098641   -0.035953
0.011144    0.018615    0.015042     0.05207   -0.010618   -0.079152   -0.028157
0.019264    0.020239    0.028034    0.062789  -0.0034721   -0.059664   -0.014191
0.019589    0.019589    0.037454    0.071234   0.0023744   -0.039851   0.0056225
0.012443    0.021863    0.042001    0.080003   0.0036737   -0.019063    0.026735
0.00010078    0.027385    0.041676    0.087799 -0.00087364  0.00075039    0.041351
-0.011917    0.030633    0.036804    0.095269  -0.0093186    0.015692    0.050446
-0.018088    0.025761    0.032906     0.10209   -0.013541    0.024461    0.055643
-0.016464    0.013743    0.029333     0.11508   -0.012567    0.028684    0.058566
-0.0080194  0.00010078    0.024137     0.14042  -0.0096434    0.028684    0.060515
0.00010078  -0.0063954    0.014717     0.18167  -0.0073698     0.02641    0.062464
0.0023744  -0.0034721   0.0052977     0.23559  -0.0057458    0.020888    0.065062
-0.0021729   0.0059473   0.0020496     0.28788  -0.0063954    0.013093    0.070584
-0.007045    0.016666   0.0033489     0.32361   -0.014516   0.0026992    0.080003
-0.0047713    0.022837   0.0062721     0.32816   -0.029457  -0.0083442    0.095919
0.0069217    0.021863   0.0065969     0.30282   -0.053492    -0.01484     0.11508
0.019589    0.012443      0.0014     0.25702   -0.089221   -0.019712     0.13035
0.025111  0.00042559  -0.0067202      0.2044    -0.13015   -0.024909     0.13652
0.022837  -0.0076946   -0.011267     0.14724     -0.1675   -0.029457       0.131
0.012768  -0.0093186  -0.0096434    0.075781    -0.19478   -0.035303     0.11118
0.0026992  -0.0034721  -0.0037969   -0.025884    -0.21427   -0.045047    0.076431
-0.0054209    0.009845  -0.0054209    -0.16295    -0.23214   -0.057065    0.034855
-0.011917    0.023487   -0.016789    -0.31789    -0.24643    -0.06681  -0.0018481
-0.014516    0.029009   -0.030756    -0.45171    -0.24773   -0.068109   -0.024585
-0.012242    0.024461    -0.04115    -0.52414    -0.23538   -0.060638   -0.036602
-0.0028225    0.014717   -0.044398    -0.51472    -0.21297   -0.049595   -0.043423
0.009845   0.0059473   -0.038551    -0.43319    -0.18796   -0.039201   -0.046996
0.021538    0.003024   -0.031406    -0.31301    -0.16685   -0.030106   -0.046347
0.028359   0.0091954   -0.027508    -0.19283    -0.15223   -0.022961   -0.039851
0.030633    0.023162   -0.026858    -0.10221    -0.13859    -0.02361   -0.029782
0.029658    0.044275   -0.025559   -0.051544    -0.12463   -0.030106   -0.017439
0.031607    0.064088   -0.021012   -0.036602    -0.11001   -0.033354  -0.0057458
0.037778    0.072208   -0.017764     -0.0405    -0.10059   -0.031081   0.0026992
0.04395     0.06084   -0.022311   -0.045372    -0.10091   -0.026858    0.011144
0.044275    0.031932   -0.032055   -0.037252    -0.10871   -0.020687    0.017316
0.036154 -0.00087364   -0.044398   -0.015815     -0.1204   -0.010618    0.022512
0.023487   -0.025884   -0.051868    0.011469    -0.12852  0.00075039    0.024137
0.012443   -0.038876   -0.047971    0.039402    -0.13145    0.010495    0.021538
0.0046481   -0.039851   -0.034978    0.061165    -0.12787    0.012443     0.01764
-0.0028225   -0.032705   -0.018413    0.071558    -0.11813   0.0059473    0.014717
-0.0089938   -0.023935  -0.0076946    0.067336    -0.10416  -0.0034721    0.012443
-0.015165   -0.020687  -0.0067202    0.051745   -0.086298   -0.010943     0.01017
-0.016789   -0.019712   -0.011267    0.032257   -0.064536   -0.015165   0.0075714
-0.010293   -0.016789   -0.011917    0.012443   -0.039526    -0.01549    0.008221
0.00042559   -0.010618   -0.013866  -0.0050961    -0.01484   -0.015165   0.0091954
0.0091954 -0.00087364   -0.017439   -0.018088   0.0065969    -0.01614     0.01017
0.013093    0.009845   -0.026533    -0.02426    0.024786    -0.01484    0.010495
0.012443    0.016991   -0.036927   -0.024585    0.036479   -0.013541    0.011469
0.013743    0.015367   -0.043748   -0.020362    0.037778   -0.013541    0.013093
0.014392   0.0046481   -0.044073   -0.015815    0.028684   -0.013216    0.016341
