-0.040825   -0.029132   -0.035628   -0.088896    -0.11196    -0.10189   -0.075579
-0.079802   -0.053817   -0.047971    -0.12917    -0.15873    -0.17692    -0.12105
-0.11261   -0.074605   -0.058365    -0.15093    -0.17984    -0.23701    -0.14899
-0.13047   -0.087272   -0.063561      -0.161    -0.20615    -0.28443    -0.15548
-0.13145   -0.089221   -0.062587    -0.16295    -0.25033    -0.31171    -0.14346
-0.11813   -0.080776   -0.053817    -0.15256     -0.2971    -0.30457    -0.11651
-0.094418   -0.063561   -0.038227    -0.12787    -0.32048    -0.25585   -0.080127
-0.06681   -0.041799   -0.018738   -0.087922    -0.30847    -0.17594   -0.039851
-0.039851   -0.018738   0.0026992   -0.044398    -0.28281   -0.091495      0.0014
-0.017439  -0.0015233    0.023162   -0.013866    -0.27241   -0.030431    0.031607
-0.0041217   0.0043233    0.041027  -0.0047713    -0.28118  0.00075039    0.046548
-0.00054884 -0.00087364    0.049147   -0.010943    -0.28216    0.013418    0.044924
-0.0050961   -0.010293    0.041351   -0.020362    -0.24675    0.023487    0.028684
-0.012892   -0.017764     0.02641   -0.018088    -0.17854    0.042001   0.0056225
-0.018413   -0.021012    0.015692      0.0014    -0.11651    0.065062   -0.014516
-0.020037   -0.020687    0.013093    0.030633    -0.10676      0.0852   -0.019388
-0.016789   -0.020362    0.013418    0.049147    -0.16685    0.093645   -0.011267
-0.013216   -0.024909   0.0085458    0.039078    -0.29385    0.079354   0.0026992
-0.012567   -0.028157      0.0014   0.0059473    -0.45755    0.042326    0.016666
-0.01549   -0.023935  -0.0011985   -0.029132    -0.61021  -0.0054209     0.02641
-0.013216   -0.011917   0.0039985   -0.043423    -0.69856   -0.040825    0.030957
-0.00054884   0.0072465    0.018615    -0.02361    -0.69759   -0.044073     0.03518
0.020564    0.026085    0.042326    0.030957    -0.61573  -0.0060706    0.046873
0.041027    0.044599    0.070584     0.10989    -0.46567     0.06961    0.067986
0.056617    0.063438    0.097543     0.19369    -0.26169     0.16803    0.097218
0.064737    0.081627     0.11931      0.2593   -0.027508     0.25962     0.13002
0.067986    0.090397     0.12548     0.28691     0.20246     0.32621     0.15893
0.062789    0.088124     0.11476     0.27099     0.39604     0.35674     0.17777
0.054993    0.078055    0.091372     0.22292     0.53506     0.35512     0.18329
0.047523    0.063438    0.062789     0.16348     0.61366     0.32426     0.17647
0.039727    0.049472    0.034855     0.11086     0.63835     0.27099     0.15763
0.028359    0.037454    0.010819    0.074482     0.62048     0.20278      0.1297
0.015692    0.029009  -0.0054209    0.052395     0.58605     0.13457    0.097868
0.00010078    0.023812  -0.0089938    0.036154     0.56039    0.073182    0.064737
-0.017764     0.01894  -0.0018481    0.022188     0.53116    0.019264    0.035505
-0.036278    0.015692   0.0069217   0.0052977      0.4636   -0.029457    0.010495
-0.052843    0.010495   0.0095202   -0.019063     0.33205   -0.075255   -0.011917
-0.068758   0.0020496   0.0010752   -0.052518     0.14172    -0.11975   -0.030106
-0.080451  -0.0076946    -0.01614   -0.091495   -0.067134    -0.16003   -0.041799
-0.085973   -0.014516    -0.03173    -0.12787    -0.24253    -0.19219   -0.046996
-0.088896    -0.01614   -0.039526    -0.15158    -0.34744    -0.21265   -0.048296
-0.094743   -0.017764   -0.038876    -0.15548    -0.38057    -0.22402   -0.047321
-0.10189   -0.019388   -0.036602    -0.14087    -0.37408    -0.23051   -0.047971
-0.11001   -0.022636   -0.032705    -0.11715    -0.35849    -0.23246   -0.049595
-0.11423   -0.025884   -0.023285   -0.095068    -0.33315    -0.22791   -0.052843
-0.10903   -0.028157   -0.010293   -0.082076    -0.27631    -0.21622   -0.058689
-0.093119   -0.029457  -0.0018481    -0.08305    -0.17465    -0.20063   -0.066485
-0.073631   -0.029457  -0.0018481   -0.095717   -0.034004    -0.18374   -0.076554
-0.060638   -0.030756   -0.008669    -0.11326     0.12613    -0.16718   -0.084674
-0.058365    -0.03173   -0.017439    -0.11975     0.28171    -0.14801   -0.084674
-0.063561   -0.030756   -0.018413    -0.10221     0.41423    -0.11813   -0.076879
-0.069408   -0.026858   -0.010943   -0.052518     0.53116   -0.070382   -0.063237
-0.071357   -0.018088  -0.0037969    0.020564     0.63867  0.00042559   -0.045047
-0.065186  -0.0054209  -0.0015233    0.092996      0.7163    0.082602   -0.022961
-0.052193   0.0052977   0.0010752     0.14919     0.74521     0.16056 -0.00087364
-0.039526    0.013418   0.0069217     0.18134     0.71403      0.2174    0.017316
-0.032055    0.019264    0.013093     0.19109     0.63185     0.23754    0.029333
-0.029132    0.022512    0.015042     0.18459     0.52434     0.21415    0.032582
-0.027833    0.021538    0.012443     0.16315     0.41553     0.15081    0.025111
-0.027508    0.014717    0.003024     0.12905     0.30964    0.065712    0.008221
-0.029782  0.00075039   -0.011592    0.087799     0.19921   -0.021337   -0.012242
-0.034654   -0.017439   -0.025559    0.045574    0.079354   -0.093119   -0.030431
-0.040175   -0.036278   -0.034654    0.010819   -0.038551    -0.14054   -0.045372
-0.045697   -0.050244   -0.037252   -0.012242    -0.13794    -0.16068   -0.057065
-0.049595   -0.052518   -0.030756   -0.019063    -0.22824    -0.15516   -0.056091
-0.050569   -0.045047   -0.020037   -0.015815    -0.33283    -0.12852   -0.041475
-0.047971   -0.032705   -0.010943    -0.01549    -0.45625   -0.097017   -0.017764
-0.041799   -0.024585  -0.0083442   -0.028157    -0.56117   -0.076879   0.0033489
-0.032055   -0.024909   -0.014191   -0.051868    -0.57806   -0.081426     0.01017
-0.025884   -0.035953   -0.026209   -0.072656    -0.45138    -0.10903  0.00075039
-0.026209   -0.051544   -0.039526   -0.080451    -0.20225    -0.14736   -0.020037
-0.03173   -0.065835    -0.04992   -0.072331    0.073182    -0.18407   -0.043099
-0.039526   -0.078503   -0.055441   -0.056091     0.26547    -0.21525   -0.063886
-0.049595   -0.088247   -0.056741   -0.043748     0.31809    -0.23603     -0.0837
-0.060963   -0.097341   -0.060313    -0.04862     0.27326    -0.23863    -0.09929
-0.069733    -0.10026   -0.065186   -0.069408     0.21415    -0.22174    -0.10481
-0.07428   -0.090196   -0.067134   -0.096692     0.17192    -0.19186   -0.095068
-0.06681   -0.069083   -0.058689    -0.11488     0.12418    -0.15646   -0.067459
-0.040175   -0.039526   -0.040175    -0.10676    0.056292    -0.11261   -0.019712
0.003024  -0.0093186   -0.018088    -0.06681   -0.043099   -0.057715    0.037454
0.05207    0.017316   0.0056225  -0.0089938    -0.20225   0.0075714    0.094945
0.09397    0.041351    0.028684    0.045574    -0.44748    0.074482     0.14367
0.12548    0.058891    0.049472    0.076431    -0.75378     0.12937     0.17842
0.14302    0.070259    0.064088    0.080653     -1.0481     0.16056     0.19888
0.15016    0.075781    0.069934    0.068635     -1.2605     0.17225      0.2109
0.14951    0.078704    0.069285    0.059865      -1.356     0.17745     0.21837
0.14302    0.079029    0.064737    0.071558     -1.3319     0.18654     0.22129
0.13522    0.078704     0.06019     0.10534     -1.1877     0.19499     0.21415
0.12905    0.075131    0.055968     0.15601     -0.9243     0.18914     0.19563
0.12255    0.069934    0.054668      0.2122    -0.58553     0.15958     0.16933
0.11573    0.065712    0.053044      0.2619    -0.26364     0.10047     0.14334
0.10859    0.065712    0.050121     0.29568   -0.043099    0.023812     0.12093
0.10112    0.068635    0.046223     0.31127    0.073507   -0.041799     0.10371
0.091047    0.071234    0.042326     0.30672     0.16705   -0.071032    0.089748
0.080003    0.073507    0.033881     0.27554     0.30704   -0.064211    0.076755
0.066362    0.073507    0.019589      0.2122     0.50485   -0.035628    0.063763
0.049147    0.066686   0.0033489     0.12743     0.72994  0.00075039    0.050121
0.030957    0.055643   -0.011592    0.041351     0.94074    0.033881     0.03583
0.017316    0.045249    -0.02361   -0.029132      1.0898    0.062139    0.020564
0.011469    0.040702   -0.032055   -0.073955      1.1226    0.084551    0.003024
0.016341    0.040702   -0.036927   -0.093769      1.0005     0.10339   -0.011592
0.029009    0.044924   -0.037902    -0.10091     0.73482     0.11995   -0.016789
0.042001    0.049147   -0.037577    -0.11163     0.39377     0.13295    -0.01549
0.046223    0.046548   -0.034004    -0.14087    0.059216     0.14107  -0.0093186
0.042326    0.036154   -0.029457    -0.18601    -0.20972     0.13782  -0.0034721
0.030957    0.027385   -0.029132    -0.23376    -0.38772     0.11378  -0.0047713
0.016991    0.021863   -0.034654    -0.26462    -0.46697    0.071883   -0.017439
0.0062721    0.023162   -0.043748    -0.26039    -0.43189    0.023487   -0.037577
0.003024    0.031932   -0.047971    -0.22369    -0.27079   -0.021337   -0.058365
0.0039985    0.042651   -0.045047     -0.1701   -0.026858    -0.05739    -0.07493
0.0056225    0.053369   -0.037252    -0.10936     0.20765    -0.08305   -0.084024
0.0043233    0.063113   -0.028482   -0.047646      0.3457   -0.097991   -0.085324
-0.00022403    0.070584   -0.019712   0.0036737     0.34537   -0.097991   -0.078178
-0.0057458    0.072208   -0.014191     0.03583     0.22909   -0.080127   -0.059989
-0.0089938    0.067986   -0.012242    0.047198    0.074482    -0.04992   -0.032705
-0.0067202    0.060515   -0.015815     0.03518   -0.039201    -0.01484  -0.0080194
0.0043233    0.051096   -0.024909   0.0056225   -0.080451    0.016016   0.0049729
0.024137    0.039402   -0.038227   -0.031081   -0.077203    0.030308    0.003024
0.042001     0.02641   -0.050569    -0.06616   -0.077853    0.022837   -0.011917
0.0433    0.013743   -0.054792   -0.094743    -0.11261   0.0049729   -0.035953
0.026735   0.0026992    -0.04927    -0.11358    -0.18114   -0.016464   -0.064861
0.0043233  -0.0031473   -0.037902    -0.11748    -0.25098   -0.038227   -0.090521
-0.012567  0.00075039    -0.02426    -0.10481    -0.28833   -0.059989    -0.10254
-0.021337    0.014068  -0.0089938   -0.072656     -0.2932   -0.072006   -0.096367
-0.026209    0.031932   0.0046481   -0.029457    -0.30165   -0.075579   -0.080127
-0.028807    0.047198    0.012443   0.0088706    -0.36238   -0.077203   -0.063886
-0.029457    0.055643    0.010495    0.022188    -0.48938   -0.088896   -0.061937
-0.03173    0.053694  -0.0073698   0.0020496    -0.65276    -0.12268   -0.078503
-0.044073    0.036479   -0.036278   -0.046671    -0.81354    -0.18244    -0.11098
-0.06681   0.0052977   -0.068758    -0.10806    -0.93567    -0.25033    -0.14801
-0.090845   -0.029457   -0.096042    -0.16198    -0.99771      -0.301    -0.17757
-0.10838   -0.060313    -0.11488    -0.19836    -0.97367    -0.31464    -0.19316
-0.11326   -0.080127    -0.12592    -0.21232    -0.81776     -0.2867    -0.19186
-0.10449   -0.083375     -0.1256    -0.20225    -0.51797    -0.22434    -0.17367
-0.082076   -0.069408    -0.11163    -0.16263    -0.17952    -0.13957    -0.13892
-0.046022   -0.039526   -0.081101   -0.084349    0.042001   -0.043748   -0.088247
0.0043233   0.0017248   -0.036602    0.028034    0.088448    0.046223    -0.02426
0.062464     0.04395    0.014392     0.15179    0.021863     0.11313    0.043625
0.11638    0.075456    0.055968      0.2502   -0.025234     0.15211     0.10339
0.15568    0.089098    0.079354     0.29762     0.09397     0.18264     0.14334
0.17582    0.083901    0.083901     0.29113     0.42755     0.22324     0.16056
0.17777    0.067986    0.075131     0.24858     0.87546     0.28333     0.16445
0.1651    0.054344    0.063113     0.19628      1.2591     0.35057     0.16348
0.14691    0.049796    0.057592     0.15763      1.4354     0.40384     0.16348
0.13425    0.055318    0.066686     0.14594      1.3607     0.42008      0.1651
0.131    0.067011    0.088448     0.15991      1.0843     0.38597     0.16283
0.13392    0.079354     0.11281     0.18654     0.70818     0.30022     0.15114
0.13522    0.085525     0.12743     0.20668     0.34927      0.1755     0.12678
0.12353    0.080978     0.12223      0.2083    0.099167    0.037778    0.092346
0.094945    0.067336     0.10014     0.18784   -0.010293   -0.081751    0.057267
0.053369    0.046873    0.072208     0.14951   -0.025559    -0.16588    0.029333
0.0095202    0.019914    0.045574     0.10079   -0.035628    -0.21427    0.011144
-0.02426  -0.0089938    0.023162    0.044275    -0.10319    -0.23409  0.00042559
-0.040825   -0.035953   0.0026992   -0.019712    -0.22142    -0.23538  -0.0083442
-0.044073   -0.058365   -0.019063   -0.087922    -0.32958    -0.23149   -0.020687
-0.047321   -0.074605     -0.0405    -0.15483    -0.35134    -0.23344   -0.043423
-0.062912   -0.084999   -0.061288    -0.21849    -0.24318    -0.24448   -0.076879
-0.088896   -0.092794   -0.081426    -0.27728    -0.01484    -0.25065    -0.11456
-0.11196    -0.10286   -0.097017    -0.32633     0.28658    -0.23279    -0.14866
-0.12268    -0.11423    -0.10676    -0.35914     0.59872    -0.17659    -0.16718
-0.12008     -0.1191    -0.10741    -0.36628     0.85759   -0.086298    -0.16847
-0.11001    -0.11423    -0.10091    -0.34712     0.99921   0.0069217    -0.15191
-0.098965    -0.10156   -0.088896    -0.31074      0.9664    0.070259    -0.12268
-0.089546   -0.087597   -0.075904    -0.26689     0.73059    0.079029   -0.091495
-0.078503   -0.077528   -0.060963    -0.21752       0.334    0.031932   -0.065186
-0.063561   -0.072981   -0.042124    -0.15548   -0.072656   -0.047321   -0.044723
-0.04115   -0.070058   -0.017114   -0.066485    -0.27664    -0.11196   -0.025559
-0.013541   -0.063237    0.016991    0.067661    -0.12722    -0.11456  -0.0031473
0.012443   -0.046671    0.055643     0.24533     0.34764    -0.03303    0.029333
0.034855   -0.022961    0.093645     0.44476     0.93262     0.11443    0.069934
0.050121  0.00010078      0.1206     0.61918      1.3659     0.28528     0.11216
0.055968    0.016666     0.13197     0.72767      1.4802     0.43274     0.14464
0.054019    0.026085     0.12905     0.74943      1.2272     0.52272     0.15731
0.048172    0.030957     0.11508      0.6822     0.66888     0.53441     0.14302
0.040052    0.033556    0.093321     0.54285   -0.052843     0.47335     0.10469
0.032582    0.036804    0.067661     0.36681    -0.73786     0.37298    0.054668
0.025436      0.0433    0.047847     0.19953     -1.2238     0.26644    0.010819
0.020564    0.052395    0.042001    0.079029     -1.4349     0.17192   -0.014516
0.01894    0.061489    0.048497    0.013743     -1.3839    0.092346   -0.020362
0.016341    0.065712    0.059216   -0.010618     -1.1526     0.01764   -0.017764
0.0078962     0.06019    0.067336   -0.013541    -0.85219   -0.060313   -0.017764
-0.0044465    0.045249    0.071234  -0.0047713    -0.57448    -0.13924   -0.019712
-0.011267     0.02641    0.071234    0.014392    -0.35881    -0.19673   -0.019063
-0.010618    0.012119    0.073182    0.041027      -0.212    -0.21914  -0.0096434
-0.0018481   0.0065969    0.078055    0.069934     -0.1308    -0.21427   0.0062721
0.0095202   0.0088706    0.081627    0.092021    -0.11196    -0.20518    0.020564
0.01764    0.014068    0.079354    0.096893    -0.15256      -0.212    0.030308
0.019264     0.01829    0.071558    0.083576    -0.22174    -0.23701    0.031932
0.014392    0.018615    0.062139    0.056617    -0.26559    -0.26202    0.027385
0.0078962    0.014068    0.055318    0.023812    -0.24805    -0.26039    0.023812
0.0043233    0.009845    0.053369  -0.0050961    -0.19089    -0.21395     0.02706
0.0043233   0.0085458    0.060515   -0.022636    -0.13989      -0.123    0.040702
0.0088706    0.012119    0.075781   -0.029132    -0.11845   -0.013866    0.058566
0.017316    0.018615    0.089098   -0.027833    -0.13275    0.074806    0.071883
0.02641    0.028034    0.089423   -0.024909     -0.1753     0.11736    0.075456
0.031282    0.037129    0.072858   -0.026209    -0.23149     0.11573    0.070909
0.03518    0.042001    0.045899    -0.03238    -0.26819    0.097543    0.062464
0.039078    0.040702    0.016341   -0.041799    -0.25812    0.087474    0.054993
0.037454    0.035505  -0.0063954   -0.051544    -0.21557    0.094295     0.05142
0.024786    0.029658   -0.018413   -0.054792    -0.17659     0.10664    0.049796
0.003024    0.022188   -0.025559   -0.051868    -0.15905     0.11151    0.044599
-0.020037    0.014392   -0.032055   -0.046671    -0.15581     0.10631    0.033556
-0.038876   0.0088706     -0.0405   -0.046996    -0.15613     0.10014    0.016666
-0.054467   0.0056225   -0.048945    -0.05739      -0.161     0.10209  0.00075039
-0.06681   0.0049729   -0.060313   -0.080451    -0.18731     0.10729   -0.010618
-0.079802   0.0065969   -0.072006     -0.1178    -0.23993     0.10242   -0.019712
-0.092145   0.0049729   -0.079802    -0.15938    -0.30067    0.076106   -0.031081
-0.09929   0.0033489   -0.082725    -0.18796    -0.33478    0.032257   -0.041475
-0.098316   0.0017248   -0.080451    -0.19316    -0.31236   -0.020037   -0.043423
-0.090196 -0.00022403   -0.072331    -0.17042    -0.21557   -0.072981   -0.038876
-0.077528   0.0026992   -0.060638    -0.11715   -0.031406    -0.11683   -0.029132
-0.064536   0.0088706   -0.046347    -0.03238     0.24046    -0.13957   -0.020362
-0.052518    0.014717   -0.034978    0.067661     0.57209    -0.13827    -0.01614
-0.044398    0.014068   -0.029457     0.14691     0.90469    -0.12073   -0.024909
-0.044073   0.0069217   -0.030431      0.1755      1.1613    -0.10611   -0.046347
-0.055116  -0.0083442   -0.035628     0.14139      1.2659    -0.11066   -0.073955
-0.075579   -0.026858   -0.048296    0.057592       1.185    -0.13957    -0.09994
-0.10514   -0.047646   -0.072331   -0.050569     0.93977    -0.19024    -0.12008
-0.1334   -0.065835    -0.09929    -0.15223     0.60684    -0.25098    -0.13275
-0.14736   -0.076879    -0.11975    -0.22434     0.28106    -0.30554    -0.13437
-0.13827   -0.078178    -0.12495    -0.25325    0.029658     -0.3377    -0.12495
-0.11163   -0.067784    -0.10903    -0.23733    -0.12917     -0.3351    -0.10806
-0.072656   -0.046671   -0.073955    -0.18731    -0.23571    -0.29905   -0.086298
-0.030106   -0.022961    -0.03303    -0.11943    -0.34355       -0.25   -0.059989
0.0056225  -0.0044465  -0.0031473   -0.055116    -0.47444    -0.21265   -0.031081
0.027709   0.0049729   0.0052977   -0.012567    -0.60437    -0.20485  -0.0057458
0.036154   0.0046481  -0.0018481   0.0056225    -0.68947    -0.22077    0.012768
0.037129  -0.0011985   -0.011267   0.0056225    -0.69986    -0.23993    0.027709
0.040702  -0.0083442   -0.010293  -0.0018481     -0.6336    -0.24123    0.039078
0.051745   -0.011592   0.0017248   -0.010618    -0.51829    -0.21297    0.049472
0.064737  -0.0057458    0.019914   -0.020362    -0.39584    -0.15581    0.057592
0.074157    0.011144    0.037129   -0.032055    -0.31204   -0.075579    0.064088
0.078055    0.027385    0.047523   -0.043099     -0.2971    0.014068    0.069934
0.077405    0.036154    0.046548   -0.053492     -0.3429    0.094945    0.072533
0.072858    0.035505    0.034206   -0.060638    -0.40526     0.15179    0.067011
0.064737    0.024461    0.013743   -0.067134    -0.43352     0.18004    0.054019
0.051096   0.0039985   -0.010618   -0.073306    -0.39616     0.18394     0.03583
0.030633   -0.021012   -0.035953   -0.079152     -0.2867     0.18102    0.015692
0.010819   -0.042449   -0.051219   -0.083375     -0.1217     0.18589   0.0010752
-0.0011985   -0.055766   -0.054467    -0.08305    0.061489     0.20278  -0.0060706
-0.0037969   -0.059014   -0.051219   -0.082725      0.2135     0.22324  -0.0076946
-0.0044465   -0.058365   -0.044723   -0.082725     0.28918     0.23006  -0.0050961
-0.0083442   -0.055766   -0.039851   -0.077853     0.26709     0.21252  -0.0041217
-0.013216   -0.056091   -0.038227   -0.059989     0.16445     0.17257  -0.0047713
-0.01614   -0.059014    -0.04115   -0.031081     0.04395      0.1284  -0.0037969
-0.017764   -0.059989   -0.042124    0.003024   -0.023935     0.10177      0.0014
-0.019712   -0.054467   -0.039526     0.03518   -0.035303     0.10306   0.0078962
-0.019712   -0.043099   -0.031406    0.057592    -0.03238     0.12548    0.015367
-0.01549   -0.029782   -0.020687    0.065062     -0.0405     0.15309    0.024137
-0.013216   -0.021012   -0.011592    0.056292   -0.012567      0.1703    0.030957
-0.011267   -0.015815   -0.008669    0.038753     0.12223     0.17452     0.03518
-0.0080194   -0.013866   -0.012567    0.024461     0.35122     0.16478    0.038428
-0.0015233   -0.010943    -0.01614     0.01829     0.56949     0.14074     0.04395
0.0036737   -0.007045    -0.01549    0.016666     0.65654     0.10501    0.046223
0.0056225  -0.0054209   -0.013866     0.01764     0.55715    0.058891    0.042975
0.0033489  -0.0044465   -0.013541     0.01764     0.29697   0.0043233    0.036479
0.00075039  -0.0024977   -0.012242    0.014392   -0.042124   -0.051868    0.032257
-0.00054884   0.0023744  -0.0083442   0.0056225    -0.36141    -0.10189    0.030957
0.003024    0.010819  0.00010078  -0.0063954    -0.59657    -0.13664    0.037129
0.014717    0.024461    0.011144   -0.021012    -0.74014    -0.15256    0.053694
0.03583    0.042001    0.025111   -0.034978    -0.81257    -0.14931    0.075131
0.059216     0.06084    0.039727   -0.046347    -0.82653     -0.1334    0.099167
0.076755    0.075456    0.051096   -0.054467    -0.77424    -0.11098     0.11768
0.082927    0.080328    0.054668   -0.056741    -0.64237   -0.086948     0.11866
0.078055    0.078704    0.053369   -0.047646    -0.43677   -0.063561     0.10144
0.069285    0.072858    0.049147   -0.025884    -0.18796   -0.042774    0.074482
0.064088    0.066037    0.041027      0.0014     0.05207   -0.021661    0.047523
0.067011    0.059216    0.033231    0.024786     0.24338   0.0039985    0.028034
0.073832     0.05207    0.030957    0.042001     0.36908    0.033231    0.019589
0.072533    0.047847    0.031932    0.059541     0.43437    0.057267    0.018615
0.059865    0.044924    0.032906     0.08585     0.45678     0.06896    0.016341
0.037454    0.044275    0.029333     0.12158     0.45905    0.067661   0.0036737
0.013743    0.042651    0.019264     0.16121     0.46782    0.062139   -0.017764
-0.0034721    0.036804   0.0065969     0.19726     0.49511    0.064413   -0.036927
-0.0089938    0.029983 -0.00087364     0.22292     0.53376    0.080328   -0.044723
-0.0018481     0.02706   0.0017248     0.23104     0.55292     0.10436   -0.041475
0.013743    0.029983    0.013418     0.21642      0.5107     0.11995   -0.031081
0.026085    0.036804    0.026085     0.17517     0.39442     0.11541   -0.021337
0.029983    0.040377    0.030633     0.10501     0.23461    0.084226   -0.019388
0.026735    0.039727    0.028034     0.01894    0.093645    0.035505   -0.024585
0.022188    0.032582    0.022188   -0.056091    0.026085   -0.013541   -0.031406
0.017965    0.023487    0.013418    -0.10059    0.047847    -0.04992    -0.03303
0.011794    0.015692   0.0033489    -0.11098     0.13457   -0.065835   -0.031406
0.0043233   0.0059473  -0.0096434   -0.098641     0.23429   -0.067134   -0.034978
-0.0054209  -0.0067202   -0.023285   -0.078503     0.30185   -0.059664   -0.047646
-0.015815   -0.019388   -0.035303   -0.054467     0.32913   -0.047971   -0.065835
-0.021986   -0.028157     -0.0405   -0.029457     0.34082   -0.030431   -0.080776
-0.018413   -0.029782   -0.040175  0.00042559     0.36713  -0.0093186   -0.084349
-0.0067202   -0.021661   -0.035953    0.034206     0.42592    0.013093   -0.079152
0.0056225   -0.011592   -0.033354    0.064088     0.49413    0.030957   -0.069733
0.0095202  -0.0021729   -0.037902    0.081303     0.51882    0.036154   -0.061613
0.0046481   0.0023744   -0.047321    0.079029     0.44314    0.020888   -0.061288
-0.0041217   0.0046481   -0.054792    0.057592     0.23786   -0.015165   -0.064861
-0.0096434   0.0033489   -0.057715    0.025761   -0.075904   -0.065186   -0.068434
-0.011267  -0.0011985   -0.051544   0.0026992    -0.43806    -0.11748   -0.061613
-0.0054209  -0.0041217   -0.038876   0.0052977    -0.76417    -0.15548   -0.036602
0.01017   0.0010752    -0.01484    0.042001     -0.9675    -0.16393   0.0088706
0.037454    0.014392    0.016341     0.10242    -0.99316    -0.13729     0.06831
0.071883    0.029983    0.053044     0.16608    -0.84862   -0.088247     0.11995
0.10079    0.040377     0.08585      0.2122    -0.60404   -0.044398     0.14399
0.11378    0.040702     0.10534     0.22552    -0.34484   -0.031406      0.1336
0.10404    0.033231     0.10404     0.20051    -0.11618   -0.059989    0.091047
0.070584    0.018615    0.080003     0.14432    0.098193    -0.11683    0.031932
0.019914 -0.00054884    0.039402    0.072533     0.35154    -0.17237   -0.026533
-0.032705   -0.022311  -0.0067202  -0.0021729     0.65686    -0.19771   -0.068758
-0.076229   -0.040175   -0.045697   -0.070382     0.94691    -0.18407   -0.089221
-0.10579   -0.054792   -0.073306    -0.12592      1.1152    -0.14541    -0.09117
-0.11943    -0.06616   -0.088572     -0.1675      1.0798    -0.10871   -0.082725
-0.11878   -0.072006   -0.092145    -0.19511     0.83421   -0.094418   -0.071032
-0.10838   -0.070382   -0.088572    -0.21037     0.44996    -0.10221   -0.056741
-0.093119   -0.066485   -0.080127    -0.21232    0.023812     -0.1204   -0.043423
-0.073306   -0.059664   -0.067784    -0.19933    -0.36628     -0.1321   -0.030106
-0.053168   -0.050894   -0.051219     -0.1753    -0.68394     -0.1243    -0.01549
-0.037577   -0.041799   -0.034654    -0.14444    -0.92852   -0.096367   0.0036737
-0.031406   -0.029457   -0.023285    -0.11358     -1.0984   -0.053492    0.028359
-0.029457   -0.016464   -0.015815   -0.084349     -1.1932   -0.012567    0.053694
-0.025559  -0.0047713   -0.014191   -0.057065     -1.1945   0.0049729    0.074157
-0.017439    0.003024   -0.012567   -0.030431     -1.0877   -0.014191    0.085525
-0.0063954    0.011469  -0.0031473  -0.0021729    -0.88467   -0.057715    0.090722
0.0091954    0.023812    0.017316    0.037454    -0.59657   -0.093444     0.09397
0.028359    0.040702    0.047847    0.092346    -0.23409   -0.084999    0.097868
0.050121    0.056942    0.076431     0.15763     0.14951    -0.01614     0.10664
0.072858    0.067986    0.096244     0.22097     0.45808     0.10306     0.12028
0.092346     0.06831     0.10696     0.26774      0.5945     0.24273      0.1336
0.10696    0.063438     0.10891     0.28528      0.5029     0.36421     0.14496
0.11541     0.06084     0.10826     0.26807     0.20311     0.43957     0.15049
0.11638    0.064088     0.11151     0.22649    -0.22986     0.46003     0.15114
0.11118    0.069934     0.11541     0.18004    -0.70538     0.42982     0.14854
0.10177    0.074157     0.11638     0.14237     -1.1523     0.35999     0.14626
0.086824    0.074157     0.11248     0.11638     -1.5125     0.26222     0.14139
0.064737    0.067336    0.099167    0.097218     -1.7185     0.15438     0.12418
0.037129    0.055318    0.077405    0.079029     -1.6996    0.055968      0.0865
0.0069217    0.042001    0.049147    0.054993     -1.4294   -0.022961    0.030957
-0.022311     0.02706     0.01764    0.025111    -0.94899   -0.079152   -0.029132
-0.047971     0.01017  -0.0093186  -0.0034721    -0.33315    -0.10579   -0.079152
-0.065186  -0.0041217   -0.025559   -0.018413     0.34992    -0.09929    -0.10838
-0.069408   -0.012242   -0.033354   -0.015165       1.031   -0.065835    -0.11293
-0.062262  -0.0096434    -0.03303   0.0036737      1.6082   -0.020687   -0.095717
-0.051219  0.00075039   -0.025884    0.029333      1.9525   0.0088706   -0.069083
-0.044398    0.015692   -0.011592    0.047198      1.9808   0.0036737   -0.046671
-0.045047    0.028684   0.0052977    0.051096      1.7209   -0.035303   -0.035953
-0.04862     0.03453    0.021213    0.039078       1.299   -0.090196   -0.035953
-0.050244    0.034206    0.033556    0.014392      0.8485    -0.14379   -0.041475
-0.047321    0.030308    0.039402   -0.013866     0.45158    -0.18374   -0.045697
-0.042449     0.02706    0.038428   -0.034654     0.14269    -0.20453   -0.043423
-0.037252    0.026085    0.029983    -0.04115   -0.055766    -0.20648    -0.03173
-0.03303    0.024786    0.013418   -0.033354    -0.12235    -0.19576   -0.019388
-0.029782    0.022188  -0.0083442   -0.018413   -0.056416    -0.17302  -0.0096434
-0.026533     0.01894   -0.025884  -0.0021729    0.097218     -0.1295  -0.0050961
-0.019388    0.019264   -0.034329   0.0075714     0.25897   -0.056091  0.00010078
-0.0067202    0.026085   -0.031081    0.010819     0.37201    0.054019    0.012119
0.013418    0.039078   -0.019063   0.0065969     0.43827     0.19206    0.031282
0.037129    0.050771  -0.0044465   0.0010752     0.51395      0.3353    0.052395
0.051096    0.055968   0.0078962  -0.0018481     0.63607     0.45061    0.063438
0.050121    0.055643    0.015692      0.0014     0.78678     0.51037    0.064413
0.033881     0.05207    0.019914   0.0046481     0.90404      0.5029    0.057917
0.012119    0.049147    0.019914   0.0072465     0.94334     0.43307    0.047523
-0.0057458    0.046548    0.017316    0.014717     0.90891     0.32296    0.037778
-0.015165    0.041027    0.013418    0.026085     0.84817     0.19823    0.028034
-0.01484    0.032257   0.0095202    0.033231     0.79815    0.087474    0.017316
-0.014191    0.021213      0.0014    0.028034     0.75918    0.008221 -0.00054884
-0.018738     0.01017   -0.011917   0.0056225     0.70916   -0.036602   -0.025559
-0.033354  -0.0034721   -0.031081   -0.038551       0.626    -0.05804   -0.055766
-0.05804   -0.017114   -0.054142    -0.10124     0.49641   -0.075255   -0.089871
-0.085324   -0.031081   -0.081101    -0.17692     0.31711    -0.10676    -0.12398
-0.10774   -0.045697    -0.10741    -0.25292    0.085525    -0.15743    -0.14736
-0.11521   -0.056091    -0.12235    -0.30944    -0.19154    -0.21817    -0.15126
-0.09929   -0.054792    -0.11748    -0.33055    -0.49068    -0.26754    -0.13145
-0.064536   -0.037902   -0.090845    -0.31139    -0.77651    -0.28605   -0.092469
-0.018413  -0.0096434   -0.050244    -0.26234     -1.0094    -0.27436    -0.04862
0.021538    0.017965   -0.013541     -0.2029     -1.1591    -0.24708   -0.017439
0.045899    0.038103   0.0065969    -0.14736     -1.2199    -0.21849  -0.0044465
0.050446    0.046873    0.010495    -0.10189     -1.2131    -0.20128  -0.0083442
0.041027      0.0433   0.0059473   -0.070058     -1.1812    -0.19511   -0.017114
0.026085     0.03518   0.0017248   -0.050244     -1.1643    -0.19219    -0.02361
0.016016     0.02641  0.00075039   -0.028157     -1.1728    -0.18114   -0.022636
0.015042    0.019589  0.00010078   0.0056225     -1.1806    -0.15613   -0.014191
0.019914    0.016016  -0.0031473     0.05272     -1.1319    -0.11521  -0.0044465
0.029333    0.016016  -0.0076946     0.10631    -0.97302   -0.058689    0.003024
0.038103     0.01829   -0.010618     0.15828    -0.68329   0.0065969   0.0069217
0.046223    0.023487  -0.0067202     0.19953    -0.28183    0.070584    0.008221
0.050121    0.029333   0.0039985     0.22097     0.16575     0.12288    0.009845
0.051096    0.030957    0.020239     0.21935     0.54903     0.15276    0.011794
0.048497     0.02641     0.03583     0.19693     0.74813     0.16088    0.013743
0.039078    0.016341    0.044924     0.15698     0.68155     0.14984    0.016341
0.025761   0.0033489    0.044924     0.10469     0.35122     0.12158    0.018615
0.012119  -0.0067202    0.036479    0.047847    -0.14119    0.073507    0.022837
0.0072465   -0.011267    0.021213  -0.0044465    -0.63035   0.0046481    0.027385
0.011469  -0.0096434   0.0026992   -0.045372    -0.97692   -0.082076    0.027709
0.015367  -0.0060706   -0.014191   -0.072331     -1.1176      -0.174    0.019264
0.012443  -0.0050961   -0.024585   -0.089546     -1.0656    -0.24903 -0.00054884
0.0017248   -0.010293   -0.028807    -0.10254    -0.88922    -0.28735   -0.025234
-0.0083442   -0.022636   -0.030106    -0.11228    -0.66965    -0.28443   -0.048296
-0.01484   -0.038551    -0.02426    -0.11878    -0.47672    -0.24221   -0.058689
-0.014516   -0.052193   -0.013541    -0.12073    -0.34387     -0.1701   -0.051868
-0.008669    -0.05739 -0.00087364    -0.11651    -0.26787   -0.077528   -0.031081
0.003024   -0.048945   0.0088706   -0.097991    -0.21914    0.015692  -0.0073698
0.012119   -0.032705    0.013093   -0.052843    -0.13989    0.087474    0.010819
0.013743    -0.01549    0.018615    0.027385    0.038753     0.12158    0.019914
0.013093  -0.0031473    0.032257      0.1271     0.34602     0.11866    0.023162
0.017316   0.0033489     0.05207     0.22097     0.73709    0.092021    0.020888
0.02706   0.0023744    0.069285     0.28918      1.1113    0.065387    0.014717
0.033556  -0.0031473    0.071883     0.31971      1.3604    0.050771   0.0052977
0.029658   -0.007045    0.055968     0.30867      1.4013    0.044924   0.0010752
0.014392   -0.010943    0.027385     0.26482      1.2269    0.037778      0.0014
-0.0044465   -0.014191  -0.0018481     0.20051     0.91703    0.020564 -0.00022403
-0.020687   -0.017439   -0.022961      0.1336     0.59807  -0.0024977  -0.0096434
-0.029782   -0.019063   -0.037577    0.078704     0.35576   -0.024909   -0.026209
-0.030431   -0.019712   -0.046671    0.042326     0.19986   -0.040175   -0.044073
-0.02361   -0.021337    -0.04862    0.028359     0.10047   -0.048296   -0.056416
-0.01549   -0.020687   -0.043099    0.032582    0.034855   -0.051544   -0.059664
-0.0080194   -0.020037    -0.03303    0.042651  -0.0015233   -0.050244   -0.054467
-0.007045   -0.017114   -0.020362    0.049147   -0.011592   -0.046671   -0.042449
-0.0089938   -0.012242  -0.0093186    0.047198   -0.019712   -0.042774   -0.028482
-0.011917  -0.0076946 -0.00054884    0.039402   -0.052843   -0.034654    -0.01484
-0.011917  -0.0041217   0.0043233    0.029658    -0.11228   -0.021012  -0.0015233
-0.008669   0.0017248   0.0065969    0.022188    -0.18179  -0.0076946   0.0095202
-0.0044465    0.011144   0.0062721    0.016991    -0.23246  -0.0034721    0.015692
0.0023744    0.024786   0.0039985    0.015367    -0.24578  -0.0047713    0.017965
0.009845    0.039078  0.00075039     0.01764    -0.22174   -0.010943    0.016666
0.013418    0.047847  -0.0041217    0.016991    -0.18731   -0.019388   0.0069217
0.01017    0.046873   -0.011267   0.0072465    -0.16977   -0.034329   -0.011592
-0.00022403    0.035505   -0.023285   -0.017114    -0.17952   -0.056091    -0.04115
-0.018088    0.013743     -0.0405   -0.058689    -0.18601   -0.084999   -0.076554
-0.039526   -0.014516   -0.060963    -0.11293    -0.15483    -0.11326    -0.10579
-0.058365   -0.044073   -0.081101     -0.1714   -0.089221    -0.13145    -0.12073
-0.071032   -0.068434   -0.095068    -0.22109   -0.022961    -0.13307    -0.11943
-0.078827   -0.082725    -0.10124    -0.25487    0.019914    -0.12333    -0.10936
-0.085648   -0.082076   -0.099615    -0.26787    0.041351    -0.10838   -0.098316
-0.088896   -0.069408   -0.090196    -0.26202     0.05207   -0.096367    -0.09117
-0.086298   -0.047971   -0.075579    -0.24026    0.058241   -0.090845   -0.089221
-0.073306   -0.025559   -0.058365    -0.20453     0.06084   -0.090845   -0.087922
-0.053168   -0.011917   -0.043423      -0.161    0.059216   -0.097991   -0.081426
-0.032705   -0.011917   -0.034329     -0.1178     0.03518    -0.11488   -0.072981
-0.022311   -0.022961   -0.027183   -0.080127   -0.032055    -0.14087   -0.068434
-0.025234   -0.037577   -0.024585   -0.051544    -0.13762     -0.1714   -0.073306
-0.035628   -0.047971   -0.027183   -0.029457    -0.26104    -0.20128   -0.082725
-0.045372   -0.053492   -0.034654  -0.0031473     -0.3822    -0.21947   -0.089546
-0.04862   -0.054142   -0.039526    0.039078    -0.47769    -0.21492   -0.089221
-0.045372   -0.049595   -0.039526    0.097218    -0.54005    -0.18017   -0.080776
-0.037902   -0.041799   -0.035628     0.15438    -0.58001     -0.1178   -0.062262
-0.026209    -0.03173    -0.03238     0.19206    -0.58325   -0.037577    -0.03173
-0.012242   -0.021012   -0.028157     0.20668    -0.50757    0.048497   0.0078962
0.0033489  -0.0050961   -0.018413     0.21123    -0.34062     0.13132    0.055643
0.024461    0.019589   0.0059473     0.21642    -0.16295     0.20278     0.10989
0.054993     0.05272    0.046548     0.23299   -0.072981      0.2567      0.1651
0.090397    0.086175    0.095269     0.25475    -0.10481     0.28756     0.21382
0.12418     0.11248     0.13457     0.26937    -0.20453      0.2973     0.24663
0.14789     0.12645     0.15406     0.26547    -0.27664     0.29015      0.2554
0.15438     0.12743     0.15049     0.23461     -0.2513     0.27749     0.24111
0.14626     0.11638     0.13067     0.18037    -0.13632     0.26904     0.21058
0.13035    0.096893     0.10404     0.11898   0.0085458     0.27196      0.1768
0.11248    0.077405    0.075781    0.069285      0.1284     0.28756     0.14561
0.094295    0.063763    0.049796    0.036479     0.20083     0.31581     0.12093
0.076431     0.06019    0.028359    0.019914     0.23364     0.35089     0.10371
0.06019    0.063763    0.014068    0.017965     0.24663     0.37298    0.093321
0.047198    0.067661    0.008221    0.028359     0.25832     0.35901    0.087474
0.041676    0.066362    0.011144    0.054993     0.29697      0.3012    0.080003
0.041676    0.061489    0.020239    0.097543     0.39182     0.21545    0.072533
0.044599     0.06019    0.031607     0.14626     0.53311     0.13392    0.072858
0.046223    0.064413    0.042326     0.18524     0.66791    0.087799    0.084226
0.046548    0.073507     0.05207     0.20343     0.72864    0.087799     0.10794
0.046873    0.082927    0.062139     0.20018     0.69064     0.12483     0.13327
0.045899    0.085525    0.067661     0.18004     0.58346      0.1742     0.14984
0.044924    0.080328    0.064088     0.14919      0.4597     0.21058     0.15341
0.046873    0.067986    0.053369     0.11378     0.35674     0.21805     0.14367
0.046223    0.050771    0.036154    0.074482     0.27651     0.19174     0.12515
0.041351    0.030957    0.016991    0.028359     0.19596     0.14172     0.10371
0.031607    0.010495  -0.0015233   -0.018738     0.10404    0.081952    0.082277
0.021213  -0.0054209   -0.019388   -0.063237   0.0069217    0.027709    0.063438
0.015042   -0.016789   -0.034329   -0.097991   -0.086623   -0.017114    0.045574
0.010819   -0.022961   -0.045697    -0.12268    -0.17594   -0.056416    0.030957
0.0023744   -0.025234   -0.057065    -0.14087    -0.26364    -0.09929     0.01829
-0.016464   -0.023935   -0.070058    -0.15646    -0.34452    -0.14899   0.0062721
-0.044073   -0.021986     -0.0824    -0.17367    -0.39941    -0.20453   -0.007045
-0.070058   -0.022961   -0.088572    -0.19283    -0.40201    -0.25812   -0.022636
-0.087922   -0.026533   -0.085648    -0.21135    -0.34355    -0.30067   -0.040825
-0.095393   -0.032055   -0.073306    -0.21622    -0.23474    -0.32503   -0.060313
-0.095393   -0.034329   -0.056741     -0.2029   -0.087597    -0.32568   -0.073306
-0.088896   -0.033354   -0.039526     -0.1675    0.093645    -0.30359   -0.072656
-0.080127   -0.030431   -0.027183    -0.11715      0.2921    -0.26949   -0.060313
-0.071032   -0.026533   -0.023285   -0.070707     0.46328    -0.23376   -0.044398
-0.065186   -0.026209   -0.026533   -0.053168     0.55617    -0.20485   -0.032705
-0.061288   -0.029457   -0.034329   -0.071682     0.54383    -0.18861   -0.028807
-0.062912   -0.035953   -0.043099    -0.11456     0.44151    -0.17692   -0.033679
-0.067784   -0.045047   -0.048945    -0.15841     0.29438    -0.15841   -0.042124
-0.072006   -0.053168   -0.054792    -0.18504     0.14009    -0.12268   -0.050244
-0.074605   -0.060638   -0.060638    -0.18699   0.0017248   -0.073955   -0.056741
-0.072331   -0.067134    -0.06681    -0.17659    -0.10936   -0.023285   -0.063561
-0.068758   -0.072981    -0.07428     -0.1675    -0.18471    0.014717   -0.071682
-0.060638   -0.081751     -0.0824    -0.16328    -0.22142    0.032582   -0.078503
-0.050244   -0.090196   -0.086298    -0.16068    -0.23019    0.034855   -0.081426
-0.044073   -0.097666     -0.0837    -0.15353    -0.23733    0.025761   -0.084024
-0.047646    -0.10384   -0.076879    -0.14639    -0.27144  -0.0050961    -0.09182
-0.060963    -0.10838   -0.072981    -0.14866    -0.34452   -0.067459    -0.10579
-0.081101    -0.11001   -0.072331    -0.16718    -0.44781    -0.15061    -0.12495
-0.094743    -0.10481   -0.067784    -0.18699     -0.5498    -0.22532    -0.14119
-0.095393   -0.090196   -0.052518    -0.19348    -0.58293    -0.26169    -0.14054
-0.077853    -0.06616   -0.027508    -0.18017    -0.48581    -0.25065    -0.11813
-0.046671   -0.039851  -0.0018481    -0.14964    -0.26039    -0.20615   -0.082076
-0.014516   -0.020037    0.017316    -0.11228     0.01764    -0.15711   -0.047321
0.012119   -0.008669    0.026735   -0.073955     0.25475    -0.12235   -0.025234
0.029658  -0.0011985    0.028684   -0.034978     0.39669    -0.10254   -0.015165
0.039402    0.012119    0.031282   0.0020496     0.43957     -0.0824   -0.012242
0.047198    0.029983    0.041351    0.032257     0.40903   -0.056416  -0.0076946
0.057267    0.047847    0.057267    0.056942     0.33758   -0.028807      0.0014
0.071883    0.064737    0.075781    0.086824     0.27651  -0.0044465    0.015367
0.089098    0.081303    0.094945     0.13782     0.28008     0.01764     0.03453
0.10859    0.095919     0.11313      0.2109     0.34992    0.046873    0.059216
0.12743     0.11021     0.12775     0.28983      0.4256    0.084551    0.088124
0.14464     0.11931     0.13782     0.35512     0.42397     0.12872     0.12223
0.15666      0.1219     0.14594     0.39312     0.32523     0.17615     0.15731
0.1638     0.12028     0.14919     0.40059     0.19726     0.21902     0.18524
0.16348     0.11801     0.14464     0.38207     0.13652     0.24111     0.19661
0.15503     0.11508     0.13522     0.34537     0.19336     0.23136     0.19044
0.13977     0.10924     0.12223     0.29568     0.34115     0.18751     0.16705
0.12093     0.10014     0.10956     0.24306     0.48569     0.11606       0.131
0.097543    0.091047    0.093645     0.19758      0.5159    0.031282    0.095594
0.074157    0.085525    0.073832      0.1677     0.39572   -0.043748    0.072533
0.056942    0.083576    0.056617     0.15991     0.19401   -0.079802    0.066037
0.053694    0.084551    0.045249      0.1755    0.026735   -0.062587    0.072208
0.058891      0.0852    0.039402     0.20148   -0.045047  -0.0024977    0.083576
0.067336    0.085525    0.037778      0.2187   -0.051219    0.070909    0.092996
0.074157    0.083576    0.038428     0.21058    -0.07428      0.1297    0.097868
0.074157    0.081303    0.037778     0.17582    -0.17594     0.16185    0.096893
0.062789    0.074157    0.037778      0.1297    -0.34972     0.17062    0.089748
0.043625    0.062789    0.039727    0.087799    -0.54005     0.15633    0.076755
0.025761    0.049472     0.04395    0.055968    -0.68427     0.13165    0.060515
0.01764    0.037778    0.046548    0.029658    -0.74046     0.10761    0.042001
0.014068    0.028034    0.040702  -0.0024977    -0.71513    0.091372    0.022188
0.0091954     0.01764    0.025436   -0.048296    -0.65276    0.078379   0.0020496
-0.0021729   0.0026992   0.0036737    -0.10514     -0.5969    0.060515   -0.017764
-0.016464    -0.01484   -0.020037     -0.1597    -0.56571    0.032582   -0.040825
-0.031406   -0.028157    -0.04115    -0.19966    -0.54623  0.00042559    -0.06681
-0.043099    -0.03173   -0.054467    -0.21525     -0.5092   -0.021661   -0.086623
-0.04927   -0.026858   -0.062262    -0.20875    -0.43904   -0.026209   -0.093769
-0.048296   -0.016464   -0.064861    -0.19186    -0.35069   -0.020362   -0.088247
-0.042774  -0.0073698   -0.064536    -0.18049    -0.26689   -0.018088   -0.072656
-0.035628  -0.0031473   -0.064211    -0.18244    -0.19998   -0.033354   -0.055766
-0.030756  -0.0057458   -0.064536    -0.19056    -0.14476   -0.071032   -0.045697
-0.027508   -0.013216    -0.06551    -0.19283   -0.088247    -0.11845   -0.046671
-0.026533   -0.020362    -0.06616    -0.18439   -0.031081    -0.15841    -0.05804
-0.028157   -0.028807   -0.066485    -0.16555    0.013743    -0.18082    -0.07428
-0.034978   -0.039201   -0.064861    -0.13924    0.041676    -0.18829   -0.089546
-0.048296   -0.047321   -0.060963    -0.10709    0.056292    -0.19283    -0.10254
-0.061288   -0.050244   -0.054142   -0.071357    0.067986    -0.20031    -0.11293
-0.068758   -0.051544    -0.04927   -0.039201    0.090072    -0.21005    -0.12073
-0.070707   -0.052193   -0.045047   -0.015815     0.12613    -0.21135    -0.12463
-0.064536   -0.053168   -0.042124  0.00075039     0.16283    -0.19738    -0.12527
-0.054792   -0.052843    -0.04115    0.011469     0.17874     -0.1714    -0.12235
-0.051219   -0.054142   -0.045047    0.016991     0.15893    -0.14314    -0.11651
-0.056741   -0.057715   -0.054792     0.01894    0.099817    -0.12527    -0.10838
-0.068109   -0.059989   -0.067459    0.017965    0.012119    -0.11845   -0.096692
-0.079477   -0.056741   -0.081101   0.0095202   -0.091495    -0.11586   -0.083375
-0.082725   -0.047321   -0.090845  -0.0057458    -0.19413    -0.10871   -0.070707
-0.079477   -0.038227   -0.094418   -0.029782    -0.28118   -0.098641   -0.061288
-0.076229   -0.035628   -0.093119   -0.063886    -0.35199   -0.093444   -0.058689
-0.082725     -0.0405   -0.092469    -0.10838    -0.40981    -0.10254   -0.062912
-0.097991   -0.051219   -0.096042    -0.15678    -0.44748    -0.13567   -0.075904
-0.11748   -0.065835    -0.10319    -0.20258     -0.4582    -0.19673   -0.090196
-0.13729   -0.076879    -0.11196    -0.23928    -0.44651    -0.28118    -0.10644
-0.15451     -0.0837    -0.11813    -0.26657    -0.42735    -0.37765     -0.1282
-0.1662   -0.088247    -0.12495    -0.29255     -0.4176    -0.47184    -0.15516
-0.17367   -0.097666    -0.13534    -0.32308    -0.42215    -0.55207    -0.18439
-0.17887    -0.10903    -0.14639    -0.35946      -0.428    -0.60859    -0.20972
-0.17757    -0.11553    -0.15158    -0.39064    -0.40331    -0.62938    -0.22986
-0.16555    -0.11163    -0.14899    -0.40039    -0.31594    -0.60664    -0.24058
-0.14314   -0.093444    -0.13599    -0.37213    -0.15646     -0.5394    -0.23181
-0.11196   -0.059339    -0.10774    -0.29547    0.074482    -0.43644    -0.19511
-0.075904   -0.019063    -0.06551    -0.16588      0.3746    -0.30717    -0.13437
-0.039201     0.01764   -0.011592   0.0059473     0.74943    -0.16035   -0.061937
-0.00054884    0.042975    0.044599     0.19336      1.1766  -0.0099683   0.0085458
0.040377    0.056292    0.092021     0.36096      1.5679     0.14334    0.067011
0.084226    0.067986     0.12807     0.48926      1.7979     0.31386     0.12125
0.13035    0.082927     0.15763     0.57306      1.7943     0.52239     0.18524
0.17745     0.10534     0.18751     0.62113      1.5637     0.76632     0.26839
0.21935     0.13425     0.21707      0.6416      1.1697      1.0112     0.36096
0.25053     0.16348     0.24078     0.63315     0.67765      1.1973     0.43827
0.26417     0.18167     0.24533      0.5932     0.13944      1.2665     0.47659
0.25605     0.18427     0.22974     0.52434    -0.38837      1.1915      0.4623
0.22909     0.17192     0.20051     0.43632     -0.8444     0.99369     0.39831
0.19206     0.15049      0.1651     0.34635     -1.1734     0.72734     0.30542
0.15211     0.12645      0.1284     0.26514     -1.3388     0.45548     0.20473
0.11443     0.10209    0.094945     0.19596      -1.329     0.22714     0.11703
0.087474    0.079679    0.069934     0.14107     -1.1549    0.064737    0.052395
0.072533    0.059865    0.055318     0.10014    -0.84765   -0.026858    0.012443
0.063438    0.045899    0.047198    0.067661     -0.4647    -0.05804  -0.0099683
0.053369    0.037454    0.041027    0.038753   -0.074605   -0.047321   -0.020362
0.039727    0.033231    0.034206    0.011469     0.26027  -0.0054209   -0.021986
0.026735    0.031282    0.024786   -0.010293       0.512    0.066037   -0.017439
0.021863    0.028684    0.013093   -0.021661     0.69162      0.1651  -0.0050961
0.030957    0.025111   0.0020496   -0.022636     0.81927     0.28788    0.016341
0.048172    0.024137  -0.0037969   -0.014191     0.90956     0.41553    0.045249
0.062789    0.027709  0.00010078   0.0052977     0.95374     0.51005    0.071558
0.064737    0.032582    0.014717    0.031932     0.93262     0.53214    0.086175
0.055318    0.038428    0.033881    0.060515     0.83745       0.461    0.088448
0.042326    0.040377    0.047523    0.080978      0.6783     0.31354     0.07708
0.029009    0.038428     0.05207    0.086175     0.49413       0.131     0.05272
0.016341    0.034855    0.049472    0.076755     0.32686   -0.030431    0.021863
0.0049729    0.029983    0.039727     0.06084     0.20863    -0.13502  -0.0093186
-0.0054209    0.022837     0.02706    0.041676     0.15763    -0.17562   -0.034978
-0.010943    0.013418    0.011794     0.01894     0.18069    -0.16718   -0.050894
-0.014191 -0.00087364   0.0017248  -0.0067202      0.2541    -0.13469   -0.054792
-0.015165   -0.016789  -0.0073698   -0.034004     0.32913    -0.10384    -0.04992
-0.019063   -0.029132   -0.017439   -0.058365     0.35057    -0.09117   -0.041475
-0.03173   -0.036278   -0.026858   -0.080127     0.28885    -0.10416   -0.040825
-0.051868   -0.039851   -0.037902    -0.10124     0.15341    -0.14152   -0.054792
-0.072656   -0.042124    -0.04862    -0.11618   -0.010293    -0.19121    -0.07428
-0.087597   -0.042124   -0.059014     -0.1217    -0.15386    -0.23733   -0.087922
-0.094418   -0.038551   -0.065186    -0.11423    -0.25065    -0.26787   -0.092145
-0.093119   -0.035303   -0.063561   -0.094743    -0.30847    -0.27891   -0.090845
-0.0837   -0.031081   -0.055441   -0.070382    -0.35329    -0.27436   -0.084999
-0.072331   -0.026209   -0.043423   -0.048945    -0.39681     -0.2565   -0.080127
-0.060963   -0.021661   -0.033354   -0.036278    -0.42735    -0.23344   -0.078178
-0.050894    -0.01484   -0.027183   -0.031406     -0.4176    -0.20648   -0.082076
-0.041475  -0.0047713   -0.026209   -0.031406    -0.33672    -0.17659   -0.087597
-0.033679    0.003024   -0.028157    -0.03303    -0.20648    -0.14119   -0.081751
-0.028482   0.0049729   -0.027183   -0.039526    -0.11196    -0.10416   -0.060963
-0.023285    0.003024   -0.023935   -0.053817    -0.13242    -0.07428   -0.032055
-0.01614 -0.00022403   -0.024585   -0.068109    -0.27664   -0.055116  -0.0024977
-0.0076946  -0.0028225   -0.030756   -0.077203    -0.49296   -0.050244    0.023487
-0.0024977  -0.0050961   -0.037252   -0.079802    -0.70668   -0.054792    0.039727
-0.00087364  -0.0057458   -0.040175   -0.079477    -0.86486   -0.064536    0.043625
-0.0031473  -0.0034721   -0.038551   -0.078178    -0.94509   -0.073631    0.039078
-0.0044465 -0.00022403   -0.035628   -0.080451    -0.93957    -0.08305     0.03583
-0.0060706  -0.0015233   -0.036278   -0.086948    -0.84862   -0.091495    0.037778
-0.012892  -0.0093186   -0.044073    -0.10254    -0.68557   -0.098316    0.041676
-0.02426   -0.023285    -0.05739    -0.12755    -0.47867    -0.10059    0.038753
-0.036927   -0.042124   -0.072331     -0.1623    -0.26559    -0.10319    0.029009
-0.04862   -0.060963   -0.084674    -0.19868   -0.085973    -0.11618    0.013093
-0.060638   -0.070707   -0.086623    -0.22402    0.030633    -0.13957  -0.0047713
-0.066485   -0.070382   -0.073955    -0.22954     0.07708    -0.16393   -0.017764
-0.067134   -0.061613   -0.052843     -0.2107    0.067011    -0.18244   -0.023935
-0.065835    -0.04927   -0.031406    -0.17984  0.00075039    -0.19998   -0.028482
-0.069083   -0.043423   -0.019388    -0.15256    -0.13989    -0.23214   -0.036927
-0.074605   -0.045047   -0.022961    -0.13859    -0.36563    -0.28735   -0.050569
-0.080127   -0.050894   -0.038876    -0.12982    -0.65991    -0.35654   -0.067134
-0.081751   -0.055116   -0.052518    -0.11488    -0.96393     -0.4176   -0.078827
-0.075255   -0.053168   -0.052193   -0.089871     -1.1806    -0.44683   -0.084349
-0.059989   -0.044073   -0.037577   -0.060638     -1.1994    -0.43352   -0.081101
-0.038227   -0.033354   -0.018088   -0.032705    -0.96815     -0.3796   -0.070707
-0.01549   -0.024909  -0.0024977   -0.007045    -0.54493     -0.2997   -0.055766
0.0014   -0.016789   0.0072465    0.022512   -0.077853    -0.20972   -0.041799
0.0075714   -0.008669    0.016666    0.064737     0.27651      -0.123   -0.031081
0.0075714  -0.0037969    0.029333     0.11801     0.43697   -0.045372   -0.026209
0.0091954  -0.0011985    0.040377     0.17355     0.43112    0.031932   -0.021337
0.01764   0.0010752    0.045574      0.2161     0.38532     0.12255  -0.0063954
0.029983   0.0056225     0.04395     0.23461     0.43372     0.22292    0.019914
0.041676    0.011794    0.043625     0.22617     0.59645     0.30834    0.049796
0.05142    0.018615    0.045249     0.20018     0.77347     0.35057    0.071558
0.057267    0.019914    0.047523     0.16868     0.84785     0.34147    0.081952
0.057592    0.017965    0.050121     0.14561     0.77314     0.29665    0.082927
0.053044    0.015042     0.05207     0.14139      0.5945      0.2489    0.080328
0.047523    0.016666    0.057592     0.15114     0.39149      0.2161    0.080328
0.0433    0.022837    0.065712     0.15991     0.20765     0.19531    0.087799
0.044924    0.032906    0.075781     0.15601    0.038753       0.169    0.094295
0.050121    0.041351    0.083251      0.1349    -0.13599      0.1232    0.092346
0.051096    0.044924    0.083251     0.10079    -0.31886    0.050121    0.077405
0.041027    0.038103    0.073832    0.062789    -0.47639   -0.040175     0.05207
0.025111    0.023812    0.057592    0.024786    -0.55207    -0.12625    0.026085
0.0091954   0.0085458    0.039402  -0.0076946     -0.5118    -0.19024    0.008221
-0.00087364  -0.0021729    0.022837   -0.032055     -0.3442    -0.22564   0.0036737
-0.00054884  -0.0041217    0.011144   -0.046671   -0.076229    -0.23571    0.010819
0.0075714  0.00042559    0.003024   -0.055116     0.23786    -0.22921    0.024137
0.021538    0.011469  0.00010078   -0.055766     0.51687    -0.21297    0.037778
0.036804    0.025761   0.0043233   -0.043423     0.69844    -0.18277    0.046873
0.055643    0.040052    0.019914   -0.012242     0.76535    -0.13404    0.056617
0.07708    0.051745    0.045899    0.036479     0.74099   -0.067459    0.073832
0.098517    0.060515    0.072208    0.089748     0.65589   0.0049729    0.098193
0.11833    0.067011    0.091696     0.13912     0.55487    0.070584      0.1258
0.1336    0.072858     0.10112      0.1742     0.47887     0.11638     0.14594
0.14139    0.081303     0.10306     0.19563     0.44801     0.13912     0.15731
0.14107    0.091047     0.10047     0.20928     0.45873     0.14561     0.15373
0.13392     0.10177    0.096569     0.22682     0.48634     0.15016     0.14107
0.1206     0.11118    0.093321      0.2502     0.49348     0.16283     0.12613
0.10306     0.11638    0.090722     0.26514     0.44574     0.18459     0.11638
0.082277     0.11443    0.083901     0.25832     0.34245     0.20993     0.11086
0.06084     0.10306    0.071558     0.22162     0.21707     0.22909     0.10664
0.040702    0.083901    0.053369     0.15796     0.11248     0.23331    0.095919
0.024461    0.057267    0.032257    0.082602    0.059216     0.21123    0.074482
0.012443    0.029333    0.015042    0.016991    0.061814     0.16315    0.041351
0.0023744    0.010495    0.003024   -0.022311     0.10729     0.10501   0.0023744
-0.0083442   0.0017248  -0.0083442   -0.035953     0.16315    0.053694   -0.034654
-0.021986  0.00010078   -0.020687   -0.035953     0.18881    0.019264   -0.062262
-0.034654   0.0020496   -0.035953   -0.034978     0.15633  -0.0015233   -0.075579
-0.046022   0.0039985   -0.050569   -0.043423    0.071234    -0.01484   -0.077203
-0.053492   0.0059473   -0.065835    -0.06616   -0.037577   -0.022636   -0.074605
-0.057065   0.0069217   -0.077853    -0.10189     -0.1295    -0.02361    -0.07428
-0.056741   0.0062721   -0.084024    -0.14281    -0.16847    -0.01614   -0.075255
-0.054792    0.003024   -0.081426    -0.17432    -0.14639   0.0033489   -0.078503
-0.051219  0.00075039   -0.068434    -0.18536   -0.079477    0.029333   -0.083375
-0.047971 -0.00022403   -0.052193    -0.17237   0.0049729     0.05207   -0.087272
-0.043423  0.00010078   -0.036927    -0.14216    0.082927    0.063438    -0.09117
-0.037902  -0.0028225   -0.027833    -0.11033      0.1362    0.057917   -0.094093
-0.03303  -0.0067202   -0.027508   -0.095717     0.15276     0.03583   -0.095393
-0.030756   -0.010618   -0.034329    -0.10709     0.13392   0.0052977    -0.09117
-0.029457  -0.0099683   -0.044398    -0.13664    0.098517   -0.023935   -0.083375
-0.027833  -0.0054209   -0.055116     -0.1636    0.076106   -0.042774   -0.077203
-0.025234  -0.0021729   -0.062587    -0.16815    0.080978   -0.048296   -0.075255
-0.024909  -0.0044465   -0.068434    -0.14314     0.10306   -0.047971   -0.076229
-0.025884  -0.0089938   -0.072006   -0.097991     0.12418   -0.044073   -0.077203
-0.029457   -0.015165   -0.070058   -0.051868     0.12223     -0.0405   -0.076554
-0.03238   -0.023285   -0.061937    -0.02361    0.080653   -0.036927   -0.075255
-0.032055   -0.030106   -0.053817   -0.023935   -0.014516   -0.034004    -0.07493
-0.027183   -0.034978   -0.051219   -0.054142    -0.16198   -0.036278   -0.073631
-0.02361   -0.037577   -0.053817    -0.10156      -0.339   -0.044723   -0.072331
-0.021661   -0.038876   -0.061613    -0.15483     -0.5092   -0.058365   -0.069733
-0.021337   -0.042449   -0.072331    -0.20388    -0.64042    -0.07493   -0.064861
-0.024909   -0.052518   -0.085324     -0.2435    -0.71415   -0.094093   -0.060313
-0.035303   -0.069083   -0.097341    -0.26559    -0.73526    -0.12008   -0.058365
-0.050244   -0.085973    -0.10481    -0.26137    -0.72487    -0.15548   -0.056091
-0.06681    -0.10091    -0.10449    -0.22174    -0.71253    -0.20485    -0.05804
-0.080127    -0.10449   -0.093444    -0.14314    -0.71642    -0.26592   -0.061613
-0.084349   -0.096367   -0.068434   -0.035303    -0.72649    -0.32178   -0.064211
-0.073631    -0.07493   -0.034329    0.079354    -0.69109     -0.3442   -0.059664
-0.047646   -0.045697   0.0046481     0.17745    -0.55597    -0.31789    -0.04115
-0.010943    -0.01484    0.041351     0.24566    -0.33185    -0.24188  -0.0067202
0.030633    0.013743    0.074157     0.28593   -0.085324    -0.13015    0.039727
0.066037    0.038103    0.099492      0.3025     0.10144   -0.012892    0.089423
0.082927    0.053694     0.11151     0.29178     0.16185    0.075456      0.1284
0.079029    0.054668     0.10371     0.25345    0.074806     0.11054     0.14302
0.06084    0.041676    0.083901     0.19758    -0.13307    0.091047     0.13132
0.039078    0.021863    0.062139     0.14659    -0.39454    0.039402     0.10014
0.021213    0.003024    0.044275     0.11963    -0.62353   -0.017439    0.066037
0.010495  -0.0076946    0.033231     0.12158    -0.74338   -0.058365    0.041676
0.0043233  -0.0067202    0.028034     0.14724    -0.69629   -0.071357    0.034206
0.0023744   0.0065969    0.028684     0.18654    -0.47217   -0.047646    0.042326
0.0039985    0.023812    0.034855     0.22941    -0.12495   0.0072465    0.055643
0.0075714    0.039402    0.042326     0.26514     0.22747    0.073507    0.063438
0.014068     0.05272    0.044275     0.27684     0.47594     0.12645    0.055318
0.023162    0.063438    0.038428     0.25443     0.59352     0.15406     0.03518
0.028359    0.071234    0.026085     0.19856     0.63575     0.16121    0.011144
0.024137     0.06961    0.008221     0.12515     0.69292     0.15958  -0.0073698
0.01017    0.059216   -0.014191     0.05272     0.79231     0.15666   -0.016464
-0.0099683    0.044924    -0.03238  -0.0024977     0.87318     0.15828    -0.01614
-0.025559    0.030633   -0.038876   -0.032055     0.85759     0.16575  -0.0099683
-0.028157     0.01894   -0.032705   -0.040825     0.71922      0.1781   0.0033489
-0.016789    0.012443   -0.020362   -0.041475     0.50388     0.18719    0.020888
0.0026992   0.0075714   -0.010618   -0.046347     0.29633     0.18784    0.040377
0.01764   0.0052977  -0.0073698   -0.058689     0.15211     0.17972    0.051096
0.01894   0.0020496   -0.014516   -0.072656    0.079354     0.15991    0.045899
0.0095202  -0.0031473   -0.029132   -0.081751    0.055968      0.1284    0.028034
-0.0076946   -0.012567   -0.045372   -0.083375    0.059541    0.087149   0.0049729
-0.025559   -0.021986   -0.052843   -0.079152    0.067661    0.042975   -0.015815
-0.04115   -0.026209   -0.049595   -0.075579    0.058566  0.00042559   -0.028807
-0.04992   -0.022961   -0.042124   -0.079152     0.01764   -0.036278   -0.033679
-0.050244   -0.011592   -0.036278   -0.090845   -0.050894   -0.063886   -0.034654
-0.044398  0.00075039   -0.036278    -0.10221    -0.12657   -0.080127    -0.03303
-0.037252    0.012443   -0.039201    -0.10644    -0.18049   -0.085324   -0.029457
-0.032705    0.019589   -0.041799   -0.098316    -0.21232     -0.0837   -0.027183
-0.031081    0.022188    -0.04115   -0.080776    -0.24968   -0.086948   -0.027508
-0.027508    0.022188   -0.039201   -0.061288    -0.32925    -0.10286   -0.025884
-0.020362    0.019589   -0.039526   -0.053168    -0.47704    -0.13112   -0.021337
-0.013866    0.017965   -0.039851   -0.067134    -0.68135    -0.16977   -0.017764
-0.013866     0.01894   -0.036927    -0.10481    -0.90449    -0.21265   -0.019063
-0.020362    0.019589   -0.029782    -0.15548     -1.0766     -0.2526   -0.024585
-0.031081     0.01894   -0.021986    -0.19868     -1.1237    -0.28378   -0.032055
-0.042449    0.015042   -0.019388    -0.21914     -1.0334    -0.30392   -0.044723
-0.051868    0.009845   -0.022636    -0.21817    -0.88078    -0.30652   -0.059989
-0.056091   0.0052977   -0.028482    -0.20648     -0.7632     -0.2906   -0.072006
-0.055441   0.0020496   -0.038551    -0.19413    -0.72942    -0.25845   -0.077853
-0.054142  -0.0011985   -0.052843    -0.18731    -0.75378    -0.21947   -0.082725
-0.056416  -0.0083442   -0.066485    -0.18731    -0.77651    -0.18504   -0.090196
-0.063561   -0.019388   -0.075579    -0.18796    -0.73884    -0.15711   -0.095393
-0.073955   -0.032705   -0.075255    -0.18049    -0.59495    -0.12235    -0.09182
-0.075904   -0.044073   -0.067134    -0.15386    -0.28573   -0.058689   -0.076554
-0.064536   -0.047646   -0.053817   -0.098316     0.21415    0.047523   -0.052193
-0.041475   -0.039201   -0.036602   -0.017764     0.82641     0.18881   -0.025884
-0.018088   -0.021986   -0.022636     0.06084      1.3977     0.33205   -0.008669
-0.0057458  -0.0037969   -0.014516     0.10956      1.7979     0.43664  -0.0060706
-0.0080194    0.010819   -0.015165     0.11866      1.9999     0.48731   -0.017439
-0.015815    0.021538   -0.020362     0.10079       2.062     0.49706   -0.029132
-0.019063     0.02706   -0.019388    0.088124      2.0461     0.49121   -0.028157
-0.0057458    0.031282  -0.0067202     0.10339      1.9701     0.48861  -0.0044465
0.024461    0.038753    0.017965     0.14984      1.8106     0.48049    0.040702
0.065712    0.054668    0.049472      0.2122       1.555     0.44249    0.093321
0.10631     0.07773    0.082602     0.26937      1.2399     0.36031     0.13555
0.13782     0.10014     0.11281     0.30607     0.94886     0.24663     0.15796
0.15666     0.11508     0.13522     0.31776     0.74651     0.14172     0.16575
0.16315     0.11963     0.14756      0.3038     0.60814    0.080653     0.16998
0.16153     0.11606     0.14756     0.26514     0.43794    0.072858     0.17712
0.15471     0.10566      0.1336       0.207     0.15796    0.097543     0.18362
0.14561     0.08585     0.10566     0.13522    -0.22044      0.1232     0.18102
0.1362    0.062139    0.075781    0.059541    -0.61638     0.12418     0.16023
0.1271    0.042001    0.049796  -0.0034721    -0.94444     0.09397     0.12418
0.11508    0.025436    0.027709   -0.048296     -1.1422    0.037454    0.081303
0.097218    0.015042    0.011794   -0.071682     -1.1874   -0.034978    0.039402
0.074482   0.0085458   0.0023744   -0.076879     -1.0926    -0.10903   0.0036737
0.057592   0.0059473 -0.00087364   -0.065186    -0.89247     -0.1636   -0.020037
0.051096   0.0059473   0.0020496   -0.039201    -0.64009    -0.19089   -0.030756
0.049472   0.0075714   0.0069217  -0.0080194    -0.41663    -0.19316   -0.028482
0.047523   0.0069217    0.008221    0.016666    -0.27664    -0.18179    -0.01549
0.037778   0.0033489   0.0039985    0.027709    -0.21817    -0.16912  -0.0015233
0.019914  -0.0024977  -0.0031473    0.029009    -0.19868    -0.16653   0.0056225
-0.0041217   -0.013216   -0.015815    0.021538    -0.17465    -0.18179  -0.0015233
-0.029457   -0.029782   -0.036278    0.009845    -0.12105    -0.20908    -0.02426
-0.050244   -0.047971    -0.06551  0.00075039    -0.03303    -0.23246   -0.055116
-0.064536   -0.061613   -0.093119  0.00010078    0.053369    -0.24156   -0.084024
-0.071357    -0.06616    -0.10806    0.011144    0.080653    -0.23376    -0.10026
-0.070058   -0.065186    -0.10254    0.032906     0.01829    -0.20648   -0.097991
-0.060638   -0.060963   -0.079152    0.060515    -0.11845    -0.15678   -0.081751
-0.044073    -0.04992    -0.04862    0.081952    -0.28053   -0.096042   -0.059339
-0.022636   -0.035953   -0.021986    0.088448    -0.40396   -0.038876   -0.034978
-0.0018481   -0.020687  -0.0073698    0.081627    -0.43806    0.003024   -0.010293
0.016341   -0.008669  0.00042559    0.076106    -0.37245    0.030633    0.015367
0.029658  -0.0028225   0.0088706      0.0865       -0.25    0.056942    0.039727
0.041676  -0.0015233    0.022512     0.11313    -0.14541    0.088773    0.061489
0.046873  -0.0034721    0.038753     0.14302    -0.12398     0.10924    0.075781
0.04395  -0.0093186     0.05272     0.15309    -0.20388    0.095594    0.076755
0.033556   -0.018413    0.059541     0.13522    -0.34809    0.040377    0.059216
0.017965   -0.025559    0.061814     0.10144    -0.47802   -0.043748    0.032906
0.0020496   -0.030756    0.064088    0.074157    -0.51797     -0.1308   0.0075714
-0.012567   -0.033679    0.067661    0.067661    -0.43969    -0.19219  -0.0093186
-0.02426   -0.036602    0.071234    0.078055    -0.26137    -0.22109   -0.016789
-0.034978    -0.04115    0.067986    0.083576   -0.037252    -0.22467   -0.018088
-0.048296   -0.046996    0.058241    0.067336     0.17387    -0.21492   -0.019712
-0.065835    -0.04927    0.039727    0.029658     0.33465    -0.20355   -0.028807
-0.083375    -0.04862    0.013418    -0.01614     0.45321    -0.19316   -0.047646
-0.095717   -0.045047   -0.015815   -0.052843     0.55097    -0.18049   -0.071032
-0.10059   -0.043099   -0.039201   -0.071032     0.62081    -0.16588   -0.093119
-0.09994   -0.046671   -0.057065   -0.073955     0.61853    -0.15873    -0.11066
-0.097666   -0.056091   -0.070058   -0.071357     0.51265     -0.1636    -0.12625
-0.097666   -0.069408   -0.081426   -0.068109     0.31484    -0.16685    -0.13632
-0.097341   -0.081426   -0.087597   -0.065835    0.091047    -0.14606    -0.13697
-0.09117   -0.088247   -0.084674   -0.059664   -0.076554   -0.086623     -0.1243
-0.076879   -0.084349   -0.071357   -0.045047    -0.14152   0.0026992    -0.10059
-0.05739   -0.069083   -0.045697   -0.018088    -0.11488     0.10501   -0.067134
-0.035303   -0.045697  -0.0083442    0.019264   -0.046671     0.20116   -0.027833
-0.012242   -0.019063     0.03518    0.054993   -0.017439     0.27489    0.013093
0.009845   0.0091954     0.07773    0.075131    -0.10774     0.32036    0.052395
0.030957     0.03583     0.11086    0.075456    -0.35491     0.32978      0.0865
0.058566    0.059865     0.13165    0.066686    -0.70116     0.30639     0.11768
0.092996    0.079354     0.13977    0.064413    -0.99186      0.2619     0.14854
0.13262    0.092996     0.14496    0.081952     -1.0649      0.2174     0.18427
0.169     0.10306     0.15373     0.12418    -0.86519     0.19336     0.22357
0.19661     0.11054      0.1651     0.17712    -0.48744     0.18849      0.2593
0.20765     0.11508     0.16868     0.21772    -0.11196     0.19174     0.27944
0.20083     0.11541     0.15991     0.22227     0.10177     0.18394     0.27911
0.18037     0.10924     0.13912     0.18329    0.097543     0.14984      0.2593
0.15503    0.095594     0.10859     0.11281   -0.078827    0.083251     0.22584
0.13002    0.079354    0.073832    0.028359    -0.32243  -0.0028225     0.18232
0.10436    0.063438    0.038103   -0.048296    -0.53356   -0.095068     0.13392
0.074157    0.049796    0.008221    -0.10384    -0.65471    -0.17562    0.084551
0.042975    0.038428   -0.012242     -0.1334    -0.67777    -0.23506    0.040052
0.014392    0.030957   -0.023935    -0.13957    -0.62775    -0.26429   0.0039985
-0.0080194     0.02706   -0.028807     -0.1295    -0.53291    -0.26657   -0.021012
-0.022311    0.026085   -0.029782    -0.11228    -0.41825    -0.24838   -0.032705
-0.026858     0.02641   -0.028157   -0.090521    -0.30814    -0.21687   -0.032055
-0.025234     0.02641   -0.024585   -0.071682    -0.21882    -0.18147   -0.023935
-0.021337    0.024137   -0.024909   -0.059989    -0.15256    -0.15223   -0.014516
-0.019388    0.019914   -0.030106   -0.059339    -0.10774    -0.13794  -0.0096434
-0.020687    0.016991   -0.038876    -0.07428   -0.062912    -0.13697  -0.0099683
-0.026533    0.016016   -0.043423   -0.097341    0.048172    -0.13534   -0.014516
-0.038227    0.019264   -0.040175    -0.11521     0.30282    -0.11228   -0.020037
-0.050894    0.024137   -0.029782    -0.11358     0.67895   -0.067459   -0.026533
-0.061288    0.029658   -0.019712   -0.093119      1.0349   -0.022311   -0.034329
-0.06616     0.03453   -0.011592    -0.06616      1.2142 -0.00054884   -0.043099
-0.064861    0.037454  -0.0054209   -0.047646      1.1512    -0.01549   -0.051868
-0.060638     0.03453  -0.0047713   -0.041475     0.89852   -0.060963   -0.057715
-0.062912    0.028034   -0.011917   -0.044073     0.58021    -0.11618   -0.059989
-0.070382    0.020888    -0.02426   -0.041475     0.32946    -0.15061   -0.059664
-0.078503    0.014717   -0.036927   -0.026209     0.22552    -0.14834    -0.05804
-0.0824    0.013093   -0.043099   0.0023744     0.26807    -0.11066   -0.053492
-0.080776    0.013093   -0.039851    0.035505     0.37818   -0.050894   -0.046347
-0.070058    0.010495   -0.029457    0.057267     0.46587    0.017965   -0.038227
-0.051219   0.0017248   -0.020362    0.059216     0.46523    0.083576   -0.030106
-0.031081   -0.014191   -0.018413    0.037129     0.37038     0.13002   -0.017764
-0.018413   -0.030756   -0.026533  -0.0041217     0.20733     0.14626  -0.0018481
-0.014516   -0.041475   -0.040825   -0.054142    0.019264     0.13327   0.0088706
-0.015815   -0.042774   -0.054467    -0.10189    -0.14184     0.10631     0.01017
-0.016789   -0.038551    -0.06551    -0.13404    -0.22856    0.084551   0.0062721
-0.016464   -0.031081   -0.073955    -0.14606    -0.21849    0.084226      0.0014
-0.017114   -0.019712   -0.077528    -0.14346    -0.12203     0.11021      0.0014
-0.019712  -0.0083442   -0.077203    -0.13275   0.0062721     0.15114   0.0052977
-0.025234   0.0023744   -0.072981    -0.11943     0.10047     0.17939   0.0095202
-0.030756     0.01017   -0.064211    -0.10481     0.13262     0.17647    0.009845
-0.032055    0.013093   -0.056741   -0.089221      0.1323     0.14009      0.0014
-0.031406    0.011469    -0.04992    -0.07428     0.14237    0.087149   -0.013866
-0.029457   0.0059473   -0.044398   -0.064211      0.1703    0.034206   -0.034654
-0.027508  -0.0015233   -0.036927   -0.063561     0.18849  -0.0034721   -0.059664
-0.02361  -0.0089938   -0.028807   -0.070058     0.17712   -0.023285   -0.079152
-0.017439   -0.017114   -0.022311   -0.075904     0.14139    -0.03238   -0.088896
-0.010618   -0.026533   -0.021337   -0.076229    0.093321   -0.044073   -0.086948
-0.0067202   -0.034004    -0.02426   -0.072981    0.044599   -0.064536   -0.080776
-0.0089938   -0.038227   -0.032055   -0.065835   0.0091954    -0.09117    -0.07493
-0.014516   -0.038876   -0.040175   -0.054142   0.0043233    -0.11586   -0.072656
-0.019712   -0.032055   -0.042124   -0.035303    0.034855    -0.12885   -0.071357
-0.020687   -0.022636   -0.035953   -0.013866    0.079354     -0.1321   -0.068758
-0.016789    -0.01484   -0.025884  -0.0024977    0.098517    -0.13177   -0.062912
-0.0073698  -0.0093186   -0.019388   -0.007045    0.078704    -0.12657   -0.055441
0.0049729   -0.007045   -0.018088   -0.019388    0.059541    -0.11358    -0.04992
0.018615  -0.0041217   -0.019063   -0.023285     0.10079   -0.088896   -0.045047
0.031282      0.0014   -0.019063  -0.0083442     0.22487   -0.059014   -0.038876
0.038753    0.011144   -0.015165    0.025111      0.3889    -0.03303   -0.028482
0.040052    0.022512   -0.010293    0.067336     0.52564    -0.01484   -0.017764
0.035505     0.03453  -0.0044465     0.10339      0.5945  -0.0021729   -0.012567
0.030308    0.045899   0.0036737     0.12743      0.5971    0.012768    -0.01484
0.029009    0.056292    0.015367     0.13814     0.55422    0.038753   -0.018088
0.028684    0.065387    0.029009     0.13814     0.48147    0.080003   -0.021012
0.026735    0.073832    0.040377     0.13295     0.37395     0.12613   -0.020037
0.026085    0.079679    0.049472      0.1297     0.21415      0.1677   -0.011267
0.026735    0.079354    0.051745     0.12678   0.0023744     0.19239      0.0014
0.024461    0.072208    0.043625     0.11476    -0.23571     0.18589    0.010819
0.013743    0.058241    0.023812     0.08585    -0.45333     0.13847   0.0072465
-0.0028225    0.041027  -0.0031473    0.038753    -0.60859    0.055318   -0.013541
-0.019388    0.021863   -0.030106   -0.013216    -0.68752   -0.044723   -0.044723
-0.03238   0.0052977   -0.052843   -0.059014     -0.7174    -0.13502   -0.073955
-0.036927  -0.0050961   -0.068758   -0.094743     -0.7515    -0.19381   -0.089221
-0.037252   -0.012567   -0.076554    -0.12008    -0.81744     -0.2146   -0.087272
-0.035953    -0.01614   -0.077853    -0.13047    -0.86096    -0.20193   -0.079477
-0.034978   -0.022311   -0.069083    -0.12885    -0.79633    -0.16815    -0.07493
-0.03238   -0.031081   -0.055441    -0.11586    -0.59235     -0.1282   -0.078178
-0.031081   -0.039526     -0.0405   -0.093769    -0.31626    -0.09182   -0.085324
-0.030756   -0.044723   -0.025234    -0.06681   -0.093769   -0.063237    -0.09182
-0.031406   -0.044073   -0.010943   -0.038551  -0.0044465   -0.035953   -0.095068
-0.028482   -0.037252 -0.00054884   -0.011267   0.0039985  -0.0024977   -0.090521
-0.022961   -0.027508      0.0014    0.015042     0.10371    0.049472   -0.078503
-0.019712   -0.020362  -0.0034721    0.041027     0.40643     0.12353   -0.059339
-0.022311   -0.020362   -0.013866    0.067336     0.82868     0.20798   -0.038551
-0.028157   -0.025234    -0.02426    0.093321      1.1493     0.28073   -0.021661
-0.03303   -0.027183    -0.03303     0.11313      1.1652     0.31744   -0.013216
-0.03303   -0.024585   -0.037902     0.11768     0.84265     0.30087   -0.013866
-0.030431    -0.01549   -0.038876     0.10989     0.33465     0.23721   -0.018738
-0.027183  -0.0011985    -0.03303    0.097868    -0.13404     0.15406   -0.019388
-0.022311    0.015042   -0.018738    0.096893    -0.39974    0.083251  -0.0060706
-0.013541    0.032582   0.0049729     0.11508    -0.43254    0.054668    0.021863
0.0065969    0.050771    0.034855     0.15373    -0.32503    0.071558    0.059216
0.040377     0.06896    0.067011     0.20376    -0.22239     0.11801    0.094945
0.080978    0.083251    0.090072     0.24468    -0.22239     0.16705     0.12288
0.11248    0.092346    0.097868     0.25962    -0.32471     0.19758     0.14009
0.12158    0.096893    0.094295     0.24436    -0.46307     0.19239     0.15146
0.11281    0.094945    0.087149     0.21058    -0.56279     0.14594     0.15828
0.098842    0.085525    0.082927      0.1716    -0.57968    0.068635     0.15991
0.087799    0.073182    0.078379     0.13555    -0.52024    -0.01549     0.15828
0.081952    0.061814    0.072858     0.10566     -0.4228   -0.078503     0.15958
0.080328    0.053044    0.064088    0.078379    -0.33672    -0.10026     0.16218
0.080328    0.042651    0.057592    0.052395    -0.29385   -0.086623     0.15958
0.078055    0.028684    0.048497     0.02706    -0.30457   -0.061288     0.14626
0.069934    0.013093     0.03518   0.0010752    -0.34842   -0.046671     0.12255
0.054993  -0.0018481    0.012119   -0.022961    -0.39162   -0.055441    0.093645
0.031932   -0.011592   -0.010293     -0.0405    -0.40428     -0.0837    0.065712
0.0049729    -0.01484   -0.022636   -0.049595    -0.39876    -0.11618     0.04395
-0.021337   -0.016789   -0.022961    -0.04862    -0.41078    -0.14216    0.031607
-0.0405   -0.019063   -0.012892   -0.040825    -0.45593    -0.15581    0.029983
-0.050894   -0.021337  -0.0011985   -0.035953    -0.52089    -0.16523    0.032906
-0.055116   -0.023285   0.0046481   -0.047646    -0.57838    -0.18309    0.029983
-0.059989   -0.025234 -0.00087364   -0.082725    -0.60307    -0.21655    0.014717
-0.072656   -0.031081    -0.01549    -0.13567    -0.58553    -0.26364   -0.014516
-0.092469   -0.046347   -0.038227    -0.19219    -0.53875    -0.31691   -0.053492
-0.11423   -0.070382   -0.064536    -0.23831    -0.48094    -0.36791   -0.092145
-0.13567   -0.097991   -0.089221    -0.26397    -0.40461    -0.40916     -0.1256
-0.15353    -0.12235    -0.10384    -0.26624    -0.29482    -0.43319    -0.14834
-0.16653    -0.13827    -0.10644     -0.2448    -0.14216    -0.43709    -0.16295
-0.17107    -0.14476    -0.10026    -0.20713    0.075781    -0.42215     -0.1649
-0.16588    -0.14119   -0.086298    -0.16003      0.3863     -0.3822    -0.15581
-0.15288    -0.12885   -0.069408    -0.10838     0.76665    -0.30944    -0.13794
-0.13275    -0.10806   -0.050569   -0.050569      1.1308     -0.2107    -0.11553
-0.10254   -0.081426   -0.026533    0.012443      1.3688    -0.10514   -0.088572
-0.062912   -0.053168   0.0033489    0.079679      1.4198   -0.011267   -0.055441
-0.019388   -0.027508    0.039078     0.14399      1.3062    0.068635   -0.014191
0.024461  -0.0037969    0.075781     0.19823      1.0931     0.13912    0.036154
0.068635    0.017316     0.11216     0.23981     0.86246     0.21188    0.092021
0.11281    0.042001     0.14464     0.27196     0.66271     0.29178     0.14951
0.15081    0.071883     0.16965     0.29568     0.48406     0.37038     0.19758
0.17582    0.099817     0.18362     0.30899     0.28821     0.43502     0.22844
0.17972     0.11541     0.18297     0.30282    0.063438     0.47594     0.23396
0.16575     0.11216      0.1664     0.26937    -0.16165     0.48699     0.21837
0.14367    0.093645     0.13977     0.21415    -0.34387     0.47075     0.18946
0.12515     0.06831     0.11183     0.15179    -0.45918     0.44054     0.15861
0.11216    0.045899    0.087799    0.096244    -0.50205     0.41033     0.13165
0.10501    0.035505    0.072858    0.058891    -0.48808     0.38142     0.11281
0.10014    0.039078    0.067011    0.040377    -0.44878     0.34017     0.10664
0.093645    0.051096    0.067336    0.036479    -0.41403     0.28106     0.10859
0.089748    0.065712    0.067661    0.041676    -0.39129     0.20733     0.11346
0.094945     0.07773    0.067661    0.057267    -0.35589     0.13165     0.11476
0.10826    0.086824    0.067336    0.080003    -0.27079    0.067011     0.11086
0.12158    0.092671    0.070259    0.099167    -0.11553    0.013743     0.10144
0.1284    0.093645    0.071883     0.10209    0.083901   -0.032705    0.086175
0.12353      0.0865    0.067661    0.084551     0.26547   -0.079152    0.060515
0.10501    0.068635     0.05142    0.048172     0.36356     -0.1204    0.028684
0.075781    0.046873    0.025111   0.0039985     0.34537    -0.15093  -0.0041217
0.039078    0.027709  -0.0037969   -0.037577     0.22032    -0.17432   -0.029457
0.0014    0.009845   -0.026858   -0.075579    0.029658    -0.19901    -0.04992
-0.029782  -0.0073698   -0.043423    -0.10838    -0.16393    -0.22856   -0.066485
-0.04927   -0.017114    -0.05739    -0.13242    -0.29093    -0.25487   -0.075904
-0.052193   -0.019388   -0.068434    -0.13989    -0.31106    -0.26494   -0.078827
-0.045697    -0.01549   -0.073631    -0.12787    -0.23603    -0.25552   -0.078827
-0.039201  -0.0099683   -0.072006    -0.10481    -0.11488    -0.23636   -0.078503
-0.042124  -0.0076946   -0.062262   -0.081101  -0.0024977    -0.21947   -0.082076
-0.051868  -0.0076946   -0.047971   -0.067134    0.064088    -0.20843   -0.089546
-0.060963  -0.0076946   -0.039526   -0.066485    0.067661    -0.20031    -0.10059
-0.06616  -0.0076946   -0.044073   -0.075579   0.0056225    -0.19381    -0.10968
-0.071357  -0.0099683   -0.059989   -0.090196    -0.10059    -0.18731    -0.11521
-0.078503   -0.015165   -0.079477    -0.10156    -0.20583    -0.18017    -0.11651
-0.086298   -0.022636    -0.09929    -0.10936    -0.22629    -0.16977    -0.11553
-0.093769   -0.030756    -0.11748    -0.12008   -0.084349    -0.15386    -0.11878
-0.10059   -0.043099     -0.1334    -0.13827     0.20635    -0.14119    -0.12852
-0.10903    -0.05804    -0.14801     -0.1675      0.5422    -0.13567    -0.13989
-0.11683   -0.075255    -0.15938    -0.20323     0.78061    -0.13924    -0.14899
-0.123   -0.089546    -0.16523    -0.24091     0.81537    -0.15451    -0.15223
-0.1269   -0.099615    -0.16588    -0.27956     0.62503    -0.18439    -0.15029
-0.13015    -0.10156    -0.16133    -0.31496     0.28236    -0.22402    -0.14736
-0.12495   -0.093769    -0.15353    -0.33607   -0.084024    -0.25747    -0.14087
-0.10936   -0.075904    -0.13242    -0.32536    -0.35232    -0.26527    -0.12463
-0.0824    -0.04927   -0.095393    -0.27664    -0.47574    -0.23084   -0.095068
-0.047971   -0.018738   -0.045047    -0.19706    -0.47996    -0.15646   -0.054467
-0.013216   0.0085458   0.0062721    -0.10936    -0.42507   -0.055441  -0.0096434
0.01894    0.031282    0.044924   -0.034978    -0.35426    0.050446    0.036154
0.051096    0.049147    0.065712    0.022837     -0.2919     0.15016    0.083901
0.083576    0.066037    0.073507    0.075131    -0.23376     0.24598     0.13295
0.11703    0.082602    0.075131     0.13749    -0.14249     0.34277     0.17939
0.14756     0.10209    0.081627      0.2187   0.0033489     0.43989     0.21967
0.17257     0.12255    0.099492     0.31711     0.17842     0.51979     0.25215
0.19076     0.14042     0.13165     0.41618     0.33693     0.55844     0.27359
0.19953     0.15049      0.1651     0.49933     0.46523      0.5435     0.27976
0.19369     0.15276     0.18687     0.55065     0.58183     0.48147     0.26677
0.1742     0.14789     0.18492     0.56267     0.68544     0.39474     0.23266
0.14432     0.13457     0.16023     0.53149     0.73709     0.30867     0.18557
0.10826     0.11768      0.1258     0.46198     0.68934     0.23689     0.13652
0.073182    0.096244    0.089423     0.36518     0.50485     0.17615    0.096893
0.044275    0.069934    0.058891     0.26027     0.18037     0.11638    0.071883
0.02706    0.042001    0.039402     0.16348     -0.2448     0.05142    0.059216
0.019589    0.016016    0.029333    0.084876    -0.69239   -0.017439    0.053694
0.01829  -0.0015233    0.029658    0.024137     -1.0822   -0.086948    0.046873
0.016991   -0.010943    0.037778    -0.02426     -1.3592    -0.15321     0.03518
0.013418   -0.012892    0.049796   -0.061613     -1.5008    -0.20908     0.01829
0.0026992   -0.011592    0.058566     -0.0824     -1.4986    -0.24513  -0.0034721
-0.0093186   -0.011917    0.055643   -0.084999     -1.3462    -0.25682   -0.028807
-0.021012   -0.016464    0.042001   -0.069733     -1.0354    -0.24058   -0.053817
-0.03173   -0.025234    0.021213   -0.044073    -0.56636    -0.19868   -0.070058
-0.042449   -0.034654 -0.00054884   -0.017764 -0.00087364    -0.13989   -0.077203
-0.052518   -0.044073   -0.019388  -0.0024977     0.53701   -0.080451   -0.079802
-0.060963   -0.053168    -0.03238  -0.0021729     0.93814   -0.027183     -0.0837
-0.062912   -0.059339   -0.039851   -0.010293      1.1619    0.021538   -0.083375
-0.055766   -0.061288   -0.036278   -0.014516      1.2272    0.075456   -0.072006
-0.045047   -0.057065   -0.023935  -0.0080194      1.1775     0.13392   -0.053817
-0.033354    -0.04927   -0.013541  0.00075039      1.0577     0.18394   -0.038876
-0.027183   -0.040825   -0.012892   0.0010752     0.88845     0.20863   -0.035303
-0.023285   -0.035953   -0.019063   -0.010618     0.66855     0.19888   -0.039201
-0.020037   -0.034654   -0.028807   -0.035303     0.39182     0.15601   -0.045697
-0.016789   -0.035628   -0.033354   -0.068434    0.073832     0.09397   -0.050244
-0.016789   -0.035953   -0.032055    -0.10936    -0.23928    0.029983   -0.052193
-0.02426   -0.037577   -0.034004     -0.1623    -0.49003   -0.025559    -0.05804
-0.041475   -0.043748   -0.044723    -0.22726    -0.64757   -0.080451   -0.074605
-0.064211   -0.056741   -0.068434      -0.301    -0.70733    -0.14022    -0.10449
-0.090196   -0.076229    -0.10156    -0.37018     -0.6755    -0.21232    -0.14346
-0.11553    -0.09994    -0.13307    -0.41663    -0.56117     -0.2997    -0.18407
-0.13697    -0.11813    -0.15321    -0.42735    -0.38674    -0.39974    -0.21752
-0.15516    -0.12852    -0.16068    -0.40786    -0.18179    -0.50562     -0.2435
-0.17367    -0.12885    -0.15873    -0.36985     0.02641    -0.60469    -0.26137
-0.18536    -0.12333    -0.14834    -0.31756      0.2109    -0.67777    -0.27176
-0.18666    -0.11358    -0.13047    -0.24415     0.36551    -0.70343    -0.27176
-0.17562    -0.10124    -0.10871    -0.14639     0.51914    -0.67517    -0.25942
-0.15711    -0.08305   -0.085973   -0.035303     0.69844    -0.59397    -0.22726
-0.13437   -0.057065   -0.064536    0.071234     0.89819     -0.4699    -0.17822
-0.10806   -0.027183   -0.039851     0.15991      1.0843    -0.31951    -0.12008
-0.077528  -0.0011985  -0.0093186     0.22649      1.1632    -0.17237   -0.064211
-0.044073     0.01764    0.022188     0.27229      1.0333   -0.050894   -0.014516
-0.012567     0.02641    0.047198      0.3038      0.6731    0.039078     0.02641
0.015692    0.032906    0.062789      0.3314     0.21382     0.11638    0.063113
0.046223    0.044275    0.075456     0.36129    -0.15483      0.2109     0.10664
0.088448    0.064413     0.08585     0.38727    -0.34452     0.35284      0.1625
0.14172    0.090722    0.092346     0.39669    -0.40039     0.54285     0.23039
0.19466     0.11736    0.092346     0.37363    -0.40916     0.75268     0.30022
0.22941     0.13522    0.086175     0.31192    -0.41793     0.93132     0.35252
0.24046     0.13912    0.072858     0.21577    -0.44131      1.0275     0.37265
0.22617      0.1297    0.048497     0.10209    -0.47639      1.0161     0.35512
0.19596     0.10859    0.016991  -0.0028225    -0.50757     0.91086     0.31127
0.15698    0.086175   -0.013216   -0.075904    -0.51537       0.753       0.258
0.11736    0.066362   -0.028807    -0.10806    -0.49101     0.58995      0.2057
0.084226    0.055318   -0.025234    -0.10449    -0.44748     0.44898     0.16153
0.058891    0.051745   -0.010618   -0.072331    -0.39292     0.33823      0.1297
0.04395    0.053369   0.0036737   -0.026858    -0.33445     0.24501     0.10859
0.036479    0.056292   0.0095202    0.017965    -0.28151     0.15991    0.093321
0.035505    0.054344      0.0014    0.053369    -0.24286    0.075131    0.078704
0.032906    0.048172   -0.016464    0.074482    -0.22369  -0.0076946    0.058891
0.025436    0.043625   -0.033679    0.087474    -0.22109   -0.084024     0.03518
0.015692      0.0433   -0.043748     0.10339    -0.22532    -0.14866    0.012443
0.0065969    0.044599   -0.048296     0.12613    -0.22304    -0.19381  -0.0034721
0.00075039    0.047523   -0.048945     0.15211    -0.19446    -0.22012   -0.014191
-0.0044465    0.050771   -0.046022      0.1742    -0.12463    -0.23181   -0.020362
-0.0096434    0.053369   -0.042449     0.17745   -0.024909    -0.23344   -0.022636
-0.016464    0.053369   -0.041799     0.14561    0.067011    -0.23441   -0.021012
-0.025234    0.047523   -0.044073    0.078704     0.11671    -0.24545   -0.020037
-0.034329    0.036154   -0.045047  -0.0015233     0.11671    -0.26592   -0.020687
-0.0405    0.026085   -0.042124   -0.069733    0.087799    -0.28378   -0.023285
-0.038227    0.024461   -0.034329    -0.11358    0.055968    -0.28281   -0.021661
-0.028482    0.033881   -0.029132    -0.13664    0.026735    -0.25585    -0.01614
-0.017439    0.045899   -0.028807    -0.15093  -0.0099683     -0.2107  -0.0099683
-0.0073698    0.053694    -0.03238     -0.1636   -0.059664    -0.16263  -0.0083442
-0.00087364     0.05207   -0.034329    -0.17465    -0.11715    -0.12398   -0.013866
0.00010078    0.043625   -0.033354    -0.17854    -0.15776    -0.09929   -0.023285
-0.0060706    0.032582   -0.027508    -0.16782    -0.15808   -0.088572   -0.032705
-0.017114    0.022188   -0.018413    -0.13859    -0.11131   -0.092794   -0.037252
-0.022636    0.015367  -0.0073698   -0.094418   -0.032055    -0.10774   -0.034654
-0.018088    0.014392   0.0075714   -0.046347    0.042651    -0.12755   -0.029782
-0.0063954     0.01829    0.020564  -0.0089938    0.087799    -0.14866    -0.02361
0.0085458    0.022837     0.02641   0.0088706     0.10014    -0.16782   -0.019712
0.019264    0.020564    0.023162  0.00042559    0.082277    -0.18147   -0.024585
0.020564    0.012768    0.009845   -0.030431     0.03518    -0.19056     -0.0405
0.0088706  0.00010078  -0.0089938    -0.07428   -0.041799    -0.19511   -0.061937
-0.012242    -0.01549   -0.027833    -0.11683    -0.13599    -0.19901   -0.083375
-0.039526   -0.034654   -0.039851    -0.14639    -0.23116    -0.20323    -0.10351
-0.070058   -0.053492   -0.044723    -0.15711    -0.32276    -0.20583    -0.12268
-0.10319   -0.070382   -0.045047    -0.15418    -0.42767    -0.20745    -0.13827
-0.13664   -0.084349    -0.04992    -0.14964    -0.56636      -0.212    -0.15093
-0.1662   -0.097666   -0.064211    -0.15288    -0.72357    -0.22174    -0.16035
-0.18796    -0.11033   -0.086298     -0.1727    -0.84083    -0.23798    -0.17335
-0.19576    -0.12138    -0.11098    -0.20615     -0.8379     -0.2539    -0.19283
-0.18894    -0.13307     -0.1308    -0.24513    -0.70051    -0.26592    -0.21037
-0.17335    -0.14216    -0.14054    -0.27728    -0.50108    -0.27274    -0.22239
-0.15386    -0.14606    -0.13599    -0.28605    -0.31951    -0.27436    -0.22207
-0.13469    -0.13567    -0.11618    -0.25682    -0.18634    -0.26949    -0.20225
-0.10741    -0.10903   -0.080127    -0.18082   -0.071357    -0.24805    -0.15873
-0.068109   -0.068109   -0.029132   -0.067134     0.06831    -0.20648   -0.094743
-0.021986   -0.021661    0.031607    0.058566     0.25345    -0.15418   -0.027183
0.024786    0.019914    0.088448     0.17062      0.4597   -0.098641    0.029658
0.06961    0.050771     0.13295     0.25085     0.64972   -0.036278    0.074482
0.11151    0.070909     0.16121     0.29535     0.79231    0.041351     0.11508
0.15081    0.089098     0.17745     0.30704     0.86084     0.13522     0.15991
0.18589     0.11248     0.18914     0.29795     0.83583     0.22682     0.20798
0.21155      0.1349     0.19823     0.27684     0.71987     0.29113     0.24793
0.22194     0.14951     0.20343     0.25345     0.53408     0.31906     0.26904
0.21642     0.15179     0.20213     0.23656     0.34992     0.32361     0.26449
0.20116     0.14399     0.19369     0.22487     0.26904     0.32523     0.23916
0.18167     0.12807     0.17485     0.21285     0.36259     0.33335     0.20505
0.16088     0.11216     0.14951     0.19531     0.58151     0.34505     0.17387
0.14107    0.097218     0.11963      0.1768     0.77964     0.34212     0.14756
0.12288      0.0852    0.097218      0.1651     0.83031     0.31419     0.12515
0.10761    0.075781    0.087149     0.16575     0.70006     0.26125     0.10339
0.09462     0.06961    0.087149       0.169     0.43989     0.19044    0.079354
0.076755    0.061814    0.086175     0.15958     0.14594     0.11378    0.055968
0.053369    0.047847    0.074482      0.1336   -0.090845    0.038753    0.029658
0.02706    0.030633    0.054019     0.09462    -0.22402   -0.031081    0.003024
0.0039985    0.013743    0.028034    0.054668     -0.2552   -0.089221   -0.022636
-0.010293   0.0052977   0.0020496     0.01829    -0.21817    -0.12657   -0.041799
-0.012242   0.0069217   -0.020687  -0.0080194    -0.15808    -0.14119   -0.050569
-0.0044465    0.016016   -0.038551   -0.027508    -0.11131    -0.13827   -0.047971
0.0049729     0.02706   -0.051868   -0.044073   -0.092469    -0.12852   -0.039851
0.009845    0.032257   -0.059989   -0.066485    -0.10254    -0.12268   -0.031081
0.0072465    0.025436   -0.062912   -0.094093    -0.12203    -0.12268   -0.025884
-0.0034721   0.0078962   -0.063561    -0.12203    -0.12625    -0.12365   -0.026858
-0.020362  -0.0093186   -0.063886    -0.14281   -0.096042    -0.11748   -0.034978
-0.037577   -0.018413    -0.06551    -0.15516   -0.030756    -0.10384    -0.04992
-0.053168   -0.021661   -0.069408    -0.16425    0.053694   -0.078178   -0.064536
-0.064536   -0.021661   -0.072981    -0.17042     0.14334   -0.031406   -0.072981
-0.068758   -0.024909   -0.073631    -0.17302     0.23689    0.041676   -0.073631
-0.062262   -0.029132   -0.071682    -0.16718     0.33758     0.13717   -0.066485
-0.048296   -0.032055   -0.067459    -0.14931     0.43274     0.24046   -0.052193
-0.036927   -0.032705   -0.063237     -0.1191     0.49576     0.32718   -0.032055
-0.026858   -0.027833    -0.05739     -0.0824     0.50777     0.37428   -0.011917
-0.016464   -0.019063   -0.047646   -0.042449     0.45613     0.37168    0.003024
-0.0067202   -0.010618   -0.037577 -0.00022403     0.34927     0.32588    0.011144
0.0020496   -0.007045   -0.029457    0.039078     0.22552      0.2541    0.016016
0.0075714   -0.007045   -0.023285    0.069285     0.11638     0.17745    0.020888
0.0095202  -0.0050961   -0.017764    0.086175    0.016666     0.10826    0.025761
0.0043233   0.0033489  -0.0096434    0.086824    -0.11748    0.045899    0.031932
-0.0041217    0.015367 -0.00054884    0.074157    -0.33185   -0.016789    0.036479
-0.0089938    0.024461    0.010819    0.054668    -0.63132   -0.079802    0.040702
-0.008669    0.029983    0.022512    0.037778     -0.9675    -0.14184    0.042975
-0.0057458    0.031932    0.030633    0.033231     -1.2608    -0.19381    0.041351
-0.00022403    0.030308    0.036804    0.046873     -1.4326    -0.22986    0.036479
0.0059473    0.025436    0.042975    0.076755     -1.4372    -0.24415    0.032257
0.0059473    0.019589    0.043625     0.11248     -1.2816    -0.23311    0.027385
-0.0044465    0.014392    0.037454     0.13782     -1.0208    -0.20193    0.020564
-0.02426    0.008221    0.030633     0.14302    -0.73234    -0.16035    0.011144
-0.043099   0.0033489    0.028359     0.12937    -0.49036    -0.12463  0.00042559
-0.054142  0.00075039    0.027385     0.10404    -0.34355    -0.10026   -0.012242
-0.056741  -0.0018481    0.024137    0.075781    -0.29125   -0.082725   -0.024585
-0.053492  -0.0060706    0.019589    0.055318    -0.28605   -0.070058   -0.032705
-0.048296   -0.011267     0.01764    0.044599    -0.22369   -0.054792   -0.034978
-0.043099   -0.013541    0.019589    0.043625   0.0072465   -0.024909    -0.03303
-0.037902   -0.011917    0.025761    0.054344     0.43112    0.029333   -0.028157
-0.029457  -0.0089938    0.033556    0.078379     0.93977     0.10599   -0.021986
-0.017764  -0.0073698    0.042651     0.10956      1.3542     0.18264   -0.011917
-0.0050961  -0.0076946    0.047523     0.13587      1.5208     0.22357  0.00042559
0.0039985   -0.007045    0.045249     0.14107      1.3932     0.20181    0.013743
0.0046481  -0.0050961     0.03453     0.11086      1.0492     0.12872    0.023162
-0.007045  -0.0037969    0.018615    0.054019     0.64582    0.038753    0.022837
-0.026533  -0.0057458   0.0046481  -0.0096434     0.32881   -0.034004    0.011794
-0.044398  -0.0063954  -0.0044465   -0.060313     0.16738   -0.069408  -0.0021729
-0.053817  -0.0050961   -0.010618   -0.084674     0.14042   -0.062262   -0.011267
-0.04992  -0.0021729   -0.014516     -0.0837     0.17225   -0.027183  -0.0096434
-0.034654   0.0036737   -0.016464   -0.067134     0.17874    0.016991   0.0017248
-0.011917   0.0095202   -0.016464   -0.047321    0.099817    0.042001    0.015042
0.015042    0.013743   -0.015815   -0.034978   -0.074605    0.032257    0.028034
0.041351    0.015692   -0.012892   -0.034978    -0.30619  -0.0073698    0.039078
0.057267    0.012119  -0.0080194   -0.046996    -0.53681   -0.062912    0.047198
0.056292   0.0026992 -0.00054884   -0.063886    -0.70246    -0.11553    0.050446
0.037778  -0.0093186   0.0043233   -0.080451     -0.7606    -0.15093    0.047847
0.012443   -0.022311   0.0052977   -0.090196    -0.71058    -0.16068    0.039402
-0.010618   -0.035953   0.0036737   -0.089546     -0.5969    -0.14736     0.02706
-0.026533   -0.047321   0.0020496   -0.083375    -0.46665    -0.12008    0.012443
-0.036602   -0.054792  0.00010078   -0.075579     -0.3351     -0.0824  -0.0018481
-0.035953   -0.054467  -0.0034721   -0.067784    -0.17854   -0.030431  -0.0093186
-0.027508   -0.047971  -0.0050961   -0.052843    0.040377    0.039078  -0.0063954
-0.0093186   -0.034978  0.00075039   -0.024909     0.33595     0.13067   0.0095202
0.012119   -0.015815    0.012443    0.014068      0.6705     0.23754     0.03518
0.030633   0.0039985    0.027709    0.054344     0.95958     0.33758    0.059865
0.045574    0.019264    0.040702    0.079679      1.0941     0.39767    0.078055
0.054668    0.025436    0.044599    0.083901     0.99596     0.39344    0.082277
0.059541    0.023812    0.038103    0.074157      0.6705     0.32036    0.073182
0.055643    0.016016    0.028684    0.056942     0.20765     0.19953    0.056617
0.042651   0.0049729    0.020239    0.037778    -0.26657    0.066686    0.037778
0.021213   -0.008669    0.011469     0.01894    -0.64269   -0.044073    0.021863
0.0023744   -0.019712  0.00042559   0.0056225    -0.87201    -0.11423    0.013743
-0.0034721   -0.025884  -0.0089938   0.0049729    -0.95288    -0.13664    0.014068
0.0039985   -0.025884   -0.010293    0.021213    -0.91001     -0.1178    0.019914
0.019914   -0.020687  -0.0011985    0.049147    -0.77976   -0.075904    0.029658
0.037778   -0.011592    0.010819     0.07708    -0.60924   -0.030756      0.0433
0.05207  -0.0011985    0.021213    0.093321    -0.45073  -0.0024977    0.054019
0.059216   0.0091954    0.028684    0.092671    -0.33575 -0.00054884    0.055968
0.056617    0.013093    0.029333    0.074806    -0.26527   -0.025559    0.047523
0.045899   0.0078962    0.022837    0.053694    -0.21362   -0.067459    0.033231
0.031932  -0.0044465    0.011794    0.041676    -0.15029    -0.11423    0.014068
0.01764   -0.020687   0.0010752     0.04395   -0.066485    -0.15418  -0.0063954
0.0075714    -0.03238  -0.0050961    0.047198   0.0056225    -0.18601   -0.021337
0.00010078   -0.037577   -0.007045    0.037454    0.012443    -0.21297   -0.032705
-0.0054209   -0.039526  -0.0099683    0.008221     -0.0837    -0.23863   -0.044073
-0.012242   -0.040175   -0.015815   -0.035628    -0.26819    -0.26234   -0.053817
-0.021337   -0.043099   -0.023935   -0.079152    -0.44878    -0.27176   -0.060313
-0.030756   -0.050244    -0.03173    -0.11033    -0.52186    -0.25585    -0.05804
-0.038551    -0.05739   -0.040825      -0.123    -0.46015    -0.21525   -0.051544
-0.04115   -0.058365   -0.052843    -0.12105    -0.31594    -0.15841   -0.045047
-0.039201   -0.051868   -0.067459    -0.11131    -0.16068    -0.10189   -0.044073
-0.036602   -0.039851   -0.079802    -0.10319  -0.0060706   -0.058689    -0.04992
-0.036927   -0.027183   -0.085973   -0.098316     0.17874    -0.04115   -0.055441
-0.038551   -0.016464   -0.084024   -0.093769     0.38662   -0.046996    -0.05739
-0.043423  -0.0063954   -0.078178   -0.085324     0.55942   -0.071682    -0.05804
-0.052518   0.0017248   -0.072006   -0.075904     0.64387    -0.10156   -0.062587
-0.059014   0.0072465    -0.06616   -0.069083     0.63607    -0.12073   -0.067784
-0.059664   0.0085458   -0.062912   -0.063886     0.59158    -0.11521   -0.071032
-0.054792   0.0069217   -0.060963   -0.054142     0.58735   -0.079152   -0.069408
-0.047971   0.0059473   -0.057065   -0.032705     0.67018   -0.017439   -0.058365
-0.043099   0.0072465   -0.051868   0.0023744     0.82998    0.055643   -0.043748
-0.040825   0.0065969   -0.044723    0.042651      1.0031     0.12028   -0.034654
-0.041475  -0.0015233   -0.039201     0.07708      1.1074     0.15536   -0.040175
-0.045372   -0.014516   -0.037902    0.091047      1.0671     0.14464   -0.061288
-0.050244   -0.027833   -0.045047    0.081303     0.85824     0.08585   -0.092794
-0.046022   -0.033354   -0.050244    0.062464      0.5055  -0.0011985     -0.1191
-0.026533   -0.028482   -0.047321    0.054668    0.080978   -0.081101    -0.11878
0.0049729   -0.014191   -0.030431    0.073832    -0.32536    -0.11521   -0.086623
0.039727   0.0091954 -0.00054884     0.12093    -0.62028   -0.084024   -0.029457
0.070259    0.038753    0.033556     0.17939    -0.74501  -0.0057458    0.031607
0.084226    0.067336    0.056292     0.22714    -0.69499    0.082927    0.080003
0.079679    0.084226    0.063763     0.24436     -0.5394     0.14139     0.10144
0.061489    0.082927    0.056617     0.22129    -0.38057     0.14626    0.094295
0.037454    0.063438    0.042651     0.16835    -0.28963     0.10177    0.067986
0.023487    0.035505    0.028359     0.10242     -0.2906    0.034855    0.033881
0.026735    0.012119    0.016666    0.046548    -0.37148   -0.018088    0.010819
0.042651   0.0049729    0.012119    0.016991    -0.48549   -0.028807    0.013093
0.063763    0.014717     0.01764    0.014717    -0.57091    0.014717    0.042975
0.076755    0.034206    0.028359    0.028359    -0.58358     0.10501      0.0852
0.078055    0.054019     0.03453    0.035505    -0.51732     0.21382     0.11963
0.067336    0.062139    0.031607     0.01894    -0.40071     0.30315     0.12872
0.049147    0.055318    0.016016   -0.020037    -0.28053     0.34862     0.10371
0.027709    0.039402  -0.0050961    -0.06616    -0.20031     0.34537    0.054993
0.0049729    0.019914   -0.025234    -0.10449    -0.18536     0.30542  -0.0015233
-0.017439   0.0026992   -0.035953     -0.1256    -0.22272     0.24143   -0.049595
-0.031081  -0.0080194   -0.035303    -0.12527    -0.24448     0.17257   -0.081101
-0.032705   -0.011917   -0.030106    -0.10514    -0.17042     0.11248   -0.097666
-0.021986  -0.0076946   -0.026858    -0.07493    0.020888    0.065712    -0.10319
-0.0080194  -0.0028225   -0.023935   -0.044398     0.25865    0.025436    -0.10124
0.0017248  -0.0044465   -0.020037   -0.022961     0.44963    -0.01549    -0.10059
0.0052977   -0.013216    -0.01614    -0.01484     0.53928   -0.062587    -0.10481
0.0039985   -0.024909   -0.017439   -0.018738     0.51135    -0.11326    -0.11553
0.00010078   -0.033354   -0.026858   -0.033354      0.3863    -0.15938    -0.12625
-0.0067202   -0.034654   -0.042774   -0.052518     0.21058    -0.19446    -0.12852
-0.012567   -0.030431   -0.060313   -0.071357    0.025436    -0.22272    -0.11326
-0.01484   -0.023935    -0.06681   -0.086298    -0.15776    -0.26202   -0.080127
-0.008669    -0.01614    -0.05739   -0.092794    -0.35037    -0.32308   -0.038876
0.0043233  -0.0054209   -0.034329   -0.089871    -0.54655    -0.40006  0.00075039
0.020888     0.01017  -0.0034721   -0.077203    -0.69239     -0.4647    0.033881
0.03583    0.029009    0.025436   -0.058689    -0.71123    -0.48614    0.052395
0.051096    0.042326    0.045249   -0.043099    -0.55727    -0.45301    0.061165
0.064413    0.048172    0.050121   -0.042449    -0.27079    -0.36791    0.064088
0.073832    0.044275     0.04395   -0.060963    0.049472     -0.2513    0.062464
0.072208    0.037129    0.032582   -0.088247     0.30055    -0.12722    0.059541
0.059541    0.031282    0.021213    -0.10968     0.41975   -0.020362    0.061814
0.044599    0.033556    0.016341    -0.11553     0.40384    0.051745    0.072208
0.03453    0.044599    0.018615    -0.10611     0.31451    0.089423      0.0865
0.032582    0.058566    0.026085    -0.08305     0.22584     0.10696    0.099167
0.039078     0.06896    0.038428   -0.046671     0.18622     0.12093     0.10599
0.05142    0.074482    0.054993   0.0062721     0.23559     0.14691     0.10696
0.064737    0.075456    0.072858    0.083251     0.39539     0.19888     0.11054
0.077405    0.075456    0.091696     0.18329     0.65589     0.27976     0.12223
0.086824    0.079029     0.10566     0.28983     0.96965     0.37006     0.13684
0.088448    0.084226     0.10989     0.38045      1.2529     0.43664     0.14432
0.079354    0.089748     0.10209     0.43502      1.4117     0.45613     0.13912
0.062789    0.091047    0.088448     0.44346      1.3958     0.42722     0.11995
0.039727      0.0865    0.076106     0.40579      1.2227     0.36129    0.091696
0.012768    0.076431    0.066037     0.32946     0.95309     0.27749    0.061165
-0.012242    0.066686    0.057917     0.22389     0.65491     0.19563     0.03453
-0.030756     0.06084    0.051745     0.10664     0.38565     0.12937     0.01764
-0.038876    0.060515    0.048172    0.008221     0.18037    0.087799    0.011144
-0.038227    0.063113    0.044924   -0.047646    0.047847    0.071883    0.015042
-0.03173    0.063763    0.041676   -0.058689   -0.031081    0.074806    0.025436
-0.025559    0.059541    0.036804   -0.037252   -0.084349    0.081303    0.034206
-0.01614    0.049147    0.033881   0.0088706    -0.13664    0.079029    0.033881
-0.0076946     0.03583    0.033881    0.061165    -0.19641    0.065712    0.025436
-0.0028225    0.024786    0.036154    0.099817    -0.26689    0.036479    0.009845
-0.0057458    0.016016    0.038103     0.10956    -0.34387  -0.0096434  -0.0099683
-0.015165   0.0075714    0.031282    0.089423    -0.42182   -0.068434   -0.028157
-0.031406 -0.00087364    0.013418    0.046548    -0.48419     -0.1269     -0.0405
-0.046996   -0.010943   -0.011592  -0.0011985    -0.51797    -0.17075   -0.049595
-0.058689   -0.019063   -0.032705   -0.042774    -0.52251    -0.18959   -0.058689
-0.062912   -0.022961   -0.046022   -0.073631    -0.50757    -0.17952   -0.065186
-0.061288    -0.02361    -0.04992   -0.094093    -0.48484    -0.15061   -0.064211
-0.058689   -0.023285   -0.048945    -0.10644    -0.45398     -0.1178   -0.058365
-0.057715   -0.023935   -0.045047    -0.10871    -0.39876   -0.089871   -0.052843
-0.062262   -0.023935   -0.043423   -0.097341    -0.30327   -0.070382   -0.051219
-0.067459   -0.024909   -0.045372   -0.076554     -0.1753   -0.060963   -0.054142
-0.072331   -0.026533   -0.050894   -0.060313   -0.052518   -0.062587   -0.062262
-0.078827   -0.028807   -0.059014   -0.060963    0.021538   -0.076554   -0.073631
-0.084349    -0.03173   -0.068434   -0.083375    0.031932    -0.10838   -0.090196
-0.087922   -0.031081   -0.080776    -0.11878  -0.0024977    -0.15581    -0.10903
-0.089871   -0.027833   -0.092145    -0.15451   -0.038876    -0.20778    -0.12463
-0.088247   -0.027508    -0.09929    -0.17594   -0.048945    -0.25033    -0.13404
-0.08305   -0.029782    -0.10091    -0.17562   -0.028807    -0.27339    -0.14022
-0.076229   -0.032705   -0.098641    -0.15743 -0.00087364    -0.26787    -0.13762
-0.064211   -0.033354   -0.093444    -0.13177  -0.0021729    -0.23733    -0.12138
-0.046022   -0.029457   -0.084024    -0.10741   -0.077528    -0.20063   -0.090521
-0.023935   -0.017439   -0.068758   -0.080127    -0.25455    -0.17952   -0.051219
-0.0018481   0.0017248   -0.045697   -0.047971    -0.50173    -0.18342  -0.0093186
0.015692    0.021538   -0.019063   -0.014191    -0.74143    -0.20453    0.026735
0.029983    0.037778   0.0052977    0.015692    -0.89734    -0.22759    0.054019
0.039727    0.048497     0.01894    0.038753    -0.93599    -0.23896    0.068635
0.0433     0.05272    0.021538    0.053044    -0.86876    -0.23441    0.071234
0.038428    0.047198    0.015042    0.056617    -0.73396    -0.21817    0.067336
0.023812    0.033556   0.0026992    0.047523    -0.58942    -0.19803    0.058891
0.0043233     0.01894  -0.0067202    0.022512    -0.51309    -0.17562    0.049796
-0.011267    0.008221  -0.0080194   -0.018088    -0.56376    -0.15743    0.041351
-0.019712   0.0052977  -0.0037969   -0.073955    -0.73559    -0.14671    0.032906
-0.021337    0.011794  0.00042559    -0.13404    -0.95906    -0.13827    0.027385
-0.017114    0.023487   0.0049729    -0.18504     -1.1299    -0.11878    0.025436
-0.011917    0.031607   0.0059473    -0.21979     -1.1585   -0.077853    0.024786
-0.011917    0.025111  0.00010078    -0.23928    -0.98634   -0.017114    0.021538
-0.019063   0.0036737  -0.0099683    -0.24643    -0.57806     0.06019    0.016016
-0.030756   -0.023285   -0.021337    -0.23863    0.023162     0.15438    0.014068
-0.038227    -0.04115   -0.031081    -0.20875     0.62568     0.26125    0.022512
-0.033679   -0.046022   -0.033679    -0.15418     0.99791     0.36843    0.044275
-0.014516   -0.039851   -0.030756   -0.085973       1.009     0.45548    0.073182
0.014717   -0.029132    -0.02361   -0.016789     0.69811     0.50323     0.10014
0.044275   -0.017439    -0.01549    0.045249     0.27067     0.50615     0.11671
0.063113  -0.0067202  -0.0099683     0.10047   -0.010943     0.46847     0.11671
0.067011   0.0010752  -0.0063954     0.14399    0.031282     0.40351     0.10436
0.057917   0.0043233  -0.0047713     0.16965     0.38727     0.32361    0.086175
0.040377   0.0020496  -0.0044465     0.17225     0.86279     0.24403    0.072858
0.020564  -0.0057458  -0.0044465     0.15179      1.2178     0.17615    0.062139
0.0049729   -0.013216  -0.0089938     0.11118      1.3019      0.1206    0.049147
-0.007045   -0.018413   -0.019388    0.063438      1.1074    0.074157    0.031932
-0.017439   -0.022961   -0.035303    0.022512     0.75041    0.030633    0.010495
-0.024585   -0.032055   -0.051544  -0.0041217     0.39604   -0.007045   -0.013866
-0.028807   -0.043423   -0.059664    -0.01484      0.1651    -0.03173   -0.036927
-0.030106   -0.052193   -0.058365    -0.01484    0.081952   -0.050569   -0.057715
-0.034329   -0.055116   -0.055441  -0.0080194     0.10112   -0.072981   -0.072656
-0.0405   -0.053817   -0.050894   0.0017248     0.15309    -0.10254   -0.077203
-0.043748   -0.049595   -0.044073    0.011144     0.19109    -0.13827   -0.068434
-0.043423   -0.042449     -0.0405    0.022837     0.20181    -0.17465    -0.04992
-0.034654   -0.035628   -0.036278    0.036479     0.19304    -0.20225   -0.030106
-0.021337   -0.030431   -0.028807    0.047198     0.17452    -0.21622   -0.014516
-0.0054209   -0.029782   -0.021661    0.048172     0.14821    -0.21817  -0.0067202
0.0091954   -0.031406   -0.016464    0.033556     0.11281    -0.21395  -0.0044465
0.018615    -0.03173   -0.010293   0.0056225    0.067986    -0.20908  -0.0054209
0.017965   -0.032705  -0.0050961   -0.030756    0.016341    -0.20778  -0.0083442
0.0091954   -0.038227  -0.0034721   -0.070707   -0.036278    -0.21232    -0.01484
-0.0015233   -0.048296  -0.0034721    -0.10449   -0.081101     -0.2133   -0.022961
-0.013216   -0.058689  -0.0037969    -0.12527    -0.10286    -0.19738   -0.030756
-0.021661   -0.064861  -0.0041217     -0.1269   -0.080127    -0.15483   -0.035303
-0.021012   -0.060638  0.00075039    -0.10806  -0.0024977   -0.086298   -0.034654
-0.010943   -0.046347    0.009845   -0.071032     0.10306  -0.0054209   -0.022961
0.0059473   -0.022961    0.020239   -0.020037      0.1768    0.068635  -0.0021729
0.02706   0.0052977    0.028684     0.03583     0.15926     0.11703    0.016666
0.046223    0.030308    0.035505    0.091372    0.029009     0.13392    0.028034
0.054993    0.046223    0.048172     0.14204     -0.1714     0.12905    0.033231
0.054344    0.055968    0.066037     0.18394    -0.36498     0.11995    0.039078
0.053044    0.059216    0.084226      0.2096    -0.48744      0.1245    0.046873
0.052395    0.059865    0.091047     0.21025      -0.504     0.14626    0.054019
0.051096    0.056942    0.080653     0.18199     -0.4137      0.1729    0.054993
0.047198    0.053369    0.056617      0.1297    -0.25552     0.18719    0.048497
0.040052    0.053369    0.029333    0.070259   -0.085973     0.18232    0.037129
0.03453    0.057267   0.0095202    0.026735    0.072858     0.15926    0.025436
0.029658     0.06019 -0.00022403    0.015692     0.22584     0.11995    0.013093
0.027385    0.058241  -0.0057458    0.034206     0.36226    0.067011   0.0026992
0.02706    0.049147  -0.0063954    0.063438     0.43599   0.0039985  -0.0044465
0.028034    0.041027  -0.0021729    0.089748     0.39961   -0.065835   -0.007045
0.030957    0.037778    0.008221     0.11248     0.24468    -0.13957  -0.0057458
0.038103    0.038428    0.022837     0.13782    0.012119    -0.20355  -0.0021729
0.049147    0.041676    0.040702     0.17355    -0.22402    -0.24286   0.0056225
0.066037    0.048497    0.057917     0.21902    -0.39974    -0.24903    0.015692
0.085525    0.054668    0.070909      0.2619    -0.49101    -0.22467    0.028359
0.10047    0.059216    0.076755     0.28821    -0.51667    -0.17952      0.0433
0.10404     0.06084    0.074806     0.28821    -0.52998    -0.13112    0.057917
0.09462    0.057267    0.063763     0.26222    -0.57513   -0.092794    0.067336
0.073832    0.045899    0.044924     0.21545    -0.65471    -0.06681    0.061814
0.051096    0.029333    0.021213     0.15438    -0.73202   -0.046022    0.038428
0.032257    0.015367  0.00010078    0.089423    -0.73754   -0.013866   0.0095202
0.018615    0.010819  -0.0093186    0.030633    -0.60209    0.039727   -0.008669
0.0065969    0.016016  -0.0047713   -0.016789     -0.2971     0.11021   -0.011592
-0.0041217    0.022188   0.0039985   -0.056741     0.11378     0.17192  -0.0089938
-0.011267    0.020239   0.0075714    -0.09117     0.50777      0.2135  -0.0073698
-0.011592    0.014717   0.0075714    -0.11001     0.79198     0.24533  -0.0089938
-0.0037969    0.012768   0.0091954    -0.10319     0.91768     0.27944  -0.0073698
0.0085458    0.016666    0.014392   -0.067459     0.87708     0.31354   0.0026992
0.022837    0.023487    0.024786   -0.012242     0.71305     0.33205    0.021213
0.030308    0.027709    0.036804    0.046223     0.52337     0.31874    0.038753
0.02706    0.030308    0.045574    0.090397     0.42008     0.27294    0.044599
0.013418    0.030633    0.045574     0.10534     0.43664     0.20863    0.035505
-0.0050961    0.029983    0.033881    0.090397     0.50875     0.13912    0.014068
-0.022961    0.027385    0.011469    0.059216     0.53993    0.073182  -0.0093186
-0.034978    0.024137  -0.0096434    0.031282     0.47497    0.016341   -0.026209
-0.042124    0.019589   -0.019388    0.019589     0.32036   -0.029782   -0.033679
-0.050244   0.0088706   -0.018413    0.022188     0.12418   -0.072656   -0.034329
-0.057715  -0.0050961   -0.014191    0.028034   -0.046671    -0.11163    -0.03303
-0.060313    -0.01614   -0.015165    0.030308    -0.15126    -0.14119   -0.035303
-0.052518   -0.017439    -0.01549    0.027385    -0.19998    -0.15191   -0.037902
-0.035303  -0.0060706   -0.010943    0.024461    -0.24156    -0.14022   -0.036927
-0.015165    0.010819   0.0065969    0.024786    -0.32113    -0.10644   -0.027508
0.0026992    0.025761    0.032257    0.029658    -0.45008   -0.061613   -0.010618
0.014392    0.036154    0.056617    0.037778    -0.59235   -0.020687   0.0078962
0.018615    0.042001    0.070259    0.045899    -0.69109   0.0036737    0.021213
0.016666    0.040702    0.072533    0.048497    -0.69596   0.0069217    0.025436
0.0069217    0.031607    0.062139    0.041351    -0.59884  -0.0089938    0.027709
-0.0076946    0.017316     0.04395    0.022188    -0.46178   -0.036927    0.029333
-0.018738   0.0065969    0.026735  -0.0057458    -0.36661   -0.072006    0.029983
-0.021986   0.0069217    0.017316   -0.034978    -0.35816    -0.10871    0.033231
-0.018738     0.01829    0.014068   -0.058689    -0.41435    -0.13892    0.039402
-0.016464    0.035505    0.012443   -0.070707    -0.47704    -0.15905    0.042326
-0.018088    0.046548    0.011469   -0.071032    -0.49718     -0.1701    0.037129
-0.024585    0.047847   0.0085458   -0.065186    -0.46113    -0.17594    0.019914
-0.035628    0.040052   0.0033489   -0.057065    -0.38285    -0.18374  -0.0083442
-0.048945    0.028034  -0.0050961   -0.056091    -0.27891    -0.19348   -0.041799
-0.060313    0.010495   -0.014191   -0.061937    -0.15711    -0.19771   -0.068109
-0.06551   -0.007045   -0.021337   -0.070707   -0.022636    -0.19089   -0.081426
-0.061288   -0.020687   -0.026533   -0.079152    0.093645    -0.17367   -0.080127
-0.048945   -0.028807   -0.029457   -0.087597     0.13977    -0.15678   -0.068758
-0.032055   -0.029782   -0.027183   -0.097017     0.10014    -0.14346    -0.04992
-0.018088   -0.027183   -0.019388    -0.10806    0.030308    -0.12917   -0.034654
-0.012242   -0.023285   -0.012567    -0.11715    0.012119    -0.10709   -0.027183
-0.013541   -0.021661   -0.012567    -0.11813    0.071558   -0.074605   -0.026858
-0.01549   -0.021986   -0.020037    -0.11098     0.15796    -0.03238    -0.02426
-0.013216   -0.023285   -0.029132   -0.096692     0.19888    0.011469    -0.01484
-0.0057458   -0.020362    -0.03238   -0.076879     0.16608    0.053369  -0.0034721
0.0014   -0.016464   -0.029782   -0.055116    0.083576    0.083576   0.0069217
0.0039985   -0.016464   -0.026533   -0.036927   0.0065969    0.095919     0.01017
0.0033489   -0.020037   -0.024909   -0.021012   -0.017439    0.092996   0.0039985
0.0010752   -0.021337   -0.021986  -0.0028225    0.036804    0.083576  -0.0057458
0.0023744   -0.017764   -0.017114    0.021538     0.16315     0.08585   -0.014516
0.0095202   -0.010293  -0.0093186    0.050121     0.32653     0.10729   -0.022311
0.016666  -0.0047713  -0.0034721    0.072858     0.48082     0.14529   -0.027508
0.019264  -0.0054209  -0.0015233    0.078379      0.5919     0.18199   -0.030756
0.014068  -0.0099683  -0.0047713    0.065712     0.64712     0.19563    -0.03303
0.0014   -0.018413   -0.010293    0.042651     0.65264      0.1716   -0.035953
-0.012567   -0.026858   -0.011592    0.016016     0.62471     0.11606   -0.037902
-0.021986    -0.03173  -0.0083442  -0.0083442     0.57144     0.05207   -0.039201
-0.024909   -0.033679  -0.0031473   -0.028482     0.48731  -0.0015233   -0.043748
-0.024585   -0.034654 -0.00087364   -0.045697     0.37038   -0.033354   -0.045047
-0.023285   -0.032705 -0.00054884   -0.059014     0.24371    -0.04115   -0.042124
-0.017764   -0.028157  -0.0011985   -0.067784     0.13522   -0.029132   -0.035303
-0.0076946   -0.021661  -0.0015233   -0.076879    0.050121  -0.0073698   -0.025234
0.0033489   -0.017764  -0.0011985   -0.089546   -0.020037    0.015692    -0.01484
0.011794   -0.015815  -0.0011985    -0.10546   -0.084349    0.032582  -0.0050961
0.012443   -0.013866  -0.0034721    -0.12398    -0.15288    0.041351   0.0059473
0.00042559   -0.015815    -0.01484    -0.14249    -0.23214    0.039078    0.015692
-0.016789   -0.022311   -0.030756      -0.161    -0.31009    0.025436    0.016666
-0.033354    -0.03238   -0.048945     -0.1727     -0.3744   0.0017248    0.011469
-0.046022   -0.044398   -0.061937    -0.17822    -0.42052   -0.027183   0.0043233
-0.054792    -0.04992   -0.070382    -0.17757    -0.45138   -0.058365  -0.0041217
-0.063561   -0.047971   -0.078503    -0.17692    -0.47932   -0.090845    -0.01484
-0.071032   -0.045697   -0.090521    -0.18309    -0.51439    -0.12917   -0.029782
-0.073955   -0.047321    -0.10319    -0.19576    -0.54558    -0.17789   -0.047971
-0.072656   -0.051544    -0.11066     -0.2029    -0.54428    -0.22791   -0.061288
-0.061937   -0.048945    -0.10319    -0.18439    -0.49231    -0.25585   -0.064211
