-0.0031473    0.028684   -0.011267  -0.0096434   -0.059339   -0.063561  -0.0089938
0.0085458    0.020239   -0.030756   -0.015165   -0.047321   -0.057065   -0.022961
0.022837    0.020888   -0.040175   -0.010943   -0.034978   -0.047321   -0.029457
0.033231     0.02641   -0.038876 -0.00054884   -0.022636   -0.036278   -0.029782
0.038753    0.031282   -0.033354    0.008221   -0.010293   -0.028807   -0.028482
0.039078    0.028359   -0.026533   0.0091954   0.0020496   -0.024585   -0.027833
0.038753    0.020564   -0.021337   0.0039985    0.014068   -0.020687   -0.025884
0.036804    0.012443    -0.01614  -0.0057458    0.026085   -0.010618   -0.021337
0.034855   0.0069217  -0.0083442   -0.013541    0.031607   0.0039985   -0.011917
0.036479   0.0046481  0.00010078   -0.017439    0.022837     0.01894  -0.0054209
0.042326   0.0033489   0.0020496   -0.017764 -0.00087364    0.031282   -0.007045
0.045899   0.0036737  0.00075039   -0.018088   -0.029782    0.036479    -0.01484
0.039727   0.0017248  -0.0024977   -0.019712   -0.058689    0.036479   -0.020687
0.028359  -0.0018481  -0.0057458    -0.02426   -0.078827    0.030957   -0.020687
0.020239  -0.0063954  -0.0083442   -0.030106   -0.084674    0.022188   -0.017114
0.020564  -0.0093186  -0.0096434   -0.035953    -0.07493    0.015692   -0.010943
0.024461  -0.0089938  -0.0093186   -0.039851   -0.052193    0.017316  -0.0041217
0.029983  -0.0063954   -0.007045     -0.0405   -0.017764    0.023487   0.0026992
0.036154  -0.0054209  -0.0028225   -0.035628    0.024461    0.027709   0.0091954
0.041027  -0.0063954   0.0036737   -0.026533    0.068635    0.024786    0.012443
0.040052  -0.0076946    0.009845   -0.017439     0.10274    0.017965    0.013418
0.033231  -0.0080194    0.011794   -0.010943     0.11736    0.012443    0.012119
0.021538  -0.0041217   0.0095202  -0.0037969     0.11313    0.011144   0.0072465
0.0085458  0.00010078   0.0065969   0.0059473    0.099167    0.016991   0.0033489
-0.00087364  0.00042559   0.0056225     0.01764    0.079029    0.026085   0.0010752
-0.0031473  -0.0041217   0.0069217     0.02641    0.059216    0.030308   0.0020496
0.0017248   -0.015815    0.010495    0.029333    0.045899    0.029658   0.0056225
0.010819   -0.029782    0.011144    0.024137    0.040377    0.028034   0.0085458
0.016991   -0.037902    0.008221    0.013418    0.037778    0.029658    0.012119
0.017965   -0.036602   0.0017248  0.00042559    0.033881    0.031607    0.015042
0.014068   -0.029132  -0.0063954  -0.0083442    0.030308    0.030633    0.013743
0.009845   -0.022311   -0.013866   -0.012567    0.028034    0.024137    0.011469
0.0078962   -0.017114   -0.016464   -0.013216    0.028359    0.013418    0.013418
0.0072465   -0.011917   -0.018413   -0.011592    0.028684  0.00010078    0.019914
0.0046481  -0.0037969   -0.020362  -0.0093186    0.023487   -0.012242    0.028359
-0.00022403   0.0072465   -0.021012  -0.0060706    0.015692   -0.019063     0.03583
-0.0037969    0.018615    -0.01484  0.00042559    0.010495   -0.019388    0.040377
-0.0041217    0.027385  -0.0024977    0.010819    0.009845   -0.015815    0.038103
0.0026992     0.03518    0.011794    0.022512    0.011144   -0.011592    0.031282
0.0085458    0.039402    0.021863    0.032582     0.01017   -0.010943    0.021863
0.009845    0.041027    0.021538    0.037778   0.0039985   -0.016464    0.015042
0.0017248    0.041351    0.013093    0.036804  -0.0063954   -0.025884    0.015042
-0.015165    0.046223  -0.0018481    0.030957    -0.01549   -0.038227    0.020239
-0.033679    0.054344   -0.019712    0.023487    -0.01549    -0.04862    0.026735
-0.046022    0.061165   -0.034329    0.017316  -0.0034721   -0.056416    0.028359
-0.046996    0.061489     -0.0405    0.012119    0.021213   -0.061288     0.02706
-0.039851    0.054019   -0.034329    0.012443    0.057917   -0.058689    0.027385
-0.027508    0.042326   -0.018738    0.021863     0.10274   -0.047971    0.029333
-0.01549    0.032906  0.00042559    0.039402     0.14269    -0.03173    0.029009
-0.0073698    0.024786    0.016016    0.057592     0.16673    -0.01484    0.024786
-0.0037969    0.018615    0.024461    0.070584     0.16965  -0.0015233    0.013418
-0.0031473    0.014068    0.029009    0.076106     0.15341   0.0039985   0.0023744
-0.00087364    0.012443     0.03518    0.075456      0.1219    0.003024  -0.0037969
0.0020496    0.013418    0.041027    0.070909    0.087149  -0.0063954  -0.0041217
0.0056225    0.011144    0.043625    0.059865    0.058241   -0.020362  -0.0050961
0.0065969   0.0039985    0.038103    0.042001     0.03518   -0.030756   -0.008669
0.0023744  -0.0024977    0.030308    0.021863    0.019589   -0.034329   -0.015165
-0.0024977  -0.0057458    0.022837   0.0043233    0.011469   -0.036278   -0.020687
-0.0031473  -0.0080194     0.01829  -0.0067202   0.0088706   -0.041475   -0.026533
-0.00087364  -0.0080194    0.016991   -0.011917    0.011794   -0.048945   -0.029782
0.0010752  -0.0050961     0.01894   -0.010293    0.019589   -0.055441   -0.027508
0.0017248 -0.00087364    0.021863  -0.0041217    0.028034   -0.054792   -0.017114
0.0017248   0.0062721    0.022512   0.0023744    0.033556   -0.047321  -0.0044465
0.0036737     0.01764    0.019589    0.009845     0.03518   -0.034978   0.0010752
0.0059473    0.030957    0.013743    0.016991    0.035505   -0.021012 -0.00087364
0.0036737    0.038753   0.0075714    0.023487    0.039727  -0.0083442  -0.0047713
-0.0031473     0.03453 -0.00054884    0.028034    0.047847   0.0010752  -0.0057458
-0.014191     0.01829   -0.012567    0.030633    0.053694   0.0095202  -0.0034721
-0.023285 -0.00022403   -0.025884     0.02706    0.048172     0.01764 -0.00087364
-0.027833    -0.01614   -0.034329    0.021213    0.029333    0.024786    0.003024
-0.026858   -0.026858   -0.035303    0.016016   0.0056225    0.028034   0.0056225
-0.021661   -0.034329   -0.029457    0.015367  -0.0093186    0.026735   0.0033489
-0.011592   -0.034329   -0.020687    0.016341  -0.0093186    0.024137  -0.0044465
-0.00087364   -0.027183   -0.013866    0.016666 -0.00022403     0.01894   -0.014191
0.0069217   -0.017439   -0.011267    0.016341   0.0078962     0.01017   -0.021012
0.0078962  -0.0050961   -0.012567    0.014717   0.0065969   0.0017248   -0.024909
0.0036737   0.0059473   -0.012567    0.011144  -0.0080194  -0.0050961   -0.027183
-0.00087364   0.0091954   -0.013866   0.0043233   -0.029457  -0.0080194   -0.029782
-0.0031473   0.0023744   -0.018088  -0.0015233    -0.04992  -0.0041217    -0.03173
-0.00022403  -0.0080194   -0.022961  -0.0054209   -0.063561   0.0052977    -0.03303
0.0043233   -0.013541   -0.026533   -0.007045   -0.067134    0.018615    -0.03173
0.008221   -0.012892   -0.026209  -0.0050961   -0.065186    0.032257   -0.030106
0.008221  -0.0076946   -0.020362   0.0020496   -0.063561    0.042326   -0.028157
0.0059473  0.00010078  -0.0089938    0.012119   -0.067784    0.043625   -0.024909
0.0052977   0.0065969   0.0049729    0.026735   -0.078503    0.037454   -0.020362
0.0085458    0.011144    0.016666    0.044599   -0.088896    0.025111   -0.017114
0.014392    0.009845    0.022837    0.058891    -0.09117    0.014068   -0.016464
0.019914   0.0046481    0.025436    0.066686   -0.079477    0.013093   -0.015815
0.021863   0.0017248    0.026085    0.066037   -0.058365    0.019589   -0.013866
0.016666   0.0033489    0.024137    0.059541   -0.037902    0.024786   -0.010293
0.0062721   0.0088706    0.023162    0.049796   -0.027508    0.019264  -0.0060706
-0.0060706    0.016016    0.024786    0.036804   -0.030106   0.0017248  -0.0047713
-0.017764    0.021538    0.028034    0.024137   -0.039526   -0.018738  -0.0031473
-0.027833    0.022837    0.032257    0.016666    -0.04862   -0.031406   0.0020496
-0.033354    0.019264    0.033231    0.013743   -0.052518   -0.030431    0.010495
-0.035953    0.012443    0.025761     0.01017   -0.052518   -0.019712     0.01894
-0.038876   0.0049729    0.013743   0.0020496   -0.050244  -0.0096434    0.017965
-0.040825  -0.0034721   0.0026992  -0.0093186   -0.045697  -0.0076946   0.0043233
-0.038551   -0.011592  -0.0034721   -0.014516   -0.038551   -0.013541   -0.016789
-0.033679   -0.018738 -0.00087364   -0.011592    -0.03173   -0.024909   -0.034329
-0.030106    -0.02426   0.0088706  -0.0031473   -0.029457   -0.033354   -0.039201
-0.027833   -0.026209    0.016016   0.0017248   -0.033354   -0.036927   -0.033354
-0.027183   -0.028482    0.013093  0.00075039   -0.043748   -0.035628   -0.024585
-0.029782   -0.034329   0.0026992  -0.0037969   -0.054142   -0.034329   -0.019063
-0.036927   -0.039201  -0.0076946   -0.011267    -0.05804   -0.032705   -0.018738
-0.047971    -0.04115    -0.01549   -0.017764   -0.053817   -0.030106   -0.020362
-0.056741   -0.040175   -0.016789   -0.023285   -0.048296   -0.031081   -0.018413
-0.059664   -0.036927   -0.013541   -0.027508   -0.047646   -0.036278   -0.012892
-0.059014   -0.034329   -0.010618   -0.032705   -0.053492   -0.039526  -0.0057458
-0.056416   -0.032055  -0.0080194   -0.035953   -0.063237   -0.037577  -0.0018481
-0.050894   -0.028807  -0.0021729   -0.037252   -0.073306   -0.030756  -0.0054209
-0.040825   -0.022636   0.0046481   -0.038876     -0.0824    -0.02426    -0.01549
-0.028157    -0.01484    0.011144   -0.037902   -0.089546   -0.021337   -0.022961
-0.015815   -0.007045    0.014068   -0.032705   -0.094418   -0.022311   -0.021661
-0.008669  0.00042559    0.014717   -0.021012   -0.096042   -0.027183   -0.013866
-0.007045   0.0069217    0.015692  -0.0057458   -0.094743    -0.03303  -0.0044465
-0.0099683    0.013418    0.020888   0.0085458   -0.090196   -0.036278   0.0036737
-0.014516    0.020239    0.027385    0.019914   -0.084674   -0.036278   0.0091954
-0.018738    0.027709    0.029983     0.02641   -0.078503   -0.035628    0.013093
-0.019388    0.033231    0.022512    0.027709   -0.072656   -0.034978    0.011794
-0.014191     0.03453    0.012119    0.023812   -0.063237   -0.033354    0.008221
-0.0034721    0.029983   0.0056225    0.012443   -0.052518   -0.030431   0.0039985
0.0065969    0.025111   0.0062721  -0.0024977     -0.0405   -0.027508   0.0026992
0.012119    0.021213    0.009845   -0.019388   -0.029782   -0.029132   0.0072465
0.014392    0.022512    0.010495   -0.032055   -0.022311   -0.036278    0.016666
0.015042    0.029658   0.0085458   -0.036602   -0.018413   -0.045697    0.031932
0.013743    0.041676   0.0059473   -0.033679   -0.015815   -0.053492    0.044599
0.012443    0.059216   0.0065969   -0.027183   -0.011917   -0.053817    0.050446
0.01894    0.080653    0.011794   -0.013866  -0.0099683   -0.048945    0.051096
0.033231    0.099492    0.017316   0.0017248   -0.012892     -0.0405    0.048822
0.048497     0.10696    0.019914    0.016016   -0.019712   -0.031081    0.046223
0.059541     0.10014    0.018615    0.024786   -0.029132   -0.025234    0.047198
0.065712    0.082927    0.012119    0.026085     -0.0405   -0.020687    0.047198
0.065712    0.064088  0.00042559    0.022837   -0.052843   -0.017439    0.042001
0.06084    0.049147   -0.012567    0.015692   -0.064211   -0.013866    0.032582
0.050771    0.036154   -0.027833   0.0059473   -0.069408   -0.011267     0.01829
0.033231    0.027385     -0.0405  -0.0011985   -0.067784   -0.012567   0.0020496
0.013743    0.018615   -0.046996  -0.0057458   -0.059989    -0.01614  -0.0083442
-0.0031473   0.0085458   -0.048945  -0.0080194   -0.045372   -0.019388  -0.0076946
-0.013541  0.00042559   -0.047646  -0.0083442   -0.026209   -0.020687   0.0020496
-0.01549 -0.00054884   -0.045047  -0.0041217  -0.0044465   -0.020037    0.009845
-0.008669   0.0059473   -0.044073      0.0014   0.0078962    -0.01614    0.011794
-0.0011985    0.012443   -0.048296   0.0062721   0.0033489   -0.012567    0.012119
0.00010078    0.014717   -0.054142    0.009845   -0.019063  -0.0096434   0.0091954
-0.0044465    0.015367   -0.059014    0.014068   -0.053817  -0.0057458   0.0056225
-0.013866    0.016341   -0.062587    0.015692   -0.086298  -0.0028225    0.003024
-0.020687    0.016016   -0.065186    0.014392    -0.10644 -0.00087364   0.0010752
-0.021986    0.010495   -0.063561     0.01017    -0.11033 -0.00087364  -0.0031473
-0.013541   0.0020496   -0.054467   0.0036737    -0.10221 -0.00022403  -0.0093186
0.00042559  -0.0047713   -0.039201  -0.0041217   -0.090845  0.00042559   -0.012567
0.016991  -0.0093186   -0.022961   -0.010943   -0.081426 -0.00087364   -0.011917
0.029658   -0.008669  -0.0099683   -0.013541   -0.079802  -0.0067202   -0.010293
0.034855  -0.0018481 -0.00054884   -0.012567   -0.087272   -0.013216  -0.0083442
0.029983   0.0085458   0.0043233   -0.010618    -0.10221   -0.022636  -0.0057458
0.016991    0.015367    0.003024  -0.0093186    -0.11748   -0.031081 -0.00087364
0.0033489    0.015042    0.003024   -0.010943     -0.1295   -0.037902   0.0056225
-0.0067202     0.01017   0.0065969   -0.013541    -0.13989   -0.045372   0.0072465
-0.014191   0.0036737    0.012119   -0.014516    -0.14899   -0.051219   0.0046481
-0.015165  -0.0018481    0.014392   -0.010618    -0.14996   -0.052193 -0.00054884
-0.011917  -0.0047713    0.011144  -0.0021729    -0.13827   -0.044398  -0.0080194
-0.0047713  -0.0041217  0.00010078   0.0056225    -0.11813   -0.031081   -0.013541
0.0056225  -0.0021729   -0.012242   0.0095202    -0.09994   -0.017439   -0.013216
0.01764  -0.0031473   -0.020362   0.0075714   -0.087922  -0.0047713   -0.010943
0.025111  -0.0057458   -0.023935  0.00075039     -0.0824   0.0046481   -0.014516
0.027385   -0.012567   -0.027508  -0.0050961   -0.072656   0.0091954   -0.021337
0.025436   -0.021337   -0.029782  -0.0057458   -0.045697    0.008221   -0.025234
0.020564   -0.030756   -0.031406  0.00075039    0.014717   0.0062721   -0.022961
0.014717   -0.038551   -0.030756    0.014068     0.11086   0.0072465   -0.015815
0.011144     -0.0405   -0.024909    0.029983     0.22194    0.011794  -0.0034721
0.011469   -0.034978   -0.012892      0.0433     0.31646     0.01829   0.0072465
0.011144    -0.02361   0.0036737    0.051096     0.37558    0.024461    0.012119
0.01017   -0.011592    0.020239    0.050771     0.39117    0.027385   0.0088706
0.008221  -0.0044465    0.033556    0.045899     0.36713    0.025111   0.0020496
0.008221  -0.0034721    0.038753    0.038428     0.31419    0.023162  -0.0018481
0.0091954  -0.0099683    0.037454     0.03453     0.24695    0.027709  -0.0011985
0.0069217   -0.019712    0.033231    0.035505     0.18394    0.037778 -0.00022403
0.0046481   -0.027183    0.029009    0.042975     0.13035    0.048172   0.0010752
0.0046481    -0.03238     0.02706    0.054993    0.090072    0.054019   0.0043233
0.011469   -0.036927     0.02641    0.068635    0.064737    0.054993    0.012768
0.023487   -0.043099     0.02641    0.079679    0.061489    0.054993    0.024137
0.034855   -0.046996    0.024461    0.084551     0.08585    0.055968    0.036804
0.036479   -0.044398     0.01829    0.084551     0.14464    0.056292    0.046223
0.026085   -0.033679   0.0072465    0.080978     0.22974    0.054668    0.049147
0.0065969   -0.018413  -0.0047713    0.075131     0.31971     0.05272    0.045249
-0.010943  -0.0024977    -0.01549    0.067661     0.38013    0.051096    0.037454
-0.019712    0.009845   -0.023285    0.059216     0.39247    0.049796    0.029983
-0.021986    0.013743   -0.028807    0.050121     0.36616    0.047523    0.027709
-0.021012   0.0085458   -0.030756    0.042001     0.32913      0.0433    0.030308
-0.019712 -0.00087364   -0.026858    0.035505      0.2947    0.038428    0.030308
-0.016789  -0.0054209   -0.014516     0.02706     0.25572    0.036154    0.024137
-0.015165  -0.0037969   0.0036737    0.016991     0.20505    0.031932    0.017316
-0.017439   0.0075714    0.023487    0.008221     0.14334    0.025111    0.015042
-0.018738    0.024461    0.037454   0.0052977    0.079354    0.016341    0.020239
-0.01484    0.041351    0.042651   0.0088706    0.025111    0.008221    0.029009
-0.0057458     0.05207    0.033556    0.015042  -0.0067202   0.0036737    0.039078
-0.00087364    0.050121    0.011144    0.019914   -0.017114   0.0039985    0.041676
-0.0011985    0.041676   -0.011592    0.024461   -0.018738   0.0056225    0.036479
-0.0044465    0.032906   -0.026209    0.029983   -0.021986   0.0056225     0.02641
-0.007045    0.024786    -0.03173    0.033556   -0.033354  0.00042559    0.017965
-0.0073698    0.016666   -0.031406    0.031607   -0.052518   -0.008669    0.015367
-0.008669   0.0078962   -0.029457    0.024461   -0.079152    -0.01549    0.016666
-0.012892  0.00010078   -0.026858    0.013743    -0.11001   -0.014191    0.023487
-0.017764  -0.0047713   -0.021337    0.003024    -0.14249  -0.0054209     0.03518
-0.020687  -0.0047713   -0.008669   0.0010752     -0.1727   0.0078962    0.048822
-0.021337  -0.0037969   0.0091954   0.0036737    -0.19933    0.020239    0.057267
-0.020687  -0.0047713    0.024137   0.0088706    -0.22044    0.024461    0.057917
-0.018413  -0.0060706    0.027709   0.0085458    -0.23214    0.016991    0.050771
-0.01484  -0.0018481    0.019914  0.00042559    -0.23051 -0.00022403    0.041027
-0.010943   0.0095202   0.0046481  -0.0089938    -0.21427   -0.019063    0.032906
-0.0060706    0.022188   -0.008669    -0.01484    -0.19089    -0.03173    0.030308
0.0026992    0.029658   -0.012242   -0.015815    -0.16555   -0.033679    0.032906
0.012443    0.029009  -0.0080194   -0.010943    -0.13567   -0.029457    0.038428
0.01894    0.022512  -0.0034721  -0.0054209    -0.10189   -0.023285    0.041676
0.01894    0.015042  -0.0015233 -0.00087364    -0.06616   -0.021337    0.039727
0.013093     0.01017 -0.00054884  -0.0024977   -0.034329   -0.022961     0.03518
0.0049729   0.0069217  -0.0044465  -0.0099683   -0.018088   -0.025884     0.02706
-0.0015233   0.0017248   -0.012242    -0.02361   -0.025559   -0.027833    0.016666
-0.0057458  -0.0050961   -0.020362     -0.0405   -0.053492   -0.031081   0.0046481
-0.0083442   -0.011267   -0.022636   -0.056741   -0.088896   -0.034004  -0.0047713
-0.0089938   -0.014191   -0.017114    -0.06681    -0.11618   -0.037577   -0.008669
-0.010293   -0.014516  -0.0080194   -0.068758      -0.123   -0.041475  -0.0089938
-0.0083442   -0.011917 -0.00087364   -0.062912    -0.11228   -0.046347  -0.0089938
-0.0024977  -0.0096434   0.0020496   -0.057715   -0.089221    -0.04927  -0.0089938
0.0046481  -0.0080194   0.0017248   -0.056416   -0.063561   -0.047971  -0.0080194
0.0075714  -0.0024977  -0.0011985    -0.05804   -0.042774   -0.044398  -0.0096434
0.0091954   0.0065969  -0.0011985   -0.056741   -0.027508     -0.0405   -0.017764
0.010819    0.019589   0.0010752   -0.052193   -0.019063   -0.038876   -0.030756
0.013093    0.032582   0.0046481   -0.045047   -0.018088   -0.036927   -0.039526
0.014068    0.040702   0.0072465   -0.036927   -0.022961   -0.032055   -0.036602
0.011794     0.04395     0.01017   -0.031081    -0.03238   -0.023285   -0.030106
0.0069217    0.042326    0.014392   -0.026209   -0.044398   -0.011592   -0.023285
-0.0011985    0.036804     0.01894   -0.022311   -0.057715      0.0014   -0.020687
-0.0096434    0.030957    0.021213   -0.015815   -0.068109    0.012119   -0.020687
-0.013541     0.02706    0.021538   -0.010293   -0.069083    0.013418    -0.02361
-0.0080194    0.022188     0.02641  -0.0060706   -0.057065   0.0072465   -0.027833
0.0056225    0.015042    0.036479  -0.0047713   -0.035303  -0.0060706    -0.03238
0.024461   0.0085458    0.044924  -0.0034721   -0.012892   -0.021012    -0.03238
0.042001   0.0075714    0.049796  -0.0024977  -0.0028225    -0.03238   -0.028157
0.047847    0.013093    0.044599 -0.00087364   -0.012567   -0.034654   -0.021337
0.041351    0.024137    0.030308  0.00075039   -0.034654   -0.028157   -0.017439
0.029009     0.03453    0.011794   0.0026992   -0.057715   -0.017764   -0.019388
0.015692    0.039402  -0.0076946   0.0049729   -0.078827   -0.011592    -0.02426
0.009845    0.037129   -0.022636   0.0056225   -0.095068   -0.011592   -0.029457
0.010819    0.029658   -0.031081  0.00075039    -0.10774   -0.014516   -0.031406
0.016341     0.01764   -0.033354  -0.0044465     -0.1191   -0.018738    -0.03173
0.019914   0.0049729   -0.033679  -0.0057458     -0.1269   -0.025884   -0.033679
0.01894  -0.0080194   -0.033354 -0.00054884    -0.12657   -0.034654   -0.037252
0.013418   -0.019063   -0.030431   0.0062721    -0.11488   -0.041475   -0.038876
0.0078962   -0.026209   -0.021986    0.014068   -0.095393   -0.042774   -0.037252
0.0039985   -0.029457  -0.0067202    0.020239   -0.071357   -0.035953    -0.03303
0.0043233   -0.030106   0.0088706    0.020564   -0.047646   -0.026209   -0.028482
0.0065969   -0.030431    0.020888    0.015692   -0.027833   -0.017439    -0.02361
0.0088706   -0.029457    0.029333   0.0091954  -0.0096434  -0.0089938   -0.020037
0.010495   -0.026533    0.034855   0.0036737   0.0062721 -0.00022403   -0.019063
0.012119   -0.021986     0.03518  -0.0050961    0.013418   0.0046481   -0.018413
0.012768   -0.021012    0.028359   -0.015165   0.0072465   0.0059473   -0.019388
0.012768   -0.021661    0.016991    -0.02361  -0.0063954  0.00042559    -0.02426
0.011469   -0.020687   0.0017248   -0.028157   -0.020037  -0.0083442   -0.030431
0.01017   -0.022636   -0.013216   -0.027183    -0.03173   -0.015815   -0.033679
0.0078962   -0.026209   -0.023935   -0.020687   -0.039201   -0.019388   -0.031081
0.0026992   -0.029457    -0.03173   -0.010618   -0.041799    -0.01549   -0.022311
-0.0080194   -0.031081   -0.038551 -0.00022403   -0.037902  -0.0018481   -0.010618
-0.021012   -0.030106   -0.043423    0.008221   -0.028157    0.019589  -0.0011985
-0.028157   -0.027508   -0.044073    0.012443    -0.01484    0.039727   0.0072465
-0.027183   -0.024909   -0.038551    0.014392  -0.0011985    0.049472    0.010819
-0.021986   -0.021661   -0.029132    0.015367   0.0095202    0.045899   0.0091954
-0.016464   -0.018738   -0.017114    0.016016    0.016991    0.029009   0.0020496
-0.011592   -0.018413  -0.0089938     0.01764    0.019589    0.010495  -0.0096434
-0.0050961   -0.021661  -0.0083442    0.020239    0.015042  -0.0011985   -0.018413
0.0039985   -0.027833   -0.013216    0.023162   0.0072465  -0.0041217   -0.021986
0.015367   -0.034004   -0.018738     0.02706   0.0052977  -0.0028225   -0.018738
0.024786   -0.037252   -0.021337    0.032582    0.014717   0.0020496   -0.012242
0.02706   -0.035303   -0.020362    0.038103    0.031282    0.011469  -0.0057458
0.019264   -0.032055   -0.014516    0.039078    0.045899    0.022837  -0.0024977
0.0072465   -0.030106  -0.0028225    0.032906    0.050771    0.031282  -0.0028225
-0.0018481   -0.028807   0.0095202    0.019589    0.044275    0.033556  -0.0063954
-0.0044465   -0.025884    0.017965   0.0020496    0.032257    0.028359  -0.0080194
-0.0063954   -0.021661    0.021213    -0.01549    0.019264     0.01829   -0.007045
-0.0099683   -0.017439     0.01894   -0.025559   0.0091954   0.0059473  -0.0037969
-0.014191   -0.012242    0.013418    -0.02361   0.0033489   -0.008669  -0.0024977
-0.017439  -0.0050961    0.008221   -0.012892  -0.0021729    -0.02426  -0.0034721
-0.019388  -0.0018481   0.0049729  0.00010078   -0.010293     -0.0405  -0.0050961
-0.016464  -0.0021729   0.0059473    0.010495   -0.015165   -0.053492  -0.0031473
-0.0063954  -0.0034721   0.0085458    0.016016   -0.013216   -0.055441  -0.0015233
0.0075714  -0.0024977    0.012768    0.020564  -0.0050961   -0.046671  -0.0011985
0.016991   0.0010752    0.013418     0.02706   0.0020496    -0.03303  -0.0031473
0.018615   0.0095202    0.014717    0.034206    0.003024   -0.025884  -0.0024977
0.012768    0.021538     0.01764    0.037778  -0.0018481   -0.028157   0.0010752
0.0017248    0.036154    0.023812    0.038753  -0.0021729   -0.032705   0.0095202
-0.013216    0.050771    0.030633    0.038428    0.003024   -0.034978    0.022512
-0.029782     0.06084    0.037778    0.038103   0.0088706   -0.035628     0.03583
-0.042124    0.061165    0.047847    0.041351    0.012443   -0.034978    0.046873
-0.046671    0.054019     0.05207    0.049147    0.011469   -0.035303     0.05207
-0.042449     0.04395    0.047198    0.058566   0.0075714    -0.03303    0.053369
-0.03173    0.038103    0.033231    0.067011   0.0039985   -0.027833    0.051745
-0.018413     0.03583    0.017316    0.070909   0.0059473   -0.025559    0.050446
-0.0054209     0.03583   0.0091954    0.067986    0.010819   -0.026533    0.049147
0.00042559    0.038103     0.01017    0.061489    0.015367   -0.029782    0.047847
-0.00022403    0.044275    0.015042    0.050121    0.016341   -0.031081    0.046223
-0.0034721    0.050121    0.019914    0.039402    0.014068   -0.028482    0.045249
-0.0054209    0.051096     0.01894    0.029009    0.012443   -0.022636    0.044924
-0.0041217    0.049147    0.013743     0.01764    0.012768   -0.015815    0.044275
-0.00022403    0.047523   0.0069217   0.0046481    0.014717   -0.011917    0.041027
0.0052977    0.046873  -0.0021729  -0.0093186    0.017316   -0.013866    0.036479
0.0088706    0.048172   -0.011917   -0.020037    0.019589   -0.019388    0.030308
0.01017     0.05142   -0.020687   -0.024585    0.016341    -0.02361    0.025436
0.011794    0.054019   -0.027508   -0.024909     0.01017   -0.026209    0.022837
0.012443    0.055968    -0.03303   -0.022961   0.0020496   -0.027508    0.018615
0.009845    0.056292   -0.038551   -0.018413  -0.0041217   -0.025234    0.012119
0.0078962    0.050446   -0.044073  -0.0099683  -0.0083442   -0.021337   0.0056225
0.01017    0.040052   -0.046996  0.00010078   -0.012567    -0.01614   0.0046481
0.014392    0.028684   -0.043748   0.0088706   -0.016789  -0.0099683   0.0095202
0.017316    0.020888   -0.032705    0.016016   -0.022311  -0.0063954    0.016991
0.016991    0.019264   -0.017764    0.021863   -0.031081   -0.008669    0.022512
0.012768    0.022188   -0.008669    0.026085   -0.042124   -0.016789    0.022512
0.0069217    0.026085  -0.0050961    0.029009   -0.056416   -0.021337    0.016341
0.0026992    0.027385  -0.0067202    0.029009   -0.068109   -0.014516   0.0059473
-0.00022403     0.02641  -0.0080194    0.024461   -0.073631   0.0033489  -0.0054209
-0.0024977    0.021863   -0.008669    0.018615   -0.070382    0.021863    -0.01614
-0.0044465    0.013743  -0.0060706    0.013093   -0.060313    0.030957   -0.024585
-0.0054209   0.0023744  -0.0018481   0.0075714   -0.050894    0.029658   -0.030106
-0.0080194   -0.014191  -0.0028225      0.0014    -0.04862    0.022837   -0.029457
-0.011917   -0.031406   -0.008669  -0.0034721   -0.054467    0.019264   -0.021012
-0.011267   -0.039201   -0.015815  -0.0037969   -0.059989     0.01894  -0.0076946
-0.0015233    -0.03303   -0.020362   0.0033489   -0.056741    0.016666   0.0056225
0.012443   -0.018088   -0.022311    0.012768   -0.042124   0.0088706    0.012119
0.021863  -0.0011985   -0.020037    0.019264   -0.017439  -0.0041217    0.011144
0.024137    0.012119   -0.013541    0.025436   0.0091954   -0.020687   0.0078962
0.019914    0.024137  -0.0018481    0.034855    0.033881   -0.034329   0.0069217
0.012443    0.035505    0.017316     0.04395    0.056292   -0.039526   0.0056225
0.0078962    0.041351    0.036479    0.048172    0.074806   -0.036278    0.003024
0.0072465      0.0433    0.047523    0.047198    0.086175   -0.024909  0.00042559
0.0069217    0.042975    0.045574    0.039402    0.087474   -0.008669  0.00010078
0.0039985    0.040377    0.030633    0.026735    0.080978   0.0020496  0.00010078
0.0014    0.031282   0.0043233    0.010819    0.067011   0.0023744  0.00042559
0.0023744    0.018615    -0.02426  -0.0060706    0.049796   -0.007045   0.0026992
0.0039985   0.0052977   -0.047646   -0.020687    0.031932   -0.018738   0.0078962
0.003024  -0.0044465   -0.063237   -0.029782     0.01894   -0.024585    0.015692
0.00075039   -0.010293   -0.071032   -0.030756    0.010819   -0.022961    0.021863
-0.0018481   -0.010618   -0.071032   -0.024909   0.0088706    -0.01484    0.029333
-0.0047713   -0.008669   -0.065835   -0.013866   0.0078962  -0.0011985    0.035505
-0.010618  -0.0083442   -0.057715  0.00010078   0.0020496    0.012443    0.040702
-0.013866   -0.010618   -0.048945    0.012768   -0.011267     0.01764    0.042326
-0.011267   -0.014191   -0.038227     0.01894   -0.030756    0.012443    0.037778
-0.0041217   -0.015815   -0.027833     0.01829   -0.049595 -0.00087364    0.027709
0.0026992   -0.015165   -0.020037    0.013743   -0.060313   -0.015815    0.015692
0.0085458   -0.012892   -0.017114   0.0085458   -0.060963   -0.026209   0.0046481
0.012768   -0.010943    -0.01614   0.0043233   -0.053492   -0.029457  -0.0011985
0.015367   -0.011592    -0.01549    0.003024     -0.0405   -0.022311  -0.0067202
0.015692   -0.014516   -0.010618   0.0043233   -0.020037  -0.0063954   -0.015165
0.016016   -0.020362  -0.0034721   0.0017248    0.013093    0.011794   -0.026209
0.013093   -0.028807 -0.00022403  -0.0018481    0.061165    0.028684   -0.033679
0.0046481   -0.034654  -0.0024977  -0.0054209     0.10891    0.041027    -0.03173
-0.0054209   -0.034978  -0.0073698  -0.0057458     0.14107    0.045249   -0.022311
-0.011917   -0.030431   -0.014191 -0.00087364     0.14854    0.041676  -0.0093186
-0.012892   -0.026533   -0.021986   0.0095202     0.13165    0.033231  0.00075039
-0.011917    -0.02426   -0.028482    0.022512     0.10079    0.020888    0.003024
-0.011267   -0.022636   -0.026858    0.033556    0.070909   0.0039985  -0.0037969
-0.011267   -0.017764   -0.014191    0.039727    0.049147   -0.014191   -0.013216
-0.0099683   -0.012567   0.0043233    0.040702    0.034206   -0.027183   -0.018738
-0.010943   -0.008669    0.018615    0.037129    0.023162   -0.024585   -0.018738
-0.012892  -0.0047713    0.024786    0.032582    0.015692   -0.013216  -0.0089938
-0.014191  -0.0063954    0.023162    0.030633    0.013093  -0.0031473   0.0069217
-0.013541   -0.013541    0.016341    0.027709    0.014068 -0.00054884    0.024137
-0.011917   -0.019388    0.008221    0.020888    0.014392  -0.0044465    0.039402
-0.0080194   -0.022311   0.0026992    0.015042    0.011469   -0.012242    0.047847
-0.0047713    -0.02361  0.00042559    0.012768   0.0036737   -0.020687    0.045899
-0.0067202   -0.022636  0.00010078    0.015367  -0.0057458   -0.028482    0.034206
-0.013216   -0.014516    0.003024    0.019264   -0.012567   -0.034654     0.01764
-0.020362  -0.0021729   0.0095202    0.019264   -0.012892   -0.037902   0.0043233
-0.025234   0.0095202    0.021213    0.013418  -0.0063954   -0.036602  -0.0015233
-0.025234    0.016341    0.034855   0.0062721      0.0014   -0.032055  0.00042559
-0.021012     0.01764    0.045574    0.003024   0.0078962   -0.026858   0.0062721
-0.012242    0.013418    0.048172   0.0069217     0.01017   -0.025884    0.013093
-0.0054209   0.0075714    0.044599    0.013743   0.0059473   -0.027183    0.016666
-0.0060706   0.0026992    0.040052    0.015692  -0.0047713   -0.032705    0.013093
-0.013216   0.0065969    0.035505    0.012768   -0.017764   -0.040825   0.0056225
-0.021661    0.016341    0.032257   0.0049729   -0.029132   -0.044398   0.0010752
-0.026858    0.028359    0.027709  -0.0015233   -0.036927   -0.039851   0.0033489
-0.029132    0.040052    0.021213  -0.0021729     -0.0405   -0.030106     0.01017
-0.027508    0.047198    0.011144   0.0033489   -0.046671   -0.018413    0.016016
-0.018738    0.048822  -0.0047713    0.014717   -0.056091   -0.010293    0.015367
-0.0083442    0.048172   -0.021012    0.025761   -0.067134   -0.007045   0.0049729
0.00075039    0.048822   -0.030431    0.031932   -0.075255  -0.0073698  -0.0080194
0.008221    0.053369   -0.030431    0.029658    -0.08305   -0.007045   -0.019712
0.016016    0.059541   -0.024585    0.023162   -0.093444  -0.0037969   -0.024585
0.022837    0.065062    -0.01549    0.014717    -0.11066   0.0033489   -0.022636
0.02641    0.066037  -0.0057458   0.0085458    -0.13827   0.0091954   -0.021661
0.025436    0.063438   0.0036737   0.0078962    -0.17335    0.009845   -0.022311
0.023812    0.057267   0.0095202    0.013093    -0.21102   0.0078962   -0.024909
0.020564    0.046873   0.0088706    0.021213    -0.23928   0.0052977   -0.027508
0.017316    0.029009   0.0026992    0.028359    -0.24935   0.0039985   -0.027833
0.014068   0.0043233  -0.0037969     0.02706    -0.23571   0.0039985   -0.025559
0.0088706   -0.016789  -0.0096434     0.01829     -0.2029    0.008221   -0.020687
-0.0015233   -0.030431    -0.01614   0.0043233    -0.15548    0.012443   -0.017114
-0.01614   -0.032705   -0.018413  -0.0080194    -0.10026    0.011144   -0.021012
-0.026533   -0.025559   -0.014191   -0.011917   -0.043099   0.0036737   -0.031081
-0.026533   -0.013866  -0.0037969  -0.0041217   0.0078962  -0.0041217    -0.04115
-0.014516 -0.00022403   0.0078962   0.0072465    0.045899  -0.0054209   -0.044723
0.00010078    0.012119    0.016666    0.017965    0.066362 -0.00054884   -0.038876
0.0075714    0.021863    0.022188    0.021213    0.066686   0.0069217   -0.028807
0.0075714    0.025111    0.023487    0.016991    0.054344    0.015367   -0.025234
0.0052977    0.021538    0.017965   0.0039985    0.036479    0.022512   -0.031081
0.0059473    0.015692   0.0062721   -0.010293     0.01764    0.023812   -0.040175
0.0088706    0.015367   -0.007045   -0.019388   0.0043233    0.019589   -0.050894
0.011794    0.022188   -0.013216   -0.023285 -0.00087364    0.009845   -0.056091
0.013093    0.032906  -0.0096434   -0.022311  -0.0011985  -0.0021729   -0.055766
0.013743      0.0433 -0.00054884   -0.016789  -0.0018481   -0.015165   -0.049595
0.016341    0.050446   0.0075714  -0.0037969  -0.0034721   -0.022961   -0.039851
0.021863    0.053044   0.0095202    0.013743  0.00042559    -0.02361   -0.025234
0.027385    0.050121   0.0062721    0.026735    0.011794   -0.016789  -0.0076946
0.031282    0.042975   0.0020496    0.026085    0.030308  -0.0024977   0.0059473
0.035505     0.03453      0.0014    0.015042     0.05142    0.012119    0.011469
0.039402     0.02641   0.0062721   0.0010752    0.067661    0.022512    0.011144
0.039727    0.017316    0.011794   -0.010293    0.072208     0.02706   0.0075714
0.037778   0.0049729    0.011794   -0.018088    0.056617     0.02706   0.0036737
0.032257   -0.010293   0.0059473   -0.026858    0.023162    0.025436  0.00075039
0.025111   -0.023935  -0.0018481   -0.032705   -0.020362    0.020564 -0.00087364
0.017965   -0.034329  -0.0089938   -0.037577   -0.059339    0.011469  -0.0034721
0.012768   -0.039526   -0.017439   -0.040175   -0.084999  -0.0028225  -0.0089938
0.0091954   -0.037252   -0.026533   -0.039201   -0.092794   -0.015165   -0.014191
0.0049729   -0.027508   -0.033354   -0.034329   -0.087597   -0.021012   -0.017114
0.0023744   -0.015815   -0.033679   -0.026209   -0.078827   -0.019063   -0.012892
0.0023744  -0.0076946   -0.029132   -0.017114   -0.072006   -0.013541  -0.0024977
-0.0015233  -0.0024977   -0.018738  -0.0099683   -0.069733  -0.0093186    0.010819
-0.010293   0.0010752  -0.0063954   -0.007045   -0.072656   -0.007045    0.021863
-0.018738   0.0026992   0.0062721   -0.007045   -0.074605  -0.0083442    0.027385
-0.020037    0.003024     0.01829   -0.007045   -0.071682  -0.0083442    0.027709
-0.013866   0.0043233    0.028034  -0.0080194   -0.058365   -0.007045    0.024137
-0.0047713   0.0059473    0.029333  -0.0099683   -0.034004   -0.007045    0.016666
0.0014   0.0043233    0.023162   -0.014191   0.0023744  -0.0067202   0.0085458
0.0052977  -0.0015233    0.013093   -0.018088    0.050446  -0.0044465   0.0043233
0.0091954  -0.0080194   0.0023744   -0.020362     0.11346 -0.00054884   0.0020496
0.011794   -0.014516  -0.0089938   -0.021012     0.18914    0.003024  0.00042559
0.0088706   -0.020362   -0.020037   -0.019712     0.26319   0.0026992  -0.0034721
-0.0018481   -0.022961   -0.027508   -0.019063     0.31224  -0.0041217  -0.0093186
-0.018738   -0.022311    -0.03238   -0.019063     0.32101   -0.012892   -0.017114
-0.037252   -0.021337   -0.034329   -0.019063     0.29178   -0.018413   -0.021012
-0.04862   -0.025234   -0.035303   -0.020037     0.23656   -0.020037   -0.018088
-0.04927    -0.03303   -0.034329   -0.021661     0.17322   -0.019388  -0.0073698
-0.040175   -0.040825   -0.027508   -0.022311      0.1219   -0.018088   0.0046481
-0.023285   -0.041475    -0.01614   -0.020687     0.08585   -0.016464    0.014392
-0.0054209   -0.035303  -0.0047713    -0.01549    0.056942   -0.014191    0.019589
0.0091954   -0.024909   0.0036737  -0.0099683    0.028034  -0.0096434    0.021863
0.021213    -0.01614    0.012119  -0.0047713  -0.0047713  -0.0034721     0.02641
0.027709  -0.0089938    0.022837      0.0014     -0.0405  -0.0015233    0.031282
0.02706  -0.0018481     0.03583   0.0059473   -0.075904  -0.0054209    0.037129
0.018615   0.0039985    0.047198    0.009845    -0.10774   -0.012892    0.040702
0.0052977   0.0095202    0.053044    0.014717    -0.13469   -0.019712    0.037129
-0.0093186    0.011469    0.051096     0.01894    -0.15223   -0.024585     0.02641
-0.018088   0.0085458    0.042975    0.021863    -0.15711   -0.026858    0.013418
-0.019388   0.0043233    0.033881    0.024786    -0.14509   -0.022961   0.0033489
-0.01484   0.0023744     0.02641    0.024137     -0.1191   -0.015815  -0.0031473
-0.0083442   0.0059473    0.017965    0.022188   -0.087597   -0.008669  -0.0021729
-0.0050961    0.014068   0.0072465    0.017316   -0.063561  -0.0021729    0.003024
-0.013866    0.020888  -0.0041217   0.0095202   -0.055116   0.0036737   0.0043233
-0.032055    0.019264   -0.011917   0.0020496   -0.059989   0.0075714   0.0023744
-0.046022    0.012768   -0.015815  -0.0021729   -0.069083    0.011794 -0.00054884
-0.046671    0.008221   -0.015165  -0.0018481    -0.07428    0.017965  -0.0018481
-0.03173    0.009845  -0.0096434   0.0017248   -0.069733    0.019589  -0.0031473
-0.0067202    0.016016  -0.0047713   0.0065969   -0.056741    0.015367  -0.0050961
0.01894    0.023487  -0.0060706    0.012119   -0.037577    0.008221   -0.007045
0.033231    0.024461   -0.014516    0.015692   -0.019388  -0.0021729  -0.0076946
0.027709    0.016991   -0.024585    0.015042  -0.0044465   -0.014516   -0.010618
0.01017   0.0043233   -0.032705    0.014392     0.01017    -0.02426   -0.016464
-0.011267  -0.0060706   -0.035953    0.014392    0.023487    -0.03238   -0.024909
-0.026533   -0.010943   -0.034004    0.011469     0.03453   -0.035953   -0.034004
-0.03173   -0.010943   -0.026858   0.0095202    0.039078   -0.036927   -0.036602
-0.023935   -0.008669   -0.016464    0.014392    0.039402   -0.034329   -0.029782
-0.0093186  -0.0044465  -0.0041217    0.022512    0.038753   -0.027833   -0.019388
0.0065969   0.0052977   0.0091954    0.030957    0.039078   -0.020362   -0.011267
0.01764    0.017965    0.020564    0.038103    0.047523   -0.017764  -0.0050961
0.022188    0.028359    0.029333     0.04395    0.067011   -0.017764  0.00075039
0.024137    0.032906    0.031282    0.049147    0.090722   -0.017114   0.0065969
0.024461    0.032257    0.029333    0.054993     0.10534   -0.015165    0.012119
0.023162    0.029333     0.02641    0.061489    0.096893  -0.0096434    0.014068
0.025111    0.022512    0.022188    0.064413    0.063113  -0.0015233    0.012768
0.032582    0.015042    0.020564    0.064737    0.016341   0.0095202    0.009845
0.039078    0.008221    0.020888    0.059216   -0.020037    0.017965   0.0095202
0.040377   0.0020496    0.019914    0.047523   -0.027508    0.023487    0.013093
0.036804  -0.0015233    0.019914    0.030308  -0.0067202    0.023487    0.017965
0.029333  -0.0073698    0.021863    0.015042    0.024461    0.021538    0.024137
0.01894   -0.014191    0.025436   0.0046481     0.05207     0.01894    0.030957
0.0049729   -0.017114    0.028359 -0.00054884    0.064737    0.013418     0.03518
-0.008669   -0.012892    0.030308 -0.00087364    0.052395   0.0069217    0.034206
-0.018088  -0.0028225    0.030957 -0.00022403    0.018615  0.00042559     0.02706
-0.020687   0.0078962    0.029983  0.00075039   -0.027508  -0.0044465     0.01764
-0.017439    0.015692    0.030633  0.00010078   -0.071357  -0.0083442    0.011469
-0.011592     0.01829    0.031282  -0.0021729    -0.10189   -0.008669    0.011794
-0.0089938     0.01894    0.028684  -0.0031473    -0.12398   -0.008669     0.01894
-0.010618    0.016991    0.026085   0.0010752    -0.14087   -0.013541    0.024137
-0.013216    0.011144    0.027709   0.0069217    -0.15808   -0.020037    0.022837
-0.015165   0.0036737    0.033881     0.01017    -0.17562   -0.025884    0.019914
-0.017439  -0.0037969    0.038103   0.0075714    -0.19154   -0.030756    0.019264
-0.017439  -0.0041217    0.037778  0.00075039    -0.20485   -0.036278    0.021863
-0.010943   0.0046481     0.03583  -0.0063954    -0.21005   -0.040175    0.029009
0.0014    0.021213    0.033881  -0.0093186    -0.20713   -0.042124    0.036154
0.010819    0.036479    0.031932  -0.0096434    -0.19608   -0.042774    0.037454
0.012119    0.044924     0.02706  -0.0067202    -0.17854   -0.044398    0.030308
0.0046481    0.044275    0.015692  -0.0028225    -0.15776   -0.042449     0.01894
-0.008669    0.036479   0.0010752  -0.0021729    -0.13989   -0.033679    0.009845
-0.019712    0.024137  -0.0093186  -0.0041217    -0.13145   -0.018738   0.0065969
-0.021986    0.012768   -0.016789  -0.0060706    -0.13112  -0.0018481    0.008221
-0.017764   0.0056225   -0.023285  -0.0073698    -0.13177   0.0085458    0.012119
-0.0089938      0.0014   -0.030756  -0.0067202    -0.12787   0.0065969    0.016991
-0.0011985 -0.00087364   -0.039526  -0.0031473    -0.11456  -0.0060706    0.021538
0.0014  -0.0047713   -0.052518   0.0017248    -0.09182   -0.020037    0.021863
0.0020496   -0.012567    -0.06616   0.0062721   -0.061288   -0.030756    0.016016
0.00075039    -0.02426   -0.078178   0.0065969   -0.026858   -0.036927   0.0095202
-0.0031473   -0.036927   -0.084674  0.00042559   0.0036737   -0.037252   0.0033489
-0.0073698   -0.047646   -0.084349  -0.0083442    0.023812   -0.029782   0.0020496
-0.012567   -0.055116   -0.079477   -0.012892    0.034206   -0.017114   0.0026992
-0.016789   -0.055116   -0.070382   -0.011267    0.038753 -0.00054884   0.0059473
-0.017439   -0.048945   -0.060313  -0.0037969    0.042975    0.013418   0.0088706
-0.012242   -0.039526   -0.049595   0.0095202    0.054668     0.01894    0.011794
0.00010078   -0.029457   -0.038876    0.023162    0.071234    0.016666    0.013418
0.014068    -0.02361   -0.027183     0.03518      0.0852   0.0095202    0.012443
0.025111   -0.022311   -0.020687    0.044275    0.093645  0.00042559    0.011794
0.029658   -0.022961   -0.017439     0.05272     0.10729  -0.0060706    0.013743
0.028684   -0.021337   -0.015165     0.06084     0.14496  -0.0044465    0.018615
0.026085   -0.017439  -0.0099683    0.071234      0.2109   0.0091954    0.024786
0.025436   -0.012892      0.0014    0.080328     0.28626     0.02706    0.028034
0.024786  -0.0080194    0.016991      0.0852     0.33693    0.039727    0.029009
0.022837  -0.0037969    0.029009    0.083901     0.33823    0.041027     0.02641
0.017316  0.00042559    0.033881    0.078704     0.28918    0.033881    0.022512
0.010495   0.0010752    0.032257     0.06831     0.21123    0.024461    0.015042
0.0023744  -0.0021729    0.023487    0.054019      0.1284    0.012443     0.01017
-0.007045   -0.008669   0.0069217    0.038103     0.06019 -0.00054884   0.0069217
-0.013866   -0.010943   -0.010618    0.025436    0.017965  -0.0089938   0.0052977
-0.014191   -0.007045   -0.024585     0.01829    0.003024   -0.014191   0.0036737
-0.0099683 -0.00054884   -0.027833    0.018615   0.0065969    -0.01614      0.0014
-0.0037969   0.0056225   -0.017114    0.026735    0.014068   -0.018413 -0.00022403
0.0023744   0.0095202   0.0036737    0.036804    0.011469   -0.020687   0.0010752
0.0056225    0.014717    0.022512    0.046548  -0.0034721   -0.020687    0.003024
0.0078962    0.023162    0.030633    0.051745   -0.025234   -0.020687   0.0023744
0.0039985    0.030957     0.02641    0.050771   -0.045372   -0.019388  -0.0067202
-0.0021729    0.036804    0.014392    0.043625   -0.052518   -0.013541   -0.024585
-0.010618    0.041351   0.0056225    0.030957   -0.038551  -0.0028225   -0.045372
-0.01484    0.042975  0.00042559    0.016341  -0.0021729    0.010819   -0.059014
-0.013866     0.04395  -0.0054209   0.0056225    0.048822    0.023487   -0.061288
-0.0083442     0.04395   -0.014191  -0.0015233    0.099817    0.028359   -0.053492
0.00075039    0.038753   -0.022961  -0.0073698     0.12872    0.020239   -0.045372
0.01017    0.027385   -0.026858   -0.011917      0.1245   0.0069217   -0.042124
0.015042    0.012768    -0.02426   -0.011917     0.09462  -0.0050961   -0.041799
0.010819  0.00010078   -0.017439  -0.0076946    0.053694  -0.0096434   -0.040175
0.0014  -0.0093186  -0.0099683  -0.0031473     0.01764  -0.0047713   -0.034978
-0.0099683   -0.011592  -0.0063954 -0.00022403   -0.008669    0.003024    -0.02361
-0.019388  -0.0041217  -0.0050961    0.003024   -0.031081   0.0075714  -0.0073698
-0.028157   0.0088706  -0.0054209   0.0062721   -0.055766   0.0043233   0.0078962
-0.031081    0.019914  -0.0047713    0.010819   -0.088247  -0.0024977    0.016991
-0.027508    0.027709 -0.00054884    0.014392    -0.11813  -0.0073698    0.020564
-0.017764    0.032582   0.0020496    0.013743    -0.13437   -0.007045    0.018615
-0.0057458    0.033556      0.0014   0.0072465    -0.13469  -0.0011985    0.012119
0.0075714    0.031932  -0.0041217  -0.0011985    -0.11943    0.008221   0.0059473
0.019264    0.028684    -0.01549  -0.0076946   -0.094093    0.014717   0.0039985
0.029333    0.024137   -0.027183   -0.011917   -0.067459    0.014068   0.0069217
0.037129    0.020239   -0.036927   -0.014516   -0.045372   0.0075714    0.012768
0.044275    0.020888   -0.043748   -0.017764    -0.03303  -0.0028225    0.019589
0.05207    0.023812   -0.048945   -0.022961    -0.03238   -0.015815    0.023487
0.058241    0.029658   -0.050244   -0.029457   -0.044723   -0.029782    0.022837
0.058566    0.031607    -0.04992   -0.037252   -0.067784     -0.0405    0.017965
0.049472    0.027709   -0.044723   -0.040175   -0.095393   -0.045372    0.013743
0.030308    0.019264   -0.034978   -0.035303    -0.11748   -0.049595    0.010819
0.009845    0.010819   -0.019063   -0.020362    -0.12722   -0.053168   0.0075714
-0.0047713   0.0026992   0.0033489 -0.00054884      -0.123   -0.054467  0.00042559
-0.010618  -0.0047713    0.023487    0.016341    -0.10579   -0.051219   -0.013216
-0.010943   -0.010293    0.033231     0.02706   -0.081426   -0.043423   -0.030431
-0.010293   -0.014191    0.031932    0.030633   -0.055766   -0.038551   -0.042774
-0.0099683    -0.01484    0.023487    0.027709   -0.036602   -0.041799   -0.043423
-0.008669   -0.011917    0.015367    0.023162   -0.028807   -0.054142   -0.034978
-0.0057458  -0.0073698    0.011469    0.017965   -0.034004   -0.066485   -0.017764
-0.0024977  0.00042559   0.0088706    0.013418   -0.046347   -0.071357   0.0020496
-0.0018481     0.01017    0.008221   0.0072465   -0.060313   -0.069408    0.017316
-0.0018481    0.018615   0.0065969  -0.0031473   -0.071357   -0.064536    0.023162
-0.0031473    0.022512   0.0010752    -0.01549   -0.078503   -0.057715     0.01764
-0.0050961    0.019589   -0.011267   -0.023935   -0.084349   -0.049595   0.0052977
-0.0089938    0.012443   -0.028807   -0.027508   -0.081751    -0.04115  -0.0076946
-0.01484    0.008221   -0.044398   -0.027183   -0.069408    -0.03303   -0.016789
-0.021986   0.0065969   -0.049595   -0.026209   -0.053492   -0.025884   -0.022311
-0.025884   0.0056225   -0.042774   -0.028807   -0.036278   -0.021986    -0.02426
-0.019063   0.0033489   -0.028807    -0.03303   -0.020037   -0.021661   -0.022961
-0.0047713  0.00075039    -0.01549   -0.037902  -0.0093186   -0.020687   -0.017114
0.0095202   0.0017248  -0.0093186   -0.041475  -0.0047713   -0.020687  -0.0076946
0.013418   0.0046481   -0.010618   -0.041475  -0.0041217   -0.026209   0.0010752
0.0043233   0.0075714   -0.014191   -0.037902  -0.0067202   -0.033354   0.0095202
-0.012242   0.0091954   -0.018088   -0.029782  -0.0067202   -0.038227    0.014392
-0.025559    0.011144   -0.021337   -0.018738  -0.0034721   -0.038876     0.01764
-0.03238    0.012119   -0.023285   -0.008669   0.0017248   -0.035303    0.017965
-0.030431    0.010819    -0.02361  -0.0044465   0.0056225   -0.025884    0.017316
-0.022961   0.0078962   -0.024585  -0.0054209   0.0056225   -0.017439    0.016341
-0.013541   0.0043233   -0.027183   -0.008669 -0.00087364   -0.012892    0.018615
-0.00087364 -0.00054884   -0.030431   -0.013866    -0.01484  -0.0083442    0.020888
0.012119  -0.0037969   -0.033679   -0.020037    -0.03303  -0.0018481    0.018615
0.022837  -0.0060706   -0.036602   -0.025559   -0.052193   0.0039985    0.012768
0.028034   -0.007045   -0.039851   -0.025559   -0.067134   0.0046481   0.0088706
0.027385  -0.0093186   -0.044723   -0.018738   -0.074605  -0.0011985    0.011469
0.025111   -0.012567    -0.04992   -0.010293   -0.076554   -0.010293    0.017316
0.023162   -0.011267   -0.051219  -0.0067202   -0.072331   -0.018088    0.024137
0.019914  -0.0054209   -0.048296  -0.0083442   -0.063886   -0.022311    0.025111
0.012443   0.0046481   -0.037902   -0.010618   -0.053817   -0.024585    0.019264
-0.0024977    0.016991   -0.024585   -0.012242   -0.046996   -0.027833    0.008221
-0.017439    0.029009  -0.0096434   -0.016464   -0.044723   -0.030106  -0.0015233
-0.027508    0.036479   0.0036737   -0.021661   -0.045372   -0.028157  -0.0080194
-0.029132    0.037454    0.013743   -0.024909   -0.048296   -0.025559  -0.0060706
-0.025884    0.033881    0.021863   -0.020362   -0.055116    -0.02361   0.0062721
-0.020687    0.029333    0.026735  -0.0083442   -0.064536   -0.021986    0.023162
-0.013216     0.02706    0.027385   0.0043233    -0.07428   -0.020687    0.036154
-0.0044465     0.02706    0.028684    0.013093   -0.079802   -0.017764    0.041676
0.0039985    0.028359    0.034855    0.016666   -0.076879   -0.011267    0.042326
0.0088706    0.027709    0.046873    0.017316   -0.056091  -0.0050961    0.040052
0.012443    0.025436    0.058566    0.020564   -0.016789  -0.0057458    0.041027
0.016341    0.020239    0.064413     0.02706    0.029658   -0.012892    0.045899
0.016666    0.013093    0.061814     0.03518    0.063438   -0.019063     0.05207
0.011144   0.0062721    0.054019    0.041027    0.071234   -0.013866    0.052395
0.0033489   0.0026992      0.0433      0.0433     0.05207  0.00075039    0.045899
-0.0028225   0.0043233    0.030308    0.040377    0.018615    0.015367     0.03453
-0.0028225   0.0075714    0.017965    0.031282   -0.016789    0.020239    0.021538
0.00010078   0.0095202    0.009845    0.016666   -0.041475    0.015367   0.0095202
0.0088706   0.0059473   0.0062721   0.0023744   -0.052193   0.0026992  0.00042559
0.021538  -0.0015233   0.0062721  -0.0057458    -0.04927  -0.0099683  -0.0028225
0.030957   -0.011917   0.0046481  -0.0083442   -0.038551    -0.01614  0.00042559
0.030633   -0.021337  0.00075039   -0.008669   -0.024585   -0.015165    0.011794
0.023162   -0.026533  -0.0021729  -0.0083442   -0.013866   -0.011592    0.023162
0.015042   -0.022961  -0.0021729  -0.0093186  -0.0083442   -0.010293    0.023487
0.0085458   -0.012567   0.0020496   -0.007045  -0.0054209   -0.013541    0.011794
0.003024  0.00075039   0.0072465  -0.0037969  -0.0057458   -0.017764  -0.0073698
-0.0028225    0.008221    0.014392    0.003024  -0.0050961   -0.019063   -0.022311
-0.0060706   0.0062721    0.022512     0.01017  -0.0028225   -0.015165   -0.029782
-0.0060706  -0.0015233    0.029983    0.016666 -0.00087364   -0.011267   -0.032705
-0.0011985   -0.007045    0.032906    0.019264  0.00042559  -0.0089938   -0.033354
0.008221  -0.0063954    0.030633    0.019589   0.0062721   -0.013866   -0.031406
0.014717  0.00042559    0.022512    0.020239     0.01894   -0.021986   -0.026209
0.014717    0.009845    0.012443    0.023162    0.039727   -0.027833   -0.022961
0.012443    0.019264   0.0026992     0.02641     0.06896   -0.027183   -0.022311
0.013093    0.026735  -0.0050961    0.028034    0.098193   -0.019063   -0.022961
0.018615    0.030957   -0.010293    0.028359     0.12093  -0.0073698    -0.02426
0.022188    0.033881   -0.013866    0.027385     0.12807   0.0046481   -0.022961
0.018615     0.03453    -0.01484    0.024137     0.11736    0.017316   -0.018413
0.0075714    0.030633   -0.012242    0.017316    0.095919    0.028359   -0.013216
-0.0067202     0.01894  -0.0093186   0.0091954    0.070584    0.034206  -0.0076946
-0.018088   0.0033489   -0.010293  0.00010078    0.045249    0.032906  -0.0050961
-0.02361  -0.0089938   -0.014516   -0.010293    0.023812    0.026735  -0.0076946
-0.021661   -0.012892   -0.018088    -0.01549    0.010495     0.01894   -0.015165
-0.013866   -0.010943   -0.019712   -0.010943   0.0043233   0.0091954   -0.022636
-0.0096434  -0.0057458   -0.018413  -0.0015233 -0.00022403   0.0017248   -0.026858
-0.012567  0.00042559   -0.018413    0.010819  -0.0067202  0.00075039   -0.028482
-0.020037   0.0039985   -0.022636    0.022837   -0.014191    0.008221   -0.030106
-0.023935   0.0039985   -0.027833     0.03518   -0.022636    0.024137    -0.03173
-0.02361   0.0052977   -0.028807    0.045249   -0.029782    0.039402   -0.034329
-0.018738   0.0085458   -0.020362    0.048497   -0.036927    0.042651   -0.036602
-0.0093186    0.012768  -0.0041217      0.0433   -0.038227    0.031607   -0.035303
0.00075039     0.01764    0.016666    0.036154   -0.031081    0.012768   -0.032055
0.0075714    0.022837    0.036479    0.028034   -0.021661  -0.0050961   -0.027508
0.0095202    0.026735    0.049796    0.020888   -0.013866    -0.01484   -0.022636
0.0075714    0.030308    0.055968    0.013743   -0.007045   -0.012892    -0.01484
0.0017248    0.032257    0.057917   0.0056225  -0.0021729  0.00010078   -0.007045
-0.007045    0.030308    0.059216  -0.0034721 -0.00054884    0.013743  -0.0054209
-0.015165    0.024137    0.057917   -0.011917 -0.00054884    0.021213  -0.0080194
-0.017764    0.017965     0.05142   -0.010293   0.0033489    0.022512   -0.010293
-0.01614    0.013743    0.042001  0.00042559     0.01894    0.022837   -0.010943
-0.010293    0.010495    0.032906    0.016341    0.057917    0.029333   -0.010943
-0.0028225   0.0043233    0.021538    0.033231     0.12255      0.0433  -0.0099683
0.0036737  -0.0067202   0.0062721    0.050446     0.21382    0.058566   -0.010618
0.0072465   -0.023285    -0.01614    0.066037     0.32101    0.071883   -0.015165
0.0069217     -0.0405   -0.041799    0.076431      0.4165    0.079029   -0.021337
0.0039985   -0.051544   -0.059664    0.078055     0.46587    0.078055   -0.022311
0.00075039   -0.055441   -0.061937     0.06961     0.44574    0.067011   -0.014191
-0.0021729   -0.056416   -0.051219    0.053044     0.35479    0.051745  -0.0018481
-0.0037969   -0.055441   -0.035303    0.033231     0.21902     0.03453    0.011794
-0.0041217   -0.053817   -0.019063    0.015042     0.07708    0.019589    0.021863
-0.0018481   -0.046671  -0.0083442  -0.0018481   -0.040825    0.010819    0.028034
0.00010078   -0.035628  -0.0041217    -0.01484    -0.12073   0.0078962    0.027385
-0.0028225   -0.025559  -0.0021729   -0.022961    -0.16555    0.011469    0.019589
-0.0083442   -0.018413   0.0010752    -0.02361    -0.18536    0.017316    0.008221
-0.012892    -0.01614   0.0069217   -0.018738    -0.19608    0.021213  -0.0024977
-0.012567   -0.017114    0.016341  -0.0080194     -0.2055    0.016016  -0.0096434
-0.0099683   -0.017764     0.02641   0.0056225    -0.21135   0.0046481  -0.0093186
-0.0018481    -0.01549    0.036479    0.019264     -0.2055  -0.0063954  -0.0021729
0.0046481  -0.0083442    0.042975    0.032257    -0.18731    -0.01549   0.0091954
0.0059473   0.0039985    0.041676      0.0433    -0.16588   -0.023285    0.017316
0.00075039    0.016016     0.03453    0.048822    -0.15386    -0.03238    0.020888
-0.0060706    0.023487    0.023487    0.047847    -0.15353   -0.038551    0.022512
-0.0083442    0.023812    0.013743    0.041676    -0.15841    -0.04115    0.024137
-0.0041217    0.016666    0.009845    0.033881    -0.15873   -0.039526    0.027385
-0.00022403   0.0056225    0.010819    0.029009    -0.14639   -0.034978    0.029009
-0.00087364  -0.0018481    0.010819    0.027709    -0.12333   -0.031081    0.028684
-0.0076946  -0.0021729   0.0091954    0.030308    -0.10319   -0.030431    0.028359
-0.019712   0.0020496   0.0078962    0.037778   -0.095717   -0.025884     0.02706
-0.029782   0.0085458   0.0072465    0.045899    -0.10026   -0.018738    0.022188
-0.036602    0.013743   0.0088706     0.05207    -0.10709   -0.013216    0.014068
-0.038876    0.016341   0.0088706    0.054019    -0.10838   -0.011267   0.0052977
-0.036927    0.018615   0.0062721    0.055318   -0.096367   -0.012567  -0.0034721
-0.030756    0.021213   0.0033489    0.054019   -0.071032   -0.013541  -0.0060706
-0.022311    0.025761   0.0023744    0.050771   -0.029782   -0.011917  -0.0018481
-0.012567    0.027709   0.0056225    0.046548    0.024786  -0.0073698   0.0049729
-0.0037969    0.025436   0.0091954    0.039078    0.088448  -0.0015233    0.008221
0.00042559    0.019264    0.012443    0.030957     0.15828   0.0059473   0.0059473
-0.00054884    0.011144    0.015692    0.026085     0.24111    0.013418   0.0033489
-0.0024977   0.0078962    0.017965    0.025111      0.3379    0.022512   0.0059473
-0.0011985    0.012768    0.019589     0.02706     0.43177    0.031932    0.015367
0.0026992    0.022188    0.019914    0.029333     0.48991    0.042975    0.028359
0.0062721    0.029333    0.016991    0.028359     0.48471    0.058241    0.040052
0.0078962    0.029983    0.010495    0.024137     0.41358    0.071558    0.047198
0.0095202     0.02706   0.0046481    0.016666     0.30282    0.074157    0.048822
0.012443    0.023812  -0.0011985   0.0088706     0.18946    0.064088    0.047198
0.015692    0.022837  -0.0063954   0.0020496     0.10761    0.045249    0.042651
0.021213    0.023812  -0.0099683  -0.0054209    0.065387    0.026735    0.033881
0.024786    0.023812   -0.010618   -0.010618    0.043625    0.012443    0.020239
0.025761    0.022188  -0.0083442   -0.014191    0.013418   0.0026992   0.0059473
0.023162    0.022188  -0.0047713   -0.017114   -0.047971  -0.0041217  -0.0047713
0.018615    0.024461  -0.0018481   -0.021012    -0.13437   -0.012242   -0.008669
0.013743    0.028359  -0.0041217   -0.023285    -0.22044   -0.021661  -0.0047713
0.012119    0.031607  -0.0099683   -0.022311    -0.27956   -0.028157   0.0049729
0.011794    0.035505   -0.019063   -0.018738     -0.2984   -0.031406    0.015367
0.010819    0.040702   -0.028157    -0.01549    -0.27858   -0.033679    0.019914
0.01017    0.045574    -0.03303   -0.012892    -0.23376   -0.037577    0.020239
0.012768    0.042651   -0.033354   -0.012242    -0.18147   -0.041799    0.016991
0.01764    0.030633   -0.029782   -0.012242    -0.14249   -0.045047    0.013418
0.022512    0.012119    -0.02361   -0.012892    -0.12268   -0.047321    0.009845
0.025761   -0.007045   -0.013866   -0.013866    -0.12268   -0.043423   0.0069217
0.02706   -0.020362  -0.0031473   -0.014191    -0.13827   -0.036602   0.0059473
0.024786    -0.02361   0.0085458   -0.015165    -0.16165   -0.035303   0.0065969
0.01764   -0.019712    0.016666   -0.017439    -0.18342   -0.044398    0.009845
0.0072465   -0.013541    0.016666   -0.019388    -0.19771   -0.056091    0.016666
-0.0024977   -0.010293   0.0085458   -0.021986    -0.20193   -0.063886    0.025111
-0.0076946   -0.008669  -0.0031473   -0.022636    -0.19511   -0.063561    0.032257
-0.0073698  -0.0093186   -0.014516   -0.021012    -0.17984   -0.059339    0.036804
-0.0011985   -0.013866   -0.021012   -0.018088    -0.15873   -0.054792    0.038103
0.0091954   -0.019712   -0.021337   -0.012567    -0.13437   -0.051544    0.036479
0.019589    -0.02426    -0.01549  -0.0057458    -0.11293   -0.050569    0.032582
0.02706   -0.026858  -0.0067202  0.00075039   -0.097341   -0.047971    0.022512
0.023487   -0.026858   0.0026992   0.0062721   -0.084999   -0.043748    0.013743
0.013093    -0.02426   0.0069217   0.0069217   -0.075255     -0.0405     0.01017
-0.0018481   -0.020362   0.0043233   0.0020496   -0.065186   -0.039851    0.010819
-0.012892   -0.014191  -0.0057458  -0.0067202   -0.057065   -0.038551    0.010495
-0.017439   -0.008669   -0.020037   -0.019712   -0.050244   -0.035628   0.0069217
-0.016789   -0.007045   -0.029132   -0.030431   -0.039526   -0.034329   0.0010752
-0.01484  -0.0089938   -0.026209   -0.034978   -0.019712   -0.039526  -0.0044465
-0.013541   -0.011267   -0.012242   -0.032055     0.01017   -0.046671   -0.008669
-0.012892   -0.012567   0.0069217   -0.023285    0.040702   -0.051544   -0.010293
-0.015165   -0.012567    0.021863   -0.011267    0.057917   -0.055116  -0.0054209
-0.019063   -0.010293     0.02706  -0.0011985     0.05207   -0.056091 -0.00087364
-0.020362  -0.0060706    0.023812   0.0043233    0.022512   -0.055441   0.0017248
-0.019063 -0.00054884    0.012119   0.0039985   -0.021661   -0.053492 -0.00087364
-0.019063   0.0062721  -0.0024977  -0.0041217   -0.069733   -0.053168  -0.0073698
-0.022961   0.0091954   -0.014516   -0.017764    -0.11098   -0.054467   -0.012242
-0.027833   0.0088706   -0.022636   -0.029132    -0.13534   -0.057065   -0.012242
-0.034329   0.0069217   -0.026209   -0.034329    -0.14054   -0.062262   -0.013541
-0.035628   0.0043233   -0.028157   -0.031081     -0.1308   -0.068434   -0.018738
-0.031406   0.0020496   -0.028157   -0.025884    -0.11131   -0.071032   -0.027183
-0.02361 -0.00087364   -0.030106    -0.02361   -0.085324    -0.06551   -0.036278
-0.017764  -0.0050961   -0.035953   -0.023935   -0.046671   -0.054792   -0.044723
-0.016464  -0.0076946   -0.043748   -0.025234   0.0020496   -0.039851   -0.049595
-0.018413   -0.011267   -0.045697   -0.028157    0.049147   -0.025884   -0.048296
-0.024909   -0.016789   -0.041475    -0.03173    0.078704   -0.015165     -0.0405
-0.03173   -0.022311   -0.033679   -0.031081      0.0852  -0.0080194    -0.03303
-0.035953   -0.021986   -0.026858   -0.026209    0.078704  -0.0057458   -0.028807
-0.034978   -0.013216   -0.023285   -0.014191    0.074157  -0.0018481   -0.028482
-0.031081 -0.00087364   -0.024585   0.0039985    0.080653 -0.00054884    -0.03173
-0.022961   0.0091954   -0.025884    0.022512    0.094945 -0.00054884   -0.035303
-0.014191    0.013418   -0.022311    0.030633     0.11054  -0.0011985   -0.036278
-0.0054209    0.014717   -0.014191     0.02706     0.12028  -0.0031473    -0.03238
0.0010752    0.016666  -0.0041217    0.016666     0.12353  -0.0083442   -0.025234
0.0072465    0.022188   0.0023744    0.009845     0.12028   -0.012242   -0.015815
0.013418    0.029009  0.00042559    0.011144     0.11086  -0.0047713  -0.0047713
0.017965    0.036479  -0.0099683    0.021213    0.094945    0.016341   0.0017248
0.01829     0.04395   -0.023285    0.034206    0.080653    0.042326      0.0014
0.016341     0.05207   -0.031406    0.045574    0.074157    0.062139  -0.0011985
0.014392    0.061489   -0.028482    0.052395    0.068635    0.072533   0.0017248
0.013418    0.068635   -0.016464    0.054993    0.055318    0.072208    0.013093
0.014717    0.072533  -0.0021729    0.054344    0.028034    0.063438    0.028684
0.017965    0.071558    0.008221    0.049796   -0.013866     0.05142    0.038428
0.024786    0.064737    0.011469    0.044275    -0.05804    0.041027    0.038428
0.032257    0.056617    0.011469    0.039402   -0.093444    0.032582    0.028684
0.03518    0.049472    0.013418     0.03453     -0.1178    0.026735    0.015367
0.030957     0.04395    0.015042    0.027385     -0.1321    0.022188   0.0043233
0.024137    0.042001    0.014068    0.019589    -0.13957     0.01764  -0.0031473
0.015692    0.040052   0.0085458    0.013418    -0.14281    0.011794  -0.0073698
0.0078962     0.03518      0.0014   0.0091954    -0.14152    0.003024   -0.010618
0.00075039    0.028034  -0.0031473   0.0072465    -0.13469  -0.0057458   -0.011267
-0.0073698     0.01829  0.00010078   0.0049729    -0.12235   -0.013541  -0.0060706
-0.012892     0.01017    0.011794   0.0026992    -0.10449   -0.017114    0.003024
-0.01549   0.0043233    0.027385   0.0010752   -0.085648   -0.020362    0.011794
-0.014191   0.0020496    0.040377      0.0014   -0.069733   -0.026533    0.016016
-0.010943   0.0023744    0.046223      0.0014   -0.058689   -0.032705    0.016341
-0.007045   0.0075714    0.043625  0.00010078   -0.052193   -0.034654    0.014068
-0.0018481    0.016341    0.035505  -0.0018481    -0.04927   -0.032055   0.0091954
0.0088706    0.028034    0.028684  -0.0044465   -0.046996   -0.027508   0.0039985
0.023162    0.038753    0.024461  -0.0057458   -0.041475   -0.021661   0.0020496
0.040702    0.048822    0.022188  -0.0050961   -0.029782   -0.016464   0.0043233
0.055968    0.057592    0.020239  -0.0031473   -0.012892   -0.014191    0.011144
0.062464    0.062464    0.014717 -0.00022403   0.0056225   -0.018088    0.018615
0.056617    0.061814   0.0078962   0.0052977    0.022188   -0.025559    0.024137
0.042651    0.053694  -0.0021729    0.010495    0.030633   -0.037252    0.024137
0.025111    0.038753   -0.014516   0.0091954    0.032906   -0.051544    0.016991
0.0078962     0.01829   -0.028157 -0.00054884    0.029009   -0.063561   0.0062721
-0.0057458  -0.0063954   -0.038227   -0.016464    0.020239   -0.069408  -0.0037969
-0.01484   -0.027183   -0.043099    -0.03303     0.01017   -0.067134  -0.0096434
-0.017439   -0.036278   -0.039526   -0.045047   0.0010752   -0.054792   -0.010943
-0.013541   -0.031406   -0.026858   -0.047646  -0.0050961   -0.034004  -0.0073698
-0.0041217   -0.019063  -0.0093186    -0.04115  -0.0089938    -0.01549  -0.0018481
0.008221  -0.0083442   0.0072465   -0.028807   -0.010293  -0.0018481    0.003024
0.024137  -0.0050961     0.01764   -0.014191  -0.0073698   0.0065969   0.0049729
0.039402  -0.0076946    0.022188  -0.0028225 -0.00022403   0.0085458   0.0046481
0.050121   -0.013541    0.020564   0.0017248    0.012768   0.0033489    0.003024
0.054019    -0.01484    0.010819  0.00042559    0.023812  -0.0057458   0.0026992
0.049472   -0.011267  -0.0011985  -0.0011985    0.028684   -0.010293   0.0059473
0.038428  -0.0060706  -0.0093186 -0.00087364    0.024461  -0.0089938    0.014717
0.023162  -0.0011985   -0.007045   0.0039985    0.014717  -0.0021729    0.025436
0.01017   0.0043233   0.0043233    0.010819   0.0072465   0.0046481    0.032582
0.0049729   0.0088706    0.020564    0.017965   0.0072465   0.0095202    0.031932
0.0075714    0.011794    0.029983    0.021863    0.014392    0.011144    0.021213
0.01017    0.011469    0.028684    0.020888    0.024137   0.0062721   0.0069217
0.0088706   0.0043233    0.022512     0.01829    0.031932  -0.0047713  -0.0060706
-0.0011985   -0.010618    0.017316    0.015367     0.03583   -0.018088   -0.016464
-0.01484   -0.027508    0.013093    0.011794    0.037454   -0.026858   -0.019063
-0.026209    -0.04115    0.010495   0.0085458    0.041351   -0.028807   -0.015165
-0.031406   -0.042774    0.011144   0.0059473    0.048497   -0.026209  -0.0076946
-0.027833   -0.031406    0.014392    0.003024    0.054019   -0.018738 -0.00054884
-0.01549   -0.011592    0.020239   0.0026992    0.055643  -0.0083442   0.0039985
-0.00022403   0.0039985    0.025111   0.0043233    0.055318   0.0043233   0.0078962
0.012443    0.014068    0.026085   0.0069217    0.055643    0.016016     0.01017
0.024137    0.019264    0.022837    0.010495    0.058891    0.023487    0.010819
0.033231    0.019914    0.016666    0.016016    0.062789    0.028684   0.0065969
0.036479    0.013093   0.0033489    0.021213    0.062789    0.026735 -0.00022403
0.030308  -0.0015233    -0.01484    0.023812    0.056292     0.01764  -0.0054209
0.015367   -0.017439    -0.03173    0.023162    0.044924   0.0065969  -0.0076946
-0.0050961   -0.032705   -0.041475    0.020888    0.028359  -0.0031473   -0.010293
-0.024909   -0.043099   -0.041475    0.016666    0.012768   -0.010943    -0.01549
-0.042124   -0.048296   -0.034004    0.011469  0.00010078   -0.015165   -0.021012
-0.052843   -0.048945   -0.023285   0.0072465  -0.0089938    -0.01614    -0.02426
-0.055766   -0.047321   -0.016464   0.0049729   -0.012567   -0.015165    -0.02426
-0.050894   -0.045372   -0.016464    0.003024   -0.012892   -0.013541   -0.025884
-0.040825   -0.047646   -0.024909  -0.0028225   -0.010293   -0.012892   -0.027183
-0.028157   -0.051868   -0.035303   -0.010943  -0.0093186   -0.012567   -0.025559
-0.014191   -0.053492   -0.042124   -0.015815   -0.013216   -0.014516   -0.019388
-0.0034721    -0.04862    -0.04115   -0.013866   -0.021337   -0.017114   -0.010618
-0.0011985   -0.039851    -0.03303  -0.0060706   -0.031081   -0.017439  -0.0024977
-0.010293   -0.028157   -0.023285   0.0023744   -0.046022   -0.013541   0.0020496
-0.02361   -0.012892   -0.014516    0.009845   -0.063237  -0.0067202  0.00075039
-0.036278   0.0033489   -0.008669    0.016991   -0.079152  0.00075039  -0.0031473
-0.042449    0.016991  -0.0050961    0.020888   -0.089221   0.0075714  -0.0047713
-0.041799    0.024461  -0.0031473    0.021213   -0.093444    0.010495  -0.0021729
-0.034004    0.025111  -0.0031473    0.022512   -0.088896   0.0059473   0.0026992
-0.020037     0.01829  -0.0037969    0.025111    -0.07493  -0.0041217   0.0069217
-0.0028225   0.0072465 -0.00087364    0.024137   -0.053817   -0.014191   0.0091954
0.011144  -0.0031473   0.0036737    0.020564   -0.030756   -0.021661   0.0075714
0.019264  -0.0076946   0.0095202    0.020239   -0.010618   -0.021012   0.0075714
0.024137  -0.0063954    0.016016    0.028034  -0.0018481   -0.010943    0.010495
0.02641  -0.0037969    0.020888    0.039078  -0.0021729   0.0052977    0.013743
0.025436  -0.0015233    0.021863    0.050121 -0.00022403    0.021538    0.012768
0.019264   0.0023744    0.018615    0.055968     0.01017     0.03453   0.0046481
0.0095202   0.0072465    0.011794    0.059216    0.033231    0.040377  -0.0063954
0.0036737    0.010819   0.0020496    0.056942    0.063763    0.039727   -0.012892
0.0085458    0.010495  -0.0041217    0.047198    0.092021    0.031607   -0.010293
0.021538   0.0056225   -0.007045    0.031932     0.11313    0.019589 -0.00087364
0.03453  -0.0037969  -0.0080194    0.018615      0.1284    0.011469   0.0052977
0.042326   -0.012242   -0.007045    0.011144     0.13944   0.0078962   0.0056225
0.041351   -0.012242   -0.007045   0.0091954     0.13717   0.0052977   0.0036737
0.037778  -0.0044465   -0.008669    0.011794     0.11508  0.00042559   0.0052977
0.034206   0.0088706   -0.010293    0.015692    0.074157  -0.0067202   0.0056225
0.034206    0.018615    -0.01484    0.020564    0.024137   -0.011917   0.0033489
0.034855    0.020564   -0.020037     0.02641   -0.022636   -0.015815  0.00010078
0.033556    0.016341   -0.018738    0.033881   -0.050569   -0.014191  -0.0015233
0.032582   0.0091954   -0.013216    0.041676   -0.044398  -0.0031473 -0.00087364
0.030957   0.0056225  -0.0073698    0.048497   0.0036737    0.014392   0.0043233
0.030633   0.0072465  -0.0044465     0.05272    0.087474    0.032257    0.011469
0.027385    0.010495  -0.0047713    0.055643      0.1781    0.046223    0.016016
0.022188    0.015042   -0.007045    0.056617     0.23916    0.055643    0.015367
0.01829    0.017965   -0.011267    0.056617     0.24955    0.062789   0.0095202
0.01764    0.016666   -0.013216    0.056942      0.2083    0.065387   0.0023744
0.020888    0.012119   -0.010618    0.055318      0.1297    0.063763 -0.00054884
0.023487   0.0059473  -0.0083442    0.050446    0.033881    0.056942   0.0033489
0.023812   0.0020496  -0.0073698    0.045574   -0.054792    0.046223    0.012768
0.023487   0.0043233   -0.011917    0.038753    -0.11358    0.036479    0.022188
0.021538    0.009845   -0.019712    0.032582     -0.1282    0.030308    0.028034
0.01764    0.017316   -0.028482    0.026085   -0.096367    0.031607    0.030308
0.012119    0.021538    -0.03238    0.019589   -0.029782    0.035505    0.031282
0.0049729    0.022837   -0.030756    0.012768    0.042651    0.039078    0.034206
-0.0031473    0.020239   -0.022636   0.0065969      0.0865    0.042326     0.03583
-0.011917    0.014068   -0.012567  0.00042559    0.085525    0.041027    0.036154
-0.019712   0.0091954  -0.0011985  -0.0011985    0.044275     0.03518    0.033881
-0.024585   0.0072465   0.0072465  0.00075039   -0.011267    0.026735    0.029983
-0.026209   0.0059473    0.013093   0.0036737   -0.055766    0.017965     0.02641
-0.026209   0.0046481    0.020564   0.0043233   -0.077853    0.013093    0.023812
-0.021986   0.0017248    0.028034   0.0033489   -0.079477    0.012443    0.016666
-0.016464 -0.00054884     0.03453  -0.0037969   -0.072656    0.016341    0.008221
-0.0073698  -0.0021729    0.039078    -0.01484   -0.072006    0.019264      0.0014
0.0036737  -0.0028225    0.044275   -0.023935   -0.080776    0.018615  0.00010078
0.012119  0.00075039    0.048822   -0.029132    -0.10026    0.015367  0.00010078
0.011794    0.013093    0.050771   -0.027833     -0.1217    0.010819  -0.0018481
0.0043233    0.028034    0.047847   -0.020362    -0.13924   0.0052977  -0.0080194
-0.0041217    0.038753    0.039727  -0.0093186    -0.15516  -0.0034721   -0.017114
-0.0093186    0.038103    0.029333  0.00010078    -0.17367   -0.019712   -0.023935
-0.007045    0.028034    0.023812   0.0072465    -0.18959   -0.039201   -0.025234
-0.00054884    0.016341    0.028359    0.013418    -0.20193   -0.053817   -0.026533
0.0026992    0.010819    0.039402    0.014717    -0.20875   -0.059989   -0.029457
0.00075039    0.010495    0.050771    0.011144    -0.21362   -0.057715    -0.03238
-0.0044465    0.012443    0.056292   0.0023744    -0.21655   -0.051219   -0.030756
-0.008669    0.013418     0.05207  -0.0073698    -0.21785   -0.046671   -0.023285
-0.012567    0.012119    0.039402   -0.018088    -0.21232   -0.045372   -0.010943
-0.017439    0.011794    0.021538   -0.029132    -0.19771   -0.046996   0.0033489
-0.020687    0.015692   0.0091954   -0.036927    -0.17432    -0.04862     0.01829
-0.019712    0.026085   0.0091954   -0.039851    -0.14769   -0.044723    0.033881
-0.016464    0.038103    0.016666   -0.039201    -0.12235   -0.038551    0.050121
-0.0063954    0.047523    0.024786   -0.034654    -0.09994   -0.035303     0.06019
0.0052977    0.049147    0.023812    -0.03173   -0.077203   -0.033354    0.061814
0.013093    0.038753   0.0075714   -0.032705   -0.056741   -0.031406    0.054668
0.012768    0.021213   -0.020037   -0.034654   -0.039851   -0.033354    0.039078
0.0043233    0.003024   -0.048945   -0.034329   -0.021337   -0.041799    0.020888
-0.007045  -0.0099683   -0.071032   -0.029782      0.0014   -0.051219   0.0095202
-0.020362   -0.016464     -0.0824   -0.024909    0.029009   -0.056416    0.011469
-0.033354   -0.013866     -0.0837   -0.019712    0.064413   -0.052518    0.020564
-0.040825  -0.0073698   -0.079802   -0.013866     0.11248   -0.042449    0.027709
-0.040175  0.00075039   -0.076229  -0.0031473     0.18362   -0.031081    0.028684
-0.033679   0.0049729   -0.075904    0.012119     0.28626   -0.020037    0.026085
-0.024585   0.0033489   -0.075579    0.029983     0.41618  -0.0080194    0.020239
-0.018088  -0.0028225   -0.073631    0.046548     0.55032   0.0043233    0.011794
-0.016464  -0.0073698   -0.068434    0.058891     0.64582    0.015042    0.003024
-0.017114  -0.0099683   -0.057715    0.063113     0.66173    0.019914  0.00010078
-0.018088  -0.0080194   -0.042449    0.055643      0.5841    0.016341   0.0036737
-0.01549  -0.0024977   -0.025559    0.041027      0.4308   0.0069217   0.0075714
-0.0096434   0.0078962   -0.014516    0.024461     0.24176  -0.0060706   0.0062721
-0.0041217    0.019914   -0.011917     0.01017    0.065387   -0.019388   0.0023744
-0.00087364    0.028034   -0.013866      0.0014   -0.063561   -0.032705  -0.0011985
-0.0011985    0.025111   -0.018413 -0.00087364    -0.13242   -0.043748  -0.0044465
-0.0047713    0.012443   -0.024909   0.0017248    -0.15353    -0.04992  -0.0076946
-0.008669  -0.0021729   -0.030106   0.0069217    -0.15061   -0.052518   -0.012567
-0.0099683  -0.0096434   -0.031406    0.012443    -0.14541   -0.051868   -0.017764
-0.0073698   -0.010943   -0.023285    0.014717    -0.14509   -0.049595   -0.022961
-0.0037969  -0.0096434  -0.0096434    0.013418    -0.14639   -0.045047   -0.025234
-0.0011985   -0.007045   0.0043233    0.010495    -0.14476   -0.042774   -0.025234
-0.0037969  -0.0041217    0.014068   0.0091954    -0.13794   -0.045047   -0.022311
-0.0089938  0.00075039    0.016341   0.0072465     -0.1282   -0.051219    -0.01614
-0.01484   0.0049729    0.011144   0.0023744    -0.12105   -0.058365   -0.007045
-0.020362   0.0052977  -0.0011985  -0.0063954    -0.12203   -0.062587 -0.00022403
-0.025234      0.0014   -0.015815   -0.017114    -0.13015   -0.063237   0.0010752
-0.024585  -0.0031473   -0.028807   -0.027183    -0.13794   -0.058365  -0.0041217
-0.01549   -0.007045   -0.036278   -0.033354    -0.14152   -0.051544   -0.012567
-0.0021729  -0.0093186   -0.036602   -0.035303    -0.14281   -0.045697   -0.018088
0.009845   -0.010943   -0.030756   -0.031081    -0.14769   -0.043099   -0.017764
0.01764   -0.013866   -0.022311   -0.020687    -0.15905   -0.044073   -0.014516
0.019264   -0.015165   -0.015815   -0.008669    -0.17172   -0.043099  -0.0096434
0.014392   -0.015165   -0.011917  0.00010078    -0.18147   -0.039201  -0.0044465
0.0043233   -0.017114  -0.0083442   0.0026992    -0.18731    -0.03303   0.0039985
-0.0047713   -0.019388  -0.0099683   0.0023744    -0.18796   -0.025559    0.012768
-0.0093186   -0.021661   -0.017114   0.0036737    -0.18601   -0.017764    0.019589
-0.0054209   -0.017764   -0.024909   0.0065969    -0.18049   -0.011592    0.022837
0.0056225  -0.0096434   -0.029132   0.0069217    -0.16977  -0.0044465     0.01764
0.01894 -0.00022403   -0.026858   0.0036737    -0.15418      0.0014   0.0043233
0.030308     0.01017   -0.015165  -0.0011985    -0.13859 -0.00022403   -0.012567
0.033881    0.015367   0.0052977  -0.0080194    -0.12592  -0.0076946   -0.029782
0.027709    0.016666    0.029658   -0.013541    -0.11326   -0.013541   -0.041799
0.016016    0.016666    0.050121   -0.016464    -0.09994   -0.016789    -0.04992
0.0033489    0.022512    0.062464   -0.017764   -0.087597   -0.020037   -0.053168
-0.0018481    0.038753    0.061165   -0.018738   -0.076554   -0.021661   -0.050569
0.0010752    0.061165    0.048497   -0.018413   -0.073306   -0.021337   -0.043099
0.0043233    0.080978    0.033556   -0.014191   -0.075255   -0.021986   -0.036927
0.0049729    0.094295    0.020239  -0.0083442   -0.079477   -0.021661   -0.033354
0.0023744    0.093645    0.013093  -0.0024977     -0.0837   -0.020037   -0.029132
-0.0015233    0.079679    0.011144   0.0046481   -0.086623   -0.013866    -0.02361
-0.0054209     0.06019    0.014392    0.010819   -0.089871  -0.0054209    -0.01614
-0.011592    0.040702    0.018615    0.013418   -0.087922   0.0020496  -0.0073698
-0.020687    0.025111    0.021213   0.0095202   -0.077853   0.0052977  0.00042559
-0.028807    0.013743    0.020888  -0.0024977    -0.06551   0.0039985   0.0065969
-0.03303   0.0059473     0.01764    -0.01549   -0.055116  0.00010078   0.0075714
-0.034654   0.0026992   0.0069217   -0.026858   -0.050244  -0.0060706   0.0046481
-0.038551   0.0020496  -0.0073698   -0.035628   -0.047321   -0.011592  0.00010078
-0.042449   0.0020496   -0.018413   -0.038551   -0.044398   -0.015165  -0.0018481
-0.046996  0.00010078   -0.021012   -0.036927   -0.045047   -0.015815 -0.00054884
-0.048296  -0.0018481   -0.017764   -0.032055   -0.050244   -0.011267  0.00075039
-0.044723  -0.0021729  -0.0076946   -0.022636   -0.056091   -0.007045 -0.00054884
-0.038551  0.00042559   0.0010752   -0.010618   -0.059014   -0.007045  -0.0037969
-0.032705   0.0059473   0.0049729   0.0017248   -0.054792   -0.012242  -0.0093186
-0.027833    0.013418   0.0036737    0.013418   -0.041799    -0.01484    -0.01484
-0.022961     0.01894  -0.0031473    0.019914   -0.022636   -0.011592   -0.018088
-0.016464     0.01829   -0.010943     0.01894    0.008221  -0.0034721   -0.015815
-0.011592    0.011794   -0.017439    0.016016    0.053694   0.0059473  -0.0099683
-0.010293  0.00075039   -0.016464    0.017316     0.11054    0.016016   0.0023744
-0.010943  -0.0093186   -0.008669    0.024137     0.16835    0.024137     0.01894
-0.0096434   -0.012892    0.003024    0.032257     0.21252    0.027709     0.03583
-0.0028225   -0.011592    0.014717    0.036804     0.23169    0.025436    0.048497
0.0095202  -0.0080194    0.021538     0.03518     0.21902    0.021538     0.05142
0.021213  -0.0050961    0.025111    0.028684     0.17874    0.020239      0.0433
0.027385  -0.0034721    0.024786    0.024461      0.1323    0.021538    0.029333
0.023812  -0.0093186    0.018615     0.02706     0.10079    0.024461    0.015692
0.016341   -0.021012   0.0069217    0.034855    0.097543    0.029333   0.0017248
0.0046481   -0.035303  -0.0044465    0.044275     0.11866    0.031282  -0.0073698
-0.0054209   -0.043423  -0.0063954    0.050771     0.14984    0.024461  -0.0093186
-0.0099683   -0.042774   0.0033489    0.054993     0.17095    0.010495  -0.0073698
-0.0083442   -0.034654    0.025111    0.055968      0.1703  -0.0054209  -0.0031473
-0.00022403   -0.021337    0.050121    0.055643     0.14724   -0.019063  -0.0011985
0.011794  -0.0089938    0.070584    0.055968     0.10956   -0.027508  -0.0031473
0.022837  0.00042559    0.083251    0.057917    0.067336   -0.031081  -0.0073698
0.030308   0.0043233    0.082277    0.057267    0.029658   -0.030756   -0.012567
0.032906   0.0026992    0.071234    0.056617   0.0017248   -0.030431   -0.015165
0.031932  0.00075039    0.058566    0.055318   -0.011267   -0.030756   -0.014516
0.033231   0.0043233    0.050121    0.056942   -0.012242   -0.028157   -0.011267
0.042326    0.015042    0.048497    0.062464  -0.0054209   -0.023285  -0.0054209
0.058241    0.026735    0.050121    0.067011   0.0078962    -0.01549   0.0017248
0.072533    0.035505    0.052395    0.064413    0.030633  -0.0063954    0.010819
0.074157    0.035505    0.048497     0.05142     0.05207   0.0026992     0.01829
0.061165     0.02706    0.035505    0.029333    0.058566   0.0078962    0.020239
0.037454    0.016341     0.01829    0.003024    0.040052   0.0075714    0.018615
0.011469   0.0065969   0.0052977   -0.020037 -0.00022403    0.003024    0.016991
-0.011917  0.00010078  -0.0034721    -0.03238    -0.04992  -0.0037969    0.015692
-0.024585  -0.0028225  -0.0083442   -0.032055   -0.092469  -0.0096434    0.015692
-0.026858  -0.0047713   -0.010943   -0.021986    -0.11651   -0.013541    0.015042
-0.018413  -0.0057458   -0.013216  -0.0073698    -0.11748   -0.013866    0.010819
-0.0037969 -0.00087364   -0.016789   0.0062721    -0.10091   -0.010618   0.0049729
0.0075714   0.0088706   -0.021986    0.013418   -0.078178  -0.0011985  0.00075039
0.013093    0.016666   -0.024585    0.010495    -0.05804    0.008221 -0.00054884
0.009845    0.017965   -0.021661 -0.00022403   -0.040175    0.012119   0.0017248
0.0033489    0.014717   -0.013866   -0.010293   -0.021661    0.010495   0.0049729
-0.00054884   0.0091954  -0.0089938   -0.011592  -0.0047713   0.0085458   0.0065969
0.0020496   0.0059473  -0.0099683  -0.0063954   0.0026992    0.009845   0.0046481
0.0091954   0.0043233   -0.017439  0.00042559 -0.00054884    0.014717    0.003024
0.017316   0.0043233   -0.028482   0.0052977  -0.0099683    0.022188   0.0026992
0.022837   0.0026992   -0.038227   0.0052977   -0.021012    0.026735   0.0039985
0.021863 -0.00022403   -0.039201   0.0026992   -0.029457    0.023812   0.0046481
0.017965  -0.0028225   -0.030431  0.00010078   -0.027833    0.016666   0.0075714
0.013418  -0.0034721   -0.014516  -0.0041217   -0.018088     0.01017    0.011144
0.012443 -0.00022403  -0.0018481  -0.0080194 -0.00087364   0.0078962    0.016991
0.012768   0.0049729   0.0033489   -0.010618    0.017316    0.010495     0.02641
0.016991     0.01017   0.0010752  -0.0093186    0.033881     0.01894    0.035505
0.025761    0.012119  -0.0041217  -0.0031473    0.042326    0.033231    0.045899
0.031282    0.013093  -0.0093186   0.0059473    0.042651    0.048172    0.053694
0.030633    0.013743   -0.013541    0.014392     0.03453    0.056617    0.056617
0.026735    0.014068   -0.017764     0.01764    0.022512    0.056617    0.054019
0.02641    0.013093   -0.015815    0.016341    0.008221    0.046548    0.048497
0.031282    0.010819   -0.012892    0.010819  -0.0063954    0.028684    0.040702
0.03518   0.0085458   -0.012242   0.0049729   -0.017114   0.0085458    0.035505
0.033881   0.0056225   -0.015165  0.00010078   -0.019388  -0.0099683     0.03453
0.025761    0.003024   -0.018738  -0.0018481   -0.015815   -0.020037    0.032906
0.017965  0.00042559   -0.021337  -0.0021729   -0.013216   -0.021661    0.028684
0.014717  0.00010078   -0.018738  -0.0031473   -0.016789   -0.018413    0.021538
0.015042   0.0026992    -0.01484  -0.0080194   -0.023935   -0.014191    0.014392
0.013418   0.0078962   -0.013541   -0.013541   -0.028157  -0.0099683   0.0062721
0.0078962    0.013743   -0.012242   -0.017439   -0.029457  -0.0089938  0.00075039
-0.00054884    0.022512   -0.011592   -0.021012   -0.030431  -0.0093186  -0.0028225
-0.010943    0.030957   -0.013541   -0.025559   -0.032705   -0.012567  -0.0060706
-0.021012     0.03583   -0.019388   -0.029782   -0.034004   -0.017764   -0.011592
-0.025884    0.036804   -0.025884    -0.03238   -0.039201   -0.021012   -0.021337
-0.026533     0.03583   -0.029457    -0.03173   -0.046671   -0.022961   -0.030431
-0.022636    0.031607   -0.029132   -0.029132   -0.055766   -0.027833   -0.034004
-0.01484    0.021863   -0.023935   -0.025884   -0.062912   -0.034004   -0.029782
-0.0060706   0.0085458    -0.01549    -0.02426    -0.06551   -0.039526   -0.021012
-0.00087364 -0.00022403  -0.0073698    -0.02361   -0.062912   -0.037577   -0.015165
-0.0047713      0.0014 -0.00022403   -0.021337   -0.055116   -0.028807   -0.014516
-0.016789   0.0091954   0.0033489   -0.013866   -0.049595    -0.01614   -0.017114
-0.027183     0.01764   0.0036737  -0.0024977   -0.050894  -0.0067202    -0.02361
-0.028482    0.023812 -0.00054884    0.012443   -0.060963  -0.0063954   -0.033679
-0.022636    0.029009  -0.0054209    0.028684   -0.077203   -0.012567   -0.041475
-0.01614    0.031932  -0.0073698    0.041351    -0.09994   -0.020037   -0.038227
-0.011267    0.027385  -0.0063954    0.044599    -0.11845   -0.024909    -0.02426
-0.0096434     0.01764  -0.0047713    0.037454    -0.12592   -0.025884  -0.0063954
-0.012892   0.0033489  -0.0037969    0.022837    -0.12138   -0.022636   0.0075714
-0.020687   -0.010293  -0.0028225     0.01017    -0.10514   -0.014191    0.013093
-0.029782   -0.022636  -0.0031473   0.0062721   -0.080776  -0.0021729    0.012119
-0.036278   -0.029457  -0.0060706   0.0091954   -0.046996     0.01017   0.0062721
-0.037902   -0.028482   -0.011592    0.014717   -0.008669     0.01764   0.0017248
-0.034004   -0.024585    -0.01549    0.019264    0.026735    0.020239   0.0020496
-0.018413   -0.022311   -0.011592    0.021863    0.059541    0.014068    0.010819
0.0026992   -0.022961 -0.00054884    0.027385    0.087799   0.0023744    0.022837
0.022837   -0.026209     0.01829    0.036804     0.11118  -0.0093186    0.031607
0.034206   -0.028157    0.039402    0.047847      0.1297   -0.012567    0.030633
0.038753   -0.025884    0.053369    0.059541     0.15309  -0.0037969    0.023162
0.036479   -0.016789    0.053694    0.070259     0.18784    0.010819    0.016016
0.028359  -0.0041217    0.042326    0.078055     0.23364    0.026085    0.013743
0.016991   0.0046481    0.028359    0.082277     0.28138    0.037129    0.013418
0.0069217    0.009845    0.015692    0.078055     0.31419    0.041351    0.014717
0.0026992   0.0091954   0.0059473    0.067986     0.32036    0.039727    0.015367
0.0039985      0.0014 -0.00054884    0.053044     0.30087    0.036154     0.01764
0.0052977   -0.012567   -0.007045    0.037778     0.26255    0.032257    0.019264
0.0039985   -0.025884   -0.011917    0.023487     0.21317     0.02641    0.022188
0.00042559   -0.034004    -0.01549    0.013418     0.15828    0.015692    0.024786
-0.0044465   -0.035628    -0.01484   0.0062721     0.10144      0.0014    0.025111
-0.010618    -0.03303   -0.012242   0.0023744    0.051096   -0.011592    0.023162
-0.017764   -0.028807   -0.011267   0.0017248    0.010819   -0.022961    0.017316
-0.023935   -0.027508  -0.0089938   0.0062721    -0.01614    -0.03173    0.012119
-0.027508   -0.025884  -0.0060706    0.013093   -0.030756   -0.037252   0.0072465
-0.028807   -0.021337  -0.0047713     0.01894   -0.037577   -0.039851   0.0010752
-0.029457   -0.017114  -0.0037969    0.020239   -0.037902   -0.040175  -0.0034721
-0.031081    -0.01549  0.00075039     0.01894   -0.035303   -0.040175  -0.0044465
-0.03173   -0.014516     0.01017    0.019914   -0.035953   -0.040825 -0.00022403
-0.025884  -0.0099683    0.022188    0.026085   -0.042124   -0.039851   0.0072465
-0.013866  -0.0028225    0.029009     0.03453   -0.053817   -0.038227    0.014392
-0.0021729    0.003024    0.026085    0.039402   -0.068109   -0.034329    0.016991
0.0078962   0.0052977    0.013418    0.037778    -0.08305   -0.026858    0.016991
0.014068    0.003024 -0.00054884    0.030633   -0.096367   -0.018088    0.019589
0.013093  0.00042559   -0.013216    0.018615    -0.10709   -0.012892    0.028684
0.0014    0.003024   -0.022961   0.0085458    -0.11066   -0.015815    0.038428
-0.015815     0.01017   -0.027833   0.0026992    -0.10936   -0.024585    0.042001
-0.026533    0.020239   -0.022961  0.00042559    -0.10741   -0.034004    0.036154
-0.028482    0.025436    -0.01614      0.0014    -0.10709   -0.038227    0.020239
-0.025884    0.024786   -0.011917      0.0014    -0.11001   -0.036278  0.00010078
-0.023285     0.01829   -0.014191  -0.0024977    -0.11423   -0.031081   -0.018088
-0.022636    0.011794   -0.018413  -0.0073698    -0.11586   -0.028482   -0.029782
-0.026209   0.0088706   -0.022636  -0.0093186    -0.11521   -0.030431   -0.034978
-0.029457    0.008221    -0.02361  -0.0083442    -0.11163   -0.038551   -0.034654
-0.032705    0.009845   -0.021337  -0.0067202    -0.10579   -0.047646   -0.031081
-0.03238    0.011794   -0.017764  -0.0083442   -0.097991   -0.058689   -0.028807
-0.028482    0.013093   -0.014516   -0.013866   -0.092794    -0.06616   -0.031081
-0.025234    0.012768   -0.007045   -0.019388   -0.089546   -0.064861   -0.038227
-0.025884    0.015042   0.0026992   -0.022961   -0.088896   -0.057065   -0.046022
-0.029782    0.017965    0.012768   -0.023285   -0.088247    -0.04927   -0.051544
-0.033354    0.017316     0.01894   -0.021337   -0.089221   -0.046022   -0.053168
-0.035628    0.013418    0.018615   -0.013866   -0.089546   -0.046347   -0.051219
-0.034978   0.0091954    0.013093  0.00075039   -0.086298   -0.046022   -0.047646
-0.027508   0.0075714   0.0069217     0.01764   -0.080451   -0.041475   -0.042774
-0.01549    0.012768    0.003024    0.029983   -0.077203   -0.033679   -0.039851
-0.0015233    0.021863      0.0014    0.033556   -0.081101   -0.026533   -0.038551
0.010495    0.029333  -0.0011985     0.02706   -0.090845    -0.02426   -0.038227
0.021538     0.03518  -0.0057458    0.013743    -0.10091   -0.021012   -0.035953
0.027709    0.038428  -0.0073698   0.0010752    -0.11033   -0.015815   -0.037902
0.02706    0.038103  -0.0076946  -0.0060706    -0.11618  -0.0089938   -0.041475
0.023487    0.036154  -0.0044465  -0.0083442    -0.11456  -0.0028225   -0.042449
0.020888     0.03453   0.0017248  -0.0089938    -0.10546   0.0036737   -0.036927
0.019589    0.035505    0.008221  -0.0080194   -0.090196    0.011469   -0.024585
0.019589    0.037778    0.012119  -0.0044465   -0.072981    0.019914   -0.010293
0.01764    0.038103    0.013093  0.00042559   -0.056091    0.029009   0.0056225
0.012119     0.03583    0.011794   0.0039985   -0.042774    0.036154    0.016666
0.0046481    0.030308    0.012443   0.0036737   -0.027833    0.037778    0.021538
0.00075039    0.021538     0.01764   0.0010752   -0.013541     0.03518     0.01894
0.00010078    0.013743    0.020239 -0.00087364 -0.00022403    0.032257   0.0091954
-0.00022403   0.0072465    0.014717  -0.0018481    0.013093    0.029333  -0.0021729
0.0010752   0.0043233 -0.00087364  -0.0044465    0.024786    0.023812   -0.011592
0.0043233   0.0020496    -0.01614   -0.007045    0.033881    0.015367   -0.016789
0.0046481  0.00075039   -0.025234  -0.0089938    0.034855   0.0023744   -0.019712
0.0026992  0.00075039    -0.02426  -0.0076946    0.022188   -0.011592   -0.021661
0.00075039   0.0039985   -0.017114  -0.0050961  -0.0018481   -0.019712   -0.022311
0.0039985   0.0052977  -0.0099683  -0.0054209   -0.029457   -0.021986   -0.018738
0.011469   0.0039985  -0.0047713  -0.0067202   -0.053492   -0.022311   -0.011592
0.022837   0.0026992  -0.0024977  -0.0057458   -0.070382   -0.024585 -0.00054884
0.033881   0.0036737  -0.0044465 -0.00087364   -0.081101   -0.027833   0.0091954
0.041351   0.0062721  -0.0067202   0.0039985   -0.088572   -0.031406     0.01017
0.038428   0.0062721  -0.0063954   0.0072465   -0.094093   -0.034004      0.0014
0.021538   0.0026992  -0.0060706   0.0065969   -0.097991   -0.034978   -0.014191
-0.0073698  -0.0024977   -0.011267  0.00075039    -0.09929   -0.035953   -0.028157
-0.035303   -0.010293   -0.020687  -0.0083442   -0.096042   -0.037252   -0.032705
-0.050894   -0.018738   -0.029132    -0.01484    -0.08305   -0.035953   -0.029132
-0.053817   -0.024909   -0.034004   -0.020687   -0.062262   -0.032705   -0.023285
-0.049595   -0.029782   -0.032055   -0.021986   -0.041475   -0.029782   -0.019388
-0.041799   -0.032055   -0.029457   -0.019063   -0.021661   -0.026858   -0.016789
-0.028482   -0.030756   -0.025559   -0.014516  -0.0054209   -0.023935   -0.018413
-0.012567   -0.030756    -0.02361   -0.012242    0.009845   -0.021986   -0.022636
0.0017248   -0.029457   -0.021661   -0.010293    0.025111   -0.019712    -0.02426
0.0085458   -0.025884   -0.017764  -0.0076946    0.040052    -0.01614   -0.018088
0.0091954   -0.022636    -0.01484  -0.0028225     0.05207   -0.010943  -0.0067202
0.0072465   -0.020362   -0.014191   0.0017248    0.065062  -0.0063954   0.0075714
0.0069217   -0.019063   -0.012892   0.0046481    0.083251  -0.0044465    0.024461
0.0069217   -0.017764   -0.012242   0.0056225     0.10891  -0.0057458    0.038753
0.0091954   -0.015815   -0.010943   0.0072465     0.14042  -0.0054209    0.042326
0.011794   -0.016789  -0.0076946    0.013093     0.17485  0.00042559    0.036479
0.014717   -0.021986  -0.0034721    0.022837     0.22194    0.013093    0.024137
0.015367   -0.030756  0.00075039    0.034206      0.2908     0.02706    0.010819
0.015042   -0.039526   0.0046481    0.042975     0.37558    0.037129 -0.00022403
0.014392   -0.044398   0.0056225     0.04395     0.44606    0.042001  -0.0076946
0.012768   -0.042449   0.0026992    0.039402     0.47529      0.0433  -0.0073698
0.0062721   -0.034654  -0.0021729    0.029983     0.44769    0.043625  0.00075039
-0.0031473   -0.019388   -0.007045     0.01894     0.37363    0.042975    0.010819
-0.010943  0.00042559   -0.010943   0.0075714     0.28008    0.038103    0.021213
-0.013866    0.022188   -0.010943   0.0020496     0.19206    0.031932    0.030633
-0.0054209    0.039402  -0.0096434   0.0078962     0.11736    0.025761    0.034855
0.0095202    0.050121   -0.011267    0.022188    0.047198    0.020888    0.031607
0.026085     0.05207   -0.015165    0.038103   -0.025559    0.016991    0.022512
0.03453    0.046873   -0.020037    0.050446   -0.091495    0.013418    0.011469
0.03453    0.036154   -0.023935    0.057592    -0.13729     0.01017   0.0026992
0.032582    0.023162   -0.022636    0.054344    -0.15353    0.009845  0.00075039
0.032906    0.012768   -0.015815      0.0433    -0.14216    0.011469   0.0052977
0.03453   0.0072465   -0.007045    0.029658    -0.11553    0.012768    0.011469
0.036479    0.013093   0.0062721    0.016666   -0.082076     0.01017    0.014068
0.042326    0.026735    0.021863   0.0078962   -0.052193   0.0062721    0.012768
0.048822    0.042975    0.034206   0.0039985   -0.036927    0.003024    0.008221
0.05207    0.054668    0.040377   0.0036737   -0.045047  0.00042559   0.0039985
0.048172    0.057267    0.037778   0.0043233   -0.076229  -0.0031473   0.0017248
0.040377    0.050446    0.028034   0.0010752     -0.1204  -0.0067202   0.0036737
0.033881    0.035505    0.011144  -0.0057458    -0.15905  -0.0073698     0.01017
0.029333    0.022512  -0.0089938   -0.013541    -0.18114  -0.0073698    0.017316
0.027385    0.017965   -0.028482   -0.020362    -0.18439   -0.011267    0.022188
0.02706    0.022512   -0.041799    -0.02361    -0.17302   -0.020362    0.024137
0.029658    0.030308   -0.045047   -0.019712    -0.15743   -0.028807    0.026735
0.034855    0.037778   -0.040175   -0.011917    -0.14671   -0.033354    0.032257
0.039402    0.044599    -0.03173  -0.0060706    -0.14314    -0.03303    0.041351
0.040377    0.048822   -0.020362  -0.0083442    -0.14801   -0.026858     0.05207
0.037129    0.045574  -0.0073698   -0.018413    -0.16165   -0.019063    0.059216
0.032257    0.038428   0.0023744    -0.03173    -0.18082   -0.012892    0.055968
0.023162    0.029658   0.0065969   -0.040175    -0.19901  -0.0096434    0.044275
0.010495    0.021538    0.003024   -0.039201    -0.20908   -0.013541    0.032582
-0.0021729    0.019589  -0.0041217    -0.03173     -0.2055   -0.021661    0.026085
-0.013541    0.019589  -0.0096434   -0.023935    -0.19154   -0.027833    0.024461
-0.020362    0.024137   -0.012567   -0.022311      -0.174   -0.030756    0.022188
-0.018413    0.033231   -0.013866   -0.025234    -0.15776   -0.030106    0.019589
-0.007045    0.045574    -0.01549   -0.027508    -0.14379   -0.030431    0.016666
0.0065969    0.057267   -0.015815   -0.024909    -0.12787   -0.033679    0.011794
0.014392    0.065062   -0.011917   -0.017439    -0.10871   -0.038227   0.0049729
0.014717    0.067661  -0.0024977  -0.0060706   -0.084999   -0.043423 -0.00022403
0.008221    0.064737    0.012768   0.0052977   -0.054467   -0.048945  -0.0021729
0.00042559    0.057592    0.028684    0.019264   -0.023935   -0.051544  -0.0024977
-0.0024977    0.047847    0.038428    0.036479   0.0020496   -0.048296  -0.0041217
0.0014    0.037778    0.037454    0.051745    0.028034   -0.037902  -0.0067202
0.0078962    0.025761    0.025436    0.059216    0.059216   -0.020362  -0.0099683
0.010819    0.014392   0.0095202    0.057267    0.091372 -0.00022403   -0.011267
0.0075714   0.0052977  -0.0050961    0.048822     0.11606     0.01894  -0.0099683
0.0026992  0.00010078    -0.01549    0.036154     0.12255    0.034855  -0.0047713
0.00042559  -0.0037969   -0.019063    0.023812     0.10404    0.041351   0.0039985
0.0043233  -0.0073698   -0.011267    0.016991    0.063113    0.038753    0.017316
0.0088706  -0.0050961   0.0049729    0.014392    0.011144    0.030308    0.032906
0.0059473    0.003024    0.021538    0.015367   -0.039526    0.023162    0.048822
-0.00022403    0.013093    0.032257    0.021863   -0.077528    0.020239    0.065387
0.00010078    0.022837    0.037778    0.030308    -0.10351    0.020564    0.075456
0.0059473    0.030957    0.037454    0.037778    -0.11715    0.023487    0.079679
0.013093     0.03518    0.030957    0.038428    -0.12235     0.02706    0.079354
0.017965    0.035505    0.020239    0.032582     -0.1217    0.031932    0.075456
0.021213    0.032257   0.0085458    0.021213    -0.11326    0.034855    0.067986
0.022837    0.028359  -0.0024977    0.012443   -0.092794    0.032906    0.056292
0.021538     0.02641   -0.012567   0.0085458   -0.063561    0.028034    0.042001
0.016016    0.023487   -0.021986   0.0072465   -0.031406    0.021538    0.024461
0.0039985    0.014392   -0.030756    0.008221  -0.0024977     0.01829   0.0095202
-0.0096434  -0.0034721   -0.031081    0.010495    0.023162    0.019264  0.00075039
-0.019388    -0.02426   -0.019063    0.011469    0.048822    0.022512  0.00010078
-0.022636   -0.043748 -0.00054884    0.008221    0.079679    0.020888   0.0059473
-0.021661   -0.060313    0.018615   0.0072465     0.11963    0.015692    0.014717
-0.025559   -0.070382    0.032582   0.0075714     0.16543    0.013093    0.020239
-0.03238   -0.072656    0.039727    0.009845     0.20181    0.013418    0.019914
-0.037577    -0.06681    0.041027     0.01017      0.2161    0.012768    0.013743
-0.035953   -0.055116    0.039078   0.0091954     0.19953   0.0088706   0.0059473
-0.027508   -0.044398    0.033881   0.0091954     0.15666    0.003024  -0.0028225
-0.01549   -0.037252    0.024461    0.008221    0.096569  -0.0041217   -0.010618
-0.0011985   -0.034978    0.011469   0.0052977    0.037129   -0.013866    -0.01549
0.0088706   -0.038227 -0.00054884  -0.0034721   -0.007045   -0.024909   -0.013541
0.013093   -0.044398  -0.0073698   -0.015815    -0.03303   -0.036602  -0.0089938
0.012119   -0.053817  -0.0076946   -0.029782   -0.047321   -0.046996  -0.0047713
0.0095202   -0.062912 -0.00087364     -0.0405   -0.053817   -0.053817  -0.0031473
0.0088706   -0.066485   0.0052977   -0.044723   -0.058689   -0.059339  -0.0037969
0.0049729   -0.063237   0.0072465   -0.042449   -0.064861   -0.063237  -0.0054209
-0.0011985   -0.053817   0.0049729   -0.036278    -0.07493   -0.063561   -0.011592
-0.0073698   -0.045697   0.0046481   -0.029457   -0.085973   -0.058365   -0.017439
-0.014516   -0.038227   0.0095202   -0.026533   -0.092794   -0.052193   -0.022636
-0.019063    -0.03173    0.022188   -0.026858   -0.094418    -0.04992    -0.02426
-0.020037   -0.027833    0.034855   -0.026209   -0.097017   -0.053168   -0.018738
-0.017439   -0.026209      0.0433   -0.022311    -0.10351   -0.060638  -0.0083442
-0.015815   -0.027183     0.04395   -0.013866    -0.11261   -0.064861 -0.00087364
-0.019712   -0.030431    0.034855  -0.0021729    -0.11228   -0.065186   0.0039985
-0.026858   -0.032705    0.018615   0.0091954   -0.096042   -0.062262   0.0059473
-0.03238   -0.029782   0.0017248    0.019264   -0.061613   -0.055766   0.0062721
-0.035953   -0.022961  -0.0067202    0.030957  -0.0076946   -0.046347    0.008221
-0.036927   -0.011917  -0.0057458    0.045249    0.058566   -0.032055    0.010819
-0.031406 -0.00022403   0.0023744    0.057592     0.11995   -0.014516    0.013418
-0.024909    0.013418    0.011469    0.060515     0.15861  -0.0024977    0.016341
-0.019388    0.024461     0.01829    0.050121     0.16803  0.00075039    0.014068
-0.014516    0.030308    0.020888    0.029333     0.15081  -0.0034721   0.0039985
-0.011917    0.023812     0.01764   0.0026992     0.12028   -0.012567  -0.0089938
-0.0093186   0.0088706    0.010495   -0.019388     0.09397   -0.022636   -0.023285
-0.007045  -0.0089938 -0.00022403   -0.034978    0.079029   -0.035628   -0.035953
-0.0080194   -0.019712   -0.013541   -0.044073    0.076106   -0.048296   -0.045697
-0.013216   -0.019388   -0.023935   -0.046996    0.076431   -0.055441   -0.051219
-0.021661   -0.011592   -0.024585   -0.040175    0.071883   -0.051219   -0.053168
-0.026858  -0.0028225   -0.021986   -0.025884    0.059865   -0.036602   -0.052843
-0.026209   0.0033489   -0.025559  -0.0063954    0.039727   -0.018088   -0.052518
-0.021986   0.0039985   -0.039201   0.0085458    0.017316  -0.0015233   -0.048296
-0.019063   0.0023744   -0.054467    0.016341  -0.0034721    0.012768   -0.041475
-0.017439   0.0023744   -0.059664     0.01829   -0.017439     0.02641   -0.030431
-0.013866     0.01017   -0.053168    0.016016   -0.021661    0.039727   -0.017114
-0.0063954    0.022512   -0.037252    0.015367   -0.013866    0.048172  -0.0057458
0.0072465    0.034206   -0.018088    0.018615   0.0049729    0.053369 -0.00022403
0.022188    0.044275  -0.0031473    0.028034    0.027709    0.056942   0.0020496
0.034206    0.053694   0.0085458    0.044275    0.041027    0.058891  0.00010078
0.041676    0.064413    0.019914    0.058566    0.038428    0.058241  -0.0050961
0.046873    0.073832    0.028359    0.066037    0.022188    0.055643   -0.012567
0.051745    0.080653    0.028684    0.065712    0.013418    0.053044   -0.014191
0.055643    0.083576    0.018615    0.057267    0.037129    0.054019   -0.008669
0.06084    0.080003   0.0020496    0.051096     0.10339    0.061489 -0.00054884
0.065062    0.071234   -0.013541    0.048172     0.19434    0.067661   0.0062721
0.065387    0.057267   -0.022961    0.049147     0.27132    0.067011     0.01017
0.059216    0.043625   -0.020037    0.047198     0.30185    0.055643   0.0085458
0.046223    0.032582  -0.0044465    0.040702     0.28008    0.033881 -0.00087364
0.027709    0.026735    0.017965     0.03518     0.21967   0.0091954    -0.01549
0.011469    0.025436     0.03453    0.033231     0.14724   -0.012242   -0.029132
0.00075039     0.02641    0.037454     0.03583    0.079029   -0.028482   -0.035628
-0.0073698    0.024137    0.031932    0.041027    0.028034   -0.040175   -0.037252
-0.012892    0.016341    0.027709    0.047523   0.0010752   -0.046671   -0.033679
-0.01614   0.0072465    0.029658    0.049796  -0.0031473    -0.04927   -0.027183
-0.015165   0.0010752    0.038103    0.043625  0.00075039   -0.047321   -0.017439
-0.0083442   0.0017248     0.05142    0.029009  -0.0021729   -0.037902  -0.0063954
-0.0028225   0.0091954    0.063113    0.013093   -0.018088   -0.024909   0.0043233
0.00042559    0.020888     0.06831   0.0023744   -0.039526   -0.013541    0.014392
0.0017248    0.034206    0.062464  -0.0024977    -0.05739  -0.0073698    0.019589
0.0014    0.045574    0.048172  -0.0050961    -0.06551  -0.0057458    0.020564
0.0014    0.050771    0.028684  -0.0080194   -0.063886  -0.0037969    0.020239
-0.00022403    0.049147   0.0056225   -0.013541    -0.05804  0.00042559    0.015042
-0.0047713    0.038428   -0.018738   -0.022636   -0.050569   0.0033489   0.0062721
-0.010293    0.017316   -0.042124    -0.03238    -0.04927   0.0010752 -0.00087364
-0.019712  -0.0057458   -0.059014     -0.0405   -0.059014   -0.008669  -0.0047713
-0.032055   -0.025234   -0.063561   -0.044073   -0.077528   -0.022311   -0.008669
-0.045697   -0.038551   -0.058689   -0.044723   -0.097341   -0.036927    -0.01614
-0.056091   -0.046671   -0.046996   -0.044723    -0.11196   -0.051219   -0.025559
-0.061937   -0.047971   -0.034004   -0.041799    -0.11651   -0.063561   -0.035953
-0.061937   -0.043423   -0.022311   -0.034978    -0.11521   -0.070707   -0.044073
-0.055766   -0.035303   -0.015165   -0.022961    -0.11033   -0.068109   -0.046022
-0.04927   -0.028482   -0.013541  -0.0080194    -0.10449   -0.058365   -0.043423
-0.046022   -0.026533    -0.01614   0.0065969   -0.097666    -0.04862   -0.036278
-0.046996   -0.030106   -0.017764    0.018615    -0.09117   -0.045372   -0.031081
-0.051219   -0.040825   -0.015815    0.022512     -0.0824   -0.047646   -0.030756
-0.059989   -0.052193    -0.01484    0.019914   -0.076229    -0.04927   -0.037252
-0.069408   -0.059339   -0.014191    0.012768    -0.07428   -0.045047   -0.044398
-0.073631   -0.057715   -0.010943   0.0069217   -0.077528   -0.037252   -0.050894
-0.072656    -0.04992  -0.0083442    0.003024   -0.083375   -0.025884   -0.054142
-0.06616   -0.040825  -0.0089938    0.003024   -0.088896   -0.012892    -0.04992
-0.059014   -0.032705   -0.011917   0.0036737   -0.092469  -0.0021729   -0.039201
-0.04927   -0.024909    -0.01549   0.0033489   -0.092794 -0.00022403   -0.029132
-0.044398   -0.019063    -0.01484      0.0014    -0.09182  -0.0054209   -0.021337
-0.045047   -0.014191   -0.013216  -0.0018481    -0.09117   -0.013216   -0.014191
-0.047971  -0.0093186  -0.0099683  -0.0054209   -0.090196   -0.018088  -0.0054209
-0.051219  -0.0063954   -0.012567  -0.0067202   -0.087272   -0.017764   0.0052977
-0.052843  -0.0031473   -0.020687  -0.0067202     -0.0824  -0.0089938    0.011794
-0.04927  -0.0018481    -0.03238  -0.0080194   -0.076879   0.0085458    0.016016
-0.041475  -0.0031473   -0.043748   -0.012242   -0.072981    0.023487    0.021863
-0.029132  -0.0057458   -0.052193   -0.017114   -0.071357    0.028359    0.029009
-0.012567   -0.011267   -0.052843   -0.019712   -0.070382    0.019914    0.030633
0.0036737    -0.01549   -0.041475   -0.020037   -0.072981    0.003024    0.022512
0.015042   -0.014191   -0.025559   -0.015165   -0.072656   -0.015165    0.010819
0.019914  -0.0067202    -0.01484  -0.0063954   -0.068434   -0.026533   0.0065969
0.015042   0.0010752    -0.01614   0.0017248   -0.062912   -0.029132    0.013418
0.0052977   0.0059473   -0.023935   0.0059473    -0.05739   -0.024585    0.024786
-0.0015233   0.0069217   -0.030756   0.0065969   -0.054792   -0.018738     0.03583
-0.00087364   0.0049729   -0.033679   0.0072465   -0.055116   -0.016789    0.041676
0.0036737   0.0075714   -0.029132   0.0075714    -0.05739   -0.018413    0.042975
0.0078962    0.014717    -0.01549   0.0095202   -0.060963   -0.019712    0.042651
0.012119    0.024461 -0.00054884    0.013418   -0.058365   -0.016464    0.042326
0.013418    0.032906   0.0085458    0.019264   -0.051219   -0.011592    0.041676
0.010495    0.038753   0.0085458    0.021863   -0.041475   -0.007045    0.040377
0.010495    0.042326   0.0033489    0.018615   -0.034004  0.00075039    0.037454
0.016341    0.048172 -0.00087364    0.013418   -0.030756    0.010819    0.033881
0.026085    0.056942  -0.0024977    0.010495   -0.036927    0.018615    0.029009
0.034206    0.064413 -0.00087364    0.010819   -0.050569    0.020888    0.024786
0.036154    0.070259   0.0043233    0.015042   -0.068434    0.014068    0.025436
0.029983    0.071883    0.012768    0.021538   -0.083375  0.00010078    0.033556
0.022188    0.070909    0.022188    0.028359   -0.092145   -0.012892    0.044275
0.020564    0.066362    0.027709    0.033231   -0.094418   -0.016464     0.05207
0.023812    0.060515    0.023487    0.038428   -0.086948   -0.013866    0.052395
0.028034    0.055643   0.0091954    0.042326   -0.073306   -0.010293    0.046548
0.029658    0.054019  -0.0093186    0.042975   -0.061288   -0.015165    0.036804
0.029009    0.052395   -0.022961    0.037129   -0.055441   -0.028157    0.025436
0.023487    0.048497   -0.031081    0.027709   -0.055441   -0.043099     0.01829
0.016341    0.044924   -0.033354    0.017965   -0.059664   -0.051544    0.015042
0.012443    0.046873   -0.034004    0.012443   -0.061288   -0.051544    0.014068
0.017316    0.053694    -0.03238    0.015692   -0.057065   -0.046996    0.016991
0.027709    0.065387   -0.027183    0.023812   -0.045697   -0.040825    0.023487
0.037778    0.078704   -0.021986    0.030633   -0.027833   -0.034654    0.031282
0.042326      0.0865   -0.023285    0.034855   -0.011267   -0.029132    0.038428
0.043625    0.081627   -0.034978    0.034855  -0.0031473   -0.021337    0.042326
0.038428    0.062139   -0.052193    0.030308  -0.0050961   -0.011592    0.046223
0.030308    0.039402    -0.06616    0.023487   -0.014191  -0.0021729    0.050121
0.019264     0.01894   -0.072331    0.016666   -0.022636   0.0017248    0.053694
0.0075714   0.0088706   -0.065835    0.012768    -0.02426  -0.0031473    0.056292
-0.0028225    0.011794    -0.04862    0.013093    -0.01484   -0.016464    0.058891
-0.0047713    0.019914   -0.025884    0.019264   0.0036737   -0.027183    0.059865
0.0039985     0.02641  0.00010078    0.028359    0.024786   -0.028807    0.059865
0.015692    0.027709    0.026085    0.033881    0.041351   -0.020687    0.054668
0.022512    0.026735    0.046873    0.032906     0.05142  -0.0060706    0.040702
0.023162    0.025111    0.061489    0.028034    0.056617   0.0085458    0.023812
0.021213    0.022837    0.065062    0.021213    0.057917    0.019264    0.011469
0.020888     0.01764    0.058891     0.01764    0.061489    0.025436   0.0088706
0.020564     0.01017    0.046873     0.01764    0.067986    0.029009     0.01017
0.020239   0.0049729    0.038753    0.019589    0.078055    0.031932    0.009845
0.025111   0.0049729    0.039402     0.02706    0.091047    0.036154   0.0062721
0.034855     0.01017    0.045574    0.038103     0.10436      0.0433  0.00075039
0.045574    0.016016    0.050446    0.049472     0.11703    0.053694  -0.0060706
0.052395    0.016016    0.053369    0.059541      0.1219    0.065062  -0.0093186
0.053044   0.0078962    0.054668    0.065387     0.11703    0.074157  -0.0080194
0.048497  -0.0037969    0.053694    0.067986     0.10274    0.074482   0.0017248
0.040702    -0.01614    0.048497    0.066037    0.083901    0.067011     0.01764
0.034855    -0.02361    0.041676    0.062464    0.067011    0.056292    0.030633
0.032906   -0.025884    0.036479    0.055643    0.056617    0.048822    0.029658
0.031932    -0.02361    0.032906    0.049147    0.056292    0.046548    0.016341
0.029009   -0.020687    0.030957    0.042651    0.061489    0.047198      0.0014
0.022188   -0.020362    0.030308    0.038103    0.061814    0.047847   -0.010293
0.013743    -0.02361    0.032906    0.031932    0.050446    0.041351   -0.017114
0.0072465   -0.027833    0.039078    0.022837    0.033231    0.028684   -0.018738
0.0049729   -0.034004    0.042651    0.012443    0.019914    0.016341    -0.01549
0.0075714   -0.038551    0.038428   0.0023744    0.019264   0.0062721  -0.0093186
0.011144   -0.044398    0.028684  -0.0050961    0.027385      0.0014  -0.0083442
0.010495   -0.046996    0.015042  -0.0096434     0.03453 -0.00054884   -0.011267
0.0069217   -0.043748   0.0033489   -0.011917    0.033881 -0.00087364    -0.01614
0.0036737   -0.034978  -0.0057458   -0.013216     0.02641  -0.0021729   -0.020037
0.0014   -0.027833   -0.010943   -0.013866    0.015367  -0.0047713   -0.024585
-0.00054884   -0.025234   -0.011592   -0.013866    0.008221  -0.0083442   -0.027508
-0.00022403   -0.026209  -0.0060706   -0.015165    0.008221  -0.0096434   -0.025884
0.0036737   -0.030106   0.0046481   -0.015815    0.015042   -0.012567   -0.023285
0.0078962   -0.033679    0.014392   -0.015815    0.023812   -0.016464   -0.018413
0.009845   -0.034978    0.018615   -0.017764    0.031607   -0.020362    -0.01549
0.01017   -0.033679    0.016991   -0.020687    0.034206   -0.019712   -0.017764
0.0069217   -0.030431    0.012119   -0.021012    0.029333   -0.016789   -0.022961
0.0023744   -0.026858   0.0052977   -0.019712    0.016341   -0.019388   -0.023285
0.00042559   -0.025884  -0.0041217   -0.021012  0.00042559   -0.026858   -0.017764
0.003024   -0.026533   -0.013866   -0.024585   -0.012567   -0.035628  -0.0076946
0.008221   -0.028157   -0.018738   -0.026209   -0.022961   -0.042449    0.003024
0.013418    -0.03303   -0.018088   -0.024909    -0.03303   -0.044723    0.011794
0.019914   -0.039201   -0.012892   -0.020037   -0.041799   -0.042449     0.01764
0.027709   -0.044723  -0.0063954   -0.015165    -0.04992   -0.040175    0.021538
0.032906   -0.044073  -0.0018481   -0.012567   -0.057715    -0.04115    0.022512
0.031282   -0.035628  0.00042559   -0.012242   -0.063237   -0.046671    0.016991
0.023162   -0.023935   0.0010752   -0.013216    -0.06681   -0.050894   0.0072465
0.013743   -0.012892  0.00010078   -0.011917   -0.073306   -0.050894  -0.0031473
0.0065969  -0.0089938  -0.0034721  -0.0093186   -0.088247   -0.047971   -0.013541
-0.0011985   -0.011917  -0.0099683  -0.0054209    -0.10611   -0.044723   -0.023285
-0.0083442   -0.020687    -0.01614  -0.0018481    -0.11975   -0.044073   -0.029132
-0.013216   -0.028482   -0.020037  -0.0011985    -0.12495   -0.042774   -0.030756
-0.012892   -0.034329   -0.021012  -0.0031473    -0.12527   -0.044073   -0.031081
-0.012567   -0.036602   -0.021337  -0.0099683    -0.12365    -0.04862    -0.03173
-0.017439   -0.036278   -0.023285   -0.017764    -0.12008   -0.054792   -0.033679
-0.023285   -0.028807   -0.024909   -0.023935    -0.10968   -0.056416   -0.032705
-0.026209   -0.016789   -0.027833   -0.028482   -0.085973   -0.050569   -0.030431
-0.025559  -0.0028225    -0.03173   -0.030431   -0.046022     -0.0405   -0.028157
-0.021986   0.0095202   -0.034978   -0.030431    0.010495   -0.030106   -0.021986
-0.019388     0.01894   -0.035953   -0.029782    0.074806   -0.021012   -0.017439
-0.022961    0.024137   -0.035303   -0.026533     0.13262   -0.013541   -0.013866
-0.028157    0.024786   -0.034004   -0.022636     0.17062  -0.0096434   -0.014191
-0.031406    0.026735    -0.03173   -0.019388     0.19304  -0.0093186   -0.018413
-0.031081    0.028359   -0.028807   -0.013866     0.21415   -0.012242   -0.019063
-0.027183    0.029333   -0.027508  -0.0054209      0.2554   -0.011267    -0.01549
-0.025234    0.025436   -0.028482    0.003024     0.32231  -0.0018481  -0.0099683
-0.026533    0.017316   -0.030106   0.0095202     0.38857    0.013093  -0.0044465
-0.025559   0.0091954   -0.027833    0.013418     0.41553     0.02706  -0.0015233
-0.022311    0.008221   -0.022636    0.014068     0.37623    0.030957  0.00010078
-0.018088    0.013093    -0.01549    0.013418     0.27879    0.023487  -0.0028225
-0.012892    0.022512  -0.0067202   0.0091954     0.15503   0.0056225   -0.010943
-0.007045    0.032582   0.0033489    0.003024    0.042326   -0.016464   -0.022636
-0.0041217    0.038753    0.012768  -0.0044465   -0.034654   -0.034978   -0.033679
-0.00022403      0.0433    0.016341   -0.012892   -0.073631   -0.042774     -0.0405
0.0046481    0.045574    0.012443   -0.021012   -0.089546   -0.037902     -0.0405
0.0056225    0.048497   0.0036737   -0.025234    -0.10351   -0.026209   -0.033354
0.00010078    0.051096  -0.0063954    -0.02426    -0.12495   -0.014516    -0.02361
-0.010293    0.049796   -0.013866   -0.017764    -0.15548  -0.0047713   -0.017114
-0.020687    0.044275   -0.019712   -0.012892    -0.18666  0.00075039   -0.018088
-0.026533    0.033231   -0.031081   -0.012892    -0.20875   0.0020496   -0.022636
-0.025884    0.016341    -0.04862   -0.016789    -0.21655  -0.0015233   -0.027508
-0.021986   0.0017248   -0.071357   -0.016464    -0.20875  -0.0076946   -0.027833
-0.021337  -0.0050961   -0.089221  -0.0083442    -0.18504   -0.012567    -0.02426
-0.024909  -0.0037969   -0.093119   0.0052977    -0.14736   -0.014516   -0.019063
-0.03238   0.0062721   -0.078178    0.019914    -0.10221   -0.010943   -0.016464
-0.034978    0.016666   -0.050244    0.031932   -0.059014  -0.0015233    -0.01484
-0.026858    0.019589    -0.01549    0.038428   -0.027508   0.0075714    -0.01484
-0.011592    0.012119    0.016341    0.036804   -0.013541    0.010495    -0.01549
0.00042559 -0.00022403    0.038103    0.030957   -0.016789   0.0078962    -0.01549
0.0062721  -0.0083442    0.044924    0.024137    -0.03238    0.003024    -0.01549
0.008221  -0.0060706    0.037778    0.020888   -0.053168  0.00010078   -0.012892
0.01017   0.0049729    0.021538    0.023812   -0.077203 -0.00054884  -0.0089938
0.011144    0.014068   0.0017248    0.031932    -0.09994  0.00010078  -0.0063954
0.010819    0.019914   -0.010618    0.037778    -0.11033   0.0020496  -0.0041217
0.0075714    0.021863   -0.011917    0.037454    -0.10611   0.0056225  -0.0021729
0.003024    0.019589  -0.0021729    0.029658   -0.091495   0.0078962  -0.0044465
0.00010078    0.012119   0.0091954    0.020239   -0.075904   0.0059473  -0.0096434
-0.00054884   0.0017248    0.016341    0.012443   -0.070382  0.00042559   -0.016464
-0.0044465  -0.0093186    0.019914     0.01017   -0.080127   -0.010943   -0.022636
-0.010293   -0.015815    0.021538    0.013743   -0.094093   -0.024909   -0.027183
-0.012892   -0.016789    0.020239    0.019589    -0.09929   -0.038551   -0.027833
-0.010293   -0.014516    0.014068    0.025436   -0.088572   -0.046347    -0.02361
-0.00054884   -0.013216   0.0085458    0.029658   -0.059989   -0.046022   -0.016464
0.011469   -0.011267    0.008221    0.032582    -0.01549   -0.037577  -0.0099683
0.021538  -0.0099683    0.013093     0.03518    0.031282    -0.02426  -0.0044465
0.025436   -0.010293    0.016666    0.034855     0.06831   -0.015165  0.00010078
0.023487   -0.010618    0.018615    0.029009      0.0852   -0.013216   0.0059473
0.020888  -0.0073698    0.021863    0.022837    0.079029   -0.017764    0.013418
0.019589   0.0020496    0.027709     0.01764    0.054344   -0.025884    0.019264
0.016016    0.014068    0.033231    0.013743    0.019589   -0.033679    0.025436
