,channel_1,channel_2,channel_3,channel_4,channel_5,channel_6,channel_7
0,0.024474,0.010333,-0.010386,0.0011247,-0.13897,0.044206,0.047824
1,0.024803,0.0090175,-0.014661,-0.0064392,-0.15575,0.031052,0.03434
2,0.026776,0.0083598,-0.017292,-0.01499,-0.17153,0.022501,0.024474
3,0.028421,0.010662,-0.015319,-0.023211,-0.18501,0.021186,0.021843
4,0.028421,0.017568,-0.0097279,-0.026171,-0.19751,0.025132,0.024474
5,0.027763,0.024803,-0.0031506,-0.023211,-0.20738,0.026119,0.025132
6,0.024803,0.032367,0.0030979,-0.013674,-0.21922,0.023817,0.022501
7,0.021514,0.037629,0.013293,-0.0018351,-0.23369,0.022172,0.021514
8,0.017568,0.041247,0.024474,0.011977,-0.24487,0.025132,0.021514
9,0.013293,0.040918,0.032696,0.025132,-0.24421,0.029407,0.023817
10,0.0067154,0.036642,0.033025,0.034669,-0.23007,0.030394,0.027105
11,-0.0011774,0.029078,0.02875,0.039273,-0.20771,0.027105,0.026776
12,-0.010057,0.023817,0.019212,0.039931,-0.18271,0.023488,0.02283
13,-0.014332,0.020528,0.0057288,0.039602,-0.15838,0.019212,0.017897
14,-0.011043,0.021186,-0.0077547,0.039273,-0.1347,0.018226,0.015266
15,-0.0015062,0.026119,-0.013674,0.036642,-0.11201,0.020528,0.015266
16,0.0096753,0.034011,-0.013017,0.032367,-0.089972,0.023817,0.015266
17,0.012964,0.041904,-0.0087413,0.029078,-0.065307,0.028092,0.015595
18,0.0073732,0.051113,-0.0038083,0.029407,-0.036695,0.033354,0.014608
19,-0.0011774,0.057032,-0.0015062,0.032038,-0.0041372,0.039273,0.014608
20,-0.0093991,0.053743,-0.00051963,0.032367,0.032367,0.044206,0.015595
21,-0.017292,0.037958,0.0017824,0.027105,0.061307,0.043877,0.012635
22,-0.023869,0.018884,0.0070443,0.018884,0.071831,0.041247,0.0047422
23,-0.029789,0.0047422,0.014608,0.012306,0.062623,0.04322,-0.0031506
24,-0.034722,0.0014536,0.020199,0.010662,0.041904,0.049139,-0.0077547
25,-0.036695,0.0073732,0.020857,0.017239,0.021186,0.055388,-0.010386
26,-0.033406,0.015595,0.017239,0.030723,0.010333,0.056703,-0.0087413
27,-0.02354,0.018555,0.017239,0.047824,0.015924,0.053415,-0.004466
28,-0.0090702,0.0093464,0.020199,0.064596,0.04026,0.047166,0.0017824
29,0.0040845,-0.0077547,0.020857,0.076764,0.078409,0.041575,0.013622
30,0.010333,-0.022883,0.018226,0.084986,0.1284,0.041247,0.030723
31,0.0080309,-0.027487,0.016253,0.08959,0.18332,0.042233,0.048482
32,0.0001381,-0.020909,0.016581,0.088932,0.22837,0.039931,0.058676
33,-0.0057815,-0.0080836,0.01987,0.082026,0.24482,0.034011,0.06065
34,-0.0064392,0.0047422,0.027105,0.0692,0.21686,0.032038,0.057361
35,-0.0057815,0.01132,0.032038,0.054072,0.14484,0.036314,0.053415
36,-0.0090702,0.014937,0.032367,0.042562,0.042562,0.040918,0.050784
37,-0.014661,0.015266,0.032038,0.042233,-0.064978,0.04026,0.051113
38,-0.016963,0.013622,0.034011,0.054401,-0.15081,0.035327,0.055717
39,-0.011043,0.012635,0.04026,0.068871,-0.19093,0.029736,0.059334
40,0.002769,0.013951,0.050455,0.077751,-0.16989,0.028092,0.062294
41,0.01987,0.015266,0.062294,0.077751,-0.089972,0.032038,0.066898
42,0.033683,0.018884,0.069529,0.0692,0.024145,0.040918,0.072818
43,0.035985,0.023159,0.071502,0.059992,0.14024,0.052757,0.074791
44,0.030723,0.02579,0.065912,0.054401,0.23265,0.060979,0.069858
45,0.021514,0.021843,0.053743,0.053415,0.28559,0.063938,0.062623
46,0.015595,0.015924,0.038944,0.052757,0.29349,0.059334,0.057361
47,0.012306,0.01132,0.028092,0.045851,0.26356,0.047166,0.053415
48,0.0096753,0.0057288,0.022501,0.035327,0.2093,0.033025,0.051113
49,0.0037556,-0.0018351,0.017239,0.021186,0.14287,0.016253,0.049468
50,-0.002164,-0.010057,0.0083598,0.0063866,0.075449,-0.0011774,0.044535
51,-0.0015062,-0.01795,-0.004466,-0.0064392,0.015266,-0.012688,0.04026
52,0.0070443,-0.025514,-0.018607,-0.01795,-0.032091,-0.016634,0.034669
53,0.017897,-0.033078,-0.033406,-0.027816,-0.065307,-0.013017,0.027434
54,0.02875,-0.040641,-0.043601,-0.036037,-0.089972,-0.0061104,0.019212
55,0.035656,-0.049521,-0.047219,-0.041628,-0.10905,-0.00051963,0.010333
56,0.039273,-0.058729,-0.044259,-0.04393,-0.1222,-0.0038083,0.0017824
57,0.04026,-0.065635,-0.040313,-0.044588,-0.1324,-0.0077547,-0.0051238
58,0.037958,-0.063004,-0.040313,-0.044588,-0.14193,-0.0097279,-0.011701
59,0.031381,-0.048863,-0.041628,-0.046561,-0.15607,-0.011043,-0.016963
60,0.020528,-0.028802,-0.04393,-0.052481,-0.18107,-0.016963,-0.020909
61,0.002769,-0.0097279,-0.04689,-0.062018,-0.21428,-0.024527,-0.02354
62,-0.013345,0.0080309,-0.04985,-0.068595,-0.25079,-0.031433,-0.027487
63,-0.019923,0.01987,-0.051494,-0.064978,-0.28927,-0.03538,-0.02946
64,-0.016634,0.026447,-0.047548,-0.052481,-0.32478,-0.032749,-0.030775
65,-0.0074258,0.026119,-0.038997,-0.035051,-0.34747,-0.022225,-0.031104
66,0.0030979,0.017239,-0.027487,-0.017621,-0.34353,-0.0047949,-0.033406
67,0.010991,0.0090175,-0.016634,-0.002164,-0.309,0.010991,-0.033735
68,0.015266,0.0070443,-0.007097,0.0080309,-0.24585,0.017239,-0.028802
69,0.015266,0.012964,-0.0028217,0.013293,-0.16134,0.011977,-0.015976
70,0.010662,0.019212,-0.0054526,0.0083598,-0.073528,-0.0024928,0.0011247
71,0.0070443,0.022501,-0.011043,-0.0087413,0.0021113,-0.021896,0.017897
72,0.002769,0.024474,-0.016305,-0.030118,0.053743,-0.041299,0.031052
73,-0.002164,0.026776,-0.017621,-0.052481,0.07808,-0.061689,0.036642
74,-0.0074258,0.027763,-0.013674,-0.069911,0.078737,-0.078461,0.036314
75,-0.015648,0.025132,-0.0047949,-0.07879,0.062952,-0.087669,0.030723
76,-0.023869,0.01987,0.0034268,-0.083065,0.041575,-0.086354,0.024145
77,-0.026829,0.01987,0.01132,-0.082079,0.026119,-0.079448,0.021514
78,-0.019923,0.026119,0.017568,-0.077146,0.021186,-0.07024,0.022501
79,-0.0051238,0.033683,0.023817,-0.07024,0.031381,-0.065635,0.02875
80,0.012635,0.034669,0.027105,-0.060702,0.048482,-0.06432,0.033354
81,0.024145,0.026776,0.029407,-0.04985,0.068214,-0.069582,0.032696
82,0.027434,0.014608,0.029078,-0.037353,0.088275,-0.079777,0.024803
83,0.02579,0.0060577,0.026776,-0.030775,0.10702,-0.092931,0.016581
84,0.020857,0.0063866,0.018884,-0.03242,0.12346,-0.099838,0.012635
85,0.011977,0.013293,0.0037556,-0.040641,0.13662,-0.093918,0.014608
86,0.0001381,0.021843,-0.012359,-0.050507,0.14517,-0.074844,0.01691
87,-0.013017,0.024145,-0.025514,-0.056427,0.15043,-0.053467,0.015266
88,-0.022554,0.01691,-0.032749,-0.056427,0.15076,-0.039326,0.0080309
89,-0.022883,0.0011247,-0.033406,-0.049521,0.14024,-0.038339,-0.0061104
90,-0.017292,-0.018278,-0.027816,-0.036366,0.12149,-0.047219,-0.026829
91,-0.0087413,-0.030775,-0.017621,-0.024527,0.099785,-0.062018,-0.046232
92,-0.0008485,-0.035051,-0.010057,-0.015319,0.084986,-0.079119,-0.059716
93,0.0044134,-0.032749,-0.010386,-0.012359,0.075778,-0.095233,-0.066293
94,0.0060577,-0.026829,-0.016305,-0.018936,0.065912,-0.10477,-0.068924
95,0.0044134,-0.019265,-0.023869,-0.029789,0.047824,-0.1097,-0.065635
96,0.0001381,-0.011372,-0.027816,-0.037682,0.018555,-0.11135,-0.057743
97,-0.011701,-0.0087413,-0.025842,-0.033406,-0.015648,-0.11431,-0.049192
98,-0.02946,-0.015976,-0.021896,-0.019594,-0.050836,-0.12121,-0.042944
99,-0.050507,-0.027816,-0.020252,-0.0057815,-0.080763,-0.12779,-0.041299
100,-0.06432,-0.039984,-0.023211,0.0034268,-0.1028,-0.12878,-0.041957
101,-0.068924,-0.048863,-0.03242,0.0047422,-0.11825,-0.12582,-0.043272
102,-0.066293,-0.05544,-0.045574,0.00046697,-0.13108,-0.12319,-0.043601
103,-0.058729,-0.058729,-0.059716,-0.0064392,-0.14325,-0.11957,-0.042286
104,-0.044588,-0.060373,-0.065964,-0.012688,-0.15246,-0.11168,-0.038011
105,-0.024198,-0.060373,-0.066293,-0.011701,-0.15246,-0.098193,-0.036366
106,-0.0074258,-0.060373,-0.06136,-0.0074258,-0.13963,-0.082079,-0.036695
107,0.0054,-0.060045,-0.057085,-0.002164,-0.11562,-0.066293,-0.040641
108,0.012306,-0.057743,-0.054454,0.0030979,-0.081421,-0.055112,-0.048534
109,0.018555,-0.057743,-0.049521,0.010333,-0.041957,-0.050836,-0.058071
110,0.029078,-0.05544,-0.037682,0.014937,-0.0047949,-0.051165,-0.067609
111,0.036971,-0.047219,-0.022883,0.015924,0.029078,-0.054454,-0.068266
112,0.038287,-0.036366,-0.0067681,0.013622,0.057361,-0.054125,-0.059058
113,0.032038,-0.026171,0.0030979,0.012964,0.078737,-0.051494,-0.042944
114,0.020857,-0.018278,0.0044134,0.012306,0.09255,-0.044588,-0.027487
115,0.0096753,-0.011043,-0.0018351,0.013622,0.096825,-0.031762,-0.024856
116,0.002769,-0.0047949,-0.011701,0.018555,0.090905,-0.013017,-0.035051
117,0.0044134,-0.0024928,-0.022883,0.01987,0.077422,0.0070443,-0.04985
118,0.015266,-0.0061104,-0.030118,0.016581,0.062294,0.02579,-0.06136
119,0.027434,-0.012688,-0.027816,0.0093464,0.049797,0.044535,-0.064978
120,0.034669,-0.016963,-0.020909,0.0040845,0.041904,0.067885,-0.059716
121,0.033354,-0.016305,-0.015319,0.0024402,0.045851,0.094194,-0.048205
122,0.025132,-0.01499,-0.01203,0.0063866,0.068871,0.11656,-0.036695
123,0.014279,-0.0097279,-0.0090702,0.017897,0.11656,0.12708,-0.031433
124,0.0077021,0.0021113,-0.0087413,0.032038,0.19022,0.12182,-0.032091
125,0.0060577,0.014279,-0.0064392,0.042562,0.2754,0.10866,-0.033735
126,0.0086887,0.018555,-0.00051963,0.044864,0.34578,0.093208,-0.032749
127,0.012964,0.016253,0.0063866,0.038616,0.37669,0.078409,-0.0265
128,0.012306,0.012306,0.011648,0.02875,0.3517,0.06624,-0.01795
129,0.0073732,0.011648,0.010991,0.017897,0.26882,0.058019,-0.0074258
130,0.0014536,0.012306,0.0021113,0.011648,0.14418,0.054072,0.002769
131,-0.0008485,0.015266,-0.0093991,0.0093464,0.0060577,0.059663,0.013293
132,0.00046697,0.020857,-0.019265,0.0083598,-0.11891,0.07216,0.023159
133,0.0030979,0.032038,-0.018936,0.0093464,-0.20968,0.087617,0.032367
134,0.0040845,0.043877,-0.011701,0.014279,-0.25901,0.10176,0.042562
135,0.0017824,0.050784,-0.0061104,0.022501,-0.26032,0.11064,0.05177
136,-0.0034794,0.05177,-0.0087413,0.02875,-0.21395,0.10899,0.059992
137,-0.0051238,0.04881,-0.014661,0.02875,-0.12878,0.095181,0.069529
138,-0.0031506,0.049797,-0.017621,0.02579,-0.027816,0.074133,0.076764
139,0.0034268,0.053086,-0.016963,0.023817,0.055388,0.054072,0.080382
140,0.010991,0.058348,-0.018278,0.02283,0.10077,0.040589,0.07808
141,0.013951,0.067556,-0.023211,0.027105,0.097154,0.034669,0.067556
142,0.010991,0.075449,-0.024856,0.035656,0.051113,0.036314,0.053415
143,0.0011247,0.07512,-0.023869,0.042233,-0.018607,0.042891,0.037958
144,-0.0093991,0.065254,-0.020581,0.038944,-0.09326,0.050126,0.024145
145,-0.021238,0.052099,-0.016634,0.028421,-0.14785,0.052757,0.014937
146,-0.031762,0.038944,-0.01203,0.013951,-0.17909,0.050455,0.010662
147,-0.038668,0.028421,-0.0080836,-0.0011774,-0.1883,0.047824,0.010662
148,-0.039655,0.018555,-0.0054526,-0.013674,-0.17745,0.04618,0.012635
149,-0.038011,0.0040845,-0.0067681,-0.020909,-0.14785,0.041247,0.0073732
150,-0.040313,-0.013017,-0.0087413,-0.022225,-0.10313,0.028092,-0.0047949
151,-0.04985,-0.031433,-0.010386,-0.020581,-0.052481,0.0077021,-0.021896
152,-0.065307,-0.045574,-0.0077547,-0.016963,-0.0034794,-0.015976,-0.037024
153,-0.077803,-0.053796,-0.0061104,-0.013017,0.035327,-0.036695,-0.047219
154,-0.083394,-0.054454,-0.0090702,-0.0097279,0.058019,-0.047877,-0.04985
155,-0.08175,-0.048863,-0.01499,-0.004466,0.062623,-0.052152,-0.047877
156,-0.073528,-0.038011,-0.021896,0.0001381,0.055059,-0.052481,-0.042615
157,-0.060373,-0.026171,-0.025185,0.0011247,0.042891,-0.04985,-0.038668
158,-0.045246,-0.018607,-0.027158,-0.0054526,0.028421,-0.045903,-0.035708
159,-0.030447,-0.015648,-0.028802,-0.016963,0.014937,-0.039655,-0.02946
160,-0.016963,-0.016963,-0.029131,-0.022554,0.0073732,-0.031104,-0.016963
161,-0.0061104,-0.018936,-0.0265,-0.018936,0.0054,-0.024198,0.0001381
162,0.0014536,-0.01499,-0.022883,-0.0077547,0.0057288,-0.024198,0.014608
163,0.0040845,-0.0064392,-0.018936,0.0040845,0.0060577,-0.030447,0.022172
164,0.0017824,-0.00019077,-0.017621,0.01132,0.0057288,-0.039655,0.023159
165,-0.0067681,0.0030979,-0.014661,0.012964,-0.0018351,-0.047219,0.020857
166,-0.01795,0.0044134,-0.0077547,0.015266,-0.023869,-0.050179,0.019541
167,-0.028473,0.0083598,0.0030979,0.023817,-0.056756,-0.048534,0.023159
168,-0.034064,0.013951,0.014608,0.035985,-0.088327,-0.049192,0.029736
169,-0.030775,0.020528,0.024145,0.04618,-0.10378,-0.05281,0.038944
170,-0.018278,0.029736,0.032696,0.05473,-0.097864,-0.055769,0.049139
171,-0.00051963,0.038287,0.04026,0.063938,-0.083723,-0.056098,0.058019
172,0.018884,0.043877,0.04618,0.074133,-0.070897,-0.053138,0.06361
173,0.033354,0.045522,0.049468,0.086959,-0.062676,-0.048205,0.061965
174,0.041575,0.044535,0.047824,0.098469,-0.054454,-0.041957,0.055717
175,0.044864,0.042891,0.042562,0.10274,-0.04097,-0.036037,0.049468
176,0.041575,0.042233,0.035327,0.095181,-0.016963,-0.031104,0.042562
177,0.029407,0.036642,0.030723,0.078409,0.021514,-0.027158,0.0373
178,0.012306,0.026776,0.028092,0.06361,0.074133,-0.021896,0.034011
179,-0.0074258,0.012306,0.026447,0.055388,0.13234,-0.01499,0.032696
180,-0.021238,-0.0064392,0.028092,0.054401,0.18825,-0.0067681,0.031381
181,-0.028144,-0.020252,0.034669,0.056374,0.2287,0.0034268,0.02579
182,-0.028144,-0.024856,0.043877,0.057032,0.24745,0.016253,0.021186
183,-0.02354,-0.01499,0.052757,0.052757,0.24087,0.026447,0.020199
184,-0.016634,0.0011247,0.055717,0.04322,0.21555,0.029407,0.022172
185,-0.0090702,0.013951,0.050784,0.032367,0.17542,0.026119,0.028421
186,-0.0031506,0.017897,0.038616,0.024474,0.12346,0.021843,0.034669
187,-0.00051963,0.015595,0.022501,0.019541,0.065912,0.015266,0.039602
188,0.0021113,0.0096753,0.0054,0.014279,0.0044134,0.012635,0.037958
189,0.0077021,0.0060577,-0.010386,0.0083598,-0.060045,0.014608,0.031709
190,0.017897,0.0047422,-0.021567,0.0021113,-0.12845,0.023159,0.01987
191,0.02875,0.0030979,-0.02946,-0.0047949,-0.19225,0.031709,0.0090175
192,0.034998,-0.0008485,-0.031104,-0.012359,-0.23763,0.034669,0.0034268
193,0.032696,-0.007097,-0.027816,-0.01795,-0.24092,0.032038,0.0073732
194,0.022172,-0.010715,-0.022554,-0.020909,-0.18732,0.030065,0.018226
195,0.01132,-0.0067681,-0.013345,-0.024527,-0.092274,0.034998,0.033683
196,0.0011247,0.0044134,-0.0054526,-0.028473,0.0073732,0.047166,0.046837
197,-0.0018351,0.019541,0.0021113,-0.033735,0.074133,0.058019,0.056046
198,0.0024402,0.03434,0.0047422,-0.036037,0.088603,0.062952,0.061307
199,0.01132,0.038616,0.0050711,-0.036366,0.054401,0.05769,0.059992
200,0.018884,0.030065,0.0040845,-0.033078,0.0080309,0.047495,0.050126
201,0.021843,0.010991,0.0067154,-0.0265,0.0050711,0.039931,0.032696
202,0.018884,-0.0067681,0.010662,-0.013674,0.093536,0.039602,0.013951
203,0.010662,-0.015976,0.016581,0.0017824,0.26225,0.04618,-0.0028217
204,0.00079584,-0.014332,0.022172,0.016253,0.44937,0.051441,-0.012688
205,-0.0064392,-0.007097,0.026776,0.02283,0.59111,0.04881,-0.016634
206,-0.0087413,-0.0011774,0.028092,0.01987,0.64834,0.032038,-0.015976
207,-0.0087413,0.00079584,0.024803,0.0080309,0.60229,0.0054,-0.0090702
208,-0.0087413,0.0001381,0.016253,-0.0077547,0.46285,-0.021238,0.0017824
209,-0.0090702,-0.0054526,0.0080309,-0.022883,0.26784,-0.042944,0.010004
210,-0.0087413,-0.013345,0.0011247,-0.03538,0.062952,-0.056098,0.010662
211,-0.010057,-0.015976,-0.0028217,-0.045903,-0.11036,-0.065964,0.0030979
212,-0.013017,-0.0061104,-0.0047949,-0.04689,-0.23402,-0.069911,-0.0051238
213,-0.017292,0.0090175,-0.0057815,-0.039655,-0.31097,-0.066622,-0.010057
214,-0.021238,0.019212,-0.0061104,-0.029789,-0.358,-0.057085,-0.013017
215,-0.024527,0.01987,-0.0067681,-0.02354,-0.39483,-0.052481,-0.016963
216,-0.031762,0.013622,-0.0074258,-0.018278,-0.43101,-0.056427,-0.025842
217,-0.045246,0.0037556,-0.010386,-0.01203,-0.45863,-0.062676,-0.038011
218,-0.063333,-0.0090702,-0.016634,-0.0011774,-0.46028,-0.062347,-0.050179
219,-0.079448,-0.023211,-0.02354,0.014608,-0.407,-0.053138,-0.054454
220,-0.090629,-0.036037,-0.024527,0.030394,-0.30604,-0.035051,-0.05281
221,-0.093918,-0.044588,-0.022554,0.040589,-0.18962,-0.014003,-0.04689
222,-0.087341,-0.044917,-0.019594,0.041247,-0.093918,-0.00051963,-0.043601
223,-0.073199,-0.039984,-0.016305,0.034011,-0.044917,0.0037556,-0.045246
224,-0.057414,-0.036037,-0.01499,0.021843,-0.045574,0.0030979,-0.047219
225,-0.041628,-0.035051,-0.014661,0.0057288,-0.077803,0.0044134,-0.048205
226,-0.026171,-0.038011,-0.014661,-0.01499,-0.1245,0.0080309,-0.04689
227,-0.015648,-0.041957,-0.018936,-0.037024,-0.16956,0.010333,-0.044588
228,-0.011372,-0.045903,-0.027158,-0.052481,-0.2054,0.0040845,-0.041299
229,-0.011701,-0.049521,-0.036695,-0.058729,-0.23007,-0.0084125,-0.033406
230,-0.013345,-0.048534,-0.045246,-0.057743,-0.23994,-0.023211,-0.021238
231,-0.013345,-0.04097,-0.048863,-0.054783,-0.23336,-0.036366,-0.0077547
232,-0.014332,-0.028473,-0.04985,-0.051165,-0.21527,-0.041957,0.0040845
233,-0.01499,-0.017292,-0.051165,-0.051165,-0.19192,-0.038668,0.012964
234,-0.013017,-0.0061104,-0.050507,-0.054783,-0.1666,-0.026829,0.014279
235,-0.0067681,0.0030979,-0.049521,-0.060373,-0.1416,-0.0093991,0.0024402
236,0.0034268,0.0080309,-0.045574,-0.063991,-0.11858,0.010004,-0.014661
237,0.018555,0.0073732,-0.036695,-0.061689,-0.10346,0.025132,-0.027487
238,0.030723,0.002769,-0.026171,-0.053796,-0.097864,0.030394,-0.031104
239,0.036314,-0.0011774,-0.017621,-0.044588,-0.10214,0.026776,-0.025514
240,0.033683,0.00046697,-0.011372,-0.03242,-0.11497,0.018226,-0.013017
241,0.024145,0.0063866,-0.007097,-0.019265,-0.13503,0.011648,0.0057288
242,0.012635,0.013622,-0.0051238,-0.0087413,-0.15607,0.0093464,0.023817
243,0.0054,0.021186,-0.0064392,-0.0038083,-0.17252,0.013951,0.04026
244,0.002769,0.026776,-0.010386,-0.0041372,-0.17449,0.01987,0.054401
245,0.0047422,0.029736,-0.017292,-0.0067681,-0.15903,0.01987,0.065254
246,0.010004,0.032367,-0.022883,-0.0097279,-0.12582,0.010004,0.073147
247,0.016581,0.033354,-0.022883,-0.0080836,-0.076159,-0.0038083,0.080711
248,0.021186,0.032696,-0.017621,-0.0061104,-0.014661,-0.016634,0.087617
249,0.024145,0.032038,-0.010715,-0.0051238,0.055388,-0.025185,0.090248
250,0.026776,0.02875,-0.0015062,-0.004466,0.12412,-0.028802,0.086959
251,0.033683,0.022501,0.0090175,-0.002164,0.18562,-0.028473,0.079395
252,0.039931,0.014279,0.014937,0.0017824,0.2412,-0.024856,0.071173
253,0.04618,0.0080309,0.011977,0.0057288,0.2948,-0.019923,0.064267
254,0.049468,0.0057288,0.0014536,0.010333,0.33262,-0.016963,0.059992
255,0.048482,0.012964,-0.0064392,0.013951,0.34249,-0.014332,0.058019
256,0.044535,0.025132,-0.010057,0.019541,0.32013,-0.010057,0.05769
257,0.037629,0.037629,-0.011372,0.027434,0.27047,-0.011043,0.051441
258,0.031381,0.045193,-0.019594,0.035327,0.20272,-0.019594,0.034011
259,0.032038,0.045193,-0.029131,0.041904,0.12708,-0.031104,0.013293
260,0.033025,0.034669,-0.032091,0.045851,0.059005,-0.037353,-0.00019077
261,0.030394,0.01691,-0.024856,0.047824,0.0037556,-0.036037,-0.0051238
262,0.021514,0.00079584,-0.011043,0.05177,-0.041628,-0.02946,0.00079584
263,0.010333,-0.010057,0.0037556,0.058019,-0.079777,-0.018936,0.011977
264,0.0034268,-0.014003,0.016581,0.061965,-0.11332,-0.0054526,0.02283
265,0.0017824,-0.012359,0.026119,0.061965,-0.14884,0.0073732,0.032696
266,0.0073732,-0.0057815,0.031052,0.059334,-0.19126,0.020857,0.041575
267,0.017568,0.0044134,0.032367,0.054401,-0.23698,0.038944,0.050784
268,0.030065,0.016581,0.032696,0.050126,-0.27118,0.060321,0.058348
269,0.041247,0.024145,0.034669,0.047824,-0.27907,0.082355,0.064596
270,0.048153,0.023817,0.036314,0.050455,-0.25079,0.097812,0.069529
271,0.049139,0.018555,0.034669,0.054401,-0.18896,0.10538,0.070187
272,0.044864,0.016253,0.027434,0.053743,-0.10839,0.10274,0.06624
273,0.035985,0.018226,0.013622,0.048153,-0.023869,0.087288,0.057361
274,0.02579,0.022172,-0.0031506,0.040589,0.049139,0.060979,0.041575
275,0.018226,0.027434,-0.017621,0.033683,0.10209,0.027763,0.025132
276,0.015266,0.031381,-0.024198,0.025461,0.12774,-0.0034794,0.0090175
277,0.012635,0.031052,-0.022225,0.013622,0.12215,-0.029789,-0.0034794
278,0.0086887,0.020857,-0.016634,-0.0028217,0.094194,-0.05281,-0.010057
279,-0.0024928,0.0047422,-0.012359,-0.018278,0.055388,-0.068595,-0.010715
280,-0.016305,-0.010057,-0.0097279,-0.030775,0.019212,-0.080106,-0.007097
281,-0.032091,-0.019594,-0.0077547,-0.033406,-0.0041372,-0.092603,-0.0028217
282,-0.043601,-0.021896,-0.007097,-0.034393,-0.014332,-0.10214,-0.0024928
283,-0.046561,-0.016963,-0.0057815,-0.038668,-0.01795,-0.10937,-0.0067681
284,-0.041299,-0.010057,-0.0028217,-0.045246,-0.020909,-0.11135,-0.016963
285,-0.031762,-0.0054526,-0.0008485,-0.050179,-0.028802,-0.10773,-0.028144
286,-0.020909,-0.0041372,-0.0008485,-0.05281,-0.039984,-0.098193,-0.039326
287,-0.010715,-0.007097,-0.0051238,-0.054454,-0.053467,-0.088327,-0.048863
288,-0.0031506,-0.014661,-0.0077547,-0.056098,-0.06136,-0.07879,-0.054125
289,-0.0018351,-0.022225,-0.0074258,-0.0584,-0.06136,-0.069582,-0.054454
290,-0.0077547,-0.027487,-0.0028217,-0.059387,-0.048863,-0.05544,-0.054454
291,-0.01795,-0.028802,-0.00019077,-0.053796,-0.024198,-0.036366,-0.055112
292,-0.026829,-0.0265,-0.0008485,-0.044588,0.0073732,-0.01499,-0.055112
293,-0.031104,-0.020252,-0.0034794,-0.037353,0.04026,0.0060577,-0.054125
294,-0.030775,-0.011372,-0.007097,-0.03242,0.068871,0.021514,-0.053467
295,-0.031104,-0.0064392,-0.0090702,-0.030118,0.093865,0.02875,-0.053467
296,-0.037682,-0.0061104,-0.014332,-0.029789,0.11031,0.030723,-0.056756
297,-0.047877,-0.0077547,-0.022225,-0.031104,0.11721,0.033683,-0.060702
298,-0.060373,-0.0074258,-0.031433,-0.028802,0.11689,0.036314,-0.069582
299,-0.071226,-0.0077547,-0.039984,-0.020581,0.11623,0.036971,-0.078461
300,-0.073857,-0.010715,-0.042286,-0.007097,0.11952,0.038616,-0.082408
301,-0.066951,-0.014332,-0.035051,0.0063866,0.12807,0.037958,-0.077146
302,-0.050836,-0.015648,-0.022883,0.010333,0.14287,0.0373,-0.067609
303,-0.036037,-0.01203,-0.014332,0.0037556,0.15602,0.04026,-0.057085
304,-0.027816,-0.0051238,-0.011701,-0.0090702,0.16194,0.046837,-0.049192
305,-0.027158,-0.002164,-0.015976,-0.016305,0.15865,0.058348,-0.043601
306,-0.028144,-0.0047949,-0.020909,-0.011701,0.14155,0.070187,-0.03538
307,-0.030118,-0.0093991,-0.022883,0.0024402,0.10538,0.078737,-0.02354
308,-0.027816,-0.012688,-0.02354,0.015595,0.053743,0.079395,-0.011372
309,-0.021896,-0.013345,-0.024198,0.023817,-0.002164,0.072818,-0.0028217
310,-0.013017,-0.0067681,-0.024856,0.024803,-0.049192,0.061307,0.0017824
311,-0.0047949,0.0047422,-0.022225,0.023817,-0.07583,0.047824,0.0040845
312,-0.00051963,0.019212,-0.018278,0.022501,-0.080106,0.032038,0.0011247
313,0.0001381,0.02875,-0.014332,0.025461,-0.064978,0.01691,-0.0090702
314,0.002769,0.029736,-0.0097279,0.032038,-0.04097,0.0044134,-0.023869
315,0.0080309,0.024145,-0.0038083,0.04026,-0.020581,-0.0084125,-0.038011
316,0.013293,0.015595,0.0021113,0.051441,-0.0051238,-0.018607,-0.047219
317,0.018555,0.0063866,0.0077021,0.063938,0.0021113,-0.02354,-0.049192
318,0.024474,-0.0024928,0.01132,0.075778,0.0044134,-0.025185,-0.04393
319,0.032038,-0.011701,0.010991,0.080382,0.0034268,-0.029789,-0.036695
320,0.03434,-0.016634,0.0060577,0.072489,0.0054,-0.039326,-0.02946
321,0.023817,-0.013345,-0.0015062,0.055388,0.010991,-0.051165,-0.024527
322,0.0050711,-0.0054526,-0.0093991,0.034998,0.018884,-0.060373,-0.022225
323,-0.0097279,0.0017824,-0.015648,0.016253,0.027105,-0.062676,-0.019923
324,-0.014003,0.0030979,-0.01795,-0.0015062,0.030065,-0.062676,-0.014003
325,-0.012688,-0.0041372,-0.018607,-0.017292,0.027105,-0.065635,-0.0067681
326,-0.010057,-0.013674,-0.021238,-0.029789,0.012635,-0.07583,-0.0024928
327,-0.007097,-0.018936,-0.028144,-0.04097,-0.007097,-0.087998,-0.0024928
328,-0.002164,-0.020252,-0.034064,-0.050179,-0.028144,-0.097864,-0.0051238
329,0.0037556,-0.019923,-0.037024,-0.05281,-0.05281,-0.10181,-0.0077547
330,0.0090175,-0.017621,-0.032091,-0.051494,-0.080763,-0.10181,-0.0067681
331,0.014279,-0.013674,-0.024856,-0.04985,-0.11398,-0.10017,0.00046697
332,0.014279,-0.0051238,-0.017621,-0.04985,-0.14456,-0.095233,0.014279
333,0.010333,0.0083598,-0.010715,-0.047877,-0.16857,-0.088656,0.032367
334,0.0054,0.021843,-0.0051238,-0.041957,-0.17712,-0.07879,0.052757
335,0.0040845,0.030065,-0.0008485,-0.029131,-0.1666,-0.062676,0.071502
336,0.0096753,0.029407,0.0021113,-0.013345,-0.14127,-0.039655,0.085644
337,0.018884,0.022501,0.002769,0.00079584,-0.10937,-0.017621,0.088275
338,0.024474,0.013622,-0.0024928,0.0073732,-0.071226,0.00046697,0.081368
339,0.020199,0.0093464,-0.01203,0.0070443,-0.031762,0.013951,0.069858
340,0.0096753,0.0086887,-0.020252,0.0073732,0.0011247,0.023817,0.058676
341,-0.0031506,0.0054,-0.021567,0.012635,0.018555,0.031709,0.054072
342,-0.017292,-0.0015062,-0.014003,0.025132,0.01987,0.038616,0.054072
343,-0.028802,-0.0047949,0.00046697,0.036971,0.014937,0.045851,0.058019
344,-0.033406,-0.0034794,0.016253,0.047166,0.01691,0.057032,0.061307
345,-0.027158,0.0011247,0.027434,0.055717,0.034011,0.070187,0.066898
346,-0.012359,0.013622,0.030394,0.06361,0.060979,0.080053,0.069529
347,0.0034268,0.028421,0.028092,0.07216,0.093865,0.084328,0.069858
348,0.014608,0.039602,0.020528,0.08367,0.12905,0.082684,0.07216
349,0.023817,0.040918,0.014608,0.096167,0.16128,0.080711,0.074462
350,0.030065,0.035327,0.017239,0.099785,0.18595,0.082026,0.074462
351,0.029078,0.030723,0.026776,0.093865,0.20601,0.087617,0.067556
352,0.020199,0.034669,0.035327,0.081697,0.22114,0.096496,0.058019
353,0.0093464,0.04322,0.036314,0.071173,0.22739,0.10472,0.04881
354,0.0037556,0.050126,0.030723,0.064596,0.22344,0.10834,0.039602
355,0.0070443,0.050455,0.023488,0.062294,0.20798,0.10439,0.031709
356,0.01132,0.04618,0.01691,0.059992,0.18661,0.095839,0.02579
357,0.010333,0.042233,0.012635,0.057032,0.1649,0.081368,0.021186
358,0.0024402,0.039931,0.012635,0.053086,0.14451,0.062952,0.016253
359,-0.0084125,0.034669,0.015595,0.047495,0.12642,0.045851,0.012635
360,-0.016305,0.019541,0.018226,0.042562,0.11261,0.030065,0.013293
361,-0.019265,-0.0034794,0.017897,0.038287,0.10603,0.01691,0.017239
362,-0.016963,-0.027158,0.017239,0.032367,0.1034,0.0090175,0.02283
363,-0.012688,-0.041628,0.017239,0.026119,0.096825,0.0080309,0.023817
364,-0.0061104,-0.040313,0.014279,0.018555,0.082355,0.0080309,0.023817
365,0.0014536,-0.028802,0.010333,0.012306,0.059663,0.0047422,0.02283
366,0.0093464,-0.017621,0.010004,0.0096753,0.02579,-0.0034794,0.01987
367,0.015266,-0.010386,0.013293,0.010004,-0.014332,-0.013674,0.015595
368,0.021843,-0.0057815,0.014608,0.0090175,-0.054454,-0.023869,0.012635
369,0.027434,-0.0024928,0.014279,0.0047422,-0.083394,-0.029131,0.0086887
370,0.033354,0.0011247,0.012306,-0.004466,-0.10082,-0.027816,0.0030979
371,0.04026,0.0037556,0.010991,-0.020581,-0.11168,-0.025185,-0.0024928
372,0.045522,0.0086887,0.0093464,-0.039655,-0.12352,-0.030775,-0.0051238
373,0.046508,0.01132,0.0050711,-0.056427,-0.13996,-0.047219,-0.0047949
374,0.037629,0.010004,-0.0028217,-0.06432,-0.1564,-0.068924,0.0014536
375,0.022501,0.0040845,-0.014003,-0.063991,-0.16956,-0.086354,0.012306
376,0.0077021,0.00046697,-0.023869,-0.061031,-0.17054,-0.094247,0.024145
377,-0.0018351,-0.00019077,-0.026829,-0.059058,-0.1587,-0.09622,0.033354
378,-0.0074258,0.0017824,-0.021238,-0.059058,-0.13799,-0.095891,0.03434
379,-0.0090702,0.002769,-0.010386,-0.060045,-0.1176,-0.095891,0.028421
380,-0.007097,-0.00051963,-0.0034794,-0.061689,-0.10313,-0.093918,0.017239
381,-0.0028217,-0.0054526,-0.0054526,-0.063333,-0.099838,-0.094576,0.00079584
382,0.0001381,-0.0097279,-0.013674,-0.058729,-0.099838,-0.096549,-0.015648
383,-0.0018351,-0.0087413,-0.023211,-0.04985,-0.098851,-0.098522,-0.031104
384,-0.0064392,-0.0061104,-0.026829,-0.039326,-0.091945,-0.097864,-0.042615
385,-0.012688,-0.0018351,-0.019923,-0.028144,-0.074515,-0.09326,-0.043272
386,-0.017292,0.0030979,-0.0084125,-0.022225,-0.046561,-0.083394,-0.034064
387,-0.021567,0.010991,0.00046697,-0.018607,-0.015319,-0.068924,-0.020909
388,-0.022225,0.019212,0.0017824,-0.01795,0.010991,-0.05544,-0.010057
389,-0.018278,0.023159,-0.0018351,-0.019923,0.029736,-0.045903,-0.0047949
390,-0.014661,0.01691,-0.011043,-0.019594,0.043549,-0.038997,-0.0034794
391,-0.014003,0.0057288,-0.018278,-0.015648,0.053415,-0.029789,-0.0041372
392,-0.016305,-0.0018351,-0.021567,-0.0084125,0.057032,-0.014003,-0.0031506
393,-0.016634,-0.0034794,-0.017621,-0.0015062,0.054072,0.0054,-0.002164
394,-0.016963,0.0001381,-0.0054526,0.0063866,0.050455,0.015595,-0.0008485
395,-0.019265,0.0054,0.0093464,0.010333,0.047495,0.013622,-0.0011774
396,-0.022225,0.0070443,0.023159,0.011977,0.046508,0.0070443,-0.0041372
397,-0.026171,0.0001381,0.032367,0.013951,0.04618,0.0034268,-0.0080836
398,-0.033406,-0.0093991,0.03434,0.017568,0.046508,0.0067154,-0.0093991
399,-0.042944,-0.018278,0.026776,0.021843,0.050126,0.010662,-0.0097279
400,-0.047219,-0.022225,0.012306,0.025132,0.056374,0.014608,-0.010057
401,-0.042615,-0.020581,-0.0011774,0.024145,0.062952,0.020528,-0.014332
402,-0.03242,-0.016634,-0.010386,0.018555,0.057361,0.032367,-0.016634
403,-0.020909,-0.01203,-0.017292,0.010662,0.039273,0.050126,-0.016305
404,-0.0090702,-0.011372,-0.021567,0.0037556,0.013951,0.07216,-0.012688
405,-0.0011774,-0.014661,-0.024856,0.0024402,-0.004466,0.089261,-0.0067681
406,0.0021113,-0.015648,-0.028144,0.0060577,-0.014661,0.096496,-0.00019077
407,0.00079584,-0.015648,-0.031762,0.013622,-0.019594,0.093536,0.0080309
408,-0.0015062,-0.015648,-0.035051,0.019212,-0.027487,0.084986,0.017897
409,-0.0018351,-0.016305,-0.037353,0.01691,-0.046561,0.073804,0.022172
410,0.0011247,-0.01795,-0.037024,0.0096753,-0.086025,0.06361,0.020857
411,0.0044134,-0.01795,-0.033735,0.0014536,-0.14456,0.052757,0.015924
412,0.0047422,-0.017292,-0.029789,-0.0067681,-0.21198,0.043877,0.010004
413,0.0040845,-0.013345,-0.026829,-0.011372,-0.27151,0.0373,0.0044134
414,0.002769,-0.0067681,-0.025185,-0.012359,-0.3067,0.031381,-0.0018351
415,0.002769,0.00046697,-0.02354,-0.015319,-0.30078,0.027434,-0.0074258
416,0.0063866,0.0063866,-0.022225,-0.018936,-0.23928,0.028421,-0.013017
417,0.010662,0.010991,-0.020252,-0.01795,-0.12187,0.032367,-0.014003
418,0.010662,0.011648,-0.016634,-0.012688,0.026776,0.035327,-0.011701
419,0.0050711,0.0054,-0.012359,-0.0067681,0.1626,0.034998,-0.0093991
420,0.00079584,-0.0054526,-0.007097,-0.0047949,0.25369,0.033354,-0.0084125
421,0.0021113,-0.016305,-0.0064392,-0.0054526,0.28888,0.031709,-0.0077547
422,0.0067154,-0.024527,-0.0090702,-0.0024928,0.27408,0.031381,-0.007097
423,0.01132,-0.029789,-0.011372,0.0017824,0.22311,0.031052,-0.01203
424,0.013622,-0.029131,-0.011701,0.0034268,0.15536,0.031709,-0.020909
425,0.010991,-0.024198,-0.013017,-0.002164,0.086959,0.032367,-0.02946
426,0.0054,-0.01795,-0.015976,-0.015648,0.025461,0.031052,-0.036366
427,-0.0034794,-0.01499,-0.01795,-0.032749,-0.031433,0.026119,-0.038668
428,-0.010057,-0.017292,-0.021567,-0.044259,-0.087669,0.012635,-0.040313
429,-0.016305,-0.021896,-0.02354,-0.046561,-0.13963,-0.010715,-0.045246
430,-0.023211,-0.027158,-0.021896,-0.041628,-0.18074,-0.04097,-0.053467
431,-0.032749,-0.028473,-0.019923,-0.030118,-0.20803,-0.070897,-0.062347
432,-0.041299,-0.025514,-0.024198,-0.01795,-0.22448,-0.09622,-0.067609
433,-0.047548,-0.020909,-0.034064,-0.011372,-0.23138,-0.11562,-0.069582
434,-0.050507,-0.017621,-0.042944,-0.0097279,-0.23237,-0.13042,-0.071555
435,-0.048534,-0.014332,-0.046232,-0.011043,-0.22645,-0.14489,-0.074186
436,-0.044917,-0.011043,-0.042615,-0.0067681,-0.20968,-0.15476,-0.079777
437,-0.039326,-0.0087413,-0.038339,0.002769,-0.18304,-0.15805,-0.081092
438,-0.031433,-0.0087413,-0.039326,0.012964,-0.15147,-0.15443,-0.076159
439,-0.024527,-0.010386,-0.043601,0.01691,-0.12154,-0.14654,-0.066622
440,-0.022883,-0.011043,-0.046232,0.010004,-0.10181,-0.13667,-0.056098
441,-0.02354,-0.010386,-0.042286,-0.0041372,-0.091945,-0.12417,-0.050507
442,-0.023211,-0.011701,-0.038668,-0.01499,-0.085696,-0.10872,-0.049521
443,-0.020581,-0.014661,-0.038011,-0.01795,-0.077146,-0.093589,-0.053796
444,-0.013674,-0.016305,-0.039655,-0.013674,-0.06728,-0.083065,-0.059058
445,-0.007097,-0.016963,-0.041957,-0.0061104,-0.060702,-0.080106,-0.058071
446,-0.0031506,-0.019923,-0.043272,0.0011247,-0.063662,-0.085367,-0.04689
447,-0.0057815,-0.025842,-0.041628,0.0034268,-0.077475,-0.091945,-0.033406
448,-0.012688,-0.02946,-0.040641,0.0037556,-0.095233,-0.094247,-0.019923
449,-0.018936,-0.027816,-0.038011,0.0017824,-0.10905,-0.092274,-0.013345
450,-0.020581,-0.021238,-0.037353,-0.00051963,-0.11135,-0.089314,-0.0087413
451,-0.018607,-0.014661,-0.035051,-0.0018351,-0.10346,-0.087998,-0.0041372
452,-0.018607,-0.0077547,-0.027158,-0.0024928,-0.087998,-0.085039,0.0047422
453,-0.022554,-0.0031506,-0.014661,-0.0018351,-0.073199,-0.076488,0.017239
454,-0.025185,0.002769,-0.0011774,0.00046697,-0.060045,-0.062018,0.033683
455,-0.024198,0.010333,0.0096753,0.0037556,-0.051165,-0.042944,0.052099
456,-0.019923,0.022501,0.015595,0.0080309,-0.048534,-0.019265,0.069529
457,-0.014661,0.035985,0.017897,0.011648,-0.051165,0.0057288,0.078737
458,-0.011043,0.049797,0.017897,0.015595,-0.053138,0.032367,0.079724
459,-0.0024928,0.061307,0.01987,0.02283,-0.051165,0.056046,0.077751
460,0.010004,0.067227,0.021514,0.030065,-0.044588,0.07512,0.073804
461,0.020199,0.062952,0.023817,0.035656,-0.035708,0.091563,0.067885
462,0.024145,0.052428,0.026447,0.04026,-0.028473,0.10834,0.067556
463,0.019212,0.042891,0.025461,0.045522,-0.0265,0.1284,0.076435
464,0.010004,0.038616,0.022172,0.052757,-0.021238,0.15142,0.092221
465,0.0037556,0.041575,0.016253,0.058676,-0.0080836,0.1751,0.1057
466,0.0021113,0.048153,0.010662,0.06361,0.013622,0.19614,0.11261
467,0.0044134,0.053086,0.0030979,0.068543,0.040589,0.20765,0.11031
468,0.0070443,0.052428,-0.0034794,0.070187,0.071173,0.20305,0.10044
469,0.0090175,0.047166,-0.0080836,0.068214,0.10538,0.18299,0.086959
470,0.013951,0.039602,-0.0090702,0.06361,0.13333,0.15536,0.073804
471,0.018555,0.031381,-0.0051238,0.054401,0.14583,0.12807,0.065583
472,0.018226,0.02579,0.0037556,0.04322,0.14155,0.10965,0.062294
473,0.0073732,0.023817,0.013622,0.034998,0.1307,0.10242,0.058676
474,-0.010386,0.022172,0.02283,0.029407,0.11853,0.10472,0.055388
475,-0.023869,0.017568,0.028092,0.024474,0.11031,0.11064,0.05473
476,-0.030118,0.011977,0.029078,0.020857,0.10702,0.11294,0.054072
477,-0.030118,0.0096753,0.027105,0.020528,0.1136,0.10866,0.052099
478,-0.028144,0.0086887,0.023159,0.020528,0.13201,0.091892,0.045193
479,-0.024198,0.0093464,0.020528,0.021514,0.16622,0.0692,0.031381
480,-0.019923,0.0080309,0.01987,0.023488,0.21818,0.04618,0.017239
481,-0.01795,0.0021113,0.021186,0.024145,0.28625,0.025461,0.0067154
482,-0.019923,-0.0038083,0.023817,0.021186,0.36781,0.010004,0.0014536
483,-0.022225,-0.0074258,0.024803,0.010662,0.44477,0.0017824,-0.0024928
484,-0.018936,-0.0047949,0.023159,-0.0067681,0.49706,-0.0008485,-0.002164
485,-0.004466,0.0050711,0.021186,-0.024198,0.51218,-0.0015062,-0.00019077
486,0.013622,0.015924,0.019541,-0.040313,0.49114,-0.0034794,-0.0011774
487,0.029407,0.01987,0.018884,-0.050507,0.44016,-0.011701,-0.0057815
488,0.036314,0.017897,0.020857,-0.047877,0.36617,-0.024856,-0.011372
489,0.036971,0.010333,0.02875,-0.03242,0.27968,-0.036366,-0.014003
490,0.036971,0.0034268,0.0373,-0.010715,0.18529,-0.040641,-0.012359
491,0.037958,0.00046697,0.038944,0.0083598,0.092221,-0.039984,-0.0080836
492,0.036314,0.0034268,0.027105,0.01987,0.0080309,-0.037682,-0.004466
493,0.030065,0.0080309,0.0090175,0.021843,-0.057743,-0.036366,0.0011247
494,0.020857,0.0086887,-0.0054526,0.01691,-0.10148,-0.037353,0.0050711
495,0.010662,0.0077021,-0.0090702,0.0067154,-0.12845,-0.04097,0.0037556
496,0.0057288,0.0017824,-0.0018351,-0.0034794,-0.14127,-0.044588,-0.0018351
497,0.0057288,-0.0051238,0.0073732,-0.0097279,-0.14818,-0.045903,-0.0093991
498,0.0070443,-0.014661,0.0096753,-0.012359,-0.15476,-0.04393,-0.020909
499,0.0034268,-0.020581,0.0067154,-0.012688,-0.15772,-0.043601,-0.034064
500,-0.004466,-0.022225,-0.00051963,-0.014332,-0.15739,-0.044259,-0.046232
501,-0.015976,-0.022554,-0.0067681,-0.021567,-0.15575,-0.048534,-0.052152
502,-0.025842,-0.026171,-0.011372,-0.032749,-0.1541,-0.055112,-0.046232
503,-0.035051,-0.031433,-0.01499,-0.044917,-0.15772,-0.060045,-0.032749
504,-0.034722,-0.039984,-0.013345,-0.055112,-0.16693,-0.059716,-0.018607
505,-0.024198,-0.04689,-0.0067681,-0.060373,-0.17844,-0.0584,-0.0080836
506,-0.0084125,-0.048863,0.0014536,-0.062676,-0.18863,-0.056098,-0.0031506
507,0.0086887,-0.045246,0.0030979,-0.063333,-0.19258,-0.055112,0.00079584
508,0.019541,-0.037024,-0.0011774,-0.061689,-0.18962,-0.059058,0.0054
509,0.025461,-0.028473,-0.0061104,-0.056756,-0.18534,-0.06432,0.0083598
510,0.029078,-0.018936,-0.0051238,-0.049521,-0.18008,-0.070568,0.012635
511,0.033354,-0.0093991,0.0024402,-0.038339,-0.17646,-0.077146,0.019541
512,0.034669,-0.002164,0.012306,-0.025842,-0.17581,-0.080434,0.030394
513,0.033683,0.0021113,0.021514,-0.01499,-0.17811,-0.081092,0.041904
514,0.028092,0.0060577,0.027763,-0.0041372,-0.17909,-0.072542,0.053415
515,0.02283,0.012635,0.029736,0.0044134,-0.17844,-0.054454,0.064925
516,0.025132,0.023159,0.029078,0.01132,-0.17679,-0.032091,0.077093
517,0.036314,0.033683,0.027105,0.012964,-0.17153,-0.010057,0.08367
518,0.047495,0.041575,0.02283,0.0096753,-0.15509,0.0080309,0.081368
519,0.051113,0.046837,0.015266,0.0040845,-0.11825,0.018555,0.075778
520,0.047824,0.048482,0.0047422,-0.00019077,-0.053467,0.022501,0.071502
521,0.039931,0.044864,-0.0028217,-0.0008485,0.040589,0.025132,0.069858
522,0.030394,0.037958,-0.0024928,0.0044134,0.14122,0.029736,0.068543
523,0.020199,0.031709,0.0044134,0.015266,0.21555,0.035327,0.06624
524,0.013622,0.030394,0.011977,0.024474,0.23331,0.040918,0.061636
525,0.013622,0.029407,0.016253,0.025461,0.18529,0.044535,0.056374
526,0.018226,0.029078,0.013951,0.020857,0.088932,0.045522,0.049139
527,0.023159,0.029078,0.0077021,0.012635,-0.024527,0.041575,0.041575
528,0.02579,0.029078,0.0034268,0.010333,-0.12286,0.033354,0.036314
529,0.02579,0.028092,0.0034268,0.015266,-0.18271,0.024803,0.033683
530,0.026776,0.02875,0.0080309,0.022172,-0.19948,0.017239,0.034011
531,0.029078,0.032696,0.014608,0.02579,-0.18534,0.010662,0.034669
532,0.033683,0.033025,0.018884,0.026119,-0.1541,0.0040845,0.034011
533,0.039602,0.028421,0.020528,0.026119,-0.12154,-0.0008485,0.029736
534,0.044535,0.021843,0.016581,0.025132,-0.096878,-0.0054526,0.01691
535,0.045851,0.011977,0.0050711,0.021186,-0.080763,-0.0097279,-0.0011774
536,0.038944,-0.0011774,-0.0087413,0.018555,-0.066293,-0.016634,-0.018936
537,0.022172,-0.017621,-0.021567,0.018884,-0.047548,-0.022554,-0.031762
538,-0.00051963,-0.034722,-0.027816,0.023817,-0.021238,-0.02354,-0.041299
539,-0.023211,-0.046232,-0.029131,0.02579,0.0073732,-0.020581,-0.047877
540,-0.040313,-0.050836,-0.0265,0.024474,0.026776,-0.018278,-0.050836
541,-0.045574,-0.05281,-0.027158,0.018884,0.02875,-0.020252,-0.049521
542,-0.04393,-0.057414,-0.029789,0.010333,0.0080309,-0.027816,-0.046232
543,-0.039326,-0.060373,-0.03242,0.0034268,-0.027816,-0.036695,-0.041957
544,-0.038011,-0.057414,-0.032749,-0.0031506,-0.07024,-0.049521,-0.038997
545,-0.039984,-0.044588,-0.032091,-0.010057,-0.10937,-0.063662,-0.041299
546,-0.041299,-0.028473,-0.033735,-0.020581,-0.13634,-0.07583,-0.047548
547,-0.041299,-0.017621,-0.039326,-0.032091,-0.14391,-0.083065,-0.056756
548,-0.045903,-0.015319,-0.04393,-0.038997,-0.13404,-0.086354,-0.063991
549,-0.054125,-0.01795,-0.044917,-0.038668,-0.11036,-0.088985,-0.064978
550,-0.062347,-0.020909,-0.04393,-0.032749,-0.072213,-0.094905,-0.061031
551,-0.068266,-0.024198,-0.04689,-0.027158,-0.022883,-0.10181,-0.058071
552,-0.071884,-0.028473,-0.053138,-0.022554,0.031052,-0.09918,-0.059387
553,-0.073528,-0.030118,-0.0584,-0.016634,0.083013,-0.086025,-0.06432
554,-0.069582,-0.025842,-0.0584,-0.011372,0.12708,-0.068595,-0.071555
555,-0.063004,-0.018607,-0.053467,-0.0090702,0.15898,-0.053467,-0.078461
556,-0.053796,-0.01499,-0.044588,-0.0084125,0.17016,-0.042615,-0.075501
557,-0.041628,-0.017621,-0.037682,-0.0087413,0.15997,-0.038339,-0.060702
558,-0.028473,-0.022554,-0.033406,-0.0093991,0.13037,-0.036037,-0.040313
559,-0.019594,-0.027816,-0.033078,-0.0077547,0.087617,-0.032091,-0.019923
560,-0.015648,-0.030447,-0.034064,-0.0028217,0.031052,-0.025514,-0.0074258
561,-0.015976,-0.026829,-0.033735,0.011977,-0.037353,-0.018278,-0.0018351
562,-0.017292,-0.018278,-0.03242,0.029736,-0.11529,-0.014332,-0.0024928
563,-0.01795,-0.0087413,-0.030118,0.044206,-0.19916,-0.011701,-0.0061104
564,-0.015319,0.0001381,-0.025514,0.052757,-0.28927,-0.0061104,-0.0090702
565,-0.0093991,0.012964,-0.020581,0.059663,-0.38628,0.0030979,-0.0067681
566,-0.0031506,0.029736,-0.013345,0.0692,-0.48363,0.013622,0.0030979
567,0.0040845,0.048482,-0.0031506,0.080053,-0.56716,0.027434,0.015266
568,0.011648,0.059992,0.0080309,0.093208,-0.61978,0.039931,0.021514
569,0.016581,0.06065,0.016581,0.10603,-0.628,0.045193,0.017239
570,0.013951,0.052428,0.022501,0.11327,-0.57045,0.043549,0.0096753
571,0.0086887,0.038616,0.025132,0.11557,-0.40799,0.042233,0.0034268
572,0.0077021,0.026119,0.023817,0.11721,-0.11135,0.050126,0.0001381
573,0.012635,0.016253,0.018884,0.1205,0.27737,0.070516,0.00079584
574,0.017568,0.0093464,0.011977,0.12182,0.66248,0.10143,0.0086887
575,0.018226,0.0083598,0.0067154,0.11689,0.96569,0.13103,0.020857
576,0.012964,0.014279,-0.00019077,0.10406,1.1423,0.14616,0.033025
577,0.0057288,0.020199,-0.0054526,0.086959,1.1827,0.14056,0.041904
578,0.0034268,0.019212,-0.0077547,0.065912,1.0972,0.11754,0.045193
579,0.0054,0.0096753,-0.0077547,0.039931,0.9236,0.087288,0.040918
580,0.0090175,-0.0061104,-0.0047949,0.015595,0.71082,0.058348,0.028421
581,0.010991,-0.019594,-0.0031506,-0.0028217,0.50725,0.03434,0.0086887
582,0.011977,-0.021896,-0.0031506,-0.016963,0.34512,0.016253,-0.011043
583,0.010991,-0.0090702,-0.007097,-0.028473,0.23429,0.0037556,-0.023869
584,0.010991,0.013293,-0.013017,-0.036366,0.16095,-0.004466,-0.025842
585,0.013293,0.03434,-0.025185,-0.04097,0.1057,-0.015648,-0.01795
586,0.018555,0.04618,-0.038011,-0.042944,0.055059,-0.031762,-0.0057815
587,0.026119,0.04618,-0.042286,-0.042944,0.0034268,-0.048534,0.0021113
588,0.034011,0.035327,-0.038668,-0.038668,-0.047877,-0.060045,0.0017824
589,0.041904,0.024145,-0.032091,-0.033735,-0.092274,-0.061031,-0.0054526
590,0.046508,0.020528,-0.02946,-0.031104,-0.12746,-0.052481,-0.013017
591,0.044206,0.023817,-0.03242,-0.034064,-0.15311,-0.038011,-0.019594
592,0.034011,0.031381,-0.037353,-0.038668,-0.17087,-0.028473,-0.022554
593,0.020857,0.039931,-0.038668,-0.044917,-0.18271,-0.028473,-0.021896
594,0.0090175,0.044864,-0.035708,-0.050507,-0.18797,-0.035051,-0.014661
595,0.0024402,0.046508,-0.030447,-0.052152,-0.19126,-0.04393,-0.0047949
596,-0.0024928,0.040589,-0.024527,-0.048863,-0.19488,-0.049192,0.0030979
597,-0.013345,0.028092,-0.019923,-0.044259,-0.20146,-0.050836,0.0034268
598,-0.030118,0.010004,-0.020581,-0.041299,-0.21034,-0.049521,-0.0024928
599,-0.048863,-0.0051238,-0.028802,-0.041957,-0.22218,-0.045246,-0.011043
600,-0.06136,-0.012688,-0.040641,-0.044259,-0.2373,-0.037682,-0.012359
601,-0.06728,-0.010386,-0.050836,-0.041628,-0.25243,-0.02946,-0.0024928
602,-0.064649,-0.0041372,-0.054454,-0.033735,-0.26493,-0.020909,0.014608
603,-0.060045,-0.0034794,-0.048863,-0.021567,-0.26855,-0.013017,0.030394
604,-0.057414,-0.012688,-0.035708,-0.0077547,-0.25375,-0.0097279,0.043549
605,-0.059058,-0.028144,-0.016305,0.0021113,-0.2156,-0.0057815,0.051113
606,-0.060045,-0.040641,0.0067154,0.0050711,-0.16068,0.0040845,0.053415
607,-0.05544,-0.040641,0.024474,0.00079584,-0.10214,0.015924,0.049139
608,-0.047548,-0.028473,0.032038,-0.0047949,-0.054783,0.024145,0.040918
609,-0.041628,-0.011701,0.029407,-0.010057,-0.027158,0.027434,0.032038
610,-0.039326,-0.0015062,0.02283,-0.0080836,-0.020909,0.031381,0.023159
611,-0.041628,-0.002164,0.018555,-0.00051963,-0.020581,0.039931,0.013622
612,-0.048205,-0.0051238,0.017897,0.010004,-0.020581,0.049468,0.0086887
613,-0.055112,-0.004466,0.020199,0.020528,-0.018936,0.05177,0.0090175
614,-0.062347,0.002769,0.021186,0.029407,-0.011701,0.04322,0.011977
615,-0.065307,0.010004,0.020199,0.032038,0.00046697,0.030723,0.014279
616,-0.057414,0.016581,0.019541,0.027763,0.018555,0.024145,0.013293
617,-0.038011,0.01987,0.018226,0.019212,0.038287,0.030394,0.011648
618,-0.013345,0.017568,0.013293,0.0093464,0.053415,0.040918,0.010662
619,0.0077021,0.010991,0.0040845,-0.0015062,0.059334,0.046837,0.010333
620,0.016581,0.0014536,-0.0038083,-0.01203,0.056046,0.046508,0.011977
621,0.014937,-0.010386,-0.0097279,-0.019594,0.044864,0.034998,0.012635
622,0.00046697,-0.024527,-0.010386,-0.022883,0.031052,0.015266,0.010991
623,-0.017621,-0.038011,-0.0074258,-0.025842,0.012964,-0.011043,0.0021113
624,-0.029789,-0.047219,-0.0031506,-0.035051,-0.0093991,-0.038011,-0.0090702
625,-0.033735,-0.050179,0.0014536,-0.053138,-0.033735,-0.059716,-0.019265
626,-0.032749,-0.048205,0.0057288,-0.072213,-0.056098,-0.072542,-0.025842
627,-0.029789,-0.043272,0.0040845,-0.087341,-0.069911,-0.076488,-0.027158
628,-0.026171,-0.033735,-0.0015062,-0.095562,-0.07287,-0.074515,-0.020581
629,-0.024198,-0.020909,-0.0093991,-0.094905,-0.062018,-0.074186,-0.0080836
630,-0.019923,-0.007097,-0.01499,-0.088327,-0.047219,-0.078461,0.0063866
631,-0.012688,0.0034268,-0.017621,-0.078132,-0.033078,-0.086354,0.012306
632,0.00046697,0.010333,-0.01499,-0.069911,-0.0265,-0.092603,0.0050711
633,0.014608,0.01691,-0.011043,-0.064649,-0.024856,-0.094576,-0.014661
634,0.02283,0.023817,-0.0087413,-0.063004,-0.027487,-0.088985,-0.036366
635,0.018884,0.029078,-0.0054526,-0.061689,-0.027816,-0.075173,-0.048534
636,0.0073732,0.027763,-0.0034794,-0.060045,-0.02354,-0.053138,-0.050179
637,0.0001381,0.021514,-0.0008485,-0.053138,-0.012359,-0.02946,-0.041628
638,0.002769,0.015924,0.00079584,-0.039655,0.0047422,-0.0087413,-0.028144
639,0.010991,0.014608,0.0034268,-0.021238,0.021186,0.0070443,-0.014003
640,0.017568,0.020199,0.0077021,-0.0051238,0.034011,0.016581,-0.0028217
641,0.017239,0.027434,0.015924,0.0040845,0.042233,0.026447,0.0047422
642,0.0093464,0.034998,0.024474,0.002769,0.04618,0.0373,0.0057288
643,-0.0024928,0.039602,0.028421,-0.0034794,0.038287,0.04881,0.00046697
644,-0.012359,0.041247,0.024803,-0.0090702,0.014608,0.063938,-0.007097
645,-0.0074258,0.038616,0.017897,-0.0077547,-0.022225,0.082684,-0.012359
646,0.0093464,0.030723,0.010662,0.0021113,-0.060702,0.10274,-0.011701
647,0.031052,0.022501,0.002769,0.015924,-0.082736,0.11853,-0.0018351
648,0.052099,0.013622,-0.0038083,0.029078,-0.079777,0.12971,0.012635
649,0.068543,0.0054,-0.0041372,0.0373,-0.052152,0.13234,0.024474
650,0.073804,-0.002164,0.0021113,0.037958,-0.010057,0.12215,0.027763
651,0.070516,-0.010386,0.013293,0.032696,0.03434,0.096496,0.028092
652,0.056703,-0.020252,0.024474,0.021843,0.061636,0.061636,0.032367
653,0.038616,-0.028802,0.030065,0.0086887,0.066569,0.028421,0.043877
654,0.017568,-0.034064,0.02579,-0.0031506,0.054072,0.0060577,0.056374
655,-0.0024928,-0.035708,0.015266,-0.011043,0.025461,-0.0024928,0.066898
656,-0.017621,-0.036366,0.002769,-0.013674,-0.016305,0.0011247,0.067227
657,-0.021238,-0.037353,-0.007097,-0.010715,-0.067609,0.0070443,0.059334
658,-0.014003,-0.035708,-0.014003,-0.0015062,-0.11825,0.0063866,0.050126
659,-0.00019077,-0.030775,-0.019265,0.0090175,-0.15903,0.0011247,0.04322
660,0.013951,-0.021896,-0.022225,0.015595,-0.18304,-0.0087413,0.037629
661,0.020857,-0.011372,-0.022554,0.01691,-0.18732,-0.019594,0.030723
662,0.021514,-0.00051963,-0.019265,0.013293,-0.1837,-0.032749,0.024474
663,0.020199,0.010004,-0.014003,0.010004,-0.18008,-0.04393,0.024474
664,0.020528,0.020528,-0.0061104,0.010991,-0.17877,-0.046561,0.033683
665,0.023817,0.02579,0.0014536,0.017239,-0.17318,-0.040313,0.049797
666,0.026119,0.023817,0.0047422,0.022172,-0.1564,-0.032749,0.068871
667,0.028092,0.015924,0.0057288,0.027105,-0.13305,-0.0265,0.085315
668,0.029407,0.0077021,0.0063866,0.030065,-0.11036,-0.019923,0.096167
669,0.032696,0.0014536,0.0080309,0.033683,-0.094905,-0.010057,0.099127
670,0.036971,-0.00019077,0.0096753,0.036314,-0.092274,0.0001381,0.095181
671,0.038616,0.00079584,0.0086887,0.038616,-0.10082,0.0096753,0.08663
672,0.035985,0.0021113,0.0030979,0.039273,-0.11595,0.013293,0.077422
673,0.029736,0.002769,-0.0031506,0.041575,-0.13503,0.010662,0.068214
674,0.022501,0.00079584,-0.0077547,0.046508,-0.15838,0.0021113,0.061965
675,0.010662,-0.0041372,-0.0067681,0.053086,-0.18469,-0.0080836,0.056374
676,-0.0031506,-0.012688,-0.0041372,0.056703,-0.20803,-0.012688,0.049797
677,-0.012688,-0.022883,-0.0041372,0.059334,-0.22579,-0.012359,0.044535
678,-0.013674,-0.031762,-0.012359,0.062294,-0.23796,-0.013674,0.036642
679,-0.0084125,-0.035708,-0.027816,0.061965,-0.24553,-0.021238,0.027763
680,-0.002164,-0.03538,-0.045246,0.058676,-0.24487,-0.032749,0.01987
681,-0.0008485,-0.033078,-0.053467,0.055388,-0.22283,-0.044259,0.015924
682,-0.0047949,-0.033078,-0.046232,0.049797,-0.15903,-0.050179,0.012306
683,-0.0097279,-0.033078,-0.026171,0.041247,-0.044588,-0.045903,0.0077021
684,-0.010386,-0.028802,-0.0031506,0.030065,0.11623,-0.032749,-0.0015062
685,-0.0064392,-0.018278,0.011977,0.01691,0.30566,-0.014332,-0.014003
686,0.002769,-0.0051238,0.018555,0.0040845,0.47732,0.0040845,-0.024198
687,0.01132,0.0073732,0.017897,-0.010386,0.58848,0.016253,-0.027158
688,0.014608,0.015266,0.013293,-0.020252,0.62005,0.022172,-0.025185
689,0.015266,0.015595,0.0080309,-0.021238,0.57927,0.020528,-0.024856
690,0.018226,0.014937,-0.00051963,-0.018936,0.4862,0.016253,-0.030118
691,0.022172,0.01691,-0.0084125,-0.017292,0.36748,0.014937,-0.041299
692,0.027763,0.023159,-0.016634,-0.013674,0.25435,0.019541,-0.051165
693,0.033683,0.029736,-0.018936,-0.0054526,0.17049,0.02579,-0.052152
694,0.0373,0.029078,-0.014332,0.0047422,0.12577,0.029736,-0.044917
695,0.03434,0.019541,-0.0074258,0.014279,0.11557,0.030065,-0.034722
696,0.027763,0.011977,-0.002164,0.019212,0.13103,0.026119,-0.028802
697,0.020199,0.013622,0.0017824,0.018226,0.16063,0.018555,-0.02946
698,0.011977,0.022501,0.0054,0.015266,0.19318,0.0096753,-0.031104
699,0.0063866,0.031381,0.0070443,0.01132,0.21357,-0.004466,-0.032091
700,0.0030979,0.035656,0.002769,0.0073732,0.21522,-0.020581,-0.034064
701,-0.0008485,0.034669,-0.0038083,0.0030979,0.19877,-0.035708,-0.037024
702,-0.011043,0.027434,-0.007097,0.0014536,0.17477,-0.048205,-0.040313
703,-0.022554,0.019541,-0.0074258,0.0024402,0.15043,-0.054783,-0.046561
704,-0.032091,0.01132,-0.0047949,0.0047422,0.13103,-0.057414,-0.05281
705,-0.036695,0.0044134,-0.0024928,0.0070443,0.11656,-0.057085,-0.061031
706,-0.039326,0.0001381,-0.0041372,0.011648,0.11162,-0.056098,-0.069911
707,-0.039326,-0.0041372,-0.0093991,0.014279,0.1182,-0.052152,-0.075501
708,-0.038339,-0.010386,-0.022225,0.018555,0.12905,-0.044259,-0.075501
709,-0.039326,-0.019923,-0.040641,0.023817,0.13201,-0.030118,-0.069253
710,-0.041628,-0.028802,-0.05281,0.030723,0.11754,-0.012359,-0.056756
711,-0.044588,-0.028473,-0.051165,0.041575,0.090577,0.0044134,-0.038339
712,-0.04689,-0.019594,-0.039984,0.054072,0.058348,0.017897,-0.017621
713,-0.047548,-0.0097279,-0.0265,0.066898,0.029078,0.025461,-0.0038083
714,-0.04393,-0.0041372,-0.015976,0.07216,0.01132,0.029407,-0.00051963
715,-0.036695,-0.0057815,-0.010057,0.065254,0.0083598,0.027434,-0.0028217
716,-0.030447,-0.012359,-0.0057815,0.047824,0.015595,0.020857,-0.0038083
717,-0.025514,-0.020581,0.0001381,0.024474,0.025132,0.014279,-0.00051963
718,-0.019594,-0.023869,0.0037556,0.0054,0.021514,0.011977,0.0067154
719,-0.012359,-0.021238,0.0040845,-0.0061104,-0.0008485,0.015266,0.014937
720,-0.0064392,-0.015976,0.0001381,-0.0074258,-0.034393,0.021514,0.024145
721,-0.0054526,-0.0097279,-0.0054526,-0.0011774,-0.06432,0.027105,0.031381
722,-0.011701,-0.0057815,-0.013345,0.0070443,-0.084052,0.026119,0.033354
723,-0.021567,-0.0057815,-0.020252,0.012306,-0.0903,0.018555,0.029736
724,-0.030118,-0.0057815,-0.022883,0.013622,-0.083394,0.0050711,0.021843
725,-0.029131,-0.0038083,-0.020581,0.010004,-0.072542,-0.010057,0.012635
726,-0.019265,-0.0008485,-0.016305,0.0030979,-0.067937,-0.0265,0.0037556
727,-0.0054526,-0.0008485,-0.012359,-0.0028217,-0.073528,-0.045574,-0.0064392
728,0.0063866,0.0001381,-0.010715,-0.0031506,-0.088327,-0.063991,-0.015319
729,0.0096753,0.0054,-0.0090702,0.0001381,-0.1074,-0.078461,-0.020252
730,0.0050711,0.015924,-0.007097,0.0017824,-0.12253,-0.086354,-0.021567
731,-0.0024928,0.026776,-0.0038083,-0.00019077,-0.12845,-0.08471,-0.018278
732,-0.0084125,0.033025,0.00046697,-0.002164,-0.12779,-0.075501,-0.013017
733,-0.011701,0.036314,0.00079584,-0.0015062,-0.12286,-0.06432,-0.0054526
734,-0.012688,0.038944,-0.0041372,-0.0011774,-0.11858,-0.055112,-0.0008485
735,-0.010715,0.037958,-0.01203,-0.0034794,-0.1199,-0.04689,0.00079584
736,-0.0093991,0.032038,-0.018607,-0.0097279,-0.12812,-0.042615,-0.00051963
737,-0.0087413,0.022501,-0.022225,-0.019923,-0.14193,-0.041957,0.0017824
738,-0.0084125,0.0096753,-0.022554,-0.032091,-0.15706,-0.046561,0.0040845
739,-0.0074258,0.0011247,-0.021896,-0.042286,-0.16627,-0.057414,0.0014536
740,-0.0051238,-0.0038083,-0.017621,-0.045574,-0.16528,-0.073199,-0.0084125
741,-0.0064392,-0.004466,-0.013017,-0.042286,-0.15443,-0.086683,-0.024527
742,-0.014332,-0.0064392,-0.0087413,-0.034393,-0.1347,-0.091616,-0.038668
743,-0.024856,-0.011701,-0.0077547,-0.025185,-0.10937,-0.087998,-0.046561
744,-0.03538,-0.019923,-0.007097,-0.018607,-0.088656,-0.083065,-0.043601
745,-0.04097,-0.026829,-0.0038083,-0.015976,-0.080434,-0.080434,-0.027816
746,-0.041299,-0.029789,0.00079584,-0.016305,-0.086025,-0.080434,-0.0061104
747,-0.035051,-0.029789,0.0021113,-0.016305,-0.10247,-0.074844,0.016253
748,-0.024527,-0.025514,0.0024402,-0.015976,-0.12187,-0.061689,0.031381
749,-0.013345,-0.017621,0.0030979,-0.017292,-0.13667,-0.04985,0.035327
750,-0.0018351,-0.0090702,0.0077021,-0.020252,-0.14095,-0.041957,0.031709
751,0.0047422,-0.0041372,0.015595,-0.020909,-0.1324,-0.037353,0.025461
752,0.0047422,-0.0008485,0.024803,-0.019265,-0.10839,-0.034064,0.020199
753,0.0014536,0.0047422,0.030723,-0.01499,-0.077803,-0.030775,0.01987
754,-0.0051238,0.012635,0.032038,-0.0090702,-0.049192,-0.027816,0.020857
755,-0.0077547,0.019212,0.031052,-0.0024928,-0.031433,-0.026171,0.02283
756,-0.0038083,0.026119,0.027105,0.0057288,-0.027816,-0.025185,0.024145
757,0.0057288,0.032038,0.024474,0.011648,-0.044259,-0.024527,0.024474
758,0.017897,0.034998,0.025132,0.012306,-0.087012,-0.025185,0.020528
759,0.028421,0.03434,0.029407,0.010004,-0.1495,-0.024198,0.011648
760,0.036314,0.030394,0.034011,0.0093464,-0.21165,-0.019594,0.0014536
761,0.040918,0.026447,0.034998,0.010333,-0.25145,-0.0087413,-0.0041372
762,0.044535,0.027763,0.032696,0.0086887,-0.25737,0.0070443,-0.0031506
763,0.04618,0.035656,0.028092,0.0070443,-0.235,0.021186,0.00046697
764,0.045522,0.044864,0.023817,0.0077021,-0.1962,0.033025,0.0077021
765,0.042891,0.051113,0.018555,0.013622,-0.15575,0.042891,0.016253
766,0.041247,0.052099,0.016253,0.023488,-0.11858,0.051441,0.028421
767,0.041904,0.048153,0.018555,0.034011,-0.087669,0.059992,0.041904
768,0.045193,0.038616,0.022501,0.038616,-0.061031,0.068214,0.057361
769,0.044864,0.027763,0.026447,0.034998,-0.034064,0.07512,0.068214
770,0.038287,0.017568,0.027105,0.023159,-0.010386,0.080382,0.071173
771,0.031052,0.012635,0.026776,0.0093464,0.011648,0.085644,0.070187
772,0.028092,0.010991,0.022501,0.00046697,0.034011,0.093208,0.067556
773,0.02579,0.0086887,0.015266,-0.0008485,0.049139,0.10538,0.064925
774,0.023159,0.0037556,0.0057288,0.0034268,0.049797,0.12182,0.063938
775,0.021186,-0.00019077,-0.0038083,0.0093464,0.033683,0.13563,0.064925
776,0.018884,0.0017824,-0.0077547,0.015924,0.0080309,0.14813,0.067227
777,0.013293,0.010004,-0.0080836,0.018884,-0.01499,0.15602,0.067227
778,0.0017824,0.021843,-0.010057,0.015595,-0.022554,0.15931,0.065912
779,-0.0087413,0.034669,-0.01499,0.0070443,-0.01499,0.15832,0.058676
780,-0.017621,0.039273,-0.020581,-0.0054526,-0.0008485,0.15043,0.047495
781,-0.022554,0.031709,-0.022225,-0.015648,0.014937,0.13728,0.036642
782,-0.023869,0.013951,-0.021567,-0.019923,0.028421,0.11919,0.030394
783,-0.022225,-0.004466,-0.018607,-0.014661,0.036971,0.098469,0.028421
784,-0.018278,-0.017292,-0.015648,-0.0024928,0.051113,0.07808,0.030723
785,-0.014332,-0.024856,-0.011372,0.014937,0.087288,0.059663,0.032696
786,-0.01203,-0.025185,-0.0061104,0.034011,0.15175,0.046508,0.032038
787,-0.013674,-0.021896,0.0001381,0.049797,0.22969,0.037629,0.029407
788,-0.019594,-0.014332,0.002769,0.06361,0.2925,0.030394,0.02579
789,-0.028802,-0.0041372,0.0034268,0.068543,0.31717,0.023817,0.023817
790,-0.036366,0.0054,0.00079584,0.067556,0.28987,0.013622,0.018555
791,-0.036037,0.010662,-0.0051238,0.061965,0.21719,0.00079584,0.01132
792,-0.031104,0.011977,-0.010386,0.052099,0.11754,-0.012359,-0.0011774
793,-0.024527,0.010004,-0.015976,0.035985,0.018555,-0.026171,-0.015648
794,-0.019265,0.0054,-0.020581,0.014279,-0.0584,-0.043601,-0.030447
795,-0.017621,0.00046697,-0.021567,-0.011043,-0.10641,-0.063991,-0.047548
796,-0.016634,-0.0024928,-0.018936,-0.032091,-0.12154,-0.08175,-0.062676
797,-0.017292,-0.0024928,-0.01795,-0.04689,-0.11332,-0.094247,-0.074515
798,-0.020252,-0.0008485,-0.020581,-0.055769,-0.097207,-0.10148,-0.08175
799,-0.028802,-0.00019077,-0.026829,-0.060702,-0.087998,-0.10773,-0.086683
800,-0.041628,-0.0024928,-0.034393,-0.062018,-0.089314,-0.11727,-0.091287
801,-0.054454,-0.0041372,-0.045246,-0.060045,-0.10148,-0.12878,-0.094905
802,-0.065307,-0.0018351,-0.052481,-0.055769,-0.11661,-0.13667,-0.095891
803,-0.06728,0.0017824,-0.054783,-0.050507,-0.12582,-0.13568,-0.087998
804,-0.059058,0.002769,-0.053467,-0.045246,-0.12154,-0.12779,-0.070897
805,-0.045246,-0.004466,-0.048534,-0.040313,-0.10444,-0.11233,-0.047548
806,-0.031433,-0.016305,-0.044259,-0.034064,-0.081421,-0.091616,-0.023211
807,-0.024527,-0.030447,-0.043272,-0.028144,-0.056756,-0.069582,-0.0018351
808,-0.021896,-0.04393,-0.040313,-0.0265,-0.029789,-0.051494,0.011648
809,-0.022225,-0.050507,-0.031104,-0.028802,0.00079584,-0.039326,0.01691
810,-0.027487,-0.048205,-0.017292,-0.031433,0.034998,-0.035708,0.012964
811,-0.036695,-0.038011,-0.0051238,-0.02946,0.072489,-0.036695,0.0060577
812,-0.048534,-0.025185,-0.0008485,-0.021896,0.11327,-0.037353,0.0024402
813,-0.059058,-0.015648,-0.0008485,-0.010057,0.15306,-0.031762,0.0034268
814,-0.063333,-0.0093991,-0.0028217,0.0001381,0.182,-0.020581,0.0093464
815,-0.059716,-0.0054526,-0.0038083,0.0030979,0.19943,-0.0093991,0.017568
816,-0.04689,0.0024402,-0.0064392,0.0060577,0.21028,-0.0038083,0.026776
817,-0.028144,0.010662,-0.0074258,0.01132,0.21193,-0.007097,0.032038
818,-0.0093991,0.016581,-0.0080836,0.016581,0.19384,-0.013017,0.033025
819,0.0044134,0.018884,-0.011701,0.020199,0.15438,-0.013674,0.02875
820,0.012635,0.018555,-0.017621,0.018226,0.098141,-0.010386,0.02283
821,0.016581,0.015924,-0.023869,0.010004,0.032367,-0.007097,0.019541
822,0.013293,0.0080309,-0.024527,-0.0024928,-0.033078,-0.0064392,0.021186
823,0.0073732,-0.00019077,-0.01795,-0.012688,-0.088327,-0.010057,0.029736
824,-0.0008485,-0.004466,-0.011043,-0.018607,-0.12713,-0.011372,0.039931
825,-0.0041372,-0.0031506,-0.011701,-0.019265,-0.1416,-0.0041372,0.044206
826,0.0001381,0.0017824,-0.018278,-0.020252,-0.12582,0.013951,0.039273
827,0.010991,0.0080309,-0.028802,-0.022554,-0.080106,0.039602,0.02875
828,0.025132,0.010662,-0.037024,-0.022883,-0.014003,0.068871,0.019541
829,0.041247,0.0070443,-0.040641,-0.021896,0.059992,0.096167,0.012964
830,0.054401,-0.0011774,-0.040641,-0.017292,0.13826,0.11787,0.010004
831,0.062623,-0.013674,-0.038011,-0.011372,0.21324,0.13037,0.012306
832,0.063938,-0.0265,-0.035051,-0.0057815,0.28231,0.13103,0.020528
833,0.054401,-0.033735,-0.028144,-0.0024928,0.33788,0.12346,0.030723
834,0.040918,-0.035051,-0.018278,-0.0038083,0.37669,0.11162,0.037958
835,0.029078,-0.030447,-0.0093991,-0.0080836,0.39642,0.098141,0.040918
836,0.023488,-0.024198,-0.0041372,-0.012359,0.40366,0.084657,0.039931
837,0.024803,-0.019594,-0.0057815,-0.013674,0.39642,0.074133,0.036642
838,0.02875,-0.019594,-0.013345,-0.0093991,0.37044,0.068543,0.033354
839,0.031381,-0.021567,-0.021896,-0.0015062,0.32078,0.067227,0.026119
840,0.02875,-0.022883,-0.024198,0.0060577,0.25304,0.064267,0.015924
841,0.022501,-0.019594,-0.018607,0.0096753,0.17411,0.053086,0.0067154
842,0.017568,-0.01499,-0.0074258,0.0093464,0.092879,0.030723,0.0037556
843,0.015924,-0.007097,0.0034268,0.0093464,0.0086887,0.0034268,0.0080309
844,0.018226,0.00079584,0.0080309,0.01132,-0.084052,-0.021238,0.011977
845,0.017568,0.0054,0.0070443,0.015266,-0.18403,-0.036037,0.012635
846,0.014279,0.0050711,0.0063866,0.022501,-0.2748,-0.039326,0.015266
847,0.0086887,0.00079584,0.0083598,0.033683,-0.32215,-0.035708,0.019212
848,0.0030979,-0.0031506,0.013293,0.048153,-0.31163,-0.025842,0.021843
849,-0.0038083,-0.0034794,0.018555,0.06065,-0.26559,-0.016634,0.020528
850,-0.012359,0.0050711,0.023159,0.063281,-0.21757,-0.014661,0.014937
851,-0.020581,0.01691,0.024803,0.055059,-0.19192,-0.024198,0.0044134
852,-0.025185,0.026447,0.024145,0.041575,-0.19521,-0.043601,-0.0054526
853,-0.027816,0.029078,0.021186,0.031709,-0.21198,-0.063662,-0.011043
854,-0.028473,0.023488,0.015924,0.029736,-0.2054,-0.076817,-0.013345
855,-0.028473,0.013293,0.013622,0.034998,-0.13338,-0.079448,-0.014003
856,-0.027487,0.00046697,0.016253,0.045851,0.0021113,-0.072213,-0.011701
857,-0.026171,-0.0061104,0.018226,0.056374,0.14747,-0.062676,-0.0093991
858,-0.024198,-0.0064392,0.01691,0.066898,0.25139,-0.055769,-0.0064392
859,-0.022225,-0.0057815,0.013293,0.072489,0.28921,-0.055112,-0.0018351
860,-0.01795,-0.0064392,0.0060577,0.070187,0.24975,-0.059387,0.0030979
861,-0.013017,-0.0074258,-0.0018351,0.057032,0.14484,-0.06728,0.002769
862,-0.0084125,-0.0057815,-0.0074258,0.039273,0.0044134,-0.075501,-0.0038083
863,-0.0064392,-0.00019077,-0.011372,0.025461,-0.13536,-0.080434,-0.01203
864,-0.0093991,0.0050711,-0.014003,0.020857,-0.24092,-0.081092,-0.022225
865,-0.013674,0.0090175,-0.013017,0.025132,-0.29157,-0.076817,-0.036366
866,-0.01499,0.0083598,-0.0054526,0.030723,-0.28269,-0.065635,-0.05544
867,-0.014003,0.00046697,0.0063866,0.026776,-0.2327,-0.049192,-0.074186
868,-0.015648,-0.010057,0.018555,0.012306,-0.16594,-0.036037,-0.087998
869,-0.018278,-0.017292,0.023817,-0.0031506,-0.10082,-0.035051,-0.094905
870,-0.022883,-0.016963,0.015924,-0.012359,-0.049521,-0.044588,-0.096878
871,-0.027816,-0.013345,0.0034268,-0.016634,-0.018278,-0.058071,-0.09622
872,-0.031433,-0.0084125,-0.0077547,-0.017621,-0.010386,-0.07024,-0.091287
873,-0.026829,-0.0041372,-0.016963,-0.017292,-0.023211,-0.077803,-0.082736
874,-0.017621,-0.0015062,-0.022225,-0.018607,-0.049521,-0.07879,-0.079119
875,-0.0080836,0.0001381,-0.026171,-0.022883,-0.07879,-0.075501,-0.085367
876,-0.0028217,0.0017824,-0.02946,-0.031433,-0.10313,-0.071226,-0.10082
877,-0.0031506,0.0017824,-0.032749,-0.042286,-0.1199,-0.068266,-0.11529
878,-0.0084125,-0.0008485,-0.035051,-0.048534,-0.12845,-0.065964,-0.11891
879,-0.016963,-0.0015062,-0.030447,-0.048205,-0.12615,-0.063004,-0.10872
880,-0.026829,0.0047422,-0.020252,-0.040313,-0.11562,-0.060373,-0.090629
881,-0.034064,0.017239,-0.010386,-0.029789,-0.095891,-0.054783,-0.069582
882,-0.033735,0.030723,-0.0015062,-0.022554,-0.066293,-0.045903,-0.047877
883,-0.021567,0.042891,0.0083598,-0.019265,-0.031104,-0.03242,-0.031104
884,0.0030979,0.049139,0.015595,-0.016305,-0.0041372,-0.016963,-0.021896
885,0.029407,0.046837,0.018884,-0.012688,0.0060577,-0.0057815,-0.019923
886,0.045851,0.036314,0.01691,-0.0097279,-0.0031506,-0.0047949,-0.022554
887,0.045193,0.021186,0.010662,-0.011701,-0.024856,-0.015319,-0.022883
888,0.029736,0.0080309,0.0040845,-0.018278,-0.04689,-0.028802,-0.017621
889,0.0083598,0.0014536,-0.0008485,-0.027158,-0.064649,-0.035051,-0.010386
890,-0.0077547,0.0021113,-0.0067681,-0.036366,-0.079119,-0.031433,-0.0051238
891,-0.010386,0.0070443,-0.013674,-0.047877,-0.087012,-0.024198,0.00079584
892,-0.0064392,0.0080309,-0.01795,-0.058729,-0.087341,-0.018278,0.0093464
893,0.0001381,0.00079584,-0.019265,-0.064649,-0.085367,-0.019594,0.021186
894,0.0057288,-0.010715,-0.018607,-0.067609,-0.085039,-0.027158,0.033354
895,0.0073732,-0.025842,-0.015319,-0.06728,-0.092274,-0.037024,0.040589
896,0.0054,-0.044259,-0.0087413,-0.06432,-0.10609,-0.044917,0.04322
897,0.0001381,-0.06136,-0.0018351,-0.056427,-0.12056,-0.050507,0.040918
898,-0.0038083,-0.072542,-0.0015062,-0.045903,-0.1324,-0.05544,0.036971
899,-0.0047949,-0.075501,-0.0057815,-0.034722,-0.14062,-0.059716,0.034669
900,-0.0038083,-0.067937,-0.0093991,-0.025514,-0.14654,-0.062018,0.037629
901,-0.0011774,-0.056756,-0.0074258,-0.018607,-0.15147,-0.058729,0.042891
902,-0.00051963,-0.043601,-0.0024928,-0.012359,-0.15311,-0.047219,0.049139
903,0.0001381,-0.030447,-0.00019077,-0.004466,-0.14555,-0.027487,0.052428
904,-0.00051963,-0.01795,0.0011247,0.0044134,-0.12845,-0.004466,0.052757
905,-0.0008485,-0.0084125,0.0054,0.013622,-0.10247,0.017897,0.050784
906,-0.0038083,-0.00019077,0.011977,0.021186,-0.073857,0.039931,0.049139
907,-0.007097,0.0067154,0.015266,0.026447,-0.050507,0.065912,0.051441
908,-0.011043,0.0090175,0.011648,0.026776,-0.038011,0.096167,0.060321
909,-0.012688,0.0060577,0.0030979,0.025461,-0.034064,0.12675,0.072489
910,-0.0077547,0.0017824,-0.002164,0.026119,-0.026829,0.14912,0.08367
911,0.0063866,-0.0015062,0.0030979,0.029736,-0.0041372,0.16194,0.08663
912,0.021186,0.00079584,0.016253,0.036971,0.035985,0.16786,0.08367
913,0.03434,0.0070443,0.023817,0.047495,0.084328,0.16885,0.082026
914,0.043877,0.014608,0.022501,0.055388,0.12741,0.16161,0.083999
915,0.04881,0.021843,0.016581,0.053743,0.15142,0.14484,0.086959
916,0.049139,0.023159,0.01132,0.044864,0.14616,0.12445,0.088932
917,0.045522,0.023159,0.0086887,0.035985,0.1057,0.10274,0.087617
918,0.035985,0.025461,0.0073732,0.030723,0.036971,0.090248,0.088275
919,0.021514,0.025132,0.0067154,0.028421,-0.04097,0.090905,0.092221
920,0.0083598,0.021514,0.0024402,0.024803,-0.11266,0.10242,0.097812
921,0.0063866,0.017239,-0.0077547,0.019541,-0.16726,0.11458,0.10505
922,0.017897,0.014608,-0.016634,0.015924,-0.19652,0.11623,0.10899
923,0.032696,0.014937,-0.019923,0.017897,-0.19521,0.11064,0.11228
924,0.041904,0.01691,-0.01499,0.028421,-0.15936,0.10274,0.11491
925,0.045193,0.021843,-0.0047949,0.04618,-0.092274,0.098469,0.12379
926,0.046508,0.028421,0.0017824,0.065254,-0.020252,0.10143,0.1353
927,0.045522,0.032696,0.00046697,0.079395,0.031381,0.11162,0.14221
928,0.042562,0.032038,-0.004466,0.083999,0.043549,0.11886,0.14287
929,0.039273,0.028092,-0.010386,0.082684,0.01987,0.11031,0.13596
930,0.03434,0.026447,-0.013674,0.076106,-0.025842,0.08663,0.12478
931,0.024474,0.027434,-0.014661,0.062623,-0.078132,0.055059,0.11491
932,0.013293,0.032038,-0.010386,0.047166,-0.12384,0.025132,0.10768
933,0.002769,0.036971,-0.0031506,0.036314,-0.15739,-0.00019077,0.10044
934,-0.0047949,0.037629,0.0014536,0.032696,-0.17811,-0.019923,0.091563
935,-0.007097,0.034998,-0.0031506,0.0373,-0.19093,-0.031433,0.081697
936,-0.0031506,0.033354,-0.011701,0.043549,-0.20277,-0.040313,0.069529
937,-0.0011774,0.033354,-0.016634,0.043877,-0.22777,-0.044588,0.058676
938,-0.0011774,0.033025,-0.013017,0.036642,-0.27249,-0.047548,0.04618
939,-0.0031506,0.030394,-0.0054526,0.023159,-0.32314,-0.047877,0.033683
940,-0.0074258,0.023817,-0.00051963,0.013622,-0.35274,-0.043272,0.023817
941,-0.01203,0.016581,0.00046697,0.010662,-0.34024,-0.034393,0.017239
942,-0.014003,0.010004,-0.002164,0.011648,-0.27775,-0.01795,0.015924
943,-0.01203,0.0080309,-0.0051238,0.017568,-0.16693,0.0067154,0.018555
944,-0.0051238,0.010004,-0.004466,0.026776,-0.025185,0.031709,0.022172
945,0.0024402,0.014937,-0.002164,0.036642,0.12182,0.047824,0.01987
946,0.0034268,0.024474,0.0047422,0.037958,0.25534,0.048153,0.013622
947,-0.0034794,0.035985,0.013293,0.032038,0.36123,0.037629,0.0030979
948,-0.015648,0.044206,0.018555,0.023159,0.42832,0.025132,-0.0097279
949,-0.021896,0.044206,0.01691,0.017568,0.45167,0.015924,-0.020581
950,-0.020581,0.038287,0.0057288,0.015595,0.4395,0.013293,-0.025842
951,-0.011701,0.027763,-0.0097279,0.010004,0.40497,0.019541,-0.027487
952,-0.0018351,0.016581,-0.025185,-0.0011774,0.36452,0.033354,-0.026171
953,0.0054,0.0073732,-0.033078,-0.017292,0.32539,0.041904,-0.027158
954,0.0073732,0.0063866,-0.03242,-0.034393,0.28888,0.035656,-0.031433
955,0.0024402,0.0073732,-0.027816,-0.047877,0.26027,0.018555,-0.038997
956,-0.0051238,0.0067154,-0.023869,-0.055769,0.23824,-0.00051963,-0.049521
957,-0.011043,0.0014536,-0.024198,-0.060702,0.22114,-0.011372,-0.060045
958,-0.016634,-0.0077547,-0.025185,-0.063004,0.20798,-0.016634,-0.068595
959,-0.025185,-0.01795,-0.025514,-0.061031,0.19417,-0.022225,-0.076159
960,-0.03538,-0.028144,-0.022883,-0.060702,0.17542,-0.034393,-0.092931
961,-0.044259,-0.035051,-0.023869,-0.060045,0.15438,-0.054783,-0.11694
962,-0.048205,-0.036695,-0.029789,-0.062018,0.13432,-0.080106,-0.13963
963,-0.044259,-0.033735,-0.038011,-0.066293,0.11689,-0.10773,-0.15311
964,-0.033735,-0.026829,-0.047219,-0.06432,0.1011,-0.13503,-0.15509
965,-0.023869,-0.018607,-0.050507,-0.056427,0.088932,-0.16134,-0.14621
966,-0.020909,-0.010715,-0.045574,-0.048205,0.081368,-0.17712,-0.13141
967,-0.022554,-0.0041372,-0.031104,-0.043601,0.076764,-0.17646,-0.11201
968,-0.023869,0.00079584,-0.013017,-0.041299,0.073147,-0.15936,-0.091945
969,-0.021567,0.0034268,-0.0015062,-0.038668,0.068214,-0.13075,-0.071226
970,-0.015319,0.0063866,0.0021113,-0.034393,0.061965,-0.099838,-0.050836
971,-0.011372,0.0093464,-0.0015062,-0.025514,0.062623,-0.073199,-0.032091
972,-0.012688,0.0083598,-0.0041372,-0.013345,0.076435,-0.056756,-0.013674
973,-0.017292,0.002769,0.0011247,-0.0018351,0.099785,-0.051165,0.0034268
974,-0.019594,-0.0024928,0.015266,0.0083598,0.12544,-0.056427,0.019541
975,-0.017621,-0.004466,0.030723,0.016253,0.1455,-0.066622,0.032696
976,-0.011701,-0.00051963,0.036971,0.019212,0.1524,-0.07287,0.031052
977,-0.0077547,0.0050711,0.031381,0.016253,0.14517,-0.075501,0.021843
978,-0.0090702,0.010333,0.016581,0.0086887,0.12708,-0.072213,0.0096753
979,-0.014003,0.011977,0.002769,-0.00051963,0.1057,-0.065635,-0.0011774
980,-0.020581,0.0093464,-0.0047949,-0.010386,0.087946,-0.059716,-0.0080836
981,-0.027816,0.0040845,-0.0080836,-0.018936,0.07512,-0.056427,-0.012688
982,-0.031104,-0.0011774,-0.0097279,-0.024198,0.061636,-0.056427,-0.017292
983,-0.031433,-0.0051238,-0.010386,-0.028473,0.04618,-0.055112,-0.0265
984,-0.027158,-0.0087413,-0.010386,-0.030775,0.030065,-0.050836,-0.03538
985,-0.018278,-0.014332,-0.0077547,-0.027158,0.015924,-0.049192,-0.046561
986,-0.011372,-0.020581,-0.0038083,-0.019265,0.0017824,-0.05544,-0.060045
987,-0.0077547,-0.0265,0.00079584,-0.01203,-0.018278,-0.069253,-0.074515
988,-0.0077547,-0.031433,0.0037556,-0.013674,-0.046561,-0.084381,-0.086025
989,-0.013345,-0.034064,0.0037556,-0.019923,-0.081421,-0.09326,-0.095891
990,-0.024198,-0.035051,-0.002164,-0.026829,-0.11595,-0.092274,-0.10477
991,-0.038997,-0.033735,-0.011372,-0.031433,-0.14358,-0.083723,-0.11135
992,-0.053138,-0.033735,-0.01795,-0.035051,-0.1587,-0.07024,-0.11727
993,-0.062018,-0.03538,-0.01795,-0.038997,-0.16166,-0.060045,-0.1199
994,-0.061689,-0.039326,-0.013017,-0.043272,-0.15509,-0.059387,-0.12121
995,-0.059716,-0.043272,-0.0084125,-0.04689,-0.14358,-0.067609,-0.12089
996,-0.060045,-0.044588,-0.0090702,-0.04393,-0.1324,-0.079448,-0.1222
997,-0.06136,-0.041628,-0.015648,-0.033735,-0.12779,-0.087341,-0.12746
998,-0.062347,-0.037682,-0.02354,-0.021238,-0.12878,-0.089972,-0.13601
999,-0.060373,-0.036366,-0.0265,-0.010715,-0.12845,-0.092931,-0.1416
1000,-0.053467,-0.038339,-0.024856,-0.0084125,-0.12154,-0.094247,-0.14029
1001,-0.040641,-0.04097,-0.022883,-0.01499,-0.10477,-0.092274,-0.12976
1002,-0.025842,-0.041628,-0.022554,-0.0265,-0.079777,-0.08471,-0.10937
1003,-0.014332,-0.038011,-0.026171,-0.034393,-0.045903,-0.072542,-0.083065
1004,-0.010715,-0.032749,-0.034722,-0.030447,-0.0090702,-0.059716,-0.057085
1005,-0.013345,-0.028802,-0.042286,-0.018607,0.020528,-0.047548,-0.029789
1006,-0.016634,-0.022554,-0.045246,-0.0057815,0.038944,-0.036037,-0.0047949
1007,-0.019594,-0.010057,-0.040641,0.0030979,0.04881,-0.022225,0.013293
1008,-0.023869,0.0073732,-0.03242,0.010662,0.058019,-0.0077547,0.027105
1009,-0.028144,0.023488,-0.023869,0.017897,0.070845,0.0021113,0.04026
1010,-0.030447,0.031381,-0.018278,0.02579,0.085644,0.0060577,0.051441
1011,-0.026829,0.031381,-0.017292,0.035656,0.093208,0.010991,0.061636
1012,-0.018936,0.029078,-0.015648,0.043549,0.085644,0.020199,0.069858
1013,-0.0097279,0.029407,-0.0090702,0.049139,0.061965,0.03434,0.075778
1014,0.0030979,0.033354,0.0034268,0.050455,0.024803,0.048482,0.085315
1015,0.020528,0.035656,0.012964,0.050784,-0.021238,0.062952,0.097812
1016,0.035656,0.032367,0.013293,0.057032,-0.06728,0.081368,0.10866
1017,0.047495,0.028421,0.0040845,0.066898,-0.098193,0.1034,0.11853
1018,0.05177,0.027105,-0.0093991,0.073147,-0.10214,0.12609,0.12412
1019,0.049468,0.028421,-0.022225,0.072489,-0.073528,0.1432,0.12478
1020,0.042891,0.030065,-0.028144,0.06361,-0.019265,0.1501,0.11853
1021,0.037958,0.030394,-0.027816,0.052757,0.044864,0.14616,0.10801
1022,0.03434,0.026119,-0.023211,0.044535,0.10636,0.13728,0.096496
1023,0.036314,0.015924,-0.017621,0.04026,0.14681,0.13464,0.087617
1024,0.042233,0.0054,-0.0097279,0.037629,0.15372,0.13826,0.083342
1025,0.04618,-0.00019077,-0.0024928,0.038944,0.12905,0.1432,0.082026
1026,0.047166,0.00046697,0.0067154,0.043877,0.084986,0.14681,0.080382
1027,0.048153,0.0040845,0.012635,0.050126,0.049139,0.14583,0.078409
1028,0.048482,0.0060577,0.01987,0.058019,0.047166,0.13958,0.077751
1029,0.048153,0.0080309,0.025461,0.062294,0.090248,0.12708,0.077751
1030,0.043877,0.010991,0.026776,0.061965,0.15898,0.11064,0.079066
1031,0.036971,0.014608,0.021843,0.060321,0.22015,0.091563,0.07808
1032,0.030065,0.018226,0.013293,0.062294,0.23626,0.071831,0.076106
1033,0.027105,0.017897,0.0040845,0.068543,0.18726,0.054072,0.074791
1034,0.029078,0.01132,-0.0024928,0.074791,0.078737,0.041247,0.077093
1035,0.031709,0.00046697,-0.004466,0.077422,-0.057085,0.032696,0.079395
1036,0.034998,-0.007097,0.0017824,0.075449,-0.18205,0.028092,0.081697
1037,0.036971,-0.0090702,0.012635,0.070845,-0.26855,0.029078,0.083342
1038,0.034998,-0.0061104,0.021514,0.062952,-0.30538,0.033354,0.08367
1039,0.027105,-0.0024928,0.023488,0.050126,-0.30078,0.03434,0.081039
1040,0.014937,0.0001381,0.01987,0.0373,-0.27545,0.02875,0.076106
1041,-0.00019077,0.0021113,0.015924,0.030723,-0.24651,0.020199,0.065912
1042,-0.014332,0.0030979,0.015595,0.028092,-0.22612,0.010333,0.051113
1043,-0.022554,0.0044134,0.015266,0.023817,-0.2179,-0.002164,0.038944
1044,-0.019265,0.0083598,0.017239,0.015595,-0.21889,-0.015648,0.033683
1045,-0.0011774,0.012635,0.019541,0.0060577,-0.21626,-0.0265,0.031052
1046,0.025132,0.015595,0.021186,0.00046697,-0.20606,-0.031762,0.027105
1047,0.046837,0.01691,0.01987,-0.0024928,-0.19291,-0.031762,0.021843
1048,0.056374,0.017239,0.015595,-0.0057815,-0.17811,-0.028473,0.013951
1049,0.051113,0.018555,0.0093464,-0.011701,-0.16824,-0.019923,0.0080309
1050,0.038287,0.016581,0.0024402,-0.020909,-0.16528,-0.0064392,0.0040845
1051,0.027434,0.014608,-0.0041372,-0.029131,-0.16989,0.0083598,0.0001381
1052,0.022501,0.01132,-0.011372,-0.036366,-0.17548,0.01691,-0.0031506
1053,0.020857,0.0080309,-0.019594,-0.043272,-0.17679,0.012306,-0.011372
1054,0.015924,0.0067154,-0.030118,-0.048863,-0.17022,-0.0061104,-0.020581
1055,0.0021113,0.0044134,-0.04393,-0.052481,-0.15344,-0.033078,-0.033406
1056,-0.019923,-0.0008485,-0.059387,-0.052152,-0.12976,-0.059716,-0.049192
1057,-0.045903,-0.0090702,-0.070568,-0.048534,-0.10609,-0.078461,-0.065307
1058,-0.070897,-0.019594,-0.071555,-0.043272,-0.089314,-0.088985,-0.080763
1059,-0.088327,-0.027158,-0.062347,-0.038339,-0.079777,-0.090958,-0.087012
1060,-0.09622,-0.027487,-0.047877,-0.034393,-0.077146,-0.089314,-0.080106
1061,-0.095891,-0.018607,-0.033078,-0.029131,-0.074844,-0.085039,-0.060045
1062,-0.086683,-0.0077547,-0.019265,-0.019923,-0.067609,-0.076159,-0.034064
1063,-0.073857,-0.0031506,-0.0084125,-0.011043,-0.051494,-0.065307,-0.014332
1064,-0.058729,-0.0051238,-0.0031506,-0.0084125,-0.020909,-0.053138,-0.0015062
1065,-0.042286,-0.0090702,-0.0015062,-0.013017,0.020199,-0.043601,0.0030979
1066,-0.026829,-0.0077547,-0.0018351,-0.020581,0.062952,-0.034393,0.0063866
1067,-0.013017,0.0001381,0.0017824,-0.024198,0.10011,-0.021896,0.011648
1068,-0.0008485,0.010662,0.01132,-0.023211,0.12741,-0.007097,0.014937
1069,0.0063866,0.020857,0.023159,-0.020909,0.1432,0.0057288,0.015266
1070,0.0044134,0.026119,0.02875,-0.024198,0.14254,0.013293,0.016253
1071,-0.0028217,0.025461,0.028421,-0.033406,0.12182,0.013622,0.018226
1072,-0.0067681,0.014937,0.021514,-0.044259,0.085315,0.0063866,0.016253
1073,-0.00051963,-0.0008485,0.0080309,-0.048205,0.039931,-0.0054526,0.0096753
1074,0.0090175,-0.013017,-0.0074258,-0.042286,-0.0041372,-0.010715,0.0040845
1075,0.016253,-0.013345,-0.020581,-0.029789,-0.042286,-0.0047949,0.0037556
1076,0.01987,-0.0024928,-0.026171,-0.012359,-0.073199,0.010333,0.0073732
1077,0.022501,0.013293,-0.023211,0.0040845,-0.095233,0.031052,0.0096753
1078,0.023817,0.026776,-0.011043,0.020199,-0.10378,0.050784,0.013622
1079,0.024145,0.036642,0.0070443,0.032367,-0.089972,0.06624,0.018555
1080,0.023817,0.038944,0.02579,0.039602,-0.057743,0.077093,0.025461
1081,0.021186,0.03434,0.038616,0.041904,-0.021238,0.083999,0.035656
1082,0.016581,0.02283,0.042891,0.040589,0.013951,0.087617,0.047166
1083,0.012306,0.01132,0.038287,0.038287,0.041575,0.087617,0.054072
1084,0.013293,0.0057288,0.028421,0.032696,0.062294,0.08663,0.050455
1085,0.017568,0.0077021,0.020857,0.022172,0.080382,0.082684,0.037958
1086,0.020528,0.015595,0.015924,0.0080309,0.10176,0.076764,0.023817
1087,0.017897,0.026119,0.0093464,-0.0024928,0.12544,0.071502,0.014608
1088,0.010004,0.030723,0.00079584,-0.0064392,0.15043,0.070187,0.015924
1089,0.0034268,0.031052,-0.0087413,-0.0008485,0.17444,0.078409,0.023488
1090,0.0047422,0.029078,-0.018607,0.010662,0.19253,0.097483,0.037629
1091,0.013293,0.030394,-0.02354,0.024145,0.20502,0.12149,0.052757
1092,0.022501,0.033683,-0.020909,0.035656,0.21522,0.14188,0.064596
1093,0.030065,0.038616,-0.0093991,0.040918,0.22147,0.15109,0.068871
1094,0.030723,0.039602,0.0093464,0.038944,0.22015,0.14352,0.06065
1095,0.022501,0.033354,0.028092,0.032038,0.20601,0.12511,0.040918
1096,0.010333,0.01987,0.038616,0.024474,0.1797,0.098469,0.015266
1097,0.0014536,0.0021113,0.033683,0.018884,0.14221,0.067885,-0.0064392
1098,-0.0011774,-0.013017,0.01691,0.015924,0.097154,0.034998,-0.020909
1099,-0.00019077,-0.0265,0.0001381,0.012964,0.049797,0.00046697,-0.025842
1100,0.00079584,-0.034393,-0.0074258,0.0073732,0.0057288,-0.034722,-0.024527
1101,-0.00051963,-0.030447,-0.0061104,-0.00051963,-0.030118,-0.069582,-0.022225
1102,-0.002164,-0.01499,-0.0028217,-0.0077547,-0.053467,-0.1005,-0.019923
1103,-0.0015062,0.0037556,0.00046697,-0.011701,-0.063991,-0.12352,-0.018607
1104,0.0030979,0.018226,0.0014536,-0.013345,-0.065635,-0.1324,-0.017621
1105,0.0067154,0.02579,-0.0034794,-0.014661,-0.063991,-0.13009,-0.018936
1106,0.0040845,0.027105,-0.012359,-0.017292,-0.065635,-0.12154,-0.024856
1107,-0.0054526,0.022172,-0.020581,-0.021238,-0.074844,-0.11365,-0.029789
1108,-0.020909,0.010333,-0.026171,-0.023869,-0.089972,-0.11069,-0.03242
1109,-0.038011,-0.0047949,-0.02946,-0.0265,-0.10609,-0.11431,-0.036366
1110,-0.051165,-0.019923,-0.032749,-0.031762,-0.11793,-0.11924,-0.039326
1111,-0.056427,-0.036695,-0.036695,-0.044588,-0.12845,-0.12352,-0.044588
1112,-0.057085,-0.054454,-0.042286,-0.060702,-0.14062,-0.12615,-0.051823
1113,-0.058729,-0.070568,-0.051165,-0.077146,-0.15542,-0.12812,-0.059387
1114,-0.060702,-0.077475,-0.059058,-0.086025,-0.16758,-0.13009,-0.06728
1115,-0.060373,-0.076159,-0.067937,-0.086025,-0.16923,-0.13371,-0.078132
1116,-0.0584,-0.06432,-0.073199,-0.076159,-0.1541,-0.13832,-0.088985
1117,-0.057414,-0.045246,-0.074186,-0.058729,-0.12648,-0.1416,-0.095891
1118,-0.057414,-0.028802,-0.07287,-0.043272,-0.087341,-0.14259,-0.10115
1119,-0.054125,-0.025185,-0.066951,-0.03538,-0.047548,-0.13897,-0.10674
1120,-0.045903,-0.03242,-0.062676,-0.034393,-0.017621,-0.12878,-0.11036
1121,-0.036695,-0.041957,-0.058071,-0.031433,-0.0064392,-0.11299,-0.10937
1122,-0.030775,-0.050836,-0.053796,-0.021896,-0.014661,-0.093589,-0.097864
1123,-0.028144,-0.056756,-0.051165,-0.0038083,-0.038339,-0.074515,-0.078461
1124,-0.0265,-0.060702,-0.051165,0.016253,-0.07024,-0.061689,-0.053467
1125,-0.024198,-0.059716,-0.050836,0.035985,-0.098193,-0.057743,-0.031104
1126,-0.025842,-0.055112,-0.045903,0.047166,-0.11562,-0.062018,-0.014003
1127,-0.027158,-0.04689,-0.035708,0.047495,-0.1199,-0.065307,-0.0018351
1128,-0.02946,-0.031104,-0.02354,0.041904,-0.11431,-0.060373,0.010004
1129,-0.029789,-0.0087413,-0.011043,0.037958,-0.10576,-0.04689,0.021186
1130,-0.028802,0.01132,-0.0011774,0.040918,-0.10017,-0.03538,0.032038
1131,-0.024527,0.023488,0.0057288,0.046508,-0.098193,-0.027487,0.041247
1132,-0.015976,0.031052,0.012635,0.048482,-0.09918,-0.023869,0.04618
1133,-0.0064392,0.033683,0.021186,0.041247,-0.10839,-0.022883,0.044206
1134,0.0073732,0.032038,0.033354,0.027105,-0.12911,-0.020909,0.04026
1135,0.024145,0.033025,0.042233,0.012306,-0.1643,-0.017621,0.038944
1136,0.041575,0.036971,0.039931,-0.0015062,-0.21231,-0.016963,0.041904
1137,0.056374,0.040589,0.027434,-0.014661,-0.26328,-0.019923,0.04618
1138,0.059005,0.040589,0.014937,-0.028473,-0.30834,-0.0265,0.044864
1139,0.050455,0.038944,0.0093464,-0.039326,-0.33728,-0.041299,0.039273
1140,0.035985,0.037629,0.010991,-0.044588,-0.34912,-0.058729,0.033025
1141,0.027434,0.039602,0.015924,-0.04393,-0.34978,-0.072213,0.028092
1142,0.022501,0.040918,0.022172,-0.041299,-0.34221,-0.078461,0.025132
1143,0.017239,0.040918,0.029078,-0.038339,-0.32413,-0.077803,0.021514
1144,0.013622,0.041575,0.036971,-0.03538,-0.27414,-0.070568,0.016253
1145,0.0096753,0.039602,0.043549,-0.033735,-0.1643,-0.06136,0.012635
1146,0.0057288,0.03434,0.046508,-0.030447,0.026447,-0.052152,0.010662
1147,0.0037556,0.032038,0.044206,-0.025185,0.27211,-0.042615,0.010333
1148,0.0063866,0.033683,0.039273,-0.018278,0.50561,-0.031433,0.013293
1149,0.0090175,0.038616,0.031709,-0.014332,0.66938,-0.019594,0.022501
1150,0.0093464,0.042891,0.024474,-0.013345,0.73812,-0.012359,0.036642
1151,0.0096753,0.045193,0.021843,-0.012359,0.70786,-0.0097279,0.049468
1152,0.011648,0.041247,0.023817,-0.007097,0.59144,-0.0087413,0.056703
1153,0.017239,0.034669,0.029407,0.002769,0.41912,-0.0034794,0.059663
1154,0.026447,0.027105,0.035327,0.017897,0.2287,0.0090175,0.062294
1155,0.036642,0.021186,0.038944,0.03434,0.055388,0.025461,0.067227
1156,0.045522,0.018884,0.04026,0.048482,-0.077146,0.042233,0.071831
1157,0.049797,0.020199,0.039273,0.059992,-0.16134,0.058676,0.074462
1158,0.047166,0.025461,0.036314,0.065583,-0.20179,0.073804,0.076106
1159,0.040589,0.032367,0.032038,0.064596,-0.20902,0.088932,0.074791
1160,0.034669,0.033683,0.030065,0.059005,-0.2008,0.098469,0.073147
1161,0.026776,0.031052,0.033683,0.055388,-0.19948,0.10406,0.071173
1162,0.018555,0.02875,0.040589,0.059663,-0.20244,0.1113,0.07512
1163,0.012635,0.030723,0.045193,0.0692,-0.18238,0.12642,0.083013
1164,0.011977,0.039931,0.044206,0.080053,-0.11266,0.14681,0.08959
1165,0.016253,0.051441,0.039931,0.087617,0.0037556,0.16654,0.08959
1166,0.023159,0.059663,0.035327,0.087946,0.14188,0.17838,0.082355
1167,0.026119,0.059334,0.034011,0.083013,0.2708,0.17871,0.071502
1168,0.023488,0.051441,0.033025,0.074133,0.37176,0.17082,0.061307
1169,0.015924,0.03434,0.026447,0.064267,0.44279,0.15602,0.053415
1170,0.0060577,0.015266,0.015266,0.055717,0.50363,0.1376,0.043549
1171,-0.0054526,0.0001381,-0.00019077,0.049139,0.56776,0.11886,0.032696
1172,-0.015319,-0.0080836,-0.01795,0.043877,0.63156,0.10866,0.019541
1173,-0.021896,-0.0064392,-0.032749,0.042891,0.67958,0.10636,0.0054
1174,-0.028802,0.00079584,-0.04097,0.047166,0.69602,0.10669,-0.0084125
1175,-0.033735,0.0067154,-0.042286,0.055059,0.66905,0.10439,-0.019265
1176,-0.033735,0.0054,-0.036695,0.063281,0.59802,0.097812,-0.028473
1177,-0.034064,-0.0057815,-0.028144,0.064925,0.49245,0.081697,-0.037682
1178,-0.033078,-0.021567,-0.022554,0.056046,0.37176,0.05473,-0.04689
1179,-0.030775,-0.033735,-0.028144,0.038616,0.25468,0.024474,-0.053467
1180,-0.029131,-0.039326,-0.039326,0.015924,0.16523,-0.00019077,-0.054783
1181,-0.030118,-0.039655,-0.04985,-0.0077547,0.11985,-0.013017,-0.05281
1182,-0.035051,-0.038339,-0.054454,-0.027816,0.12905,-0.018936,-0.048863
1183,-0.042286,-0.034722,-0.053796,-0.039326,0.17444,-0.019265,-0.046561
1184,-0.045246,-0.030447,-0.048205,-0.035051,0.21588,-0.012688,-0.041957
1185,-0.040641,-0.0265,-0.041628,-0.020581,0.21588,-0.00051963,-0.037682
1186,-0.028144,-0.022225,-0.033735,-0.0011774,0.15503,0.013293,-0.035051
1187,-0.012688,-0.018936,-0.0265,0.01691,0.04322,0.023159,-0.035051
1188,-0.0008485,-0.016305,-0.020909,0.029736,-0.092603,0.027434,-0.038011
1189,0.0030979,-0.020252,-0.019265,0.031709,-0.22514,0.025461,-0.044917
1190,-0.0038083,-0.026829,-0.022554,0.02283,-0.33629,0.019541,-0.051494
1191,-0.01795,-0.035708,-0.03242,0.002769,-0.4264,0.0096753,-0.054454
1192,-0.033406,-0.045246,-0.046232,-0.022883,-0.50138,-0.004466,-0.050179
1193,-0.045574,-0.049192,-0.06136,-0.044588,-0.56255,-0.022554,-0.040313
1194,-0.057085,-0.048205,-0.069911,-0.057414,-0.59807,-0.039326,-0.028473
1195,-0.065635,-0.043272,-0.069253,-0.059058,-0.60235,-0.051494,-0.018607
1196,-0.065964,-0.038997,-0.06136,-0.051823,-0.57439,-0.054454,-0.013345
1197,-0.059716,-0.037682,-0.05281,-0.037353,-0.51816,-0.048205,-0.013674
1198,-0.049521,-0.034722,-0.045574,-0.02354,-0.44909,-0.036037,-0.017292
1199,-0.039984,-0.028802,-0.039984,-0.015648,-0.38365,-0.028473,-0.019594
1200,-0.030447,-0.021567,-0.036695,-0.013674,-0.33202,-0.03242,-0.021567
1201,-0.022225,-0.01795,-0.037024,-0.014661,-0.2965,-0.052481,-0.024527
1202,-0.018278,-0.019265,-0.038668,-0.015976,-0.27841,-0.084052,-0.027816
1203,-0.018278,-0.023211,-0.039984,-0.016634,-0.27808,-0.11529,-0.033078
1204,-0.020909,-0.022225,-0.036366,-0.014661,-0.2919,-0.13601,-0.036366
1205,-0.023211,-0.01499,-0.027487,-0.0097279,-0.30472,-0.14654,-0.036037
1206,-0.021567,-0.0057815,-0.019594,-0.0077547,-0.30308,-0.15377,-0.032749
1207,-0.01795,0.00046697,-0.013345,-0.010386,-0.27841,-0.16166,-0.02946
1208,-0.013345,0.0024402,-0.0084125,-0.017292,-0.23796,-0.17318,-0.027158
1209,-0.0090702,0.0014536,-0.0057815,-0.0265,-0.18995,-0.18501,-0.028802
1210,-0.007097,-0.002164,-0.007097,-0.033735,-0.14259,-0.19159,-0.032091
1211,-0.0080836,-0.013017,-0.010715,-0.037353,-0.10082,-0.19192,-0.033735
1212,-0.012359,-0.031433,-0.016305,-0.038339,-0.06432,-0.17811,-0.030118
1213,-0.019265,-0.048534,-0.022554,-0.035051,-0.026171,-0.1564,-0.022554
1214,-0.022554,-0.058071,-0.0265,-0.029789,0.012306,-0.13371,-0.011372
1215,-0.018278,-0.054454,-0.026829,-0.026171,0.041575,-0.11069,0.0030979
1216,-0.0084125,-0.041957,-0.02946,-0.028144,0.053743,-0.088656,0.015924
1217,0.0017824,-0.027158,-0.035051,-0.031104,0.044535,-0.067937,0.023817
1218,0.0080309,-0.014661,-0.040641,-0.028144,0.022172,-0.047877,0.02579
1219,0.010662,-0.0090702,-0.038339,-0.01795,-0.0041372,-0.033078,0.027105
1220,0.010004,-0.0087413,-0.022883,-0.0031506,-0.021896,-0.022225,0.03434
1221,0.0073732,-0.0090702,0.0014536,0.0090175,-0.020581,-0.014661,0.04618
1222,0.0044134,-0.0067681,0.023488,0.0086887,0.0021113,-0.010715,0.058019
1223,0.00046697,-0.0024928,0.034998,-0.0024928,0.040918,-0.011701,0.062623
1224,-0.0011774,0.00079584,0.036642,-0.016634,0.083342,-0.011701,0.058348
1225,0.00079584,0.0034268,0.035656,-0.028144,0.11952,-0.0090702,0.048153
1226,0.0044134,0.0060577,0.033683,-0.03242,0.13892,-0.0008485,0.03434
1227,0.0086887,0.0090175,0.030065,-0.033078,0.1455,0.013293,0.018555
1228,0.012306,0.0080309,0.024145,-0.03242,0.14221,0.030723,0.0034268
1229,0.015595,0.0011247,0.016253,-0.032749,0.13366,0.046508,-0.0080836
1230,0.016253,-0.011043,0.0034268,-0.029131,0.12577,0.056374,-0.0097279
1231,0.012635,-0.021896,-0.0077547,-0.022554,0.11853,0.058019,-0.0034794
1232,0.0080309,-0.024527,-0.014332,-0.015976,0.10834,0.054401,0.0080309
1233,0.0024402,-0.015976,-0.015648,-0.014003,0.093208,0.05177,0.020857
1234,-0.0018351,-0.00019077,-0.011372,-0.012688,0.072818,0.052099,0.029078
1235,-0.0041372,0.012635,-0.0018351,-0.012359,0.051113,0.056374,0.030723
1236,-0.0008485,0.016253,0.0086887,-0.012688,0.026447,0.059992,0.026776
1237,0.0047422,0.0093464,0.015595,-0.01499,0.0011247,0.060321,0.019541
1238,0.0086887,-0.00019077,0.016581,-0.021238,-0.02354,0.058019,0.013951
1239,0.0086887,-0.0054526,0.010662,-0.030447,-0.044917,0.055059,0.013951
1240,0.0037556,-0.0011774,0.0001381,-0.037353,-0.069253,0.056374,0.020199
1241,-0.0011774,0.011977,-0.0067681,-0.039326,-0.095891,0.061307,0.029078
1242,0.002769,0.029407,-0.004466,-0.034393,-0.12319,0.068871,0.038616
1243,0.012306,0.04322,0.0060577,-0.024856,-0.14687,0.070845,0.047495
1244,0.022501,0.049139,0.016253,-0.014003,-0.16627,0.066898,0.05177
1245,0.029078,0.046837,0.019541,-0.0034794,-0.17482,0.06361,0.052757
1246,0.028421,0.042562,0.016253,0.0073732,-0.16397,0.067556,0.054072
1247,0.028421,0.041575,0.014608,0.01987,-0.12582,0.078737,0.056046
1248,0.036314,0.042891,0.015595,0.036314,-0.07024,0.093208,0.058348
1249,0.050784,0.044206,0.020528,0.058019,-0.01499,0.10603,0.060979
1250,0.062294,0.042562,0.026447,0.081368,0.013951,0.11491,0.063938
1251,0.064267,0.036314,0.027105,0.097812,0.00046697,0.1182,0.060979
1252,0.056703,0.026447,0.023488,0.10505,-0.056098,0.11064,0.049797
1253,0.04322,0.015924,0.019541,0.10702,-0.13601,0.096825,0.032696
1254,0.030723,0.0063866,0.017239,0.10242,-0.21067,0.079395,0.015924
1255,0.02283,-0.00051963,0.013293,0.094194,-0.26032,0.062294,0.0040845
1256,0.022501,-0.0028217,0.0057288,0.087617,-0.2771,0.041247,-0.0031506
1257,0.025132,0.0024402,-0.0034794,0.079066,-0.26822,0.016253,-0.0084125
1258,0.027434,0.01132,-0.012688,0.06624,-0.24092,-0.0074258,-0.014003
1259,0.027434,0.018555,-0.024856,0.04618,-0.20442,-0.02946,-0.020581
1260,0.027763,0.019541,-0.037024,0.023817,-0.16857,-0.04985,-0.028144
1261,0.027105,0.015266,-0.047877,0.0060577,-0.13601,-0.065964,-0.035051
1262,0.029407,0.010004,-0.054454,-0.0024928,-0.1051,-0.074515,-0.03538
1263,0.033683,0.0086887,-0.055769,-0.0038083,-0.077475,-0.075501,-0.033406
1264,0.037629,0.010333,-0.04985,-0.0024928,-0.05281,-0.069911,-0.02946
1265,0.038287,0.011648,-0.037682,-0.0031506,-0.025185,-0.059058,-0.023211
1266,0.033683,0.013622,-0.02354,-0.0077547,0.0083598,-0.051494,-0.019594
1267,0.021186,0.013293,-0.015319,-0.01499,0.047495,-0.048205,-0.019265
1268,0.0017824,0.0080309,-0.012359,-0.021567,0.091234,-0.047548,-0.024527
1269,-0.017292,0.0050711,-0.010715,-0.026171,0.13103,-0.047219,-0.03242
1270,-0.031104,0.0086887,-0.0057815,-0.030775,0.16128,-0.048534,-0.042286
1271,-0.033735,0.015266,0.0034268,-0.034064,0.18167,-0.051165,-0.052481
1272,-0.027487,0.017897,0.013951,-0.032749,0.19581,-0.053467,-0.061689
1273,-0.021567,0.01691,0.022172,-0.026171,0.21028,-0.051823,-0.062018
1274,-0.01795,0.013951,0.027105,-0.018278,0.22706,-0.042944,-0.053467
1275,-0.01795,0.0073732,0.028421,-0.015319,0.24514,-0.032091,-0.040313
1276,-0.019923,-0.0028217,0.023817,-0.019594,0.25994,-0.022554,-0.031104
1277,-0.021896,-0.011043,0.018555,-0.024198,0.27014,-0.016963,-0.027487
1278,-0.01795,-0.016963,0.013951,-0.023211,0.27836,-0.014003,-0.025514
1279,-0.011372,-0.016634,0.0073732,-0.016634,0.28691,-0.018936,-0.024527
1280,-0.0080836,-0.0097279,-0.00019077,-0.0051238,0.29447,-0.026171,-0.02354
1281,-0.012688,-0.00051963,-0.0067681,0.012306,0.29743,-0.030775,-0.023211
1282,-0.025185,0.0086887,-0.011043,0.029407,0.29217,-0.031104,-0.022554
1283,-0.038339,0.016253,-0.016634,0.041575,0.27704,-0.027487,-0.020909
1284,-0.049521,0.022501,-0.019594,0.045851,0.256,-0.024198,-0.019923
1285,-0.054125,0.023488,-0.01499,0.041904,0.22969,-0.024198,-0.021238
1286,-0.04985,0.018884,-0.0054526,0.032367,0.1968,-0.028144,-0.022883
1287,-0.038011,0.01132,0.0044134,0.01987,0.15832,-0.032749,-0.024856
1288,-0.025185,0.0063866,0.0063866,0.0090175,0.11721,-0.034722,-0.028802
1289,-0.019265,0.0047422,0.0001381,0.00079584,0.078737,-0.03242,-0.030775
1290,-0.025185,0.0024402,-0.0080836,-0.0041372,0.047824,-0.026171,-0.028473
1291,-0.035708,-0.0051238,-0.014003,-0.0097279,0.024145,-0.016634,-0.021238
1292,-0.045246,-0.018278,-0.013345,-0.015976,0.0090175,-0.004466,-0.0093991
1293,-0.050836,-0.035708,-0.0074258,-0.022883,-0.0008485,0.0047422,0.0047422
1294,-0.048205,-0.051823,-0.0011774,-0.032091,-0.010715,0.010991,0.018555
1295,-0.03538,-0.062347,0.0077021,-0.038668,-0.025514,0.016253,0.029407
1296,-0.017621,-0.063991,0.012964,-0.040313,-0.047219,0.016581,0.037629
1297,-0.00051963,-0.056098,0.016253,-0.034722,-0.074844,0.014608,0.039602
1298,0.014608,-0.042615,0.014608,-0.022554,-0.10378,0.014279,0.036642
1299,0.025132,-0.022883,0.012635,-0.0084125,-0.13371,0.017239,0.032367
1300,0.032038,0.0001381,0.01691,0.0021113,-0.16331,0.025461,0.033025
1301,0.034998,0.023817,0.020199,0.0054,-0.1883,0.035985,0.033683
1302,0.035985,0.041904,0.018555,0.00046697,-0.20113,0.044206,0.036642
1303,0.033025,0.050455,0.01132,-0.0061104,-0.19225,0.049468,0.041247
1304,0.02579,0.044864,0.0021113,-0.0097279,-0.16397,0.052099,0.044864
1305,0.011977,0.027105,-0.0064392,-0.013017,-0.12253,0.05177,0.04618
1306,-0.0067681,0.0054,-0.010386,-0.015648,-0.067609,0.052757,0.042891
1307,-0.024198,-0.0084125,-0.011372,-0.014332,-0.0061104,0.056374,0.037958
1308,-0.031433,-0.012359,-0.011701,-0.012688,0.05177,0.061307,0.034011
1309,-0.027487,-0.007097,-0.010057,-0.0074258,0.093536,0.065583,0.035656
1310,-0.01795,0.0037556,-0.0051238,-0.00019077,0.11491,0.068871,0.039931
1311,-0.007097,0.013622,-0.0011774,0.0044134,0.11787,0.068543,0.042233
1312,0.002769,0.01691,-0.00019077,0.0060577,0.10669,0.064267,0.038616
1313,0.0080309,0.014608,-0.0011774,0.0044134,0.089919,0.057032,0.029736
1314,0.0044134,0.0093464,-0.0054526,-0.00051963,0.071831,0.050126,0.014937
1315,-0.0061104,0.0044134,-0.0077547,-0.0090702,0.056703,0.039931,0.0014536
1316,-0.015648,0.0001381,-0.0090702,-0.020252,0.049139,0.027105,-0.0064392
1317,-0.018278,-0.0015062,-0.014332,-0.028473,0.048482,0.013293,-0.010057
1318,-0.018936,0.00046697,-0.020252,-0.030447,0.054401,0.0040845,-0.01499
1319,-0.019923,0.0044134,-0.021896,-0.028144,0.057032,-0.0018351,-0.019923
1320,-0.022554,0.0040845,-0.021896,-0.024527,0.054401,-0.0077547,-0.024527
1321,-0.025842,0.0037556,-0.022225,-0.021567,0.050455,-0.014661,-0.027158
1322,-0.027158,0.0047422,-0.024198,-0.015319,0.044535,-0.020909,-0.026171
1323,-0.025514,0.0060577,-0.027487,-0.0064392,0.035656,-0.028144,-0.021238
1324,-0.020252,0.0067154,-0.034064,0.0024402,0.02283,-0.038011,-0.011372
1325,-0.0093991,0.0073732,-0.039984,0.0093464,0.0070443,-0.047548,0.00079584
1326,0.0063866,0.0070443,-0.041299,0.012635,-0.0054526,-0.054783,0.01132
1327,0.017568,0.0060577,-0.039984,0.013622,-0.010057,-0.058729,0.026119
1328,0.019212,0.0054,-0.038011,0.011977,-0.0077547,-0.057743,0.043877
1329,0.012306,0.010662,-0.031762,0.0070443,-0.004466,-0.04985,0.061636
1330,0.0014536,0.020199,-0.022554,0.0021113,-0.010057,-0.041628,0.076106
1331,-0.0090702,0.027105,-0.01203,0.0037556,-0.024856,-0.03538,0.087288
1332,-0.015319,0.029407,-0.0038083,0.0093464,-0.049521,-0.029131,0.094194
1333,-0.01795,0.024474,-0.00019077,0.016581,-0.085367,-0.025842,0.097483
1334,-0.014003,0.015924,0.00046697,0.021843,-0.12746,-0.0265,0.10077
1335,-0.0038083,0.0060577,-0.00051963,0.026776,-0.16857,-0.029789,0.10242
1336,0.0060577,-0.0018351,-0.00051963,0.030065,-0.20376,-0.033078,0.098469
1337,0.013293,-0.0028217,0.0054,0.031709,-0.22218,-0.034064,0.08663
1338,0.01691,0.002769,0.015924,0.033025,-0.22546,-0.032749,0.068214
1339,0.018555,0.011648,0.025132,0.033683,-0.22152,-0.027487,0.050126
1340,0.021514,0.01987,0.027763,0.034011,-0.21724,-0.022554,0.03434
1341,0.026119,0.026119,0.02579,0.035327,-0.21034,-0.022225,0.019541
1342,0.026119,0.032038,0.021186,0.038287,-0.19324,-0.028473,0.0073732
1343,0.021843,0.035656,0.015266,0.039273,-0.16298,-0.036037,0.002769
1344,0.013622,0.03434,0.0093464,0.036642,-0.12121,-0.036037,0.0063866
1345,0.0073732,0.028092,0.0057288,0.02875,-0.075501,-0.027816,0.013293
1346,0.0037556,0.018226,0.0040845,0.016581,-0.034722,-0.014661,0.018226
1347,0.0040845,0.0083598,-0.0018351,0.0054,-0.007097,-0.0024928,0.018555
1348,0.0077021,0.0011247,-0.010057,-0.0041372,0.0067154,0.0034268,0.016581
1349,0.010662,-0.0031506,-0.018278,-0.0084125,0.010333,-0.00051963,0.011648
1350,0.011977,-0.0031506,-0.02354,-0.0064392,0.010991,-0.015648,0.0054
1351,0.012635,-0.0011774,-0.025842,-0.002164,0.012635,-0.037024,0.00046697
1352,0.01132,0.0014536,-0.028473,-0.00019077,0.018555,-0.055769,-0.0028217
1353,0.0063866,0.0047422,-0.030447,-0.0051238,0.026119,-0.066293,-0.007097
1354,0.0001381,0.0050711,-0.02946,-0.01499,0.034011,-0.068595,-0.015976
1355,-0.0084125,-0.00019077,-0.028473,-0.02354,0.040918,-0.066622,-0.028473
1356,-0.01795,-0.0097279,-0.027816,-0.026171,0.046837,-0.062018,-0.042615
1357,-0.027487,-0.018278,-0.028144,-0.024527,0.052099,-0.053796,-0.056427
1358,-0.034393,-0.021896,-0.02946,-0.017621,0.059005,-0.039326,-0.072213
1359,-0.037353,-0.020252,-0.031762,-0.010057,0.073147,-0.018936,-0.083394
1360,-0.036037,-0.012688,-0.034064,-0.0051238,0.085315,0.0017824,-0.086025
1361,-0.030118,-0.0028217,-0.030118,0.0014536,0.086959,0.016581,-0.078461
1362,-0.020909,0.0021113,-0.016963,0.011977,0.075449,0.023817,-0.067609
1363,-0.013674,-0.00051963,0.0001381,0.024474,0.058019,0.025132,-0.058729
1364,-0.0087413,-0.0074258,0.015924,0.035656,0.052099,0.023488,-0.051494
1365,-0.0054526,-0.011043,0.026776,0.045522,0.072818,0.016581,-0.046232
1366,-0.00051963,-0.0093991,0.033354,0.052099,0.12182,0.0090175,-0.038011
1367,0.0073732,-0.0051238,0.037958,0.050784,0.1945,0.0001381,-0.02946
1368,0.014608,-0.004466,0.039602,0.043877,0.27672,-0.0067681,-0.024198
1369,0.01691,-0.0041372,0.032038,0.03434,0.34479,-0.013345,-0.021896
1370,0.015924,-0.0031506,0.015595,0.028092,0.37603,-0.016963,-0.019594
1371,0.017239,-0.00019077,-0.0018351,0.02875,0.36485,-0.013017,-0.014332
1372,0.017239,-0.00051963,-0.013017,0.034669,0.31947,-0.0034794,-0.0057815
1373,0.013622,-0.0031506,-0.014661,0.036971,0.25797,0.012306,0.0067154
1374,0.010004,-0.0087413,-0.0084125,0.035327,0.19253,0.032367,0.023488
1375,0.0083598,-0.011372,-0.0008485,0.032038,0.13004,0.052428,0.041575
1376,0.010004,-0.010386,0.0024402,0.031052,0.073804,0.069858,0.052428
1377,0.014937,-0.0047949,0.002769,0.031052,0.023159,0.081697,0.053086
1378,0.019212,-0.0018351,-0.00051963,0.030394,-0.02946,0.089261,0.044864
1379,0.017897,-0.0051238,-0.0090702,0.026776,-0.087669,0.095181,0.033683
1380,0.012635,-0.01203,-0.019923,0.018884,-0.14917,0.10011,0.021186
1381,0.002769,-0.020909,-0.026829,0.010662,-0.20277,0.10274,0.0057288
1382,-0.0097279,-0.028802,-0.027816,0.0057288,-0.23533,0.10209,-0.010057
1383,-0.022225,-0.033406,-0.025514,0.0073732,-0.23369,0.096825,-0.024198
1384,-0.031104,-0.034064,-0.024856,0.013951,-0.19554,0.09255,-0.035051
1385,-0.034722,-0.033406,-0.027487,0.01691,-0.1347,0.091892,-0.039655
1386,-0.03242,-0.02946,-0.030447,0.015266,-0.075501,0.09255,-0.038011
1387,-0.027487,-0.024198,-0.031762,0.0060577,-0.035051,0.08959,-0.032749
1388,-0.028144,-0.01795,-0.031104,-0.0031506,-0.026829,0.086959,-0.02946
1389,-0.033406,-0.010057,-0.031762,-0.0067681,-0.051494,0.082026,-0.028473
1390,-0.038011,-0.0041372,-0.031433,-0.0034794,-0.10214,0.074462,-0.02946
1391,-0.036366,-0.0018351,-0.027487,0.0021113,-0.16134,0.062623,-0.030775
1392,-0.026829,-0.0061104,-0.017621,0.0057288,-0.2133,0.047824,-0.028144
1393,-0.014003,-0.013345,-0.0067681,0.0054,-0.24651,0.029736,-0.021567
1394,-0.0024928,-0.019265,0.00079584,0.00079584,-0.25506,0.0047422,-0.017292
1395,0.0057288,-0.020581,0.0037556,-0.0067681,-0.24585,-0.028802,-0.019923
1396,0.0093464,-0.016634,0.0021113,-0.014661,-0.2304,-0.069911,-0.027816
1397,0.0037556,-0.0084125,-0.0018351,-0.018607,-0.21922,-0.11497,-0.034722
1398,-0.011372,0.0001381,-0.0093991,-0.020581,-0.21691,-0.16035,-0.039655
1399,-0.030775,0.0067154,-0.020581,-0.027158,-0.22645,-0.19685,-0.043601
1400,-0.048863,0.011977,-0.030447,-0.037682,-0.24322,-0.21955,-0.043272
1401,-0.061031,0.018555,-0.034393,-0.04689,-0.25835,-0.22612,-0.037682
1402,-0.065635,0.028092,-0.033406,-0.051165,-0.26328,-0.22053,-0.027816
1403,-0.062347,0.036971,-0.02946,-0.054783,-0.25901,-0.21034,-0.015648
1404,-0.049192,0.042562,-0.021238,-0.058729,-0.25013,-0.20113,-0.0015062
1405,-0.029789,0.044864,-0.0093991,-0.06136,-0.24224,-0.19817,0.0096753
1406,-0.014332,0.04026,0.0011247,-0.059716,-0.23467,-0.19652,0.015924
1407,-0.0080836,0.028421,0.0080309,-0.053467,-0.22481,-0.18567,0.014608
1408,-0.011701,0.015266,0.0093464,-0.045246,-0.21691,-0.1643,0.010333
1409,-0.022225,0.0070443,0.0080309,-0.037353,-0.21757,-0.13568,0.0060577
1410,-0.032749,0.0021113,0.0057288,-0.031433,-0.23303,-0.11102,0.0037556
1411,-0.038011,0.0014536,0.0067154,-0.023869,-0.26394,-0.098193,0.0090175
1412,-0.032091,0.002769,0.011648,-0.016963,-0.29354,-0.091287,0.01987
1413,-0.018607,0.0044134,0.018555,-0.010057,-0.2919,-0.077803,0.034998
1414,-0.0038083,0.0044134,0.029407,-0.0015062,-0.22251,-0.053467,0.051113
1415,0.0037556,0.0060577,0.042233,0.013293,-0.074515,-0.021896,0.063938
1416,-0.00019077,0.010004,0.049468,0.032696,0.11195,0.0060577,0.071173
1417,-0.0077547,0.014937,0.048153,0.052428,0.28428,0.027434,0.074791
1418,-0.01203,0.016581,0.036642,0.066569,0.41221,0.042562,0.077093
1419,-0.0031506,0.012964,0.02283,0.070845,0.46976,0.053086,0.080053
1420,0.015266,0.0080309,0.016253,0.064267,0.44214,0.061965,0.081039
1421,0.034011,0.0047422,0.020528,0.049468,0.34315,0.071831,0.079724
1422,0.040918,0.0044134,0.026776,0.029078,0.21324,0.081697,0.073476
1423,0.033683,0.0080309,0.026776,0.010991,0.097812,0.091563,0.06065
1424,0.014279,0.01132,0.013622,-0.002164,0.021186,0.10176,0.047495
1425,-0.0077547,0.011977,-0.00051963,-0.0093991,-0.017621,0.11064,0.038944
1426,-0.022883,0.0073732,-0.007097,-0.011043,-0.034064,0.11787,0.037958
1427,-0.024856,0.0040845,-0.0038083,-0.011372,-0.037682,0.12083,0.041575
1428,-0.011701,0.0044134,0.0073732,-0.010057,-0.031433,0.11524,0.04618
1429,0.0034268,0.0057288,0.020199,-0.004466,-0.0038083,0.10472,0.048153
1430,0.014279,0.0073732,0.023817,0.0067154,0.064267,0.091892,0.047824
1431,0.023159,0.010333,0.017239,0.021186,0.182,0.084328,0.044864
1432,0.032038,0.0086887,0.0077021,0.037629,0.33723,0.08367,0.04322
1433,0.04026,0.0021113,0.0017824,0.050784,0.48094,0.090248,0.045851
1434,0.045522,-0.0038083,-0.0008485,0.054072,0.56184,0.099785,0.047824
1435,0.045851,-0.0061104,0.0014536,0.046508,0.55165,0.10538,0.04322
1436,0.042562,-0.0054526,0.0040845,0.032696,0.4543,0.10143,0.030394
1437,0.035985,-0.0024928,0.0044134,0.020528,0.30105,0.086959,0.013293
1438,0.027105,0.00079584,-0.00019077,0.010662,0.13333,0.064267,-0.0028217
1439,0.012635,0.0014536,-0.007097,0.0017824,-0.016634,0.041247,-0.014332
1440,-0.0015062,-0.00051963,-0.014332,-0.0041372,-0.12878,0.020199,-0.019265
1441,-0.013345,-0.0041372,-0.020252,-0.0077547,-0.1962,0.0001381,-0.019265
1442,-0.019923,-0.0074258,-0.021567,-0.0087413,-0.21856,-0.021238,-0.016963
1443,-0.019594,-0.011372,-0.01499,-0.0097279,-0.2031,-0.041957,-0.017621
1444,-0.013345,-0.01499,-0.0038083,-0.0084125,-0.15969,-0.06136,-0.020252
1445,-0.004466,-0.019265,0.0054,-0.004466,-0.10017,-0.069911,-0.022883
1446,0.002769,-0.023211,0.0086887,0.0017824,-0.038668,-0.06728,-0.024198
1447,0.0024402,-0.025185,0.0054,0.0093464,0.014279,-0.053138,-0.024527
1448,-0.0031506,-0.022554,-0.002164,0.020199,0.052757,-0.031762,-0.025514
1449,-0.0077547,-0.019594,-0.0084125,0.030394,0.088603,-0.0028217,-0.030118
1450,-0.0047949,-0.019594,-0.014003,0.03434,0.13859,0.026776,-0.034393
1451,0.0044134,-0.020581,-0.015648,0.033683,0.20568,0.048482,-0.033735
1452,0.015595,-0.017621,-0.014332,0.030065,0.26849,0.056703,-0.026171
1453,0.020199,-0.010057,-0.017292,0.023817,0.30072,0.05177,-0.014003
1454,0.01691,-0.0041372,-0.028473,0.016581,0.28691,0.034998,-0.004466
1455,0.0070443,-0.004466,-0.039326,0.0077021,0.23331,0.010991,-0.0011774
1456,-0.0064392,-0.011043,-0.044259,-0.0047949,0.15734,-0.015648,-0.0038083
1457,-0.018278,-0.019265,-0.042615,-0.019265,0.072489,-0.041628,-0.0087413
1458,-0.025842,-0.022554,-0.038011,-0.030775,-0.011701,-0.0584,-0.014003
1459,-0.024856,-0.020581,-0.034064,-0.036037,-0.086354,-0.06432,-0.016634
1460,-0.016634,-0.013017,-0.03242,-0.034722,-0.14095,-0.066293,-0.014661
1461,-0.007097,-0.004466,-0.036366,-0.031433,-0.16956,-0.068595,-0.012688
1462,0.0014536,0.0030979,-0.042944,-0.027487,-0.17153,-0.071555,-0.014003
1463,0.0047422,0.0080309,-0.046561,-0.024856,-0.15213,-0.073857,-0.014661
1464,0.002769,0.010662,-0.042615,-0.022883,-0.12615,-0.071884,-0.007097
1465,-0.0008485,0.011977,-0.03538,-0.022883,-0.10905,-0.065635,0.010004
1466,-0.0038083,0.011977,-0.03242,-0.0265,-0.11529,-0.059387,0.02579
1467,-0.002164,0.0077021,-0.02946,-0.029131,-0.14391,-0.055112,0.030394
1468,0.002769,0.0037556,-0.023869,-0.031762,-0.19126,-0.053138,0.02283
1469,0.010004,0.0050711,-0.015976,-0.03538,-0.25112,-0.052152,0.014608
1470,0.018226,0.0093464,-0.0097279,-0.040641,-0.31656,-0.052481,0.01132
1471,0.020528,0.014608,-0.0031506,-0.045574,-0.38628,-0.051494,0.014608
1472,0.015924,0.015595,0.0060577,-0.048863,-0.45008,-0.048534,0.020199
1473,0.0057288,0.011648,0.014937,-0.045903,-0.5004,-0.04097,0.023159
1474,-0.007097,0.0044134,0.015924,-0.033735,-0.52967,-0.028802,0.020199
1475,-0.016634,-0.0015062,0.0086887,-0.011701,-0.52408,-0.011043,0.01691
1476,-0.019594,-0.002164,-0.002164,0.013622,-0.47771,0.011977,0.014937
1477,-0.014332,0.0017824,-0.013017,0.03434,-0.39483,0.035656,0.016253
1478,-0.0047949,0.0060577,-0.020909,0.04618,-0.29058,0.050455,0.020528
1479,0.0083598,0.011977,-0.023869,0.05177,-0.18995,0.054072,0.023817
1480,0.019541,0.017239,-0.024198,0.053743,-0.11957,0.047495,0.027105
1481,0.022172,0.020528,-0.021567,0.052099,-0.087012,0.037629,0.033354
1482,0.019212,0.022501,-0.019923,0.047824,-0.085039,0.032367,0.04618
1483,0.012964,0.020528,-0.01795,0.042562,-0.099838,0.032367,0.063938
1484,0.0080309,0.013951,-0.011701,0.036642,-0.1074,0.032038,0.077093
1485,0.0077021,0.0050711,-0.0011774,0.030723,-0.075173,0.026776,0.083342
1486,0.012306,-0.0024928,0.0080309,0.029407,0.012306,0.017568,0.079395
1487,0.023817,-0.0061104,0.011648,0.032367,0.14155,0.0054,0.070845
1488,0.03434,-0.0051238,0.010333,0.040918,0.2731,-0.0041372,0.060979
1489,0.043549,0.0011247,0.0063866,0.051441,0.36025,-0.007097,0.049139
1490,0.046837,0.011977,0.002769,0.058019,0.37866,-0.0054526,0.03434
1491,0.044864,0.025461,-0.002164,0.05769,0.32473,-0.0067681,0.016581
1492,0.037958,0.034998,-0.0054526,0.052428,0.2241,-0.017292,0.0024402
1493,0.028092,0.038287,-0.0077547,0.042233,0.10932,-0.031433,-0.002164
1494,0.018226,0.034669,-0.01203,0.029078,0.012635,-0.039326,-0.0031506
1495,0.0096753,0.023159,-0.01499,0.013293,-0.044588,-0.040641,-0.0064392
1496,0.0040845,0.0050711,-0.010057,-0.00051963,-0.062676,-0.03538,-0.012359
1497,0.0037556,-0.015648,-0.0018351,-0.010386,-0.053138,-0.026171,-0.019594
1498,0.0060577,-0.03242,0.0021113,-0.015976,-0.031762,-0.01795,-0.029789
1499,0.0080309,-0.040313,0.00079584,-0.019265,-0.0024928,-0.01203,-0.039326
1500,0.0086887,-0.037682,-0.0047949,-0.025842,0.030394,-0.0077547,-0.047548
1501,0.0073732,-0.027816,-0.0090702,-0.037353,0.062623,-0.004466,-0.053796
1502,0.0040845,-0.016305,-0.011043,-0.045246,0.091234,-0.0051238,-0.058729
1503,-0.0011774,-0.0077547,-0.013017,-0.046561,0.11623,-0.007097,-0.063991
1504,-0.0077547,-0.0051238,-0.018278,-0.038997,0.13728,-0.011043,-0.066622
1505,-0.011043,-0.0067681,-0.024198,-0.028144,0.1524,-0.010057,-0.065307
1506,-0.013017,-0.0077547,-0.030118,-0.019265,0.15799,-0.002164,-0.060373
1507,-0.019594,-0.0057815,-0.031104,-0.013017,0.15405,0.012306,-0.051823
1508,-0.031104,-0.00019077,-0.027158,-0.011043,0.14616,0.029407,-0.044588
1509,-0.042944,0.010333,-0.018278,-0.011372,0.13366,0.042891,-0.038997
1510,-0.04689,0.024145,-0.0051238,-0.01203,0.11261,0.049139,-0.035708
1511,-0.046232,0.034669,0.0040845,-0.011701,0.081368,0.049797,-0.034722
1512,-0.043272,0.036971,0.0030979,-0.010057,0.046508,0.050784,-0.035708
1513,-0.036695,0.031709,-0.0051238,-0.0054526,0.014937,0.052757,-0.037682
1514,-0.027158,0.024803,-0.016305,-0.0011774,-0.010386,0.052757,-0.04097
1515,-0.018607,0.024145,-0.025514,0.0001381,-0.028144,0.047824,-0.042286
1516,-0.012359,0.027434,-0.025185,-0.0018351,-0.033735,0.035985,-0.037024
1517,-0.010715,0.032367,-0.015648,-0.0061104,-0.027158,0.019212,-0.022554
1518,-0.010057,0.039602,-0.0028217,-0.010386,-0.0074258,0.0057288,-0.007097
1519,-0.013674,0.050126,0.0070443,-0.012359,0.027434,0.0014536,0.0040845
1520,-0.01795,0.059992,0.010662,-0.011372,0.077751,0.0073732,0.010662
1521,-0.018607,0.064925,0.0083598,-0.0074258,0.14089,0.020528,0.015924
1522,-0.012359,0.065254,0.0086887,-0.0018351,0.20897,0.034669,0.020528
1523,-0.0024928,0.064925,0.018555,0.0017824,0.26553,0.049797,0.025461
1524,0.010662,0.060979,0.032038,0.00079584,0.29447,0.061636,0.029078
1525,0.020199,0.054401,0.041575,0.00046697,0.2879,0.065254,0.028092
1526,0.021514,0.04322,0.043549,0.00046697,0.24613,0.059005,0.026776
1527,0.01691,0.029407,0.037958,-0.004466,0.18858,0.047824,0.026119
1528,0.0034268,0.014937,0.026119,-0.016634,0.13234,0.033354,0.024803
1529,-0.014661,-0.0015062,0.013622,-0.030775,0.093865,0.019541,0.025461
1530,-0.031433,-0.017292,0.0014536,-0.041628,0.075778,0.0037556,0.021186
1531,-0.041299,-0.033406,-0.010386,-0.048863,0.0692,-0.016963,0.011648
1532,-0.043601,-0.046561,-0.021896,-0.053138,0.064925,-0.041299,-0.00051963
1533,-0.039655,-0.052481,-0.028473,-0.05281,0.061636,-0.064649,-0.012688
1534,-0.033406,-0.048205,-0.028802,-0.046232,0.059334,-0.078461,-0.019594
1535,-0.027487,-0.037353,-0.022225,-0.039655,0.060321,-0.079777,-0.022883
1536,-0.025842,-0.026829,-0.015648,-0.034722,0.062952,-0.071884,-0.022225
1537,-0.028144,-0.019923,-0.010386,-0.029789,0.065583,-0.062018,-0.014332
1538,-0.028802,-0.016305,-0.0061104,-0.024527,0.068543,-0.055769,-0.0090702
1539,-0.026171,-0.01499,-0.0008485,-0.019923,0.071831,-0.051823,-0.010386
1540,-0.023869,-0.019923,0.0001381,-0.016305,0.074133,-0.04985,-0.01203
1541,-0.024527,-0.030118,-0.0047949,-0.013674,0.076764,-0.049192,-0.0093991
1542,-0.027487,-0.038339,-0.014332,-0.013017,0.072818,-0.053796,-0.007097
1543,-0.031762,-0.043601,-0.02354,-0.010386,0.05473,-0.063991,-0.0084125
1544,-0.036037,-0.047219,-0.031762,-0.0057815,0.021514,-0.076159,-0.010715
1545,-0.038011,-0.051165,-0.038668,0.0037556,-0.020252,-0.083723,-0.0077547
1546,-0.040313,-0.050507,-0.041628,0.013951,-0.063333,-0.079777,-0.0015062
1547,-0.044259,-0.047219,-0.036695,0.020528,-0.099838,-0.06728,0.0044134
1548,-0.047548,-0.041299,-0.027158,0.021843,-0.12878,-0.049192,0.0090175
1549,-0.047877,-0.036037,-0.01499,0.025461,-0.15114,-0.028473,0.010991
1550,-0.039984,-0.030118,-0.0041372,0.033025,-0.17186,-0.0084125,0.010333
1551,-0.022225,-0.022225,0.0024402,0.044864,-0.18765,0.0040845,0.0050711
1552,0.002769,-0.0061104,0.0070443,0.059005,-0.19488,0.0060577,-0.0054526
1553,0.026119,0.010991,0.0096753,0.073147,-0.19554,0.0014536,-0.017292
1554,0.041247,0.020857,0.010333,0.084328,-0.19258,-0.0054526,-0.023211
1555,0.047166,0.018884,0.010991,0.086959,-0.18436,-0.0074258,-0.017621
1556,0.047495,0.0093464,0.01132,0.081697,-0.17087,-0.002164,-0.0067681
1557,0.047824,0.00079584,0.013293,0.069858,-0.15575,0.0054,0.0090175
1558,0.046837,-0.0015062,0.016253,0.056046,-0.14127,0.01132,0.027434
1559,0.041575,0.002769,0.017568,0.042233,-0.12976,0.015924,0.046508
1560,0.035985,0.0080309,0.017568,0.028092,-0.11727,0.018555,0.060979
1561,0.031709,0.0090175,0.018555,0.01691,-0.10082,0.016253,0.067556
1562,0.026447,0.010333,0.021843,0.014937,-0.082079,0.010991,0.067556
1563,0.018884,0.014937,0.027105,0.02283,-0.06728,0.0030979,0.06624
1564,0.012306,0.016581,0.028421,0.039273,-0.062676,-0.0051238,0.064596
1565,0.0060577,0.011648,0.027763,0.053415,-0.070897,-0.014661,0.061636
1566,0.0057288,0.0030979,0.023159,0.05769,-0.088985,-0.023869,0.061636
1567,0.0073732,-0.0041372,0.015924,0.051113,-0.11036,-0.031433,0.064596
1568,0.012635,-0.0077547,0.0077021,0.039931,-0.12812,-0.03242,0.070187
1569,0.016253,-0.0064392,0.0011247,0.032696,-0.13832,-0.026171,0.079395
1570,0.011648,-0.0054526,-0.00051963,0.033683,-0.13897,-0.014003,0.087288
1571,0.0001381,-0.011372,0.0001381,0.042891,-0.13404,-0.0015062,0.087946
1572,-0.014661,-0.019265,0.0024402,0.057361,-0.12253,0.011977,0.079395
1573,-0.021567,-0.024856,0.0057288,0.071502,-0.10313,0.026119,0.063938
1574,-0.021238,-0.021896,0.010004,0.080711,-0.083394,0.037958,0.045193
1575,-0.014003,-0.010386,0.010333,0.07808,-0.073528,0.046837,0.028421
1576,-0.0054526,0.00079584,0.0080309,0.067227,-0.073199,0.050784,0.015266
1577,0.0037556,0.0080309,0.0054,0.050784,-0.078132,0.049139,0.0034268
1578,0.010333,0.0093464,0.0047422,0.032038,-0.084381,0.040589,-0.0084125
1579,0.018226,0.0024402,0.0070443,0.015595,-0.086683,0.026447,-0.020252
1580,0.027434,-0.0077547,0.011977,0.0054,-0.080434,0.0086887,-0.028473
1581,0.030065,-0.017621,0.01691,0.0037556,-0.066622,-0.0093991,-0.036366
1582,0.021843,-0.021567,0.018884,0.0060577,-0.04985,-0.027487,-0.045246
1583,0.0063866,-0.017621,0.019541,0.0044134,-0.03538,-0.042286,-0.052152
1584,-0.010715,-0.0077547,0.01691,-0.0067681,-0.024527,-0.050836,-0.054454
1585,-0.025514,0.0001381,0.0093464,-0.026171,-0.013017,-0.053138,-0.050836
1586,-0.035708,0.0040845,-0.00051963,-0.048205,0.0001381,-0.053796,-0.04985
1587,-0.038997,0.0030979,-0.0067681,-0.06432,0.014608,-0.055112,-0.054125
1588,-0.040313,0.0014536,-0.010057,-0.070568,0.023488,-0.057743,-0.058729
1589,-0.038668,0.0044134,-0.011043,-0.069253,0.026776,-0.062347,-0.0584
1590,-0.038997,0.012306,-0.011043,-0.066622,0.024474,-0.069253,-0.050836
1591,-0.044588,0.023159,-0.012359,-0.068266,0.022172,-0.076488,-0.042615
1592,-0.052481,0.032038,-0.014003,-0.068595,0.024145,-0.078132,-0.041957
1593,-0.058729,0.035985,-0.015976,-0.065635,0.029736,-0.069582,-0.052481
1594,-0.059716,0.031381,-0.016963,-0.061689,0.035327,-0.053467,-0.070568
1595,-0.055112,0.021514,-0.017292,-0.062347,0.039931,-0.035051,-0.087669
1596,-0.046561,0.0096753,-0.019594,-0.067609,0.036314,-0.021238,-0.094576
1597,-0.038339,-0.0015062,-0.024198,-0.071226,0.026447,-0.014332,-0.089643
1598,-0.031104,-0.010386,-0.028802,-0.069582,0.0096753,-0.015319,-0.07583
1599,-0.022554,-0.013345,-0.032749,-0.062676,-0.011043,-0.023211,-0.057414
1600,-0.013017,-0.011043,-0.036695,-0.052481,-0.033078,-0.034064,-0.040313
1601,-0.0041372,-0.007097,-0.042615,-0.041628,-0.048534,-0.044588,-0.025842
1602,0.0047422,-0.004466,-0.046232,-0.032749,-0.057743,-0.050836,-0.012359
1603,0.013293,-0.0034794,-0.046232,-0.024527,-0.063991,-0.048534,-0.00051963
1604,0.01987,-0.0018351,-0.040313,-0.020252,-0.070897,-0.038011,0.012306
1605,0.022501,0.0021113,-0.033078,-0.021238,-0.079119,-0.02354,0.023817
1606,0.021186,0.0080309,-0.030118,-0.022554,-0.084381,-0.011372,0.030723
1607,0.016253,0.013951,-0.034064,-0.024527,-0.078461,-0.0024928,0.035985
1608,0.010333,0.021186,-0.039655,-0.02946,-0.061689,0.0011247,0.040918
1609,0.0050711,0.026447,-0.040313,-0.034064,-0.038668,-0.00019077,0.044864
1610,0.0030979,0.024474,-0.036695,-0.036366,-0.012359,-0.0087413,0.045193
1611,0.0054,0.013293,-0.032091,-0.036695,0.013293,-0.022225,0.041247
1612,0.0077021,0.0021113,-0.030118,-0.034393,0.04026,-0.035051,0.034998
1613,0.0060577,-0.004466,-0.028473,-0.027158,0.072818,-0.04097,0.032038
1614,0.0060577,-0.0038083,-0.024527,-0.014332,0.10834,-0.039326,0.032038
1615,0.0090175,0.0014536,-0.01795,-0.00019077,0.13859,-0.031433,0.030723
1616,0.015266,0.0080309,-0.013017,0.0090175,0.15175,-0.022554,0.027763
1617,0.01987,0.010004,-0.0077547,0.012306,0.14681,-0.011701,0.025461
1618,0.018555,0.0090175,-0.0064392,0.014937,0.13037,0.0024402,0.028421
1619,0.016253,0.01132,-0.0097279,0.016253,0.1113,0.024474,0.039931
1620,0.021843,0.020857,-0.014661,0.017239,0.096167,0.051113,0.05473
1621,0.030394,0.029078,-0.020252,0.014937,0.087946,0.075449,0.062294
1622,0.039273,0.029736,-0.026829,0.010004,0.084328,0.092221,0.05769
1623,0.04322,0.025461,-0.031104,0.0037556,0.082026,0.099785,0.048482
1624,0.044206,0.017568,-0.031433,-0.002164,0.076435,0.10143,0.043877
1625,0.042233,0.0096753,-0.027487,-0.0051238,0.06361,0.1034,0.044535
1626,0.039602,0.0054,-0.018278,-0.0028217,0.042562,0.11031,0.049797
1627,0.0373,0.0054,-0.010386,0.0054,0.017897,0.12313,0.059334
1628,0.03434,0.0054,-0.007097,0.017239,-0.0054526,0.13793,0.070187
1629,0.036314,-0.0008485,-0.0054526,0.032038,-0.024527,0.15339,0.079724
1630,0.04026,-0.01203,-0.00019077,0.04322,-0.041957,0.17279,0.085315
1631,0.042891,-0.022883,0.0060577,0.04881,-0.059716,0.1922,0.090577
1632,0.038287,-0.028473,0.011977,0.050126,-0.077146,0.20305,0.095181
1633,0.031381,-0.02354,0.018226,0.050126,-0.091287,0.20502,0.097483
1634,0.02579,-0.01203,0.025461,0.050455,-0.097207,0.19976,0.094194
1635,0.022501,0.0067154,0.027434,0.051441,-0.092603,0.19351,0.084986
1636,0.021514,0.027105,0.021843,0.05473,-0.078132,0.19022,0.070845
1637,0.022172,0.044535,0.015266,0.058676,-0.05281,0.18989,0.055059
1638,0.021514,0.054401,0.010004,0.059992,-0.015976,0.18463,0.041247
1639,0.016253,0.052428,0.0050711,0.059992,0.026119,0.17016,0.033354
1640,0.0073732,0.042562,-0.0008485,0.056703,0.063281,0.14714,0.032367
1641,-0.0051238,0.034011,-0.007097,0.053415,0.086959,0.11327,0.040918
1642,-0.016963,0.034998,-0.014003,0.045193,0.092221,0.076435,0.050784
1643,-0.025842,0.042233,-0.017621,0.034011,0.076106,0.040918,0.05473
1644,-0.033735,0.047495,-0.014332,0.022501,0.042562,0.0096753,0.047495
1645,-0.041957,0.045851,-0.0061104,0.013951,-0.0015062,-0.016963,0.032367
1646,-0.047548,0.035656,-0.00051963,0.0093464,-0.055112,-0.040313,0.014608
1647,-0.048205,0.020528,-0.002164,0.0057288,-0.11299,-0.06136,-0.00051963
1648,-0.04689,0.0067154,-0.0064392,-0.00051963,-0.15476,-0.077475,-0.0093991
1649,-0.041628,-0.0011774,-0.01203,-0.0074258,-0.15772,-0.088327,-0.015648
1650,-0.035051,-0.0011774,-0.01203,-0.010057,-0.097536,-0.095891,-0.024856
1651,-0.030447,0.0001381,-0.0077547,-0.0047949,0.044864,-0.098851,-0.038668
1652,-0.028144,-0.0018351,0.00046697,0.010004,0.25797,-0.1005,-0.057414
1653,-0.027487,-0.0008485,0.0086887,0.030394,0.48423,-0.10477,-0.070897
1654,-0.028802,0.0063866,0.013293,0.046837,0.65787,-0.11168,-0.076488
1655,-0.033735,0.015924,0.012306,0.059334,0.74897,-0.11266,-0.075501
1656,-0.043272,0.021843,0.0080309,0.067556,0.74732,-0.10905,-0.069911
1657,-0.053467,0.02283,0.0086887,0.071173,0.65557,-0.10477,-0.064978
1658,-0.061689,0.018884,0.0096753,0.063938,0.48653,-0.10609,-0.06432
1659,-0.06728,0.0093464,0.0063866,0.045851,0.27244,-0.11332,-0.066293
1660,-0.070568,-0.002164,-0.0008485,0.021186,0.049139,-0.12483,-0.068595
1661,-0.07287,-0.011701,-0.0087413,-0.0008485,-0.14522,-0.1347,-0.069582
1662,-0.077146,-0.01499,-0.017621,-0.011043,-0.284,-0.13799,-0.068266
1663,-0.080763,-0.012688,-0.023869,-0.0087413,-0.35899,-0.13272,-0.063333
1664,-0.083394,-0.0084125,-0.025185,-0.0015062,-0.37543,-0.12615,-0.062018
1665,-0.080106,-0.007097,-0.017292,0.0024402,-0.34715,-0.1199,-0.06432
1666,-0.074186,-0.012688,-0.0064392,-0.0008485,-0.28302,-0.11398,-0.065635
1667,-0.066951,-0.022883,0.0017824,-0.0093991,-0.18469,-0.10641,-0.063004
1668,-0.060702,-0.028802,0.002769,-0.018607,-0.058729,-0.09918,-0.057743
1669,-0.053796,-0.028144,0.00079584,-0.0265,0.076435,-0.093589,-0.051494
1670,-0.04689,-0.023869,-0.0028217,-0.032749,0.18661,-0.093589,-0.04689
1671,-0.038011,-0.017621,-0.0080836,-0.037024,0.2458,-0.098851,-0.044259
1672,-0.030118,-0.0080836,-0.012688,-0.04097,0.24843,-0.10543,-0.046561
1673,-0.020581,0.0021113,-0.015648,-0.042944,0.20502,-0.10576,-0.050836
1674,-0.0057815,0.010333,-0.019594,-0.040641,0.13793,-0.094247,-0.049521
1675,0.0096753,0.010662,-0.025185,-0.03538,0.06624,-0.078132,-0.045246
1676,0.022172,0.0024402,-0.029789,-0.027816,0.00079584,-0.065307,-0.039326
1677,0.031052,-0.0047949,-0.031104,-0.021896,-0.050179,-0.06136,-0.033735
1678,0.035656,-0.002164,-0.024198,-0.023211,-0.085367,-0.062676,-0.026171
1679,0.035327,0.0073732,-0.013674,-0.026171,-0.11135,-0.06432,-0.017621
1680,0.035656,0.014937,-0.007097,-0.0265,-0.13141,-0.063004,-0.012359
1681,0.040589,0.018226,-0.0090702,-0.023869,-0.14588,-0.058071,-0.0080836
1682,0.046837,0.019541,-0.016305,-0.023211,-0.15805,-0.051823,-0.0018351
1683,0.047824,0.023159,-0.02354,-0.024198,-0.17087,-0.046561,0.0096753
1684,0.044535,0.02579,-0.030775,-0.022883,-0.18567,-0.04097,0.021514
1685,0.036971,0.022501,-0.03538,-0.018278,-0.20014,-0.032749,0.028421
1686,0.025461,0.010333,-0.034393,-0.0077547,-0.21297,-0.023211,0.028092
1687,0.01132,-0.0064392,-0.025842,0.0024402,-0.22218,-0.013345,0.023159
1688,-0.0034794,-0.021896,-0.012688,0.0077021,-0.22974,-0.0064392,0.01691
