,channel_1,channel_2,channel_3,channel_4,channel_5,channel_6,channel_7
0,0.013622,-0.010386,-0.037024,-0.010386,-0.049192,-0.076488,-0.069911
1,0.00079584,-0.0067681,-0.029789,-0.014332,-0.054783,-0.075173,-0.069911
2,-0.014332,-0.0084125,-0.021896,-0.014003,-0.057743,-0.072542,-0.068266
3,-0.027158,-0.011701,-0.013017,-0.011043,-0.060045,-0.072213,-0.065964
4,-0.033735,-0.016305,-0.002164,-0.0087413,-0.061689,-0.075173,-0.063991
5,-0.034064,-0.018278,0.0093464,-0.013017,-0.06136,-0.076817,-0.062347
6,-0.031433,-0.018936,0.018555,-0.017621,-0.054783,-0.072213,-0.059058
7,-0.030118,-0.018278,0.02283,-0.017292,-0.044917,-0.062347,-0.05281
8,-0.028473,-0.016305,0.023159,-0.0087413,-0.033406,-0.049192,-0.047548
9,-0.024527,-0.010057,0.020199,0.002769,-0.024856,-0.035708,-0.045903
10,-0.01795,-0.0011774,0.012306,0.013293,-0.022883,-0.027487,-0.047877
11,-0.0087413,0.0063866,0.002769,0.016253,-0.026829,-0.023211,-0.049192
12,0.0024402,0.0080309,-0.0064392,0.012635,-0.028802,-0.022225,-0.048863
13,0.013293,0.0001381,-0.010386,0.0070443,-0.028473,-0.021238,-0.045574
14,0.023488,-0.012359,-0.010386,0.0063866,-0.029789,-0.017621,-0.039326
15,0.035985,-0.022883,-0.0093991,0.016581,-0.035708,-0.0064392,-0.029789
16,0.044206,-0.022883,-0.0090702,0.033683,-0.04689,0.0086887,-0.020909
17,0.041247,-0.013017,-0.0093991,0.049139,-0.059716,0.021186,-0.015648
18,0.028421,0.0024402,-0.010386,0.053415,-0.066951,0.022501,-0.018607
19,0.0096753,0.017568,-0.010057,0.047495,-0.063991,0.011977,-0.02946
20,-0.0077547,0.028092,-0.0067681,0.037958,-0.052481,-0.0034794,-0.040313
21,-0.018278,0.032367,-0.0008485,0.028092,-0.037353,-0.018278,-0.046232
22,-0.019923,0.030723,0.0047422,0.018555,-0.026171,-0.030447,-0.048205
23,-0.017621,0.02579,0.0040845,0.0090175,-0.018607,-0.038997,-0.045574
24,-0.013017,0.022172,-0.0038083,-0.0008485,-0.01499,-0.041957,-0.039326
25,-0.01203,0.019541,-0.014661,-0.012688,-0.011372,-0.040313,-0.031104
26,-0.015648,0.017239,-0.020252,-0.024198,-0.0093991,-0.03538,-0.0265
27,-0.020581,0.012306,-0.016305,-0.029789,-0.0077547,-0.027816,-0.023211
28,-0.024198,0.0044134,-0.0064392,-0.03242,-0.0064392,-0.021238,-0.016634
29,-0.027487,-0.0041372,0.00046697,-0.031104,-0.0054526,-0.021238,-0.0097279
30,-0.029789,-0.012359,0.002769,-0.027487,-0.0097279,-0.027816,-0.0047949
31,-0.033735,-0.018936,0.0034268,-0.025842,-0.015648,-0.03538,-0.0015062
32,-0.038339,-0.022554,0.0040845,-0.028144,-0.020909,-0.039984,-0.00019077
33,-0.042944,-0.025842,0.0090175,-0.028473,-0.022554,-0.041299,0.0017824
34,-0.045246,-0.026829,0.018226,-0.0265,-0.018936,-0.040641,0.0070443
35,-0.043272,-0.026171,0.026119,-0.018278,-0.013017,-0.038997,0.016253
36,-0.038997,-0.024856,0.023817,-0.0074258,-0.0074258,-0.040313,0.021843
37,-0.033078,-0.021567,0.0096753,0.00046697,-0.0054526,-0.04393,0.020857
38,-0.029131,-0.01795,-0.011701,0.0021113,-0.0038083,-0.046561,0.010662
39,-0.032749,-0.01499,-0.029131,-0.0028217,-0.004466,-0.04689,-0.004466
40,-0.04393,-0.013345,-0.037353,-0.012688,-0.0074258,-0.040641,-0.016634
41,-0.060373,-0.011043,-0.036037,-0.020252,-0.010715,-0.034064,-0.023869
42,-0.077475,-0.010057,-0.032749,-0.024198,-0.010386,-0.029789,-0.0265
43,-0.088327,-0.013017,-0.02946,-0.024856,-0.0087413,-0.028802,-0.026171
44,-0.087341,-0.015976,-0.02946,-0.024856,-0.0034794,-0.032091,-0.025842
45,-0.076817,-0.016634,-0.030118,-0.026171,-0.0047949,-0.038339,-0.029131
46,-0.065307,-0.012359,-0.026171,-0.025514,-0.019265,-0.043272,-0.034064
47,-0.057414,-0.0028217,-0.01499,-0.019923,-0.044259,-0.042615,-0.035051
48,-0.05544,0.011648,0.0030979,-0.0077547,-0.07287,-0.033078,-0.026171
49,-0.060702,0.02283,0.021843,0.0083598,-0.091945,-0.01795,-0.0084125
50,-0.07024,0.02283,0.031052,0.024803,-0.099838,-0.0057815,0.010991
51,-0.074844,0.01691,0.02875,0.039273,-0.092931,-0.0031506,0.02283
52,-0.073857,0.010004,0.019212,0.045522,-0.067937,-0.0061104,0.028092
53,-0.066293,0.0054,0.011977,0.042562,-0.027487,-0.0093991,0.025461
54,-0.055769,0.0054,0.0096753,0.030723,0.017568,-0.0061104,0.019541
55,-0.043601,0.0077021,0.012635,0.018884,0.066898,0.0030979,0.012964
56,-0.029789,0.0093464,0.014279,0.011977,0.12675,0.017568,0.0086887
57,-0.013345,0.012635,0.014279,0.013951,0.19647,0.032696,0.0047422
58,0.0024402,0.015266,0.014279,0.01987,0.27211,0.04618,0.0017824
59,0.015266,0.014937,0.012635,0.02875,0.34479,0.054072,0.0011247
60,0.021186,0.011977,0.0086887,0.038287,0.41056,0.055388,0.0037556
61,0.023817,0.0096753,0.0024402,0.045193,0.45661,0.054072,0.0096753
62,0.025461,0.0090175,-0.0054526,0.04618,0.46549,0.054401,0.018884
63,0.032367,0.0077021,-0.0090702,0.042562,0.42503,0.05769,0.027105
64,0.043549,0.0024402,-0.0051238,0.034669,0.34348,0.059663,0.029407
65,0.052428,-0.0024928,0.0054,0.021186,0.24482,0.056046,0.024474
66,0.05473,-0.0064392,0.012635,0.0057288,0.15635,0.043877,0.016581
67,0.05177,-0.0047949,0.012635,-0.0067681,0.08959,0.024474,0.014279
68,0.04618,-0.0018351,0.0037556,-0.013674,0.04322,0.0021113,0.019541
69,0.043877,0.0044134,-0.0097279,-0.015648,0.01132,-0.019594,0.029736
70,0.046508,0.010991,-0.021567,-0.014332,-0.013674,-0.033735,0.041575
71,0.053415,0.014937,-0.026171,-0.011372,-0.036366,-0.040641,0.054401
72,0.062623,0.016253,-0.024198,-0.012359,-0.055769,-0.04393,0.06065
73,0.0692,0.014279,-0.016634,-0.011701,-0.071884,-0.046561,0.059992
74,0.073804,0.010333,-0.0041372,-0.007097,-0.084052,-0.046561,0.056703
75,0.077422,0.0090175,0.0083598,-0.0024928,-0.093589,-0.039326,0.05473
76,0.076435,0.0093464,0.011977,-0.0015062,-0.10247,-0.027487,0.058348
77,0.068543,0.011977,0.0093464,-0.0061104,-0.11069,-0.01203,0.068543
78,0.055388,0.015266,0.0021113,-0.0080836,-0.11694,0.0050711,0.081697
79,0.040918,0.016253,-0.0034794,-0.0024928,-0.12023,0.017897,0.088275
80,0.032696,0.013622,-0.0054526,0.0093464,-0.12154,0.024474,0.08367
81,0.032367,0.0077021,-0.0015062,0.015924,-0.11957,0.025132,0.069529
82,0.033025,-0.0028217,0.0037556,0.013293,-0.11858,0.024145,0.050455
83,0.029736,-0.011701,0.0073732,0.0057288,-0.11891,0.021843,0.035327
84,0.022501,-0.01499,0.0070443,0.0047422,-0.12384,0.023817,0.027105
85,0.015924,-0.012359,0.0057288,0.012635,-0.12812,0.031709,0.026776
86,0.012306,-0.0074258,0.0070443,0.022501,-0.13108,0.038616,0.031381
87,0.013622,-0.0038083,0.010004,0.02875,-0.12878,0.040918,0.035985
88,0.018226,-0.004466,0.014279,0.028092,-0.12286,0.041247,0.036642
89,0.01987,-0.0061104,0.018226,0.020528,-0.11168,0.041247,0.035327
90,0.013622,-0.0061104,0.020528,0.012306,-0.10181,0.042233,0.032696
91,0.0024402,-0.0051238,0.01987,0.010333,-0.095891,0.044535,0.029078
92,-0.010386,-0.0038083,0.017897,0.013951,-0.091616,0.047166,0.026776
93,-0.021238,-0.0018351,0.014937,0.018884,-0.089972,0.047166,0.025461
94,-0.0265,0.0040845,0.0093464,0.023159,-0.091945,0.04322,0.023488
95,-0.026829,0.013951,-0.0011774,0.018884,-0.094576,0.036971,0.022172
96,-0.022225,0.023817,-0.012359,0.0083598,-0.092603,0.034669,0.021843
97,-0.016963,0.027763,-0.018607,-0.0051238,-0.085696,0.036314,0.02283
98,-0.011372,0.025132,-0.019265,-0.015319,-0.078132,0.04026,0.025132
99,-0.0090702,0.021843,-0.018936,-0.01795,-0.068595,0.038944,0.024803
100,-0.011043,0.01987,-0.021238,-0.01499,-0.060373,0.029407,0.016581
101,-0.016634,0.014608,-0.02354,-0.0061104,-0.054125,0.011977,0.002769
102,-0.024198,0.01132,-0.023869,0.0090175,-0.048534,-0.0074258,-0.013017
103,-0.031104,0.010991,-0.021238,0.026447,-0.044917,-0.030775,-0.028144
104,-0.03538,0.013293,-0.017292,0.04026,-0.041628,-0.05544,-0.037353
105,-0.038997,0.014608,-0.010057,0.04881,-0.039984,-0.079777,-0.03538
106,-0.038668,0.012964,-0.0051238,0.053415,-0.043601,-0.097207,-0.027158
107,-0.031433,0.0077021,-0.0051238,0.050455,-0.049521,-0.10444,-0.015319
108,-0.017621,0.0037556,-0.0074258,0.040918,-0.056756,-0.10378,-0.0038083
109,-0.0028217,0.00079584,-0.010057,0.028421,-0.063991,-0.10017,0.0057288
110,0.0067154,-0.002164,-0.0087413,0.010662,-0.066622,-0.097536,0.010333
111,0.0030979,-0.0061104,-0.007097,-0.010057,-0.067609,-0.092274,0.0077021
112,-0.0064392,-0.0093991,-0.0064392,-0.028802,-0.068595,-0.083065,-0.0018351
113,-0.01203,-0.010715,-0.010715,-0.041957,-0.067937,-0.071555,-0.014661
114,-0.011372,-0.010715,-0.019265,-0.04689,-0.066622,-0.0584,-0.025514
115,-0.007097,-0.012359,-0.024198,-0.041299,-0.06728,-0.046561,-0.031433
116,-0.0051238,-0.019594,-0.019923,-0.02946,-0.071884,-0.039655,-0.032749
117,-0.007097,-0.024527,-0.012688,-0.01795,-0.077146,-0.039326,-0.02946
118,-0.0084125,-0.024527,-0.0097279,-0.0093991,-0.079448,-0.042286,-0.025842
119,-0.011372,-0.019923,-0.013345,-0.002164,-0.077146,-0.047219,-0.023869
120,-0.012688,-0.01203,-0.019594,-0.00051963,-0.073199,-0.051165,-0.020252
121,-0.011043,-0.0024928,-0.026829,-0.0054526,-0.070568,-0.049521,-0.012688
122,-0.0057815,0.00079584,-0.038997,-0.011043,-0.06728,-0.042944,-0.0077547
123,-0.00051963,0.0001381,-0.050179,-0.012359,-0.063004,-0.03538,-0.0080836
124,0.0060577,-0.0034794,-0.053467,-0.0067681,-0.058729,-0.028473,-0.01499
125,0.014937,-0.0057815,-0.045903,-0.0018351,-0.050507,-0.022883,-0.022883
126,0.026447,-0.0064392,-0.029789,-0.0031506,-0.039326,-0.021896,-0.026171
127,0.034011,-0.0064392,-0.0084125,-0.0087413,-0.026829,-0.022554,-0.026829
128,0.03434,-0.0077547,0.01132,-0.013017,-0.014332,-0.023869,-0.028473
129,0.026119,-0.0077547,0.025461,-0.016305,-0.00019077,-0.015976,-0.035708
130,0.017568,-0.0057815,0.027763,-0.018936,0.017239,-0.0031506,-0.04985
131,0.011648,-0.007097,0.019541,-0.021896,0.039602,0.011648,-0.065635
132,0.0096753,-0.014332,0.0060577,-0.022554,0.063281,0.027105,-0.075173
133,0.010991,-0.02354,-0.0061104,-0.017292,0.086959,0.037629,-0.074515
134,0.012635,-0.027816,-0.016963,-0.0061104,0.11162,0.040918,-0.065635
135,0.012635,-0.025842,-0.023211,0.0044134,0.13399,0.033025,-0.056756
136,0.0083598,-0.017292,-0.025842,0.012635,0.15142,0.018884,-0.050836
137,0.002769,-0.0084125,-0.024198,0.017568,0.16654,0.0086887,-0.044259
138,0.002769,-0.0057815,-0.01795,0.017897,0.17838,0.0060577,-0.031433
139,0.0050711,-0.010715,-0.010386,0.015266,0.18102,0.012635,-0.010386
140,0.0047422,-0.020909,-0.004466,0.0073732,0.17049,0.020528,0.015924
141,0.0017824,-0.031433,-0.00051963,-0.0054526,0.14451,0.026447,0.041247
142,-0.0024928,-0.036037,0.002769,-0.020252,0.10538,0.031052,0.062294
143,-0.01203,-0.033735,0.0063866,-0.033078,0.06361,0.034998,0.079066
144,-0.024856,-0.02946,0.0093464,-0.039655,0.030065,0.039931,0.093208
145,-0.036695,-0.0265,0.0080309,-0.038997,0.0070443,0.045193,0.10143
146,-0.046232,-0.025842,-0.00019077,-0.032091,-0.0080836,0.048482,0.10406
147,-0.051823,-0.024198,-0.014332,-0.020581,-0.015976,0.04618,0.10176
148,-0.051823,-0.021567,-0.027158,-0.012359,-0.017621,0.037629,0.093208
149,-0.048534,-0.019265,-0.033735,-0.0074258,-0.019594,0.029407,0.081697
150,-0.04393,-0.018936,-0.035708,-0.0038083,-0.024856,0.023817,0.071831
151,-0.04097,-0.022225,-0.036037,0.0014536,-0.033078,0.023159,0.064925
152,-0.038668,-0.026829,-0.034064,0.0054,-0.042286,0.026776,0.062623
153,-0.035051,-0.032091,-0.03242,0.0063866,-0.050836,0.029407,0.060321
154,-0.032749,-0.034722,-0.028144,0.0037556,-0.058729,0.030065,0.053743
155,-0.031433,-0.03242,-0.028144,-0.0034794,-0.063662,0.029736,0.042562
156,-0.033735,-0.026829,-0.031433,-0.012359,-0.065635,0.025461,0.030723
157,-0.037353,-0.017292,-0.036037,-0.020909,-0.065635,0.018555,0.021514
158,-0.038011,-0.0051238,-0.038668,-0.023869,-0.063991,0.010991,0.013293
159,-0.035708,0.0077021,-0.036695,-0.020581,-0.062347,0.0086887,0.0050711
160,-0.03242,0.019212,-0.032091,-0.01499,-0.060702,0.010662,-0.0028217
161,-0.033406,0.028092,-0.025842,-0.010386,-0.060373,0.013951,-0.0084125
162,-0.036037,0.031052,-0.020252,-0.0097279,-0.060702,0.013951,-0.011372
163,-0.034064,0.025461,-0.01795,-0.010715,-0.054454,0.014279,-0.014332
164,-0.025514,0.014608,-0.017292,-0.010057,-0.041299,0.016581,-0.013674
165,-0.011701,0.0063866,-0.015976,-0.0054526,-0.022225,0.023488,-0.010715
166,0.0011247,0.002769,-0.01203,0.0054,-0.0047949,0.027105,-0.0051238
167,0.01132,0.0034268,-0.0028217,0.017568,0.0057288,0.027434,-0.0008485
168,0.018226,0.0057288,0.0073732,0.026119,0.0086887,0.022172,-0.0024928
169,0.020199,0.0073732,0.015266,0.02579,0.0070443,0.01691,-0.010386
170,0.017897,0.0090175,0.016253,0.019212,0.0054,0.013293,-0.020909
171,0.012964,0.0083598,0.0083598,0.013622,0.0083598,0.012964,-0.024527
172,0.0086887,0.0070443,-0.00019077,0.011977,0.015924,0.015266,-0.01795
173,0.0037556,0.002769,-0.0061104,0.015266,0.028092,0.020528,-0.004466
174,-0.0034794,-0.0028217,-0.0054526,0.016253,0.038616,0.028421,0.012306
175,-0.0097279,-0.0074258,-0.0067681,0.010991,0.04322,0.036642,0.025132
176,-0.0074258,-0.0064392,-0.007097,0.00079584,0.038944,0.038287,0.026776
177,0.0054,0.0001381,-0.0061104,-0.013674,0.029078,0.032038,0.020199
178,0.02283,0.012306,0.002769,-0.027487,0.019212,0.025132,0.010991
179,0.034998,0.020857,0.017568,-0.038011,0.0080309,0.019541,0.0054
180,0.039931,0.022172,0.02875,-0.042615,-0.0061104,0.015266,0.0034268
181,0.039931,0.017897,0.031709,-0.038668,-0.018278,0.0073732,0.0044134
182,0.038287,0.01132,0.020857,-0.030118,-0.023211,-0.0057815,0.0093464
183,0.03434,0.0034268,0.0021113,-0.022225,-0.018278,-0.023211,0.015924
184,0.027763,-0.0051238,-0.016634,-0.017292,-0.0087413,-0.043272,0.022501
185,0.020857,-0.010386,-0.031762,-0.014332,-0.0024928,-0.062347,0.024803
186,0.018555,-0.011701,-0.039984,-0.015648,0.00079584,-0.077803,0.02579
187,0.020528,-0.010386,-0.041628,-0.019265,0.0073732,-0.086683,0.02579
188,0.018555,-0.010386,-0.03242,-0.02354,0.014608,-0.087669,0.029407
189,0.010004,-0.0087413,-0.013345,-0.023869,0.024145,-0.080106,0.037629
190,0.0021113,-0.00051963,0.0090175,-0.015648,0.033683,-0.064649,0.045193
191,-0.0011774,0.014608,0.026447,0.002769,0.041575,-0.042615,0.051441
192,0.0017824,0.02579,0.033354,0.026119,0.045522,-0.018278,0.051441
193,0.0054,0.030723,0.030394,0.049139,0.046837,0.0011247,0.047166
194,0.0070443,0.029407,0.024145,0.06624,0.044864,0.014937,0.041247
195,0.0054,0.027763,0.021514,0.074791,0.041904,0.021186,0.033683
196,0.0050711,0.025461,0.023817,0.07512,0.038287,0.019541,0.026119
197,0.0083598,0.024145,0.026447,0.070516,0.031052,0.014608,0.021514
198,0.015595,0.02283,0.026119,0.067556,0.02283,0.012964,0.017897
199,0.023817,0.022172,0.018226,0.062952,0.016253,0.020199,0.014937
200,0.030065,0.021186,0.0077021,0.052428,0.014608,0.031381,0.012635
201,0.032038,0.01987,-0.0041372,0.038616,0.015924,0.041575,0.015924
202,0.031709,0.014608,-0.01499,0.028092,0.017897,0.04618,0.021514
203,0.032038,0.0096753,-0.01795,0.02579,0.015266,0.04322,0.026447
204,0.03434,0.0080309,-0.011372,0.029407,0.0093464,0.035985,0.028421
205,0.036971,0.0080309,-0.0018351,0.034011,0.0034268,0.027763,0.026447
206,0.035985,0.01132,0.002769,0.034011,-0.0018351,0.020199,0.023159
207,0.026119,0.014608,-0.0018351,0.029078,-0.007097,0.013293,0.013951
208,0.011977,0.019541,-0.010715,0.02283,-0.012359,0.0080309,-0.0028217
209,-0.0008485,0.026776,-0.016963,0.018884,-0.01795,0.0037556,-0.026171
210,-0.0064392,0.035656,-0.017621,0.015266,-0.02354,0.0040845,-0.048205
211,-0.0041372,0.040918,-0.013674,0.011977,-0.025514,0.0077021,-0.06432
212,0.0017824,0.039602,-0.0080836,0.0096753,-0.022554,0.012635,-0.072213
213,0.0067154,0.029407,-0.0011774,0.0063866,-0.015319,0.020199,-0.069253
214,0.0077021,0.014608,0.0044134,0.0054,-0.0047949,0.027105,-0.056098
215,0.0070443,0.0034268,0.0086887,0.0060577,0.0050711,0.030723,-0.037353
216,0.0073732,0.0011247,0.010991,0.0073732,0.013622,0.032696,-0.019923
217,0.0083598,0.0073732,0.01132,0.012306,0.020528,0.034998,-0.0090702
218,0.0044134,0.015266,0.010662,0.01691,0.02283,0.036971,-0.0093991
219,-0.007097,0.01691,0.0054,0.017897,0.02283,0.03434,-0.015648
220,-0.023211,0.015266,-0.0034794,0.013622,0.020199,0.022172,-0.021896
221,-0.037353,0.017239,-0.010057,0.0083598,0.016253,0.0030979,-0.022883
222,-0.043601,0.021843,-0.010386,0.0070443,0.014279,-0.017621,-0.018607
223,-0.04097,0.023817,-0.0080836,0.010333,0.017897,-0.031433,-0.0074258
224,-0.033735,0.023817,-0.0087413,0.018884,0.021843,-0.039984,0.0040845
225,-0.030775,0.020199,-0.014332,0.026447,0.02283,-0.044588,0.012306
226,-0.036366,0.010991,-0.021567,0.031709,0.020528,-0.04985,0.014937
227,-0.047877,0.0011247,-0.026171,0.034998,0.016253,-0.052481,0.010991
228,-0.057743,-0.0057815,-0.027816,0.034669,0.0086887,-0.052152,0.0083598
229,-0.060045,-0.011043,-0.030118,0.029407,0.0011247,-0.052481,0.0083598
230,-0.05544,-0.013674,-0.031762,0.018884,-0.0093991,-0.057414,0.0080309
231,-0.045246,-0.017292,-0.035708,0.0054,-0.020581,-0.065307,0.0047422
232,-0.035708,-0.019265,-0.039326,-0.0064392,-0.030775,-0.075501,0.00079584
233,-0.030118,-0.018278,-0.040641,-0.015319,-0.040313,-0.085039,-0.004466
234,-0.028144,-0.014003,-0.040313,-0.021896,-0.044917,-0.095562,-0.0087413
235,-0.024527,-0.010386,-0.036695,-0.024856,-0.045903,-0.10181,-0.013017
236,-0.021238,-0.0061104,-0.028802,-0.023211,-0.046232,-0.10148,-0.01795
237,-0.020252,-0.002164,-0.018936,-0.022225,-0.048534,-0.09622,-0.02354
238,-0.021567,-0.00019077,-0.0090702,-0.025185,-0.049192,-0.089643,-0.031762
239,-0.022883,-0.00051963,-0.0028217,-0.031104,-0.046561,-0.084381,-0.036366
240,-0.020252,-0.0015062,0.0011247,-0.036366,-0.04097,-0.079777,-0.037353
241,-0.012359,-0.0028217,0.0011247,-0.038011,-0.033735,-0.075173,-0.037353
242,-0.0041372,-0.0064392,-0.0031506,-0.038011,-0.030118,-0.067937,-0.038997
243,0.0014536,-0.013017,-0.0090702,-0.041628,-0.034064,-0.062676,-0.041957
244,0.0024402,-0.016963,-0.015319,-0.04985,-0.044917,-0.055112,-0.042286
245,-0.0015062,-0.015319,-0.019265,-0.056098,-0.0584,-0.046232,-0.038997
246,-0.0047949,-0.0080836,-0.020909,-0.055112,-0.069582,-0.040313,-0.03242
247,-0.0067681,0.0014536,-0.022225,-0.051165,-0.077803,-0.043601,-0.024856
248,-0.0074258,0.010662,-0.02354,-0.045903,-0.081092,-0.054783,-0.020909
249,-0.0080836,0.015266,-0.024198,-0.041957,-0.082408,-0.061689,-0.021238
250,-0.0093991,0.014608,-0.02354,-0.036037,-0.083723,-0.059387,-0.024527
251,-0.016305,0.0070443,-0.019923,-0.028802,-0.08471,-0.047877,-0.029131
252,-0.028473,-0.0041372,-0.015976,-0.021567,-0.083723,-0.033078,-0.031762
253,-0.039326,-0.013017,-0.0074258,-0.019265,-0.080763,-0.020581,-0.029789
254,-0.044917,-0.01795,0.00079584,-0.017621,-0.077803,-0.015648,-0.0265
255,-0.04393,-0.016963,0.0017824,-0.014332,-0.077146,-0.018278,-0.021567
256,-0.038668,-0.012688,-0.0034794,-0.013674,-0.07879,-0.021567,-0.016963
257,-0.029789,-0.0077547,-0.010715,-0.011043,-0.083394,-0.023211,-0.010715
258,-0.018278,-0.0031506,-0.013017,-0.0064392,-0.087998,-0.021238,-0.002164
259,-0.0093991,-0.00019077,-0.0090702,-0.0047949,-0.0903,-0.017292,0.0080309
260,-0.0038083,0.0037556,-0.0024928,-0.0061104,-0.089972,-0.012359,0.016581
261,-0.0041372,0.0070443,0.0073732,-0.010057,-0.087669,-0.0064392,0.020199
262,-0.011043,0.011648,0.015595,-0.012359,-0.083065,-0.0031506,0.018226
263,-0.019923,0.017239,0.022501,-0.011372,-0.06728,-0.0028217,0.0070443
264,-0.022225,0.021514,0.025132,-0.004466,-0.036037,-0.0028217,-0.011701
265,-0.022883,0.023817,0.028092,0.0090175,0.011648,-0.002164,-0.029789
266,-0.024527,0.023817,0.031381,0.023159,0.068871,-0.0015062,-0.039326
267,-0.0265,0.020199,0.030723,0.033683,0.12412,-0.00019077,-0.040313
268,-0.024198,0.014937,0.02579,0.038944,0.16326,0.0040845,-0.037353
269,-0.016305,0.0040845,0.018884,0.040918,0.17871,0.013622,-0.03242
270,-0.0038083,-0.0057815,0.013622,0.042233,0.17575,0.026119,-0.024198
271,0.0080309,-0.0090702,0.011648,0.043549,0.16391,0.038287,-0.015976
272,0.019212,-0.0041372,0.012635,0.046837,0.1501,0.050126,-0.011701
273,0.031052,0.0096753,0.018226,0.050784,0.13826,0.060321,-0.010057
274,0.041575,0.024474,0.022501,0.049468,0.12774,0.067227,-0.004466
275,0.04881,0.035656,0.022172,0.041575,0.11491,0.068543,0.0040845
276,0.047495,0.04026,0.020528,0.031052,0.096825,0.062952,0.010662
277,0.037958,0.036971,0.018884,0.021843,0.07512,0.05177,0.0050711
278,0.02579,0.02875,0.01691,0.012306,0.052757,0.039602,-0.013017
279,0.016581,0.017897,0.013293,0.0034268,0.033354,0.031052,-0.03538
280,0.010333,0.0063866,0.01132,-0.0018351,0.021514,0.029078,-0.045574
281,0.0050711,-0.0034794,0.011648,-0.0024928,0.019541,0.032367,-0.036695
282,-0.00051963,-0.010057,0.0090175,-0.0024928,0.023817,0.033683,-0.01499
283,-0.007097,-0.012688,0.0034268,-0.0057815,0.029736,0.029078,0.0093464
284,-0.010715,-0.0080836,-0.0054526,-0.0064392,0.031709,0.019541,0.026447
285,-0.0093991,-0.0008485,-0.013674,-0.0038083,0.027434,0.0070443,0.036971
286,-0.00051963,0.0030979,-0.016963,0.0030979,0.017897,-0.0054526,0.044864
287,0.010991,0.0024402,-0.017292,0.012635,0.0011247,-0.01203,0.050455
288,0.017568,0.00046697,-0.016634,0.026447,-0.017621,-0.0084125,0.056374
289,0.017568,-0.0034794,-0.016963,0.039931,-0.034064,0.0044134,0.05769
290,0.012635,-0.0093991,-0.014661,0.047166,-0.045574,0.021186,0.052757
291,0.0063866,-0.016305,-0.011372,0.04026,-0.054125,0.033025,0.043549
292,0.0044134,-0.017292,-0.0054526,0.023159,-0.0584,0.03434,0.033354
293,0.010333,-0.010057,0.00079584,0.0054,-0.057743,0.027434,0.025132
294,0.019212,0.0014536,0.0054,-0.0064392,-0.054783,0.016253,0.023488
295,0.021186,0.013293,0.0063866,-0.0084125,-0.05281,0.0021113,0.02579
296,0.015595,0.021843,0.0040845,-0.0067681,-0.053796,-0.010057,0.028421
297,0.0063866,0.025461,-0.00051963,-0.0041372,-0.056756,-0.010715,0.03434
298,0.00046697,0.023159,-0.0057815,0.0011247,-0.058729,0.0011247,0.039602
299,-0.0031506,0.014937,-0.0054526,0.0063866,-0.0584,0.01987,0.037958
300,-0.0080836,0.0057288,-0.00051963,0.0083598,-0.056427,0.034998,0.031709
301,-0.013017,-0.0024928,0.0037556,0.0080309,-0.055112,0.042562,0.026447
302,-0.017621,-0.0047949,0.0040845,0.0034268,-0.050836,0.04026,0.020199
303,-0.020252,0.00046697,0.0011247,-0.0074258,-0.046232,0.02579,0.014937
304,-0.017621,0.01132,-0.002164,-0.024198,-0.043272,0.0054,0.012635
305,-0.011701,0.021186,-0.0064392,-0.038668,-0.044259,-0.013017,0.010991
306,-0.0064392,0.02283,-0.0090702,-0.045574,-0.048205,-0.020581,0.0060577
307,-0.0038083,0.017568,-0.011043,-0.044259,-0.052152,-0.01795,0.00079584
308,-0.0080836,0.0093464,-0.015648,-0.036695,-0.053796,-0.0090702,-0.0024928
309,-0.016634,0.0040845,-0.022883,-0.026171,-0.052152,0.00079584,-0.00019077
310,-0.024198,0.0017824,-0.030775,-0.01499,-0.048205,0.0054,0.0060577
311,-0.030118,-0.0015062,-0.036037,-0.0064392,-0.041628,0.002769,0.010991
312,-0.034722,-0.0057815,-0.039984,0.0021113,-0.038668,-0.0031506,0.014608
313,-0.037682,-0.010057,-0.042615,0.01132,-0.038997,-0.0097279,0.018884
314,-0.038011,-0.01499,-0.04393,0.018884,-0.040313,-0.01499,0.023159
315,-0.034722,-0.020252,-0.044588,0.021186,-0.042944,-0.015648,0.027105
316,-0.028802,-0.027158,-0.044917,0.017568,-0.047877,-0.010715,0.029736
317,-0.022883,-0.031433,-0.044259,0.01132,-0.05544,0.0001381,0.027105
318,-0.017621,-0.031104,-0.040313,0.0070443,-0.06728,0.0093464,0.018555
319,-0.012359,-0.027487,-0.038997,0.0034268,-0.076159,0.01691,0.0083598
320,-0.0041372,-0.024527,-0.039655,-0.0011774,-0.077803,0.020857,0.002769
321,0.0054,-0.024198,-0.035708,-0.0077547,-0.073199,0.018226,0.00046697
322,0.012306,-0.021896,-0.0265,-0.013345,-0.065635,0.01132,0.0014536
323,0.013293,-0.016963,-0.015648,-0.019265,-0.059716,-0.00051963,0.0086887
324,0.012964,-0.010386,-0.007097,-0.021567,-0.058729,-0.013017,0.017239
325,0.013951,-0.0028217,-0.0011774,-0.021567,-0.060702,-0.022225,0.024145
326,0.016581,0.0037556,0.00079584,-0.019265,-0.064649,-0.022554,0.024145
327,0.022172,0.0060577,-0.0018351,-0.017621,-0.068266,-0.015648,0.021514
328,0.030723,0.0037556,-0.0054526,-0.014003,-0.06728,-0.0074258,0.019212
329,0.038616,-0.00051963,-0.0041372,-0.0077547,-0.063004,-0.002164,0.023817
330,0.040589,-0.0038083,0.0024402,-0.002164,-0.054783,0.0014536,0.036314
331,0.035327,-0.0051238,0.0083598,-0.0018351,-0.042615,0.002769,0.052099
332,0.029078,-0.0047949,0.0080309,-0.007097,-0.030775,0.002769,0.063938
333,0.024145,-0.0038083,0.0017824,-0.012688,-0.019265,0.00079584,0.067556
334,0.015266,-0.004466,-0.0034794,-0.016963,-0.011043,-0.0008485,0.067227
335,0.0040845,-0.0077547,-0.0041372,-0.017292,-0.0051238,-0.00019077,0.066898
336,-0.0061104,-0.01203,-0.0024928,-0.011701,-0.0011774,0.0047422,0.069858
337,-0.012688,-0.014003,0.0030979,-0.0034794,0.0017824,0.010333,0.072489
338,-0.013345,-0.011701,0.011977,0.0011247,0.0024402,0.01132,0.070187
339,-0.0084125,-0.0041372,0.022501,0.002769,-0.00019077,0.0080309,0.06065
340,0.00079584,0.0067154,0.030394,0.0070443,-0.0064392,0.0044134,0.053415
341,0.013293,0.018555,0.026776,0.017239,-0.010057,0.0060577,0.05473
342,0.027105,0.027434,0.013951,0.029407,-0.010715,0.013951,0.062294
343,0.0373,0.035656,-0.0034794,0.036314,-0.0097279,0.021514,0.068871
344,0.038616,0.039931,-0.01795,0.033354,-0.0093991,0.020857,0.07216
345,0.032038,0.041247,-0.027158,0.024803,-0.0054526,0.01132,0.071831
346,0.018555,0.036314,-0.031433,0.015595,0.00079584,-0.0031506,0.070516
347,0.0037556,0.025132,-0.031433,0.012635,0.010004,-0.018278,0.065583
348,-0.0034794,0.011648,-0.031433,0.015924,0.02283,-0.036366,0.05769
349,-0.002164,-0.0011774,-0.028144,0.019212,0.035656,-0.05281,0.04881
350,0.0067154,-0.010057,-0.022883,0.020857,0.048153,-0.065307,0.041575
351,0.017897,-0.016305,-0.016634,0.022501,0.059005,-0.072213,0.036642
352,0.02579,-0.018936,-0.011701,0.02579,0.06624,-0.073857,0.030394
353,0.02579,-0.021238,-0.011043,0.032038,0.064925,-0.072542,0.018884
354,0.022172,-0.022554,-0.01499,0.036642,0.055388,-0.070897,0.0034268
355,0.015595,-0.022554,-0.024198,0.035656,0.042891,-0.069582,-0.0090702
356,0.0060577,-0.019265,-0.034393,0.027434,0.04026,-0.065635,-0.015319
357,-0.0067681,-0.015319,-0.041299,0.017239,0.056703,-0.057085,-0.015648
358,-0.022554,-0.01203,-0.041628,0.010991,0.087617,-0.04393,-0.014003
359,-0.038668,-0.013674,-0.035051,0.012306,0.12215,-0.027487,-0.017621
360,-0.053796,-0.018278,-0.024856,0.019541,0.15339,-0.011701,-0.025842
361,-0.063991,-0.025185,-0.013674,0.02579,0.17575,0.0017824,-0.034722
362,-0.070897,-0.034064,-0.0047949,0.029078,0.18069,0.0096753,-0.040641
363,-0.074515,-0.040313,-0.0038083,0.032696,0.16457,0.010004,-0.041628
364,-0.070897,-0.041957,-0.0084125,0.033683,0.13234,0.0086887,-0.03538
365,-0.061689,-0.038339,-0.012688,0.031381,0.094523,0.010662,-0.022554
366,-0.048205,-0.028144,-0.013345,0.029078,0.059992,0.016253,-0.010057
367,-0.034064,-0.01795,-0.0087413,0.031709,0.031709,0.022501,-0.007097
368,-0.018278,-0.0087413,-0.0011774,0.036314,0.0077021,0.028421,-0.014003
369,-0.0041372,-0.002164,0.010662,0.03434,-0.011701,0.030394,-0.027487
370,0.0096753,0.0044134,0.021843,0.025461,-0.02946,0.027105,-0.040641
371,0.022172,0.0073732,0.027763,0.01132,-0.042286,0.015924,-0.046232
372,0.029736,0.0080309,0.026776,-0.0038083,-0.048534,-0.0024928,-0.041957
373,0.031709,0.0083598,0.020528,-0.015976,-0.047548,-0.014003,-0.033735
374,0.02875,0.0063866,0.012964,-0.02354,-0.044259,-0.010386,-0.0265
375,0.023488,0.0047422,0.0063866,-0.02354,-0.040641,0.0021113,-0.020581
376,0.013951,0.00046697,0.0021113,-0.016634,-0.036695,0.012964,-0.015648
377,0.00046697,-0.004466,0.0001381,-0.0067681,-0.034064,0.014937,-0.014332
378,-0.014332,-0.0077547,-0.0011774,0.0021113,-0.029789,0.011648,-0.017621
379,-0.023869,-0.0077547,-0.0028217,0.0044134,-0.020581,0.0090175,-0.020252
380,-0.027816,-0.0067681,-0.007097,0.00079584,-0.010386,0.0057288,-0.024198
381,-0.026829,-0.0047949,-0.011701,-0.0054526,-0.0015062,0.0011247,-0.030118
382,-0.02354,-0.0031506,-0.019594,-0.010715,0.00046697,-0.0061104,-0.036366
383,-0.01795,-0.0034794,-0.030447,-0.013674,-0.0034794,-0.014332,-0.041299
384,-0.013674,-0.0074258,-0.039326,-0.016963,-0.013674,-0.019594,-0.04393
385,-0.0077547,-0.011043,-0.038668,-0.019923,-0.027487,-0.018936,-0.045903
386,-0.0038083,-0.011372,-0.030447,-0.021567,-0.043272,-0.012359,-0.048534
387,-0.0008485,-0.0090702,-0.016963,-0.018607,-0.058071,-0.0090702,-0.052481
388,0.0024402,-0.0051238,-0.0034794,-0.014332,-0.068266,-0.014661,-0.053796
389,0.0050711,0.00046697,0.0040845,-0.0090702,-0.07024,-0.026829,-0.048534
390,0.0083598,0.0047422,0.0021113,-0.0067681,-0.063991,-0.037024,-0.038668
391,0.015595,0.0037556,-0.0051238,-0.007097,-0.055769,-0.039984,-0.026171
392,0.025132,-0.0067681,-0.0093991,-0.007097,-0.050507,-0.035051,-0.015648
393,0.032367,-0.018607,-0.0067681,-0.0024928,-0.048534,-0.025514,-0.0061104
394,0.031381,-0.028802,0.0011247,0.0047422,-0.045574,-0.015976,0.0037556
395,0.020857,-0.029789,0.0093464,0.015266,-0.038011,-0.0077547,0.012964
396,0.0040845,-0.020252,0.010991,0.02283,-0.027816,-0.0031506,0.017568
397,-0.011701,-0.0064392,0.002769,0.024803,-0.018936,0.0011247,0.012635
398,-0.025842,0.0030979,-0.0090702,0.020199,-0.016305,0.0054,0.00079584
399,-0.035051,0.0070443,-0.016963,0.0080309,-0.024527,0.0054,-0.013017
400,-0.042944,0.0063866,-0.019594,-0.0064392,-0.041299,0.0050711,-0.025842
401,-0.052152,0.0040845,-0.016963,-0.020252,-0.056756,0.0040845,-0.03538
402,-0.061031,-0.0011774,-0.010715,-0.030118,-0.064649,0.00079584,-0.041628
403,-0.065307,-0.0093991,-0.0018351,-0.030775,-0.063004,-0.0064392,-0.046232
404,-0.064649,-0.016305,0.0057288,-0.022225,-0.053467,-0.015319,-0.047548
405,-0.059716,-0.018607,0.010662,-0.011043,-0.043601,-0.023211,-0.042615
406,-0.050507,-0.015648,0.0093464,-0.0047949,-0.038668,-0.027158,-0.034722
407,-0.042615,-0.0064392,0.0063866,-0.0038083,-0.041628,-0.029789,-0.029131
408,-0.039326,0.0040845,-0.00019077,-0.0077547,-0.050179,-0.035051,-0.033406
409,-0.038668,0.015266,-0.0051238,-0.01499,-0.059387,-0.041957,-0.043601
410,-0.037682,0.020528,-0.0067681,-0.020581,-0.066622,-0.047548,-0.053467
411,-0.035051,0.019541,-0.0054526,-0.019265,-0.076488,-0.050836,-0.058071
412,-0.031762,0.01132,-0.0077547,-0.0097279,-0.088327,-0.048863,-0.056098
413,-0.026171,-0.0015062,-0.0097279,0.0014536,-0.10214,-0.03538,-0.045903
414,-0.019265,-0.014003,-0.0084125,0.013293,-0.11727,-0.013674,-0.030118
415,-0.015648,-0.017621,-0.0064392,0.027105,-0.12976,0.0054,-0.011372
416,-0.015319,-0.0051238,-0.0031506,0.045522,-0.1347,0.015595,0.0070443
417,-0.016963,0.019212,0.0037556,0.06065,-0.13141,0.016581,0.021186
418,-0.016963,0.043549,0.0090175,0.067556,-0.12319,0.010662,0.023817
419,-0.015319,0.057032,0.0067154,0.063281,-0.11266,0.0011247,0.020528
420,-0.010386,0.055059,-0.002164,0.052099,-0.093589,-0.0061104,0.017239
421,-0.0015062,0.042891,-0.0084125,0.039273,-0.056427,-0.0074258,0.019212
422,0.010662,0.027434,-0.0074258,0.026447,0.0021113,-0.0041372,0.023817
423,0.022172,0.017239,-0.0031506,0.015595,0.079724,0.0014536,0.028092
424,0.031381,0.014279,-0.0011774,0.0070443,0.16819,0.0050711,0.030723
425,0.03434,0.015595,-0.0015062,0.0037556,0.25534,0.0077021,0.035327
426,0.029078,0.016253,0.00046697,0.0086887,0.32736,0.010991,0.041904
427,0.021514,0.011977,0.0050711,0.016581,0.35992,0.015924,0.050784
428,0.016253,0.0047422,0.010991,0.021514,0.34315,0.020528,0.056374
429,0.017568,0.0011247,0.014937,0.018884,0.28987,0.022501,0.059334
430,0.026447,0.0063866,0.013622,0.0093464,0.22179,0.018884,0.058348
431,0.038287,0.017897,0.0057288,-0.0024928,0.15964,0.0086887,0.052428
432,0.047824,0.028092,-0.0057815,-0.011372,0.11228,-0.0077547,0.044864
433,0.052099,0.030065,-0.019265,-0.013345,0.07808,-0.02354,0.036971
434,0.057032,0.026447,-0.033735,-0.013674,0.049797,-0.030447,0.027763
435,0.064925,0.020199,-0.041628,-0.015648,0.021514,-0.028144,0.021843
436,0.074791,0.016253,-0.037353,-0.019265,-0.0067681,-0.020909,0.020528
437,0.082026,0.012306,-0.022883,-0.024856,-0.032091,-0.012359,0.024474
438,0.086301,0.0093464,-0.0034794,-0.028144,-0.052152,-0.0015062,0.030065
439,0.087617,0.0077021,0.012635,-0.02354,-0.062018,0.010333,0.033025
440,0.088603,0.0083598,0.022501,-0.013017,-0.061031,0.021186,0.029407
441,0.087288,0.013293,0.022172,0.0001381,-0.057085,0.028092,0.019541
442,0.077751,0.019541,0.014608,0.0070443,-0.054783,0.027763,0.0024402
443,0.059992,0.021514,0.0050711,0.0050711,-0.05544,0.021843,-0.015319
444,0.0373,0.015266,-0.004466,-0.0024928,-0.058729,0.014608,-0.023211
445,0.020199,0.0037556,-0.0097279,-0.010386,-0.06136,0.0077021,-0.018936
446,0.011648,-0.0047949,-0.0064392,-0.014332,-0.065307,0.0030979,-0.010057
447,0.010662,-0.007097,0.002769,-0.013345,-0.069582,-0.00051963,0.00079584
448,0.0093464,-0.0024928,0.011977,-0.010715,-0.07583,-0.0015062,0.0080309
449,0.0037556,0.0060577,0.017568,-0.0024928,-0.080763,-0.0011774,0.010991
450,-0.0064392,0.012635,0.016253,0.0063866,-0.082736,0.00079584,0.010333
451,-0.01795,0.014279,0.013293,0.0086887,-0.081421,0.0021113,0.0034268
452,-0.024198,0.012306,0.010662,0.0014536,-0.079777,0.0037556,-0.0067681
453,-0.0265,0.0086887,0.0073732,-0.01203,-0.077146,0.0070443,-0.020581
454,-0.024198,0.0077021,0.0034268,-0.027487,-0.075501,0.010662,-0.036037
455,-0.020252,0.012306,0.0030979,-0.037024,-0.074844,0.015266,-0.046232
456,-0.018278,0.017897,0.0077021,-0.038668,-0.074186,0.013951,-0.045574
457,-0.015976,0.021186,0.016253,-0.035051,-0.068266,0.0086887,-0.034393
458,-0.015976,0.019212,0.025461,-0.033406,-0.058071,0.0037556,-0.018936
459,-0.020581,0.014937,0.031709,-0.038668,-0.045574,-0.00019077,-0.0034794
460,-0.027487,0.010991,0.031381,-0.047877,-0.03242,-0.0034794,0.010991
461,-0.033078,0.0047422,0.026776,-0.055112,-0.022225,-0.0047949,0.026447
462,-0.034722,0.0011247,0.020857,-0.053467,-0.020252,-0.0057815,0.037958
463,-0.035708,0.0017824,0.016581,-0.042615,-0.027158,-0.0084125,0.041247
464,-0.038668,0.0054,0.013293,-0.0265,-0.036695,-0.0090702,0.039273
465,-0.04097,0.0080309,0.0093464,-0.015976,-0.04097,-0.004466,0.039931
466,-0.040313,0.0090175,0.0054,-0.014661,-0.041628,0.0017824,0.043877
467,-0.036366,0.0063866,-0.0008485,-0.017292,-0.041957,0.0073732,0.046837
468,-0.033735,0.0001381,-0.011372,-0.021567,-0.040313,0.010662,0.04618
469,-0.036366,-0.0054526,-0.021896,-0.027158,-0.03538,0.015924,0.042233
470,-0.043601,-0.010715,-0.028802,-0.036037,-0.029131,0.022501,0.034998
471,-0.053467,-0.017292,-0.032749,-0.044588,-0.024198,0.028421,0.025461
472,-0.062676,-0.022225,-0.037682,-0.050179,-0.023211,0.033354,0.015595
473,-0.068266,-0.027816,-0.041299,-0.049521,-0.028802,0.036314,0.0083598
474,-0.071226,-0.031762,-0.04393,-0.039655,-0.033406,0.036971,0.0047422
475,-0.068924,-0.030775,-0.045246,-0.028473,-0.030775,0.032367,0.0057288
476,-0.06136,-0.022883,-0.047219,-0.022225,-0.019923,0.023488,0.010662
477,-0.04985,-0.011372,-0.046561,-0.019265,-0.0031506,0.013951,0.019212
478,-0.04097,-0.0028217,-0.040641,-0.012359,0.014279,0.002769,0.029407
479,-0.037024,0.002769,-0.031433,0.00079584,0.026447,-0.0090702,0.039602
480,-0.038668,0.0034268,-0.020581,0.016581,0.031709,-0.019265,0.04618
481,-0.039326,0.0047422,-0.010715,0.024803,0.03434,-0.025842,0.045851
482,-0.038668,0.0070443,-0.0047949,0.023159,0.03434,-0.030118,0.0373
483,-0.03538,0.010333,-0.0047949,0.015924,0.030723,-0.034722,0.023817
484,-0.031762,0.0090175,-0.010386,0.0093464,0.021843,-0.036366,0.010662
485,-0.025842,0.0014536,-0.017292,0.0054,0.011977,-0.033078,0.00079584
486,-0.019594,-0.0097279,-0.020581,0.0047422,0.0057288,-0.028802,-0.0080836
487,-0.01203,-0.015976,-0.018278,0.0096753,0.0037556,-0.025842,-0.014332
488,-0.0057815,-0.013017,-0.014661,0.015595,0.0017824,-0.024527,-0.015976
489,0.0021113,-0.004466,-0.012688,0.022172,-0.0047949,-0.024856,-0.016634
490,0.0080309,0.0037556,-0.012688,0.027105,-0.014003,-0.02354,-0.021238
491,0.012635,0.0083598,-0.010715,0.029078,-0.022883,-0.018607,-0.028802
492,0.016581,0.0096753,-0.0077547,0.028092,-0.024856,-0.015976,-0.035708
493,0.020199,0.011977,-0.0074258,0.02579,-0.021238,-0.018278,-0.041299
494,0.021843,0.018555,-0.010057,0.02283,-0.017621,-0.0265,-0.046561
495,0.026119,0.026119,-0.01203,0.020857,-0.020252,-0.036695,-0.051494
496,0.029407,0.02875,-0.011043,0.017897,-0.027158,-0.048205,-0.05544
497,0.029736,0.024145,-0.0061104,0.014937,-0.036037,-0.0584,-0.057085
498,0.028092,0.0093464,-0.00019077,0.014279,-0.041299,-0.062018,-0.056427
499,0.024145,-0.0047949,0.0040845,0.015595,-0.042286,-0.058071,-0.048205
500,0.01691,-0.014661,0.0054,0.021186,-0.040641,-0.04985,-0.036695
501,0.0057288,-0.017292,0.0060577,0.026447,-0.037353,-0.04393,-0.026171
502,0.0001381,-0.014661,0.0050711,0.028421,-0.036366,-0.042944,-0.023869
503,0.002769,-0.0061104,0.002769,0.029078,-0.036037,-0.048534,-0.028473
504,0.0070443,0.0090175,0.0011247,0.02579,-0.03538,-0.057414,-0.03538
505,0.0086887,0.02283,-0.0018351,0.019212,-0.036037,-0.065964,-0.036037
506,0.0063866,0.030065,-0.0038083,0.013622,-0.037024,-0.068266,-0.028144
507,0.0040845,0.030065,-0.0051238,0.011977,-0.037682,-0.061689,-0.01203
508,0.0070443,0.024803,-0.0077547,0.015595,-0.034722,-0.045246,0.0063866
509,0.01132,0.018226,-0.013674,0.020199,-0.028473,-0.027158,0.021186
510,0.012635,0.013951,-0.02354,0.023159,-0.022554,-0.015319,0.026119
511,0.010662,0.010333,-0.03242,0.024803,-0.016963,-0.010057,0.020528
512,0.0083598,0.0067154,-0.034064,0.026447,-0.013017,-0.0077547,0.0070443
513,0.0090175,0.00046697,-0.027487,0.026447,-0.0090702,-0.0047949,-0.010386
514,0.01132,-0.0090702,-0.018278,0.026447,-0.007097,-0.00019077,-0.021896
515,0.013622,-0.018278,-0.0097279,0.02283,-0.0057815,0.0030979,-0.023211
516,0.013951,-0.0265,-0.0047949,0.015266,-0.0031506,0.0021113,-0.015976
517,0.014937,-0.031433,-0.0031506,0.0017824,0.0040845,-0.0038083,-0.007097
518,0.013293,-0.031762,-0.0034794,-0.010057,0.016581,-0.0087413,-0.0015062
519,0.0086887,-0.024856,-0.004466,-0.014661,0.032696,-0.0074258,0.0017824
520,0.0044134,-0.010057,-0.0047949,-0.01499,0.048482,0.0011247,0.0073732
521,-0.0028217,0.0037556,-0.0061104,-0.01499,0.06624,0.016253,0.021186
522,-0.014661,0.016253,-0.0077547,-0.013345,0.088275,0.032367,0.040589
523,-0.03242,0.020199,-0.0087413,-0.0067681,0.10768,0.045193,0.061307
524,-0.052481,0.01691,-0.007097,0.0090175,0.12281,0.051113,0.082026
525,-0.067937,0.0054,-0.0061104,0.030723,0.13136,0.046837,0.10143
526,-0.074844,-0.010057,-0.0080836,0.05177,0.13103,0.037629,0.11491
527,-0.07024,-0.021567,-0.013674,0.063938,0.12609,0.02579,0.11886
528,-0.060702,-0.0265,-0.020581,0.065912,0.12083,0.020199,0.11524
529,-0.050179,-0.027816,-0.024856,0.061307,0.11491,0.024803,0.10899
530,-0.04097,-0.026171,-0.024198,0.052099,0.10669,0.034998,0.10406
531,-0.034393,-0.024527,-0.016963,0.042233,0.093536,0.04322,0.10472
532,-0.032091,-0.022225,-0.010057,0.031052,0.074462,0.045193,0.10603
533,-0.032091,-0.023211,-0.0074258,0.021186,0.055388,0.041247,0.10143
534,-0.035051,-0.024198,-0.0090702,0.012306,0.039931,0.031709,0.087288
535,-0.034722,-0.025514,-0.01203,0.0054,0.028421,0.020528,0.06624
536,-0.03242,-0.027158,-0.013345,0.0021113,0.020528,0.010991,0.04322
537,-0.030118,-0.028144,-0.012688,0.0014536,0.01132,0.0057288,0.022172
538,-0.029789,-0.026171,-0.015976,0.0030979,0.0011247,0.0090175,0.0050711
539,-0.030775,-0.02354,-0.022225,0.0047422,-0.0051238,0.01987,-0.0038083
540,-0.026829,-0.020252,-0.026171,0.0034268,-0.0061104,0.032038,-0.0064392
541,-0.01795,-0.015319,-0.027487,0.0017824,-0.0031506,0.037629,-0.0051238
542,-0.0064392,-0.011043,-0.027816,0.0054,-0.0034794,0.033025,-0.0054526
543,0.0063866,-0.0038083,-0.028144,0.017897,-0.0061104,0.023159,-0.0064392
544,0.01691,0.0047422,-0.0265,0.032367,-0.010386,0.018226,-0.0077547
545,0.023817,0.013951,-0.019923,0.044535,-0.018936,0.021186,-0.0077547
546,0.02875,0.02283,-0.0097279,0.050784,-0.028473,0.029736,-0.0034794
547,0.036642,0.026447,0.0017824,0.049797,-0.035708,0.041247,0.002769
548,0.043877,0.02579,0.010662,0.043549,-0.037024,0.052428,0.010662
549,0.043549,0.021843,0.018555,0.03434,-0.032091,0.06065,0.014937
550,0.03434,0.01691,0.023159,0.027763,-0.028473,0.058348,0.016253
551,0.018884,0.010991,0.020857,0.026119,-0.031762,0.047495,0.016581
552,0.0040845,0.002769,0.010991,0.026119,-0.039984,0.032367,0.010991
553,-0.0093991,-0.0057815,-0.00051963,0.024803,-0.047877,0.018226,0.00046697
554,-0.017621,-0.010715,-0.0084125,0.017568,-0.052152,0.0070443,-0.010386
555,-0.019265,-0.0093991,-0.010057,0.0070443,-0.054125,-0.0041372,-0.013017
556,-0.015648,-0.0051238,-0.0051238,-0.0061104,-0.05281,-0.01795,-0.0093991
557,-0.0084125,-0.0018351,0.0034268,-0.016634,-0.051494,-0.033406,-0.0038083
558,-0.00019077,-0.002164,0.012306,-0.026829,-0.053138,-0.045574,-0.0011774
559,0.0073732,-0.0038083,0.018226,-0.036366,-0.054454,-0.052481,-0.0034794
560,0.013951,-0.0038083,0.017568,-0.042944,-0.054125,-0.05281,-0.0097279
561,0.017239,-0.0011774,0.010333,-0.046561,-0.051494,-0.044588,-0.015648
562,0.020199,0.0030979,-0.0028217,-0.045246,-0.048205,-0.02946,-0.016963
563,0.020857,0.0060577,-0.01795,-0.042286,-0.048205,-0.011043,-0.015648
564,0.016581,0.0060577,-0.027158,-0.04097,-0.049521,0.0001381,-0.014003
565,0.0054,0.0017824,-0.028473,-0.041299,-0.050507,-0.002164,-0.016305
566,-0.0087413,-0.002164,-0.019923,-0.039984,-0.049521,-0.013017,-0.020909
567,-0.021567,-0.0015062,-0.007097,-0.03242,-0.048534,-0.024198,-0.026171
568,-0.029789,0.0057288,0.0014536,-0.020909,-0.045903,-0.0265,-0.030775
569,-0.033078,0.016253,0.0030979,-0.0067681,-0.044588,-0.025185,-0.034722
570,-0.032749,0.025132,-0.0047949,0.0070443,-0.044588,-0.020909,-0.035708
571,-0.031104,0.026119,-0.020252,0.014279,-0.044588,-0.017621,-0.036366
572,-0.028802,0.015924,-0.034722,0.016253,-0.042944,-0.014332,-0.03538
573,-0.025842,0.0017824,-0.039655,0.017239,-0.039984,-0.015319,-0.03242
574,-0.021567,-0.013674,-0.031104,0.014937,-0.036695,-0.022225,-0.025514
575,-0.016634,-0.028802,-0.013017,0.011977,-0.033406,-0.030775,-0.018936
576,-0.016963,-0.038011,0.0063866,0.0030979,-0.030775,-0.036695,-0.016963
577,-0.024527,-0.040313,0.019541,-0.011043,-0.031104,-0.041299,-0.016634
578,-0.031433,-0.041299,0.024474,-0.027487,-0.033078,-0.042944,-0.015648
579,-0.029131,-0.044259,0.018555,-0.043272,-0.030775,-0.041957,-0.012359
580,-0.016634,-0.045574,0.0037556,-0.055112,-0.030118,-0.043601,-0.004466
581,-0.0015062,-0.043272,-0.013674,-0.054783,-0.031104,-0.045903,0.0044134
582,0.0057288,-0.034064,-0.026829,-0.04393,-0.033078,-0.047548,0.0063866
583,0.0024402,-0.021238,-0.028802,-0.028802,-0.032749,-0.048534,-0.0034794
584,-0.0057815,-0.010386,-0.024198,-0.018607,-0.029131,-0.047548,-0.017292
585,-0.010057,-0.0067681,-0.016634,-0.015976,-0.023211,-0.050179,-0.030118
586,-0.0080836,-0.012688,-0.011043,-0.018936,-0.016634,-0.057414,-0.040641
587,-0.002164,-0.023211,-0.010057,-0.024856,-0.010386,-0.063004,-0.044588
588,0.0040845,-0.030118,-0.0074258,-0.032091,-0.0074258,-0.062347,-0.040641
589,0.0096753,-0.030775,0.00079584,-0.033735,-0.0084125,-0.053796,-0.033406
590,0.014937,-0.023869,0.0083598,-0.029789,-0.011701,-0.040641,-0.02946
591,0.019212,-0.012359,0.012964,-0.020581,-0.016305,-0.02946,-0.02946
592,0.019212,0.0021113,0.013622,-0.010715,-0.018936,-0.024527,-0.030447
593,0.012635,0.014608,0.015595,0.0017824,-0.019594,-0.022225,-0.030447
594,0.0060577,0.01987,0.021843,0.017568,-0.015648,-0.019923,-0.023869
595,0.0030979,0.024803,0.02875,0.03434,-0.010386,-0.014003,-0.0090702
596,0.0034268,0.030723,0.030723,0.043877,-0.0067681,-0.0051238,0.0083598
597,0.0054,0.032038,0.027105,0.04026,-0.0011774,0.0047422,0.023817
598,0.0096753,0.025132,0.018226,0.023159,0.002769,0.017239,0.033025
599,0.013293,0.012635,0.0050711,-0.00019077,0.0030979,0.029407,0.032367
600,0.01691,0.0040845,-0.0097279,-0.020252,0.00079584,0.037629,0.022501
601,0.021514,0.0021113,-0.019265,-0.030118,-0.0015062,0.039273,0.0060577
602,0.029736,0.0090175,-0.020909,-0.025842,0.0014536,0.033025,-0.011701
603,0.042233,0.020857,-0.01795,-0.0090702,0.0057288,0.024803,-0.025842
604,0.053743,0.032038,-0.017292,0.012964,0.0093464,0.019541,-0.036366
605,0.058348,0.038616,-0.020909,0.032696,0.0070443,0.017897,-0.044588
606,0.053415,0.045193,-0.02354,0.044535,0.0001381,0.020857,-0.047548
607,0.038287,0.050784,-0.016963,0.046508,-0.0054526,0.028421,-0.043601
608,0.021843,0.054401,-0.0024928,0.042891,-0.0080836,0.036971,-0.036366
609,0.0093464,0.051113,0.011977,0.036314,-0.0054526,0.045851,-0.027816
610,0.002769,0.039602,0.020528,0.027434,0.0054,0.052099,-0.019923
611,-0.0008485,0.023817,0.022501,0.01987,0.020199,0.05473,-0.0097279
612,-0.0047949,0.0093464,0.020199,0.014937,0.032367,0.055388,0.0040845
613,-0.010057,0.0047422,0.014608,0.012635,0.039931,0.054072,0.017239
614,-0.012688,0.013951,0.0063866,0.016253,0.042891,0.048482,0.02579
615,-0.0097279,0.034011,-0.0034794,0.027105,0.041247,0.037629,0.027434
616,-0.0011774,0.051441,-0.014332,0.038616,0.0373,0.026119,0.028092
617,0.0077021,0.058348,-0.024527,0.044864,0.031381,0.015924,0.031052
618,0.013622,0.052757,-0.027158,0.046508,0.023488,0.0093464,0.039602
619,0.020528,0.043549,-0.023211,0.04881,0.016581,0.0086887,0.048153
620,0.026447,0.035656,-0.014003,0.054401,0.012964,0.011648,0.053743
621,0.031709,0.031052,-0.0054526,0.063281,0.0096753,0.015924,0.052757
622,0.032367,0.030065,-0.0024928,0.068543,0.0014536,0.018555,0.049468
623,0.027434,0.028092,-0.00051963,0.060321,-0.014003,0.020857,0.047824
624,0.018884,0.024145,0.00046697,0.040918,-0.029789,0.025132,0.050455
625,0.010004,0.020857,-0.0008485,0.017897,-0.039655,0.027434,0.055717
626,0.0073732,0.020199,-0.0051238,-0.00051963,-0.041628,0.024145,0.062294
627,0.01132,0.020199,-0.011043,-0.011372,-0.035051,0.018884,0.067227
628,0.020199,0.022501,-0.018936,-0.021238,-0.0265,0.013293,0.065254
629,0.023488,0.02875,-0.027816,-0.02946,-0.021567,0.0047422,0.055388
630,0.015266,0.032038,-0.032091,-0.032749,-0.021238,-0.010386,0.040918
631,0.0011247,0.026776,-0.030447,-0.029789,-0.024198,-0.026829,0.029407
632,-0.012688,0.0083598,-0.022883,-0.025514,-0.029131,-0.037682,0.025132
633,-0.019265,-0.01499,-0.012688,-0.026171,-0.034064,-0.040641,0.027434
634,-0.019923,-0.034393,-0.0074258,-0.033078,-0.040641,-0.035708,0.034669
635,-0.019594,-0.041299,-0.0057815,-0.039326,-0.047219,-0.028802,0.04322
636,-0.019923,-0.037024,-0.0074258,-0.041628,-0.051165,-0.022554,0.047824
637,-0.017621,-0.027158,-0.01203,-0.037682,-0.051823,-0.019923,0.04618
638,-0.011043,-0.017292,-0.01795,-0.030775,-0.048205,-0.022225,0.038287
639,-0.0028217,-0.010715,-0.018936,-0.024856,-0.041957,-0.032091,0.026776
640,0.0030979,-0.011701,-0.014332,-0.025185,-0.036695,-0.051823,0.017239
641,0.0083598,-0.018278,-0.0054526,-0.027487,-0.034064,-0.074186,0.015266
642,0.012635,-0.027158,0.0054,-0.030447,-0.028802,-0.094576,0.018555
643,0.014937,-0.031762,0.015266,-0.030118,-0.021567,-0.10872,0.024145
644,0.013293,-0.030118,0.01987,-0.026829,-0.014003,-0.11398,0.025461
645,0.0073732,-0.021896,0.017568,-0.019923,-0.0097279,-0.10905,0.017897
646,0.0001381,-0.016634,0.012964,-0.01203,-0.010715,-0.094576,0.0073732
647,-0.0061104,-0.016634,0.010004,-0.007097,-0.016963,-0.078461,-0.007097
648,-0.0084125,-0.016963,0.0090175,-0.0041372,-0.0265,-0.066622,-0.018278
649,-0.0061104,-0.011701,0.010333,-0.0018351,-0.033735,-0.057743,-0.02354
650,-0.0038083,-0.0008485,0.010333,-0.0018351,-0.038668,-0.050507,-0.021896
651,-0.0031506,0.013622,0.0054,-0.0084125,-0.039655,-0.042286,-0.015648
652,-0.0034794,0.025132,-0.0034794,-0.01795,-0.036695,-0.040641,-0.012688
653,-0.0047949,0.028421,-0.011372,-0.023211,-0.031104,-0.045903,-0.016634
654,-0.0057815,0.02283,-0.013674,-0.020909,-0.027158,-0.050836,-0.0265
655,-0.0077547,0.013622,-0.0077547,-0.010057,-0.026171,-0.048534,-0.032091
656,-0.010715,0.0050711,0.0017824,0.0047422,-0.027487,-0.039984,-0.029131
657,-0.014332,0.00079584,0.010662,0.01987,-0.028802,-0.027158,-0.019923
658,-0.018278,0.0060577,0.014279,0.028092,-0.029789,-0.017292,-0.0097279
659,-0.021567,0.018884,0.010991,0.029736,-0.028802,-0.010715,-0.0028217
660,-0.024198,0.031709,0.0017824,0.028092,-0.018607,-0.0077547,0.0014536
661,-0.030118,0.039273,-0.010057,0.023488,0.0060577,-0.0054526,0.0024402
662,-0.036366,0.040589,-0.017292,0.018226,0.044206,-0.0008485,-0.0018351
663,-0.039655,0.032696,-0.016634,0.015266,0.090905,0.0073732,-0.0097279
664,-0.036366,0.017897,-0.012688,0.014937,0.14024,0.012964,-0.018278
665,-0.027816,0.0017824,-0.014003,0.013622,0.19121,0.016253,-0.022883
666,-0.015648,-0.0084125,-0.021896,0.0057288,0.23922,0.018884,-0.020581
667,-0.0031506,-0.011043,-0.030447,-0.0054526,0.28066,0.020857,-0.013017
668,0.0050711,-0.0097279,-0.03538,-0.017621,0.30434,0.024145,-0.0051238
669,0.0034268,-0.010386,-0.032749,-0.028144,0.30434,0.030065,0.002769
670,-0.0051238,-0.013674,-0.026829,-0.031762,0.28033,0.041247,0.0083598
671,-0.016305,-0.017292,-0.019265,-0.028473,0.24153,0.054072,0.010662
672,-0.020252,-0.019923,-0.012359,-0.020252,0.19877,0.06361,0.0063866
673,-0.013345,-0.019923,-0.0080836,-0.0097279,0.15832,0.067227,-0.0047949
674,0.00046697,-0.015976,-0.0064392,0.0040845,0.12609,0.062623,-0.020252
675,0.018884,-0.010386,-0.0093991,0.016581,0.098798,0.05473,-0.03242
676,0.038616,-0.0064392,-0.01203,0.026776,0.074791,0.047824,-0.034722
677,0.051441,-0.0034794,-0.013674,0.030723,0.050126,0.043877,-0.031762
678,0.052757,-0.0031506,-0.012688,0.028421,0.021514,0.042562,-0.027487
679,0.044206,-0.0031506,-0.011372,0.024145,-0.0084125,0.042233,-0.022225
680,0.031381,-0.00051963,-0.011372,0.021186,-0.037682,0.043877,-0.011043
681,0.020199,0.002769,-0.012359,0.02283,-0.060702,0.039931,0.0057288
682,0.016581,0.0054,-0.013674,0.027105,-0.074844,0.028092,0.026776
683,0.019212,0.0044134,-0.012688,0.035656,-0.085039,0.018555,0.044206
684,0.023817,0.0054,-0.0097279,0.041247,-0.090629,0.018226,0.05177
685,0.02579,0.0060577,-0.0057815,0.041575,-0.089314,0.02579,0.053086
686,0.020528,0.0040845,-0.0038083,0.034011,-0.085367,0.037629,0.053086
687,0.0086887,-0.002164,-0.0028217,0.025132,-0.082408,0.046508,0.05177
688,-0.004466,-0.013674,-0.002164,0.020857,-0.083723,0.049468,0.049797
689,-0.014332,-0.025514,0.0011247,0.020857,-0.091616,0.044206,0.050784
690,-0.017292,-0.031433,0.0073732,0.020857,-0.10313,0.033354,0.055717
691,-0.012688,-0.031433,0.012306,0.018884,-0.11595,0.024803,0.058348
692,-0.0047949,-0.0265,0.011648,0.012635,-0.1268,0.022501,0.058019
693,-0.0011774,-0.019594,0.002769,0.0063866,-0.13174,0.020199,0.056046
694,-0.004466,-0.01499,-0.010715,0.0017824,-0.13536,0.013622,0.053086
695,-0.0084125,-0.012359,-0.020252,-0.002164,-0.13996,0.0037556,0.048482
696,-0.011701,-0.010715,-0.02354,-0.0038083,-0.14917,-0.0093991,0.044206
697,-0.010715,-0.0080836,-0.025185,-0.0031506,-0.16265,-0.020581,0.041247
698,-0.0057815,-0.0077547,-0.028144,0.0001381,-0.16824,-0.029131,0.040918
699,-0.0015062,-0.0080836,-0.033406,0.0050711,-0.16166,-0.035051,0.034998
700,-0.0008485,-0.0090702,-0.034722,0.0083598,-0.14423,-0.037682,0.022501
701,-0.0028217,-0.0093991,-0.03242,0.0077021,-0.1245,-0.037682,0.0086887
702,-0.004466,-0.010715,-0.031433,0.0034268,-0.10674,-0.039326,0.0017824
703,-0.0041372,-0.011043,-0.029789,0.00046697,-0.092274,-0.042615,0.0063866
704,-0.0028217,-0.0093991,-0.027158,-0.0057815,-0.080763,-0.042944,0.015266
705,-0.0054526,-0.0064392,-0.026171,-0.018278,-0.072542,-0.035051,0.024474
706,-0.015648,-0.0041372,-0.025842,-0.033078,-0.06728,-0.020909,0.028092
707,-0.027158,-0.0051238,-0.024198,-0.042944,-0.062676,-0.0064392,0.024474
708,-0.034393,-0.0077547,-0.023211,-0.045903,-0.056098,-0.0008485,0.013951
709,-0.038011,-0.012688,-0.023869,-0.039655,-0.045903,-0.007097,0.0001381
710,-0.042944,-0.017621,-0.024198,-0.029131,-0.036366,-0.022225,-0.016963
711,-0.05281,-0.024527,-0.026171,-0.019265,-0.034064,-0.036366,-0.035708
712,-0.063333,-0.029789,-0.028802,-0.01499,-0.041628,-0.043272,-0.050507
713,-0.069253,-0.035708,-0.029131,-0.01795,-0.05281,-0.043601,-0.057743
714,-0.065964,-0.041299,-0.030775,-0.02354,-0.060373,-0.040641,-0.056098
715,-0.058071,-0.04689,-0.036366,-0.027487,-0.06136,-0.038339,-0.049521
716,-0.048863,-0.045246,-0.041628,-0.028144,-0.054125,-0.037024,-0.041957
717,-0.041957,-0.036037,-0.038339,-0.024856,-0.042615,-0.035708,-0.038011
718,-0.039326,-0.021567,-0.026829,-0.013674,-0.031762,-0.032091,-0.038339
719,-0.036695,-0.007097,-0.011372,-0.0011774,-0.02354,-0.027487,-0.043272
720,-0.032749,0.0057288,-0.0034794,0.0096753,-0.019594,-0.026171,-0.052152
721,-0.025185,0.018555,-0.007097,0.014279,-0.020581,-0.028802,-0.061689
722,-0.017292,0.031381,-0.01499,0.013951,-0.028144,-0.030447,-0.067609
723,-0.011372,0.041247,-0.021238,0.013951,-0.039326,-0.02354,-0.067609
724,-0.007097,0.04618,-0.020581,0.013622,-0.053467,-0.01499,-0.064978
725,-0.0074258,0.045522,-0.011043,0.013951,-0.062018,-0.007097,-0.062018
726,-0.010386,0.041575,0.0044134,0.016253,-0.065307,-0.0038083,-0.063662
727,-0.014332,0.034669,0.019212,0.021514,-0.063662,-0.0077547,-0.069911
728,-0.020909,0.027105,0.027105,0.029407,-0.058071,-0.020909,-0.078461
729,-0.02946,0.018884,0.02875,0.041575,-0.051823,-0.039655,-0.087012
730,-0.04097,0.012635,0.02875,0.050784,-0.045246,-0.058071,-0.094576
731,-0.052152,0.0090175,0.028421,0.05473,-0.039984,-0.070897,-0.10181
732,-0.062347,0.0093464,0.026447,0.051441,-0.034722,-0.073528,-0.10444
733,-0.073199,0.013951,0.019212,0.038287,-0.029131,-0.065635,-0.10115
734,-0.084052,0.01987,0.0073732,0.015924,-0.024198,-0.050179,-0.09326
735,-0.091616,0.025461,-0.0024928,-0.010715,-0.019265,-0.036037,-0.083394
736,-0.094247,0.024145,-0.0067681,-0.031762,-0.015319,-0.028144,-0.074186
737,-0.094576,0.018226,-0.0047949,-0.042286,-0.011043,-0.026829,-0.067609
738,-0.09326,0.0096753,0.0030979,-0.042944,-0.0074258,-0.032091,-0.064978
739,-0.091945,0.00079584,0.010662,-0.033078,-0.0038083,-0.040313,-0.067937
740,-0.087998,-0.0090702,0.016581,-0.019265,-0.002164,-0.048534,-0.075501
741,-0.083723,-0.017292,0.021186,-0.0061104,-0.0047949,-0.049521,-0.081421
742,-0.077146,-0.021238,0.023488,0.00079584,-0.0093991,-0.041299,-0.079777
743,-0.06728,-0.02354,0.023159,0.00079584,-0.0090702,-0.028144,-0.067609
744,-0.051165,-0.026171,0.020528,-0.0015062,-0.00019077,-0.015319,-0.051823
745,-0.02946,-0.024856,0.01691,-0.0041372,0.014608,-0.0080836,-0.034722
746,-0.0097279,-0.015648,0.01132,-0.0064392,0.029407,-0.007097,-0.019923
747,0.0054,-0.002164,0.0080309,-0.0090702,0.039931,-0.012359,-0.0074258
748,0.014608,0.0080309,0.010004,-0.014661,0.047824,-0.017292,0.0024402
749,0.018884,0.013293,0.014279,-0.021238,0.053086,-0.016963,0.010333
750,0.023159,0.013293,0.017568,-0.022225,0.056703,-0.0090702,0.014279
751,0.02875,0.013622,0.020199,-0.013674,0.057361,0.0073732,0.013622
752,0.033025,0.016581,0.02283,0.00046697,0.056046,0.02875,0.013293
753,0.033683,0.016253,0.021843,0.014608,0.055388,0.048482,0.015266
754,0.034998,0.011977,0.017239,0.025132,0.054401,0.060979,0.018884
755,0.040918,0.0050711,0.013951,0.032696,0.050784,0.064267,0.02283
756,0.051113,0.00046697,0.015595,0.03434,0.046508,0.06065,0.029078
757,0.060979,0.0011247,0.017568,0.031381,0.042233,0.054072,0.040918
758,0.06361,0.0086887,0.018884,0.028092,0.038616,0.049139,0.055717
759,0.05769,0.016253,0.019541,0.023159,0.0373,0.050455,0.064596
760,0.053415,0.018555,0.014608,0.016581,0.036971,0.058019,0.065254
761,0.055388,0.014937,0.0054,0.011648,0.037629,0.067227,0.060321
762,0.059992,0.0063866,-0.0064392,0.0057288,0.040589,0.075778,0.057361
763,0.062294,-0.0011774,-0.014661,0.0017824,0.046837,0.081368,0.058019
764,0.059992,-0.0057815,-0.016634,-0.0015062,0.053415,0.084986,0.058019
765,0.050784,-0.0061104,-0.014661,-0.0018351,0.056046,0.085644,0.058019
766,0.039602,-0.0038083,-0.015319,0.0001381,0.049797,0.083999,0.059334
767,0.032367,-0.0038083,-0.018936,0.0047422,0.041575,0.080711,0.070845
768,0.03434,-0.0061104,-0.021896,0.013293,0.035327,0.075449,0.088932
769,0.044535,-0.0090702,-0.025842,0.019212,0.032696,0.068543,0.10603
770,0.054072,-0.014003,-0.029789,0.021843,0.032696,0.061307,0.11491
771,0.060321,-0.014661,-0.032749,0.023159,0.035985,0.054072,0.11623
772,0.062294,-0.0090702,-0.033078,0.024474,0.040918,0.049468,0.11195
773,0.060321,0.002769,-0.031104,0.023488,0.043877,0.045851,0.10505
774,0.054072,0.013951,-0.027158,0.016253,0.040918,0.040589,0.09551
775,0.049139,0.021186,-0.020581,0.0011247,0.034998,0.031709,0.088932
776,0.049139,0.021843,-0.016305,-0.016305,0.031381,0.019541,0.087617
777,0.050784,0.017568,-0.012359,-0.029131,0.031381,0.0037556,0.089919
778,0.053743,0.01132,-0.010057,-0.037024,0.027763,-0.010386,0.091892
779,0.056374,0.0050711,-0.007097,-0.041299,0.022172,-0.022554,0.092221
780,0.058019,-0.0018351,-0.0057815,-0.041628,0.015595,-0.030447,0.087288
781,0.058019,-0.007097,-0.0038083,-0.037682,0.012306,-0.033735,0.080382
782,0.057361,-0.01499,-0.0038083,-0.028473,0.010991,-0.036037,0.075449
783,0.05769,-0.022883,-0.0038083,-0.010386,0.012635,-0.041299,0.073476
784,0.056046,-0.028473,-0.0024928,0.010004,0.014608,-0.049192,0.073147
785,0.04881,-0.027487,-0.00051963,0.024803,0.014279,-0.054783,0.067556
786,0.035656,-0.019923,0.002769,0.029078,0.010662,-0.057414,0.057361
787,0.020857,-0.010715,0.0040845,0.023159,0.0034268,-0.057414,0.04322
788,0.0060577,-0.0031506,0.0014536,0.013951,-0.0061104,-0.05544,0.033683
789,-0.007097,0.0044134,-0.0061104,0.0073732,-0.01795,-0.051165,0.028421
790,-0.021238,0.010991,-0.013674,0.0030979,-0.030118,-0.047877,0.024145
791,-0.031433,0.013622,-0.016634,-0.00051963,-0.042944,-0.049192,0.020857
792,-0.034393,0.010333,-0.01499,-0.0084125,-0.056756,-0.049521,0.017897
793,-0.03242,0.00046697,-0.0067681,-0.01795,-0.07024,-0.048205,0.015266
794,-0.025185,-0.011701,0.0050711,-0.024198,-0.080434,-0.043601,0.0086887
795,-0.014332,-0.019923,0.015924,-0.022883,-0.084381,-0.036037,0.0017824
796,-0.0064392,-0.020909,0.021186,-0.019265,-0.081092,-0.030118,0.00079584
797,-0.004466,-0.016634,0.020857,-0.016634,-0.073857,-0.028144,0.0090175
798,-0.010057,-0.0067681,0.017239,-0.015648,-0.069911,-0.027816,0.01987
799,-0.019265,0.0040845,0.011648,-0.01203,-0.072542,-0.025185,0.030723
800,-0.028144,0.015924,0.0037556,-0.0067681,-0.080763,-0.017292,0.037629
801,-0.033406,0.024474,-0.0064392,-0.004466,-0.088656,-0.0034794,0.039273
802,-0.035051,0.027763,-0.018607,-0.0067681,-0.094247,0.011977,0.036314
803,-0.033078,0.026776,-0.027158,-0.011372,-0.094576,0.026447,0.031052
804,-0.024527,0.025132,-0.0265,-0.013017,-0.088985,0.041247,0.029078
805,-0.0077547,0.027434,-0.018278,-0.0084125,-0.079119,0.055388,0.031052
806,0.012306,0.033354,-0.0067681,-0.00019077,-0.063991,0.061965,0.036971
807,0.030065,0.039273,0.0050711,0.011648,-0.034064,0.059992,0.045851
808,0.04026,0.044535,0.014279,0.027105,0.014937,0.052428,0.053743
809,0.042562,0.049468,0.017239,0.042891,0.080711,0.042891,0.056703
810,0.039602,0.053415,0.013951,0.052757,0.15931,0.032038,0.055388
811,0.036314,0.056046,0.0093464,0.053086,0.24482,0.021843,0.052428
812,0.034998,0.055717,0.0086887,0.049797,0.32999,0.018555,0.047824
813,0.033354,0.050455,0.012635,0.046508,0.39544,0.020199,0.046508
814,0.026776,0.04322,0.021186,0.044206,0.42109,0.026119,0.048482
815,0.014608,0.037629,0.028421,0.041904,0.39807,0.035656,0.052757
816,0.0030979,0.036314,0.033354,0.036971,0.33657,0.042562,0.058019
817,-0.004466,0.034669,0.033025,0.029407,0.26093,0.043549,0.06065
818,-0.0084125,0.034669,0.027763,0.027105,0.19022,0.034998,0.059663
819,-0.012688,0.0373,0.015924,0.031052,0.13333,0.022501,0.059005
820,-0.01795,0.041904,0.0034268,0.035985,0.089919,0.010004,0.06065
821,-0.019594,0.044864,-0.004466,0.038944,0.055059,0.0050711,0.061307
822,-0.015976,0.043877,-0.0090702,0.039602,0.026119,0.0073732,0.060321
823,-0.0067681,0.035656,-0.012359,0.039602,-0.0028217,0.012964,0.059334
824,0.00079584,0.01987,-0.012359,0.037629,-0.034393,0.011977,0.05473
825,0.0037556,0.00046697,-0.011372,0.032696,-0.06432,0.0011247,0.047166
826,0.0047422,-0.016305,-0.014003,0.01987,-0.087669,-0.013017,0.038287
827,0.0024402,-0.024198,-0.021567,0.0040845,-0.1028,-0.025514,0.027434
828,-0.0015062,-0.027487,-0.029789,-0.013017,-0.11069,-0.036366,0.010991
829,-0.0061104,-0.030447,-0.031104,-0.028802,-0.11233,-0.050507,-0.01203
830,-0.013345,-0.034393,-0.02354,-0.039326,-0.11036,-0.06728,-0.034064
831,-0.023211,-0.036695,-0.012359,-0.040313,-0.10905,-0.087669,-0.050836
832,-0.031762,-0.036037,-0.0015062,-0.030447,-0.10905,-0.1074,-0.064649
833,-0.03538,-0.036037,0.0044134,-0.017621,-0.11069,-0.11858,-0.07879
834,-0.034064,-0.037353,0.00046697,-0.0084125,-0.11398,-0.11727,-0.094247
835,-0.030118,-0.041957,-0.012688,-0.0051238,-0.11628,-0.10148,-0.10543
836,-0.029789,-0.051823,-0.028144,-0.0031506,-0.11694,-0.079448,-0.10905
837,-0.034064,-0.064978,-0.040641,-0.0018351,-0.11694,-0.058071,-0.1028
838,-0.04097,-0.073857,-0.048205,0.0011247,-0.12154,-0.043601,-0.091616
839,-0.049521,-0.074186,-0.04985,-0.0008485,-0.12845,-0.03538,-0.081092
840,-0.059058,-0.06728,-0.048534,-0.0087413,-0.13272,-0.033078,-0.07287
841,-0.071555,-0.05544,-0.048205,-0.016963,-0.13174,-0.036037,-0.065964
842,-0.086683,-0.04393,-0.047548,-0.025842,-0.12483,-0.039326,-0.056427
843,-0.099509,-0.038011,-0.047219,-0.034393,-0.11233,-0.04097,-0.04393
844,-0.10214,-0.038339,-0.045574,-0.040641,-0.095891,-0.037353,-0.029789
845,-0.096549,-0.041299,-0.043601,-0.042944,-0.082408,-0.032749,-0.017292
846,-0.085367,-0.045574,-0.044917,-0.041628,-0.072542,-0.031762,-0.012688
847,-0.075173,-0.04985,-0.048534,-0.038011,-0.066622,-0.037353,-0.015648
848,-0.070897,-0.053138,-0.054783,-0.033735,-0.065307,-0.051165,-0.024527
849,-0.074186,-0.05281,-0.059387,-0.028473,-0.069582,-0.067937,-0.040313
850,-0.08175,-0.051165,-0.060373,-0.024856,-0.078132,-0.079777,-0.060373
851,-0.0903,-0.048205,-0.056756,-0.023211,-0.086354,-0.086025,-0.084052
852,-0.098851,-0.043601,-0.051823,-0.024856,-0.088985,-0.091287,-0.1074
853,-0.10411,-0.037682,-0.051823,-0.028144,-0.087341,-0.095562,-0.1268
854,-0.10477,-0.032091,-0.056756,-0.032749,-0.084381,-0.09622,-0.13963
855,-0.10017,-0.024856,-0.06136,-0.038011,-0.080763,-0.089643,-0.14719
856,-0.089972,-0.023211,-0.057085,-0.04097,-0.077146,-0.076817,-0.14884
857,-0.074844,-0.025185,-0.045574,-0.039326,-0.072542,-0.063991,-0.14193
858,-0.06136,-0.025842,-0.028144,-0.029789,-0.068924,-0.0584,-0.13042
859,-0.051494,-0.020581,-0.013017,-0.018278,-0.069582,-0.056756,-0.11628
860,-0.04689,-0.010386,-0.0041372,-0.0077547,-0.07024,-0.055112,-0.1028
861,-0.044588,-0.0024928,-0.0034794,-0.0028217,-0.067609,-0.054125,-0.094247
862,-0.039984,-0.00051963,-0.0077547,-0.0008485,-0.061689,-0.053467,-0.092274
863,-0.028473,-0.0011774,-0.015648,-0.0011774,-0.052481,-0.05281,-0.096878
864,-0.013017,-0.0024928,-0.022554,0.0011247,-0.044588,-0.048863,-0.1051
865,0.0011247,-0.0031506,-0.02946,0.0047422,-0.039655,-0.04097,-0.11069
866,0.010333,-0.002164,-0.031762,0.0096753,-0.037682,-0.032749,-0.11201
867,0.013293,0.0011247,-0.029131,0.012306,-0.034393,-0.025842,-0.11168
868,0.016253,0.0037556,-0.022554,0.0083598,-0.030118,-0.020581,-0.10905
869,0.022172,0.00079584,-0.015648,-0.0011774,-0.027816,-0.016305,-0.1028
870,0.029407,-0.0024928,-0.011701,-0.015319,-0.033078,-0.012688,-0.096549
871,0.032367,-0.0047949,-0.011043,-0.027487,-0.047219,-0.01203,-0.092603
872,0.026776,-0.0024928,-0.011043,-0.032749,-0.066293,-0.007097,-0.090629
873,0.017568,0.0030979,-0.0061104,-0.026829,-0.083065,0.0034268,-0.088327
874,0.012635,0.013293,0.0044134,-0.0097279,-0.089972,0.013293,-0.080106
875,0.01132,0.026447,0.01691,0.012306,-0.087998,0.020199,-0.065307
876,0.013951,0.040589,0.027105,0.032696,-0.07879,0.023159,-0.050507
877,0.021843,0.053086,0.031709,0.045522,-0.069253,0.027434,-0.038339
878,0.032038,0.064267,0.032696,0.047824,-0.059387,0.034011,-0.030447
879,0.039273,0.071502,0.033683,0.04322,-0.047548,0.045193,-0.020252
880,0.039273,0.074133,0.034011,0.039273,-0.034722,0.056374,-0.0028217
881,0.032367,0.071831,0.035985,0.037629,-0.020581,0.066569,0.017897
882,0.021186,0.067556,0.038287,0.036314,-0.0087413,0.07216,0.037629
883,0.012306,0.059663,0.038616,0.03434,-0.0031506,0.069529,0.053743
884,0.0057288,0.049468,0.041247,0.030394,-0.0067681,0.058348,0.062623
885,0.0034268,0.036971,0.043877,0.020528,-0.016963,0.04618,0.068871
886,0.0050711,0.026119,0.040918,0.0057288,-0.028802,0.037629,0.072489
887,0.010333,0.014608,0.029736,-0.0093991,-0.038668,0.03434,0.072818
888,0.01987,0.0057288,0.013951,-0.021238,-0.044588,0.038287,0.069858
889,0.032367,0.0063866,0.0021113,-0.028144,-0.044917,0.044535,0.066569
890,0.049139,0.017239,-0.0024928,-0.028802,-0.042286,0.048482,0.068543
891,0.065912,0.029736,-0.0018351,-0.027158,-0.038339,0.051441,0.075778
892,0.077422,0.037958,0.0021113,-0.021238,-0.02946,0.055059,0.086959
893,0.079066,0.041575,0.0073732,-0.011372,-0.011043,0.063281,0.098798
894,0.076435,0.041575,0.0080309,0.0001381,0.015924,0.070187,0.10998
895,0.074133,0.041247,0.0080309,0.011977,0.045851,0.075449,0.1205
896,0.074133,0.040918,0.010004,0.02283,0.072818,0.07808,0.13037
897,0.072489,0.039273,0.015266,0.031052,0.096825,0.081039,0.13892
898,0.067885,0.035327,0.020857,0.038287,0.11919,0.084328,0.14616
899,0.06065,0.028421,0.026776,0.044206,0.14517,0.085972,0.14747
900,0.053743,0.024145,0.028421,0.046508,0.17542,0.082026,0.13629
901,0.049797,0.025132,0.026776,0.045522,0.20765,0.07216,0.1159
902,0.047824,0.029078,0.018884,0.040589,0.23199,0.059992,0.095839
903,0.044535,0.030394,0.0083598,0.034011,0.24153,0.048153,0.082355
904,0.041904,0.023817,0.0014536,0.027434,0.23298,0.036642,0.076764
905,0.036971,0.011977,-0.0008485,0.024145,0.20864,0.030394,0.078737
906,0.029736,0.0001381,-0.0015062,0.026447,0.17542,0.030065,0.083342
907,0.01987,-0.007097,-0.0031506,0.031709,0.14089,0.031052,0.088603
908,0.0083598,-0.0084125,-0.002164,0.033683,0.10932,0.028421,0.094523
909,-0.0015062,-0.0074258,0.0014536,0.029736,0.086959,0.026119,0.098798
910,-0.0061104,-0.0064392,0.0063866,0.01987,0.070187,0.02579,0.095839
911,-0.0038083,-0.0061104,0.0073732,0.0070443,0.057361,0.022501,0.085315
912,0.00046697,-0.0084125,0.0034268,-0.0061104,0.04322,0.016581,0.067885
913,0.0040845,-0.012359,-0.00051963,-0.010715,0.02579,0.011977,0.048482
914,0.0070443,-0.014661,0.0001381,-0.0097279,0.0077021,0.011648,0.031381
915,0.010991,-0.013674,0.002769,-0.0034794,-0.011701,0.012635,0.019212
916,0.012635,-0.011372,0.0001381,0.0067154,-0.025842,0.014937,0.012964
917,0.010333,-0.0087413,-0.010057,0.018226,-0.033735,0.018226,0.012306
918,0.002769,-0.0031506,-0.022883,0.029736,-0.035708,0.018884,0.014937
919,-0.0080836,0.0070443,-0.0265,0.043877,-0.033735,0.013622,0.018226
920,-0.017621,0.018555,-0.021567,0.058676,-0.027158,0.0054,0.022501
921,-0.020252,0.029078,-0.01203,0.071173,-0.018936,-0.0041372,0.027434
922,-0.015648,0.035985,-0.002164,0.077093,-0.01203,-0.0077547,0.032696
923,-0.0064392,0.034669,0.0060577,0.074462,-0.010386,-0.0031506,0.033354
924,-0.0015062,0.02875,0.011648,0.063938,-0.014003,0.0083598,0.033683
925,-0.0031506,0.023488,0.014279,0.046508,-0.017292,0.01691,0.035985
926,-0.0057815,0.020199,0.01132,0.027763,-0.018278,0.019212,0.039273
927,-0.0061104,0.022172,0.00079584,0.013951,-0.016634,0.019541,0.040589
928,-0.0024928,0.027763,-0.013017,0.0083598,-0.015648,0.021186,0.037958
929,0.0021113,0.036642,-0.020252,0.01132,-0.014661,0.02579,0.032696
930,0.0057288,0.04322,-0.014003,0.020528,-0.014003,0.029078,0.025132
931,0.0086887,0.045522,-0.00051963,0.028092,-0.013674,0.023488,0.019212
932,0.012306,0.042233,0.0083598,0.032367,-0.01499,0.010991,0.018555
933,0.017568,0.038944,0.0080309,0.030065,-0.022883,-0.0051238,0.019212
934,0.026447,0.035985,0.002769,0.02579,-0.035051,-0.020252,0.018555
935,0.03434,0.029736,-0.002164,0.027105,-0.047877,-0.033735,0.017897
936,0.038287,0.020857,-0.0054526,0.031709,-0.058071,-0.045903,0.014608
937,0.034998,0.013293,-0.0064392,0.031709,-0.067609,-0.053467,0.0054
938,0.025461,0.0080309,-0.013017,0.024803,-0.077146,-0.056098,-0.0064392
939,0.0096753,0.0067154,-0.022883,0.0093464,-0.083723,-0.056098,-0.01499
940,-0.0038083,0.0021113,-0.028144,-0.010386,-0.086354,-0.060045,-0.015648
941,-0.010386,-0.0097279,-0.025842,-0.023211,-0.085367,-0.06728,-0.0090702
942,-0.01203,-0.027158,-0.018936,-0.02354,-0.079777,-0.070568,-0.00051963
943,-0.010386,-0.041628,-0.014003,-0.014661,-0.072542,-0.070568,0.0060577
944,-0.0038083,-0.051823,-0.014003,-0.0074258,-0.063004,-0.064649,0.0070443
945,0.0054,-0.051823,-0.016305,-0.007097,-0.050836,-0.051823,0.0060577
946,0.013293,-0.042944,-0.019594,-0.013345,-0.036366,-0.03538,0.0073732
947,0.012306,-0.027816,-0.020581,-0.021896,-0.019923,-0.020581,0.012306
948,0.0086887,-0.010386,-0.017292,-0.030775,-0.0051238,-0.012359,0.01987
949,0.0086887,0.0040845,-0.011372,-0.032749,0.0040845,-0.010715,0.027105
950,0.014937,0.0093464,-0.0018351,-0.026171,0.0054,-0.013345,0.028092
951,0.020857,0.0040845,0.0060577,-0.013345,0.0001381,-0.018278,0.021514
952,0.021514,-0.0067681,0.0096753,-0.0034794,-0.010715,-0.020581,0.012964
953,0.015924,-0.018936,0.0080309,0.0014536,-0.019923,-0.01499,0.0080309
954,0.0050711,-0.0265,0.0024402,0.00046697,-0.026171,-0.0038083,0.0044134
955,-0.0093991,-0.0265,-0.0038083,-0.004466,-0.031104,0.012306,-0.00051963
956,-0.02354,-0.020252,-0.0093991,-0.011043,-0.034064,0.026447,-0.0077547
957,-0.028473,-0.010057,-0.0087413,-0.017621,-0.033735,0.036971,-0.0090702
958,-0.024527,-0.0011774,-0.002164,-0.024856,-0.028144,0.04026,-0.0034794
959,-0.014661,-0.00051963,0.0030979,-0.034064,-0.023211,0.036971,0.0054
960,-0.0077547,-0.0080836,0.0037556,-0.048205,-0.019265,0.029407,0.0073732
961,-0.0047949,-0.018936,-0.0008485,-0.062347,-0.01499,0.022501,0.0011247
962,-0.0057815,-0.026171,-0.011701,-0.070897,-0.010715,0.015595,-0.007097
963,-0.010715,-0.030118,-0.0265,-0.07024,-0.010715,0.010004,-0.015648
964,-0.018607,-0.033406,-0.034393,-0.063333,-0.016305,0.0037556,-0.022554
965,-0.030447,-0.037353,-0.033735,-0.053138,-0.027158,-0.0011774,-0.029789
966,-0.04689,-0.039326,-0.028473,-0.043601,-0.036366,-0.0015062,-0.041957
967,-0.063991,-0.041957,-0.023211,-0.037353,-0.039655,0.0050711,-0.056427
968,-0.076159,-0.045903,-0.019265,-0.03242,-0.037353,0.015595,-0.063991
969,-0.082079,-0.049192,-0.017292,-0.026829,-0.032749,0.023817,-0.063333
970,-0.085696,-0.050179,-0.019923,-0.018278,-0.0265,0.028092,-0.056098
971,-0.088327,-0.045246,-0.031104,-0.0084125,-0.013674,0.028421,-0.049521
972,-0.091945,-0.038011,-0.044259,-0.0011774,0.014608,0.022501,-0.043272
973,-0.094905,-0.033406,-0.051165,0.0040845,0.057361,0.012306,-0.039655
974,-0.096549,-0.033735,-0.048534,0.0067154,0.1034,0.0017824,-0.036695
975,-0.091287,-0.035708,-0.037024,0.0070443,0.14385,-0.0061104,-0.02946
976,-0.079777,-0.035051,-0.022225,0.0060577,0.17181,-0.014003,-0.01795
977,-0.065307,-0.032091,-0.010057,-0.00019077,0.18661,-0.024527,-0.0077547
978,-0.052481,-0.027816,-0.0038083,-0.011701,0.18858,-0.03242,0.00046697
979,-0.043601,-0.021238,-0.002164,-0.021238,0.17279,-0.03242,0.0070443
980,-0.04097,-0.015319,0.0001381,-0.021896,0.14648,-0.025842,0.0086887
981,-0.040641,-0.0090702,0.0037556,-0.015319,0.11491,-0.016963,0.0083598
982,-0.038997,-0.0047949,0.0073732,-0.007097,0.082355,-0.011701,0.0086887
983,-0.038668,-0.0034794,0.0073732,-0.0028217,0.05177,-0.010386,0.010991
984,-0.036695,-0.002164,0.0040845,-0.0064392,0.030394,-0.013674,0.01691
985,-0.025185,0.00079584,0.00046697,-0.0087413,0.01691,-0.01795,0.019212
986,-0.0061104,0.0037556,-0.0018351,-0.0038083,0.0060577,-0.022554,0.014608
987,0.0083598,0.0080309,-0.0041372,0.0067154,-0.0047949,-0.02946,0.0050711
988,0.01132,0.0096753,-0.0067681,0.019212,-0.016634,-0.042615,-0.0034794
989,0.0063866,0.0077021,-0.0061104,0.029736,-0.029131,-0.060045,-0.010057
990,-0.002164,0.0050711,-0.00051963,0.035985,-0.047548,-0.074186,-0.015319
991,-0.0093991,0.0050711,0.0037556,0.036314,-0.066951,-0.083723,-0.018936
992,-0.013017,0.0034268,0.0044134,0.032367,-0.084381,-0.088985,-0.021896
993,-0.01499,0.0024402,0.002769,0.025461,-0.097207,-0.090629,-0.024856
994,-0.014003,0.0063866,-0.0008485,0.018226,-0.10181,-0.08471,-0.0265
995,-0.0087413,0.014937,-0.0061104,0.014608,-0.1005,-0.074844,-0.024856
996,0.0040845,0.025132,-0.0087413,0.014937,-0.094905,-0.064978,-0.020909
997,0.019212,0.032367,-0.007097,0.015266,-0.088656,-0.053796,-0.018278
998,0.032696,0.03434,-0.002164,0.011977,-0.082736,-0.042615,-0.016634
999,0.038616,0.033025,0.0040845,0.0021113,-0.074844,-0.034393,-0.01203
1000,0.035327,0.032038,0.010991,-0.0093991,-0.068266,-0.031433,0.0014536
1001,0.027434,0.030394,0.017239,-0.018278,-0.062676,-0.033735,0.018226
1002,0.021843,0.027105,0.01987,-0.024527,-0.060045,-0.039326,0.033025
1003,0.023159,0.023159,0.017239,-0.027487,-0.062018,-0.047877,0.043549
1004,0.033683,0.018226,0.013293,-0.028802,-0.067937,-0.055112,0.049468
1005,0.048482,0.017897,0.010991,-0.027487,-0.073857,-0.052152,0.050784
1006,0.059992,0.021843,0.011977,-0.027158,-0.077803,-0.038011,0.049468
1007,0.059992,0.021186,0.011648,-0.024527,-0.078132,-0.020909,0.044206
1008,0.050455,0.013951,0.010662,-0.021567,-0.074844,-0.004466,0.036314
1009,0.036314,0.002769,0.0073732,-0.016634,-0.070568,0.0070443,0.026119
1010,0.024145,-0.0097279,0.002769,-0.0097279,-0.06432,0.0093464,0.0086887
1011,0.020857,-0.01795,0.00046697,-0.0074258,-0.061031,0.0021113,-0.01499
1012,0.023159,-0.01795,0.00079584,-0.0087413,-0.059716,-0.007097,-0.037353
1013,0.02579,-0.0084125,-0.00019077,-0.011701,-0.062347,-0.0097279,-0.050179
1014,0.02579,0.0034268,-0.0054526,-0.01203,-0.063991,-0.004466,-0.051494
1015,0.021843,0.015266,-0.011701,-0.0074258,-0.060702,0.0037556,-0.047877
1016,0.012306,0.023159,-0.018278,0.00046697,-0.054454,0.0080309,-0.043272
1017,0.00079584,0.027105,-0.022225,0.0063866,-0.049192,0.0086887,-0.039326
1018,-0.010057,0.026119,-0.022225,0.0080309,-0.042286,0.0070443,-0.034722
1019,-0.016963,0.022172,-0.01795,0.0044134,-0.035708,0.0040845,-0.028802
1020,-0.02354,0.015924,-0.014332,-0.0028217,-0.031433,0.00079584,-0.021567
1021,-0.030118,0.014608,-0.014003,-0.0084125,-0.03242,-0.0028217,-0.01795
1022,-0.03538,0.016581,-0.018278,-0.0090702,-0.037353,-0.0038083,-0.018607
1023,-0.038339,0.020528,-0.023869,-0.0051238,-0.045903,-0.0028217,-0.024527
1024,-0.037024,0.020199,-0.02354,0.0040845,-0.054454,-0.002164,-0.03538
1025,-0.034722,0.013951,-0.018278,0.016253,-0.057743,-0.0057815,-0.044588
1026,-0.031762,-0.00051963,-0.013674,0.024145,-0.05281,-0.015319,-0.049192
1027,-0.031762,-0.015648,-0.0074258,0.022501,-0.039326,-0.0265,-0.04985
1028,-0.033735,-0.021238,0.0014536,0.015924,-0.019594,-0.03242,-0.04985
1029,-0.038011,-0.013674,0.0080309,0.0083598,0.0011247,-0.033735,-0.050507
1030,-0.044259,0.00079584,0.0040845,0.0047422,0.015266,-0.028473,-0.051494
1031,-0.050836,0.013622,-0.011043,0.0030979,0.014937,-0.022883,-0.048863
1032,-0.055769,0.018884,-0.030775,0.0021113,0.0014536,-0.021896,-0.040313
1033,-0.05544,0.013293,-0.050507,-0.00051963,-0.015319,-0.0265,-0.029789
1034,-0.051494,0.0017824,-0.064649,-0.0028217,-0.027487,-0.033735,-0.020909
1035,-0.048863,-0.011043,-0.070568,-0.0031506,-0.033406,-0.040641,-0.016963
1036,-0.048863,-0.021567,-0.067609,0.00079584,-0.032749,-0.048863,-0.014661
1037,-0.053138,-0.025185,-0.06136,0.010004,-0.028802,-0.055769,-0.01203
1038,-0.058729,-0.024856,-0.051823,0.020528,-0.023211,-0.057414,-0.011043
1039,-0.066951,-0.020581,-0.041628,0.028421,-0.01795,-0.053467,-0.011701
1040,-0.074844,-0.015976,-0.030118,0.030065,-0.01203,-0.045574,-0.018936
1041,-0.078461,-0.013674,-0.018936,0.028421,-0.0074258,-0.033735,-0.03242
1042,-0.075501,-0.014332,-0.011372,0.02579,-0.0061104,-0.022883,-0.044588
1043,-0.063991,-0.016634,-0.011701,0.02283,-0.0087413,-0.01795,-0.04689
1044,-0.045903,-0.01795,-0.01795,0.023159,-0.014003,-0.019265,-0.032749
1045,-0.023869,-0.020581,-0.025514,0.026119,-0.017292,-0.020252,-0.0093991
1046,-0.007097,-0.02354,-0.028473,0.02875,-0.015648,-0.018278,0.013293
1047,0.0024402,-0.023869,-0.024856,0.02579,-0.007097,-0.014003,0.027763
1048,0.0044134,-0.019923,-0.016963,0.013293,0.0050711,-0.0084125,0.035327
1049,0.0001381,-0.014003,-0.010386,-0.0057815,0.016253,-0.00019077,0.039273
1050,0.0001381,-0.007097,-0.0097279,-0.020909,0.024803,0.0083598,0.042891
1051,0.0054,-0.0038083,-0.014661,-0.021896,0.032367,0.017239,0.050126
1052,0.014279,-0.0041372,-0.021896,-0.010386,0.037629,0.025461,0.058348
1053,0.021843,-0.0087413,-0.027158,0.0080309,0.041575,0.033025,0.064596
1054,0.026776,-0.014661,-0.02946,0.028092,0.04322,0.040918,0.067227
1055,0.030065,-0.014661,-0.027158,0.043549,0.045193,0.045193,0.067885
1056,0.036314,-0.0090702,-0.017292,0.051113,0.052099,0.048482,0.067556
1057,0.044864,0.0001381,-0.0028217,0.051113,0.062952,0.05177,0.061636
1058,0.052757,0.0057288,0.011648,0.040589,0.070187,0.056703,0.052428
1059,0.059992,0.0083598,0.022501,0.025132,0.070845,0.059663,0.042233
1060,0.06624,0.010662,0.028092,0.010991,0.065912,0.057361,0.033683
1061,0.066898,0.010662,0.030394,0.002769,0.063281,0.04618,0.027763
1062,0.065912,0.0047422,0.029078,0.0011247,0.065583,0.032367,0.027434
1063,0.069529,-0.0054526,0.025461,-0.00051963,0.069529,0.020857,0.029407
1064,0.074791,-0.014332,0.021843,-0.0038083,0.07216,0.013293,0.030065
1065,0.079724,-0.01795,0.014937,-0.0018351,0.067556,0.010333,0.026447
1066,0.080711,-0.012688,0.0057288,0.0063866,0.056703,0.01132,0.021843
1067,0.077751,-0.0008485,0.0011247,0.015595,0.047495,0.016253,0.019541
1068,0.071173,0.012964,0.0021113,0.020528,0.04322,0.026776,0.017897
1069,0.061965,0.028092,0.0057288,0.01691,0.042562,0.037629,0.018884
1070,0.054072,0.043549,0.012635,0.0067154,0.042233,0.045193,0.021186
1071,0.048482,0.059334,0.02283,-0.0028217,0.038944,0.046837,0.02283
1072,0.045193,0.070187,0.033354,-0.0077547,0.031709,0.045193,0.024145
1073,0.042233,0.070187,0.042233,-0.0064392,0.020857,0.039931,0.026447
1074,0.039602,0.059992,0.045522,-0.0011774,0.010004,0.034998,0.026447
1075,0.036642,0.045851,0.042233,0.0057288,0.0021113,0.029736,0.023159
1076,0.031052,0.035656,0.033354,0.011648,-0.0041372,0.023817,0.015595
1077,0.024803,0.030723,0.020857,0.01691,-0.0064392,0.014279,0.0070443
1078,0.01691,0.026776,0.0083598,0.020528,-0.012688,0.00046697,0.00079584
1079,0.0083598,0.023488,-0.0034794,0.01691,-0.024198,-0.016634,0.002769
1080,0.0017824,0.020857,-0.013017,0.0034268,-0.044588,-0.034064,0.0093464
1081,-0.0031506,0.018226,-0.018278,-0.014332,-0.069911,-0.050179,0.013951
1082,-0.0057815,0.013951,-0.018936,-0.0265,-0.095562,-0.061031,0.014608
1083,-0.0087413,0.0063866,-0.016963,-0.025842,-0.11497,-0.062676,0.012964
1084,-0.011701,0.0011247,-0.010057,-0.011372,-0.12812,-0.052152,0.016581
1085,-0.017292,-0.0008485,-0.0034794,0.0034268,-0.13207,-0.033735,0.023488
1086,-0.025185,-0.0024928,-0.0008485,0.0086887,-0.13108,-0.01203,0.027763
1087,-0.030775,-0.0087413,-0.0041372,-0.00019077,-0.12352,0.0057288,0.027434
1088,-0.033406,-0.015976,-0.010057,-0.01795,-0.11266,0.014937,0.022501
1089,-0.033406,-0.022225,-0.017621,-0.036366,-0.10313,0.014937,0.013951
1090,-0.033406,-0.02354,-0.024856,-0.050507,-0.094905,0.014608,0.0034268
1091,-0.031104,-0.019923,-0.030447,-0.055769,-0.084381,0.020857,-0.0041372
1092,-0.024527,-0.018607,-0.031104,-0.049192,-0.069911,0.029407,-0.0064392
1093,-0.016634,-0.021567,-0.027158,-0.035708,-0.053138,0.035656,-0.0061104
1094,-0.0097279,-0.022225,-0.020909,-0.019923,-0.035051,0.035985,-0.0054526
1095,-0.0087413,-0.019923,-0.016634,-0.0087413,-0.012688,0.03434,-0.0047949
1096,-0.013345,-0.014332,-0.012688,-0.0034794,0.018555,0.032696,-0.004466
1097,-0.021896,-0.0080836,-0.0064392,0.0014536,0.059005,0.031709,-0.0064392
1098,-0.0265,-0.00019077,0.0057288,0.0077021,0.10472,0.034669,-0.0064392
1099,-0.026171,0.0060577,0.016253,0.013951,0.14747,0.04322,-0.0024928
1100,-0.020252,0.0067154,0.017568,0.018884,0.18365,0.052428,0.0057288
1101,-0.012359,0.0017824,0.0093464,0.020199,0.20305,0.056046,0.013622
1102,-0.0054526,-0.0024928,-0.0011774,0.021514,0.20436,0.04322,0.017568
1103,-0.0024928,-0.00019077,-0.0084125,0.023488,0.19351,0.015266,0.019212
1104,-0.0041372,0.0070443,-0.01203,0.027763,0.17345,-0.014661,0.022172
1105,-0.0077547,0.014608,-0.011372,0.031709,0.14879,-0.038997,0.023817
1106,-0.010386,0.021186,-0.0080836,0.034998,0.12478,-0.048534,0.019541
1107,-0.016305,0.024145,-0.0057815,0.034011,0.10472,-0.04689,0.0083598
1108,-0.024527,0.02283,-0.0057815,0.030065,0.086301,-0.038011,-0.0077547
1109,-0.028473,0.018226,-0.0064392,0.024474,0.0692,-0.02946,-0.021896
1110,-0.021238,0.013622,-0.0064392,0.01987,0.053086,-0.024527,-0.028473
1111,-0.0031506,0.011648,-0.0057815,0.021186,0.0373,-0.024198,-0.026829
1112,0.015924,0.012306,-0.0054526,0.024474,0.023488,-0.026829,-0.021567
1113,0.027105,0.016253,-0.0054526,0.02579,0.013293,-0.028473,-0.014332
1114,0.025461,0.021514,-0.0087413,0.02283,0.0050711,-0.025842,-0.0064392
1115,0.016253,0.023488,-0.012359,0.018226,-0.0041372,-0.020581,0.00046697
1116,0.0093464,0.017897,-0.013017,0.017568,-0.013674,-0.011043,0.0054
1117,0.0057288,0.012964,-0.0077547,0.021514,-0.020581,0.0001381,0.0044134
1118,0.0060577,0.012635,-0.0008485,0.029407,-0.025514,0.0096753,0.00046697
1119,0.0057288,0.015266,0.0021113,0.036971,-0.0265,0.016581,0.00079584
1120,0.002769,0.014279,0.0021113,0.038944,-0.027158,0.022172,0.01132
1121,-0.0028217,0.010333,0.002769,0.036971,-0.031104,0.028421,0.028092
1122,-0.0051238,0.0067154,0.0057288,0.030394,-0.036366,0.035656,0.038616
1123,-0.00051963,0.002769,0.0083598,0.024803,-0.039984,0.04026,0.0373
1124,0.0093464,-0.002164,0.0096753,0.02283,-0.043601,0.041904,0.026119
1125,0.020528,-0.0061104,0.0093464,0.024474,-0.045903,0.040918,0.013951
1126,0.024803,-0.0090702,0.0096753,0.031709,-0.049521,0.034998,0.0090175
1127,0.021514,-0.0097279,0.0080309,0.039273,-0.054783,0.024145,0.011648
1128,0.014279,-0.0087413,0.002769,0.040589,-0.060702,0.010991,0.01691
1129,0.0044134,-0.0064392,-0.0047949,0.035327,-0.069911,-0.0024928,0.018226
1130,-0.002164,-0.004466,-0.012359,0.025461,-0.081092,-0.01203,0.017239
1131,-0.0077547,-0.0031506,-0.017621,0.010662,-0.092931,-0.01499,0.019212
1132,-0.011043,-0.0031506,-0.018607,-0.004466,-0.097207,-0.011701,0.025461
1133,-0.015648,-0.0034794,-0.014003,-0.016305,-0.092603,-0.0064392,0.038287
1134,-0.020581,-0.0064392,-0.0054526,-0.022554,-0.079448,-0.004466,0.054401
1135,-0.031433,-0.014003,0.002769,-0.028144,-0.062676,-0.0084125,0.07216
1136,-0.045574,-0.025514,0.0067154,-0.034064,-0.048863,-0.015648,0.090248
1137,-0.0584,-0.037024,0.0083598,-0.041299,-0.041957,-0.022883,0.10406
1138,-0.063333,-0.043601,0.010333,-0.044259,-0.040313,-0.028144,0.11294
1139,-0.058729,-0.043272,0.01132,-0.041628,-0.041299,-0.026829,0.1159
1140,-0.047877,-0.036037,0.0083598,-0.031433,-0.039984,-0.020252,0.11228
1141,-0.034722,-0.028473,0.0034268,-0.016634,-0.036695,-0.01203,0.10274
1142,-0.024198,-0.020252,-0.0011774,-0.0015062,-0.036037,-0.0064392,0.089919
1143,-0.01499,-0.011372,-0.0034794,0.0083598,-0.038668,-0.007097,0.074133
1144,-0.0093991,-0.0041372,-0.0015062,0.012306,-0.041957,-0.011701,0.057032
1145,-0.0080836,0.00046697,0.0044134,0.010662,-0.045246,-0.018278,0.038616
1146,-0.013017,0.00079584,0.012306,0.0080309,-0.048863,-0.027816,0.016253
1147,-0.023211,-0.0041372,0.018555,0.0086887,-0.04985,-0.041628,-0.0087413
1148,-0.033406,-0.010386,0.021843,0.0080309,-0.048205,-0.05281,-0.029131
1149,-0.040641,-0.015648,0.019541,0.0030979,-0.041299,-0.057743,-0.042615
1150,-0.041957,-0.017621,0.012635,-0.007097,-0.033078,-0.057414,-0.048205
1151,-0.039984,-0.016305,0.0073732,-0.016963,-0.029789,-0.05281,-0.050836
1152,-0.036037,-0.01203,0.0047422,-0.025514,-0.035051,-0.04985,-0.051494
1153,-0.031433,-0.010057,0.0054,-0.035051,-0.046561,-0.053467,-0.05281
1154,-0.030118,-0.014661,0.0070443,-0.045574,-0.059058,-0.0584,-0.05544
1155,-0.030447,-0.023211,0.0050711,-0.054454,-0.064978,-0.062347,-0.058729
1156,-0.028144,-0.030775,-0.00019077,-0.06136,-0.060045,-0.063662,-0.060045
1157,-0.022225,-0.03538,-0.0067681,-0.064649,-0.047548,-0.062676,-0.06136
1158,-0.016305,-0.035051,-0.010715,-0.060045,-0.035051,-0.063991,-0.065307
1159,-0.016634,-0.033078,-0.011043,-0.052152,-0.027158,-0.068595,-0.077803
1160,-0.020909,-0.034064,-0.0087413,-0.045903,-0.022554,-0.072213,-0.097536
1161,-0.029789,-0.037353,-0.013017,-0.045903,-0.019594,-0.070568,-0.11891
1162,-0.040641,-0.037353,-0.023869,-0.050836,-0.020252,-0.063004,-0.13667
1163,-0.04689,-0.034722,-0.034064,-0.05544,-0.024198,-0.053467,-0.14884
1164,-0.049192,-0.032749,-0.039326,-0.054783,-0.027487,-0.045246,-0.15147
1165,-0.049521,-0.030775,-0.040313,-0.04689,-0.024856,-0.039655,-0.14588
1166,-0.04393,-0.031433,-0.036366,-0.03538,-0.019923,-0.038339,-0.13667
1167,-0.035051,-0.034722,-0.027487,-0.023211,-0.016634,-0.038339,-0.12812
1168,-0.025514,-0.036366,-0.020252,-0.014332,-0.01795,-0.037353,-0.12089
1169,-0.018607,-0.034393,-0.016963,-0.013017,-0.020581,-0.029131,-0.11332
1170,-0.01499,-0.024856,-0.016963,-0.016634,-0.022225,-0.013345,-0.10674
1171,-0.012688,-0.013674,-0.017292,-0.021567,-0.02354,0.0047422,-0.10214
1172,-0.014661,-0.0024928,-0.015976,-0.022883,-0.025185,0.020199,-0.097536
1173,-0.015976,0.0073732,-0.011043,-0.015976,-0.028144,0.032367,-0.091945
1174,-0.014003,0.016253,-0.0024928,-0.0051238,-0.032749,0.04026,-0.087998
1175,-0.010057,0.023817,0.0057288,0.0080309,-0.03538,0.045193,-0.082736
1176,-0.0054526,0.027434,0.01132,0.018884,-0.033078,0.044864,-0.075501
1177,0.0001381,0.032367,0.010333,0.02579,-0.031104,0.044535,-0.064978
1178,0.0060577,0.0373,0.0070443,0.029078,-0.032749,0.044535,-0.05281
1179,0.011648,0.041247,0.0030979,0.027105,-0.037353,0.046837,-0.037682
1180,0.014279,0.042891,-0.00051963,0.022501,-0.038339,0.048153,-0.021238
1181,0.013293,0.044206,-0.002164,0.019212,-0.03538,0.045193,-0.0057815
1182,0.011977,0.044535,-0.0031506,0.015266,-0.035051,0.031381,0.0070443
1183,0.015266,0.041247,-0.0067681,0.010662,-0.041628,0.010662,0.016253
1184,0.023817,0.033683,-0.01203,0.0070443,-0.055112,-0.0077547,0.023159
1185,0.032367,0.023817,-0.017292,0.0060577,-0.07287,-0.019265,0.027105
1186,0.034998,0.0093464,-0.018936,0.0034268,-0.091616,-0.021567,0.032038
1187,0.030065,-0.0024928,-0.017292,-0.0031506,-0.1074,-0.018278,0.031709
1188,0.019541,-0.0077547,-0.015648,-0.010057,-0.11891,-0.013345,0.029736
1189,0.0070443,-0.0028217,-0.017621,-0.010057,-0.11924,-0.0084125,0.027763
1190,-0.0041372,0.010333,-0.02354,-0.00019077,-0.11135,-0.0018351,0.02875
1191,-0.0080836,0.025132,-0.032091,0.013951,-0.09622,0.0021113,0.032696
1192,-0.002164,0.031381,-0.039326,0.028421,-0.068595,-0.0011774,0.036971
1193,0.010662,0.027434,-0.04393,0.038287,-0.020252,-0.01203,0.042891
1194,0.021514,0.015266,-0.042615,0.042233,0.045522,-0.021567,0.049797
1195,0.023817,0.0030979,-0.03538,0.042562,0.12116,-0.024527,0.054072
1196,0.021186,-0.002164,-0.026829,0.038944,0.19877,-0.022554,0.051441
1197,0.016253,0.0001381,-0.02354,0.033683,0.27244,-0.018278,0.044206
1198,0.0086887,0.0073732,-0.028473,0.026447,0.32835,-0.011372,0.039273
1199,0.0044134,0.014937,-0.03538,0.020528,0.3494,-0.004466,0.040589
1200,0.0077021,0.01987,-0.037682,0.016253,0.32999,0.002769,0.048153
1201,0.016253,0.019541,-0.036695,0.015595,0.28132,0.01132,0.058676
1202,0.025461,0.014937,-0.032749,0.014937,0.22212,0.02283,0.067556
1203,0.031381,0.0096753,-0.0265,0.010662,0.1672,0.031709,0.072489
1204,0.032696,0.0060577,-0.022883,0.0083598,0.11985,0.035656,0.070516
1205,0.030394,0.010662,-0.022554,0.013622,0.080711,0.037629,0.063938
1206,0.028421,0.020199,-0.016963,0.025461,0.052099,0.041904,0.060979
1207,0.026776,0.032038,-0.0077547,0.038616,0.032696,0.045851,0.064596
1208,0.024145,0.041575,-0.0011774,0.046837,0.021186,0.047166,0.075778
1209,0.017897,0.045193,0.00079584,0.048482,0.011977,0.045851,0.092221
1210,0.0096753,0.041904,-0.0024928,0.047166,0.0057288,0.043549,0.10636
1211,0.0050711,0.031381,-0.0041372,0.043549,0.0001381,0.040918,0.11294
1212,0.0070443,0.017568,-0.0041372,0.041247,-0.0041372,0.042891,0.10866
1213,0.01691,0.0057288,-0.0018351,0.039273,-0.0077547,0.044864,0.098469
1214,0.027763,-0.0031506,0.0001381,0.034998,-0.01499,0.046837,0.088932
1215,0.035656,-0.004466,-0.0024928,0.029407,-0.024198,0.041904,0.082026
1216,0.035985,0.00079584,-0.01203,0.024803,-0.036366,0.026447,0.076435
1217,0.035656,0.0077021,-0.021896,0.020199,-0.048205,0.0021113,0.071502
1218,0.0373,0.010333,-0.029131,0.013951,-0.059716,-0.021567,0.068543
1219,0.04026,0.010333,-0.029131,0.010004,-0.066951,-0.039655,0.067556
1220,0.042562,0.0080309,-0.020581,0.0070443,-0.068266,-0.048205,0.068871
1221,0.042233,0.01132,-0.0054526,0.0067154,-0.063991,-0.047548,0.074462
1222,0.042233,0.020528,0.0080309,0.0093464,-0.056756,-0.038339,0.07808
1223,0.046837,0.031709,0.010004,0.014608,-0.051494,-0.02354,0.079724
1224,0.055388,0.040589,-0.0011774,0.019541,-0.049521,-0.0080836,0.080053
1225,0.061636,0.048482,-0.018278,0.022501,-0.04985,0.0024402,0.080711
1226,0.062294,0.054401,-0.031433,0.023159,-0.050507,0.0073732,0.080711
1227,0.057361,0.058348,-0.03242,0.018555,-0.053138,0.0073732,0.078409
1228,0.049468,0.059005,-0.023211,0.010662,-0.057085,0.0040845,0.071831
1229,0.04026,0.052099,-0.01203,0.0030979,-0.058729,-0.0015062,0.063281
1230,0.027434,0.039273,-0.0051238,-0.002164,-0.058071,-0.0024928,0.057032
1231,0.010991,0.02875,-0.0024928,-0.0097279,-0.054454,0.0014536,0.051441
1232,-0.010386,0.023817,-0.0031506,-0.019594,-0.05281,0.0073732,0.044206
1233,-0.029789,0.023159,-0.0067681,-0.029131,-0.052481,0.010004,0.037958
1234,-0.042615,0.021514,-0.0080836,-0.036695,-0.053796,0.0086887,0.030394
1235,-0.046232,0.018555,-0.0077547,-0.04097,-0.052481,0.0034268,0.025132
1236,-0.036037,0.012964,-0.0057815,-0.04393,-0.047548,-0.0024928,0.023488
1237,-0.019594,0.0024402,-0.0074258,-0.046561,-0.04097,-0.0064392,0.026776
1238,-0.0057815,-0.0090702,-0.0097279,-0.045246,-0.034393,-0.0087413,0.034998
1239,0.00046697,-0.017292,-0.0077547,-0.039326,-0.02946,-0.004466,0.044206
1240,-0.00051963,-0.022225,-0.0011774,-0.032091,-0.022225,0.0047422,0.049797
1241,0.0001381,-0.02354,0.0070443,-0.024198,-0.013674,0.012306,0.051113
1242,0.0093464,-0.019594,0.013622,-0.019923,-0.0074258,0.0096753,0.049139
1243,0.024145,-0.012359,0.015266,-0.020581,-0.004466,-0.0024928,0.042891
1244,0.038616,-0.0074258,0.011648,-0.0265,-0.0054526,-0.019594,0.033025
1245,0.044864,-0.0057815,0.0030979,-0.031433,-0.0080836,-0.033735,0.020199
1246,0.038944,-0.0047949,-0.0051238,-0.030775,-0.013674,-0.036037,0.0063866
1247,0.022501,-0.0031506,-0.0093991,-0.0265,-0.019265,-0.0265,-0.0077547
1248,0.0060577,-0.00051963,-0.0087413,-0.025842,-0.024527,-0.018278,-0.020252
1249,-0.0038083,0.0017824,-0.0067681,-0.02946,-0.029789,-0.015976,-0.028144
1250,-0.0090702,0.0040845,-0.0031506,-0.032749,-0.037024,-0.01795,-0.030447
1251,-0.01203,0.002769,0.002769,-0.029789,-0.043272,-0.023869,-0.0265
1252,-0.013674,0.0021113,0.0093464,-0.019265,-0.044259,-0.030447,-0.020581
1253,-0.01499,-0.00019077,0.017239,-0.007097,-0.042615,-0.032749,-0.013674
1254,-0.016963,-0.0034794,0.023159,-0.00019077,-0.040641,-0.031104,-0.0080836
1255,-0.024527,-0.010386,0.021186,0.0011247,-0.041628,-0.030775,-0.007097
1256,-0.033078,-0.015648,0.010662,0.00046697,-0.044259,-0.029789,-0.013674
1257,-0.038997,-0.018607,-0.0031506,-0.0011774,-0.047877,-0.027487,-0.027158
1258,-0.035708,-0.014661,-0.015648,-0.0038083,-0.051165,-0.0265,-0.043272
1259,-0.023869,-0.0077547,-0.020252,-0.0061104,-0.053138,-0.030775,-0.059387
1260,-0.0097279,-0.0047949,-0.01499,-0.0047949,-0.052481,-0.036366,-0.073528
1261,0.0001381,-0.0051238,-0.0051238,0.00079584,-0.054125,-0.037024,-0.086683
1262,-0.0018351,-0.0064392,0.0030979,0.010004,-0.057414,-0.031104,-0.096549
1263,-0.012359,-0.0061104,0.0083598,0.023488,-0.060373,-0.020252,-0.097536
1264,-0.025514,-0.0057815,0.013293,0.035656,-0.06136,-0.0097279,-0.087341
1265,-0.035708,-0.0077547,0.020199,0.045522,-0.059716,-0.0041372,-0.069253
1266,-0.040641,-0.011372,0.026776,0.054072,-0.059058,-0.0051238,-0.049521
1267,-0.045574,-0.01203,0.030065,0.056046,-0.061689,-0.013345,-0.038339
1268,-0.051823,-0.010386,0.02875,0.050455,-0.063333,-0.024527,-0.034722
1269,-0.058071,-0.0097279,0.024803,0.034998,-0.062018,-0.03242,-0.032749
1270,-0.066293,-0.014003,0.021186,0.017897,-0.05544,-0.031104,-0.026829
1271,-0.075501,-0.021238,0.016581,0.0017824,-0.047548,-0.01795,-0.016305
1272,-0.082736,-0.028802,0.010004,-0.0084125,-0.039984,0.0021113,-0.0067681
1273,-0.08175,-0.033735,0.00079584,-0.014003,-0.032749,0.021514,-0.0054526
1274,-0.071555,-0.033406,-0.004466,-0.013017,-0.02354,0.032696,-0.01499
1275,-0.061689,-0.033078,-0.00019077,-0.0074258,-0.014003,0.032367,-0.030775
1276,-0.055769,-0.036366,0.0086887,0.00079584,-0.0038083,0.024474,-0.040313
1277,-0.04985,-0.045574,0.013951,0.0090175,0.0070443,0.013951,-0.038339
1278,-0.041957,-0.055112,0.011648,0.016253,0.015595,0.0060577,-0.028802
1279,-0.033735,-0.060702,0.0057288,0.018884,0.023817,-0.0024928,-0.019594
1280,-0.028802,-0.059387,0.0037556,0.020857,0.034011,-0.010715,-0.012688
1281,-0.0265,-0.050507,0.0057288,0.024145,0.049139,-0.017292,-0.011372
1282,-0.030775,-0.038011,0.0067154,0.028421,0.070845,-0.019923,-0.011372
1283,-0.038011,-0.025842,0.0054,0.026447,0.094852,-0.016305,-0.01499
1284,-0.044917,-0.017292,0.0001381,0.019212,0.11458,-0.0074258,-0.017621
1285,-0.050179,-0.013345,-0.0047949,0.010333,0.133,0.0024402,-0.016305
1286,-0.050836,-0.0093991,-0.0061104,0.0054,0.15175,0.010333,-0.014003
1287,-0.045574,-0.0034794,-0.0028217,0.0080309,0.16654,0.01132,-0.01203
1288,-0.034064,0.0044134,0.0014536,0.015266,0.17016,0.0034268,-0.0090702
1289,-0.018936,0.010333,0.0054,0.025132,0.16095,-0.0064392,-0.0061104
1290,-0.0061104,0.012635,0.0077021,0.033025,0.14155,-0.011372,-0.0041372
1291,0.0021113,0.010004,0.0060577,0.036314,0.11853,-0.0093991,-0.0018351
1292,0.0037556,0.0034268,0.0024402,0.031381,0.094852,-0.0031506,0.0040845
1293,0.0024402,-0.0034794,-0.0008485,0.018884,0.077751,-0.0018351,0.010333
1294,0.0047422,-0.0087413,-0.0015062,0.0050711,0.063281,-0.0064392,0.013951
1295,0.01132,-0.014332,0.0001381,-0.0077547,0.045193,-0.014332,0.019541
1296,0.016581,-0.016634,0.0014536,-0.016634,0.02579,-0.021238,0.023817
1297,0.018555,-0.013345,-0.0011774,-0.020581,0.0086887,-0.023869,0.028421
1298,0.015924,-0.004466,-0.010715,-0.021567,-0.0061104,-0.022554,0.031381
1299,0.015595,0.0054,-0.025514,-0.021896,-0.01795,-0.016963,0.031052
1300,0.017897,0.010662,-0.034722,-0.020909,-0.014661,-0.0067681,0.027763
1301,0.020857,0.011648,-0.033735,-0.01795,0.0060577,0.0044134,0.029078
1302,0.023159,0.011648,-0.025185,-0.013017,0.042233,0.013951,0.032038
1303,0.023159,0.014608,-0.015976,-0.01203,0.082355,0.021843,0.03434
1304,0.018884,0.020199,-0.0093991,-0.015648,0.11721,0.027105,0.033683
1305,0.010004,0.026776,-0.010057,-0.021896,0.14155,0.025461,0.031709
1306,0.0050711,0.031381,-0.015976,-0.023869,0.14879,0.016581,0.028092
1307,0.0054,0.030394,-0.021567,-0.020581,0.14155,0.0086887,0.02283
1308,0.0067154,0.025132,-0.026829,-0.014332,0.12445,0.0054,0.017239
1309,0.0054,0.017568,-0.028802,-0.0097279,0.098141,0.0050711,0.010004
1310,-0.00051963,0.010991,-0.025514,-0.0074258,0.064925,0.0057288,0.0014536
1311,-0.0064392,0.0044134,-0.021238,-0.010386,0.027763,0.0073732,-0.0024928
1312,-0.0067681,-0.0008485,-0.018278,-0.017292,-0.01203,0.0067154,-0.00051963
1313,0.0017824,-0.0008485,-0.016963,-0.019265,-0.04985,-0.0008485,0.002769
1314,0.013622,-0.0008485,-0.016305,-0.015648,-0.080106,-0.016963,0.0001381
1315,0.020857,-0.004466,-0.019594,-0.011372,-0.099838,-0.03538,-0.010057
1316,0.018884,-0.01203,-0.022883,-0.0090702,-0.11201,-0.046232,-0.025514
1317,0.0090175,-0.018936,-0.025185,-0.0041372,-0.1176,-0.047548,-0.039655
1318,-0.0051238,-0.022554,-0.027158,0.0057288,-0.11891,-0.045903,-0.051494
1319,-0.020252,-0.02354,-0.029789,0.018555,-0.11694,-0.042615,-0.062347
1320,-0.031762,-0.019923,-0.034722,0.030723,-0.10937,-0.036695,-0.071884
1321,-0.038011,-0.015648,-0.03538,0.038944,-0.10017,-0.028802,-0.080763
1322,-0.041299,-0.013017,-0.028144,0.042233,-0.098193,-0.021896,-0.087341
1323,-0.04393,-0.012359,-0.015976,0.040589,-0.10378,-0.015648,-0.093918
1324,-0.048863,-0.013674,-0.0041372,0.038287,-0.11628,-0.011701,-0.09918
1325,-0.054454,-0.01499,0.0047422,0.039931,-0.12779,-0.012359,-0.10214
1326,-0.063004,-0.016963,0.015595,0.046508,-0.13272,-0.01499,-0.10181
1327,-0.073528,-0.019923,0.02579,0.055059,-0.13075,-0.015976,-0.096549
1328,-0.084381,-0.020909,0.029407,0.061965,-0.1222,-0.013017,-0.085039
1329,-0.089314,-0.019265,0.025132,0.064267,-0.11332,-0.0077547,-0.069253
1330,-0.087669,-0.013017,0.013622,0.06065,-0.10609,-0.0015062,-0.051494
1331,-0.081092,-0.0074258,0.00046697,0.051113,-0.10214,0.0037556,-0.033078
1332,-0.075501,-0.0034794,-0.0074258,0.038944,-0.1005,0.0017824,-0.01795
1333,-0.070897,0.0017824,-0.0067681,0.027763,-0.099838,-0.0061104,-0.0097279
1334,-0.065307,0.0080309,-0.0015062,0.021186,-0.096878,-0.013674,-0.0077547
1335,-0.053796,0.0090175,0.002769,0.015924,-0.092603,-0.017621,-0.011372
1336,-0.040641,0.0037556,0.0024402,0.01132,-0.088985,-0.018607,-0.013674
1337,-0.028144,-0.0057815,-0.0018351,0.0060577,-0.087669,-0.016305,-0.01203
1338,-0.018936,-0.012688,-0.0084125,0.0017824,-0.086025,-0.012688,-0.0087413
1339,-0.013345,-0.012359,-0.015648,-0.00051963,-0.080763,-0.0064392,-0.0097279
1340,-0.013674,-0.0041372,-0.021238,0.0011247,-0.072542,0.0044134,-0.012688
1341,-0.017621,0.0077021,-0.024527,0.0050711,-0.063004,0.01987,-0.014332
1342,-0.02354,0.015266,-0.028144,0.0086887,-0.051823,0.035985,-0.0087413
1343,-0.022883,0.015924,-0.028473,0.0093464,-0.04097,0.044535,0.0044134
1344,-0.012359,0.0077021,-0.025842,0.0037556,-0.028144,0.044206,0.024803
1345,0.0017824,-0.0041372,-0.025842,-0.0084125,-0.013017,0.036314,0.042233
1346,0.013293,-0.01203,-0.028473,-0.023211,0.0030979,0.025132,0.053743
1347,0.022172,-0.0097279,-0.031104,-0.035051,0.017568,0.015266,0.05769
1348,0.030065,-0.00019077,-0.030775,-0.037682,0.026776,0.010662,0.05769
1349,0.033025,0.010662,-0.025514,-0.030118,0.029078,0.0080309,0.059005
1350,0.032367,0.01987,-0.015648,-0.018607,0.031709,0.0057288,0.063281
1351,0.030723,0.028421,-0.004466,-0.0067681,0.032696,0.0047422,0.073147
1352,0.032696,0.035656,0.0030979,-0.0015062,0.028421,0.0037556,0.083013
1353,0.037629,0.038944,0.0034268,-0.0057815,0.021514,0.0037556,0.085972
1354,0.045522,0.040589,-0.0054526,-0.016634,0.012964,0.0024402,0.081368
1355,0.056703,0.039273,-0.015976,-0.026171,0.0060577,-0.00051963,0.068214
1356,0.069858,0.037629,-0.021567,-0.030775,0.0024402,-0.0061104,0.052757
1357,0.080053,0.038287,-0.018278,-0.027487,0.002769,-0.0093991,0.040589
1358,0.081697,0.0373,-0.0064392,-0.017292,0.0030979,-0.010057,0.0373
1359,0.079066,0.030394,0.0073732,-0.0047949,-0.0011774,-0.0077547,0.037629
1360,0.077093,0.018555,0.015266,0.0077021,-0.0097279,-0.004466,0.039602
1361,0.077751,0.0054,0.013951,0.014608,-0.01795,-0.002164,0.044864
1362,0.07808,-0.0047949,0.0044134,0.015266,-0.022883,-0.0008485,0.050784
1363,0.076764,-0.0077547,-0.0061104,0.012635,-0.024856,-0.002164,0.055717
1364,0.075449,-0.0047949,-0.013345,0.0070443,-0.024198,-0.0018351,0.056703
1365,0.071173,0.0011247,-0.014332,0.0001381,-0.020909,0.0001381,0.051441
1366,0.06065,0.0080309,-0.010057,-0.0057815,-0.014003,-0.00019077,0.037958
1367,0.046837,0.013293,-0.0057815,-0.0054526,-0.0067681,-0.004466,0.021186
1368,0.034998,0.014608,-0.0064392,0.0040845,0.0001381,-0.0084125,0.0070443
1369,0.028092,0.013622,-0.011701,0.01691,0.0070443,-0.010386,-0.00051963
1370,0.02875,0.014937,-0.018607,0.026447,0.012306,-0.010386,-0.0034794
1371,0.035327,0.018884,-0.026171,0.025461,0.014608,-0.010386,-0.0064392
1372,0.044206,0.024145,-0.03242,0.015924,0.012635,-0.010386,-0.01203
1373,0.051113,0.026119,-0.033735,0.0067154,0.0073732,-0.0080836,-0.014003
1374,0.05177,0.022501,-0.031762,0.0011247,0.0040845,-0.0047949,-0.01203
1375,0.043549,0.017568,-0.027487,0.00079584,0.0021113,-0.0024928,-0.0087413
1376,0.031709,0.013951,-0.024527,0.0047422,0.00046697,-0.00019077,-0.0051238
1377,0.021186,0.010662,-0.025185,0.0093464,0.00079584,0.0040845,-0.0011774
1378,0.013622,0.01132,-0.027158,0.0096753,0.0001381,0.0054,0.0034268
1379,0.0050711,0.013622,-0.028473,0.0077021,-0.0031506,0.00046697,0.0054
1380,-0.0061104,0.019212,-0.024198,0.0021113,-0.0080836,-0.011372,0.0021113
1381,-0.018936,0.027105,-0.018278,-0.0047949,-0.010057,-0.028473,-0.0054526
1382,-0.031104,0.034998,-0.014003,-0.0093991,-0.0080836,-0.045903,-0.013017
1383,-0.038997,0.039602,-0.014003,-0.0061104,-0.0028217,-0.054454,-0.016634
1384,-0.038997,0.0373,-0.015976,0.0050711,0.0067154,-0.052481,-0.013017
1385,-0.031104,0.027434,-0.017621,0.01691,0.013622,-0.04393,-0.0057815
1386,-0.020909,0.015266,-0.014661,0.02579,0.018226,-0.033406,0.0014536
1387,-0.015648,0.0034268,-0.0061104,0.027105,0.01987,-0.0265,0.0070443
1388,-0.019594,-0.0038083,0.0044134,0.020857,0.01987,-0.02354,0.0047422
1389,-0.025185,-0.0097279,0.010991,0.011977,0.019212,-0.021896,-0.0034794
1390,-0.024527,-0.013345,0.011977,0.0060577,0.018226,-0.018936,-0.014332
1391,-0.01795,-0.016963,0.010991,0.0037556,0.014608,-0.017292,-0.024856
1392,-0.0090702,-0.018936,0.010004,-0.00051963,0.0093464,-0.016305,-0.031433
1393,0.0011247,-0.017621,0.010004,-0.0074258,0.002769,-0.01795,-0.030118
1394,0.0060577,-0.011043,0.0093464,-0.011701,-0.0047949,-0.020252,-0.021567
1395,0.0054,-0.0028217,0.010991,-0.0097279,-0.013674,-0.024527,-0.0093991
1396,0.0014536,0.0021113,0.010991,-0.002164,-0.020252,-0.027816,0.0030979
1397,-0.00051963,0.0011247,0.0086887,0.0070443,-0.022554,-0.029789,0.012964
1398,-0.002164,-0.0047949,0.0060577,0.012306,-0.020581,-0.0265,0.015595
1399,-0.0041372,-0.010386,0.0090175,0.0083598,-0.014003,-0.015976,0.0080309
1400,-0.004466,-0.013017,0.014279,-0.0061104,-0.0051238,-0.0024928,-0.0031506
1401,-0.0051238,-0.014003,0.019212,-0.024198,0.0057288,0.010004,-0.012359
1402,-0.0057815,-0.011372,0.020199,-0.038668,0.013293,0.021186,-0.015976
1403,-0.0034794,-0.0064392,0.020199,-0.044917,0.020199,0.028092,-0.016963
1404,-0.0024928,-0.0008485,0.022501,-0.047548,0.02875,0.026119,-0.016634
1405,-0.0024928,0.0057288,0.021514,-0.050836,0.037629,0.012306,-0.015648
1406,-0.0008485,0.0086887,0.018884,-0.052481,0.045193,-0.007097,-0.011043
1407,0.0040845,0.0083598,0.013293,-0.048534,0.050126,-0.024198,-0.0024928
1408,0.0096753,0.0017824,0.0044134,-0.042286,0.049139,-0.032749,0.0050711
1409,0.01132,-0.0041372,-0.0057815,-0.035708,0.042233,-0.02946,0.0093464
1410,0.011977,-0.004466,-0.013674,-0.026171,0.032367,-0.019265,0.013622
1411,0.010991,-0.0011774,-0.015319,-0.012688,0.020199,-0.0097279,0.020199
1412,0.0054,-0.0011774,-0.011701,0.0034268,0.010991,-0.0038083,0.030394
1413,-0.0064392,-0.007097,-0.002164,0.015924,0.0054,0.00046697,0.040918
1414,-0.016963,-0.014661,0.0093464,0.01987,0.0050711,0.0037556,0.049468
1415,-0.024527,-0.018278,0.022501,0.015924,0.0080309,0.0063866,0.058019
1416,-0.028473,-0.017621,0.032038,0.0096753,0.0083598,0.0083598,0.064925
1417,-0.0265,-0.012359,0.033025,0.0037556,0.0063866,0.010004,0.070845
1418,-0.022554,-0.0061104,0.01987,-0.0024928,0.0034268,0.012635,0.073476
1419,-0.018936,0.002769,0.0011247,-0.0090702,0.002769,0.017568,0.071831
1420,-0.013017,0.012635,-0.013017,-0.015648,0.002769,0.024803,0.068871
1421,-0.0087413,0.020199,-0.015319,-0.022554,0.0057288,0.030723,0.070516
1422,-0.0084125,0.020857,-0.0080836,-0.028144,0.0050711,0.032696,0.07808
1423,-0.0087413,0.016253,0.00079584,-0.034722,0.0011247,0.035656,0.086959
1424,-0.0047949,0.0096753,0.0060577,-0.035051,-0.0074258,0.039931,0.091234
1425,-0.0015062,0.0021113,0.0086887,-0.024856,-0.014003,0.047166,0.090577
1426,-0.002164,-0.0064392,0.01132,-0.0077547,-0.016963,0.058019,0.083999
1427,-0.0084125,-0.014332,0.012964,0.010333,-0.016963,0.065912,0.075449
1428,-0.015319,-0.018936,0.013951,0.023817,-0.01499,0.06624,0.065912
1429,-0.018278,-0.021238,0.013293,0.030065,-0.012359,0.059992,0.062623
1430,-0.016634,-0.02354,0.01132,0.028092,-0.010057,0.05177,0.06624
1431,-0.013017,-0.026171,0.0080309,0.022172,-0.0084125,0.045522,0.070845
1432,-0.010057,-0.030447,0.0017824,0.01691,-0.0074258,0.041575,0.073476
1433,-0.01203,-0.034722,-0.0041372,0.014608,-0.0047949,0.035327,0.069529
1434,-0.016963,-0.037353,-0.0080836,0.011648,-0.00051963,0.026119,0.059992
1435,-0.018278,-0.031104,-0.010386,0.0080309,0.0001381,0.015595,0.049797
1436,-0.012688,-0.014332,-0.010715,0.0044134,-0.0028217,0.0050711,0.044864
1437,-0.0031506,0.0080309,-0.012359,-0.002164,-0.011701,-0.0041372,0.039273
1438,0.0047422,0.027105,-0.014661,-0.0087413,-0.022883,-0.012359,0.030723
1439,0.0093464,0.038287,-0.017621,-0.0087413,-0.03242,-0.019923,0.018555
1440,0.0086887,0.041247,-0.016963,-0.0011774,-0.036366,-0.027487,0.00079584
1441,0.0083598,0.033683,-0.016963,0.0086887,-0.035708,-0.035708,-0.019594
1442,0.010004,0.021843,-0.020581,0.015595,-0.030775,-0.044917,-0.044259
1443,0.01691,0.010991,-0.030775,0.021186,-0.024198,-0.051494,-0.070897
1444,0.026119,0.002769,-0.043601,0.026447,-0.018607,-0.051165,-0.099509
1445,0.036642,-0.0047949,-0.051165,0.031381,-0.017621,-0.045903,-0.12582
1446,0.044206,-0.010057,-0.051165,0.033683,-0.024856,-0.038997,-0.14226
1447,0.047824,-0.011043,-0.042944,0.032696,-0.037353,-0.03242,-0.14292
1448,0.044206,-0.011372,-0.030118,0.029078,-0.051494,-0.031104,-0.13141
1449,0.032038,-0.0090702,-0.015319,0.025132,-0.063333,-0.037024,-0.11562
1450,0.014279,-0.0057815,-0.0034794,0.025132,-0.073857,-0.047548,-0.10214
1451,-0.0047949,-0.0038083,0.00079584,0.027434,-0.083723,-0.057743,-0.088327
1452,-0.020252,0.00079584,-0.0015062,0.02875,-0.088985,-0.060702,-0.073857
1453,-0.028144,0.0070443,-0.0074258,0.024474,-0.087669,-0.050836,-0.058071
1454,-0.03242,0.013622,-0.014003,0.01691,-0.077146,-0.032749,-0.036695
1455,-0.034064,0.014937,-0.018278,0.0047422,-0.05544,-0.014661,-0.011372
1456,-0.034064,0.0077021,-0.023211,-0.0093991,-0.025514,-0.0038083,0.01132
1457,-0.036037,-0.0031506,-0.030447,-0.025185,0.012306,-0.0054526,0.030065
1458,-0.038339,-0.012359,-0.038668,-0.039984,0.057361,-0.013017,0.047495
1459,-0.038339,-0.019594,-0.039655,-0.048205,0.10373,-0.021238,0.06361
1460,-0.038997,-0.024856,-0.028802,-0.047877,0.1376,-0.027816,0.07512
1461,-0.042944,-0.030775,-0.014332,-0.042286,0.15175,-0.0265,0.07808
1462,-0.051494,-0.034722,-0.0074258,-0.037682,0.14714,-0.021238,0.073804
1463,-0.063662,-0.037353,-0.0090702,-0.036037,0.1307,-0.016963,0.064925
1464,-0.074844,-0.039326,-0.018936,-0.036037,0.11228,-0.016305,0.053086
1465,-0.082408,-0.039984,-0.030118,-0.038011,0.095839,-0.017292,0.038616
1466,-0.083723,-0.035051,-0.038997,-0.040313,0.083342,-0.016634,0.026119
1467,-0.082408,-0.031104,-0.038011,-0.043272,0.072489,-0.012359,0.014937
1468,-0.075173,-0.028802,-0.027487,-0.038339,0.060979,-0.0047949,0.0050711
1469,-0.063662,-0.026171,-0.014003,-0.024856,0.047824,0.0050711,-0.0041372
1470,-0.047548,-0.021896,-0.0047949,-0.0057815,0.02875,0.017239,-0.0077547
1471,-0.034722,-0.018278,-0.007097,0.010004,0.0060577,0.026776,-0.0090702
1472,-0.029789,-0.013017,-0.020581,0.019541,-0.015319,0.027434,-0.013017
1473,-0.032091,-0.0077547,-0.037682,0.024474,-0.030775,0.020857,-0.022225
1474,-0.034064,-0.0031506,-0.047548,0.023159,-0.040313,0.010662,-0.03538
1475,-0.037024,-0.0018351,-0.044917,0.015266,-0.047548,-0.0008485,-0.048863
1476,-0.042615,-0.0051238,-0.034064,0.0070443,-0.053138,-0.0097279,-0.055769
1477,-0.048863,-0.011701,-0.019265,0.0011247,-0.05544,-0.016305,-0.056427
1478,-0.051494,-0.021567,-0.002164,-0.00051963,-0.055769,-0.025185,-0.055112
1479,-0.047548,-0.030775,0.012306,0.0011247,-0.056098,-0.036037,-0.056427
1480,-0.038997,-0.034064,0.017897,0.0030979,-0.058071,-0.046232,-0.059716
1481,-0.028144,-0.031433,0.016253,0.0017824,-0.063333,-0.051823,-0.063004
1482,-0.019265,-0.023211,0.010333,-0.0018351,-0.07024,-0.053138,-0.065635
1483,-0.015976,-0.01203,0.0034268,-0.0067681,-0.078461,-0.051823,-0.065307
1484,-0.016305,-0.0034794,-0.0008485,-0.013017,-0.087341,-0.04689,-0.062676
1485,-0.011701,-0.0011774,-0.0011774,-0.015319,-0.094905,-0.040313,-0.062018
1486,-0.0034794,-0.0047949,-0.00051963,-0.012359,-0.097207,-0.035051,-0.061689
1487,0.0077021,-0.0090702,-0.0008485,-0.0054526,-0.091945,-0.028473,-0.061031
1488,0.018884,-0.010715,-0.0011774,0.0001381,-0.081092,-0.019594,-0.057085
1489,0.026776,-0.0074258,-0.0015062,0.0067154,-0.067937,-0.0061104,-0.053138
1490,0.032038,0.00046697,-0.00019077,0.015924,-0.056756,0.0060577,-0.046232
1491,0.034998,0.0090175,0.0017824,0.026447,-0.04689,0.015924,-0.036037
1492,0.037629,0.016581,0.0017824,0.03434,-0.040313,0.018884,-0.026171
1493,0.038287,0.021186,-0.0015062,0.034669,-0.036366,0.01691,-0.023211
1494,0.037629,0.023488,-0.0067681,0.029407,-0.033406,0.010004,-0.024198
1495,0.035985,0.026447,-0.010386,0.021514,-0.033735,0.00079584,-0.027487
1496,0.034998,0.028092,-0.012359,0.012635,-0.036366,-0.0074258,-0.032749
1497,0.034011,0.02875,-0.016963,0.0014536,-0.038011,-0.015648,-0.03538
1498,0.032367,0.028092,-0.019594,-0.0084125,-0.038997,-0.024856,-0.033735
1499,0.027434,0.027763,-0.018278,-0.011701,-0.039655,-0.03242,-0.027158
1500,0.01987,0.031381,-0.013674,-0.0051238,-0.04393,-0.032749,-0.018278
1501,0.010333,0.034998,-0.0077547,0.0096753,-0.04985,-0.026829,-0.011043
1502,0.00079584,0.0373,-0.0034794,0.027105,-0.051823,-0.016634,-0.0064392
1503,-0.0061104,0.0373,0.0011247,0.038616,-0.050179,-0.0051238,-0.0011774
1504,-0.0041372,0.035656,0.0060577,0.038287,-0.046561,0.010662,0.013622
1505,0.0070443,0.033354,0.012964,0.028092,-0.038668,0.027434,0.036642
1506,0.021843,0.029407,0.016581,0.017239,-0.027487,0.04026,0.055388
1507,0.031052,0.021843,0.013951,0.011648,-0.011701,0.050784,0.06361
1508,0.031381,0.017239,0.0040845,0.015924,0.0050711,0.062952,0.06065
1509,0.024803,0.019212,-0.0084125,0.030065,0.017897,0.072818,0.049468
1510,0.016581,0.02875,-0.016634,0.04322,0.024145,0.07808,0.036314
1511,0.014279,0.041575,-0.018936,0.046837,0.02283,0.077751,0.027763
1512,0.01987,0.051113,-0.014003,0.039931,0.014937,0.075778,0.029736
1513,0.028421,0.053415,-0.0067681,0.025132,0.0063866,0.070845,0.041575
1514,0.035985,0.046837,0.002769,0.010333,0.0024402,0.06361,0.055059
1515,0.044535,0.035656,0.010004,-0.00019077,0.0050711,0.056703,0.060979
1516,0.051441,0.02579,0.01691,-0.0018351,0.012964,0.051113,0.058348
1517,0.05177,0.020857,0.01987,0.0060577,0.019212,0.046837,0.054401
1518,0.048153,0.019212,0.020199,0.021514,0.021514,0.042233,0.050784
1519,0.044535,0.021843,0.016253,0.034998,0.018226,0.0373,0.050126
1520,0.038944,0.028421,0.010662,0.039273,0.011977,0.032038,0.049139
1521,0.028092,0.035985,0.0080309,0.031052,0.0070443,0.026447,0.046837
1522,0.010333,0.042233,0.011977,0.017239,0.002769,0.024803,0.04322
1523,-0.0093991,0.047166,0.020528,0.0037556,-0.002164,0.02579,0.039602
1524,-0.023211,0.049468,0.024803,-0.0057815,-0.0077547,0.02283,0.033683
1525,-0.034064,0.050126,0.022172,-0.010057,-0.011701,0.01132,0.023817
1526,-0.038668,0.04618,0.01691,-0.0074258,-0.014332,-0.010715,0.014279
1527,-0.038339,0.034669,0.014279,0.0024402,-0.012688,-0.034064,0.010004
1528,-0.033078,0.017897,0.015266,0.014279,-0.0090702,-0.051823,0.010333
1529,-0.020252,0.0034268,0.016581,0.02283,-0.0038083,-0.056756,0.012306
1530,-0.0041372,-0.0011774,0.016253,0.026119,0.0021113,-0.051494,0.016581
1531,0.0073732,0.0040845,0.014608,0.026776,0.0080309,-0.041299,0.024145
1532,0.0077021,0.014608,0.013951,0.026119,0.013951,-0.030118,0.033025
1533,0.0030979,0.021186,0.014608,0.020199,0.020528,-0.024856,0.041904
1534,-0.0008485,0.017897,0.016253,0.0090175,0.033025,-0.024198,0.047824
1535,-0.0015062,0.0073732,0.017897,-0.0028217,0.052757,-0.024527,0.050455
1536,0.0011247,-0.007097,0.021514,-0.013017,0.075449,-0.019923,0.052099
1537,0.0044134,-0.021238,0.021186,-0.020252,0.094852,-0.011372,0.053086
1538,0.0086887,-0.028802,0.018555,-0.024527,0.10176,0.0014536,0.054401
1539,0.010662,-0.028144,0.016253,-0.026171,0.090248,0.017239,0.051113
1540,0.0096753,-0.021567,0.01691,-0.024198,0.069529,0.032038,0.042233
1541,0.0093464,-0.014332,0.018555,-0.018278,0.048153,0.039273,0.029736
1542,0.013293,-0.0097279,0.017568,-0.010057,0.029407,0.034011,0.019212
1543,0.018555,-0.010057,0.013293,0.0011247,0.014608,0.020528,0.015924
1544,0.02283,-0.014332,0.0086887,0.010333,0.0011247,0.0060577,0.020528
1545,0.024474,-0.015648,0.0077021,0.014937,-0.0090702,-0.0015062,0.029407
1546,0.02283,-0.011701,0.011977,0.015924,-0.019594,-0.0051238,0.037629
1547,0.015924,0.0021113,0.014937,0.015266,-0.031433,-0.0054526,0.037629
1548,0.0067154,0.020528,0.011648,0.016253,-0.045903,-0.0041372,0.026776
1549,-0.00051963,0.033025,-0.00051963,0.020528,-0.061031,-0.0031506,0.0096753
1550,-0.0061104,0.031709,-0.014332,0.026447,-0.072213,-0.0015062,-0.0064392
1551,-0.0084125,0.014279,-0.021567,0.033683,-0.075501,-0.00051963,-0.014003
1552,-0.0093991,-0.0064392,-0.01795,0.038616,-0.072213,0.0017824,-0.013674
1553,-0.0093991,-0.022554,-0.010057,0.038287,-0.064978,0.0030979,-0.0097279
1554,-0.011372,-0.031104,-0.0057815,0.030723,-0.056427,0.0021113,-0.0024928
1555,-0.016305,-0.03242,-0.0084125,0.015595,-0.047877,-0.0015062,0.0037556
1556,-0.017292,-0.029789,-0.015976,-0.0024928,-0.038339,-0.0034794,0.0086887
1557,-0.010715,-0.027158,-0.025514,-0.015648,-0.026171,-0.0008485,0.013293
1558,-0.0011774,-0.025514,-0.033078,-0.021567,-0.011043,0.002769,0.017568
1559,0.010004,-0.024198,-0.036037,-0.023211,0.0034268,0.0050711,0.021514
1560,0.019541,-0.024198,-0.035708,-0.024198,0.01132,0.0040845,0.02579
1561,0.026776,-0.026171,-0.029789,-0.026829,0.014279,-0.0038083,0.029736
1562,0.029407,-0.029789,-0.023869,-0.033078,0.014608,-0.017292,0.028421
1563,0.027434,-0.033406,-0.01795,-0.040313,0.0096753,-0.030447,0.022501
1564,0.021514,-0.034064,-0.014661,-0.042615,0.0030979,-0.042944,0.015924
1565,0.011648,-0.030118,-0.012359,-0.04097,-0.0018351,-0.053796,0.0080309
1566,0.0011247,-0.023211,-0.011043,-0.037353,-0.0034794,-0.060702,-0.0015062
1567,-0.0084125,-0.017621,-0.0097279,-0.031104,-0.0024928,-0.062018,-0.01203
1568,-0.01499,-0.018607,-0.0061104,-0.021238,-0.0015062,-0.06432,-0.022225
1569,-0.020581,-0.021896,-0.002164,-0.0097279,-0.0064392,-0.067937,-0.027487
1570,-0.027158,-0.022554,-0.0024928,0.00046697,-0.015976,-0.069911,-0.02946
1571,-0.03538,-0.020252,-0.0074258,0.0077021,-0.027816,-0.067609,-0.030118
1572,-0.043272,-0.015648,-0.0087413,0.0077021,-0.040313,-0.062347,-0.02946
1573,-0.047877,-0.013017,-0.0038083,0.0011247,-0.052152,-0.054125,-0.025514
1574,-0.049192,-0.011372,0.0030979,-0.0077547,-0.0584,-0.046561,-0.016634
1575,-0.051165,-0.011372,0.0063866,-0.014003,-0.058071,-0.039655,-0.0064392
1576,-0.053467,-0.011372,0.0021113,-0.011372,-0.050507,-0.034722,-0.0034794
1577,-0.05281,-0.011701,-0.0077547,-0.0074258,-0.037682,-0.031104,-0.0077547
1578,-0.049521,-0.013017,-0.020252,-0.0034794,-0.025842,-0.029131,-0.01499
1579,-0.045574,-0.014332,-0.02946,-0.002164,-0.023211,-0.029789,-0.020252
1580,-0.041299,-0.015648,-0.03538,-0.0041372,-0.027487,-0.02946,-0.022883
1581,-0.034722,-0.017292,-0.038997,-0.007097,-0.033078,-0.030118,-0.025842
1582,-0.022883,-0.014661,-0.040313,-0.0087413,-0.033406,-0.03242,-0.032091
1583,-0.0064392,-0.0080836,-0.038339,-0.0077547,-0.027158,-0.037024,-0.037682
1584,0.010004,-0.0015062,-0.034393,-0.0047949,-0.018278,-0.039984,-0.04097
1585,0.024474,0.0011247,-0.02946,0.0030979,-0.013674,-0.04097,-0.039984
1586,0.032696,0.00079584,-0.025842,0.011648,-0.016963,-0.040641,-0.036366
1587,0.031052,-0.0011774,-0.024856,0.018555,-0.026829,-0.03538,-0.032749
1588,0.020199,0.00079584,-0.025842,0.023488,-0.036695,-0.022883,-0.026171
1589,0.0067154,0.0080309,-0.028144,0.026447,-0.040641,-0.0067681,-0.012688
1590,-0.0041372,0.017568,-0.032091,0.027105,-0.039655,0.0080309,0.0017824
1591,-0.0064392,0.029736,-0.036037,0.025132,-0.040641,0.013951,0.015266
1592,0.00079584,0.041904,-0.038668,0.02283,-0.050179,0.0083598,0.025461
1593,0.014608,0.051441,-0.039984,0.022501,-0.068595,-0.004466,0.031381
1594,0.029078,0.055388,-0.041299,0.021843,-0.089314,-0.015648,0.030065
1595,0.037958,0.053743,-0.037682,0.016581,-0.1028,-0.021238,0.023488
1596,0.038616,0.050126,-0.026829,0.0060577,-0.10444,-0.020581,0.014608
1597,0.034011,0.046837,-0.013674,-0.0034794,-0.097864,-0.014661,0.0096753
1598,0.025132,0.04322,-0.0047949,-0.0067681,-0.087998,-0.0074258,0.0083598
1599,0.017239,0.035985,-0.0008485,0.0001381,-0.082408,-0.0061104,0.011648
1600,0.013951,0.026776,-0.0015062,0.011977,-0.074515,-0.0090702,0.012964
1601,0.012964,0.015595,-0.0047949,0.021514,-0.053796,-0.013017,0.013293
1602,0.012635,0.0054,-0.0093991,0.023159,-0.014332,-0.013017,0.012635
1603,0.013293,0.0001381,-0.012359,0.017897,0.04026,-0.0090702,0.013293
1604,0.014279,-0.002164,-0.014332,0.011648,0.10735,-0.0024928,0.010004
1605,0.014608,-0.0011774,-0.017621,0.010004,0.18397,0.0024402,0.0090175
1606,0.012964,0.0060577,-0.020252,0.01132,0.26257,0.0014536,0.0057288
1607,0.0067154,0.013293,-0.021567,0.011977,0.32407,-0.0047949,-0.0038083
1608,-0.004466,0.01691,-0.019265,0.0080309,0.34611,-0.014661,-0.019265
1609,-0.019923,0.013951,-0.017621,-0.0008485,0.32078,-0.023211,-0.033735
1610,-0.036366,0.0060577,-0.018278,-0.010057,0.26225,-0.027487,-0.039984
1611,-0.053467,-0.0038083,-0.021896,-0.016634,0.19516,-0.028802,-0.041299
1612,-0.066622,-0.013017,-0.025842,-0.02354,0.13596,-0.026829,-0.040313
1613,-0.068924,-0.019923,-0.027487,-0.030447,0.086301,-0.022225,-0.035051
1614,-0.061031,-0.025842,-0.027816,-0.034722,0.042233,-0.016634,-0.026171
1615,-0.04985,-0.025842,-0.0265,-0.037024,0.0034268,-0.011043,-0.015319
1616,-0.04393,-0.022554,-0.021896,-0.034722,-0.027487,-0.010386,-0.0067681
1617,-0.047219,-0.017292,-0.01499,-0.028473,-0.04689,-0.014661,-0.007097
1618,-0.056427,-0.012359,-0.0054526,-0.016634,-0.056098,-0.016963,-0.016634
1619,-0.066622,-0.010386,0.0017824,-0.00019077,-0.056098,-0.013674,-0.027487
1620,-0.074515,-0.0097279,0.0044134,0.012964,-0.051165,-0.0074258,-0.031762
1621,-0.079777,-0.0080836,0.0014536,0.019541,-0.044259,-0.0031506,-0.028473
1622,-0.085039,-0.0061104,-0.0047949,0.017239,-0.039326,-0.0024928,-0.024527
1623,-0.088327,-0.0047949,-0.013017,0.0086887,-0.036695,-0.0057815,-0.022554
1624,-0.0903,-0.0074258,-0.021238,-0.00019077,-0.037682,-0.0087413,-0.01795
1625,-0.092274,-0.011701,-0.028802,-0.0087413,-0.037682,-0.0093991,-0.010057
1626,-0.093918,-0.016305,-0.033406,-0.010715,-0.037353,-0.0067681,0.00079584
1627,-0.094576,-0.022225,-0.036695,-0.0061104,-0.041957,-0.0015062,0.01132
1628,-0.092931,-0.034393,-0.036695,0.0030979,-0.052481,0.0086887,0.018226
1629,-0.088656,-0.048534,-0.033406,0.013622,-0.062347,0.024145,0.020199
1630,-0.081092,-0.060373,-0.026829,0.021514,-0.066622,0.038287,0.02283
1631,-0.071884,-0.066951,-0.020581,0.02579,-0.066951,0.043549,0.023817
1632,-0.062347,-0.067609,-0.019265,0.024145,-0.066293,0.040918,0.023488
1633,-0.053467,-0.064649,-0.022554,0.018555,-0.063004,0.036971,0.01987
1634,-0.047219,-0.056427,-0.025842,0.011648,-0.057743,0.032367,0.017239
1635,-0.048534,-0.041628,-0.025842,0.0080309,-0.051494,0.029078,0.015924
1636,-0.053467,-0.022883,-0.023211,0.0073732,-0.04689,0.027434,0.017568
1637,-0.055112,-0.0061104,-0.01795,0.0080309,-0.045903,0.026776,0.021514
1638,-0.050179,0.0047422,-0.010715,0.0090175,-0.048205,0.027105,0.026776
1639,-0.038668,0.0083598,-0.0034794,0.0090175,-0.049521,0.029736,0.029736
1640,-0.022883,0.0077021,0.0040845,0.0086887,-0.038339,0.035327,0.032038
1641,-0.0054526,0.010333,0.011648,0.0080309,-0.011043,0.041904,0.031052
1642,0.010004,0.018226,0.020528,0.0080309,0.02875,0.046508,0.02579
1643,0.02283,0.023159,0.028092,0.0080309,0.068871,0.04881,0.015595
1644,0.032038,0.021514,0.030394,0.0077021,0.10044,0.049139,0.0060577
1645,0.035985,0.010662,0.027105,0.0077021,0.11919,0.048153,0.0014536
1646,0.03434,-0.0061104,0.01987,0.0047422,0.12182,0.040918,0.0040845
1647,0.030394,-0.022225,0.012635,-0.0015062,0.10603,0.026776,0.012635
1648,0.022501,-0.031104,0.0096753,-0.0051238,0.076106,0.010004,0.019541
1649,0.013951,-0.02946,0.010004,-0.0011774,0.042562,-0.0031506,0.019212
1650,0.0086887,-0.014661,0.0096753,0.0080309,0.012635,-0.0093991,0.014937
1651,0.0073732,0.0024402,0.0086887,0.020528,-0.0093991,-0.011372,0.011648
1652,0.0080309,0.013293,0.01132,0.030394,-0.014332,-0.011701,0.01132
1653,0.0096753,0.015266,0.016581,0.031709,-0.0057815,-0.016634,0.010991
1654,0.017239,0.010662,0.02283,0.022501,0.012635,-0.020581,0.01132
1655,0.029736,0.0060577,0.024474,0.0090175,0.031709,-0.015976,0.012635
1656,0.045522,0.0067154,0.018226,-0.0024928,0.048153,-0.0047949,0.015595
1657,0.058348,0.011977,0.0086887,-0.0080836,0.059663,0.0073732,0.015924
1658,0.065254,0.016581,0.0014536,-0.0097279,0.06624,0.011977,0.013293
1659,0.06361,0.014608,0.0034268,-0.012688,0.064267,0.0054,0.0060577
1660,0.059992,0.012635,0.013622,-0.017292,0.055059,-0.0038083,-0.0061104
1661,0.056703,0.015924,0.025132,-0.020581,0.039602,-0.012359,-0.01499
1662,0.055388,0.025461,0.034011,-0.01795,0.019212,-0.017292,-0.019923
1663,0.059334,0.033025,0.039931,-0.0084125,-0.0038083,-0.017292,-0.016305
1664,0.066569,0.038616,0.044864,0.0050711,-0.028802,-0.013345,-0.0038083
1665,0.07216,0.044864,0.048482,0.014608,-0.050507,-0.0074258,0.017568
