0.19713    0.028421    0.035985     0.11787     0.18069    -0.61945   0.0063866
0.19187    0.049139    0.025132    0.086959   -0.053467    -0.60366    0.013622
0.19877    0.096825    0.027105    0.073476    -0.22316    -0.44449    0.017897
0.22443     0.16095    0.035327    0.064596     -0.3113    -0.27282    0.017239
0.26126     0.22706     0.04026    0.045193    -0.32972     -0.2054    0.010004
0.29316     0.27112    0.031381   0.0070443    -0.30834    -0.29946  0.00046697
0.30335      0.2731   0.0096753    -0.04985    -0.26328    -0.53723  -0.0064392
0.28231      0.2287   -0.016963    -0.11332    -0.19455    -0.85459  -0.0087413
0.22739     0.14813   -0.041299    -0.16364    -0.09918     -1.1815  -0.0051238
0.14484    0.053743    -0.05544    -0.18107    0.027434     -1.4587   0.0034268
0.051441   -0.033735   -0.054783    -0.15969     0.18661     -1.6353    0.013293
-0.028802   -0.094905   -0.034393    -0.10905     0.36781     -1.6699    0.020199
-0.074515    -0.11529  -0.0018351   -0.046232     0.52764      -1.561    0.023817
-0.074844     -0.1005    0.030723    0.015266     0.59901     -1.3472    0.021514
-0.041628   -0.066951    0.049797    0.068871     0.54968     -1.0381    0.018884
0.002769   -0.032749    0.048153     0.11524     0.40464    -0.60103    0.018555
0.038944   -0.010715    0.033354     0.15964      0.2241   -0.048205    0.017239
0.056374 -0.00019077    0.012306      0.1968    0.065583     0.48982    0.014937
0.062952    0.017239  -0.0034794     0.21259    -0.05544     0.83875    0.010004
0.059992    0.054401  -0.0084125     0.19549    -0.15805     0.89005   0.0047422
0.050455     0.10373   -0.007097     0.15207    -0.27973     0.64932   0.0014536
0.033354     0.13728  -0.0064392     0.10044    -0.43824     0.23396   0.0017824
0.017239     0.13234  -0.0047949    0.059005     -0.6155    -0.19587   0.0047422
0.010991    0.088603   0.0001381    0.033025    -0.78322    -0.51158   0.0070443
0.017897    0.021514   0.0037556    0.017897    -0.92299    -0.66253   0.0090175
0.030394   -0.038997  0.00079584    0.013951     -1.0292     -0.6576    0.011977
0.04026   -0.075173  -0.0090702    0.018555     -1.0884    -0.53361    0.014937
0.037958    -0.08471   -0.024856    0.023817     -1.0667    -0.31821    0.018884
0.016253   -0.072542   -0.044259    0.018555    -0.90359   0.0047422     0.02283
-0.02354   -0.047877   -0.066951    0.002769    -0.57801     0.44444    0.024474
-0.073528   -0.016963   -0.086025   -0.015319    -0.15246     0.95517    0.025461
-0.12089    0.012964   -0.095233   -0.032749     0.23791      1.4192    0.022172
-0.15443    0.039273   -0.092603   -0.046561     0.47272      1.6902    0.015595
-0.16561    0.062952   -0.074186   -0.054454     0.53455      1.7033   0.0096753
-0.15772    0.085315   -0.041299   -0.056756       0.501      1.4988   0.0067154
-0.13832     0.10143  -0.0061104   -0.059716     0.45759      1.1548   0.0050711
-0.11431     0.10176    0.019541   -0.069582     0.44378     0.72299   0.0044134
-0.085367     0.08367    0.028092   -0.086025     0.43655     0.22903      0.0054
-0.042286    0.059005    0.024474   -0.097536     0.39807    -0.26164   0.0086887
0.025132    0.042891    0.022172   -0.086354     0.33788    -0.65793    0.013293
0.11787     0.04322    0.034998   -0.041299     0.31552    -0.91609    0.018884
0.22015     0.05769    0.064596    0.036971     0.37209     -1.0989    0.021514
0.30533    0.077093     0.10044     0.12741     0.48653     -1.3183    0.019541
0.35499    0.099456     0.13037     0.20601     0.59013      -1.657    0.013951
0.36683     0.12445     0.14846     0.25764     0.61972     -2.0859   0.0080309
0.35268     0.14846     0.15602     0.27968     0.53685     -2.4535      0.0054
0.32144     0.16622     0.14879     0.27014     0.32637     -2.5825   0.0080309
0.27178     0.16589     0.12971     0.23133    0.011648     -2.3792    0.013293
0.19746      0.1376     0.10439     0.16753    -0.33564     -1.9198    0.018884
0.10472    0.077751    0.078737    0.087288    -0.62964     -1.4206    0.018226
0.0080309  -0.0090702     0.04881    0.011977    -0.80033     -1.0884    0.015595
-0.077146    -0.10576    0.017239   -0.051494    -0.81907    -0.95588    0.012306
-0.14029    -0.18666  -0.0090702    -0.09326    -0.70857     -0.8832     0.01132
-0.18107    -0.23895   -0.026829    -0.10872    -0.53296    -0.70923    0.013293
-0.20179    -0.26131    -0.03242     -0.1005    -0.36556    -0.38957    0.012964
-0.20113    -0.26427   -0.032091   -0.083723    -0.25145   -0.020581    0.011648
-0.17778    -0.25145   -0.031433    -0.06728    -0.18765     0.25665   0.0086887
-0.13042    -0.22119   -0.032091   -0.050507    -0.13371     0.37636   0.0057288
-0.069911    -0.17318    -0.02946   -0.031762   -0.053467     0.35696   0.0047422
-0.0097279    -0.11266   -0.018278   -0.012359    0.059992     0.26455   0.0047422
0.034669   -0.050836   0.0014536   0.0047422     0.19318     0.17542   0.0044134
0.046508  0.00046697    0.022501    0.016581     0.33788     0.14944   0.0047422
0.026776    0.036642    0.036971    0.022172     0.48719     0.21226      0.0054
-0.012688    0.052099    0.044535     0.01691      0.6286     0.33986   0.0047422
-0.064649    0.043877    0.041575    -0.01203     0.74108     0.47108   0.0040845
-0.11858    0.015266    0.026776   -0.077803     0.80751     0.54606    0.002769
-0.16462   -0.022883  0.00046697    -0.18403     0.81902      0.5477  0.00046697
-0.19258   -0.062676   -0.032091    -0.31426     0.76771     0.50725   0.0001381
-0.19916   -0.098522    -0.06136    -0.42838     0.64472     0.47634   0.0011247
-0.19126    -0.12713    -0.07879    -0.48198     0.44575     0.46976   0.0030979
-0.17712    -0.13996   -0.087669    -0.45107     0.18661     0.45595    0.002769
-0.16528    -0.14127   -0.094247    -0.34386   -0.090629     0.40826   0.0021113
-0.15213    -0.13042    -0.10543    -0.18962    -0.32643     0.32506  0.00046697
-0.13075    -0.10707    -0.12253    -0.02946    -0.48198     0.22212  0.00046697
-0.097207   -0.072213    -0.14062      0.1011    -0.54249     0.12971   0.0021113
-0.051494   -0.029131     -0.1495      0.1797    -0.50138    0.090905   0.0040845
-0.0015062    0.017568    -0.14423     0.20305    -0.35109     0.12807   0.0077021
0.039602     0.06361    -0.13075     0.18891    -0.12352     0.21851   0.0080309
0.06065    0.098798    -0.12023     0.15767     0.08959     0.33788   0.0080309
0.054401     0.11327    -0.12023     0.12511     0.16852     0.48357   0.0077021
0.020528    0.097154    -0.13042     0.09255    0.043549     0.65491   0.0070443
-0.031433    0.052428    -0.14522    0.064925    -0.25013     0.85454   0.0070443
-0.081421   -0.004466    -0.15607    0.044206     -0.5961      1.0841   0.0080309
-0.11299   -0.055112    -0.15147    0.026119     -0.8809      1.3327   0.0086887
-0.12549   -0.091616     -0.1347  -0.0015062     -1.0539      1.5475   0.0093464
-0.13799    -0.11398    -0.11825   -0.046561     -1.1371      1.6168   0.0060577
-0.16923    -0.13174    -0.11562    -0.10444     -1.1742      1.4909   0.0034268
-0.2133    -0.14818     -0.1268    -0.15311     -1.1746      1.3005    0.002769
-0.25243    -0.16002    -0.13832     -0.1735     -1.1154      1.3097   0.0080309
-0.27151    -0.15969    -0.13536    -0.15607     -0.9618      1.6724    0.015595
-0.26361    -0.13207    -0.11398    -0.10313    -0.69081      2.3157    0.023159
-0.23402   -0.072542   -0.078132   -0.032091    -0.31952      2.9511    0.022172
-0.1962    0.010004   -0.038997    0.039273    0.076764      3.2105    0.013293
-0.15772    0.092879 -0.00051963    0.099456     0.38721      2.8879 -0.00019077
-0.11694     0.14616    0.037629     0.15471     0.52896      2.0947   -0.010057
-0.074515      0.1524    0.076106     0.21028     0.48357      1.1614   -0.010715
-0.035708     0.10866     0.11327     0.25961     0.30434     0.39182  -0.0057815
-0.007097    0.033683     0.14287     0.28428    0.068214    -0.10082   0.0017824
-0.0018351   -0.045246     0.16194     0.26389    -0.15936    -0.43627   0.0067154
-0.016634    -0.10181      0.1672      0.2014    -0.33794    -0.82104   0.0073732
-0.045246    -0.11398     0.15799     0.11393    -0.40799     -1.3545   0.0060577
-0.071884   -0.064978     0.14352    0.035656    -0.29453     -1.9698      0.0054
-0.074844    0.046508     0.13037  -0.0074258    0.017897     -2.5091   0.0073732
-0.037024      0.2014     0.12774  -0.0074258     0.44674     -2.8074    0.011977
0.045193     0.36189     0.13497    0.022501     0.87295     -2.7482    0.016253
0.15536     0.49245     0.14089    0.059663      1.2192      -2.324    0.021514
0.27047      0.5773     0.13859    0.092221      1.4633     -1.6781    0.021514
0.37406     0.61972     0.13004     0.11656      1.6175     -1.0559    0.017568
0.4497     0.62827     0.11853     0.13563      1.6589    -0.69838    0.010333
0.48686     0.60558     0.10538     0.14912      1.5284    -0.75659   0.0021113
0.47502     0.55099    0.095839     0.15207       1.214     -1.2006  -0.0057815
0.4224     0.46581    0.085644     0.14287     0.79698     -1.8159   -0.007097
0.35038       0.354    0.079066       0.133     0.42635     -2.2914  -0.0008485
0.29119     0.23133    0.077422     0.14155     0.23363     -2.3421    0.013293
0.25698     0.11393    0.085315     0.17608      0.2481      -1.831    0.029407
0.23988    0.011977    0.098798     0.22147     0.39905    -0.82828     0.04026
0.22377   -0.073199     0.10932     0.25929     0.59144     0.40958    0.041247
0.20042    -0.14654     0.10801     0.27343     0.74141      1.4689    0.031381
0.1649    -0.21659    0.091892     0.25896     0.79534      2.0569    0.016581
0.11919    -0.28894    0.056703     0.21226     0.74338      2.1078   0.0021113
0.064267    -0.35603   0.0030979     0.13826      0.6138      1.7566  -0.0061104
0.0077021    -0.40075   -0.055769    0.048153     0.44608      1.2229  -0.0064392
-0.041628    -0.40634   -0.099838   -0.038339     0.27968     0.69701 -0.00019077
-0.068924    -0.36688     -0.1176     -0.1005     0.14287     0.33723   0.0086887
-0.061031    -0.29551    -0.10872    -0.12253    0.048153     0.25797    0.017897
-0.021238    -0.21001   -0.088327    -0.10773   -0.021567     0.43655    0.024145
0.030723    -0.13503   -0.076488    -0.07583    -0.10378     0.69109    0.023817
0.066898   -0.083723   -0.083723   -0.051494    -0.22283     0.80751    0.017897
0.072489   -0.057743    -0.10543   -0.051823    -0.37247     0.67826   0.0090175
0.047495   -0.045574    -0.12417   -0.077803    -0.52704     0.34709   0.0014536
0.0054   -0.036695     -0.1268    -0.11924    -0.65891   -0.052152  -0.0011774
-0.044588   -0.028144    -0.11135    -0.15838    -0.76251    -0.40799   0.0001381
-0.094247   -0.031433   -0.090629    -0.18436    -0.85262    -0.66878   0.0024402
-0.137    -0.05544   -0.080763    -0.19784    -0.95029    -0.83584      0.0054
-0.17087   -0.094905   -0.086354    -0.20771     -1.0693    -0.95128   0.0063866
-0.2008    -0.13601     -0.1051    -0.21955     -1.2075      -1.069   0.0060577
-0.23106    -0.15969    -0.12779    -0.23698     -1.3423     -1.2295   0.0044134
-0.26328    -0.15936    -0.14095    -0.25408     -1.4364       -1.46    0.002769
-0.29157    -0.13305    -0.13733    -0.26098     -1.4587     -1.7425    0.002769
-0.30045   -0.087669    -0.11464    -0.25112     -1.3893     -1.9757      0.0054
-0.27512   -0.038997    -0.08175    -0.22514     -1.2328     -1.9997    0.011648
-0.21231    0.002769   -0.050179    -0.18469     -1.0233     -1.6695    0.018555
-0.12483    0.027105   -0.027816    -0.14423     -0.8217    -0.98942    0.022501
-0.030775    0.030394   -0.016963    -0.12187    -0.68095    -0.16627    0.021186
0.053743     0.01691   -0.018607    -0.12615    -0.59577     0.54343    0.015924
0.1159   0.0050711   -0.029789    -0.14818    -0.48922      1.0768   0.0096753
0.1524   0.0073732   -0.047548    -0.16989       -0.26      1.5912   0.0086887
0.16523    0.023817    -0.06728    -0.17712     0.13629      2.1966    0.010662
0.16161    0.045851   -0.079119    -0.16232     0.65097      2.7955    0.010991
0.14681    0.059663   -0.082079     -0.1176      1.1762      3.1655   0.0057288
0.11754    0.056046   -0.073857   -0.046561      1.5873      3.1342  -0.0034794
0.073147     0.03434   -0.052481    0.032367      1.7632      2.6584   -0.013345
0.018226   -0.004466   -0.022554    0.097483      1.6415      1.8355   -0.020581
-0.044588   -0.056756   0.0047422     0.13037      1.2633     0.87394   -0.020581
-0.10543    -0.11464    0.016581     0.12873     0.76081   0.0014536   -0.014332
-0.15509    -0.16989    0.012306     0.10209     0.31947    -0.64806  -0.0054526
-0.1962    -0.21757   0.0021113    0.068214     0.10965     -1.0861    0.002769
-0.23533    -0.26361   0.0014536    0.044535     0.18957     -1.3578   0.0083598
-0.26822    -0.31031     0.01987    0.042233     0.44707     -1.4623    0.013293
-0.28927    -0.35076    0.047166     0.06065     0.65722     -1.3808    0.016581
-0.2988    -0.36786    0.072489    0.085315     0.63189     -1.1282     0.01691
-0.29979    -0.34813    0.086959     0.10702     0.33657    -0.78553    0.015266
-0.29321    -0.29091    0.092879      0.1182    -0.10872    -0.46028    0.012635
-0.28236    -0.21856     0.08959     0.11919    -0.51454     -0.1712    0.010333
-0.26394    -0.15772    0.077093     0.11195    -0.74672     0.17773    0.011977
-0.2281    -0.12319    0.059992    0.097812    -0.77138     0.67629    0.015595
-0.16199     -0.1097    0.042233    0.079724    -0.64181      1.2689    0.018555
-0.064978    -0.10477    0.034011    0.061965    -0.44844      1.7842    0.016581
0.051441   -0.097864    0.036314    0.049797    -0.27118      2.0565   0.0093464
0.16786    -0.08471    0.040589    0.045522    -0.15706      2.0089   0.0017824
0.26093   -0.065964    0.038944    0.049139    -0.12352      1.6635   -0.004466
0.31454    -0.03242    0.029736     0.06065    -0.16364      1.0953  -0.0077547
0.32605      0.0373     0.02875    0.076764    -0.24125      0.4395  -0.0067681
0.31454     0.15832    0.049468     0.10176    -0.29025    -0.14095  -0.0011774
0.30796     0.32868    0.090248     0.13892    -0.23698      -0.505   0.0080309
0.32966     0.52501     0.13826     0.18036   -0.034722    -0.56025    0.017897
0.38426     0.70753     0.18397     0.21653     0.31223    -0.29617    0.023817
0.45003     0.83546     0.21127     0.23824     0.72628     0.15701    0.024474
0.49344      0.8815     0.21127      0.2389      1.0805     0.52304    0.017239
0.49311     0.84664     0.18102     0.21028      1.2459     0.51843   0.0040845
0.44411     0.74436     0.12511     0.15207      1.1472   0.0024402  -0.0087413
0.35597     0.59769    0.052757    0.065912     0.80192    -0.91642   -0.016634
0.23659     0.42471   -0.027487   -0.033735     0.32868     -1.8767   -0.013674
0.098798     0.24646    -0.10115     -0.1268    -0.11365     -2.3805   0.0021113
-0.036695    0.085644    -0.15377    -0.19817    -0.40766     -2.0402     0.02579
-0.15081   -0.041628    -0.18469    -0.24553    -0.53033    -0.89372    0.044206
-0.23237    -0.12746    -0.20047    -0.27118    -0.53098     0.55099    0.048153
-0.2794    -0.17285    -0.20771    -0.27808    -0.47836      1.6182    0.036642
-0.2988    -0.18436    -0.20738    -0.26789    -0.42936      1.9918     0.01691
-0.29683    -0.17285    -0.19817    -0.24651     -0.4093      1.7106  -0.0008485
-0.27808    -0.14785    -0.18074    -0.21659    -0.41785      1.0729  -0.0093991
-0.23961    -0.11694    -0.16101    -0.17975    -0.44909     0.43852   -0.007097
-0.18567    -0.09622    -0.14785    -0.13766    -0.50237    0.011648   0.0011247
-0.13075   -0.095891    -0.14456   -0.087669     -0.5836    -0.23796   0.0090175
-0.091287    -0.10674    -0.14621    -0.02946    -0.68391    -0.48132    0.012306
-0.06728    -0.10872    -0.14423    0.039602    -0.76843    -0.85656    0.010333
-0.047877   -0.076159    -0.12549      0.1136     -0.7921     -1.3936   0.0067154
-0.030118   0.0024402   -0.088656     0.17838    -0.73685     -2.0405    0.002769
-0.021567     0.11064   -0.051165     0.21982    -0.64346     -2.7206  0.00046697
-0.018278     0.21686   -0.025185     0.22837    -0.56979     -3.3086   0.0021113
-0.004466     0.29053   -0.016634     0.20568    -0.55992     -3.6457   0.0086887
0.027763     0.31881   -0.022554     0.16128    -0.63392     -3.6687    0.016253
0.0692     0.31059   -0.032091     0.10274     -0.7727     -3.4645    0.019541
0.10505     0.28658   -0.028144    0.044206    -0.92562     -3.2188    0.018555
0.12905     0.26027    0.011648   0.0021113     -1.0391     -3.0642    0.013622
0.14517     0.23331    0.092879   -0.015648     -1.0927     -2.9636    0.010662
0.15405     0.19483     0.20206   -0.014003     -1.0996     -2.7574    0.010991
0.15372     0.14254     0.32901   0.0017824     -1.0762     -2.3023    0.015924
0.14616    0.084657     0.46647    0.033683     -1.0164     -1.5991    0.020199
0.13991    0.040918     0.60821    0.085315    -0.90984    -0.85459    0.020199
0.14122    0.026776     0.73318      0.1524    -0.76251    -0.36129    0.014608
0.14616    0.039602     0.81704     0.22048    -0.59643    -0.27578   0.0067154
0.1353    0.053743     0.83678     0.27277    -0.42213    -0.44844   0.0017824
0.093536    0.035985      0.7835     0.29678    -0.20343    -0.43693   0.0067154
0.028092   -0.024527     0.66774     0.28987     0.11623     0.20601    0.019541
-0.037682    -0.11168     0.51186     0.26586      0.5602      1.5422    0.033683
-0.082079    -0.20212     0.35071      0.2458      1.0834      3.1678    0.039931
-0.097536    -0.27743     0.21259     0.24482      1.6159      4.5359    0.031381
-0.091287    -0.32511     0.11228      0.2629       2.097      4.9601    0.013951
-0.076159    -0.34057      0.0373     0.28724      2.5163      4.9601   -0.011372
-0.060702    -0.32643   -0.030775     0.29349      2.9034      4.3004    -0.03538
-0.055769    -0.28959    -0.10641     0.26389      3.2309      3.0987   -0.043272
-0.071884    -0.24388    -0.19422     0.19154      3.3799      1.8586   -0.035708
-0.10576    -0.19948    -0.28992    0.087288      3.2434     0.89597   -0.016305
-0.14325    -0.16232    -0.37214   -0.023211      2.8448     0.41616   0.0057288
-0.16035    -0.12648    -0.42575    -0.11233      2.3249     0.41813    0.022172
-0.14259   -0.086354    -0.43923    -0.15969      1.8316     0.69339    0.027105
-0.091945   -0.041957    -0.41654    -0.16561      1.4225     0.95714    0.021843
-0.02354   0.0001381     -0.3705    -0.14983      1.0759     0.96865   0.0096753
0.038287    0.030065    -0.31985    -0.13338     0.76245     0.59539  -0.0024928
0.073147    0.038287    -0.27348    -0.12746     0.48555    -0.11891  -0.0090702
0.081039    0.028092    -0.24059    -0.13174     0.27507    -0.93911  -0.0090702
0.071173   0.0047422    -0.22152    -0.14062     0.13892     -1.5321  -0.0008485
0.052428   -0.019265    -0.21626    -0.14654    0.032696     -1.6116    0.012964
0.031381   -0.040313     -0.2202    -0.14785    -0.13075     -1.1062    0.027434
0.014608   -0.051823    -0.22777    -0.14588    -0.40305     -0.2179     0.03434
0.0037556   -0.050507    -0.22908    -0.13864    -0.75494     0.66544    0.031709
-0.0077547   -0.042944     -0.2179    -0.12615     -1.1098      1.2064     0.01987
-0.03242   -0.052481    -0.19751    -0.11595     -1.3883      1.2794   0.0070443
-0.074844   -0.089643    -0.17383    -0.12089     -1.5423      0.9259  -0.0038083
-0.12911    -0.15015    -0.15575    -0.14325     -1.5603      0.2879  -0.0097279
-0.17778    -0.21593    -0.13832     -0.1712     -1.4676     -0.4662  -0.0093991
-0.20573     -0.2692    -0.10905    -0.18929     -1.3176     -1.1887  -0.0051238
-0.20442    -0.29749   -0.055112    -0.18501     -1.1506     -1.7458   0.0021113
-0.17285    -0.29584    0.035985    -0.14983    -0.97035     -1.9517    0.011977
-0.11332    -0.25802      0.1626   -0.081421    -0.74639     -1.6297    0.021186
-0.031433    -0.17679     0.29612   0.0080309    -0.45896    -0.76119    0.028421
0.058019   -0.063004     0.40201    0.092879     -0.1324     0.42306    0.031709
0.13859    0.058019     0.45365     0.14977     0.15734      1.5225     0.03434
0.20009     0.15865     0.44542     0.17312     0.30566      2.2479    0.033683
0.24514     0.22903     0.38458     0.17148     0.21259      2.4805    0.023159
0.27047      0.2708      0.2902     0.15207    -0.14752      2.2496   0.0073732
0.27606     0.28855      0.1843     0.11952    -0.70824      1.7001  -0.0077547
0.26488     0.28428    0.086959    0.073476     -1.3334      1.0446   -0.014661
0.23528     0.25567    0.012964    0.017897     -1.8774     0.49311   -0.011701
0.18036     0.20075   -0.035708   -0.045903     -2.2608     0.17411  -0.0015062
0.10406       0.133   -0.063333    -0.11365     -2.4845    0.096825    0.010991
0.027763    0.070187   -0.081092    -0.17449     -2.5927     0.18233    0.019212
-0.022225    0.030065    -0.10214    -0.21494     -2.6153     0.31618     0.02283
-0.032749     0.01987    -0.13272    -0.22974      -2.542     0.38689    0.021186
-0.011043    0.037958    -0.17054     -0.2202     -2.3325      0.3096    0.016253
0.023817    0.074791    -0.20771    -0.19324     -1.9583    0.062294   0.0086887
0.052757     0.11491    -0.23369    -0.15673     -1.4199    -0.31689   0.0017824
0.064596     0.14287    -0.24388    -0.11793    -0.73258    -0.73718  -0.0038083
0.056046     0.15503    -0.23665   -0.080434     0.07216     -1.0887  -0.0057815
0.028421     0.15306     -0.2156   -0.040641     0.88512     -1.2815  -0.0031506
-0.013017     0.13399    -0.18797   0.0030979      1.5172      -1.289   0.0021113
-0.063991    0.097154    -0.16364     0.04618      1.8086     -1.1525   0.0086887
-0.12056    0.045851    -0.14621     0.07512      1.7336    -0.95785    0.012635
-0.17581   -0.012359    -0.13766    0.081697      1.4097    -0.78717    0.013622
-0.21856   -0.066622    -0.13568    0.067556      1.0035    -0.67009    0.013951
-0.24059    -0.10477    -0.13733    0.036314     0.63814    -0.56913    0.013622
-0.23895    -0.11858    -0.14127   -0.010057     0.34841    -0.45173    0.015266
-0.21955    -0.11201    -0.14851   -0.069911     0.14287    -0.29551    0.017239
-0.18732   -0.091945    -0.15081    -0.12976    0.059334   -0.090958    0.020528
-0.14555    -0.06728    -0.14127    -0.16166      0.1478     0.13201    0.023159
-0.097536   -0.049521    -0.11201    -0.14654       0.403     0.31552    0.022172
-0.050179   -0.048205   -0.063662   -0.088327     0.75982     0.44608    0.020528
-0.0084125   -0.067609  -0.0067681   -0.011043      1.1331     0.56579    0.017568
0.023817    -0.10017    0.040918    0.060979      1.4544     0.71115    0.015266
0.038616    -0.13338    0.064596     0.11228      1.6741     0.85158    0.011648
0.029736    -0.15607    0.058676     0.13432      1.7418     0.90387   0.0047422
0.0024402    -0.16101    0.030394     0.13464      1.6277     0.80323  -0.0015062
-0.032749    -0.15048  -0.0057815     0.12774      1.3515     0.55888  -0.0051238
-0.061689     -0.1268   -0.036037     0.13234     0.99562      0.2481  -0.0034794
-0.074515   -0.094905   -0.055769     0.15339     0.68385   -0.048205   0.0001381
-0.073199   -0.059387   -0.061031     0.18529     0.49475    -0.27644   0.0057288
-0.060373   -0.028473   -0.058729     0.21028     0.42405    -0.41555    0.011648
-0.042286   -0.010715   -0.054454     0.20765     0.40366    -0.48724    0.016581
-0.026171  -0.0077547   -0.047219      0.1672     0.35795    -0.53756    0.018884
-0.016963   -0.010386   -0.039655    0.092879     0.24547    -0.58985    0.019212
-0.0090702  -0.0093991    -0.03242   0.0083598    0.088932    -0.63326    0.018555
0.002769   0.0014536   -0.027487   -0.061031   -0.061031    -0.64477    0.016253
0.015924    0.014279   -0.027487    -0.09918    -0.15739     -0.6155    0.013622
0.026447    0.025132   -0.027487     -0.1028    -0.18107    -0.54677    0.010991
0.034669    0.032038   -0.025185   -0.076817    -0.14325    -0.45699    0.010004
0.04618    0.039273   -0.021567   -0.036037   -0.075501    -0.39549   0.0073732
0.06624    0.050784   -0.020252  -0.0018351   -0.013674    -0.42279   0.0050711
0.092221    0.062623   -0.023211   0.0086887   0.0050711    -0.53855   0.0037556
0.11097    0.070845   -0.027158   -0.007097   -0.047548    -0.66286   0.0047422
0.11261     0.07216    -0.02946   -0.046232    -0.17186     -0.7112   0.0063866
0.090248    0.065583   -0.025514   -0.091945    -0.34813    -0.65431   0.0073732
0.050126    0.054401    -0.01499    -0.12746    -0.54315    -0.53328   0.0077021
0.0057288    0.044535   0.0034268    -0.14259    -0.72205    -0.42969   0.0077021
-0.036037    0.036314    0.029736    -0.13634    -0.86413    -0.41193   0.0067154
-0.071226    0.027434    0.052428    -0.12056    -0.96213    -0.50237   0.0050711
-0.1051    0.017568    0.055059    -0.10773     -1.0266    -0.68062   0.0040845
-0.14062   0.0063866    0.031709   -0.099509     -1.0756    -0.90951   0.0044134
-0.17482  -0.0090702   -0.007097   -0.081092     -1.1141      -1.168   0.0034268
-0.19784   -0.029789   -0.041957   -0.037024     -1.1226     -1.4364   0.0011247
-0.20244   -0.060045   -0.059058    0.028092     -1.0805     -1.6567   0.0001381
-0.19356   -0.095891   -0.053138    0.088603    -0.98054     -1.7313   0.0014536
-0.17844    -0.12746   -0.029131     0.12642    -0.84702     -1.5788   0.0057288
-0.16758    -0.14654   0.0024402     0.13892    -0.70693     -1.1522     0.01132
-0.16495    -0.15048    0.036971     0.13497    -0.55927    -0.38793    0.019541
-0.1689     -0.1393    0.069529     0.12675    -0.37017     0.72759    0.026447
-0.16561    -0.11102    0.096825     0.12971    -0.12056      1.9608    0.027434
-0.13832    -0.07024     0.11754     0.13826     0.12873      2.9231    0.019541
-0.085039   -0.024527     0.12511     0.13333     0.27408       3.278   0.0044134
-0.018607    0.018884     0.11524    0.092221     0.25896      2.9313   -0.011043
0.039602    0.053415    0.090577    0.015924      0.1353      2.0753   -0.020581
0.080053    0.078409    0.064596   -0.066951    0.020528      1.0469   -0.020581
0.10242    0.094852    0.048153    -0.12253    0.013622     0.15701   -0.013017
0.11557     0.10307    0.045193    -0.13174     0.13234    -0.39713   -0.002164
0.12642     0.10603    0.053086   -0.098522     0.31454    -0.59248   0.0080309
0.13596    0.099127    0.062294    -0.04985     0.47272    -0.54184    0.012964
0.13464    0.084986     0.06065    -0.01499     0.54869    -0.40174    0.015266
0.11919    0.065912    0.047824  -0.0087413     0.53093      -0.309    0.012306
0.090248    0.046508    0.031052   -0.020252     0.47864    -0.32643   0.0080309
0.057032    0.032696    0.027434   -0.029789     0.49607    -0.38957   0.0060577
0.031709    0.029736     0.04322   -0.025185     0.66248    -0.36129   0.0086887
0.020199     0.04322    0.075778   -0.011372     0.95912    -0.14029    0.014608
0.025132    0.073147     0.11228  -0.0074258      1.2738     0.28132    0.018226
0.035656     0.10801     0.13497   -0.035708      1.4462     0.77429    0.017568
0.038616     0.13004     0.13399     -0.1005      1.3666       1.165    0.013293
0.034669     0.12577     0.10669    -0.17712      1.0519      1.3932   0.0080309
0.032038    0.095839    0.059334    -0.22349     0.64439      1.5304   0.0063866
0.039273    0.053743    0.014937    -0.20277     0.32111      1.6438   0.0080309
0.057032    0.014937  -0.0077547    -0.10905     0.19516      1.6915   0.0096753
0.076764   -0.007097  -0.0011774    0.031709      0.2754      1.5787   0.0093464
0.090248   -0.007097    0.024145     0.17444     0.49212      1.2877   0.0083598
0.1034   0.0073732    0.055059     0.28658     0.75982     0.93478   0.0086887
0.12379    0.031709    0.085644      0.3563     0.99726     0.66873    0.010662
0.15339     0.05769     0.11524     0.38426      1.1328     0.53981    0.011648
0.18266    0.075449     0.13629     0.38162      1.1239     0.49903    0.010991
0.19877    0.073147     0.14155     0.35827     0.96536     0.47765    0.010333
0.1945    0.044864     0.12971     0.31848     0.69602      0.4691    0.010991
0.17082  -0.0011774     0.10505     0.26521     0.38228     0.52665    0.013622
0.1307   -0.045903    0.070845     0.20272    0.087617      0.6832    0.015595
0.078409   -0.073199    0.027434     0.13267    -0.15739     0.86802    0.016253
0.023159   -0.076159   -0.011043     0.06361    -0.35011     0.93774    0.012306
-0.022225   -0.055769   -0.040641   0.0011247    -0.50533     0.76344   0.0063866
-0.048205   -0.020581   -0.063333   -0.052481     -0.6257     0.32999   0.0014536
-0.057743    0.016253   -0.082736   -0.099838    -0.69607    -0.24454   0.0001381
-0.058071    0.038287   -0.096549      -0.137    -0.69805    -0.81019   0.0034268
-0.051165    0.045193    -0.10115    -0.15607    -0.61517     -1.2854   0.0073732
-0.027487     0.04618   -0.089314    -0.15213    -0.45436     -1.6435     0.01132
0.010333    0.050126   -0.063333    -0.12549    -0.24388     -1.8662    0.013951
0.055388    0.059992   -0.030118   -0.080763   -0.026171     -1.9721    0.014279
0.094852    0.080053  -0.0015062   -0.030775     0.13793     -2.0375    0.012306
0.12478     0.11162    0.016253   0.0073732     0.19647     -2.1812   0.0080309
0.15076     0.15339     0.01987    0.025132     0.14089     -2.4828   0.0017824
0.1797     0.19549    0.010662    0.026776   0.0050711     -2.9008  -0.0015062
0.20963     0.22837  -0.0041372    0.023488    -0.13338     -3.2484  0.00079584
0.23363     0.24514    -0.01795    0.022501    -0.20146     -3.2405     0.01132
0.25008      0.2435   -0.025514    0.034669    -0.16561     -2.6449    0.026776
0.26126     0.22673   -0.018936    0.067227    -0.04097     -1.4554    0.039273
0.26981     0.20568   0.0073732     0.11886     0.10472    0.094194    0.044535
0.27145     0.18365    0.050784     0.17542     0.19285      1.6011    0.039602
0.25106     0.16095    0.097483     0.22015     0.16359      2.7679    0.028421
0.20436     0.13267     0.13136     0.23199    0.011977      3.4532    0.015266
0.13366    0.097812     0.14385     0.20436    -0.20672      3.6489   0.0037556
0.051113    0.064596     0.13563     0.14846    -0.41226      3.4789  -0.0024928
-0.027158    0.037958     0.11623    0.085644    -0.54315      3.1448  -0.0024928
-0.088327    0.021843    0.097483    0.033354    -0.58229      2.8511   0.0001381
-0.12878   0.0096753    0.083999  -0.0011774    -0.56058      2.6962   0.0044134
-0.15377   -0.007097    0.073476   -0.023211    -0.53328      2.5933   0.0057288
-0.17022   -0.038011    0.056046   -0.041299    -0.54611      2.3604   0.0030979
-0.18666   -0.086025    0.025132   -0.066951    -0.60629      1.8947  -0.0011774
-0.20935    -0.14193    -0.01499    -0.10148     -0.6941      1.2433  -0.0034794
-0.23073    -0.18304   -0.054783    -0.13634    -0.78355     0.55658   -0.004466
-0.23402    -0.18732   -0.087341     -0.1643    -0.85031  -0.0087413  -0.0018351
-0.21395     -0.1518    -0.11266     -0.1814    -0.89043    -0.36359   0.0034268
-0.17646   -0.087341    -0.12845    -0.18633    -0.90754    -0.51322   0.0073732
-0.13338   -0.019594    -0.13272    -0.18633    -0.90754    -0.53098    0.010991
-0.10247    0.031709    -0.12648    -0.18633    -0.88649    -0.51585   0.0096753
-0.10017    0.062623    -0.11102    -0.18797    -0.84472    -0.55762   0.0067154
-0.12516     0.08367    -0.09622    -0.18896    -0.78651     -0.7066    0.002769
-0.1518     0.10636   -0.085039    -0.18337    -0.70232    -0.94272  0.00079584
-0.1541       0.133   -0.076159    -0.15673    -0.56058     -1.2091   0.0014536
-0.12352     0.14879   -0.061031    -0.10148    -0.32873     -1.4959  0.00079584
-0.071555     0.13925   -0.037024   -0.019265   -0.019265     -1.8178  0.00046697
-0.013345     0.10176   0.0021113    0.077422     0.29086     -2.1217 -0.00019077
0.038287    0.043549    0.053743     0.16622     0.49673     -2.3164  -0.0011774
0.071502   -0.035051      0.1011     0.22739     0.52731     -2.3851   0.0001381
0.067885    -0.13371       0.133     0.25172     0.37998     -2.3966  0.00046697
0.026776    -0.24191      0.1432     0.24679     0.11195     -2.4269 -0.00019077
-0.038668    -0.33202     0.13267     0.21851    -0.20968     -2.4769 -0.00051963
-0.10247    -0.37839     0.10636     0.17312     -0.5221     -2.4851   0.0011247
-0.14029    -0.37181    0.069858     0.11787    -0.78355     -2.4013   0.0044134
-0.1416    -0.32544    0.027105    0.063281    -0.97298      -2.222   0.0083598
-0.11036    -0.27184   -0.018278    0.015924     -1.0743     -1.9454    0.012306
-0.07024    -0.23961   -0.062347   -0.020581     -1.0513     -1.5212    0.017239
-0.04689    -0.24585    -0.10082   -0.043601    -0.82598    -0.89109    0.022501
-0.04985    -0.28137    -0.12417   -0.040313    -0.31097   -0.053138     0.02579
-0.071226    -0.31821    -0.12549  -0.0057815     0.47897      0.8598    0.025132
-0.097864    -0.32741     -0.1028     0.04881      1.3265      1.5971    0.017568
-0.11464    -0.29617   -0.062347     0.10209       1.924      1.9372   0.0057288
-0.11299    -0.23007   -0.014661     0.13234      2.0444      1.8247  -0.0064392
-0.092931    -0.15081    0.020857     0.12873      1.6721       1.384   -0.013674
-0.063333   -0.078461    0.033025    0.094194      1.0209     0.82757    -0.01499
-0.028473  -0.0077547    0.026447    0.038287     0.40662     0.37373  -0.0093991
0.0077021    0.074133   0.0093464   -0.023869    0.049797     0.20075   0.0024402
0.039273     0.16128   -0.011701   -0.076817    -0.02946     0.37538    0.015266
0.071502     0.22278   -0.036366    -0.11135    0.047166     0.80488    0.023817
0.10899     0.23166   -0.065307    -0.12944      0.1205      1.2469     0.02283
0.14681     0.18266   -0.095233    -0.14555    0.077422       1.413    0.013622
0.16753    0.097154     -0.1222     -0.1712    -0.11464      1.1111   0.0014536
0.15503   0.0096753    -0.14193    -0.20244    -0.39417     0.37176  -0.0080836
0.11426   -0.037024    -0.14785    -0.22053    -0.63227    -0.51849  -0.0080836
0.065254    -0.02354    -0.13634    -0.20836    -0.70134     -1.1562   0.0021113
0.019541    0.045851    -0.10576    -0.16495    -0.54085     -1.3377    0.015924
-0.018278      0.1432   -0.062676    -0.10115      -0.186     -1.1525    0.026119
-0.048534      0.2241   -0.017292   -0.032749     0.25008     -0.8319    0.027763
-0.067609     0.25205    0.021186    0.033354     0.64307    -0.52145    0.024145
-0.076817     0.21456    0.047166    0.091892     0.90419    -0.26526    0.017897
-0.078461     0.12511    0.060321      0.1353      1.0045    -0.13568     0.01132
-0.073528    0.011648     0.06065     0.15536     0.96832    -0.24125   0.0057288
-0.056427   -0.090958    0.051113     0.14944     0.87986     -0.4879   0.0047422
-0.018278    -0.15114    0.036642     0.12741      0.8473    -0.50138    0.012635
0.034669    -0.15213     0.02579     0.10143     0.94662    0.073476    0.027105
0.093865   -0.098193    0.027105    0.092879      1.1778      1.1637    0.037629
0.15405  -0.0047949     0.04881     0.11491      1.4708      2.3042    0.036971
0.21555     0.10538    0.084657     0.16457      1.7267      3.0165     0.02579
0.27112     0.21127     0.11886     0.22377      1.8655      3.0675   0.0093464
0.31223     0.29974     0.13892     0.26948      1.8296      2.5656  -0.0028217
0.33131     0.35893     0.14352     0.28099      1.5984      1.8464  -0.0057815
0.32572     0.38491     0.13333     0.24679      1.2015      1.2163  -0.0024928
0.29382     0.38097      0.1136     0.17279     0.70556     0.78054   0.0037556
0.24416     0.35236    0.092221     0.07808     0.19976     0.48423   0.0090175
0.18957     0.30138    0.077422  -0.0084125    -0.22908     0.22607    0.013293
0.14089     0.23298    0.063281   -0.069582    -0.52901    -0.06728    0.016253
0.10077     0.15405    0.045193    -0.10214    -0.69969    -0.42114    0.016253
0.061307    0.067556    0.025132     -0.1074    -0.77829    -0.82466    0.014937
0.010991   -0.017621   0.0067154   -0.092274     -0.8171     -1.2292    0.011977
-0.051165   -0.091945  -0.0034794   -0.063333    -0.84275     -1.5567    0.010662
-0.12417    -0.14588  -0.0018351   -0.025185    -0.84176     -1.7004    0.011977
-0.19948    -0.17383    0.010991    0.024803     -0.7921     -1.5725     0.01691
-0.26624    -0.17219    0.029078    0.085972    -0.70956     -1.1588    0.022172
-0.31229    -0.14193    0.043549     0.14616    -0.63326    -0.55894    0.026447
-0.33662   -0.098193    0.047495     0.17937    -0.59445    0.036642    0.026447
-0.33794   -0.059716    0.033354     0.16293    -0.61715     0.46318    0.020528
-0.31689    -0.03242   0.0057288    0.090248    -0.69509     0.68089    0.012306
-0.27282   -0.007097   -0.025842   -0.013674     -0.7898     0.76706   0.0057288
-0.21363     0.02579   -0.051823    -0.11135    -0.85788     0.81376   0.0034268
-0.15147    0.059992   -0.071226    -0.17646    -0.87827     0.86703   0.0034268
-0.098193    0.080053   -0.090629    -0.20146    -0.84538     0.90814   0.0050711
-0.063333    0.075449    -0.11431    -0.20014    -0.75757     0.90156   0.0057288
-0.045574    0.041575    -0.14029    -0.18567    -0.61649     0.82921   0.0057288
-0.038668   -0.015319    -0.15969    -0.16857    -0.42739     0.69898   0.0044134
-0.035051   -0.077803    -0.16397    -0.14588     -0.2202     0.52205   0.0037556
-0.037024    -0.12549    -0.15114    -0.11464   -0.062018     0.29053    0.002769
-0.043272    -0.14719    -0.12549   -0.071555   -0.014332   -0.018278   0.0001381
-0.050507    -0.13963   -0.097864   -0.021567     -0.1051    -0.42147  -0.0038083
-0.051165    -0.11497   -0.081421     0.02283    -0.31163    -0.89372  -0.0051238
-0.04393   -0.083394   -0.080763    0.051113     -0.5836     -1.3637  -0.0047949
-0.02946   -0.052481    -0.09326    0.054072    -0.86873     -1.7343  -0.0018351
-0.0087413   -0.022225    -0.11069     0.02875     -1.1121      -1.932    0.002769
0.010662 -0.00051963     -0.1245   -0.015648     -1.2548     -1.9369   0.0077021
0.018884    0.010991    -0.12713   -0.066951     -1.2374     -1.7679     0.01132
0.013293    0.010333    -0.11595    -0.11102     -1.0312     -1.4725    0.012635
0.00046697  0.00079584    -0.09918    -0.14029    -0.66911     -1.1269    0.011977
-0.012688   -0.016634    -0.08175    -0.15509    -0.24092    -0.82039   0.0093464
-0.020909   -0.034393    -0.07024    -0.16495     0.16457    -0.62076   0.0047422
-0.024856   -0.048863   -0.063662    -0.17679     0.48489    -0.51717   0.0021113
-0.027487   -0.057414   -0.062676    -0.18797     0.69043    -0.39516   0.0037556
-0.030775    -0.06136   -0.061031    -0.19521     0.77363    -0.11529   0.0070443
-0.028473   -0.063991   -0.057085    -0.19883     0.74667     0.33164    0.010991
-0.018936   -0.067609   -0.051823    -0.19916     0.63518     0.77955    0.010662
-0.0034794   -0.071226   -0.046232    -0.19028     0.48127       1.014   0.0067154
0.011977   -0.066293   -0.039326    -0.16495     0.32177      0.9236 -0.00019077
0.029736   -0.053467   -0.027816    -0.12319       0.182     0.55033  -0.0047949
0.051441   -0.040313   -0.015648   -0.076488    0.060321    0.036314  -0.0057815
0.076764   -0.038011 -0.00019077   -0.036037   -0.052481    -0.46258  -0.0038083
0.099785   -0.048534    0.013622  -0.0087413    -0.15805    -0.84308  -0.0011774
0.11327   -0.062676    0.024803    0.011977     -0.2646     -1.0736    0.002769
0.11524   -0.068924    0.033025    0.026776     -0.3899     -1.1723   0.0070443
0.10768   -0.061689    0.043877    0.038944    -0.54282     -1.1621     0.01132
0.091234   -0.046561    0.060321    0.052428     -0.7089      -1.046    0.013622
0.062294   -0.032091    0.073147    0.066569    -0.85557    -0.82532    0.016581
0.019212   -0.020252    0.076435    0.079395    -0.94832    -0.52605    0.017239
-0.02946  -0.0041372    0.069858    0.092879    -0.96936    -0.20935    0.014608
-0.061689    0.025461    0.065583     0.11162    -0.92332    0.052099    0.010991
-0.060373    0.076435    0.074462     0.13859    -0.83979     0.20436   0.0067154
-0.023211     0.13826    0.091563     0.16589    -0.75395     0.22804   0.0034268
0.035327     0.19549     0.10472     0.18463     -0.6895     0.13399   0.0011247
0.091234     0.22574     0.10209     0.18003    -0.65793   -0.047877 -0.00051963
0.12577     0.22081    0.081368     0.14352    -0.65694    -0.26624 -0.00051963
0.13169     0.18529    0.049139    0.082355    -0.68193    -0.45205   0.0017824
0.11097     0.13234    0.018884    0.013951    -0.71153    -0.47869   0.0080309
0.073804    0.083013   0.0001381   -0.039326    -0.68522    -0.14588    0.017897
0.035985    0.054072   -0.004466    -0.06136    -0.53197     0.63979    0.029736
0.010991    0.048153   0.0014536   -0.053138    -0.22481      1.6885    0.034998
0.0073732    0.059334   0.0083598   -0.026171     0.17542      2.6728    0.032696
0.017568    0.071502    0.010333   0.0044134      0.5477      3.3306    0.023159
0.028421    0.071502   0.0040845    0.029736     0.78712      3.5253    0.010662
0.023488    0.050455  -0.0064392    0.042562     0.84368      3.2424 -0.00051963
-0.002164    0.013951   -0.013017    0.042233     0.73943      2.5979  -0.0067681
-0.040313   -0.024527    -0.01203    0.031381     0.55264      1.7898  -0.0067681
-0.072542   -0.052481  -0.0011774    0.011977     0.38458      1.0038  -0.0008485
-0.087012   -0.063333    0.016581  -0.0080836      0.3175     0.33953   0.0073732
-0.081092   -0.068266    0.034669   -0.015976     0.37702    -0.15443    0.014608
-0.058729   -0.084381    0.054072  -0.0031506     0.54902    -0.40766    0.020857
-0.028802     -0.1199    0.074133    0.036314     0.80455    -0.33761    0.026776
0.00079584    -0.16758    0.088275    0.096496      1.0979    0.065583    0.030723
0.026119    -0.21297    0.096825     0.15767      1.3709     0.62104    0.030065
0.051441    -0.23533     0.10044     0.20436      1.5524      0.9772    0.021843
0.089919    -0.21494     0.10143     0.23232      1.5728     0.81507   0.0077021
0.14879    -0.15311     0.10044     0.24186      1.3922    0.071502   -0.007097
0.21916   -0.069582    0.098141      0.2287      1.0305    -0.96903   -0.013345
0.27803   0.0077021    0.090577      0.1922     0.57105     -1.8826  -0.0087413
0.29678    0.059334    0.077751     0.13892     0.12281     -2.3966   0.0021113
0.26948    0.076764    0.061965    0.081697    -0.23171     -2.4387    0.014608
0.20568    0.067556    0.044864    0.031052    -0.47738     -2.1234    0.023488
0.12905    0.045522     0.02283  -0.0093991    -0.66121     -1.6524    0.026447
0.064596    0.026447  -0.0024928   -0.048534    -0.80329     -1.1746    0.024803
0.028421    0.020199   -0.028144   -0.091945    -0.86215    -0.74508    0.020528
0.012964     0.02875   -0.050836    -0.14884    -0.78487    -0.39154     0.01691
0.0040845    0.046508   -0.071555    -0.21823    -0.58525    -0.12845    0.014279
-0.011372    0.065912     -0.0903    -0.29058    -0.35504    0.059334    0.013622
-0.041299    0.077422    -0.10411    -0.34945    -0.19422     0.22114    0.013293
-0.084052    0.072818    -0.11003     -0.3797    -0.16331     0.37176    0.012635
-0.1324    0.054072    -0.10411    -0.37905    -0.27381     0.43753   0.0090175
-0.17679    0.031052   -0.089643    -0.35866    -0.49382     0.31388   0.0040845
-0.21198    0.010662   -0.071555     -0.3307    -0.74442   -0.010057  -0.0008485
-0.23599  -0.0034794   -0.054454    -0.30275    -0.89537    -0.40371  -0.0011774
-0.24881   -0.012688   -0.036695    -0.26559    -0.81348    -0.68719    0.002769
-0.24783    -0.02354   -0.020581    -0.20014    -0.44449    -0.74179   0.0096753
-0.23632   -0.045246  -0.0038083   -0.092931     0.12609    -0.55598    0.013622
-0.22251   -0.073528    0.017568    0.054072     0.68024    -0.19324    0.014608
-0.21067    -0.09326    0.043877     0.22278      1.0029      0.2435    0.012635
-0.21363   -0.092931    0.073147     0.38327      1.0223     0.65031   0.0083598
-0.23073   -0.070568     0.10077     0.50561     0.87525     0.99102   0.0057288
-0.24257   -0.037353     0.11853     0.57763     0.82198        1.29   0.0037556
-0.22842  -0.0057815     0.11689     0.60591      1.0574      1.5333   0.0024402
-0.17712     0.01132    0.091234     0.60295       1.554      1.6313 -0.00051963
-0.10017    0.013951    0.047824     0.57894      2.1108      1.5014  -0.0041372
-0.021567   0.0060577   -0.002164     0.53389      2.4643      1.1781  -0.0074258
0.031709  -0.0074258   -0.049192     0.46549      2.4101     0.82625  -0.0064392
0.049797   -0.018607   -0.083394     0.37242      1.9283     0.63518  -0.0024928
0.039602   -0.017621    -0.10082     0.26619      1.2505     0.64932   0.0021113
0.025461   0.0047422    -0.09622     0.17049     0.75127     0.74305   0.0047422
0.020857    0.043549   -0.070897     0.10143     0.73647      0.7687      0.0054
0.025461    0.095839   -0.034064     0.06624       1.236     0.64307   0.0057288
0.032367     0.15076   0.0050711    0.062623      1.9901     0.38689      0.0054
0.036314      0.2014    0.042562     0.08367      2.6252    0.083342   0.0060577
0.042891     0.23626    0.075778     0.12281      2.8708    -0.15969      0.0054
0.05769     0.25008    0.099785     0.17016      2.6446    -0.27907   0.0047422
0.07808      0.2389     0.11491     0.21028      2.0184    -0.29814   0.0040845
0.094523     0.20732     0.12478     0.22936      1.1719    -0.24947   0.0047422
0.1034      0.1695     0.12741     0.21588     0.35531   -0.085039   0.0090175
0.10965     0.13201     0.12017     0.17378    -0.18797     0.28592    0.016253
0.11162    0.099456      0.1011     0.11491    -0.34649     0.87229    0.023488
0.10998     0.07216    0.073804    0.058019    -0.18008      1.5455    0.027105
0.10373    0.049468    0.046837    0.015266     0.13958      2.0957    0.023488
0.09551    0.034669    0.020528   -0.015648      0.4155       2.341    0.014608
0.08959    0.027434  -0.0084125   -0.040313     0.50725      2.2012   0.0024402
0.087288    0.021514   -0.044917   -0.062347     0.36913      1.7316  -0.0074258
0.085972    0.010991   -0.087669   -0.088327    0.058348      1.0913   -0.011701
0.07808  -0.0024928    -0.12812    -0.12187    -0.32018      0.4622  -0.0087413
0.064596   -0.016305     -0.1587    -0.15476    -0.67108   -0.027487  -0.0015062
0.049468     -0.0265    -0.17581    -0.18304    -0.95128    -0.34419   0.0063866
0.037958   -0.031762    -0.18337    -0.20376     -1.1683    -0.54808     0.01132
0.032696   -0.031762    -0.18205    -0.21691     -1.3499    -0.73291    0.012306
0.04026   -0.026829     -0.1689    -0.21955     -1.4979    -0.95325    0.010991
0.06361   -0.010715     -0.1393    -0.20179      -1.586     -1.2035   0.0093464
0.094852   0.0096753   -0.099509    -0.16989     -1.5936     -1.4436   0.0073732
0.11754    0.019212   -0.067937    -0.14983     -1.5442     -1.6478   0.0070443
0.11787    0.010333   -0.058071     -0.1735     -1.4962     -1.8099   0.0067154
0.10011   -0.018607   -0.072213    -0.24717     -1.4979     -1.9497   0.0077021
0.077751   -0.062347    -0.10148     -0.3455     -1.5715     -2.0961   0.0083598
0.062623    -0.10937    -0.12516    -0.42476     -1.6876     -2.2595   0.0093464
0.05473    -0.14029     -0.1199    -0.45238     -1.7665     -2.4207    0.010333
0.053415    -0.13897   -0.076159    -0.41818     -1.7254     -2.5404    0.010991
0.057361    -0.10839  -0.0041372     -0.3386     -1.5399     -2.5913    0.012306
0.070516   -0.060702    0.079724    -0.22908     -1.2499     -2.5183    0.013951
0.098469  -0.0077547     0.15668     -0.1051    -0.91247     -2.1352    0.020199
0.12938    0.036314     0.21357    0.012306    -0.56913     -1.2282    0.029078
0.1478    0.063938     0.23922     0.10472    -0.26592     0.13234    0.035985
0.14188    0.071831     0.23067     0.16095   -0.052481      1.4873    0.031381
0.10932    0.061965     0.19812      0.1797    0.017568       2.367    0.018555
0.059663    0.038616     0.15799     0.16819   -0.077146      2.5666   0.0030979
0.0037556   0.0021113     0.12379     0.13399    -0.29847      2.1661  -0.0067681
-0.051823   -0.041957    0.096496    0.085315    -0.55861      1.4412  -0.0077547
-0.095891   -0.084052    0.074462    0.035985    -0.76777     0.67497  -0.0011774
-0.11562    -0.10905    0.056703  -0.0008485    -0.86906    0.041247   0.0083598
-0.10806    -0.10444    0.044535   -0.018936    -0.85426     -0.3945    0.015595
-0.085367   -0.073199    0.036314   -0.021896    -0.74935    -0.62635    0.020199
-0.065635   -0.026171    0.027763   -0.017292    -0.60268    -0.63984    0.024145
-0.059058     0.02283    0.017897   -0.015648     -0.4583     -0.4024     0.02579
-0.065307      0.0692   0.0024402   -0.020909    -0.34517    0.058676    0.026447
-0.075173     0.11524    -0.01499   -0.037682    -0.26789     0.58848    0.022172
-0.081092     0.16457   -0.027158    -0.06136    -0.22612     0.97655    0.014608
-0.077146     0.21259   -0.029789   -0.085696    -0.21659      1.0798   0.0077021
-0.055112     0.25369   -0.021567    -0.10181    -0.22875     0.89597   0.0011247
-0.015648     0.27672  -0.0041372   -0.097207    -0.23928     0.55231   0.0001381
0.03434     0.26915    0.014937   -0.066951    -0.22875     0.21752    0.002769
0.07216     0.22574    0.026119   -0.024527    -0.20672   0.0093464   0.0093464
0.076435     0.15471    0.020199   0.0050711    -0.20014   -0.038668    0.014608
0.034998    0.069858  -0.0011774   0.0047422    -0.23171    0.015924    0.017897
-0.046232   -0.012359   -0.037024   -0.024856    -0.30439    0.066898    0.017568
-0.14522   -0.085039    -0.07879    -0.07583     -0.4047    0.031709    0.014279
-0.24585    -0.15805    -0.11562    -0.12417    -0.50303    -0.12187   0.0080309
-0.34386     -0.2521    -0.14193    -0.14752     -0.5767    -0.38661   0.0021113
-0.44383    -0.38102     -0.1564    -0.13832    -0.62175    -0.71383  -0.0015062
-0.54184    -0.53033    -0.15903    -0.10707    -0.64148     -1.0345 -0.00051963
-0.61452    -0.65628     -0.1416   -0.068924    -0.63786     -1.3028   0.0024402
-0.62372    -0.71383   -0.099509   -0.038011    -0.61221     -1.5015   0.0063866
-0.54052    -0.67963   -0.038668   -0.011372    -0.56979     -1.6248    0.010991
-0.3797    -0.55663    0.027763    0.016253    -0.52342     -1.6906    0.012964
-0.18534    -0.37806    0.085972    0.047166    -0.48165     -1.7432    0.011648
-0.0018351    -0.18107     0.12445    0.083999    -0.44153     -1.8231   0.0083598
0.15339     0.01132     0.13728     0.12346    -0.38332     -1.8922   0.0063866
0.2879     0.20338     0.12708     0.15931    -0.27775     -1.7938   0.0083598
0.41418     0.39807    0.099456     0.18924    -0.10247     -1.3502    0.013293
0.53422     0.57927     0.06361     0.20831      0.1307    -0.52375    0.020199
0.63748     0.71115     0.02283      0.2116     0.38261     0.50298    0.022501
0.69569     0.75851    -0.02354     0.19581     0.60788       1.409    0.018555
0.68451     0.71444   -0.069582     0.16457       0.771      1.9576   0.0090175
0.60229     0.60197    -0.10609     0.12675     0.86933      2.0635  -0.0011774
0.46812     0.45825    -0.12582    0.091563     0.91834       1.775  -0.0090702
0.30763     0.32045    -0.12746    0.068871     0.93807      1.2206   -0.011043
0.15306     0.21028    -0.11332    0.058348     0.93807     0.55724  -0.0087413
0.033025      0.1353   -0.085039    0.059334     0.91636   -0.085367  -0.0041372
-0.035051    0.088275   -0.043601    0.072489     0.86703    -0.63195   0.0011247
-0.053467    0.051441   0.0044134    0.090905     0.77922     -1.0835   0.0040845
-0.044917  -0.0011774    0.046508     0.10998     0.63814     -1.4584   0.0040845
-0.04097   -0.081092    0.069858     0.12379      0.4474     -1.7501   0.0034268
-0.067937    -0.18501    0.070516     0.12938     0.24087     -1.9428   0.0034268
-0.13042    -0.29749    0.059334     0.12905    0.065912     -2.0323      0.0054
-0.21198    -0.39385    0.052757     0.12511   -0.038011     -2.0224   0.0080309
-0.28532     -0.4514    0.053415     0.11656    -0.06728     -1.9139    0.010333
-0.32741      -0.456    0.058019     0.10406   -0.047877     -1.7218    0.011648
-0.32215    -0.41292    0.055388    0.083342   -0.010715     -1.4738    0.011977
-0.27184    -0.34386    0.041247    0.052757    0.021843     -1.1976    0.011648
-0.19258    -0.27249    0.018884    0.013951    0.041247    -0.91082    0.010991
-0.10872    -0.20244  -0.0011774   -0.026171    0.046837    -0.61188    0.010662
-0.036366    -0.11398  -0.0093991   -0.053138    0.052757    -0.25079     0.01132
0.022501    0.011977  0.00079584   -0.056098    0.067227     0.22706    0.012306
0.082684     0.17115    0.021514   -0.040313    0.083013     0.80356    0.014608
0.15207     0.32407    0.037629    -0.01795    0.073476      1.3883    0.015924
0.22771     0.42076    0.031052  -0.0064392   0.0093464      1.8684    0.014279
0.28757     0.42701  -0.0057815   -0.020252     -0.1245      2.1592   0.0086887
0.31125     0.35005   -0.064649   -0.054454    -0.29782      2.2299   0.0034268
0.29546     0.23265    -0.12549    -0.09326    -0.44186      2.0973   0.0001381
0.25468     0.12313    -0.16791    -0.11825    -0.49547       1.805 -0.00051963
0.20568    0.042562    -0.18534    -0.12483    -0.45337      1.4014  0.00079584
0.15668   -0.011043     -0.1837    -0.12121    -0.36819     0.92294   0.0030979
0.1057   -0.052481    -0.17548     -0.1199    -0.30209     0.40004   0.0060577
0.049468   -0.088985    -0.17482    -0.12516    -0.27118   -0.093918    0.010004
-0.0093991     -0.1199     -0.1837    -0.13371    -0.25967    -0.43068    0.014608
-0.062347     -0.1393    -0.19685    -0.13601    -0.22941    -0.45205    0.021514
-0.096878    -0.14325    -0.20639    -0.12582    -0.15147   -0.030775     0.02875
-0.11825    -0.13174    -0.20705    -0.09918  -0.0041372     0.79731    0.034011
-0.13207    -0.11036    -0.19817   -0.059716     0.23396      1.8316     0.03434
-0.13568   -0.079448    -0.18107   -0.014332     0.56743      2.8221    0.029736
-0.11727   -0.044917    -0.15772    0.027434     0.95813      3.5651    0.021514
-0.074186  -0.0090702    -0.13207    0.058019      1.3347      3.9847    0.012306
-0.011372    0.031052    -0.10609    0.075778      1.6057       4.086   0.0047422
0.056046    0.079066   -0.075173     0.07808      1.6902      3.8706  -0.0024928
0.11097     0.13695   -0.037353    0.068543       1.556      3.3421   -0.007097
0.14583     0.19976    0.010333    0.056374      1.2482      2.5449   -0.010057
0.17115     0.25665    0.058019    0.047824     0.86341      1.5744  -0.0093991
0.2014     0.29908    0.099127    0.046508     0.50166     0.56447  -0.0054526
0.24284     0.31881     0.13464    0.055717     0.23824    -0.36326  0.00079584
0.2879     0.32111     0.17246    0.075449     0.10242     -1.0966   0.0073732
0.31585     0.31256     0.22311      0.1034    0.080053     -1.5804    0.013293
0.29875     0.29086     0.29086     0.13464     0.13629     -1.7942    0.017568
0.22015      0.2458     0.36847     0.15799     0.23199     -1.7629    0.019212
0.086301     0.17279     0.44477     0.16885     0.34742     -1.5446    0.019541
-0.074186    0.073804     0.50725     0.16589     0.48357     -1.2321     0.01691
-0.21889   -0.038997     0.53849     0.15569     0.64439    -0.94305    0.012306
-0.31821    -0.14719     0.52435     0.14287     0.80093    -0.79835   0.0080309
-0.36425    -0.22514     0.45957     0.12544       0.894    -0.85985   0.0044134
-0.36885    -0.24914     0.35433      0.1057     0.87887     -1.0753   0.0044134
-0.34583    -0.21922     0.23429    0.087946      0.7687     -1.3252   0.0050711
-0.30834    -0.14884     0.12149    0.074133     0.61644     -1.4995   0.0083598
-0.26855   -0.066293    0.031709    0.058019     0.47634     -1.5291    0.011648
-0.23369   -0.004466    -0.02946    0.035985     0.36123     -1.3706    0.014937
-0.20475    0.011648   -0.069582   0.0080309     0.25501     -1.0203    0.017239
-0.18666   -0.024527   -0.097207   -0.021567     0.13497    -0.54545    0.018555
-0.18403   -0.098193    -0.11793   -0.046232  -0.0008485   -0.086354    0.015924
-0.19422    -0.18469    -0.12944   -0.059387    -0.13864     0.21193    0.011648
-0.20902    -0.25967    -0.13305   -0.062018    -0.25934     0.30566   0.0073732
-0.22218    -0.31261    -0.13634   -0.064978    -0.35076     0.29119   0.0050711
-0.23106    -0.35043    -0.14456   -0.073199    -0.41752     0.33986   0.0077021
-0.23665    -0.38727    -0.15936   -0.086354    -0.48363      0.5625    0.011977
-0.2452    -0.43397    -0.18238    -0.10641    -0.56486     0.91307    0.013951
-0.26296    -0.48395    -0.20902    -0.12944    -0.66286      1.2271    0.011977
-0.29223    -0.52046      -0.235    -0.14621    -0.76612       1.338   0.0077021
-0.32149    -0.52441    -0.24224    -0.14719    -0.84143      1.1834   0.0024402
-0.33136    -0.48494    -0.22645    -0.12582    -0.86314     0.82033 -0.00051963
-0.32215    -0.40536    -0.19718   -0.084381    -0.83387     0.36321  -0.0034794
-0.31064    -0.28894    -0.17054   -0.037024    -0.77599   -0.071884  -0.0038083
-0.30341    -0.13733    -0.15377  -0.0038083    -0.72567    -0.41391   -0.004466
-0.28565    0.044535    -0.15081 -0.00051963    -0.71515     -0.6326  -0.0034794
-0.23698     0.22739    -0.16298   -0.027816    -0.74968    -0.72567  -0.0015062
-0.1518     0.37044    -0.18929   -0.072213    -0.79276    -0.72436    0.002769
-0.044259     0.44345    -0.22119    -0.11694    -0.77467    -0.64082   0.0060577
0.06065     0.44181    -0.25408    -0.14555    -0.59709    -0.41489    0.010333
0.13629     0.37538    -0.28367    -0.14917    -0.21034   -0.029789    0.012635
0.16457      0.2754    -0.30242    -0.12746     0.30598     0.39675    0.012306
0.15503     0.18069    -0.29979   -0.084052     0.74765     0.71542   0.0077021
0.13169      0.1182    -0.26855   -0.028473     0.93149     0.86341   0.0030979
0.11919    0.094852    -0.21856    0.028421     0.79863     0.83415   0.0001381
0.12807    0.095181    -0.17252    0.074133     0.42668     0.63354  -0.0015062
0.15734    0.094194    -0.14391     0.10044   -0.018278     0.29645 -0.00051963
0.19581    0.071173    -0.14062     0.10801    -0.37444   -0.074515   0.0014536
0.23265    0.013951    -0.14818     0.10242    -0.56913    -0.36425   0.0063866
0.25468   -0.068595     -0.1347     0.08367    -0.62866    -0.53065   0.0093464
0.24778     -0.1587   -0.073199    0.049468    -0.62109    -0.59314    0.012306
0.20042    -0.23961    0.037629 -0.00019077    -0.60202    -0.58393    0.011648
0.11458    -0.30209     0.17806   -0.056098    -0.58755    -0.54874   0.0090175
0.015266    -0.33991     0.31125    -0.10214    -0.56749     -0.5494   0.0047422
-0.068924    -0.34682     0.40958    -0.12976    -0.53624    -0.65497   0.0001381
-0.12319    -0.32676     0.48555    -0.13996    -0.49349     -0.9128  -0.0034794
-0.14522     -0.2794     0.56447    -0.13009    -0.42871     -1.3163  -0.0057815
-0.13503    -0.19981      0.6536   -0.095233    -0.31623     -1.7932  -0.0047949
-0.0903   -0.088656     0.72496   -0.038997    -0.14884     -2.2316 -0.00051963
-0.01795    0.045522     0.73713    0.024474    0.035656     -2.5404   0.0037556
0.067227      0.1843     0.66511    0.072818     0.17246     -2.6943   0.0083598
0.15471     0.30796     0.51646    0.093208     0.21094     -2.7051    0.012306
0.23725     0.40169     0.32703    0.087617     0.12577     -2.6117    0.013622
0.30993     0.45332     0.13991    0.067556    -0.06728     -2.4881    0.012635
0.36485     0.45332   -0.014332     0.04881    -0.31886     -2.3694    0.010004
0.40201     0.40267    -0.11891    0.044864    -0.55959     -2.1497    0.010991
0.42372     0.32703    -0.17153    0.054401     -0.7237     -1.5774    0.019541
0.42372     0.24942    -0.17778    0.072489    -0.75428    -0.48593    0.032367
0.40004     0.19187    -0.14555    0.094852    -0.63721     0.94596    0.040918
0.36123      0.1672   -0.088327     0.12215    -0.41423      2.2611    0.039273
0.32243     0.18562   -0.013017     0.15898    -0.13272       3.104    0.027434
0.29809     0.24284    0.072489      0.2014     0.19614      3.3434    0.011648
0.29119     0.32013     0.15076     0.24153     0.57467      3.0997  0.00046697
0.29151     0.38458     0.20272     0.26751      0.9943      2.6321  -0.0038083
0.28757     0.40267     0.21324     0.27836      1.3985      2.1654   -0.002164
0.26652     0.35367      0.1797     0.26619       1.706      1.8076   0.0021113
0.21949      0.2412     0.11228       0.231      1.8451      1.5389   0.0060577
0.13859    0.095181    0.031709     0.17806      1.7688      1.2699   0.0067154
0.026447   -0.043272   -0.038668     0.11656      1.4794     0.95122   0.0050711
-0.1028    -0.14226   -0.080763     0.06624      1.0371     0.62893      0.0054
-0.22546    -0.18534   -0.088985    0.038616     0.54145     0.35992   0.0077021
-0.31755    -0.17087    -0.07287    0.033025    0.085972     0.13464     0.01132
-0.3649    -0.10773   -0.048863    0.039602     -0.2646    -0.10378    0.013622
-0.36786   -0.018607   -0.031104    0.042891    -0.49481    -0.38003    0.015924
-0.33564    0.071831    -0.02946    0.032038    -0.63129    -0.63458    0.017239
-0.27216     0.13728   -0.046232   0.0096753     -0.7089     -0.7043    0.020199
-0.18797     0.15997   -0.076817   -0.018278    -0.74935     -0.4514    0.025132
-0.092603     0.14418    -0.11003   -0.047548     -0.7704    0.065583    0.027763
-0.0047949     0.10373    -0.14259   -0.073857    -0.79539      0.5819    0.023488
0.054401    0.058676    -0.17877   -0.095233     -0.8467     0.82658    0.014937
0.072489    0.022501     -0.2202    -0.12089    -0.93648     0.67793   0.0050711
0.056046  0.00046697    -0.27052    -0.15147     -1.0486     0.19384  0.00046697
0.030065  -0.0011774    -0.32117    -0.18765     -1.1335    -0.42147  0.00079584
0.016253    0.012635    -0.35734    -0.22119     -1.1111    -0.92069   0.0057288
0.025132    0.030723    -0.36721    -0.23566    -0.89076     -1.1206    0.013622
0.050784    0.034998    -0.34451    -0.21363    -0.40733    -0.90984    0.023817
0.084328     0.02283    -0.29486    -0.15048     0.32111    -0.22842    0.033354
0.12149   0.0024402    -0.22349   -0.051165      1.1449     0.85585    0.039602
0.16194   -0.015976    -0.14127    0.065912      1.8471      2.0681      0.0373
0.1945     -0.0265   -0.060045      0.1797      2.2266      3.0267    0.025461
0.20075   -0.028802    0.014279     0.26915      2.1976      3.3894   0.0050711
0.17082     -0.0265    0.071831      0.3198      1.8296      3.0037   -0.014661
0.10735     -0.0265     0.10505      0.3244      1.3077      1.9753   -0.028144
0.035327     -0.0265     0.11491     0.28954     0.78975     0.59637    -0.02946
-0.01795   -0.018936     0.10932       0.231     0.32802    -0.75494   -0.021567
-0.03242   0.0063866    0.094523     0.16786    -0.11398     -1.7688   -0.007097
-0.0074258     0.04881    0.076764     0.10932    -0.59117     -2.4022   0.0057288
0.039273    0.091234    0.056703    0.055388     -1.1042     -2.7623    0.014279
0.085644     0.11327    0.035327   0.0037556     -1.5666     -2.9426    0.017897
0.11721     0.10176    0.010004   -0.047877     -1.8501     -2.8992    0.020857
0.12346    0.055059   -0.014003   -0.091616     -1.8698     -2.4851     0.02579
0.10274   -0.016963   -0.022883     -0.1176     -1.6169     -1.5998    0.031381
0.060321     -0.0903   -0.013345    -0.12056      -1.168    -0.32807    0.032367
0.0070443     -0.1416   0.0040845    -0.10313    -0.64806     0.98378    0.025461
-0.044588     -0.1643    0.020199   -0.069911     -0.1518      1.9303    0.012306
-0.087341    -0.16331    0.032038   -0.025514     0.29184      2.3318  -0.0031506
-0.10773    -0.14785    0.044864    0.025461     0.69734      2.2206   -0.014332
-0.091945    -0.12154     0.06065    0.079395       1.093      1.7783   -0.018936
-0.04393   -0.087341    0.081368     0.12511      1.4721      1.2183   -0.015976
0.011648   -0.049192     0.10242     0.14681      1.7764     0.69076   -0.010057
0.050455   -0.016963     0.11393     0.13432      1.9234      0.2629  -0.0061104
0.062952   0.0077021     0.10801    0.093208      1.8543   -0.060373  -0.0028217
0.053743    0.026776    0.087288    0.041575       1.557    -0.28532  -0.0011774
0.038616    0.039273    0.056703 -0.00019077      1.0992    -0.40042  0.00046697
0.027763    0.042233    0.025461   -0.022883     0.60493    -0.37411   0.0040845
0.019212    0.036971   0.0011247   -0.033735     0.19779    -0.19521    0.010662
0.0067154    0.027434   -0.013345   -0.044259    -0.04985    0.077093    0.014279
-0.0090702    0.019212   -0.019265   -0.064978    -0.14391     0.31848    0.015266
-0.027487    0.016581   -0.023869    -0.10313    -0.13864     0.41418     0.01132
-0.04689    0.018555   -0.032749    -0.15673    -0.10905     0.33197   0.0070443
-0.073199    0.011648   -0.048863    -0.21922    -0.11266     0.12807   0.0030979
-0.10905    -0.01203   -0.069582    -0.28269    -0.16857   -0.099509    0.002769
-0.15476    -0.05544   -0.090958    -0.34156    -0.26822    -0.27184   0.0044134
-0.20179     -0.1074    -0.11168    -0.37839    -0.40634    -0.36458   0.0070443
-0.2373    -0.15081    -0.12911    -0.36786    -0.56913     -0.4024   0.0090175
-0.25276     -0.1735    -0.14062    -0.29288    -0.73916    -0.43594   0.0080309
-0.25079    -0.17712    -0.14062    -0.15903    -0.88452     -0.4981   0.0080309
-0.24059    -0.17679    -0.11858   0.0080309    -0.96213    -0.58656   0.0070443
-0.22744    -0.17975   -0.068595      0.1695    -0.92793    -0.68456   0.0077021
-0.21363    -0.18074  -0.0041372     0.28691    -0.77007    -0.77763   0.0070443
-0.20212    -0.17712     0.05473     0.32999    -0.52835    -0.86413      0.0054
-0.18896     -0.1712    0.088932        0.28    -0.27973     -0.9299   0.0047422
-0.17252    -0.16594    0.093536     0.15043    -0.10181    -0.95128   0.0040845
-0.15443    -0.16331     0.07216   -0.016305   -0.054783    -0.90326      0.0054
-0.13108    -0.16462    0.035985     -0.1643    -0.16364     -0.7829   0.0083598
-0.096549    -0.17022  -0.0024928    -0.25572    -0.40634    -0.61024    0.010004
-0.052481    -0.17877   -0.028802    -0.27644    -0.70627    -0.42147    0.010991
-0.010715    -0.18567   -0.039326    -0.23829    -0.96673    -0.24816   0.0093464
0.019541    -0.17877   -0.037353    -0.16495      -1.119    -0.11135   0.0080309
0.035327    -0.15213   -0.032749   -0.087669     -1.1387   -0.038339   0.0073732
0.044864    -0.10641   -0.031104   -0.027487     -1.0315   -0.043601   0.0077021
0.060321    -0.04985   -0.031762    0.010004    -0.81677    -0.11135   0.0080309
0.078409   0.0044134   -0.031104    0.030065    -0.53164     -0.1985   0.0096753
0.091234    0.042891   -0.023869    0.036971    -0.23533    -0.26328     0.01132
0.08663    0.062623  -0.0097279    0.027763   -0.004466    -0.28992    0.011648
0.067227    0.063281   0.0057288   0.0034268    0.092879    -0.28894    0.010991
0.0373    0.049139    0.011977   -0.033078    0.021843    -0.27348   0.0093464
-0.0018351    0.027763   0.0080309   -0.080434    -0.18929       -0.26   0.0080309
-0.045903      0.0054  -0.0028217    -0.13371    -0.44646    -0.26789   0.0086887
-0.086354   -0.012688   -0.014003    -0.17844    -0.63885    -0.30702   0.0090175
-0.11661   -0.017292    -0.01795    -0.20014    -0.69838    -0.39056    0.010004
-0.12878  -0.0015062   -0.012688    -0.19291    -0.62504    -0.51191    0.011648
-0.11628    0.029736   -0.002164    -0.15575    -0.46028    -0.62504    0.013951
-0.080434    0.063938    0.012306   -0.098193    -0.25967    -0.64346    0.018226
-0.034064    0.090248    0.025132   -0.036695   -0.071884    -0.49349    0.021843
0.0083598     0.10472     0.03434    0.010662      0.0692    -0.18534    0.022501
0.035656      0.1113    0.038616      0.0373     0.15799     0.17016    0.019541
0.050126      0.1136    0.036314    0.048153     0.21028      0.4201    0.013951
0.054401     0.12116    0.028092    0.052757     0.25896     0.47404   0.0080309
0.05473     0.13234    0.016253    0.056703     0.33262     0.36156   0.0047422
0.056703     0.13826  0.00079584     0.06361     0.45134     0.23396   0.0063866
0.063281       0.133   -0.013345    0.072818     0.62071      0.2879    0.013293
0.069858      0.1159   -0.023869    0.086959     0.81507     0.59276    0.020857
0.074133    0.093865   -0.025514     0.10834     0.96832     0.98904    0.023488
0.081368    0.071502    -0.01795     0.13629     0.99496       1.215    0.020528
0.08959    0.048153  0.00046697     0.15832     0.85059      1.1061    0.011648
0.093208    0.019212     0.02875     0.16786      0.5648      0.7026   0.0044134
0.092879   -0.014332    0.057361     0.16063     0.21982     0.21226   0.0014536
0.09551   -0.039655    0.076764     0.13958    -0.10115     -0.1199      0.0054
0.10077    -0.04985    0.081697     0.10932    -0.35537    -0.15838    0.012635
0.097812    -0.04689    0.072818    0.070187    -0.54776    0.056703    0.018884
0.070187   -0.028802    0.053415    0.021843    -0.70002     0.35005    0.020528
0.015924   0.0040845    0.027105   -0.033078     -0.8171     0.52896    0.017239
-0.050507    0.052428  -0.0015062   -0.085039    -0.87629     0.47239    0.010991
-0.1074     0.10011     -0.0265    -0.12582    -0.85097     0.17115   0.0037556
-0.13832     0.13201   -0.047548    -0.14851    -0.73948    -0.32084  -0.0028217
-0.14555     0.13695   -0.063333    -0.15542    -0.58623      -0.947  -0.0074258
-0.14292     0.11656   -0.073199    -0.14785    -0.43726     -1.6304  -0.0077547
-0.13667    0.084986   -0.069911    -0.12648    -0.28992     -2.2256  -0.0034794
-0.12253    0.064925   -0.049521   -0.084381    -0.10411     -2.5693   0.0044134
-0.094247    0.067885   -0.013674   -0.022225     0.17444     -2.5601    0.014279
-0.050507    0.091234    0.027105    0.055717     0.56086     -2.2362    0.018884
-0.002164     0.11787    0.060321     0.13991      1.0361     -1.7192    0.020199
0.029736     0.12281    0.084986     0.23002      1.5488     -1.0371    0.020528
0.032696    0.092221     0.10044     0.32243      2.0292   -0.097207    0.022172
0.0086887    0.033354     0.11327     0.40596      2.4203      1.1798    0.026447
-0.020581   -0.028144     0.13234     0.47963      2.7011       2.781    0.033025
-0.039984   -0.062676     0.16589     0.54014      2.8458      4.5135    0.034011
-0.04393   -0.060702       0.207     0.58223      2.7945      4.9598    0.022501
-0.031104   -0.023869     0.24153      0.5898       2.493      4.9598  -0.0047949
0.00046697    0.042562     0.25238     0.55296      1.9599      4.9601   -0.036695
0.048153     0.13004     0.23232     0.47173      1.3008      4.5579   -0.053796
0.099785     0.22903     0.18792     0.35729      0.6605      2.8185   -0.049192
0.14155     0.33098     0.13234     0.23067     0.15175      1.2502   -0.027816
0.16589     0.42043     0.07808     0.11294    -0.18173     0.15799  -0.0028217
0.18332     0.46877    0.029078    0.021843    -0.36227    -0.41226    0.017239
0.20305     0.45233  -0.0093991    -0.03538    -0.43758    -0.61879    0.026447
0.22114     0.36321   -0.039326   -0.060373    -0.45501    -0.66352    0.026447
0.21686     0.21982   -0.068595   -0.066951    -0.44581    -0.69805     0.01987
0.17904    0.054072    -0.10148   -0.065307    -0.42805    -0.77994    0.012635
0.11985   -0.098193    -0.13634   -0.057414    -0.40634    -0.89175   0.0080309
0.067556    -0.20771    -0.16462   -0.048205    -0.38332    -0.98252   0.0060577
0.044535    -0.25769    -0.17909   -0.053138     -0.3797     -1.0161   0.0070443
0.050126    -0.24355    -0.17712     -0.0903    -0.41358    -0.99337   0.0073732
0.0692    -0.17548    -0.16199    -0.16462    -0.49152    -0.93648   0.0093464
0.081039   -0.073528    -0.13799    -0.25737    -0.59741    -0.86906    0.010333
0.07512    0.039273    -0.11036    -0.33333    -0.69969    -0.80526    0.010662
0.052757     0.14056   -0.085367    -0.36523    -0.76415    -0.73357    0.010004
0.01987     0.20963   -0.066622    -0.34813    -0.76448    -0.63425   0.0096753
-0.01203     0.23922   -0.056756    -0.29486    -0.69706     -0.5004    0.010662
-0.037353     0.22739   -0.050836    -0.22678    -0.58229    -0.34188    0.010991
-0.052481     0.18759   -0.044588    -0.15936    -0.44449    -0.16495    0.011648
-0.059716     0.14089   -0.033406    -0.10017    -0.31722   0.0090175   0.0093464
-0.056427    0.097483   -0.016634   -0.048205    -0.23829      0.1136   0.0070443
-0.040313    0.055717   0.0057288 -0.00019077    -0.23796    0.073147   0.0030979
-0.018936   0.0040845    0.023817    0.043877    -0.31952    -0.12648   0.0001381
-0.00019077   -0.057414    0.033683    0.075449    -0.44087     -0.4218 -0.00019077
0.0040845    -0.12516    0.034998    0.091234    -0.54249    -0.72173   0.0021113
-0.0074258    -0.19093    0.035327     0.10077    -0.58821    -0.99896   0.0060577
-0.035708    -0.23994    0.040589     0.11294    -0.57406     -1.3265   0.0093464
-0.080106    -0.26526    0.049797     0.12774    -0.52309     -1.7863   0.0086887
-0.14193     -0.2771    0.058348     0.13464    -0.46652     -2.3434   0.0073732
-0.21593    -0.28927    0.056374     0.12116    -0.42509      -2.834   0.0077021
-0.284    -0.30472    0.042233    0.088275    -0.39976     -3.0537    0.012635
-0.32051    -0.32051    0.015266    0.052757    -0.38069      -2.889    0.020528
-0.31459    -0.32774   -0.018607    0.023488    -0.35701     -2.3569    0.027434
-0.27381    -0.32807   -0.051165    0.002769    -0.32281     -1.5531    0.031052
-0.21363     -0.3284   -0.075173   -0.011372    -0.28006    -0.60333    0.030394
-0.14752    -0.32676   -0.086025   -0.019923    -0.23237     0.33328    0.025461
-0.082079     -0.3159   -0.081421   -0.023211    -0.16791      1.0548    0.016253
-0.024856    -0.28762   -0.062018   -0.021238   -0.073528      1.4126   0.0060577
0.021514    -0.23467   -0.032091   -0.010057    0.044535      1.3383  -0.0018351
0.054072    -0.14423  0.00046697   0.0063866     0.15569     0.90058  -0.0054526
0.079395    -0.02354    0.027434     0.02283     0.20732     0.31881  -0.0028217
0.10768      0.1011    0.043877    0.030394     0.15471    -0.15377   0.0037556
0.14583     0.20568     0.04618     0.02875  -0.0077547    -0.37609    0.011977
0.18858     0.27737    0.036971    0.020857    -0.23336    -0.36129     0.01691
0.22541     0.31125    0.020857   0.0086887    -0.43989     -0.2031    0.017897
0.23429      0.3073   0.0001381  -0.0047949    -0.55466  -0.0041372    0.017239
0.2093     0.26948   -0.019594   -0.020909    -0.54184     0.16326    0.014608
0.15109     0.20436   -0.035051   -0.041957      -0.407     0.27277    0.012964
0.081697     0.12873   -0.044917   -0.061689    -0.18666     0.33131    0.011648
0.018884    0.058348    -0.04689   -0.076159     0.06624     0.34249    0.011648
-0.022225   0.0070443    -0.04393   -0.086354     0.30171     0.30664    0.012964
-0.035051   -0.021567   -0.038997    -0.09622     0.49147     0.24153    0.012635
-0.026171   -0.031433   -0.032091    -0.10674     0.64077     0.17641    0.013293
-0.007097   -0.030775   -0.024856    -0.11266     0.77331     0.13333    0.013293
0.010004   -0.029789   -0.019923    -0.10937     0.91044     0.12248    0.012635
0.02283   -0.039655    -0.01499   -0.096549      1.0519     0.15339    0.011648
0.02875   -0.063662   -0.012688   -0.082079      1.1683       0.231    0.010004
0.027434   -0.095562   -0.016963   -0.074186      1.2021     0.35005    0.010004
0.020199    -0.12582    -0.02946   -0.083394      1.0959     0.48094    0.010004
0.010004    -0.14325   -0.052481    -0.10346     0.83053       0.575   0.0083598
0.002769    -0.13667    -0.08175    -0.11497     0.44707     0.58947   0.0057288
0.0014536    -0.10115    -0.10707     -0.1005    0.031709     0.51087    0.002769
0.0047422   -0.042286    -0.12056   -0.063333    -0.33629     0.37242   0.0017824
0.012964    0.026119    -0.11431   -0.023211    -0.60465     0.23988   0.0024402
0.023159    0.087617   -0.086354   0.0044134    -0.77138     0.16359   0.0050711
0.034011     0.13169   -0.041628    0.019541    -0.86544     0.12905   0.0063866
0.039931     0.16359   0.0067154    0.039273    -0.95424    0.081368   0.0073732
0.039273     0.18858    0.044864    0.074791     -1.0966   -0.010057   0.0070443
0.031381     0.20535     0.06624     0.12281     -1.2982    -0.11825   0.0050711
0.015595     0.20338    0.077093     0.16753      -1.511    -0.18534   0.0040845
-0.0034794     0.16852    0.086959     0.19483     -1.6583    -0.15739   0.0044134
-0.024527    0.094194    0.094852     0.19549     -1.6741  -0.0064392   0.0063866
-0.044917   -0.016305    0.093536     0.16654     -1.5393     0.27178   0.0093464
-0.063991    -0.14095    0.074791      0.1159     -1.2844     0.62992     0.01132
-0.085039    -0.25243    0.038287    0.054401    -0.95424     0.96405    0.010004
-0.10674    -0.32643  -0.0087413  -0.0097279    -0.57538      1.1689   0.0067154
-0.11891    -0.34747   -0.046232   -0.065307     -0.1735      1.1943   0.0021113
-0.11365    -0.31623   -0.062018     -0.1005     0.19417      1.0535  -0.0015062
-0.090629    -0.24158   -0.054783    -0.11135     0.45332     0.78909  -0.0038083
-0.0584    -0.14292   -0.034393    -0.10576     0.54704     0.44608  -0.0034794
-0.021567   -0.041299   -0.014003   -0.095562     0.46647     0.08959   -0.002164
0.017239     0.04618  0.00046697     -0.0903     0.25731    -0.20113  0.00079584
0.057032     0.11228   0.0083598   -0.091287   0.0070443    -0.37477   0.0047422
0.092221     0.16161    0.015266   -0.096549    -0.19784    -0.44285   0.0063866
0.11853     0.19417    0.021186    -0.10641    -0.31821    -0.45008   0.0083598
0.12873     0.20535    0.020199    -0.12187    -0.38431    -0.42739    0.012964
0.11754     0.18891   0.0083598    -0.14358    -0.45666    -0.39089    0.020199
0.081697     0.13991    -0.01499    -0.16693    -0.53723    -0.37378    0.020528
0.031052    0.066569   -0.044588    -0.18403    -0.52638    -0.40634    0.013951
-0.021896   -0.013017   -0.068266    -0.18534    -0.29354    -0.48659   0.0057288
-0.056098   -0.082736   -0.077475    -0.16134     0.17542    -0.57045   0.0001381
-0.058729    -0.13371   -0.072213    -0.11069     0.72891    -0.61846   -0.002164
-0.033078    -0.16068   -0.057743    -0.04097      1.1702    -0.62734  -0.0015062
0.0073732    -0.16364   -0.038668    0.031709      1.3801    -0.61879 -0.00051963
0.043549    -0.14127   -0.018278    0.096167      1.3771    -0.59544  0.00046697
0.064267    -0.09326  -0.0008485      0.1455      1.2893    -0.53526    0.002769
0.070845   -0.022883    0.010333     0.17542      1.2587    -0.42838   0.0040845
0.071173    0.058348    0.016253      0.1843      1.3922    -0.30242   0.0050711
0.073147     0.13432    0.019212     0.18003      1.7566    -0.17219   0.0057288
0.083999     0.18989    0.023817     0.17608      2.3555     0.01987   0.0090175
0.10505     0.21653    0.038616     0.18726      3.0757     0.36814    0.012964
0.13004     0.21785    0.058676     0.21522      3.6548     0.88676    0.015595
0.15043     0.19647    0.083013       0.256      3.8038      1.4547    0.014279
0.15207     0.15799     0.10472     0.29086      3.3783      1.8875   0.0083598
0.12609     0.10801     0.11886      0.3096      2.4887      2.0401  0.00046697
0.077422    0.051441     0.12445     0.31158      1.4153      1.8737  -0.0047949
0.028421  -0.0061104     0.11952     0.29316     0.41977      1.4679  -0.0051238
0.002769   -0.056756     0.10801     0.25304    -0.34024     0.96142   0.0001381
0.0021113   -0.090629    0.090248     0.19154    -0.83058     0.47667   0.0063866
0.01132    -0.10181    0.067227     0.11031     -1.1167    0.082684    0.010991
0.0073732   -0.095233    0.044535    0.021514     -1.2818    -0.20508    0.013622
-0.014661   -0.081421    0.024803   -0.057414     -1.3857    -0.39582    0.013622
-0.042615   -0.071884   0.0090175    -0.11595     -1.4535    -0.50073    0.013293
-0.062347   -0.073199   -0.007097    -0.15344     -1.4867    -0.52309    0.012635
-0.06728   -0.083723   -0.026829    -0.17646     -1.4771    -0.46817    0.012635
-0.059058   -0.085039   -0.047877     -0.1906     -1.4179    -0.33498    0.013293
-0.047877   -0.058071   -0.064649    -0.20047     -1.3189    -0.13864    0.013622
-0.045246   0.0047422   -0.072542    -0.20672     -1.2006    0.062294    0.013951
-0.054125    0.085972   -0.072542    -0.20738     -1.0766     0.20108    0.012635
-0.071555     0.15734   -0.063004    -0.19685    -0.95193     0.25304     0.01132
-0.086354     0.19746   -0.039655    -0.16627    -0.83058     0.25139    0.010662
-0.086683     0.20667  -0.0064392    -0.11266    -0.70166     0.25074    0.011648
-0.069582     0.19351    0.032038   -0.047877    -0.55565     0.28921    0.012306
-0.039984      0.1751    0.070845    0.013951    -0.39976     0.35827    0.012306
-0.0090702     0.15931     0.10077    0.060979     -0.2623     0.40662    0.011648
0.011977     0.14681      0.1182    0.087946    -0.18765     0.37406   0.0086887
0.024145     0.13201     0.12083    0.090905    -0.22415     0.22114      0.0054
0.025461     0.10801     0.10899    0.069529    -0.39417   -0.056427   0.0024402
0.018555     0.07512    0.086301    0.029736    -0.67141    -0.41654   0.0014536
0.0014536    0.038944    0.059992   -0.017621    -0.97923    -0.78191   0.0030979
-0.024856     0.01132    0.036642   -0.056756     -1.2229     -1.0769   0.0070443
-0.050179   0.0014536    0.021514   -0.070897     -1.3249     -1.2325    0.011648
-0.059387    0.010333    0.015266   -0.055112     -1.2548     -1.1858    0.016253
-0.040641    0.030394    0.014937   -0.018278     -1.0365    -0.90556    0.021186
0.010004    0.053086    0.016253    0.019212    -0.73883    -0.41423    0.024474
0.079724    0.073147    0.013622    0.038944    -0.44318     0.20897    0.025461
0.14451    0.091892   0.0021113    0.032696    -0.21922     0.78843    0.020528
0.17937     0.11195   -0.015976   0.0047422    -0.10214      1.1166    0.012635
0.1649     0.13169   -0.037682   -0.029131   -0.083723      1.0696    0.002769
0.10373     0.14912   -0.053467   -0.055112    -0.12779     0.66873  -0.0051238
0.022172      0.1649   -0.055112   -0.064978    -0.19554    0.058676  -0.0090702
-0.048205     0.17937   -0.041299   -0.056756    -0.26756    -0.56025  -0.0074258
-0.081421     0.18957   -0.015976   -0.035051    -0.31393     -1.0338  -0.0011774
-0.070897     0.19022    0.010004  -0.0015062    -0.27151       -1.29   0.0060577
-0.032749     0.17345    0.021186      0.0373   -0.083723     -1.2982    0.011977
0.010662     0.14155    0.012306     0.06624     0.24909     -1.0266    0.016581
0.033683    0.098141  -0.0087413     0.07512     0.65393    -0.45962     0.01987
0.021186    0.041904   -0.033078    0.061307      1.0154     0.34282    0.021514
-0.028473   -0.020252   -0.053796    0.025461      1.2173       1.187    0.018555
-0.1074   -0.077146   -0.063333   -0.023869      1.1867      1.8254    0.010662
-0.20442    -0.13009   -0.063333   -0.080763     0.91998      2.0631   0.0011247
-0.30998     -0.1906   -0.063333    -0.13996      0.4839      1.8434  -0.0077547
-0.41226    -0.26394   -0.074186    -0.19488   0.0044134      1.2656   -0.012359
-0.4879    -0.34123   -0.096878    -0.23763     -0.3876     0.51054   -0.010386
-0.51454    -0.40568     -0.1222    -0.26032    -0.61616    -0.28762  -0.0061104
-0.48659    -0.44022     -0.1393    -0.25572    -0.67799     -1.0901  -0.0018351
-0.41818    -0.43923    -0.14127    -0.22185     -0.6178     -1.8948   0.0001381
-0.33333    -0.40667     -0.1268    -0.16101    -0.48823     -2.5654   0.0040845
-0.2452    -0.34945    -0.09622   -0.078461    -0.28631     -2.7959    0.013293
-0.15476    -0.27216   -0.054783    0.023159    0.024474     -2.3822    0.024474
-0.061031    -0.17975  -0.0041372     0.13859     0.43786     -1.4952    0.029736
0.033683   -0.082408    0.050784     0.25665     0.87262    -0.58886    0.023817
0.12346   0.0060577     0.10439     0.36255      1.2104   -0.062018    0.011648
0.19384    0.067885      0.1455     0.43852      1.3718    0.025461  -0.0008485
0.23035    0.096825     0.16523     0.46877      1.3465   -0.066622  -0.0057815
0.23067    0.094852     0.15964     0.44773      1.1765   -0.022554   -0.002164
0.20436    0.068214     0.13892     0.38689     0.92787     0.24843   0.0047422
0.17016    0.031381     0.11327     0.30631     0.66313      0.6046   0.0077021
0.14155   0.0011247    0.089261     0.22574     0.43983     0.85322   0.0077021
0.12938   -0.015319    0.065254      0.1603     0.28757      0.9111   0.0063866
0.13596   -0.016305    0.038287     0.11623     0.20535     0.83776      0.0054
0.15306  -0.0051238    0.012635    0.087946     0.16095     0.72595      0.0054
0.1649    0.011977   -0.013674     0.06065     0.10505     0.60229      0.0054
0.15438    0.023817   -0.042615    0.020857   -0.010057     0.43359   0.0050711
0.11787    0.028421   -0.074186   -0.030118    -0.20113     0.20996   0.0044134
0.064925    0.025132    -0.10674   -0.089972    -0.44318     -0.0265      0.0054
0.015266    0.018555    -0.13963    -0.14983    -0.67305    -0.21395   0.0080309
-0.014661    0.012635    -0.16726    -0.20146    -0.83584    -0.32577    0.010991
-0.018607    0.011977    -0.18699    -0.23796    -0.91411    -0.37937    0.013293
-0.0024928    0.013951    -0.19718    -0.25375     -0.9197    -0.39713    0.013951
0.018884    0.012306    -0.20376    -0.25638    -0.88156    -0.37642    0.012306
0.028092   0.0024402    -0.21297    -0.25671    -0.82598    -0.30538    0.010991
0.024145   -0.020581    -0.22974    -0.26427    -0.76448    -0.19652   0.0093464
0.013951   -0.051165    -0.25375    -0.28006    -0.68522    -0.10247   0.0083598
0.010004   -0.078132    -0.27019     -0.2919    -0.54348   -0.057414   0.0090175
0.023817   -0.087012    -0.25079    -0.27841    -0.26559   -0.041299    0.012306
0.052099   -0.079119    -0.18337    -0.21198      0.2116    0.015266    0.017239
0.084986     -0.0584    -0.08175   -0.083723     0.86999     0.20963    0.021186
0.11426   -0.030447    0.023817    0.076106      1.5409     0.58388     0.02283
0.12511   0.0040845     0.10801     0.21423      1.9569      1.0032    0.019541
0.11064    0.041575     0.15569      0.2925      1.9079      1.2012   0.0093464
0.070516      0.0692     0.16293       0.305      1.3863     0.99233   -0.002164
0.015924    0.082026     0.14418     0.27704     0.60098     0.44049  -0.0087413
-0.033078    0.085972     0.12708     0.24087     -0.1199    -0.13864   -0.004466
-0.055769    0.088932     0.13432     0.22903    -0.52112    -0.38036   0.0093464
-0.048205    0.086959     0.17312     0.24876     -0.5711    -0.18534    0.023488
-0.016634    0.073476     0.22804     0.28888     -0.4241     0.20436    0.030723
0.025461     0.05177     0.27902     0.32835    -0.29913     0.38985    0.026447
0.070516    0.037629     0.30927     0.34709    -0.34353     0.12346    0.015924
0.11557    0.049797     0.31092     0.33657    -0.56387    -0.53953   0.0047422
0.15799    0.098141     0.28494     0.29941    -0.84275     -1.2765  0.00079584
0.20108     0.17345     0.24087     0.25008     -1.0223     -1.7244   0.0060577
0.24021     0.25008     0.19187     0.20469    -0.99929     -1.7238    0.014937
0.27474     0.30862     0.14418     0.16852     -0.7602      -1.368    0.023817
0.3027      0.3392     0.10011     0.14089    -0.36721    -0.85459     0.02579
0.32144      0.3494    0.058348      0.1136    0.084328    -0.33695    0.023817
0.32506     0.35564    0.018884    0.086959     0.51449     0.10044    0.019212
0.3119      0.3586   -0.012359    0.065583     0.88907      0.4224    0.013951
0.29184     0.34709   -0.031104    0.055388      1.1844     0.61545    0.010333
0.27376     0.30796   -0.034064    0.057361       1.358      0.6753   0.0063866
0.25271     0.24054   -0.021238    0.067227      1.3715     0.62038   0.0037556
0.21522      0.1501   0.0011247    0.078737      1.2304      0.4941   0.0024402
0.15997    0.053743    0.021514    0.083013     0.98608     0.34874   0.0044134
0.091892   -0.030775    0.028092     0.07512     0.70687     0.22311   0.0077021
0.017239   -0.095562    0.014608    0.049468     0.43753     0.13596    0.010991
-0.061031    -0.13832    -0.01499     0.01132     0.19384    0.084986    0.013951
-0.13207    -0.15969   -0.051494   -0.030775   -0.015648    0.052757    0.015595
-0.19225    -0.16824   -0.086025   -0.068595    -0.18041    0.011648    0.015266
-0.24092    -0.17613     -0.1074   -0.092931    -0.29683   -0.050507    0.014937
-0.27118    -0.18633    -0.10378   -0.099838     -0.3728     -0.1245    0.013951
-0.27512    -0.18699   -0.074844   -0.091945    -0.42903     -0.1883    0.013293
-0.24651    -0.16166   -0.035051   -0.083394    -0.47573    -0.22974    0.012306
-0.19356   -0.096878  -0.0034794   -0.087341    -0.51454    -0.24454    0.010991
-0.13437   0.0044134   0.0063866    -0.10609    -0.54019    -0.23566    0.010333
-0.0903     0.12149  -0.0054526    -0.13338    -0.55137    -0.22152   0.0086887
-0.070897     0.22245    -0.02354    -0.15903    -0.55828    -0.24289   0.0057288
-0.072542     0.28362   -0.041299    -0.17219     -0.5688    -0.34057    0.002769
-0.080434     0.29579   -0.054125    -0.17318    -0.58064    -0.51947  -0.0011774
-0.088327     0.27244   -0.061031     -0.1689    -0.58426    -0.73389   -0.002164
-0.099838     0.23495   -0.062347    -0.16791    -0.57406    -0.90721  -0.0008485
-0.12384     0.19549    -0.06136     -0.1712    -0.54907    -0.97528   0.0024402
-0.16594     0.14616   -0.061689    -0.16956    -0.50237    -0.91707   0.0067154
-0.22218    0.068871   -0.059716    -0.15936    -0.43857    -0.75889    0.010004
-0.28137   -0.047219   -0.046561    -0.14292    -0.37017    -0.56782    0.010662
-0.32708    -0.19389   -0.022883    -0.12154    -0.31261    -0.42048   0.0077021
-0.34649    -0.34879   0.0080309   -0.099509    -0.27973    -0.37082   0.0040845
-0.333    -0.48001    0.040918   -0.080106     -0.2748    -0.42344 -0.00051963
-0.28959    -0.56453    0.062623   -0.071226     -0.2965    -0.51914  -0.0028217
-0.22119    -0.58393    0.060979   -0.074844    -0.33235    -0.57045  -0.0015062
-0.13667    -0.53361    0.036971   -0.085696    -0.36951    -0.49777    0.002769
-0.050179    -0.42081 -0.00051963   -0.098522    -0.38924    -0.26953   0.0080309
0.029407     -0.2646   -0.038668    -0.10641    -0.37839     0.11754    0.012306
0.087946   -0.094576   -0.068595    -0.10576    -0.33136     0.66182    0.015924
0.12281    0.069858   -0.087998   -0.097207    -0.25539      1.2959    0.016253
0.13563      0.2162   -0.092931   -0.085696    -0.16758      1.8474    0.012635
0.13399     0.33328   -0.083723   -0.076488   -0.087669      2.1134   0.0060577
0.12511       0.403   -0.066951    -0.07287   -0.028802      1.9977   -0.002164
0.11656     0.41484   -0.051165   -0.077803    0.017897      1.5981  -0.0064392
0.11426     0.36946   -0.042615   -0.083065    0.066569      1.1508   -0.004466
0.12708     0.28296    -0.04097   -0.082408     0.12774     0.87229   0.0024402
0.15339      0.1843    -0.04689   -0.077146     0.19943     0.83349    0.010004
0.18661     0.09255   -0.066293   -0.073857     0.27573     0.93017    0.013622
0.22081    0.015924    -0.10609   -0.075501      0.3438      1.0061    0.012306
0.24909   -0.041957    -0.15509   -0.083394      0.3859     0.98279   0.0086887
0.2629   -0.080106    -0.19554    -0.09326     0.38985     0.90058   0.0057288
0.25863    -0.10115    -0.20836   -0.095891     0.35499     0.88183   0.0063866
0.23331    -0.10773    -0.19291   -0.086354     0.29086      1.0384    0.010004
0.18562    -0.10444    -0.15607   -0.070897     0.21061      1.3715    0.013622
0.11524   -0.095891    -0.11266   -0.056756     0.12182      1.7326    0.014608
0.033025   -0.091945   -0.074186   -0.045903    0.032038      1.9135   0.0096753
-0.047877     -0.1005   -0.048205   -0.036366   -0.050179       1.777   0.0030979
-0.11168    -0.12352   -0.036037   -0.029789    -0.12023      1.3419   -0.002164
-0.1518    -0.16166   -0.041957   -0.030775    -0.17054     0.77462  -0.0038083
-0.16791    -0.20573   -0.062347   -0.043272    -0.18501     0.26849  -0.0018351
-0.16989    -0.24191   -0.086683    -0.06728    -0.13766   -0.068924    0.002769
-0.16726     -0.2623     -0.1051   -0.099838  -0.0064392    -0.21691   0.0090175
-0.16923    -0.26592    -0.10773    -0.13371     0.18792    -0.21428    0.013293
-0.18567    -0.25901    -0.09326    -0.15311     0.38327    -0.14391     0.01691
-0.22053    -0.24553   -0.056427    -0.15015      0.4941     -0.1097    0.015924
-0.26098    -0.22349  -0.0011774    -0.12516     0.45463    -0.20113    0.012306
-0.2942    -0.19389    0.061965   -0.082736     0.27803    -0.42311   0.0083598
-0.30637    -0.15246      0.1159    -0.03242    0.056374     -0.6918   0.0063866
-0.2988    -0.10017      0.1524    0.021843   -0.096549    -0.89372   0.0073732
-0.2771   -0.051165     0.16753    0.069529    -0.12253    -0.97298    0.010004
-0.25177   -0.019923     0.16161    0.098798   -0.044588    -0.99699    0.012306
-0.22579    -0.01203     0.14221     0.10307    0.058019     -1.1085    0.012306
-0.19916   -0.024856     0.11458    0.094852      0.1034     -1.3726    0.010662
-0.16758   -0.052152    0.085315    0.094852    0.045522     -1.7041    0.010991
-0.13338   -0.082079    0.056374     0.11853    -0.11497     -1.9655     0.01132
-0.10115    -0.10773    0.026119     0.16128    -0.33465     -2.0625    0.013622
-0.080434    -0.12746  -0.0093991     0.20206    -0.54151     -1.9415    0.017568
-0.079119    -0.14292   -0.047219     0.21818    -0.66352     -1.6176    0.021186
-0.094247    -0.15344   -0.086025     0.20305    -0.66483     -1.1874    0.022172
-0.11201    -0.15311    -0.12319     0.16293    -0.55532    -0.78125    0.019212
-0.11266    -0.13733    -0.14654     0.11097    -0.37773    -0.49875    0.015266
-0.082736    -0.10543     -0.1495    0.060979    -0.18567    -0.41687   0.0093464
-0.030118   -0.065307    -0.14095    0.021843   -0.024856    -0.55861   0.0034268
0.029736   -0.021896    -0.12976  0.00079584    0.090905    -0.82565   0.0017824
0.078737    0.032696    -0.11562  0.00046697     0.18496     -1.0174   0.0044134
0.11952     0.11853   -0.091616    0.024145     0.29974    -0.94075    0.012964
0.16457     0.24317   -0.056756    0.068543     0.45726    -0.51947    0.022172
0.2241     0.37538   -0.014332     0.12544     0.63551     0.13432    0.026447
0.29678     0.46877    0.026447      0.1797     0.78778     0.76179    0.025132
0.36518     0.49475    0.055388      0.2264     0.87624      1.1587    0.017239
0.41681     0.45726    0.077093     0.27014     0.88676      1.3094    0.010333
0.44773     0.38952     0.10702     0.31914     0.81704      1.3505   0.0067154
0.45989     0.31881     0.15372     0.36255     0.65656      1.4462   0.0080309
0.45134     0.25731     0.20601     0.38064       0.403      1.6405     0.01132
0.41254     0.20173      0.2389     0.35499    0.082026      1.8247    0.012635
0.32835      0.1478     0.23331     0.28921    -0.25112      1.8425    0.010004
0.20732     0.10932     0.19516     0.20732    -0.51914      1.6764   0.0060577
0.082026     0.10801      0.1501     0.14155    -0.65266      1.5185   0.0067154
-0.0041372     0.15865     0.12807     0.11261    -0.62372       1.553     0.01132
-0.032091     0.24547     0.14024     0.13037    -0.46422      1.6899    0.014279
-0.011701     0.33591     0.18036     0.18003    -0.22875      1.6386    0.010004
0.043877     0.39774     0.23495     0.23265    0.016581      1.1975   0.0017824
0.10932     0.41385     0.28461     0.25172     0.21588     0.42503  -0.0057815
0.16424      0.3859     0.31421     0.20568     0.34052     -0.4093  -0.0087413
0.19285     0.33657     0.31454    0.093865     0.40004     -1.0272  -0.0061104
0.19187     0.29316     0.28855   -0.051494     0.43687     -1.3403 -0.00051963
0.16983     0.27606     0.24975    -0.17844     0.49081     -1.4045   0.0060577
0.1455     0.29119      0.2093    -0.24783     0.59473     -1.3367   0.0093464
0.133     0.33361     0.17477    -0.24191     0.75094     -1.2341    0.010333
0.1353     0.38393     0.15273    -0.17548     0.92426     -1.1476   0.0086887
0.14648     0.41385     0.14254   -0.076817      1.0663     -1.0864   0.0060577
0.16391     0.40037     0.14122    0.025132      1.1249     -1.0443   0.0040845
0.1797      0.3369     0.14056     0.10735      1.0667     -1.0121   0.0047422
0.17773     0.22607     0.13432     0.15339     0.90123    -0.98515   0.0040845
0.13793    0.072818     0.12215     0.15668     0.67925    -0.95917   0.0021113
0.050784    -0.11628     0.10077     0.12346     0.47009    -0.92431 -0.00019077
-0.06728    -0.32544    0.069529    0.077422     0.33756    -0.85853  0.00079584
-0.18469    -0.52441    0.033025    0.040589     0.30302    -0.74113   0.0034268
-0.27545    -0.68029  -0.0067681    0.020199     0.33032    -0.57374   0.0086887
-0.33037    -0.77467   -0.041628    0.010004     0.35071    -0.38858    0.013622
-0.35241    -0.80657   -0.069253   0.0017824     0.29941    -0.22908    0.015595
-0.34682    -0.77698   -0.085696   -0.012688     0.13563    -0.13009    0.014937
-0.31886    -0.69575   -0.092603   -0.035051    -0.13371   -0.099509    0.012635
-0.28335     -0.5859    -0.09622   -0.066622    -0.45962    -0.11858   0.0073732
-0.25145    -0.47771    -0.10247    -0.10247    -0.77862    -0.15279   0.0044134
-0.22941    -0.39253    -0.11661    -0.13568     -1.0427    -0.16693   0.0030979
-0.21428    -0.33892    -0.13733    -0.16397     -1.2216    -0.14621   0.0044134
-0.20014    -0.29946    -0.15739    -0.18304     -1.3018   -0.099509   0.0067154
-0.18633    -0.25506    -0.17285    -0.19028     -1.2746   -0.036695   0.0090175
-0.16923    -0.19422    -0.18436      -0.186     -1.1483    0.039931    0.010333
-0.14687    -0.11727    -0.19192    -0.17416    -0.95029     0.14024    0.010991
-0.12352   -0.038339    -0.19981     -0.1643    -0.72436     0.26225    0.010991
-0.10576    0.021843    -0.20803    -0.16989    -0.51125     0.39116   0.0090175
-0.10082    0.052757    -0.21757    -0.19324    -0.32939     0.50791   0.0080309
-0.10148    0.057361    -0.22612    -0.22283    -0.16989     0.55066   0.0060577
-0.096549    0.048482    -0.23007    -0.24322   -0.041957     0.42865    0.002769
-0.078461    0.036642    -0.22152    -0.25243    0.027105    0.089919   -0.002164
-0.057414    0.026447    -0.19948    -0.25013    0.021514    -0.44975  -0.0064392
-0.044588     0.01691    -0.16298    -0.23369   -0.054125     -1.1345  -0.0093991
-0.046561   0.0070443    -0.11266    -0.19455    -0.16035     -1.8879  -0.0097279
-0.056756  -0.0074258     -0.0584    -0.12549     -0.2373      -2.617  -0.0067681
-0.064649   -0.022554  -0.0067681   -0.031104    -0.24158     -3.2376  -0.0011774
-0.065307   -0.033735    0.032038    0.066898    -0.18436     -3.6766   0.0063866
-0.060045   -0.032749    0.051113     0.14517    -0.14095     -3.8851    0.013622
-0.058071   -0.022554    0.044864     0.18858    -0.19883     -3.8578    0.018555
-0.069253  -0.0097279     0.01132      0.1922    -0.39976      -3.644     0.01987
-0.094247  -0.0018351   -0.043601     0.15931    -0.70561     -3.3234    0.018884
-0.12187   0.0037556    -0.10181    0.097483     -1.0217     -2.9495     0.01691
-0.13667    0.015924    -0.14687    0.014279     -1.2318     -2.5226    0.017897
-0.1324    0.039602    -0.16693   -0.071884     -1.2387      -1.953    0.021843
-0.1097     0.07512    -0.15838    -0.14127    -0.98383     -1.0848    0.029736
-0.073857     0.11853     -0.1222    -0.17449    -0.46093     0.23429    0.039602
-0.023211     0.16326   -0.064978    -0.16199      0.2731      2.0158     0.04881
0.040918     0.20075  -0.0034794    -0.10543      1.0676      4.0449    0.052428
0.1113     0.21686    0.047495   -0.020252      1.7438      4.9598    0.044864
0.1797     0.20272    0.079066    0.074133      2.1657      4.9601    0.023817
0.23758     0.15799    0.090905     0.16523        2.29      4.9598  -0.0034794
0.2777    0.088932    0.080053     0.24383      2.1312      4.9601   -0.023869
0.28888    0.010333     0.04881     0.29579      1.7382      4.9598   -0.031762
0.25994   -0.063991   0.0024402     0.30862      1.1821      4.9598   -0.029131
0.19417    -0.12549    -0.04985      0.2879     0.54836      4.6191   -0.016305
0.10801    -0.17318   -0.091945     0.24284   -0.060373      3.1977   0.0011247
0.023159    -0.21165    -0.11069     0.18792    -0.55499      2.2664    0.020199
-0.042615    -0.24553     -0.1051     0.13267    -0.89043      1.8303    0.032367
-0.084052    -0.27315   -0.079777    0.082026     -1.0496      1.5738    0.033354
-0.10444    -0.28663   -0.044588     0.04322      -1.048      1.1314    0.024474
-0.11529    -0.27052  -0.0064392    0.016253    -0.92694     0.37472    0.013622
-0.1199    -0.21691    0.026447  0.00046697    -0.72403    -0.54315   0.0070443
-0.11135    -0.12911    0.051441   -0.002164    -0.45765     -1.3028   0.0083598
-0.082736   -0.027816    0.069529    0.013622    -0.13174     -1.6284    0.016581
-0.027487    0.067885    0.085315    0.050784     0.22443     -1.4433    0.027105
0.056046     0.14879     0.10636     0.10932     0.53915    -0.94799    0.029736
0.14977     0.22278     0.13563     0.17871     0.71608    -0.46652    0.024474
0.23331      0.2948     0.17049     0.24087     0.70556    -0.22514    0.015266
0.29349     0.36222     0.20305     0.28494     0.53455    -0.26592   0.0047422
0.32309     0.40925     0.21851     0.30039     0.28987    -0.51717  -0.0024928
0.3244     0.41944      0.2093     0.27935    0.039273    -0.86215  -0.0064392
0.30467      0.3836     0.17148     0.22212    -0.19883     -1.1795  -0.0047949
0.27639     0.31421     0.11886     0.14122    -0.43331     -1.3696   0.0017824
0.25402     0.23495    0.064267    0.059005    -0.66944     -1.3933   0.0096753
0.24745     0.17115    0.021514  -0.0018351    -0.88912      -1.287    0.015266
0.2629     0.14122  -0.0028217   -0.029131     -1.0562     -1.1295    0.017239
0.28987      0.1455   -0.013345   -0.026829     -1.1489     -1.0029    0.016253
0.31059     0.16885   -0.019265   -0.011043     -1.1716    -0.97232    0.011977
0.31125     0.19351   -0.027816  -0.0047949     -1.1368     -1.0601   0.0057288
0.28757      0.2093   -0.039984   -0.025185     -1.0595     -1.2374   0.0001381
0.24284     0.21094   -0.050507   -0.072213    -0.95489     -1.4449  -0.0028217
0.17641     0.19549    -0.06136    -0.14785    -0.83617     -1.6202   -0.002164
0.087617     0.16885   -0.074515    -0.24553    -0.71877     -1.7149  -0.0008485
-0.021567     0.14221    -0.09326     -0.3478    -0.62833     -1.7123   0.0024402
-0.13634     0.12708    -0.11825    -0.43199    -0.60169      -1.635   0.0040845
-0.23073     0.12182    -0.14062    -0.47508    -0.65858     -1.5215   0.0057288
-0.284     0.11853    -0.14884    -0.46587    -0.76349     -1.3929   0.0077021
-0.28861     0.10932    -0.13733    -0.40503    -0.82269     -1.2121   0.0096753
-0.25671    0.098798    -0.10707    -0.30242    -0.73751    -0.87958    0.013293
-0.20869    0.088932   -0.063662    -0.17844    -0.46093    -0.29453    0.018884
-0.16791    0.079066   -0.012359    -0.06136   -0.034064     0.52435    0.020199
-0.14818    0.059334    0.038944    0.027434     0.42109      1.3883    0.017897
-0.1495    0.020528    0.080382    0.075778     0.77659      2.0753    0.010662
-0.16101   -0.038011     0.10439    0.088932     0.96043      2.4597   0.0021113
-0.17219    -0.09918     0.10965    0.081039     0.99102      2.5646   -0.004466
-0.16956    -0.13766     0.10011    0.067227     0.93478      2.4883  -0.0067681
-0.14983    -0.13963    0.083013    0.051441     0.84664      2.2729   -0.007097
-0.11858    -0.11398    0.058676    0.033354     0.75653      1.8697  -0.0084125
-0.077475   -0.075501    0.030394     0.01691     0.67728      1.2199  -0.0090702
-0.030775   -0.040641  -0.0008485   0.0024402     0.61676     0.36452  -0.0087413
0.017897  -0.0077547     -0.0265  -0.0077547     0.57368    -0.54677  -0.0054526
0.075449    0.037629   -0.039984   -0.012359     0.53948     -1.3249  -0.0011774
0.14352     0.10406    -0.04097    -0.01499     0.49903     -1.8731   0.0044134
0.21094      0.1774   -0.038997   -0.023869     0.44246     -2.1855   0.0086887
0.25567      0.2287   -0.042615   -0.038997     0.37011     -2.3187     0.01132
0.25863     0.23626   -0.054454   -0.057085     0.29875     -2.3259    0.013293
0.22081     0.19746   -0.073199   -0.076817     0.24514     -2.2174    0.013293
0.15503      0.1284   -0.093589   -0.097864     0.21686     -1.9984    0.013951
0.076106    0.050784    -0.11201    -0.11661     0.21226     -1.7323    0.014608
-0.0038083   -0.014332    -0.12187    -0.12944     0.22081     -1.5275    0.012306
-0.076159   -0.057085    -0.11562    -0.13272      0.2264     -1.4768   0.0083598
-0.13075   -0.081421   -0.096549     -0.1268     0.20206     -1.5929   0.0034268
-0.16265    -0.10378   -0.069253    -0.11398     0.12281     -1.8067   0.0001381
-0.17153    -0.13996   -0.036037    -0.09326  -0.0015062     -1.9639   0.0014536
-0.15673    -0.19258   0.0030979   -0.057414    -0.11891      -1.809   0.0096753
-0.12121    -0.25079     0.04322  -0.0028217    -0.17219     -1.1065    0.022501
-0.078132    -0.30242    0.080382    0.061636    -0.14522    0.099456    0.034998
-0.056427    -0.34123     0.10406     0.11886   -0.074515      1.4064    0.036971
-0.074186    -0.35833     0.10768     0.15109   -0.012688      2.3657    0.028421
-0.13042    -0.34912    0.090248     0.15372   0.0001381      2.7567    0.013951
-0.21099    -0.31623    0.062952     0.13366   -0.052152      2.5933  0.00079584
-0.28696    -0.26394    0.039931     0.10176    -0.13733      2.0618  -0.0061104
-0.33037    -0.20277    0.033683     0.07216    -0.20179      1.4156  -0.0061104
-0.3261    -0.14193    0.043549     0.05177    -0.21034     0.87032   0.0001381
-0.2748   -0.089972    0.064267    0.043877    -0.17581     0.53849   0.0086887
-0.1985   -0.049521    0.087288    0.048482    -0.14193     0.41747    0.015595
-0.12319   -0.025514     0.10274    0.061636    -0.12352     0.43687    0.018555
-0.067609   -0.017292     0.10834    0.070845    -0.12352     0.50692     0.01691
-0.035708   -0.016963     0.10307     0.06361    -0.16298     0.53751    0.013293
-0.019923   -0.017292    0.087288     0.04026    -0.27249     0.45069   0.0090175
-0.0067681   -0.016305    0.066898   0.0070443    -0.45732     0.22541   0.0047422
0.0090175   -0.015976     0.04322   -0.030447    -0.68029   -0.072213   0.0034268
0.026119   -0.019265    0.017897   -0.064649    -0.86413    -0.33761   0.0037556
0.042562   -0.024527  -0.0084125   -0.089314    -0.92562    -0.49448   0.0060577
0.050784   -0.034064   -0.030447     -0.1051    -0.81874    -0.55433   0.0077021
0.041247   -0.046561   -0.051823    -0.11168    -0.50467    -0.57143   0.0086887
0.017568   -0.057414   -0.070897    -0.10477    0.050455    -0.57078   0.0090175
-0.0084125   -0.063333   -0.079119   -0.083065     0.79337    -0.52079    0.010333
-0.021567   -0.059716   -0.074186   -0.039984      1.5327    -0.40864    0.011648
-0.0084125   -0.042286   -0.064649    0.024145      2.0562    -0.30472    0.010333
0.033354   -0.013345   -0.054783     0.10439      2.2634     -0.3238   0.0060577
0.095839    0.016253    -0.04689     0.18595      2.1897    -0.51717  0.00079584
0.16194    0.042891   -0.048205     0.24712       1.951    -0.79704  -0.0024928
0.21193    0.067227   -0.061031     0.27474      1.6415     -1.0167 -0.00051963
0.23462    0.082355   -0.083723     0.26849      1.2978     -1.0582   0.0057288
0.23067    0.085972    -0.11003     0.23528     0.91307    -0.84505    0.014608
0.21357    0.079395    -0.13108     0.18825     0.48883    -0.33136    0.024474
0.19285    0.068543     -0.1416     0.13366     0.05473     0.42109    0.030394
0.17115    0.059992    -0.14062    0.073476    -0.34616      1.1765    0.028421
0.1478    0.059334    -0.13272    0.014608    -0.68588      1.6912    0.020857
0.12938    0.064267    -0.12154   -0.031762    -0.95588      1.8668    0.010333
0.11721    0.071173    -0.10411   -0.055769     -1.1456      1.7724    0.002769
0.10735    0.073147   -0.082079   -0.058071     -1.2617      1.5527 -0.00051963
0.096167    0.065254   -0.062347    -0.05281     -1.3097      1.3265  0.00046697
0.076764    0.043549   -0.050507   -0.053796     -1.2673      1.1535   0.0017824
0.049797    0.011648   -0.048534   -0.063333     -1.0687      1.0515   0.0034268
0.018226    -0.02354   -0.057743   -0.083723    -0.63721     0.99529   0.0044134
-0.020581   -0.049521   -0.075501    -0.10773    0.026776     0.94333   0.0037556
-0.061689    -0.06136   -0.094905    -0.12417     0.76311     0.87558    0.002769
-0.096549   -0.060373    -0.11036    -0.12648      1.3107     0.78876  0.00046697
-0.11924   -0.049521    -0.12089    -0.11431      1.4748     0.68221  -0.0011774
-0.13207   -0.034393     -0.1268   -0.097207      1.2383     0.55625  -0.0018351
-0.14029   -0.021238    -0.13174   -0.086025     0.76903     0.41517  -0.0024928
-0.15344  -0.0093991    -0.13371   -0.081421     0.31256       0.256  -0.0024928
-0.16923   0.0057288    -0.12746   -0.082079    0.066569    0.070187  -0.0008485
-0.17581    0.024803    -0.11727   -0.085039    0.083999    -0.13601  0.00046697
-0.16068     0.04881    -0.10214   -0.083723      0.2948    -0.33596   0.0014536
-0.12089     0.07808   -0.083065   -0.068266      0.5556    -0.51783   0.0011247
-0.064649     0.10801   -0.056098   -0.039326     0.71279    -0.71383  0.00046697
-0.0087413     0.13103   -0.015648   0.0011247      0.6684    -0.99041  -0.0028217
0.026447     0.14385    0.037629    0.045851     0.41287     -1.3979  -0.0061104
0.033683     0.14714     0.10406    0.088603     0.01987     -1.8869  -0.0077547
0.02283     0.14155     0.18924      0.1182    -0.38299     -2.3013   -0.004466
0.013622     0.13333     0.29546     0.13596    -0.67667     -2.4397   0.0044134
0.020528     0.12774     0.42536     0.15339    -0.80361      -2.127    0.015595
0.042233     0.12609     0.56908     0.18266    -0.77961     -1.3324    0.025132
0.061965     0.11853     0.70391     0.22179    -0.66976    -0.21494    0.029407
0.070845    0.096825     0.79468      0.2583    -0.54249     0.90748    0.026119
0.068543    0.057032     0.81277     0.27672    -0.45074       1.702    0.016581
0.059992    0.002769     0.74864     0.27474    -0.43232      1.9885   0.0044134
0.05177   -0.062676     0.61644     0.26159    -0.52539      1.7619  -0.0051238
0.041575    -0.12352     0.44411     0.23725    -0.74935      1.2051  -0.0090702
0.023817    -0.17219     0.26257     0.19549     -1.0674      0.5727  -0.0064392
-0.012359    -0.20573    0.096825     0.13004     -1.3749    0.073147 -0.00019077
-0.067609    -0.22086   -0.035708    0.051113     -1.5324    -0.20639   0.0077021
-0.12713    -0.21165    -0.12549   -0.017621     -1.4127    -0.31327    0.013293
-0.16364    -0.16923     -0.1689   -0.057085    -0.98449    -0.32972     0.01691
-0.15607   -0.094905    -0.17383   -0.060045     -0.3603     -0.3113    0.017239
-0.10313  -0.0057815    -0.15673   -0.038997     0.23199    -0.30604    0.014608
-0.031104    0.068214    -0.14062   -0.020581     0.58355    -0.37707   0.0093464
0.024474     0.10209    -0.13799   -0.018936      0.6138    -0.56255   0.0014536
0.035985    0.088932    -0.15114   -0.030118     0.37176    -0.81052  -0.0041372
0.0021113    0.050455    -0.17613   -0.044588   0.0014536     -1.0029  -0.0038083
-0.052152     0.01691    -0.20376   -0.054125    -0.34451     -1.0322  0.00079584
-0.091616   0.0057288    -0.22316   -0.057085    -0.55992    -0.86906   0.0086887
-0.089643    0.016581    -0.22875   -0.058729    -0.59939    -0.61188    0.014937
-0.041299      0.0373    -0.22579   -0.062018    -0.47014     -0.3968    0.017239
0.037629    0.057032     -0.2179   -0.069582    -0.23171    -0.26559    0.018226
0.1159    0.070845     -0.2031   -0.075173     0.04322    -0.12352    0.019212
0.17016    0.077422    -0.17054   -0.063004     0.31322     0.15964    0.022172
0.19647    0.088275    -0.11201   -0.019594     0.55724     0.57631    0.023817
0.20634     0.10636   -0.033406    0.054072     0.75028     0.95056    0.020199
0.21522     0.12905    0.053743     0.14484     0.85289      1.0736    0.013951
0.23331      0.1455     0.12905     0.23035     0.83151     0.87657   0.0057288
0.24843     0.14254      0.1649     0.29151     0.69076     0.50791  0.00046697
0.24613     0.11623     0.14418     0.31618     0.47568      0.2241   0.0021113
0.21588    0.078737    0.079066     0.30533     0.24383     0.22048   0.0090175
0.15898    0.041575  -0.0074258     0.26586    0.021843     0.49377    0.016581
0.085972    0.015924   -0.089643       0.207     -0.2031     0.86802    0.021186
0.013951   0.0040845    -0.15147     0.14024    -0.44877      1.1456    0.021186
-0.045903   0.0001381    -0.18863    0.076435    -0.68851      1.2298    0.017897
-0.090958  -0.0057815    -0.20277    0.028421    -0.84637      1.1581    0.013951
-0.12056   -0.021896    -0.20047   0.0034268    -0.83025      1.0446    0.011648
-0.13864   -0.046232    -0.19159   0.0014536    -0.58327     0.97063     0.01132
-0.14621   -0.067937    -0.17942    0.010662    -0.10411     0.94497    0.011648
-0.13963   -0.076817     -0.1666    0.025132     0.56743     0.91965    0.010662
-0.11727   -0.070568    -0.15607    0.038616      1.3482     0.82954   0.0090175
-0.08175   -0.056427     -0.1518    0.049468       2.097     0.64735   0.0070443
-0.043272   -0.040641    -0.15476     0.05473      2.6087     0.39774   0.0047422
-0.01203   -0.029789     -0.1564    0.054072      2.7041     0.12905   0.0037556
0.0044134   -0.030775    -0.14489    0.046508      2.3374    -0.11365   0.0040845
0.0040845    -0.04393   -0.095562    0.029078      1.6471    -0.29223      0.0054
-0.011372   -0.066622   0.0030979   0.0030979      0.8519    -0.39187   0.0070443
-0.038011   -0.095562     0.14056   -0.025842     0.14155    -0.43364   0.0086887
-0.072542    -0.12352     0.27606    -0.05281    -0.36918    -0.45666    0.010991
-0.11365    -0.13601     0.36189    -0.08175    -0.66385    -0.48132    0.013293
-0.15279    -0.11891     0.38294    -0.11661    -0.79506    -0.50632    0.016253
-0.18074    -0.07024     0.36946    -0.15607    -0.84045    -0.52243     0.01691
-0.19028  0.00079584     0.35893    -0.19455    -0.85557    -0.52013     0.01691
-0.17745    0.076106     0.35301    -0.22185    -0.85492    -0.48659    0.016253
-0.14621     0.13728     0.32309    -0.22974    -0.83223    -0.41325    0.013951
-0.098851     0.17674     0.24054    -0.21955    -0.77402    -0.31064    0.010991
-0.036037     0.20206     0.10834    -0.19981    -0.66746    -0.20639   0.0093464
0.036642     0.21916   -0.043272    -0.17975    -0.51618    -0.12582   0.0083598
0.1113     0.23396    -0.17153     -0.1643     -0.3409   -0.079777   0.0083598
0.18134     0.24449     -0.2498    -0.15114     -0.1735   -0.089972   0.0057288
0.23561     0.24317    -0.27216    -0.14391   -0.048534    -0.19093   0.0037556
0.26718     0.22837    -0.25112    -0.14391   -0.004466    -0.40108 -0.00019077
0.26619     0.20864     -0.2031    -0.15015   -0.072213    -0.70561  -0.0038083
0.22541      0.1922    -0.14752    -0.16002    -0.26098     -1.0746  -0.0057815
0.15767     0.18397    -0.10082    -0.17548    -0.52506     -1.4541  -0.0051238
0.086959     0.17937   -0.068266    -0.19554    -0.76481     -1.7672   -0.002164
0.030723     0.15898   -0.051823     -0.2156    -0.87596     -1.9553   0.0011247
-0.01499    0.097154   -0.048534    -0.22645    -0.82499     -2.0119   0.0044134
-0.063991   -0.019265   -0.058071     -0.2202    -0.65266     -1.9602   0.0070443
-0.12845    -0.18304    -0.07879    -0.19554    -0.42805     -1.7853    0.010333
-0.20869    -0.36359    -0.10181    -0.15607    -0.20014     -1.4127    0.011977
-0.28992    -0.51355    -0.11793    -0.10313  -0.0051238    -0.83551    0.013293
-0.34879    -0.59478    -0.11628   -0.038011     0.12182    -0.20409    0.010662
-0.36392    -0.58755   -0.090629    0.037629     0.16227     0.25929      0.0054
-0.33136    -0.49514    -0.04985      0.1182     0.12281     0.42799   0.0001381
-0.26493     -0.3409  -0.0080836     0.19055     0.01987     0.33788  -0.0031506
-0.17877    -0.15015    0.021843     0.23363    -0.14654      0.1455   -0.002164
-0.088656     0.04322    0.029736     0.23429    -0.38793    0.024474   0.0011247
-0.011043     0.19845    0.014279     0.19285    -0.68884    0.072818      0.0054
0.048482     0.27935   -0.024856     0.11656    -0.99436     0.29283   0.0083598
0.093536     0.27474   -0.086025    0.032696      -1.238     0.62762    0.010991
0.12281     0.20568    -0.16134   -0.030118     -1.3831     0.99102    0.012306
0.1307      0.1057    -0.23171   -0.055112     -1.4383      1.2959    0.011648
0.11886   0.0086887    -0.27578    -0.04097      -1.439      1.4705   0.0093464
0.09551   -0.066622    -0.29025  -0.0080836     -1.4048      1.4751   0.0057288
0.076435    -0.11102    -0.28631     0.02283     -1.3272      1.3156   0.0014536
0.074462    -0.12615    -0.28499    0.042233     -1.1693      1.0403  -0.0008485
0.097483    -0.11858    -0.29782    0.052428    -0.89964     0.73022  -0.0015062
0.14024   -0.099509    -0.32018    0.063281    -0.51553     0.46516   0.0017824
0.1945   -0.075501    -0.32708    0.079395   -0.071226     0.30138      0.0054
0.25041   -0.041628    -0.28137    0.091563     0.34775     0.25665   0.0083598
0.30138    0.012635    -0.15673    0.088932     0.67465     0.31223    0.010662
0.3415    0.088932    0.051441    0.077093     0.89005     0.41484     0.01132
0.36518     0.17444     0.31585    0.065254     0.98806     0.47996   0.0080309
0.36584     0.25008     0.57631    0.058019     0.95287     0.44312    0.002769
0.34315     0.29283     0.76771    0.054072     0.77692     0.31486 -0.00051963
0.29645     0.28888     0.85026    0.047166     0.48588     0.15635  -0.0015062
0.22081     0.23528     0.82428    0.025132     0.15207    0.016581  -0.0011774
0.1159      0.1478     0.71838  -0.0097279    -0.13897   -0.092931  0.00079584
-0.0064392    0.054072      0.5648   -0.044917    -0.32347    -0.18666   0.0040845
-0.1268   -0.014661      0.3984   -0.066951    -0.37806    -0.28532   0.0093464
-0.2202   -0.043601     0.24482    -0.07287    -0.32544     -0.4116    0.012306
-0.27282   -0.034064     0.12083    -0.07024    -0.21363    -0.56847    0.014608
-0.28631   -0.007097    0.034998   -0.065964    -0.10543     -0.7431    0.014608
-0.27775    0.020199   -0.016963   -0.070568   -0.044917    -0.92858    0.013293
-0.27216    0.039273   -0.047548   -0.092931   -0.050507     -1.1614   0.0086887
-0.28071     0.05177   -0.066951    -0.13207    -0.10707     -1.4755   0.0040845
-0.29749    0.059663   -0.081092     -0.1712    -0.18337     -1.8149   0.0024402
-0.30637    0.059334   -0.091616    -0.18666    -0.24454     -1.9819   0.0093464
-0.29255    0.042233   -0.096878    -0.16857    -0.26855     -1.7547    0.027763
-0.25079   0.0096753    -0.09918    -0.12582    -0.26822     -1.1345    0.044206
-0.18633   -0.030775    -0.10082   -0.079448    -0.27085    -0.41785    0.045193
-0.11727   -0.078461    -0.10378    -0.04689    -0.30768   0.0080309    0.031052
-0.065635    -0.13075     -0.1051   -0.021896    -0.38497   -0.043272    0.010662
-0.045246    -0.18271    -0.10543    0.012635    -0.48593    -0.42772  -0.0028217
-0.051823    -0.22974    -0.10214    0.062623    -0.58525     -0.7898  -0.0038083
-0.075173    -0.25967   -0.098851     0.12346    -0.64148    -0.91773   0.0037556
-0.096878    -0.26164   -0.095891     0.18266    -0.58031    -0.89405   0.0096753
-0.10181    -0.22382   -0.087669     0.23363     -0.2965    -0.85097    0.013293
-0.079777    -0.14555   -0.067609     0.27902     0.28888    -0.69311    0.017568
-0.030447   -0.043601   -0.033406     0.32901      1.1568    -0.10313    0.027434
0.044206    0.058348   0.0083598     0.38787      2.1427      1.1525    0.039273
0.1376     0.14287    0.047824       0.452       3.002      2.8748    0.044535
0.23528     0.20272    0.074462     0.51218      3.5364      4.5316    0.037629
