-0.092274   0.0030979    -0.36359    -0.26032      0.4155     -2.1898    0.013622
-0.091945     0.02283    -0.31985      -0.333      1.0736     -1.9251    0.017568
-0.088985    0.038944    -0.27775    -0.38003       1.509     -1.5617    0.018555
-0.086025    0.049139     -0.2452    -0.39483      1.5659     -1.1328    0.017568
-0.083394    0.049797    -0.22546    -0.36227      1.2505    -0.61156    0.016581
-0.07879    0.039273    -0.21001    -0.25506     0.70753    0.045522    0.015924
-0.073528    0.021186    -0.19751    -0.05544     0.13201      0.8131    0.015924
-0.067609   0.0047422    -0.18797     0.21357    -0.31623      1.6208    0.015595
-0.063004   -0.011701    -0.19028     0.48851    -0.58327      2.4045    0.015924
-0.06728   -0.032749     -0.2133     0.69438    -0.70989      3.1217    0.014608
-0.080434   -0.060373    -0.25671     0.77955    -0.76843      3.7311     0.01132
-0.1028   -0.081421    -0.29946     0.73318    -0.81578      4.1814   0.0077021
-0.12549   -0.085039    -0.30341      0.5875    -0.85229      4.4162   0.0040845
-0.13667   -0.069582    -0.22941     0.39642    -0.83519      4.3951  0.00046697
-0.13075   -0.047548    -0.06728     0.21061    -0.72008       4.109  -0.0015062
-0.11168   -0.026829     0.15865    0.070187    -0.48001      3.5914  -0.0031506
-0.084052   -0.012359     0.40366  -0.0097279    -0.13437      2.9251  -0.0038083
-0.053138   -0.002164     0.62005   -0.023869     0.24514      2.2078  -0.0047949
-0.020909   0.0077021     0.78778    0.027763     0.55855      1.5077  -0.0054526
0.0060577    0.020857     0.92623     0.11919     0.71477     0.85158  -0.0057815
0.023488    0.041904      1.0736     0.21423      0.6707     0.24876   -0.004466
0.029407    0.066569      1.2462     0.27244     0.45529      -0.284  -0.0028217
0.02875    0.088932      1.4083     0.27836      0.1432    -0.74771  -0.0015062
0.029736     0.10406      1.4955     0.23857    -0.18896     -1.1637  -0.0024928
0.038616     0.10801      1.4495     0.17641    -0.47475     -1.5498   -0.004466
0.055059     0.10209      1.2584     0.11754    -0.68062     -1.9083  -0.0064392
0.074462    0.094194     0.96273    0.075449    -0.81512     -2.2339   -0.004466
0.090905    0.091892     0.63946    0.053086     -0.8957     -2.5118  -0.0011774
0.10274    0.097483     0.35827    0.046837    -0.93549     -2.7288    0.002769
0.10735     0.10603     0.15898    0.050784    -0.95062     -2.8761   0.0060577
0.10538      0.1136     0.04618    0.059663    -0.96903     -2.9459   0.0073732
0.10209     0.11623   0.0011247    0.061965     -1.0022     -2.9189   0.0083598
0.10636     0.10932   -0.010057    0.055388     -1.0381      -2.766   0.0086887
0.11886    0.091234   -0.015976    0.049468     -1.0473     -2.4759   0.0096753
0.13366     0.06624   -0.030775    0.055388    -0.99666     -2.0645    0.010991
0.13728    0.036314   -0.051823    0.070187    -0.89701     -1.5745     0.01132
0.12675   0.0096753   -0.068924    0.085644    -0.79243     -1.0595    0.010004
0.099785  -0.0090702   -0.083394    0.093536     -0.6964    -0.57209   0.0093464
0.058676   -0.016963   -0.099509    0.092221    -0.52243    -0.14621   0.0080309
0.010004   -0.014332    -0.11694    0.086959    -0.12516     0.20075   0.0060577
-0.03538  -0.0074258     -0.1324    0.082684     0.53027      0.4645   0.0044134
-0.069253   -0.007097    -0.14522    0.070845      1.2893     0.65656   0.0011247
-0.088985   -0.022554    -0.16101    0.039602      1.9151      0.7983  -0.0015062
-0.092274   -0.054454    -0.18238   -0.016963      2.2308     0.90584  -0.0041372
-0.086025   -0.092931    -0.20836   -0.092931      2.1799     0.96898  -0.0047949
-0.077803    -0.12582    -0.23763    -0.17318      1.8267     0.95879  -0.0038083
-0.065307    -0.14654    -0.26526    -0.24026      1.3097     0.83809  -0.0028217
-0.04985    -0.15476    -0.28762    -0.28039       0.771     0.58651  -0.0018351
-0.036037     -0.1495     -0.3067    -0.28894     0.30894     0.23298 -0.00051963
-0.024198    -0.13174    -0.32708    -0.27216    -0.04097    -0.14029    0.002769
-0.010715   -0.098193    -0.34484    -0.24125    -0.29223    -0.43824   0.0073732
0.0093464   -0.048205    -0.35734    -0.20705    -0.48395    -0.59906    0.010662
0.038616    0.016253     -0.3603    -0.17745    -0.65398    -0.61123    0.013951
0.072818    0.085972    -0.34945    -0.16199    -0.81414    -0.50862    0.016581
0.097812     0.14714     -0.3238    -0.16594    -0.96147    -0.35043    0.017568
0.10274     0.19088    -0.28565    -0.18633     -1.0828    -0.18732     0.01691
0.086959     0.21456     -0.2452    -0.20803     -1.1529   -0.039326    0.014608
0.062294     0.21949    -0.21363    -0.21165     -1.1404     0.11656    0.013622
0.04026     0.21028    -0.19784    -0.18666      -1.024     0.33229    0.011977
0.027434     0.19549    -0.19652    -0.13897    -0.82269     0.62104   0.0044134
0.026776     0.17477    -0.20738   -0.087012     -0.5859     0.91538  -0.0074258
0.035327     0.14517    -0.22481    -0.04985    -0.37247      1.1308   -0.015976
0.048482     0.10998    -0.24191   -0.033406    -0.20836      1.2275   -0.017621
0.057361    0.070516    -0.25145   -0.028473   -0.089314       1.216  -0.0090702
0.062623    0.030065    -0.25177   -0.027158  -0.0047949      1.1354   0.0034268
0.065254  -0.0038083    -0.24454   -0.022225    0.054401      1.0426    0.015266
0.063938   -0.021567    -0.23434   -0.015648    0.094852     0.98148    0.022501
0.058676   -0.020909     -0.2281   -0.010715     0.12511     0.97095     0.02579
0.048482  -0.0087413    -0.22579   -0.013017     0.14747     0.99693    0.025461
0.032696   0.0044134    -0.22481     -0.0265     0.15043      1.0094    0.022172
0.010662   0.0077021    -0.22349   -0.049192     0.12379     0.95813    0.018555
-0.016305  0.00079584    -0.22316    -0.07879    0.063281     0.81704    0.015266
-0.045574   -0.012359    -0.22842    -0.10905   -0.015976     0.59802    0.013293
-0.079448   -0.027816    -0.24322    -0.13799   -0.092274     0.34446    0.011977
-0.11431   -0.046232     -0.2669    -0.16199    -0.14029     0.10965    0.012306
-0.14358   -0.068266    -0.29058    -0.17712    -0.14522   -0.072213    0.013622
-0.16298   -0.094905    -0.30406    -0.17975    -0.11727    -0.19192    0.013293
-0.16989    -0.12253    -0.30209     -0.1712   -0.077475    -0.25802    0.010333
-0.16298    -0.14687    -0.28663    -0.15344   -0.042615    -0.28992   0.0017824
-0.14654    -0.16495    -0.26131    -0.13108   -0.019923    -0.30439  -0.0057815
-0.13009    -0.17515    -0.23237    -0.10773   -0.010715    -0.31557   -0.007097
-0.11562    -0.18074    -0.20376   -0.085367   -0.011701    -0.33629  -0.0008485
-0.10313    -0.18205    -0.17613   -0.062676    -0.01499    -0.36852   0.0086887
-0.09326    -0.17942    -0.14752   -0.040313   -0.014003    -0.40075    0.017897
-0.087012    -0.17613    -0.12056   -0.018278  -0.0047949    -0.40766    0.024145
-0.084052    -0.17449   -0.095233   0.0044134    0.017239    -0.35405     0.02579
-0.080434    -0.17186   -0.072542    0.024145    0.047495     -0.2179     0.02579
-0.066293    -0.16594   -0.047548    0.040918    0.063938   -0.026171     0.02283
-0.031762    -0.15246   -0.018278    0.052757     0.04026     0.13366    0.018884
0.026119    -0.12582    0.010991    0.061307   -0.024856     0.17214    0.013622
0.10373   -0.076159      0.0373     0.06624    -0.10181    0.053743   0.0096753
0.19088  -0.0008485    0.058019     0.06361    -0.14062    -0.18666   0.0070443
0.27408    0.092221    0.070187    0.059005    -0.10872    -0.46356   0.0077021
0.33624     0.17904    0.071173    0.056703   -0.016963     -0.6793    0.010004
0.3688     0.23594     0.06361    0.057032    0.096496    -0.74771    0.013951
0.36518      0.2435    0.051441    0.059334     0.19746    -0.63819    0.014608
0.33229     0.20042      0.0373    0.059005     0.26553    -0.39121   0.0083598
0.28264     0.12412    0.024145    0.053086     0.29842   -0.091945  -0.0031506
0.22311    0.042233     0.01987    0.043877     0.31355     0.17806   -0.011372
0.15931   -0.014661    0.030723     0.04026     0.34479     0.37965  -0.0097279
0.098469   -0.025185    0.055388    0.049139     0.41977     0.50791 -0.00051963
0.051441    0.018884    0.092221    0.067227     0.54277     0.57434   0.0093464
0.02579     0.10077     0.13366    0.094852      0.6924     0.59177    0.016581
0.023817     0.18825     0.17279     0.12873     0.82724     0.57039    0.018884
0.041247     0.24679     0.20469      0.1603     0.89926     0.51745     0.01691
0.064267     0.25764     0.23002     0.17838     0.88545      0.4451    0.012306
0.073804     0.21752     0.24514     0.17148     0.79205     0.36946   0.0086887
0.061636     0.13859     0.24482     0.14221     0.64209     0.29974   0.0067154
0.030065    0.041247     0.22607     0.10406     0.46845     0.23791   0.0073732
-0.010057   -0.053138     0.19055    0.071831      0.2948     0.17871    0.010333
-0.046232    -0.12516     0.14747    0.050455      0.1307     0.10307    0.011977
-0.071555     -0.1643     0.10998    0.039931   -0.034393   -0.020909    0.011977
-0.086683    -0.17646    0.084328    0.035656    -0.21264    -0.21067    0.011648
-0.099838    -0.16956    0.074133    0.029078     -0.3899    -0.43923   0.0093464
-0.11266    -0.15476    0.072818    0.013293    -0.52605    -0.65003      0.0054
-0.12648    -0.13897    0.077422   -0.016305     -0.5688    -0.79441  -0.0011774
-0.14259    -0.12187    0.086301   -0.044917    -0.47573    -0.84867  -0.0067681
-0.15936    -0.10181    0.099785   -0.047877    -0.24191    -0.80624  -0.0064392
-0.17646   -0.076817     0.12083    0.010333     0.11426    -0.67404 -0.00051963
-0.18929   -0.045246      0.1501     0.14385     0.54376    -0.47738   0.0073732
-0.19258   -0.011043      0.1843     0.32605     0.95977    -0.25868    0.013951
-0.18436    0.018555     0.20765     0.48094      1.2331   -0.063333     0.01691
-0.16923    0.032696     0.19943     0.52271      1.2327    0.071831    0.016581
-0.15476    0.025132      0.1455     0.40037     0.90485      0.1455    0.013951
-0.1495  -0.0041372    0.058019     0.13267     0.32769     0.19812    0.012306
-0.15147   -0.042286   -0.032749    -0.19093    -0.32248     0.28198    0.012964
-0.1518   -0.075501   -0.094576    -0.46554    -0.85229     0.42142    0.016253
-0.13897   -0.088985    -0.11168    -0.61156     -1.1364      0.5921    0.019212
-0.10411   -0.081421   -0.085039    -0.60366     -1.1581     0.73121    0.021186
-0.046232   -0.060045   -0.036366    -0.47113     -1.0207     0.76969     0.01987
0.023488   -0.032749    0.013622     -0.2748    -0.89668     0.68451    0.015595
0.089919  -0.0057815    0.049468   -0.089314    -0.93977     0.51383     0.01132
0.14287    0.021843    0.070845    0.030394     -1.2117     0.32868   0.0090175
0.17674    0.053086    0.078409    0.064267     -1.6712     0.17378   0.0090175
0.19187    0.094194     0.07808    0.035327     -2.1743     0.05473    0.010004
0.19154     0.14484    0.077093   -0.016305     -2.4483   -0.041957    0.011648
0.17707     0.19483    0.083342   -0.054125     -2.1737    -0.11003    0.013951
0.1603     0.23035    0.098141   -0.061689     -1.2137    -0.12878    0.014608
0.14879     0.24186      0.1205    -0.04393      0.2287   -0.075501    0.013622
0.14287     0.22969      0.1455  -0.0087413       1.654    0.053743    0.012964
0.13464     0.20009     0.16556    0.044535      2.6525     0.25304    0.010004
0.11656      0.1626      0.1774     0.11886      3.0389     0.50955   0.0073732
0.083342     0.12281     0.17575      0.2093       2.808     0.77824   0.0044134
0.034669     0.08367     0.16457       0.305      2.1092     0.96964   0.0030979
-0.018607    0.049468     0.15109     0.38162      1.2097     0.97753   0.0017824
-0.061031    0.021186     0.13563      0.4224     0.42043     0.73154  0.00079584
-0.084052   0.0024402     0.11787     0.42832   -0.032091     0.23955   0.0014536
-0.087669  -0.0090702     0.10011      0.4132    -0.12089    -0.37378    0.002769
-0.079777   -0.015976    0.084328     0.39281    0.038616    -0.93187   0.0070443
-0.062676   -0.018278    0.074462     0.37406     0.30171     -1.2976    0.011977
-0.047219   -0.016963    0.070845     0.35367     0.57401     -1.4258    0.013951
-0.041628   -0.011043    0.070516     0.31848      0.8177     -1.3574   0.0093464
-0.045903  -0.0018351    0.067885     0.26521      1.0137     -1.1854  -0.0031506
-0.056756   0.0073732    0.061965     0.20075      1.1272    -0.99205   -0.013674
-0.06728    0.010991    0.050455     0.13464      1.1147    -0.82959   -0.016634
-0.078132   0.0080309    0.033025    0.073147     0.96569    -0.71844   -0.011043
-0.085696  -0.0028217    0.013622    0.018884     0.73417    -0.64115  -0.0024928
-0.091945   -0.018936   -0.004466   -0.024198     0.49673    -0.55663   0.0067154
-0.098522   -0.036037   -0.021238   -0.056098      0.3073     -0.4366    0.012964
-0.10641   -0.046232   -0.036695   -0.075501     0.17115    -0.27578    0.015595
-0.11529   -0.050836   -0.053796   -0.087669    0.058348    -0.08175     0.01691
-0.12516   -0.059716   -0.075501    -0.10543   -0.073199     0.13826    0.017239
-0.1324   -0.077146    -0.10214    -0.13174    -0.24289     0.37505    0.015595
-0.12911   -0.092274     -0.1324    -0.16989    -0.44679     0.59966    0.012964
-0.11727   -0.094905    -0.16364    -0.21264    -0.66023     0.76837    0.010004
-0.10346    -0.08471    -0.19422    -0.25079    -0.84604     0.85125   0.0070443
-0.092931   -0.068924    -0.21856    -0.27611    -0.96476     0.85881   0.0040845
-0.091616   -0.049192    -0.22941    -0.28762    -0.97791      0.8302    0.002769
-0.10115   -0.028802    -0.22514    -0.28565    -0.86478     0.80257   0.0021113
-0.1176  -0.0034794    -0.20606    -0.26723    -0.63458     0.79797   0.0011247
-0.12976    0.031381    -0.16989    -0.22711    -0.33498     0.81869  -0.0031506
-0.11891    0.074791    -0.11497    -0.15311   -0.037024     0.86703  -0.0093991
-0.068266     0.11919   -0.041299   -0.038011     0.19713     0.94399   -0.011372
0.023817     0.15701    0.044864     0.10932     0.33361       1.019  -0.0097279
0.13464     0.18167      0.1353     0.26455      0.3711      1.0134  -0.0057815
0.23626     0.20075     0.22015     0.39807     0.33065      0.8325  -0.0038083
0.30039     0.21818     0.28362     0.47667     0.22739     0.44575  -0.0054526
0.31322     0.22739     0.31355     0.48456    0.074133   -0.064978  -0.0064392
0.28099     0.21686     0.30697     0.42734     -0.1005    -0.53624   -0.004466
0.22344     0.18167      0.2777     0.33131    -0.24783    -0.82006   0.0001381
0.16326     0.12412     0.23955     0.23298    -0.33432    -0.87037   0.0063866
0.11623     0.05769       0.207     0.15372    -0.36293    -0.76382    0.010662
0.081697 -0.00051963     0.18299    0.094194    -0.37313    -0.63425    0.012306
0.056703    -0.04097     0.16556    0.042562    -0.40963    -0.58525    0.010004
0.033354   -0.063004     0.14944   -0.011372    -0.49974    -0.62734   0.0060577
0.0090175   -0.070568     0.12938    -0.07583    -0.64674     -0.7043    0.002769
-0.016634   -0.067937     0.10439    -0.14522    -0.83551    -0.76382   0.0017824
-0.036037    -0.06136    0.077093    -0.19225     -1.0325    -0.78322   0.0014536
-0.047548   -0.055112    0.045851    -0.18929     -1.1986    -0.77369   -0.002164
-0.055112   -0.049192    0.010333    -0.13601     -1.3025    -0.75231  -0.0097279
-0.058729    -0.04097   -0.028473   -0.060373     -1.3278     -0.7214   -0.014661
-0.056427   -0.031762   -0.064978   0.0040845     -1.2726    -0.66779   -0.013674
-0.045903   -0.023869   -0.090958    0.035327      -1.143    -0.57933  -0.0061104
-0.027487   -0.020252    -0.10543    0.034011    -0.96607    -0.45732   0.0037556
-0.0018351   -0.025514    -0.11431   0.0086887    -0.77994    -0.31821    0.011648
0.021843   -0.034393    -0.12154   -0.028802    -0.61583    -0.18271    0.014937
0.041247   -0.040641    -0.13207   -0.066951    -0.48626    -0.06728    0.015595
0.058348    -0.03538    -0.14719    -0.09622    -0.38069    0.029078    0.013622
0.075449   -0.018936     -0.1689    -0.11069    -0.25276      0.1113     0.01132
0.091234   0.0001381    -0.19258    -0.11102   -0.027158     0.17312    0.010662
0.10307    0.010662    -0.21099    -0.10641     0.34874     0.20601   0.0090175
0.1113   0.0086887     -0.2179    -0.10313      0.8575     0.21851   0.0080309
0.10899  -0.0057815    -0.20869    -0.10411      1.4264     0.23594   0.0077021
0.095839     -0.0265    -0.18633    -0.10609       1.924     0.26915   0.0063866
0.071173   -0.042286    -0.15772    -0.10674      2.2269     0.28855   0.0050711
0.041247   -0.046561    -0.13404    -0.10214      2.2535     0.26225   0.0037556
0.014937   -0.039655     -0.1222   -0.096549      1.9654     0.18397  -0.0018351
-0.0024928   -0.029789    -0.12615   -0.097864      1.3972    0.070845  -0.0093991
-0.013017   -0.023211    -0.14127    -0.11299      0.6582   -0.053467    -0.01795
-0.02354   -0.025185    -0.16397    -0.14259   -0.086683    -0.16726    -0.01795
-0.036366    -0.03242    -0.18501    -0.17877     -0.6622    -0.24553  -0.0084125
-0.046232   -0.041628    -0.19356    -0.21231    -0.96903    -0.28071   0.0060577
-0.054454   -0.050836    -0.18501    -0.23533    -0.99567    -0.27743    0.020199
-0.063004     -0.0584    -0.16068    -0.24618    -0.79013      -0.235    0.030065
-0.074515   -0.063662    -0.13338    -0.24092    -0.41983    -0.14983    0.032038
-0.091616   -0.067609    -0.10905     -0.2156    0.060979   -0.016634    0.029407
-0.10872   -0.068924   -0.088656    -0.16397     0.58322     0.16687    0.025132
-0.11233   -0.063662   -0.067609   -0.085039      1.0318     0.37077    0.020528
-0.094247   -0.052481   -0.041628   0.0080309      1.2906     0.53159     0.01691
-0.056098   -0.039326   -0.012359    0.093865      1.3143     0.58848    0.013622
-0.0061104   -0.023211    0.015266     0.14418      1.1538     0.50922   0.0093464
0.040589   -0.007097    0.036314     0.14287     0.91209     0.29941   0.0070443
0.069529    0.002769    0.047166    0.090248     0.66675   0.0014536   0.0063866
0.073476   0.0070443     0.04322   0.0093464     0.43753    -0.31821   0.0077021
0.05473   0.0060577    0.029078   -0.067609     0.21226    -0.60004   0.0093464
0.025132   0.0037556   0.0090175    -0.11727   -0.027158    -0.81282    0.011977
-0.004466   -0.004466  -0.0087413    -0.13338    -0.28006    -0.94634    0.012306
-0.030118   -0.020581   -0.020581    -0.12713    -0.52441    -0.99699    0.011977
-0.051165   -0.040313   -0.028802    -0.11661    -0.73192     -0.9812    0.012635
-0.073528   -0.059387    -0.03538    -0.11431    -0.88649    -0.92135    0.014937
-0.096878   -0.073199    -0.04393    -0.12615    -0.98548    -0.82959    0.017239
-0.12352   -0.077146   -0.053138    -0.14884     -1.0325     -0.7066    0.018555
-0.14752   -0.070568   -0.059058    -0.17252     -1.0282    -0.55729    0.017897
-0.15936   -0.052481   -0.055112    -0.17778    -0.97594    -0.39878     0.01691
-0.15147    -0.02354   -0.038011    -0.14654    -0.89504    -0.27381    0.014279
-0.1222    0.011977  -0.0087413   -0.083065     -0.8092    -0.22744    0.011648
-0.078132    0.038287    0.023817  -0.0080836     -0.7579    -0.27184   0.0086887
-0.03538     0.04618    0.047824    0.047166    -0.77237    -0.38464   0.0070443
-0.0093991    0.033683    0.056703    0.055717    -0.83551     -0.5198   0.0057288
-0.0061104   0.0070443    0.046837    0.016253    -0.82795    -0.62307   0.0070443
-0.021567   -0.026829    0.023488   -0.047219    -0.59577    -0.63589   0.0093464
-0.043601   -0.057085   -0.007097   -0.098522   -0.098193    -0.53065    0.011977
-0.063991   -0.077146   -0.038011    -0.12582     0.51712    -0.32215    0.013951
-0.074186   -0.083065   -0.059716    -0.14325      1.0081   -0.037682    0.014937
-0.072542   -0.079119   -0.064978    -0.16528      1.2163     0.29382    0.014937
-0.059058   -0.071884   -0.055769    -0.17712      1.1288     0.63913    0.010662
-0.039326   -0.068924   -0.040313    -0.14292     0.83645     0.97359   0.0057288
-0.025514   -0.073857   -0.029789   -0.056756     0.47502      1.2854   0.0037556
-0.020252   -0.086025   -0.026171    0.062294     0.19351      1.5843   0.0037556
-0.015648   -0.095891   -0.027816     0.19647     0.10505      1.8898   0.0070443
-0.0047949   -0.097536   -0.024527     0.34413     0.22936      2.1818   0.0086887
0.012635   -0.087669  -0.0074258     0.50067     0.50232      2.3825   0.0086887
0.030065   -0.070897    0.021186     0.63814     0.80323      2.4051   0.0047422
0.038616   -0.054454    0.049468     0.71049     0.99957      2.2065   0.0001381
0.032038   -0.041957    0.063938     0.67695     0.99661      1.8027  -0.0054526
0.010333   -0.036037    0.062952     0.53093     0.77659      1.2768   -0.007097
-0.016305   -0.025514    0.049468     0.30862      0.4053     0.73647  -0.0064392
-0.035708   0.0017824    0.033683    0.071831  -0.0093991     0.28329  -0.0015062
-0.036695    0.050784    0.025132    -0.11398    -0.39154   -0.020909   0.0040845
-0.019923     0.11294     0.02875    -0.21889     -0.7408    -0.17515   0.0077021
0.0073732      0.1751    0.042891    -0.24651     -1.0858    -0.22218   0.0093464
0.035656     0.23133    0.064596    -0.21987     -1.4373    -0.21626   0.0083598
0.05769     0.27112    0.085972    -0.16627      -1.784    -0.19258   0.0047422
0.071831     0.28296     0.10176    -0.10641     -2.0829    -0.16364   0.0001381
0.079066     0.26356     0.10636   -0.054783     -2.2855    -0.11036  -0.0041372
0.078409     0.22015    0.093536   -0.024198     -2.3503   0.0001381   -0.004466
0.0692     0.16654    0.063938   -0.018278     -2.2575      0.1751  -0.0031506
0.050784     0.11426    0.022172   -0.034393     -2.0158     0.37768  -0.0011774
0.028092    0.072818   -0.025185   -0.062018     -1.6616     0.53619   0.0001381
0.0096753    0.042891   -0.069582   -0.089643     -1.2252     0.58421   0.0001381
-0.0028217    0.021186    -0.10148    -0.10378    -0.72732     0.49048   -0.002164
-0.0077547   0.0070443    -0.11858   -0.095562    -0.19455     0.28494  -0.0041372
-0.007097  0.00046697    -0.11694   -0.063991     0.36156     0.03434  -0.0054526
-0.0008485   0.0024402   -0.097207   -0.013674     0.99365     -0.1906  -0.0057815
0.0073732    0.014608   -0.064978    0.044206      1.7093    -0.34715  -0.0047949
0.019541    0.033025   -0.032091    0.097812      2.3512    -0.43397  -0.0031506
0.036642    0.053086   -0.010386      0.1353      2.6804    -0.48494   -0.002164
0.05769    0.066569  -0.0047949     0.15635      2.5623    -0.56124  -0.0038083
0.080053    0.071173   -0.013345     0.16589      2.0575    -0.71285  -0.0061104
0.095181    0.071173   -0.028802     0.16885      1.3663    -0.94371  -0.0074258
0.093208    0.067227   -0.046232     0.16556     0.69405     -1.1996  -0.0054526
0.073804    0.061636    -0.06432      0.1501     0.15701     -1.3936 -0.00051963
0.047166    0.057032   -0.082079     0.12017    -0.23928     -1.4544      0.0054
0.021186    0.050784    -0.10247     0.07512     -0.5392     -1.3587    0.010662
-0.00019077     0.04026    -0.13042    0.017239    -0.76349      -1.144    0.013293
-0.020581     0.01987    -0.15706   -0.045246    -0.89142     -0.8786    0.013293
-0.042286   -0.012359    -0.16298   -0.092931    -0.88846    -0.62339    0.011977
-0.06136   -0.056756    -0.11595    -0.11299    -0.74968    -0.41456   0.0090175
-0.077146    -0.10839   0.0011247    -0.10477    -0.52013    -0.26723   0.0067154
-0.08471     -0.1564     0.17411   -0.072542    -0.27414    -0.17975   0.0044134
-0.085039    -0.18962     0.35893   -0.026829   -0.078132    -0.14325   0.0037556
-0.080763    -0.19916     0.51087    0.017897    0.031709    -0.15048    0.002769
-0.071884    -0.18534      0.5898    0.048482    0.059005    -0.19093    0.002769
-0.054125    -0.15311     0.57697    0.053743    0.034669    -0.24585   0.0024402
-0.022225    -0.11102     0.47634    0.031709   0.0014536    -0.30242    0.002769
0.017239   -0.067937     0.32276 -0.00051963  -0.0028217    -0.37839    0.002769
0.053415   -0.028802     0.16523   -0.013345    0.036971    -0.49547   0.0044134
0.07808   0.0047422    0.044864    0.018884     0.12577    -0.64181   0.0067154
0.091892    0.034669    -0.01499     0.10044     0.26915    -0.78125   0.0086887
0.099127    0.059334   -0.017292     0.21456     0.46516    -0.88188    0.010991
0.10636    0.074791    0.017239     0.32473      0.6753     -0.9105    0.011648
0.11228    0.074133    0.059992      0.3859     0.83415    -0.84176    0.010662
0.1136    0.059334    0.088275     0.36913     0.88742    -0.68818   0.0096753
0.10768    0.035656    0.091563     0.26981     0.82461    -0.47705   0.0096753
0.097154     0.01132    0.071502     0.12281     0.69306    -0.20902    0.010662
0.085315  -0.0047949    0.042562   -0.017621     0.58717     0.13136    0.013622
0.079066  -0.0074258    0.021186    -0.10378     0.60525      0.5454    0.017568
0.080382   0.0030979    0.020199    -0.11793     0.78317     0.98806    0.018884
0.083999    0.020528    0.045522   -0.075173      1.0815      1.3834    0.019212
0.087946    0.043549     0.09551  -0.0090702      1.3972      1.6714    0.016581
0.087946    0.072489     0.16063     0.05177      1.5879      1.8254    0.013293
0.08367     0.10899     0.22245    0.087288      1.5448      1.8444   0.0083598
0.076106     0.14616     0.26257    0.093536      1.2567      1.7474   0.0030979
0.068871     0.17871     0.26915    0.083999     0.80849      1.5596 -0.00019077
0.06624     0.20206     0.24284     0.07808     0.33394      1.3038  -0.0011774
0.067885      0.2093     0.19121    0.081697   -0.053138      1.0078 -0.00051963
0.07216     0.19285      0.1182    0.083013    -0.29551     0.71345   0.0034268
0.072818      0.1501      0.0373    0.068214    -0.39911     0.46285   0.0060577
0.063281    0.081368   -0.039655    0.035985    -0.41423     0.28691   0.0080309
0.041247   0.0001381     -0.1051   -0.012359    -0.40075     0.18463   0.0090175
0.010662   -0.080434    -0.15509    -0.07024    -0.40272     0.12873   0.0093464
-0.022225    -0.14687    -0.18797    -0.12615    -0.42739    0.077422    0.010333
-0.055112    -0.19389    -0.20573     -0.1666    -0.46192   -0.015648   0.0086887
-0.089314    -0.22152    -0.21099    -0.18304    -0.48395    -0.18238   0.0073732
-0.1245    -0.22941    -0.21165    -0.17318    -0.47771    -0.39056      0.0054
-0.14983    -0.21132    -0.21395    -0.14062    -0.43594    -0.56255   0.0037556
-0.15246    -0.17318     -0.2327   -0.098522    -0.37444     -0.6451   0.0034268
-0.13009    -0.13075    -0.28137   -0.060373    -0.32577    -0.62504   0.0044134
-0.091287    -0.09622    -0.36688   -0.033406    -0.31459    -0.52473   0.0044134
-0.053796    -0.07583    -0.48264   -0.016305    -0.32906    -0.38628   0.0057288
-0.032749   -0.069253    -0.59149  -0.0038083    -0.34386    -0.24651   0.0047422
-0.039326   -0.069253     -0.6405  0.00079584    -0.34484     -0.1222   0.0040845
-0.07583   -0.068266     -0.5836   -0.010386    -0.34682   -0.019923   0.0030979
-0.12384   -0.066622    -0.42575   -0.039326    -0.37872    0.034998  0.00046697
-0.16462   -0.059716    -0.22744   -0.079777    -0.45173    0.019541   -0.002164
-0.1837   -0.049192   -0.061031    -0.11661     -0.5471   -0.062676  -0.0034794
-0.17844   -0.036366    0.031052    -0.14095    -0.60103    -0.18765  -0.0034794
-0.1564   -0.020909     0.04618    -0.14127       -0.53    -0.31689  -0.0015062
-0.12582  -0.0015062    0.012635    -0.11595    -0.30242    -0.40864   0.0001381
-0.090629    0.022501   -0.029789   -0.073199   0.0047422    -0.44778   0.0024402
-0.054783    0.050455   -0.052481   -0.028802     0.23758    -0.45765   0.0024402
-0.020252    0.082355   -0.052481 -0.00051963     0.26817    -0.48461 -0.00019077
0.01132     0.11228   -0.041957   -0.002164    0.067556    -0.54282  -0.0018351
0.039602     0.13267   -0.033406   -0.033406    -0.28631    -0.58557  -0.0015062
0.062623     0.14056   -0.025842   -0.083723    -0.66352    -0.55039   0.0001381
0.076435     0.13958  -0.0084125    -0.13601    -0.95193    -0.38825   0.0047422
0.083999     0.13169     0.01987    -0.17318      -1.096   -0.070897   0.0096753
0.091892     0.12116    0.052099     -0.1814     -1.0943     0.38853    0.014608
0.10044     0.11393    0.080053     -0.1518    -0.97462     0.91932     0.01691
0.10965     0.11261    0.095181   -0.086683      -0.775      1.4268     0.01691
0.11524     0.11458    0.093865  -0.0051238    -0.52638      1.8023    0.013293
0.1113     0.11985    0.078409    0.071831    -0.21395      1.9631   0.0077021
0.096167     0.12511    0.058676      0.1307     0.23067      1.8918   0.0011247
0.069858     0.13103    0.049468     0.17181     0.83941      1.6455  -0.0031506
0.03434       0.133    0.049468     0.20108      1.5205      1.3064   -0.004466
-0.0038083     0.12708    0.051441     0.21456      2.0766     0.94037  -0.0041372
-0.034393      0.1159    0.048153     0.20535      2.3196     0.58421   -0.004466
-0.051823     0.10373    0.037629     0.15997      2.1904     0.26356  -0.0034794
-0.057414    0.090905    0.018555    0.067227      1.7951    0.010991  -0.0008485
-0.050836    0.072489  -0.0057815   -0.077803      1.3321    -0.15509   0.0037556
-0.042286    0.036642   -0.026829    -0.25112     0.98477    -0.23698   0.0093464
-0.033078   -0.031104   -0.038011    -0.41456     0.82625    -0.24947    0.013951
-0.021567    -0.12384   -0.039326    -0.54578      0.8154    -0.21198    0.017568
-0.011372    -0.21856   -0.034393    -0.64181     0.85585    -0.15542    0.017239
-0.0077547    -0.29288   -0.031104    -0.67799     0.84631    -0.12878    0.013293
-0.012688    -0.32807   -0.033406    -0.60136     0.71115     -0.1883   0.0070443
-0.027158    -0.31426   -0.044917    -0.36951     0.41352     -0.3705   0.0021113
-0.050507    -0.25671   -0.069253   -0.012688    -0.03538    -0.66417  -0.0011774
-0.073199    -0.17548    -0.10905     0.36419    -0.57637     -1.0269  -0.0011774
-0.084381     -0.0903    -0.15607     0.64636     -1.1065     -1.3946 -0.00019077
-0.077475   -0.017292    -0.19488     0.77363     -1.5212     -1.6771   0.0030979
-0.056427      0.0373    -0.21264     0.74831     -1.7629     -1.7919   0.0086887
-0.028144    0.073476    -0.20179     0.61315     -1.8392     -1.6981    0.014608
0.0024402    0.089919    -0.16495     0.42076     -1.8044     -1.4242    0.018555
0.026119    0.085972    -0.10444     0.21489     -1.7119     -1.0532    0.018884
0.038944     0.06361   -0.013674    0.036971      -1.583    -0.68687     0.01691
0.042891    0.034998     0.11294   -0.091616     -1.4074    -0.41226    0.013622
0.04026    0.017897     0.26586    -0.15673     -1.1687    -0.27052    0.010662
0.041904    0.018226     0.41089    -0.16068    -0.87103    -0.26098   0.0083598
0.04881     0.02579     0.50232    -0.11398    -0.56617    -0.35471   0.0063866
0.056046    0.028421     0.50922   -0.020252    -0.31755     -0.5004   0.0057288
0.053743    0.018226     0.43293     0.11162    -0.17844    -0.62833   0.0057288
0.042891   -0.004466      0.3096     0.26257    -0.17087      -0.677   0.0070443
0.031709   -0.033406      0.1843     0.38787    -0.27118    -0.61517    0.010333
0.028092   -0.054454    0.090905     0.44214    -0.40536    -0.45403    0.014608
0.0373   -0.059387     0.04026     0.40333    -0.46159    -0.23073    0.018884
0.055059   -0.044588    0.023488     0.28559    -0.32544   0.0021113    0.020528
0.071831   -0.015976     0.01691     0.13497    0.049139     0.20173    0.018884
0.07808    0.016253   0.0021113  0.00079584     0.57566     0.33427    0.015266
0.069529     0.04026   -0.021896   -0.080434      1.0982     0.38952    0.010662
0.050455    0.052757   -0.050836    -0.10082      1.4603     0.37834   0.0073732
0.027434    0.051441   -0.077803   -0.079119      1.5521     0.32605   0.0057288
0.0034268    0.041575    -0.10773   -0.039326      1.3501     0.25633      0.0054
-0.018607    0.028421    -0.15147  -0.0038083     0.92787     0.19351   0.0067154
-0.039326    0.022172    -0.21231    0.014608     0.42076     0.14944   0.0090175
-0.0584    0.026447    -0.28006    0.020199   -0.040641      0.1284    0.011648
-0.076488    0.045522     -0.3409    0.031709    -0.36556     0.13234    0.013951
-0.087341    0.069529    -0.37839    0.059992    -0.55433     0.16063    0.016581
-0.086025    0.088603    -0.38003      0.1057    -0.65825     0.21259    0.017568
-0.070568    0.092221     -0.3455      0.1478    -0.72534     0.27836    0.016253
-0.044259    0.080711    -0.28631     0.15471    -0.73883     0.33229    0.013293
-0.01499    0.058348    -0.22974     0.11195    -0.64543     0.35203    0.010991
0.0080309    0.025461     -0.1906    0.032367    -0.44581     0.32407   0.0093464
0.011977   -0.016305    -0.16199   -0.059058     -0.2304     0.23988   0.0063866
-0.0051238   -0.060702     -0.1176    -0.14687    -0.13042     0.11294   0.0057288
-0.041957    -0.10773   -0.047219    -0.22415    -0.21494   -0.032749   0.0047422
-0.093589    -0.15542    0.033025    -0.28565    -0.44219    -0.16923      0.0054
-0.14851     -0.2008    0.087617     -0.3238    -0.69311    -0.26427   0.0047422
-0.18896    -0.23895    0.092221    -0.33202    -0.85722    -0.30176   0.0057288
-0.20672    -0.26164    0.042891    -0.31261    -0.88945    -0.28335   0.0070443
-0.20442    -0.26032   -0.040313    -0.27743    -0.80296    -0.22612   0.0080309
-0.18271    -0.22448    -0.12582    -0.23862    -0.63326     -0.1518   0.0077021
-0.14687    -0.14851    -0.18074    -0.20508    -0.41193   -0.080434   0.0073732
-0.1051   -0.042615    -0.18436     -0.1814    -0.15213   -0.018278   0.0063866
-0.060045     0.07808    -0.13733    -0.17186      0.1284    0.036314   0.0067154
-0.015319     0.19253   -0.052481    -0.17778     0.38162    0.084328      0.0054
0.033354     0.27376    0.055059    -0.19488     0.54869     0.12741   0.0044134
0.087946     0.30401     0.17674    -0.21757     0.60229     0.16095   0.0037556
0.14747     0.28592     0.30862    -0.23467     0.59341     0.18562   0.0021113
0.20075     0.24054     0.45134    -0.23434     0.59901     0.20371   0.0017824
0.24251     0.19483     0.60525    -0.20573     0.65162     0.21818   0.0011247
0.26455     0.16391     0.76475    -0.15246     0.71773     0.22837  0.00079584
0.26225     0.14681     0.91439    -0.08471     0.73285     0.23331   0.0014536
0.23758     0.13267      1.0298   -0.010715     0.64472     0.23067   0.0021113
0.20371     0.11097      1.0828    0.084986      0.4474     0.21324   0.0014536
0.16589    0.081697      1.0551     0.21653      0.2014     0.17707   0.0014536
0.12445    0.050455     0.95024     0.37373   -0.004466     0.12938   0.0014536
0.086301    0.024803     0.79008     0.51646    -0.11036    0.077093    0.002769
0.058348   0.0096753     0.60558     0.60065    -0.12089    0.027105   0.0047422
0.043549   0.0096753     0.42471     0.60131   -0.091616   -0.010715   0.0057288
0.041575     0.01987     0.27047     0.52633   -0.087998    -0.02946   0.0037556
0.052099    0.030723     0.15372     0.40728    -0.11825   -0.028473   0.0024402
0.06624    0.030065    0.066569     0.27047    -0.12648   -0.016305   0.0017824
0.072818    0.012964  -0.0051238     0.13958    -0.07287  -0.0061104   0.0024402
0.059334   -0.015976    -0.07287    0.018555    0.015595   -0.015319   0.0034268
0.026776   -0.041628    -0.14062   -0.088985     0.07808   -0.032091   0.0050711
-0.010386   -0.051823    -0.20343    -0.17054    0.081368   -0.022883      0.0054
-0.042615   -0.045903    -0.25473     -0.2156    0.030065    0.039931   0.0063866
-0.063662   -0.027158     -0.2942    -0.21297   -0.039326     0.14846   0.0080309
-0.074515  -0.0090702    -0.32972    -0.16364    -0.10017     0.27178   0.0083598
-0.074515  -0.0011774     -0.3603   -0.086683    -0.14127     0.37801   0.0073732
-0.071226  -0.0038083    -0.38266  -0.0038083    -0.16495     0.44345   0.0070443
-0.07024   -0.013017    -0.39417    0.064596     -0.1814     0.46154   0.0057288
-0.072542   -0.022554    -0.39187     0.10406    -0.19916     0.43523   0.0040845
-0.075173   -0.027816     -0.3797     0.11031    -0.21659     0.36485   0.0037556
-0.077146   -0.028144    -0.35964    0.091234    -0.23237     0.24054    0.002769
-0.07287   -0.028802    -0.33596    0.060979     -0.2475     0.06065   0.0011247
-0.065635   -0.031433    -0.31327    0.030394    -0.26789    -0.14785 -0.00051963
-0.061031   -0.039984    -0.29288   0.0030979     -0.2942    -0.34123  0.00046697
-0.060045   -0.047548     -0.2771   -0.021567    -0.31853    -0.48428   0.0037556
-0.064978   -0.051494    -0.27118   -0.042944    -0.32906    -0.56486   0.0073732
-0.074844   -0.052152    -0.27447   -0.066622    -0.31393    -0.59741    0.010004
-0.082079   -0.050836    -0.28236   -0.095891    -0.27512    -0.58952    0.012306
-0.086354   -0.050836    -0.28762    -0.12911    -0.21428    -0.53526    0.014279
-0.087669   -0.050507    -0.28959    -0.16199    -0.13503    -0.43134    0.014608
-0.088985   -0.048534    -0.28565    -0.18995   -0.048863    -0.28828    0.012635
-0.087998   -0.046561     -0.2748    -0.20902    0.024145    -0.12056    0.011648
-0.090629    -0.04393    -0.25802    -0.21659    0.077751    0.066569    0.010004
-0.094905   -0.039326    -0.23763    -0.20672     0.12609     0.26882    0.010662
-0.095233   -0.030775    -0.21527    -0.17712     0.18397     0.45989    0.010991
-0.087012   -0.016963    -0.19093    -0.13207     0.25271     0.61907    0.011977
-0.065964   0.0017824    -0.16331   -0.079448     0.32736     0.74436    0.012635
-0.041957    0.022172    -0.13272   -0.027816     0.41155     0.84993    0.013951
-0.021238    0.036314    -0.10115    0.013293     0.50594     0.95155    0.014279
-0.007097    0.044206   -0.070897    0.033354      0.6046      1.0479    0.014279
0.0060577    0.043877   -0.045903    0.030065     0.68714      1.1064    0.013293
0.016253    0.039602   -0.029789    0.010662     0.70983      1.0953    0.010991
0.021514    0.033025   -0.021238   -0.010386     0.61841      1.0265   0.0093464
0.018884    0.024145   -0.020909   -0.021896     0.38524     0.92426   0.0073732
0.010662    0.015924   -0.025514   -0.018278    0.027105     0.80422   0.0057288
-0.0041372   0.0090175   -0.037682  -0.0074258    -0.41292     0.68484   0.0060577
-0.024856  -0.0031506     -0.0584  -0.0057815    -0.90162     0.56842   0.0073732
-0.045903   -0.019265   -0.083723   -0.019265     -1.4222      0.4178   0.0086887
-0.061689   -0.037682    -0.10773   -0.045246     -1.9487     0.18661   0.0083598
-0.069911   -0.054125    -0.12253   -0.077803     -2.4322    -0.12352   0.0086887
-0.073199   -0.065307    -0.12944    -0.10378      -2.789    -0.44942   0.0090175
-0.076488   -0.074515    -0.12779    -0.11365     -2.8594    -0.70989    0.010991
-0.082736   -0.085039    -0.12023    -0.10148     -2.4075    -0.85459    0.012964
-0.092274   -0.094247    -0.11102   -0.071226     -1.3249    -0.87892    0.012635
-0.10115    -0.10115   -0.099509   -0.031433     0.18365    -0.83847    0.010333
-0.10148     -0.1051   -0.083723    0.010991      1.5846    -0.82367      0.0054
-0.088656    -0.10806   -0.062676    0.049797      2.4469    -0.88715  0.00046697
-0.06136    -0.10543   -0.038339    0.083999      2.6478      -1.018  -0.0038083
-0.019265   -0.096549   -0.012359     0.12182      2.3335     -1.1473  -0.0057815
0.028421   -0.079448    0.016253      0.1649      1.8161     -1.1966  -0.0041372
0.075778   -0.049192    0.049139     0.21324       1.409     -1.1239   0.0011247
0.11952  -0.0031506    0.086301     0.26356      1.3117    -0.94305   0.0063866
0.15964    0.067227     0.12675     0.31059      1.5445    -0.72304   0.0096753
0.1968      0.1626     0.16391     0.34611      1.9576    -0.60169   0.0083598
0.2287     0.26915     0.19022     0.35597      2.3085    -0.71383   0.0030979
0.25205     0.36748     0.20108      0.3346      2.3693     -1.0861  -0.0031506
0.26257     0.43128     0.19647     0.29447      2.0345     -1.5939  -0.0077547
0.25665     0.44674     0.18134     0.25369       1.363     -2.0392  -0.0067681
0.23955     0.41155     0.16194     0.22607     0.53817     -2.2667  -0.0018351
0.22179     0.33657     0.14813      0.2162    -0.20343     -2.1967   0.0073732
0.21259      0.2435     0.13563     0.21686    -0.66385     -1.8103    0.017239
0.21193     0.16326     0.12083     0.21719    -0.76316     -1.1558    0.023817
0.21324      0.1159     0.10242     0.20535    -0.53296    -0.35899     0.02579
0.20667    0.099785    0.079395     0.16918   -0.091287     0.40695    0.021843
0.18661    0.094523    0.049797    0.096825     0.41385      1.0117    0.013951
0.15043    0.076764    0.013951   -0.015976     0.83875      1.4406      0.0054
0.1034    0.035985   -0.019594    -0.15443      1.0805       1.776   0.0011247
0.052099   -0.018278   -0.034722    -0.28269       1.114      2.1467   0.0011247
0.0067154   -0.066293   -0.024527    -0.35011     0.99661      2.6521   0.0044134
-0.024856   -0.091287   0.0090175    -0.32544     0.82165      3.2816   0.0080309
-0.042615   -0.086683    0.053415    -0.21461      0.6513      3.9038   0.0086887
-0.053467   -0.061031    0.090248   -0.060045     0.48949      4.3589   0.0063866
-0.057743   -0.028802     0.10603    0.089261     0.31684       4.526   0.0014536
-0.057085  0.00079584    0.099785     0.19713     0.12478      4.3435  -0.0034794
-0.04689    0.021514     0.07808     0.25435   -0.074515      3.8255  -0.0084125
-0.030775    0.026447    0.046508     0.26751     -0.2521      3.0668   -0.010386
-0.017292     0.01132    0.010662      0.2481    -0.38924      2.2128  -0.0090702
-0.011701   -0.030447   -0.029131     0.20502    -0.48955      1.4014  -0.0057815
-0.013674   -0.094247   -0.065964     0.13925    -0.55894     0.72003  -0.0015062
-0.017621    -0.16199   -0.093918    0.052757    -0.59939     0.19877   0.0030979
-0.021238    -0.21626    -0.11201   -0.040313    -0.61123    -0.15443   0.0057288
-0.023211    -0.25013    -0.11661    -0.12253    -0.59709      -0.358   0.0073732
-0.025842     -0.2623    -0.10444    -0.17186    -0.55795    -0.46324   0.0070443
-0.025185    -0.25342   -0.076159    -0.17186    -0.50763    -0.54578   0.0047422
-0.016305    -0.23007   -0.034722     -0.1245    -0.49185    -0.69903    0.002769
0.0017824    -0.19554    0.021843   -0.053138     -0.5688    -0.99567 -0.00019077
0.023817    -0.15772    0.087617    0.018226    -0.76711     -1.4446  -0.0034794
0.042562    -0.11365     0.15964    0.067556     -1.0555     -1.9941  -0.0061104
0.056374   -0.052481     0.22673    0.084657     -1.3482     -2.5601  -0.0057815
0.055059    0.032696     0.27803    0.070516     -1.5511     -3.0412  -0.0024928
0.03434     0.12905     0.29678    0.035656     -1.6051     -3.3826   0.0001381
-0.0028217     0.21324     0.27968  -0.0087413     -1.5094     -3.5871   0.0017824
-0.046232     0.26093     0.23396   -0.053138     -1.3153     -3.6792   0.0021113
-0.088327     0.25271     0.17049   -0.096549     -1.1137     -3.6796    0.002769
-0.12483     0.19121     0.10176    -0.14193    -0.98054     -3.5651   0.0047422
-0.14719    0.096496    0.037629    -0.18304    -0.93417     -3.2856   0.0077021
-0.15706  -0.0028217   -0.016305    -0.20968    -0.94141     -2.8436    0.010991
-0.16232   -0.086354   -0.057414    -0.21198    -0.95983     -2.3138    0.012306
-0.17975    -0.14719   -0.088327    -0.19324    -0.96147     -1.7669    0.013622
-0.21889    -0.18403    -0.11497    -0.16791     -0.9322     -1.2334    0.014279
-0.27578    -0.19784    -0.14029    -0.14588    -0.86281    -0.69542    0.015924
-0.33235    -0.19258    -0.16166    -0.13601    -0.74705     -0.1245    0.017239
-0.37017    -0.17613    -0.17318    -0.13864    -0.57505     0.46746    0.017568
-0.37313    -0.15772     -0.1712    -0.14917    -0.33399      1.0328    0.014608
-0.34254    -0.13963    -0.15575    -0.15838   -0.030775      1.4932   0.0040845
-0.28631     -0.1245    -0.12976    -0.16002     0.28066      1.7681    -0.01203
-0.21922    -0.10806   -0.095233    -0.14884     0.52205      1.8138   -0.023869
-0.15081   -0.088985   -0.054783    -0.12582     0.62334      1.6418   -0.024527
-0.091287   -0.064978   -0.016305   -0.092274     0.55625      1.3166   -0.015319
-0.040313   -0.035051    0.017897   -0.049521      0.3494     0.95089  -0.0011774
0.0070443  -0.0047949    0.044864  -0.0018351    0.086301      0.6878    0.012635
0.053086    0.022501    0.065912    0.056046    -0.11825     0.64603    0.024145
0.099785    0.046837    0.085644     0.13399    -0.13799     0.87854    0.031381
0.14879     0.06624     0.10636     0.23035    0.097483      1.3212    0.033683
0.1922    0.075778     0.12544     0.32802     0.52994      1.7918    0.030394
0.22443    0.074133     0.13169     0.39708      0.9943      2.0763    0.021843
0.23955    0.058348     0.12083     0.41747      1.3297      2.0355    0.012306
0.23363    0.024803     0.09551     0.38162      1.4458      1.6576   0.0037556
0.20732   -0.023869    0.061965     0.29908      1.3495      1.0634   0.0001381
0.17115   -0.074844    0.025461     0.19154      1.1209      0.4474   0.0017824
0.13267     -0.1051  -0.0061104    0.085644     0.87854    -0.01203   0.0080309
0.10044   -0.098522   -0.022883   0.0080309      0.7095    -0.22415    0.015266
0.080382   -0.054783   -0.022554   -0.039984     0.62137    -0.21626    0.016581
0.071173    0.013293    -0.01499   -0.074844     0.54211   -0.080763   0.0096753
0.06624    0.079395  -0.0084125    -0.11497     0.36452    0.071173  -0.0011774
0.062294     0.11886   -0.012359     -0.1735   0.0014536     0.15701  -0.0061104
0.055388     0.12182   -0.032749     -0.2373    -0.52934     0.14024   -0.002164
0.043877    0.099127    -0.06136    -0.27447      -1.121    0.034998   0.0086887
0.031052    0.067556   -0.083065    -0.25769     -1.6412    -0.11233    0.019212
0.020528    0.047166   -0.086025    -0.18238     -1.9997    -0.25375    0.026119
0.018226    0.042233   -0.068595   -0.077146     -2.1835    -0.36194     0.02875
0.025461    0.039931   -0.040641    0.016581     -2.2473    -0.42311    0.027434
0.033683    0.031709   -0.015648    0.058676     -2.2457    -0.43923    0.024474
0.033354    0.020528   -0.002164    0.034011     -2.2066    -0.43462    0.020528
0.016581    0.016581 -0.00019077   -0.044917     -2.1118    -0.43693    0.016581
-0.014661    0.021514  -0.0064392    -0.14719     -1.9201    -0.46258    0.015266
-0.052481    0.032038   -0.018936    -0.23665     -1.6008    -0.50895    0.013293
-0.088985      0.0373   -0.037024      -0.284     -1.1673    -0.55927    0.013622
-0.11694    0.027434    -0.05544     -0.2794    -0.63458    -0.58525    0.014279
-0.13536  -0.0034794   -0.064978    -0.22941    0.019212    -0.56486    0.014608
-0.14687   -0.049521    -0.06136    -0.15213     0.73779    -0.49547    0.012964
-0.1518   -0.091616   -0.047219   -0.068266      1.3511    -0.39845   0.0047422
-0.14687    -0.11003   -0.027487      0.0054      1.6938    -0.30406  -0.0064392
-0.13075   -0.086683  -0.0080836    0.062623      1.7833    -0.23467   -0.013345
-0.1074   -0.020581    0.012964      0.1057      1.8642    -0.19455   -0.013674
-0.084381    0.068871    0.032696     0.13333      2.2174    -0.17811  -0.0064392
-0.066951     0.15273    0.048153      0.1353      2.8988    -0.17844   0.0034268
-0.047877     0.20798    0.052757     0.11393      3.6749    -0.19324     0.01132
-0.018278     0.22837    0.048153    0.076435      4.2103    -0.22086    0.013622
0.024474     0.21489    0.036642    0.032696      4.2359    -0.25441    0.012964
0.077093     0.17049    0.023159   -0.015648      3.6483    -0.27743   0.0096753
0.1284     0.10538    0.012964    -0.06728      2.5515    -0.27414   0.0090175
0.16359    0.036642   0.0060577     -0.1176      1.2419    -0.23698    0.010333
0.1751   -0.021896   0.0080309    -0.15509     0.13859    -0.17318    0.015595
0.16457   -0.060373    0.018555    -0.16989    -0.38003   -0.097864    0.020199
0.14056   -0.073528    0.033683    -0.15147    -0.20146   -0.028144    0.023488
0.11097   -0.067937    0.049139   -0.091287     0.52797    0.021514    0.024474
0.080053   -0.047548    0.062623    0.028092      1.4912    0.046837    0.021186
0.048482   -0.021238    0.072818     0.21752      2.3443    0.054072    0.014608
0.015924  0.00079584    0.074791     0.43589      2.8113    0.055388   0.0040845
-0.013017   0.0086887    0.062952      0.5967      2.7669    0.061307   -0.010715
-0.033406  0.00079584    0.037629     0.63288      2.2578    0.073147   -0.022225
-0.04393   -0.015976   0.0047422     0.53356       1.434    0.087946   -0.022225
-0.045574   -0.031104   -0.025514     0.33854     0.45726    0.095181   -0.011372
-0.038339   -0.040313   -0.044588     0.10603    -0.51947    0.087617   0.0044134
-0.031104   -0.040641   -0.047548   -0.099838     -1.3656    0.069529    0.018884
-0.029131   -0.027487   -0.037353    -0.23204     -2.0392    0.050784    0.027105
-0.030118  -0.0084125   -0.019265    -0.26263     -2.5328    0.037958    0.029078
-0.027816      0.0054  -0.0008485    -0.20212     -2.8354    0.021514    0.027105
-0.019594    0.011648   0.0096753   -0.099509     -2.9143    -0.01795    0.022172
-0.004466   0.0096753   0.0080309   -0.025842     -2.7489    -0.10905    0.017568
0.0070443   0.0001381   -0.007097   -0.028802     -2.3578    -0.28631    0.011648
0.0083598   -0.013674   -0.030118    -0.10444     -1.8142    -0.53986   0.0070443
-0.0008485   -0.028473   -0.055112    -0.21461       -1.24     -0.8194   0.0040845
-0.015648   -0.033735   -0.074844    -0.31261    -0.77533     -1.0733   0.0037556
-0.031104   -0.031104   -0.087998    -0.36721     -0.5369     -1.2847   0.0047422
-0.039984   -0.027158   -0.099509     -0.3705    -0.56518     -1.4439   0.0063866
-0.041299   -0.026829    -0.11562    -0.33004     -0.7875     -1.5321   0.0057288
-0.036366   -0.028473    -0.13667    -0.26789     -1.0539     -1.5265   0.0034268
-0.028473   -0.030775    -0.15739    -0.21231     -1.2288     -1.4071   0.0024402
-0.016305   -0.032749     -0.1689    -0.18666     -1.2384     -1.1703      0.0054
-0.00051963   -0.031104    -0.16101    -0.19291     -1.0924    -0.82696    0.011648
0.013293   -0.025514    -0.13404    -0.21165    -0.85821    -0.40503    0.018226
0.021186    -0.01499   -0.091616    -0.21297    -0.61747    0.064596    0.023488
0.02579  -0.0047949   -0.047877    -0.17186    -0.43035     0.55658    0.024474
0.024145  0.00046697   -0.015648   -0.083394    -0.31327      1.0423    0.023159
0.018226  -0.0015062  -0.0008485    0.041575    -0.25243      1.4922    0.020528
0.014937  -0.0084125   0.0011247     0.18134    -0.21165      1.8868    0.018555
0.023159   -0.011043  -0.0018351     0.30631    -0.16627      2.2131    0.018555
0.043549   0.0017824  -0.0061104     0.39313   -0.098851      2.4673    0.017568
0.071173     0.02579   -0.014003     0.42635   0.0096753      2.6531     0.01691
0.090905    0.054401   -0.035051     0.40826     0.16885      2.7728    0.015924
0.095181    0.078409   -0.073199     0.34808     0.35203      2.8159    0.013622
0.084657     0.09255    -0.12384     0.26257     0.50561      2.7574     0.01132
0.064925    0.092221    -0.17844     0.17312      0.5773      2.5604   0.0086887
0.04026    0.080382    -0.22875    0.096496     0.55066       2.195   0.0063866
0.016581    0.061965    -0.27348    0.041247     0.44214      1.6721   0.0037556
-0.0038083    0.044206    -0.31459   0.0047422     0.28888      1.0624   0.0024402
-0.017292    0.034669    -0.35701   -0.015976     0.12478     0.47732    0.002769
-0.026171    0.037629    -0.39483   -0.026829   -0.034064    0.027434   0.0060577
-0.036037    0.052757     -0.4116   -0.033735    -0.17186    -0.21527    0.010333
-0.047877    0.076435    -0.37707   -0.038339    -0.26592    -0.24158    0.013951
-0.060373     0.10044    -0.26032   -0.037024    -0.29091    -0.10444    0.015595
-0.07024      0.1159   -0.056756   -0.026829    -0.23599      0.1136    0.015595
-0.071884     0.11787     0.19812  -0.0097279    -0.12056     0.33361    0.014608
-0.06136     0.10603     0.43293   0.0080309   0.0001381     0.48028    0.012306
-0.041299    0.080711     0.58256    0.022501    0.066898     0.50528   0.0083598
-0.016634    0.050126     0.62137    0.038287    0.055388     0.40464   0.0040845
0.0011247    0.019541     0.56678    0.060979   -0.020909     0.20667  0.00046697
0.010004   -0.004466      0.4622    0.092879    -0.13272   -0.043601  -0.0018351
0.011977   -0.018607      0.3494     0.12544    -0.25243    -0.30078  -0.0024928
0.013293   -0.024527       0.256      0.1478    -0.35109    -0.52704  -0.0015062
0.020199   -0.028802     0.19088     0.15767    -0.40371    -0.70956 -0.00019077
0.040918   -0.036366     0.15372      0.1649    -0.38661    -0.84735  0.00046697
0.068543   -0.046232     0.14089     0.17937    -0.29551    -0.94009   0.0011247
0.087288   -0.057085     0.14188     0.20206     -0.1564    -0.98581 -0.00019077
0.090905   -0.062676     0.14944     0.22574   -0.018278    -0.98022  0.00046697
0.085644    -0.06728     0.15635     0.24021    0.061965    -0.92332  0.00046697
0.079395   -0.075501     0.15372     0.23692    0.063938    -0.82631 -0.00051963
0.078737   -0.085696     0.13991     0.21588   -0.010386    -0.71646  -0.0015062
0.083342   -0.089972     0.11754     0.19022    -0.13141    -0.64181  -0.0034794
0.085644   -0.080434     0.09551     0.16622    -0.24388    -0.65069  -0.0041372
0.081368   -0.058071    0.081039     0.15503      -0.284    -0.75659   -0.004466
0.07216   -0.027158    0.076435     0.16457    -0.22053    -0.90491  -0.0038083
0.062294  0.00046697    0.078409     0.18825   -0.082736     -1.0098   -0.002164
0.053086    0.017897    0.082684     0.21292    0.069858     -1.0088  -0.0018351
0.044535    0.021514    0.084986     0.22706     0.19581     -0.9105  -0.0018351
0.041247    0.020528    0.090248     0.22936      0.2925    -0.78487  -0.0047949
0.034998    0.022501    0.091892     0.21883     0.38162    -0.70956  -0.0084125
0.020857    0.028092    0.083342     0.19384     0.46614    -0.72962   -0.011701
-0.00051963    0.039273    0.063938      0.1501     0.52369    -0.84176   -0.013345
-0.016963    0.052757     0.04026    0.082355     0.52369     -1.0019   -0.012688
-0.02354    0.063281    0.021514   -0.004466     0.45858     -1.1489   -0.010386
-0.018936    0.066898   0.0060577   -0.094576     0.34117     -1.2321  -0.0057815
-0.004466    0.061307   -0.010057    -0.17153     0.19746      -1.238  -0.0015062
0.012635    0.045851   -0.029789    -0.22251    0.043549     -1.2058  0.00046697
0.024145    0.023159   -0.051494    -0.24289    -0.11102     -1.1828  0.00046697
0.027105  -0.0008485   -0.066622     -0.2327     -0.2623      -1.167 -0.00019077
0.020199   -0.019923    -0.07287    -0.20014    -0.40404     -1.1243  -0.0008485
0.0047422   -0.025185   -0.066293    -0.15443    -0.52539      -1.019   0.0001381
-0.011701   -0.016305   -0.047219   -0.098522    -0.62438     -0.8319   0.0024402
-0.022883    0.002769   -0.022554   -0.035051    -0.69575    -0.56223   0.0044134
-0.030118    0.018555  -0.0097279    0.020528    -0.74869    -0.22941   0.0044134
-0.038997    0.021843   -0.024198    0.039602    -0.82039     0.12116   0.0034268
-0.053467    0.010333   -0.064978   0.0083598    -0.94371     0.43161    0.002769
-0.070568   -0.010386    -0.11628   -0.064649     -1.1157     0.66708    0.002769
-0.091616   -0.029789    -0.15936    -0.15279     -1.2828     0.83283   0.0021113
-0.11825    -0.04393    -0.18238    -0.22316     -1.3739     0.94563   0.0034268
-0.15114   -0.052481    -0.18205    -0.24125     -1.3407      1.0075   0.0037556
-0.17975   -0.057085    -0.16462    -0.19554     -1.1798      1.0107   0.0047422
-0.19916   -0.059716     -0.1393    -0.11266    -0.92562     0.95221   0.0040845
-0.20672   -0.063004    -0.11727   -0.040641    -0.62076     0.83217   0.0030979
-0.19948   -0.068595    -0.10378   -0.014332    -0.29617     0.65524    0.002769
-0.1837   -0.076488   -0.099509   -0.042286    0.048482     0.45233   0.0014536
-0.1643   -0.083394   -0.097536    -0.11431     0.43457     0.27803   0.0011247
-0.13733   -0.085696   -0.093589    -0.21297     0.87361     0.19253   0.0030979
-0.10247   -0.072213   -0.089314    -0.31525      1.3179      0.2139   0.0050711
-0.064978   -0.041299   -0.088985    -0.38332      1.6701     0.31092   0.0073732
-0.028144    0.002769   -0.091287    -0.37839      1.8559     0.42569   0.0077021
0.0060577     0.04618   -0.095233    -0.29321      1.8573     0.49508   0.0070443
0.033025     0.07808   -0.093589    -0.15936      1.7076     0.48818   0.0047422
0.049797    0.095839   -0.085039   -0.021567      1.4603     0.43227    0.002769
0.059992     0.10274   -0.070568    0.079724      1.1617     0.37702   0.0030979
0.070845     0.10735   -0.061031      0.1307     0.84796     0.34216      0.0054
0.087288     0.11853   -0.060702      0.1353      0.5579     0.30007   0.0077021
0.10669     0.13596   -0.066622     0.10932     0.33131     0.21916   0.0090175
0.11787     0.14616   -0.073199    0.072818     0.18825      0.1182   0.0086887
0.1113     0.13892   -0.074186    0.044206     0.12445    0.046837   0.0093464
0.087288     0.11031   -0.065307    0.033025    0.092879    0.045522    0.010333
0.053086    0.066569    -0.04985    0.036314    0.040918     0.12971    0.013293
0.022501    0.019212   -0.033078    0.043877   -0.055112     0.26981    0.014608
0.0037556   -0.018607   -0.022225    0.047495    -0.18863     0.40399    0.013293
-0.002164   -0.041299   -0.015648    0.042562    -0.33761     0.46779     0.01132
0.0044134   -0.050179   -0.012688    0.035656    -0.48494     0.42701   0.0080309
0.013951    -0.04985  -0.0074258    0.031381    -0.61123     0.30566   0.0073732
0.017568   -0.045246   0.0001381    0.034669    -0.69871     0.17378   0.0083598
0.010333   -0.036695   0.0086887    0.048153    -0.73587     0.13432    0.012306
-0.0087413   -0.023211    0.018226    0.065583     -0.7135     0.27343    0.015595
-0.028144  -0.0047949    0.024803    0.080053    -0.61879     0.59868    0.019212
-0.036366    0.020528    0.028421    0.090905    -0.44449      1.0035    0.018555
-0.027816    0.044864    0.029736     0.10143    -0.21034      1.3143    0.015924
-0.012359    0.059663    0.027434      0.1159    0.037629      1.3741    0.010991
0.0030979    0.057361    0.028421     0.13695     0.25238      1.1282   0.0040845
0.016581     0.04322    0.043549     0.16819      0.4178      0.6536 -0.00019077
0.02875    0.024803    0.076106     0.21127     0.58421     0.13563 -0.00051963
0.042891    0.010004     0.12116     0.26455     0.81672    -0.22448   0.0034268
0.055717  -0.0018351     0.16523     0.31322      1.1127    -0.33399   0.0090175
0.06065   -0.014332     0.19713     0.33723      1.4189    -0.26427    0.012964
0.047495   -0.037353     0.21259     0.31914      1.6596    -0.18863    0.011977
0.014279   -0.076817     0.21259     0.25402      1.7589    -0.25769   0.0070443
-0.031762    -0.12384     0.19121      0.1524      1.6655    -0.50961   0.0017824
-0.076488    -0.16199     0.14616    0.039602       1.385    -0.87268  -0.0015062
-0.10181    -0.17581    0.085972   -0.057743     0.99069     -1.2226   0.0001381
-0.10017    -0.16101    0.027105    -0.12549     0.59966     -1.4551   0.0047422
-0.076817    -0.11957   -0.020581    -0.15903      0.3119       -1.51    0.010991
-0.048863   -0.059058   -0.050836    -0.16002     0.15668     -1.3752    0.015924
-0.027487   0.0030979   -0.064649    -0.14193    0.093208     -1.0749    0.019212
-0.020909    0.048482   -0.065635     -0.1222    0.051113    -0.65003    0.020857
-0.021567    0.068543   -0.057414    -0.11069   -0.027158    -0.14391     0.01987
-0.019594    0.061636   -0.049521    -0.10872    -0.14292     0.38623     0.01691
-0.0084125    0.033025   -0.048863    -0.10937    -0.25934      0.8427     0.01132
0.0086887  -0.0061104   -0.053796    -0.10872    -0.34254      1.1341   0.0063866
0.025132   -0.050179   -0.063004    -0.10477     -0.3751       1.235   0.0017824
0.03434   -0.092603   -0.071555    -0.10148    -0.35471      1.1824 -0.00019077
0.034669    -0.12582   -0.074515     -0.1051     -0.2965      1.0512 -0.00019077
0.026119    -0.13897   -0.071555    -0.11628     -0.2179     0.91176  0.00079584
0.012306    -0.11957    -0.06136    -0.12812     -0.1245     0.79468    0.002769
0.0040845   -0.059387   -0.048863    -0.13601   -0.033406     0.69832   0.0044134
0.010004    0.040918   -0.038011    -0.13963    0.022501     0.62104   0.0044134
0.033354     0.16128   -0.033735    -0.14259    0.023817     0.52205   0.0021113
0.068543     0.26849   -0.035051    -0.14423     0.02283     0.32802  -0.0015062
0.098469     0.32769   -0.040313     -0.1347      0.1113  -0.0031506  -0.0057815
0.11261     0.32078   -0.046232    -0.11233     0.30039    -0.43824   -0.007097
0.10373      0.2583   -0.050507   -0.085696     0.48456    -0.89866  -0.0067681
0.069529     0.16819   -0.053467   -0.066293     0.53981       -1.29  -0.0028217
0.017897    0.084328   -0.053467   -0.063662     0.41714     -1.5423  0.00079584
-0.035051    0.028421   -0.057414   -0.078132     0.13991     -1.6212   0.0050711
-0.072542   0.0037556   -0.064978    -0.10543    -0.23763     -1.5028   0.0093464
-0.08471  -0.0031506   -0.067937     -0.1324    -0.64313     -1.1966    0.012635
-0.07024  -0.0061104   -0.057743    -0.14062     -1.0072      -0.775    0.014937
-0.038339  -0.0080836   -0.037353    -0.12056     -1.3094    -0.33761    0.015266
0.0001381   -0.007097   -0.013017   -0.072542     -1.5827     0.04026    0.013951
0.035327   0.0001381     0.01132  -0.0074258     -1.8734     0.34052     0.01132
0.06065    0.011648    0.032038    0.058019     -2.2079     0.61019   0.0096753
0.073147    0.029078    0.045522     0.10472     -2.5548     0.90123   0.0083598
0.071502    0.045522     0.04881     0.12182     -2.7643      1.1989   0.0080309
0.062623    0.051113    0.044864     0.11393     -2.5469      1.4202   0.0057288
0.056703     0.04618    0.034998    0.095839     -1.6554       1.455    0.002769
0.060979    0.036971    0.017568    0.085644    -0.13733      1.2456  -0.0018351
0.069858     0.03434 -0.00019077    0.097812      1.5287     0.81639   -0.004466
0.079066    0.042233    -0.01499     0.13925      2.7777     0.24514  -0.0084125
0.083013    0.059005    -0.02354     0.19417      3.3401    -0.36425  -0.0097279
0.082355    0.079395   -0.025185     0.23495      3.2329    -0.90162   -0.010057
0.076764    0.092221   -0.020581     0.24383      2.7031     -1.2785   -0.007097
0.066569    0.092221   -0.017621     0.21522       2.069     -1.4387 -0.00019077
0.052428    0.072818   -0.021238     0.16359      1.5981     -1.3716   0.0083598
0.035327    0.043877   -0.031762     0.11064      1.4416     -1.1118    0.016253
0.014608    0.015266   -0.044588    0.071502      1.5787    -0.72962     0.02283
-0.0077547  -0.0061104   -0.047548    0.052099      1.8332    -0.32051    0.024145
-0.024527   -0.026171   -0.036037    0.050455      1.9895    0.039602    0.023159
-0.032091   -0.056427  -0.0064392    0.064267      1.8868     0.30204    0.019212
-0.027158    -0.10181    0.033025     0.08663      1.4761     0.45924    0.015266
-0.013674    -0.16134      0.0692    0.099456     0.82691     0.52238    0.012635
-0.0087413     -0.2281    0.087288    0.088275    0.087288     0.51284     0.01132
-0.028802    -0.29124    0.075778    0.048153    -0.57505     0.46384    0.011648
-0.070568    -0.33794    0.037958   -0.015648     -1.0489     0.45299    0.014608
-0.11891    -0.35274   -0.015976   -0.087341     -1.3222     0.54639    0.018226
-0.15575    -0.33136   -0.067609    -0.15311     -1.4426     0.73549    0.020857
-0.17022    -0.27578    -0.10674     -0.1985     -1.4571      0.9555    0.021186
-0.15509    -0.20014    -0.12812    -0.21099     -1.3716      1.1235     0.01987
-0.11497    -0.12319    -0.13009     -0.1883     -1.1851      1.1643    0.015924
-0.056427   -0.059058    -0.11628    -0.13897    -0.92069      1.0387    0.010662
0.0040845   -0.014332   -0.096549   -0.087341    -0.63786     0.75588   0.0050711
0.052428    0.016253   -0.082736   -0.063662    -0.40897     0.36452 -0.00019077
0.072818    0.039931   -0.085367   -0.082736     -0.2919   -0.063004  -0.0038083
0.061965    0.069529    -0.10937    -0.13832      -0.309    -0.45436   -0.004466
0.027434     0.10702    -0.14358    -0.20573    -0.41851    -0.74442  -0.0011774
-0.0093991      0.1478    -0.16265    -0.25737    -0.52737    -0.89438   0.0057288
-0.031104      0.1774    -0.14851    -0.27052    -0.53986    -0.89899    0.011977
-0.036366     0.18233    -0.10247    -0.23698    -0.41423    -0.78816     0.01691
-0.041957     0.15734   -0.030775    -0.16462    -0.20573    -0.62339    0.018226
-0.064978     0.10998    0.062294   -0.079119   -0.039655     -0.4902    0.015924
-0.10214    0.062952     0.17937  -0.0038083   -0.030775    -0.47409    0.010991
-0.13371    0.025132     0.30204    0.045851    -0.21593    -0.61452   0.0050711
-0.14456  -0.0090702     0.39675    0.065583    -0.54874    -0.88353 -0.00051963
-0.13371   -0.045246     0.42602    0.059005    -0.93023     -1.2311  -0.0034794
-0.11562   -0.083394     0.37834    0.034998     -1.2558     -1.6028  -0.0024928
-0.099838    -0.12121     0.27178   0.0024402     -1.4439     -1.9326  0.00079584
-0.088656     -0.1495     0.14583   -0.027816     -1.4492     -2.1559   0.0070443
-0.076159     -0.1643    0.031381   -0.051494     -1.2736     -2.2352     0.01132
-0.065635    -0.16956   -0.058071   -0.070568    -0.99074     -2.1743    0.013622
-0.07024    -0.17252    -0.13075   -0.091616    -0.70462     -2.0155    0.012964
-0.096878    -0.17844    -0.19883    -0.11529    -0.50961     -1.8113    0.010004
-0.14259    -0.18732    -0.26657    -0.13338    -0.44942     -1.5797   0.0063866
-0.19488     -0.1962    -0.32511    -0.13667    -0.51553     -1.3078   0.0047422
-0.23961    -0.19883    -0.34912    -0.11661    -0.65365    -0.98022   0.0040845
-0.25638    -0.19258    -0.31656   -0.073857    -0.79704    -0.59445      0.0054
-0.23303    -0.17909    -0.21823  -0.0093991    -0.87235    -0.17909   0.0070443
-0.17383    -0.15739   -0.067609    0.078409    -0.80164     0.23561    0.010004
-0.095233     -0.1222     0.10439     0.19746    -0.55137     0.64636    0.010991
-0.0093991   -0.066951     0.25994     0.34907     -0.1689      1.0551    0.010662
0.065254    0.010991     0.37801     0.51876     0.22212      1.4475   0.0086887
0.11886     0.10307      0.4668     0.66905     0.47371      1.7865   0.0060577
0.15306     0.20404      0.5454     0.75292     0.48851      2.0059   0.0011247
0.17148     0.30434     0.61052     0.73351     0.26521      2.0194  -0.0061104
0.18003     0.39938     0.63452     0.60295    -0.12549      1.7793   -0.011372
0.18102     0.47963     0.58848     0.39116    -0.60004      1.3344   -0.013017
0.17674     0.52764     0.46318     0.15306     -1.0825     0.85519  -0.0077547
0.1774     0.52698     0.28296   -0.049521     -1.4479     0.59078   0.0021113
0.19384       0.477    0.097812    -0.17054     -1.5505     0.73877    0.015266
0.22936      0.3905   -0.042944    -0.19817     -1.3111      1.2978    0.026776
0.2754     0.29151    -0.11135    -0.14752    -0.79342      2.0562    0.031052
0.31256     0.19845    -0.11102   -0.050836     -0.2008      2.7139    0.026119
0.32177     0.12182    -0.07583    0.045193     0.21324      3.0395    0.014937
0.29776    0.065254   -0.040313     0.10538     0.30533      2.9563   0.0014536
0.25041     0.02875   -0.030447     0.11721    0.094523      2.5285  -0.0093991
0.19351   0.0063866   -0.050507    0.084328    -0.26361       1.897   -0.013674
0.13662  -0.0080836   -0.094576    0.021514    -0.56025      1.2123   -0.012688
0.082026   -0.018278    -0.14423   -0.052481    -0.67799     0.59045   -0.007097
0.027763   -0.020581    -0.18403    -0.12253    -0.64938     0.09255 -0.00051963
-0.024856  -0.0064392    -0.20113    -0.17022    -0.54052    -0.27447   0.0047422
-0.066622    0.031381    -0.19093    -0.18041    -0.38661    -0.54282   0.0080309
-0.084381    0.082684    -0.16101    -0.14917     -0.2054    -0.73718   0.0093464
-0.073528     0.12149    -0.12812   -0.084052   0.0037556    -0.85459   0.0096753
-0.043272     0.12971    -0.10576  -0.0041372     0.26915    -0.87366   0.0086887
-0.0067681     0.10768   -0.099509    0.064925     0.62203    -0.79177   0.0067154
0.028092    0.067227    -0.11201     0.10274      1.0782    -0.64214      0.0054
0.05473     0.02283    -0.14127     0.10307      1.5935    -0.47606   0.0044134
0.0692   -0.012688    -0.17877    0.072489      2.0279      -0.333   0.0044134
0.073147   -0.031433    -0.21198    0.029736      2.2147    -0.22251   0.0034268
0.076435   -0.031104    -0.22744  -0.0034794       2.096    -0.13404   0.0021113
0.079066   -0.014332    -0.21691   -0.010715      1.7619   -0.057085   0.0011247
0.076435   0.0070443     -0.1814   0.0086887      1.4008    0.011648  0.00079584
0.064925    0.020857    -0.12812    0.037958      1.1686    0.050455   0.0014536
0.038287    0.017897   -0.067937    0.056374       1.094    0.059005   0.0024402
-0.0018351   -0.007097    -0.01499    0.041575      1.0778    0.053086   0.0047422
-0.044588   -0.049521    0.021186   -0.015648     0.99628    0.055717   0.0070443
-0.078461   -0.094905    0.040918    -0.11299     0.81178     0.08663   0.0086887
-0.090629    -0.12845    0.048482     -0.2327     0.59045     0.13169   0.0096753
-0.078461    -0.14588    0.051441    -0.34912     0.42471     0.14188   0.0093464
-0.048205    -0.15114    0.051441    -0.44844      0.3517    0.061965   0.0080309
-0.01795    -0.14621    0.039273    -0.53131     0.35038    -0.12319   0.0067154
-0.0028217    -0.13371   0.0017824    -0.59149     0.37373    -0.37214   0.0073732
-0.0067681    -0.11727   -0.066951    -0.57834     0.37143    -0.60202   0.0090175
-0.020252   -0.099838    -0.16002    -0.42805     0.30598    -0.72337    0.011648
-0.030118   -0.085039    -0.26427    -0.13634     0.18069    -0.70068    0.013293
-0.032091   -0.076159    -0.36392     0.22015    0.042891    -0.56782    0.013622
-0.032091   -0.076159    -0.45107     0.53422   -0.053467    -0.41095    0.012964
-0.040313   -0.089314    -0.52901     0.72726   -0.092603    -0.31623    0.010662
-0.058729    -0.11562    -0.59709     0.77561    -0.10641    -0.33399   0.0086887
-0.086683    -0.14522    -0.63754     0.69536    -0.14391    -0.46751   0.0083598
-0.11825    -0.16791    -0.60333     0.54112    -0.22777    -0.69147   0.0080309
-0.14391    -0.17318     -0.4537     0.37538    -0.33958     -0.9618   0.0080309
-0.15673    -0.15838    -0.20376     0.23857    -0.43989     -1.2009   0.0080309
-0.15377    -0.13075    0.070516     0.14418    -0.49448     -1.3393   0.0086887
-0.13996    -0.10181     0.27211    0.083342    -0.49382     -1.3324     0.01132
-0.11858   -0.080106     0.34019    0.038616    -0.45666     -1.1841    0.013293
-0.09326    -0.07024     0.27935 -0.00051963     -0.4218     -0.9572    0.014608
-0.07024   -0.070897     0.14747   -0.033078    -0.41818    -0.73718    0.013293
-0.059716   -0.075173    0.022501   -0.054125    -0.44778    -0.61254    0.010991
-0.062018   -0.074844   -0.035708   -0.064649    -0.47771    -0.64773   0.0077021
-0.072542   -0.070897 -0.00051963    -0.06728    -0.47771    -0.83814   0.0037556
-0.077146    -0.06136     0.11458   -0.063004    -0.43495     -1.1095    0.002769
-0.068595   -0.043601     0.27704    -0.04985    -0.34616     -1.3532      0.0054
-0.047877   -0.019923     0.45102   -0.027158    -0.21987     -1.4692   0.0090175
-0.018607   0.0044134     0.60887  -0.0031506   -0.098522     -1.4127    0.011977
0.0057288    0.023159     0.73187   0.0096753   -0.046561      -1.189    0.013951
0.020199    0.036971     0.81704   0.0073732   -0.098522    -0.83486    0.014608
0.028421    0.050455     0.86605  -0.0008485    -0.22875    -0.40766    0.013622
0.034669    0.065912     0.88282  -0.0018351    -0.37576    0.027105    0.012635
0.0373    0.080382     0.86309   0.0080309    -0.47277      0.4155    0.010662
0.02875    0.090905     0.79041    0.021514    -0.47836     0.73746   0.0096753
0.0040845    0.098469     0.64866    0.014937    -0.40601     0.98378   0.0093464
-0.034393     0.10439      0.4372   -0.034722    -0.30834      1.1354   0.0063866
-0.080106     0.10965     0.17542    -0.13338    -0.24059      1.1383   0.0044134
-0.1268     0.10735    -0.10148    -0.26592    -0.24783     0.93774 -0.00019077
-0.1735    0.095181    -0.34156    -0.39385    -0.34616      0.5408  -0.0034794
-0.20639    0.074462    -0.50007    -0.47869    -0.51257    0.016581  -0.0041372
-0.20902    0.052757    -0.55039    -0.49349    -0.71318    -0.53263  -0.0024928
-0.18107    0.034998    -0.50106    -0.43134    -0.87268    -0.97068   0.0014536
-0.13634    0.018884     -0.3899    -0.30735    -0.85919      -1.145   0.0083598
-0.089972   0.0050711       -0.26     -0.1564    -0.53559    -0.95555    0.014937
-0.038668  -0.0057815     -0.1495   -0.018607       0.133    -0.44186    0.018555
0.022172   -0.011043    -0.07583    0.076106     0.98411     0.22245    0.016581
0.087617  -0.0057815   -0.038997     0.11327      1.7313     0.83908     0.01132
0.1455    0.012964   -0.034064     0.10011      2.1345      1.3051    0.002769
0.18759    0.040918   -0.048534    0.056374      2.1138      1.6313  -0.0034794
0.21588    0.070845   -0.073199 -0.00019077      1.7642      1.8668  -0.0061104
0.23857     0.10307    -0.09918   -0.059716      1.2758      2.0473  -0.0047949
0.26882     0.14155     -0.1222    -0.11497      0.8325      2.1786  -0.0018351
0.31059      0.1843    -0.13897    -0.16758      0.5408      2.2259   0.0011247
0.35268     0.21752    -0.14785     -0.2156     0.41879      2.1325   0.0011247
0.36979     0.22048    -0.15081    -0.24651     0.42175      1.8747   0.0001381
0.34117     0.17871     -0.1495    -0.24914     0.47568      1.4748  -0.0015062
0.26586     0.10011    -0.14752    -0.22349     0.50922     0.98411  -0.0031506
0.16161   0.0070443    -0.14489    -0.18337     0.47108     0.46812  -0.0031506
0.057361   -0.077146    -0.14029    -0.14588     0.34611   -0.013345  -0.0018351
-0.027158    -0.13437    -0.13009    -0.12483      0.1455    -0.44515 -0.00019077
-0.079448    -0.16528    -0.12023    -0.11299    -0.10082    -0.85755   0.0011247
-0.10411    -0.17909    -0.11529   -0.087998     -0.3307     -1.2561    0.002769
-0.11233    -0.18863    -0.11694    -0.03242    -0.47902     -1.5863   0.0044134
-0.11858    -0.19652    -0.12286    0.058019    -0.50336     -1.7656   0.0073732
-0.12286    -0.19751    -0.12779     0.17115    -0.38858     -1.7284    0.010004
-0.11825      -0.186    -0.12352     0.28329    -0.13272      -1.464    0.012964
-0.097207    -0.15673    -0.10839     0.37603     0.26521       -1.02    0.014279
-0.063333     -0.1074   -0.087341     0.44279     0.78087    -0.49448    0.013293
-0.028802   -0.039655   -0.066622     0.47765      1.2906   -0.030775   0.0093464
-0.0034794    0.034669   -0.053796     0.46943      1.5744     0.23396    0.002769
0.0054    0.099456   -0.056098     0.41089      1.4343     0.23659  -0.0041372
0.0017824     0.14254   -0.073528      0.3073     0.83119    0.026119  -0.0080836
-0.0090702     0.15076    -0.10214      0.1751    -0.07024     -0.2669  -0.0097279
-0.024198     0.12807      -0.137    0.035985    -0.98646     -0.5027  -0.0064392
-0.039655    0.082355    -0.17219   -0.086025     -1.6935    -0.59182   0.0014536
-0.053467    0.031052    -0.19784    -0.17613     -2.0753    -0.49974    0.010333
-0.068595  -0.0074258     -0.2054     -0.2281     -2.1053    -0.25112    0.017568
-0.086025     -0.0265    -0.19356     -0.2475     -1.8902     0.10307    0.021514
-0.10576   -0.029131    -0.16791    -0.24947     -1.6373     0.49212    0.020199
-0.1268   -0.025842    -0.14062    -0.23928     -1.5104     0.84204    0.016253
-0.14095   -0.025185    -0.11661    -0.21297     -1.5271      1.1058    0.010662
-0.13897   -0.031762   -0.095891     -0.1735     -1.5824      1.2732   0.0063866
-0.12319   -0.047877   -0.077803    -0.13009     -1.5294      1.3515   0.0047422
-0.10773   -0.065635   -0.063991   -0.094247     -1.2568      1.3311   0.0040845
-0.10576    -0.07583   -0.055769   -0.072213    -0.76514      1.1989      0.0054
-0.11168   -0.074186   -0.047548   -0.051494    -0.16068     0.96767   0.0060577
-0.11135   -0.065307   -0.032749  -0.0077547     0.41912     0.68221   0.0060577
-0.094905   -0.052481  -0.0087413    0.073804     0.91538     0.39938   0.0044134
-0.053138   -0.031433    0.029407     0.19647      1.3676     0.16687   0.0047422
0.010004  0.00079584    0.079724     0.34084      1.8365 -0.00051963   0.0070443
0.076106    0.038944     0.13037     0.47173      2.3124    -0.12253   0.0093464
0.13037    0.074133      0.1649     0.54474      2.6942    -0.22218    0.010991
0.16391     0.10439     0.17641     0.53422      2.8465     -0.3011    0.012964
0.18003     0.13793     0.16556     0.44345      2.6771    -0.32741    0.014937
0.18595     0.18299     0.14254      0.3027      2.1825    -0.29091    0.016581
0.19285     0.23955     0.12478     0.15175       1.482    -0.22316    0.017239
0.19779     0.29217     0.11985    0.027105     0.80323    -0.17778    0.016253
0.20436     0.32177     0.12708   -0.053138     0.37472    -0.18337    0.014279
0.21061     0.31947     0.13826   -0.087998     0.29612    -0.22086    0.013622
0.20996     0.28855     0.14583   -0.077803     0.49739    -0.19883    0.013622
0.20075     0.24383      0.1478  -0.0087413     0.77495   -0.030118    0.015595
0.18792     0.19647     0.14616     0.12445     0.89992     0.26422    0.017239
0.17707     0.15339     0.14122     0.29546     0.73187      0.5454    0.014608
0.16589     0.11721     0.13234     0.45628     0.27869     0.66577   0.0090175
0.14681    0.085644     0.11623     0.55757    -0.32939     0.58552   0.0034268
0.11754    0.059334    0.091563     0.56612    -0.92201     0.37307   0.0014536
0.080382    0.033683    0.059334     0.47897     -1.3755      0.1478   0.0050711
0.0373   0.0060577    0.023159      0.3244     -1.6534    0.019212    0.011648
-0.0061104   -0.021238  -0.0061104     0.14813     -1.7708    0.055388    0.019541
-0.040641   -0.042944   -0.020909  -0.0090702     -1.7593     0.28724    0.025461
-0.058729   -0.049521   -0.017621    -0.12286     -1.6373     0.69109    0.028092
-0.056756   -0.041628   0.0024402    -0.18863     -1.4068      1.1726    0.026119
-0.044917   -0.027158    0.026447    -0.21527     -1.0591      1.6011     0.01987
-0.035051   -0.016634    0.041575    -0.20968    -0.59511      1.8523    0.010333
-0.035708    -0.01795    0.037958    -0.18403   -0.053467      1.8464  0.00079584
-0.052152   -0.035708    0.016581    -0.14884     0.48555      1.5863  -0.0074258
-0.083065   -0.066293    -0.01499    -0.11858      0.9282       1.162   -0.011372
-0.11957    -0.10247   -0.045574     -0.1097      1.2123     0.68287   -0.011372
-0.1495    -0.13634   -0.069582    -0.13108       1.336     0.22771  -0.0087413
-0.16397    -0.15772   -0.083065    -0.17252      1.3406    -0.15443  -0.0047949
-0.15739     -0.1587   -0.085696    -0.21132      1.2692    -0.44416 -0.00051963
-0.13536    -0.13897   -0.077803     -0.2327       1.137    -0.63096   0.0040845
-0.10905    -0.10313   -0.060702    -0.22941     0.92722    -0.72008   0.0070443
-0.08471   -0.062347   -0.038668    -0.21001     0.62893    -0.72995   0.0077021
-0.064978   -0.028473   -0.019594     -0.1837     0.26488    -0.68884   0.0083598
-0.048863  -0.0077547  -0.0067681    -0.16035   -0.089314     -0.6303   0.0070443
-0.038997   0.0050711   0.0021113    -0.13864    -0.35307    -0.58821   0.0034268
-0.035051    0.013951    0.015266    -0.11135    -0.49941    -0.57966   0.0024402
-0.034393    0.019541    0.035656   -0.080106    -0.55663    -0.58623   0.0021113
-0.034064     0.02579    0.062952   -0.057085    -0.56584    -0.56913   0.0024402
-0.03242    0.032038    0.090577   -0.047548    -0.55729    -0.52638   0.0024402
-0.030447    0.035985     0.10801   -0.053796    -0.55269    -0.48757   0.0011247
-0.03242    0.032367     0.10768   -0.095562    -0.58426    -0.49218 -0.00019077
-0.036695    0.016581    0.090577    -0.18469    -0.67832    -0.56255  -0.0015062
-0.045903   -0.011372    0.059005    -0.29617    -0.83946    -0.70298  -0.0038083
-0.06136   -0.046232    0.029078    -0.36819      -1.044    -0.89668   -0.004466
-0.074186   -0.079448    0.012306    -0.35175     -1.2482     -1.1164  -0.0031506
-0.07879    -0.10313    0.013293    -0.23862       -1.41     -1.3423  -0.0024928
-0.076159    -0.11102    0.029407   -0.071226     -1.5153     -1.5653 -0.00051963
-0.066622    -0.10378    0.052099    0.087288     -1.5857     -1.7665   0.0001381
-0.047219   -0.084381      0.0692     0.18957      -1.635     -1.9139   0.0021113
-0.022554   -0.055112    0.078409     0.22377     -1.6475     -1.9665   0.0037556
0.0017824   -0.022225    0.080382     0.21324     -1.5942     -1.8971   0.0057288
0.019541   0.0030979    0.070516     0.18924     -1.4492     -1.7208   0.0070443
0.021514    0.011648     0.04322     0.16918     -1.2137     -1.4923   0.0057288
0.0070443   0.0034268   0.0014536     0.15306     -0.9276     -1.2769   0.0021113
-0.020252   -0.013674   -0.044917     0.12642    -0.65266     -1.1088  -0.0008485
-0.054783   -0.035051   -0.086683    0.070187     -0.4537    -0.97265  -0.0034794
-0.086683   -0.056098     -0.1176   -0.024527     -0.3705    -0.83025  -0.0038083
-0.10477   -0.078461    -0.13766    -0.14226    -0.41128    -0.68193   -0.002164
-0.10576   -0.099509    -0.15311    -0.25112    -0.55039    -0.60037 -0.00019077
-0.093589    -0.11628    -0.16956    -0.32084    -0.73948    -0.65168   0.0011247
-0.076159    -0.13207    -0.18896    -0.34353    -0.91938    -0.82992   0.0014536
-0.063333    -0.14917    -0.21264    -0.32774     -1.0447     -1.0815   0.0017824
-0.06136     -0.1735    -0.24125    -0.29354     -1.0878     -1.3469   0.0024402
-0.067937    -0.20277    -0.27611    -0.25901     -1.0532     -1.5705   0.0030979
-0.083394    -0.22908    -0.31163    -0.23237    -0.95424     -1.6699   0.0067154
-0.10247    -0.24289    -0.33465    -0.21099    -0.79835     -1.5561    0.011648
-0.11957    -0.23533    -0.31557    -0.18403    -0.58426     -1.1923    0.017568
-0.12976    -0.20442    -0.22349    -0.14654    -0.34616    -0.63556    0.022172
-0.13601    -0.15344   -0.055112     -0.1074     -0.1666   -0.028473    0.022501
-0.14522    -0.09326     0.15438   -0.081092     -0.1222     0.47831    0.019212
-0.16035   -0.036037     0.34282   -0.075501    -0.19455     0.84105    0.014937
-0.1735    0.012964      0.4543   -0.079777    -0.27282      1.1719    0.013293
-0.16956    0.053086     0.47108   -0.076159     -0.2281      1.6346    0.015266
-0.14193    0.081039     0.41089   -0.053467   -0.012359      2.2953    0.017568
-0.094247    0.093208     0.31322  -0.0054526     0.33262      3.0829    0.016253
-0.037682    0.084328     0.21489    0.059663     0.70523      3.8311   0.0083598
0.01691    0.058348     0.13892     0.12511      1.0032      4.3504  -0.0008485
0.06065    0.023817    0.095181     0.17444      1.1673      4.4865  -0.0067681
0.094852  -0.0057815    0.079724     0.20667      1.1785      4.1619  -0.0077547
0.12741   -0.017292    0.085972     0.23561      1.0736      3.4371  -0.0061104
0.17181   0.0060577     0.10834     0.27112     0.95188      2.5015 -0.00019077
0.23166    0.082026     0.14451     0.32276     0.93346      1.5981   0.0077021
0.305     0.21292     0.18628     0.38524      1.1219     0.94892    0.017239
0.37899     0.37998     0.22278     0.45134      1.5557     0.64866    0.024803
0.44115     0.54376     0.24547      0.5112      2.1539     0.59736    0.028092
0.47502     0.64801     0.24416     0.55264      2.7126      0.5898    0.024803
0.47075      0.6559     0.22081     0.56678      3.0096     0.46845    0.017239
0.42438     0.56645     0.18365     0.54737      2.9159     0.19088   0.0093464
0.34644     0.41846     0.14188     0.49081      2.4486    -0.18896   0.0030979
0.24876     0.26882      0.1034     0.40826      1.7507    -0.57045   0.0021113
0.13629     0.16326    0.072818     0.31519      1.0117    -0.86413      0.0054
0.016581     0.11656    0.047824     0.22903     0.40136     -1.0295    0.010662
-0.094247      0.1057    0.029407     0.15668     0.01691     -1.0828    0.013293
-0.17581    0.084986    0.014937     0.10077    -0.14029     -1.0641   0.0096753
-0.22218    0.018226   0.0040845    0.058676    -0.14127     -1.0098   0.0040845
-0.23566     -0.1005  -0.0018351    0.026119   -0.077475    -0.93681   0.0017824
-0.22908     -0.2452   -0.007097   0.0011247   -0.026829      -0.849      0.0054
-0.20968     -0.3728   -0.020581    -0.01795    -0.03538    -0.76547     0.01132
-0.18074    -0.43989   -0.040313    -0.03538     -0.1074    -0.74409    0.015595
-0.14588    -0.42903   -0.059716   -0.057743    -0.21067    -0.82992     0.01691
-0.1028    -0.35438    -0.07287    -0.08175    -0.30637     -1.0105    0.015924
-0.054454     -0.2475   -0.077146    -0.10247    -0.36754     -1.2328    0.012964
-0.0090702    -0.14325   -0.075501    -0.11398    -0.38595     -1.4373    0.010333
0.030065   -0.062018   -0.072542    -0.10707    -0.36556     -1.5653   0.0093464
0.062952   -0.011043    -0.07287   -0.078461    -0.31952     -1.5742    0.010004
0.08959    0.020857   -0.077146   -0.051165    -0.26559     -1.4492    0.010991
0.10636    0.053086   -0.087998   -0.053138    -0.21922     -1.1973    0.012635
0.1136    0.093208    -0.10444   -0.086354    -0.20014    -0.84242    0.013622
0.10899     0.12971    -0.12286    -0.13042    -0.22251    -0.44646    0.013622
0.084657     0.14352    -0.14292    -0.16791    -0.28302    -0.12746    0.011648
0.039602     0.12577    -0.16035    -0.19225    -0.35931    0.018226   0.0070443
-0.01795     0.07808    -0.17252     -0.1985    -0.40503  -0.0077547  -0.0015062
-0.065307    0.015266    -0.17482    -0.18666    -0.38168     -0.1028  -0.0087413
-0.088327   -0.040641    -0.16627    -0.16265    -0.27808     -0.1176   -0.010386
-0.084381   -0.073857     -0.1518    -0.13601   -0.097864    0.062952  -0.0034794
-0.06136   -0.083394    -0.14259    -0.11957     0.14056     0.44641   0.0067154
-0.031433   -0.077803    -0.14127    -0.12056     0.40267      0.9236    0.014279
-0.0067681   -0.066293    -0.14226     -0.1347     0.63452      1.3518    0.016581
0.01132   -0.056427    -0.13799    -0.14983     0.79501        1.63    0.014937
0.028421   -0.051165    -0.12878    -0.15969     0.84566      1.7415    0.010004
0.041575   -0.051165    -0.12483    -0.16364     0.75884       1.726      0.0054
0.042891   -0.053796    -0.13075    -0.16758     0.54145      1.6517   0.0034268
0.030065     -0.0584    -0.14423    -0.18008     0.21522      1.5909   0.0034268
0.0014536   -0.058071    -0.16232    -0.20639    -0.18666      1.6113   0.0060577
-0.038668   -0.050507    -0.18205     -0.2373    -0.59643      1.7257    0.010662
-0.07583   -0.039984    -0.19718    -0.26263    -0.91576      1.8589    0.014279
-0.095891   -0.033735    -0.20409    -0.27611     -1.0802      1.8849    0.014937
-0.091945   -0.039984    -0.20179    -0.26986     -1.1183      1.7165    0.013293
-0.065635   -0.057743    -0.19258    -0.23698     -1.1279      1.3544   0.0086887
-0.021896   -0.074186    -0.17285    -0.17778     -1.2134     0.88545 -0.00051963
0.023159    -0.07879    -0.14095     -0.1028     -1.4324     0.42602   -0.013345
0.050126   -0.065307   -0.099509   -0.033078     -1.7583    0.082026   -0.022554
0.04618   -0.036037   -0.056756   0.0096753     -2.0418   -0.071226   -0.020581
0.0080309   0.0057288   -0.023211    0.014937     -2.0332   -0.030775  -0.0080836
-0.057743    0.050126  -0.0054526   -0.014332     -1.5314      0.1113   0.0063866
-0.1347     0.08367  -0.0054526   -0.072542    -0.58097     0.20305    0.017239
-0.20738     0.10307   -0.018607    -0.13897     0.50232    0.087288    0.018555
-0.25572     0.11491   -0.035708     -0.1837      1.3492    -0.32413    0.011648
-0.26493     0.11919   -0.042944    -0.17844        1.78    -0.98646   0.0024402
-0.23138     0.10932   -0.038668    -0.11135      1.7842     -1.7478  -0.0034794
-0.16627    0.085315   -0.032091   0.0060577      1.4633     -2.4006  -0.0034794
-0.085039    0.058019   -0.023869     0.14747     0.96043     -2.7679   0.0044134
-0.002164    0.048482  -0.0067681     0.29119     0.40464      -2.766    0.014608
0.07808    0.069529    0.027763     0.42372   -0.089314     -2.4341    0.023159
0.15701     0.13103    0.081368     0.54014     -0.4047     -1.8938    0.030065
0.23692     0.22903     0.14912     0.62893    -0.48231     -1.2989    0.031381
0.31026      0.3415     0.21259     0.67267      -0.358    -0.78487    0.029078
0.36123     0.44181     0.25337     0.65623    -0.15246    -0.43726    0.023817
0.37505     0.51514     0.26619     0.58158    0.013951     -0.2794     0.01691
0.35137     0.55198     0.25369     0.47371     0.11162    -0.28302    0.010004
0.30335     0.54277       0.231     0.37373     0.19812     -0.3968      0.0054
0.25074     0.48818     0.21061     0.31454     0.32374    -0.53855   0.0037556
0.2116     0.40267     0.19877      0.3119      0.4668    -0.59741      0.0054
0.19154     0.30631      0.1843      0.3494     0.55329    -0.47179    0.011977
0.18134      0.2116     0.15832     0.38458     0.50331    -0.13799    0.018226
0.16556     0.11491     0.11491     0.37735     0.27902     0.32407    0.021186
0.13563   0.0070443    0.062294     0.30533   -0.077146     0.76607    0.020199
0.093536    -0.10872    0.012635     0.17707    -0.46718      1.0426    0.015924
0.049139    -0.21659   -0.024527    0.030065     -0.7875      1.0739    0.010991
0.015924    -0.29913   -0.037353   -0.095233    -0.95983     0.89071   0.0093464
0.0034268    -0.34583    -0.02354    -0.16923    -0.95555     0.60197    0.010662
0.014608     -0.3557     0.01132    -0.18896    -0.78586     0.31486    0.013951
0.041247    -0.33596    0.052428    -0.17219    -0.49415    0.086959    0.016581
0.072818    -0.30439    0.083013    -0.13634    -0.14292   -0.082408     0.01691
0.097483    -0.27381     0.09255   -0.087669     0.18661    -0.21593    0.013951
0.097812    -0.25934    0.084986   -0.037353     0.42043    -0.33596    0.010004
0.063938    -0.26822    0.066569  -0.0067681     0.53619    -0.44778   0.0070443
0.0073732    -0.29551    0.043877   -0.012688     0.54737    -0.54085   0.0044134
-0.054454    -0.33037    0.018884   -0.053138     0.46483    -0.60827   0.0044134
-0.10641    -0.35668  -0.0077547    -0.10576     0.30204    -0.64642   0.0060577
-0.14621    -0.36754   -0.029789    -0.14818     0.16128    -0.67437   0.0063866
-0.17712    -0.36786   -0.041957    -0.16265     0.22706    -0.73784   0.0060577
-0.20475    -0.36655   -0.040641    -0.14917     0.60624    -0.85853   0.0070443
-0.22744    -0.36622   -0.028802    -0.11891      1.1857     -0.9914   0.0080309
-0.23566    -0.35635   -0.014661   -0.094576      1.7007     -1.0598   0.0090175
-0.22316    -0.31722  -0.0057815   -0.083723      1.9168      -0.996    0.010991
-0.18699    -0.23796  -0.0028217    -0.08175      1.7461    -0.77566    0.013293
-0.12878    -0.11858  -0.0038083   -0.077146      1.2419    -0.43561    0.014279
-0.053796    0.024145  -0.0011774   -0.062676     0.54178   -0.062676    0.013293
0.026776     0.15898   0.0011247   -0.047219      -0.186     0.24482   0.0096753
0.10373     0.25797  -0.0057815   -0.046561    -0.78421      0.4395   0.0060577
0.17082     0.29908    -0.02946    -0.06432     -1.1423     0.54014   0.0034268
0.22771     0.27639   -0.065635   -0.094247     -1.2272     0.61019   0.0034268
0.27935     0.20371    -0.10477    -0.12154      -1.093     0.70819   0.0044134
0.32473     0.11853    -0.13338    -0.13536    -0.84505     0.86769   0.0067154
0.35367     0.05769    -0.13963    -0.13864    -0.58196      1.0627   0.0067154
0.35038    0.046508    -0.11924    -0.14062    -0.37346      1.2176   0.0037556
0.29941    0.083013   -0.089314    -0.15246    -0.25473      1.2505  -0.0015062
0.18726     0.14385   -0.073199    -0.18074    -0.22941      1.1321  -0.0067681
0.017239     0.18693   -0.087341    -0.22053    -0.27447     0.89531   -0.010057
-0.19718     0.16622    -0.12976    -0.26263    -0.36786     0.61578  -0.0097279
-0.42509    0.059992    -0.17975     -0.2965    -0.48132     0.36255   -0.007097
-0.62537    -0.12056    -0.21428    -0.31557    -0.56157     0.18332  -0.0031506
-0.76349    -0.33958    -0.22645    -0.31656    -0.54808     0.09551  0.00079584
-0.82302    -0.56124    -0.21987     -0.2988    -0.43528    0.089919    0.002769
-0.8069    -0.75494    -0.20047    -0.26328    -0.27151      0.1432   0.0040845
-0.72863     -0.8878    -0.15838    -0.20738    -0.12944     0.22771   0.0037556
-0.60761    -0.92464   -0.079119    -0.13272   -0.082408      0.3221    0.002769
-0.47343    -0.83749    0.032367   -0.048205    -0.16002     0.41155   0.0014536
-0.34156    -0.61616     0.15076    0.028421    -0.32084     0.48555 -0.00051963
-0.21067    -0.28762     0.24482    0.085644    -0.47212     0.53389  -0.0015062
-0.074186     0.10834     0.29447     0.11985    -0.53394     0.54573  -0.0018351
0.070516     0.51745     0.29875     0.12971    -0.49119     0.50298   -0.002164
0.21324     0.87098     0.27014     0.11721     -0.3797     0.37998  -0.0041372
0.32966      1.1015     0.21686    0.087288    -0.22349     0.17904  -0.0084125
0.39313      1.1702     0.14912    0.048482  -0.0093991    -0.06432   -0.011372
0.39017      1.0742     0.07808   0.0073732     0.25994    -0.29716   -0.012359
0.32506     0.85158    0.013293   -0.028802     0.56217    -0.46554   -0.010386
0.2139     0.56447   -0.038668   -0.053796     0.91538    -0.53789  -0.0051238
0.089919      0.2925    -0.08175   -0.066951      1.3238    -0.52408 -0.00019077
-0.012359    0.098798     -0.1268   -0.073528      1.6698    -0.46554   0.0030979
-0.074515  -0.0011774    -0.18041   -0.077803      1.7681     -0.4389   0.0034268
-0.10641   -0.035708    -0.24191   -0.085039       1.506    -0.54052 -0.00051963
-0.12713   -0.050836    -0.30439   -0.099509      0.9259    -0.83223  -0.0051238
-0.15903   -0.079777    -0.35833    -0.12648     0.20502     -1.2778  -0.0087413
-0.20639    -0.12845    -0.39648    -0.16232    -0.44054     -1.7494  -0.0077547
-0.25671    -0.16758    -0.41029    -0.19488    -0.86478     -2.0915  -0.0018351
-0.29321    -0.16495    -0.39385    -0.20869     -1.0342     -2.1858   0.0080309
-0.30308     -0.1028    -0.34912    -0.18732    -0.98219     -1.9819     0.01691
-0.29025   0.0063866    -0.28039    -0.13108     -0.7773     -1.4972    0.022172
-0.25901     0.12281    -0.21067   -0.053796    -0.49185    -0.80394    0.024145
-0.21198     0.20634    -0.15246     0.01987    -0.18074   -0.030775    0.021843
-0.15575     0.23166    -0.10576    0.067227     0.12741     0.68188    0.014608
-0.10017     0.18858   -0.060373    0.086301     0.41846      1.2416   0.0060577
-0.056098    0.093865   -0.011701    0.083999     0.68254      1.6103  -0.0008485
-0.027816   -0.026829    0.035985    0.070187     0.89268      1.8013  -0.0047949
-0.017621    -0.15213    0.087617    0.055717      1.0318      1.8951  -0.0038083
-0.01203    -0.26657     0.15997    0.056703      1.1206      1.9832  0.00079584
0.0017824     -0.3478     0.27014    0.088275      1.2104      2.1078   0.0067154
0.030723    -0.37674     0.40892     0.15372      1.3031      2.2246   0.0093464
0.080053    -0.34353     0.54178      0.2435      1.3429       2.246    0.010004
0.16227    -0.25243     0.62334     0.33756       1.261      2.1118   0.0080309
0.28033    -0.12121     0.63419     0.41254       1.015      1.8207   0.0040845
0.41813    0.021843     0.58026       0.452     0.59868      1.4024  0.00046697
0.54737      0.1501     0.48555     0.45036    0.046837     0.89992  -0.0031506
0.6388     0.25665     0.37899     0.41221     -0.5619     0.39017  -0.0024928
0.66873     0.33493     0.28691     0.34972     -1.1213   -0.031433   0.0014536
0.63419     0.37538     0.23035     0.28066     -1.5488    -0.30209   0.0080309
0.55362     0.37209     0.21719     0.21818     -1.8044     -0.4218    0.014279
0.45069     0.32802     0.23495      0.1695     -1.8728    -0.46093    0.017897
0.34578     0.25633     0.25797     0.13859     -1.7517    -0.50895    0.015924
0.24613      0.1695     0.25961     0.12478     -1.4515    -0.60432    0.012306
0.15372    0.084328     0.23528     0.13004    -0.99567    -0.71646   0.0083598
0.071502    0.012964     0.20042     0.15799    -0.41029    -0.78783   0.0050711
0.0073732   -0.038011     0.16589      0.2014     0.23988    -0.78421      0.0054
-0.036366   -0.078132     0.12807     0.23331     0.82592    -0.71449   0.0070443
-0.063662    -0.11562    0.077751     0.22706      1.1985    -0.61287   0.0073732
-0.080763     -0.1495    0.011648     0.16753      1.2475    -0.52769   0.0060577
-0.10017    -0.17186   -0.062676    0.063281     0.96208    -0.51454   0.0037556
-0.12944    -0.17153    -0.13207   -0.059716     0.45957    -0.60991   0.0017824
-0.16758    -0.14193    -0.18666    -0.17252   -0.073528    -0.82499 -0.00019077
-0.20771   -0.089972    -0.22481    -0.25013    -0.48823     -1.1164  0.00046697
-0.24487   -0.028473    -0.24289    -0.28203    -0.74409     -1.3722    0.002769
-0.27315    0.022172    -0.24914    -0.28236     -0.8832     -1.4393   0.0090175
-0.28729    0.047495    -0.24717    -0.27249    -0.95818      -1.142    0.018555
-0.27973    0.044864    -0.24322    -0.26657    -0.97693    -0.37543    0.029407
-0.2498    0.020528    -0.24059     -0.2669    -0.93253     0.77035    0.036971
-0.20047   -0.010386     -0.2373    -0.26394    -0.83716      2.0177      0.0373
-0.13897   -0.036366    -0.22974    -0.24816    -0.70956      3.0921    0.030723
-0.073199   -0.051165    -0.21922    -0.21626    -0.53263      3.8127    0.018226
-0.012359     -0.0584    -0.20508    -0.17285     -0.2202      4.1182   0.0057288
0.042562   -0.063333    -0.18896     -0.1199     0.33098       4.038  -0.0051238
0.088275   -0.073528    -0.17054   -0.062347      1.1078      3.6917   -0.010386
0.12544   -0.091287    -0.15377  -0.0064392      1.9395      3.2385   -0.011701
0.14747    -0.10839     -0.1393    0.044864      2.5972      2.7777   -0.011043
0.14879    -0.11529    -0.12483    0.093865      2.9057      2.3298  -0.0097279
0.13234     -0.1028    -0.10937     0.14681      2.7958      1.8655   -0.010057
0.11097   -0.066293   -0.087998     0.21028      2.3298      1.3344  -0.0090702
0.10373   -0.010386   -0.051494     0.28757      1.6793     0.71575  -0.0074258
0.12281    0.055388   0.0040845     0.37998      1.0423    0.060979   -0.004466
0.16161     0.11426    0.072489     0.47634     0.56513    -0.53361 -0.00051963
0.20601     0.14714     0.13892     0.56349     0.29743     -1.0082    0.002769
0.2435     0.14221     0.19088      0.6263     0.18397     -1.3538   0.0044134
0.26882    0.099456     0.22212     0.64998    0.099456     -1.6232   0.0034268
0.28033    0.030065      0.2287     0.62531    -0.10214     -1.9336  0.00079584
0.27343   -0.054783     0.20963     0.56119    -0.50106     -2.3772  -0.0051238
0.25008    -0.14423     0.17411     0.47404     -1.0667      -2.912  -0.0077547
0.21555    -0.21363     0.13201     0.38162     -1.6551        -3.4  -0.0064392
0.17707     -0.2373    0.093536     0.29842     -2.0767     -3.7009  -0.0008485
0.14451    -0.20803    0.064925     0.23495     -2.1707     -3.7361   0.0070443
0.12215    -0.14062    0.046508     0.19121     -1.8741     -3.5273    0.013293
0.11162   -0.065307    0.035656     0.16293     -1.2706     -3.1777    0.015924
0.10801   -0.013345    0.025132     0.14254    -0.56124     -2.8248    0.014608
0.10965   0.0070443    0.010333     0.12017    0.023159     -2.5548   0.0093464
0.11393   0.0086887  -0.0018351    0.088603     0.33394       -2.37   0.0037556
0.11919    0.019541  -0.0015062    0.040918     0.36288     -2.2171   0.0011247
0.12511    0.064925    0.022501   -0.019594     0.20075     -2.0332   0.0011247
0.13103      0.1524    0.064596   -0.082736   -0.033078     -1.7748   0.0037556
0.13169     0.25501     0.10801    -0.14292    -0.25704      -1.438   0.0083598
0.12445     0.32868     0.13037    -0.19981    -0.43791     -1.0503    0.010333
0.10965     0.33953     0.11491    -0.25671      -0.579    -0.63425    0.010991
0.091234     0.28954     0.06624    -0.31426    -0.68917    -0.20179    0.010333
0.076106     0.21752    0.002769    -0.36786    -0.77007     0.21752   0.0093464
0.06361      0.1751   -0.056427    -0.41456    -0.82861     0.56119   0.0080309
0.056046     0.19417    -0.09918    -0.45041    -0.87991     0.77692   0.0063866
0.048153     0.25929    -0.13667    -0.47738    -0.93286     0.83645   0.0037556
0.031052     0.31914    -0.17909    -0.49612     -0.9937     0.73812 -0.00051963
-0.0057815     0.32243    -0.22678    -0.50303     -1.0585     0.51186  -0.0051238
-0.059716     0.25896    -0.27085    -0.49316     -1.1177     0.21719  -0.0067681
-0.11891     0.16063    -0.29617    -0.46258     -1.1512   -0.079119  -0.0041372
-0.17219     0.07512    -0.29782    -0.41489     -1.1525    -0.31853  0.00046697
-0.21363    0.038616     -0.2794    -0.35767     -1.1223    -0.46784   0.0070443
-0.24257    0.059334    -0.24355    -0.29518     -1.0808    -0.50829    0.011648
-0.26526     0.11656    -0.19324    -0.22941     -1.0565    -0.42903    0.015595
-0.28565     0.17773    -0.13536    -0.17252     -1.0703    -0.24585    0.015595
-0.2965     0.21818   -0.081092    -0.13963     -1.1072    0.021514    0.016253
-0.28795     0.22607   -0.043601    -0.13733     -1.1114     0.36683    0.017897
-0.26032     0.19845   -0.032749     -0.1587     -1.0128     0.75094    0.019212
-0.22645     0.14188   -0.041957    -0.18929    -0.77303      1.0999    0.020199
-0.19291      0.0692   -0.058729    -0.20803     -0.3945      1.3445    0.020199
-0.1643   -0.011701   -0.066951    -0.20113    0.070845      1.4511     0.01691
-0.14193   -0.094576   -0.056756    -0.16956     0.53849      1.4156    0.011648
-0.12483    -0.17613   -0.029131    -0.12582     0.91176      1.2706   0.0070443
-0.11398    -0.25112  0.00079584   -0.081421      1.1259      1.0732   0.0044134
-0.10444    -0.31196    0.017897   -0.042286      1.1679     0.87328   0.0037556
-0.097864    -0.35274    0.015924   -0.012359      1.0775     0.68583   0.0050711
-0.098522    -0.36918  -0.0064392   0.0077021     0.92623     0.50429   0.0073732
-0.1097    -0.36129   -0.048534    0.022501     0.77791     0.31322    0.010333
-0.12352    -0.33399    -0.10905    0.033025     0.65886     0.11327    0.012635
-0.13108    -0.29814    -0.17942    0.039931     0.56645   -0.091616    0.015595
-0.12944     -0.2646    -0.25243    0.037958      0.4839    -0.29387    0.016253
-0.12352    -0.23665    -0.31163    0.022501     0.39313    -0.48363    0.014937
-0.1245    -0.21264    -0.33629  -0.0031506     0.28757    -0.65003    0.013293
-0.13766    -0.19093    -0.31229   -0.032091     0.18233    -0.78125    0.013293
-0.15936    -0.17318    -0.23796   -0.053467    0.099785    -0.85853    0.013951
-0.18008    -0.15805    -0.13503   -0.062018    0.047824     -0.8661    0.015924
-0.19554    -0.14818   -0.030775   -0.057414    0.013951    -0.80493    0.015924
-0.21165    -0.13667    0.055388   -0.043272     -0.0265    -0.69805    0.014937
-0.2304    -0.11793     0.12083   -0.024856   -0.087341    -0.58097    0.012964
-0.24947   -0.092603     0.18628  -0.0080836    -0.15838    -0.49119    0.010333
-0.26657   -0.067609     0.26784   0.0017824     -0.2202    -0.44252   0.0090175
-0.27808   -0.050836     0.35268 -0.00019077    -0.24947    -0.40897   0.0090175
-0.27545   -0.041628     0.41122   -0.013674    -0.24224    -0.35241   0.0096753
-0.25243   -0.041299      0.4132   -0.040313    -0.20705     -0.2692    0.010333
-0.21132   -0.041628      0.3494   -0.076817    -0.15936    -0.19488    0.010004
-0.15805   -0.035051     0.24054    -0.11168   -0.096549    -0.16528   0.0083598
-0.1028   -0.020909     0.12675    -0.13404  -0.0077547    -0.18732   0.0080309
-0.060045  -0.0028217    0.044206    -0.13766     0.10669    -0.25802   0.0077021
-0.035708    0.016581   0.0030979    -0.11825     0.23002     -0.3478   0.0080309
-0.027487    0.036971  -0.0018351   -0.078132      0.3369    -0.41029   0.0080309
-0.025514    0.053743    0.010004   -0.027158     0.40793     -0.3899   0.0083598
-0.019923     0.06361     0.01987    0.020857     0.43063    -0.25342   0.0090175
-0.0064392    0.070845    0.022172    0.053086     0.40201   0.0086887    0.010662
0.010004    0.082355    0.018555      0.0692     0.32999     0.37603    0.011648
0.023488    0.098469    0.013293    0.072818     0.23758     0.80521    0.012306
0.032367     0.11754   0.0086887    0.077751     0.13662      1.2321    0.010991
0.040589      0.1376    0.011648     0.08367    0.031709      1.5984   0.0093464
0.051113     0.15109     0.02579    0.087946   -0.053796      1.8658   0.0073732
0.066569     0.14221    0.047166    0.090248   -0.068924      2.0243      0.0054
0.084328    0.097812    0.063281    0.099456    0.010004       2.073   0.0050711
0.10077     0.01691    0.064925     0.11853     0.15306      2.0148   0.0040845
0.11031   -0.093918    0.046508     0.14352     0.29053      1.8855   0.0034268
0.10998     -0.2133    0.014279     0.16786     0.36025      1.7333   0.0021113
0.097483    -0.31393   -0.019594     0.18529     0.35071      1.5859 -0.00019077
0.069858    -0.37543   -0.041628     0.19549     0.28987      1.4373  -0.0018351
0.032367    -0.39023   -0.047877     0.19614     0.19351      1.2653  -0.0018351
-0.00051963      -0.358   -0.045574     0.18924    0.076764      1.0538  -0.0011774
-0.014003    -0.28861   -0.048534     0.17477   0.0096753     0.81244   0.0011247
-0.0034794    -0.20179   -0.065635     0.15471     0.11426     0.57072   0.0034268
0.021843    -0.11694   -0.095233     0.13399     0.45529     0.34413   0.0034268
0.051113   -0.050179    -0.12713     0.11261     0.96175     0.14714   0.0030979
0.07512   -0.007097    -0.14719    0.091892      1.4643   0.0080309   0.0017824
0.086301    0.011977    -0.14818    0.072489      1.8076    -0.06136   0.0017824
0.082684   0.0093464    -0.13404    0.053086      1.9217   -0.098851  0.00079584
0.070187   -0.011372    -0.11694    0.029736      1.8158    -0.15542  0.00046697
0.052428   -0.044917    -0.10543  -0.0008485      1.5475     -0.2452   0.0001381
0.03434   -0.084052    -0.10378   -0.037353      1.1857    -0.34221   0.0017824
0.021186     -0.1176    -0.11233   -0.070897     0.80093    -0.41029   0.0034268
0.014608    -0.13832    -0.13108   -0.095562     0.44279    -0.42706   0.0073732
0.013622    -0.14259    -0.15838    -0.10937     0.13497    -0.39319   0.0086887
0.019212    -0.13897    -0.18501    -0.11168    -0.11727    -0.32511   0.0073732
0.036971    -0.13305    -0.19718    -0.10181     -0.3067    -0.23862      0.0054
0.071173    -0.12253    -0.17877   -0.083394    -0.43068    -0.13601   0.0047422
0.11919   -0.092274    -0.12286   -0.058729    -0.51224   -0.056427   0.0044134
0.1649     -0.0265   -0.036695   -0.031433    -0.60991   -0.083065   0.0030979
0.19746    0.090248    0.064267   0.0017824    -0.77665    -0.28367   0.0001381
0.21423     0.25139     0.16819    0.042233     -1.0092    -0.63918  -0.0011774
0.22114     0.42043      0.2583    0.088275     -1.2269     -1.0335 -0.00019077
0.22081      0.5477     0.31552     0.13234     -1.3081     -1.3242   0.0037556
0.2162      0.5967     0.32637      0.1649     -1.1749     -1.4189   0.0086887
0.21028     0.56283     0.29283     0.18299    -0.84867     -1.2999    0.013293
0.20469     0.47305     0.22706     0.18595    -0.46817     -1.0226    0.014608
0.19812     0.36715     0.14418     0.17411    -0.19817    -0.66944    0.014608
0.18726     0.27704    0.063281      0.1524    -0.12023    -0.31229    0.012306
0.16589     0.21752   0.0001381     0.12478    -0.18633 -0.00019077    0.010004
0.13267     0.19154   -0.037353    0.096167    -0.28302     0.23528   0.0093464
0.092221     0.18693   -0.052152    0.073147    -0.31525     0.37472   0.0083598
0.057032     0.18825   -0.049192    0.061965    -0.25177     0.41977   0.0060577
0.039273     0.18299   -0.032749    0.066898     -0.1097     0.41155   0.0063866
0.046508     0.15405   -0.004466    0.090905    0.083013     0.42569   0.0077021
0.068543     0.09255    0.033025     0.12577     0.29447     0.53619    0.010333
0.086959   0.0037556    0.062952     0.15569     0.48423     0.76179    0.012964
0.086959   -0.091616     0.07808     0.16819     0.60788      1.0413    0.012964
0.070845     -0.1689     0.07808     0.16063       0.624      1.2515     0.01132
0.053743    -0.20573    0.076435     0.14616      0.5112      1.2827   0.0070443
0.04618    -0.18962    0.083342     0.14024     0.27178      1.0867   0.0040845
0.045851    -0.12319    0.097812     0.14977   -0.066951     0.68648   0.0017824
0.040589     -0.0265     0.10899     0.16589     -0.4514     0.15701   0.0014536
0.010662    0.068214     0.10209     0.17279    -0.79276    -0.37609   0.0024402
-0.049521     0.13464    0.074133     0.15832     -1.0105    -0.81414   0.0050711
-0.12648     0.16128     0.03434     0.11919     -1.0654     -1.1568   0.0083598
-0.2008     0.15175 -0.00019077    0.059005    -0.97397     -1.4505   0.0096753
-0.25638      0.1113   -0.018936   -0.011701    -0.79737     -1.7195    0.010991
-0.28795    0.046508   -0.015976   -0.077475    -0.60235     -1.9329    0.011648
-0.29617   -0.026171    0.016581    -0.11793    -0.43824     -2.0201    0.013293
-0.28828   -0.085039    0.078409    -0.11793    -0.32084      -1.904    0.015266
-0.2623    -0.11398     0.15767   -0.076488    -0.24849     -1.5403    0.018226
-0.20869    -0.10839     0.22969  -0.0084125    -0.21889    -0.94963    0.021186
-0.11825   -0.069582     0.27639    0.065912    -0.25572    -0.22053    0.023159
0.013951   -0.007097     0.29612     0.12774    -0.37609     0.49739    0.022501
0.17148    0.062294     0.29217     0.16654    -0.51421      1.0693    0.018226
0.32539     0.12412     0.27474     0.18595    -0.51388      1.4593    0.014279
0.45398     0.16885     0.25501     0.19384     -0.2281      1.7024    0.010991
0.55362     0.20272     0.23659     0.20634     0.36913       1.874   0.0093464
0.61742     0.22377     0.21752     0.22443      1.1272      2.0266   0.0090175
0.62499     0.21851     0.18693     0.23298      1.7879      2.1279   0.0057288
0.56086     0.17444     0.13662     0.21226       2.122      2.1059  0.00046697
0.43293    0.096496    0.064925     0.15405      2.0345      1.9181  -0.0051238
0.27573   0.0034268   -0.013345    0.068871       1.607      1.5748  -0.0090702
0.12774   -0.073199   -0.080434   -0.022225      1.0275      1.1226  -0.0087413
0.0034268    -0.10543    -0.12483    -0.09918     0.48752     0.62893  -0.0038083
-0.096878   -0.085367    -0.14522     -0.1518     0.11064     0.17542   0.0021113
-0.17416   -0.032749    -0.15048    -0.17909   -0.069253    -0.16791   0.0080309
-0.22316    0.018555    -0.15081    -0.19028   -0.085039    -0.34156    0.012964
-0.24125    0.041904    -0.15311    -0.19587  0.00046697    -0.32577    0.016253
-0.23763    0.024145    -0.15706    -0.20475     0.10439    -0.16594    0.015595
-0.22481   -0.029789    -0.16462    -0.21264     0.13892    0.039602    0.012306
-0.21001   -0.093918    -0.17416    -0.21691    0.070516     0.20371   0.0073732
-0.19685    -0.14884    -0.18501    -0.21823   -0.059716     0.29184    0.002769
-0.17844    -0.18567    -0.19389    -0.21428    -0.17022     0.30434  0.00046697
-0.15147    -0.20047    -0.19455    -0.20047    -0.22382     0.24843 -0.00019077
-0.11497    -0.18337    -0.18337    -0.17219    -0.25309     0.14056  0.00046697
-0.077475      -0.137     -0.1587    -0.13667    -0.31722    0.014937   0.0011247
-0.048205    -0.07879    -0.12779     -0.1028    -0.43199   -0.084381   0.0021113
-0.032091   -0.031104   -0.096878   -0.074844    -0.54644    -0.14062   0.0017824
-0.026829  -0.0093991   -0.068595   -0.050179     -0.5813    -0.18534   0.0001381
-0.030775   -0.019594   -0.046561   -0.022883    -0.48231    -0.26855  -0.0024928
-0.042615   -0.054125   -0.024856    0.011977    -0.21757    -0.41785  -0.0028217
-0.056427   -0.095891    0.002769    0.067556     0.21653    -0.62734  -0.0041372
-0.064978    -0.13141    0.036642     0.14451     0.74568    -0.85031  -0.0034794
-0.062347    -0.15147    0.065254     0.22278      1.2436    -0.99567   -0.002164
-0.049192    -0.16199     0.07512     0.27474      1.5833     -0.9641   0.0014536
-0.035708    -0.16824    0.058019     0.27968      1.6188    -0.73784   0.0040845
-0.02946    -0.17219    0.015924     0.23133      1.2189    -0.41588   0.0044134
-0.030775    -0.16528   -0.041628     0.13793     0.40596    -0.15673   0.0034268
-0.039326    -0.14127   -0.096549    0.028092    -0.58886   -0.086025  0.00079584
-0.059716    -0.10378    -0.13075    -0.07024     -1.4077    -0.23796  -0.0015062
-0.091616   -0.064978    -0.13799    -0.13305     -1.7958    -0.56255 -0.00051963
-0.13338   -0.034064    -0.11891    -0.14818     -1.6939     -0.9789   0.0014536
-0.1837   -0.011701   -0.079119    -0.12352      -1.242     -1.4206   0.0021113
-0.23533   0.0077021   -0.037024   -0.079777    -0.69706     -1.8514 -0.00019077
-0.27282    0.033683   -0.013017   -0.045246    -0.29782     -2.2319  -0.0024928
-0.27874    0.065254   -0.021567   -0.044917    -0.14719     -2.4891  -0.0015062
-0.24618    0.093208   -0.058729   -0.077803     -0.1814     -2.5351   0.0021113
-0.17778     0.10636    -0.11233    -0.12154    -0.27118     -2.3204   0.0086887
-0.091287    0.095181     -0.1587    -0.15147    -0.31196     -1.8846    0.012964
-0.0087413    0.059992    -0.18567    -0.15213    -0.19324     -1.3673    0.014608
0.051441    0.010991    -0.19028    -0.11858     0.18496    -0.90293    0.012306
0.082684   -0.034722    -0.17877   -0.062347     0.76903    -0.56847   0.0080309
0.086959   -0.066293    -0.16134   0.0030979      1.3399     -0.3797   0.0034268
0.072818   -0.083065     -0.1495    0.054401      1.6741    -0.28236   0.0011247
0.050126   -0.095233     -0.1518    0.080053      1.6685    -0.18304  0.00079584
0.026119    -0.10905    -0.16923     0.07512      1.3817   0.0030979   0.0040845
0.0014536    -0.12976    -0.19521    0.045193     0.97293     0.30533   0.0080309
-0.028802    -0.15279    -0.22283   0.0030979     0.60427     0.68813    0.010991
-0.07287    -0.17515    -0.24717   -0.035051     0.34611       1.065    0.013293
-0.12384    -0.18732    -0.26032   -0.056098     0.17016      1.3265    0.011977
-0.16627      -0.186    -0.23961   -0.057414    0.013293      1.3949   0.0093464
-0.19225    -0.16397    -0.16462   -0.051823    -0.16298      1.2673   0.0057288
-0.20146    -0.11825   -0.024856   -0.062018    -0.38793      1.0177   0.0034268
-0.19817   -0.056098     0.15898   -0.099509    -0.67996     0.73055    0.002769
-0.18403   0.0083598     0.34315    -0.15048     -1.0286     0.47108   0.0037556
-0.15903    0.071831     0.48094    -0.18666     -1.4074     0.27968   0.0083598
-0.12286     0.13793     0.53784    -0.17975     -1.8215     0.16326    0.012306
-0.080106     0.21094     0.49936    -0.12417     -2.2927     0.10801    0.014937
-0.033735      0.2902     0.37373   -0.038339     -2.7887     0.11261    0.015924
0.024474      0.3665       0.182     0.04881     -3.1876     0.20338    0.017239
0.091234     0.42602   -0.048534    0.099785     -3.3402     0.38097    0.017897
0.15306     0.45134    -0.29025     0.08663     -3.1353     0.59473    0.017897
0.19055     0.43885    -0.51651   0.0050711     -2.4752     0.75653    0.016581
0.18989     0.39675    -0.69081    -0.11168     -1.3347     0.78251    0.013293
0.15207     0.33887    -0.76645    -0.21067     0.10899     0.63584   0.0090175
0.090905     0.27408    -0.70002    -0.24059      1.4284     0.35071   0.0040845
0.021514     0.20667    -0.49152    -0.18436      2.2693   -0.004466  0.00046697
-0.036695     0.14188    -0.20475   -0.060702      2.5107    -0.37181  -0.0024928
-0.065635    0.086959    0.066569    0.085315       2.242    -0.71449  -0.0028217
-0.055112    0.048153     0.24218     0.20667      1.6751     -1.0203  -0.0018351
-0.0093991    0.030394     0.29678     0.26948      1.0236     -1.2884   0.0014536
0.049797    0.024474     0.25534     0.26027     0.42503     -1.5031   0.0050711
0.10735    0.021514      0.1695     0.18693   -0.066293     -1.6199   0.0096753
0.15898     0.01691    0.086959    0.082355    -0.44087     -1.6014    0.014608
0.21028    0.015266    0.036314   -0.010386    -0.65793     -1.4538    0.017897
0.26257    0.031709    0.024803   -0.061689    -0.67601     -1.2236    0.018884
0.30763    0.080711    0.041904   -0.062018    -0.52408    -0.97956    0.017239
0.32835     0.15569    0.077093   -0.036366    -0.27348    -0.78092    0.013293
0.31059     0.22541     0.12511   -0.022554    0.035985    -0.65727   0.0090175
0.24942     0.25139     0.18266   -0.037682     0.36715    -0.59182   0.0063866
0.15372     0.21456     0.25205   -0.069253     0.64669    -0.54052      0.0054
0.042233     0.11787     0.33591   -0.084052     0.77002     -0.4662      0.0054
-0.063991   -0.010715     0.42734   -0.059058     0.69273    -0.36129   0.0050711
-0.15015    -0.13141     0.52008   0.0011247     0.52468    -0.22514   0.0044134
-0.20705    -0.21527     0.60756    0.074462     0.50462   -0.051823      0.0054
-0.23073    -0.24684     0.68583     0.13234     0.80619     0.15767   0.0067154
-0.22481    -0.22875     0.73845      0.1524      1.3695     0.39248   0.0073732
-0.20113    -0.17482     0.74371     0.12905      1.9493       0.624   0.0060577
-0.17153    -0.10444     0.68912    0.076764      2.3124     0.78054   0.0037556
-0.14621   -0.036695     0.58158    0.018555      2.3775     0.79534   0.0011247
-0.1347    0.023159     0.45167   -0.028802      2.2187     0.68714 -0.00051963
-0.13207    0.080053     0.32868   -0.053467      1.9908     0.57631   0.0017824
-0.12352     0.13629       0.231   -0.053467      1.8247     0.64011   0.0083598
-0.095562     0.18167     0.16227   -0.035708      1.7609      1.0038     0.01691
-0.047877     0.19812     0.12017  -0.0038083      1.7425      1.6349    0.022501
0.011977     0.17542     0.10044    0.040589      1.6468      2.3318    0.021843
0.075449     0.11524     0.10143    0.090905      1.3682      2.8488    0.015266
0.13399    0.041247      0.1136     0.13958     0.88052       3.032      0.0054
0.18792   -0.012688     0.12215     0.17937     0.24514      2.8836  -0.0024928
0.23922   -0.025842     0.11097     0.20568    -0.42443      2.5189  -0.0061104
0.28559   0.0017824    0.074462     0.21588     -1.0118      2.0779  -0.0047949
0.31914    0.047166    0.013293     0.21127     -1.4337      1.6806  0.00046697
0.33295    0.084328   -0.064649     0.19746     -1.6439       1.434   0.0060577
0.32341    0.091563    -0.15377     0.17444     -1.6435      1.4218    0.013622
0.29283    0.058676    -0.25704     0.13201     -1.4834      1.6632    0.019212
0.24087   -0.016963    -0.36951    0.056703     -1.2499      2.0723     0.01987
0.16063    -0.13141    -0.47869   -0.049521     -1.0276       2.462    0.015266
0.049139    -0.26723    -0.56814     -0.1735    -0.86281      2.6449   0.0073732
-0.075501    -0.39812    -0.62603    -0.28762    -0.75889      2.5186  -0.0011774
-0.18797    -0.50204     -0.6428    -0.36392    -0.69706      2.0832  -0.0084125
-0.26789    -0.56617    -0.61978    -0.38201    -0.66911      1.4268    -0.01203
-0.30472    -0.59117    -0.56749     -0.3478    -0.68128     0.68155   -0.011043
-0.30406    -0.58426    -0.50303    -0.28532    -0.75395   -0.016963  -0.0074258
-0.27973    -0.55104    -0.44942    -0.22283    -0.88748    -0.57439   -0.002164
-0.24125    -0.49612    -0.41292    -0.17449     -1.0536    -0.95983    0.002769
-0.1906    -0.41917    -0.38595    -0.14522     -1.2147     -1.1884   0.0070443
-0.12516    -0.30998    -0.35405    -0.13009     -1.3291     -1.2907    0.010333
