,channel_1,channel_2,channel_3,channel_4,channel_5,channel_6,channel_7
0,-0.031433,0.092221,0.049139,-0.030775,-0.81052,-0.036037,0.034998
1,-0.0008485,0.10143,0.054401,0.020857,-1.1266,-0.0093991,0.041247
2,0.027105,0.10439,0.061965,0.089261,-1.243,0.01987,0.044864
3,0.044206,0.098141,0.067885,0.15964,-1.1749,0.047824,0.047824
4,0.051441,0.086959,0.072818,0.21489,-1.022,0.073476,0.052099
5,0.046837,0.079066,0.076435,0.24909,-0.91707,0.094194,0.062623
6,0.035985,0.074462,0.081697,0.26455,-0.94601,0.11195,0.07808
7,0.024474,0.066898,0.087946,0.26586,-1.0759,0.12774,0.090905
8,0.01691,0.057032,0.091892,0.25435,-1.2108,0.13432,0.092879
9,0.013293,0.049468,0.08959,0.23791,-1.2706,0.12642,0.080711
10,0.012635,0.046837,0.078737,0.22278,-1.2209,0.10242,0.057032
11,0.012635,0.047495,0.064925,0.21094,-1.0654,0.067556,0.029078
12,0.010991,0.046837,0.05177,0.19812,-0.84078,0.033354,0.0063866
13,0.002769,0.043549,0.038287,0.17806,-0.60235,0.0077021,-0.0041372
14,-0.0054526,0.039602,0.023159,0.15043,-0.40174,-0.0084125,-0.0031506
15,-0.007097,0.0373,0.01132,0.11689,-0.27085,-0.014332,0.0030979
16,0.0011247,0.042562,0.0080309,0.079066,-0.21527,-0.015648,0.010004
17,0.017239,0.058348,0.010991,0.043877,-0.19554,-0.014003,0.014608
18,0.033025,0.077751,0.013622,0.018555,-0.13272,-0.010715,0.017897
19,0.04026,0.084986,0.0083598,0.01132,0.024145,-0.0051238,0.021514
20,0.036314,0.068871,-0.0041372,0.020857,0.23561,0.0054,0.025132
21,0.022501,0.03434,-0.016963,0.041904,0.40267,0.020857,0.028092
22,0.0057288,0.0057288,-0.024527,0.061965,0.43852,0.039931,0.030065
23,-0.0064392,0.0040845,-0.024856,0.069529,0.32013,0.056046,0.029078
24,-0.0084125,0.032696,-0.023211,0.061636,0.087288,0.064596,0.027434
25,-0.0028217,0.079395,-0.024856,0.040918,-0.18666,0.064267,0.02875
26,0.0044134,0.12478,-0.02946,0.01691,-0.42114,0.058019,0.033683
27,0.0077021,0.15142,-0.034722,0.0011247,-0.54874,0.047495,0.035985
28,0.0070443,0.15668,-0.036366,0.0030979,-0.53657,0.036314,0.030723
29,0.0044134,0.14418,-0.032091,0.013951,-0.38924,0.028092,0.023817
30,0.0001381,0.12248,-0.020909,0.028092,-0.12319,0.027763,0.018226
31,-0.0011774,0.098469,-0.0084125,0.044864,0.24942,0.033025,0.016581
32,0.00046697,0.080053,0.0011247,0.060979,0.71082,0.036314,0.017568
33,0.0086887,0.067227,0.0080309,0.070516,1.2265,0.036971,0.021514
34,0.021514,0.053415,0.019212,0.076435,1.7313,0.039273,0.025132
35,0.035985,0.025461,0.036314,0.079724,2.1171,0.048482,0.024474
36,0.049139,-0.025185,0.05473,0.080382,2.2775,0.059663,0.02283
37,0.054072,-0.095233,0.068871,0.073476,2.1736,0.063938,0.02283
38,0.047824,-0.1643,0.079395,0.063938,1.8536,0.058676,0.027763
39,0.038287,-0.20244,0.087946,0.054072,1.4291,0.04618,0.038944
40,0.030065,-0.19685,0.090577,0.04322,1.0088,0.031381,0.052757
41,0.027763,-0.15706,0.082355,0.030723,0.66346,0.017568,0.062294
42,0.027105,-0.10378,0.063938,0.012306,0.41714,0.0070443,0.059334
43,0.027434,-0.063004,0.039602,-0.0093991,0.25896,0.00046697,0.046508
44,0.024145,-0.044917,0.012635,-0.027816,0.16457,0.0001381,0.02875
45,0.015924,-0.051494,-0.0093991,-0.04097,0.11458,0.0024402,0.015924
46,0.0040845,-0.078132,-0.0265,-0.049192,0.094194,0.0021113,0.010991
47,-0.0067681,-0.11365,-0.038997,-0.056756,0.094194,-0.0024928,0.010004
48,-0.010386,-0.14226,-0.04689,-0.06136,0.10669,-0.0084125,0.0096753
49,-0.002164,-0.14851,-0.048863,-0.064978,0.12379,-0.011701,0.010991
50,0.012964,-0.11924,-0.042615,-0.066951,0.13991,-0.011701,0.014608
51,0.026776,-0.048534,-0.031433,-0.065964,0.14879,-0.010057,0.013622
52,0.035985,0.053415,-0.01795,-0.061031,0.15536,-0.0087413,0.0024402
53,0.039602,0.1626,-0.0047949,-0.053796,0.16063,-0.0074258,-0.01499
54,0.039602,0.25271,0.0086887,-0.043272,0.16359,-0.0051238,-0.028144
55,0.046508,0.305,0.020857,-0.029131,0.16654,-0.00051963,-0.030118
56,0.056374,0.31256,0.02875,-0.0084125,0.16852,0.0063866,-0.019265
57,0.062952,0.27474,0.031052,0.013293,0.15207,0.014608,-0.0057815
58,0.061307,0.19943,0.029736,0.028421,0.087617,0.02283,-0.0008485
59,0.052099,0.10077,0.024145,0.029736,-0.065307,0.028421,-0.0084125
60,0.041247,-0.0087413,0.017239,0.019212,-0.31886,0.026776,-0.021896
61,0.032367,-0.11266,0.010991,0.0040845,-0.61616,0.01987,-0.027158
62,0.024474,-0.19028,0.0096753,-0.0041372,-0.85196,0.014937,-0.019923
63,0.021514,-0.2304,0.013293,0.0001381,-0.93977,0.015266,-0.0051238
64,0.026447,-0.23566,0.020528,0.014608,-0.86544,0.021514,0.0083598
65,0.040589,-0.21099,0.027105,0.033025,-0.67963,0.03434,0.015924
66,0.056046,-0.15607,0.02875,0.044206,-0.46126,0.050455,0.020199
67,0.0692,-0.07583,0.029736,0.045522,-0.27611,0.063938,0.020528
68,0.078737,0.021186,0.033683,0.038616,-0.15509,0.070845,0.019212
69,0.084328,0.12281,0.037958,0.026776,-0.09622,0.070516,0.017897
70,0.091234,0.21522,0.04026,0.010333,-0.080763,0.066898,0.013951
71,0.099785,0.2902,0.047495,-0.0051238,-0.087669,0.064925,0.010333
72,0.10702,0.3369,0.06065,-0.015648,-0.10214,0.064596,0.0067154
73,0.10735,0.35071,0.077093,-0.018607,-0.11299,0.066898,0.0063866
74,0.098469,0.33624,0.087617,-0.013017,-0.11233,0.078409,0.015266
75,0.082355,0.30302,0.090905,-0.0034794,-0.10214,0.097154,0.031381
76,0.061965,0.25369,0.088275,0.0034268,-0.085367,0.11689,0.048482
77,0.035327,0.18102,0.080711,0.0011247,-0.067937,0.13399,0.062294
78,0.0060577,0.0692,0.068871,-0.007097,-0.056427,0.14122,0.071173
79,-0.021567,-0.07287,0.052757,-0.016305,-0.06432,0.13563,0.076435
80,-0.041628,-0.20705,0.039931,-0.020581,-0.10773,0.12215,0.077422
81,-0.04689,-0.29058,0.033683,-0.015648,-0.18337,0.10669,0.07512
82,-0.03538,-0.29782,0.035327,-0.00019077,-0.26559,0.093208,0.070187
83,-0.012688,-0.23533,0.040918,0.023159,-0.32018,0.079395,0.06624
84,0.014608,-0.12976,0.047824,0.052099,-0.3261,0.068871,0.059992
85,0.040589,-0.016963,0.055059,0.083342,-0.28137,0.058348,0.051113
86,0.06065,0.064925,0.056703,0.1136,-0.2008,0.047166,0.043877
87,0.068543,0.099785,0.043549,0.13103,-0.10477,0.033683,0.04026
88,0.067227,0.093208,0.015924,0.12511,-0.013017,0.017568,0.037958
89,0.059992,0.062952,-0.017621,0.098141,0.056703,0.0017824,0.036314
90,0.04881,0.031052,-0.04985,0.060321,0.10603,-0.01499,0.030723
91,0.037629,0.012635,-0.078461,0.023488,0.15767,-0.033078,0.017568
92,0.030065,0.011977,-0.098522,-0.0047949,0.23725,-0.048863,0.0050711
93,0.026776,0.025132,-0.10576,-0.018278,0.35005,-0.063004,-0.002164
94,0.023817,0.042562,-0.09918,-0.015648,0.47568,-0.071555,-0.0031506
95,0.021186,0.053415,-0.081092,0.0011247,0.58026,-0.076159,0.0047422
96,0.021843,0.052757,-0.059387,0.02579,0.62696,-0.075173,0.018555
97,0.023488,0.04618,-0.043601,0.046508,0.5921,-0.063991,0.034669
98,0.02283,0.039931,-0.034393,0.057361,0.47963,-0.044917,0.047166
99,0.020528,0.037629,-0.030118,0.055717,0.3244,-0.021896,0.05473
100,0.017568,0.037958,-0.0265,0.050784,0.1649,-0.0034794,0.056703
101,0.017897,0.044206,-0.01795,0.049797,0.012306,0.0086887,0.050784
102,0.024474,0.055059,-0.0057815,0.053743,-0.13338,0.014937,0.037629
103,0.035656,0.06361,0.010662,0.062294,-0.2623,0.016253,0.027105
104,0.049139,0.060979,0.024803,0.07216,-0.35372,0.010333,0.029078
105,0.056703,0.039273,0.030723,0.080053,-0.38299,0.0014536,0.042562
106,0.056374,-0.0084125,0.029078,0.084657,-0.34649,0.0001381,0.06065
107,0.049468,-0.076159,0.024145,0.088603,-0.25934,0.0090175,0.072818
108,0.039273,-0.14358,0.017239,0.090905,-0.14983,0.021843,0.072489
109,0.029407,-0.1906,0.0086887,0.088275,-0.057085,0.027434,0.063281
110,0.022501,-0.19554,0.00079584,0.079066,-0.047877,0.020857,0.050455
111,0.016253,-0.14851,-0.00051963,0.067227,-0.1837,0.0047422,0.038287
112,0.0080309,-0.059387,0.0083598,0.059992,-0.47047,-0.015648,0.030394
113,-0.0047949,0.055717,0.030394,0.055388,-0.83321,-0.034064,0.027763
114,-0.018278,0.18167,0.062623,0.052757,-1.1535,-0.048863,0.029078
115,-0.024856,0.29579,0.095839,0.051441,-1.3308,-0.059716,0.029078
116,-0.018936,0.37768,0.11721,0.052428,-1.314,-0.065635,0.027434
117,-0.002164,0.40432,0.1182,0.050455,-1.1042,-0.067609,0.024145
118,0.021514,0.37439,0.10274,0.038944,-0.74475,-0.068924,0.020528
119,0.045851,0.3096,0.078409,0.022501,-0.30275,-0.066951,0.018226
120,0.067556,0.23692,0.055388,0.011648,0.1524,-0.058071,0.01691
121,0.085644,0.18233,0.042891,0.0093464,0.57303,-0.045903,0.019212
122,0.097483,0.15536,0.042233,0.01132,0.93642,-0.034064,0.025132
123,0.10044,0.15207,0.04618,0.013293,1.2419,-0.0265,0.032038
124,0.097483,0.15668,0.053086,0.010004,1.4768,-0.020252,0.039602
125,0.090905,0.15339,0.058348,-0.0051238,1.6224,-0.010057,0.04618
126,0.082684,0.13399,0.056374,-0.030118,1.6504,0.0054,0.051113
127,0.07512,0.10274,0.050455,-0.060373,1.5274,0.026776,0.05473
128,0.063938,0.070187,0.041247,-0.084052,1.2531,0.051113,0.054401
129,0.050784,0.045851,0.029407,-0.092603,0.88972,0.072489,0.053086
130,0.040589,0.032038,0.01987,-0.084381,0.51613,0.082026,0.047166
131,0.034998,0.025132,0.016253,-0.066293,0.1695,0.07808,0.040918
132,0.032038,0.022501,0.018555,-0.041957,-0.15377,0.061965,0.033683
133,0.029736,0.019212,0.021843,-0.014661,-0.4583,0.040589,0.030065
134,0.022501,0.011648,0.026119,0.012306,-0.71515,0.01987,0.031709
135,0.0080309,-0.0015062,0.028092,0.034669,-0.87235,0.002769,0.033683
136,-0.012688,-0.021567,0.032367,0.05177,-0.87662,-0.0064392,0.035656
137,-0.035708,-0.045574,0.037958,0.068543,-0.70462,-0.0057815,0.037958
138,-0.054125,-0.064649,0.045193,0.085972,-0.40174,0.0011247,0.042891
139,-0.064649,-0.068595,0.048153,0.10044,-0.04393,0.0077021,0.05177
140,-0.071884,-0.056427,0.046508,0.10965,0.32013,0.0083598,0.055717
141,-0.077475,-0.034722,0.041904,0.1136,0.67465,0.0060577,0.05473
142,-0.079448,-0.011701,0.039602,0.11787,0.99102,0.0011247,0.04881
143,-0.076488,0.0070443,0.038944,0.12281,1.2058,-0.0028217,0.039273
144,-0.066293,0.016581,0.035656,0.12511,1.2502,-0.0031506,0.028092
145,-0.049192,0.020528,0.033025,0.12116,1.0828,0.0017824,0.014937
146,-0.027487,0.025132,0.033683,0.11327,0.7174,0.010004,0.0030979
147,-0.0061104,0.033354,0.037958,0.10077,0.22278,0.017897,-0.0047949
148,0.015266,0.042562,0.040589,0.082684,-0.28203,0.019541,-0.0084125
149,0.036314,0.04881,0.039931,0.060321,-0.64905,0.014279,-0.010715
150,0.058019,0.045522,0.036314,0.042562,-0.79079,0.0090175,-0.012359
151,0.07512,0.034998,0.032038,0.039602,-0.74244,0.0034268,-0.013674
152,0.085315,0.013951,0.029736,0.055717,-0.64938,0.0017824,-0.015319
153,0.088275,-0.016963,0.031052,0.083999,-0.6724,0.0063866,-0.012359
154,0.088275,-0.056427,0.03434,0.11327,-0.89043,0.017897,-0.0031506
155,0.088275,-0.096878,0.036642,0.13399,-1.2719,0.03434,0.01132
156,0.088932,-0.1347,0.03434,0.13859,-1.6777,0.052099,0.024803
157,0.088603,-0.16495,0.029407,0.12281,-1.9254,0.067885,0.031381
158,0.083342,-0.17745,0.023488,0.088275,-1.8639,0.079395,0.027105
159,0.074133,-0.16495,0.019541,0.050784,-1.4252,0.088932,0.01987
160,0.061965,-0.13963,0.018555,0.023488,-0.65497,0.09255,0.014937
161,0.052099,-0.11562,0.021186,0.010991,0.25863,0.091892,0.015266
162,0.048153,-0.1005,0.023488,0.015266,1.0538,0.090905,0.021186
163,0.047495,-0.093918,0.02283,0.029078,1.5356,0.093865,0.028421
164,0.048153,-0.081092,0.023817,0.039931,1.6326,0.10077,0.034669
165,0.048482,-0.047877,0.02875,0.045851,1.4024,0.10834,0.039931
166,0.045851,0.010004,0.036314,0.044864,0.98806,0.11195,0.042891
167,0.037958,0.078737,0.041247,0.041904,0.55264,0.10866,0.045193
168,0.025132,0.14451,0.041247,0.036642,0.21423,0.098141,0.043877
169,0.010004,0.19055,0.032696,0.027763,0.01987,0.078737,0.037958
170,-0.0054526,0.20765,0.018884,0.020199,-0.045246,0.050455,0.027105
171,-0.019265,0.19516,0.0050711,0.012964,-0.029131,0.016253,0.015924
172,-0.03538,0.16128,-0.0051238,0.0090175,0.0070443,-0.018607,0.0047422
173,-0.056098,0.11491,-0.010715,0.0037556,0.023159,-0.04985,-0.0041372
174,-0.078461,0.068871,-0.015319,-0.0064392,0.012306,-0.078132,-0.0087413
175,-0.095891,0.033025,-0.019923,-0.018607,-0.0074258,-0.097864,-0.010386
176,-0.10247,0.01132,-0.022225,-0.027158,-0.011043,-0.1097,-0.010715
177,-0.094576,0.0054,-0.02354,-0.028473,0.018884,-0.11168,-0.010057
178,-0.076817,0.0060577,-0.022554,-0.020909,0.10932,-0.10411,-0.0067681
179,-0.058729,0.0050711,-0.018936,-0.0061104,0.30138,-0.085696,-0.0018351
180,-0.048534,-0.0041372,-0.010386,0.012964,0.58684,-0.060045,0.00079584
181,-0.048534,-0.020252,-0.0011774,0.033683,0.85519,-0.034393,0.0011247
182,-0.055769,-0.037024,0.0080309,0.052757,0.95188,-0.015319,-0.0008485
183,-0.06432,-0.047219,0.014608,0.063938,0.79402,-0.004466,-0.0041372
184,-0.070568,-0.048534,0.018555,0.067885,0.42865,-0.0041372,-0.011701
185,-0.075173,-0.041957,0.018555,0.063281,0.00046697,-0.0054526,-0.019594
186,-0.079777,-0.03538,0.017239,0.059334,-0.33202,0.002769,-0.019923
187,-0.079448,-0.030447,0.01691,0.067885,-0.47244,0.025132,-0.010386
188,-0.073199,-0.027487,0.018555,0.089919,-0.4218,0.059005,0.0073732
189,-0.061689,-0.024527,0.021514,0.10834,-0.26953,0.091234,0.023817
190,-0.048534,-0.015319,0.023817,0.10044,-0.15246,0.10998,0.03434
191,-0.036037,-0.0034794,0.026447,0.064925,-0.17449,0.10932,0.035985
192,-0.020909,0.010662,0.029736,0.020199,-0.34978,0.093536,0.031052
193,0.0017824,0.030723,0.034998,-0.0097279,-0.60728,0.079066,0.026776
194,0.032696,0.067885,0.039931,-0.018278,-0.84209,0.073147,0.028092
195,0.065912,0.12083,0.040918,-0.011701,-0.96542,0.077751,0.036314
196,0.099785,0.17674,0.039273,-0.0024928,-0.9447,0.082355,0.045193
197,0.12675,0.21686,0.031381,-0.0041372,-0.80526,0.077093,0.049139
198,0.14484,0.22212,0.015595,-0.021238,-0.61945,0.059992,0.042233
199,0.1501,0.19285,-0.0015062,-0.046232,-0.49218,0.034669,0.030723
200,0.14155,0.14418,-0.016305,-0.066293,-0.51059,0.010662,0.018226
201,0.12412,0.090905,-0.025185,-0.071884,-0.6895,-0.007097,0.01132
202,0.10143,0.046837,-0.026829,-0.056756,-0.96969,-0.01499,0.010991
203,0.080053,0.0093464,-0.015648,-0.027816,-1.2515,-0.016305,0.015924
204,0.064596,-0.02354,0.010333,0.0034268,-1.4416,-0.011043,0.023488
205,0.056046,-0.053138,0.044864,0.027763,-1.4791,-0.0051238,0.031052
206,0.056703,-0.076817,0.072489,0.038287,-1.3364,-0.0028217,0.037958
207,0.063938,-0.094905,0.083342,0.03434,-1.0401,-0.0038083,0.040918
208,0.070845,-0.11529,0.073147,0.01987,-0.65891,-0.007097,0.035656
209,0.073147,-0.14325,0.04881,0.00079584,-0.26197,-0.011372,0.025461
210,0.069858,-0.17844,0.02283,-0.019265,0.12478,-0.018607,0.018555
211,0.062294,-0.20803,0.0014536,-0.036695,0.53849,-0.027487,0.018555
212,0.048153,-0.21889,-0.01499,-0.049521,1.0466,-0.03538,0.021514
213,0.029078,-0.1985,-0.024856,-0.056098,1.6599,-0.038668,0.023488
214,0.0096753,-0.1518,-0.029131,-0.058729,2.2973,-0.034393,0.023488
215,-0.0057815,-0.091287,-0.025842,-0.062018,2.7685,-0.023869,0.021514
216,-0.013674,-0.034064,-0.01795,-0.068924,2.8406,-0.011043,0.016253
217,-0.010386,0.0080309,-0.010057,-0.07879,2.4019,0.0001381,0.0054
218,0.0021113,0.031709,-0.0057815,-0.095891,1.5425,0.0021113,-0.0054526
219,0.020199,0.04618,-0.0054526,-0.11661,0.47634,-0.002164,-0.011372
220,0.04026,0.061307,-0.0067681,-0.13634,-0.54184,-0.013017,-0.010386
221,0.06065,0.084328,-0.0064392,-0.14654,-1.3018,-0.022883,-0.0015062
222,0.07808,0.1136,-0.0015062,-0.13766,-1.6948,-0.024856,0.012964
223,0.09255,0.14517,0.011977,-0.10707,-1.6863,-0.016634,0.029078
224,0.10373,0.17246,0.026447,-0.057743,-1.3071,-0.00051963,0.039602
225,0.11064,0.18496,0.037629,0.0011247,-0.66023,0.01987,0.042233
226,0.1136,0.1774,0.042891,0.055388,0.073476,0.036642,0.036314
227,0.11195,0.15339,0.04322,0.090905,0.69306,0.040589,0.025132
228,0.10472,0.12083,0.039602,0.10307,1.1094,0.028421,0.014608
229,0.096825,0.093865,0.034998,0.098798,1.3561,0.010662,0.0093464
230,0.092879,0.081697,0.032367,0.091563,1.4962,0.0024402,0.010991
231,0.093865,0.086959,0.037958,0.09255,1.58,0.014608,0.017568
232,0.097483,0.10472,0.052757,0.10932,1.6382,0.050126,0.030723
233,0.10176,0.12478,0.068543,0.13793,1.6856,0.094852,0.047824
234,0.10176,0.13991,0.078737,0.16589,1.7076,0.12971,0.061307
235,0.095181,0.14221,0.081368,0.17871,1.6599,0.14024,0.068871
236,0.087946,0.13366,0.07512,0.16852,1.4958,0.11985,0.066569
237,0.082355,0.11886,0.058348,0.13662,1.2163,0.080053,0.055717
238,0.079395,0.10505,0.0373,0.093536,0.88413,0.037958,0.040918
239,0.073804,0.094523,0.014279,0.054072,0.60032,0.0014536,0.025461
240,0.067556,0.087946,-0.0024928,0.025461,0.44806,-0.028144,0.013951
241,0.061636,0.087946,-0.0080836,0.01132,0.44477,-0.047877,0.0077021
242,0.056703,0.087617,-0.0038083,0.0050711,0.54408,-0.057743,0.0073732
243,0.050126,0.078737,0.0040845,-0.0018351,0.66675,-0.053138,0.011648
244,0.042891,0.060321,0.010662,-0.017292,0.75982,-0.033078,0.021186
245,0.033354,0.036971,0.013293,-0.039655,0.80784,-0.002164,0.032696
246,0.022172,0.012964,0.01132,-0.059387,0.82658,0.030065,0.042233
247,0.0093464,-0.010715,0.0054,-0.075501,0.81474,0.053086,0.049139
248,-0.004466,-0.028473,-0.0024928,-0.086025,0.71411,0.064596,0.052428
249,-0.018936,-0.039326,-0.010715,-0.082736,0.44674,0.07216,0.05177
250,-0.026171,-0.040641,-0.020252,-0.063991,-0.0090702,0.07512,0.046837
251,-0.022225,-0.033406,-0.024527,-0.034722,-0.59511,0.073804,0.042891
252,-0.0054526,-0.014661,-0.015648,0.0037556,-1.2104,0.073147,0.04322
253,0.017239,0.018555,0.0077021,0.058676,-1.7557,0.081039,0.050126
254,0.038616,0.059005,0.043549,0.13201,-2.1579,0.10307,0.063938
255,0.055717,0.097483,0.083999,0.20897,-2.392,0.13267,0.076435
256,0.065254,0.12511,0.11524,0.27112,-2.4631,0.15503,0.086959
257,0.065583,0.13629,0.12873,0.30467,-2.374,0.15767,0.093536
258,0.051113,0.13037,0.12544,0.30039,-2.1375,0.14089,0.089919
259,0.02579,0.10965,0.10899,0.25468,-1.7896,0.1113,0.075449
260,-0.0064392,0.081697,0.08663,0.182,-1.3926,0.077751,0.05769
261,-0.034722,0.054401,0.062294,0.10274,-1.0269,0.045851,0.044864
262,-0.046232,0.038616,0.042233,0.036971,-0.77829,0.02283,0.034669
263,-0.038668,0.039931,0.031052,-0.0064392,-0.7135,0.0080309,0.023488
264,-0.017621,0.055388,0.030394,-0.024527,-0.83255,0.00079584,0.012306
265,0.0060577,0.076764,0.032696,-0.022554,-1.0361,-0.0028217,0.0040845
266,0.024145,0.094194,0.035656,-0.0077547,-1.1792,-0.0041372,0.0001381
267,0.034998,0.10439,0.036314,0.0083598,-1.1585,-0.0084125,-0.0011774
268,0.036971,0.10439,0.031709,0.015924,-0.95621,-0.013017,-0.0024928
269,0.030723,0.096167,0.01987,0.010991,-0.64115,-0.01795,-0.0011774
270,0.01691,0.089261,0.0037556,-0.00051963,-0.31097,-0.021896,0.0073732
271,-0.0011774,0.078737,-0.011701,-0.0031506,-0.042286,-0.024198,0.017897
272,-0.015976,0.056703,-0.021238,0.0096753,0.14155,-0.022225,0.028421
273,-0.018278,0.017897,-0.019594,0.043877,0.26159,-0.019923,0.040589
274,-0.011701,-0.029131,-0.0077547,0.094852,0.34249,-0.020909,0.056046
275,-0.0011774,-0.073199,0.0083598,0.15799,0.37538,-0.02354,0.071173
276,0.0077021,-0.10872,0.020528,0.21522,0.33361,-0.027158,0.076435
277,0.014937,-0.13404,0.024145,0.24876,0.21851,-0.034064,0.069529
278,0.020857,-0.1541,0.018555,0.24218,0.06065,-0.041628,0.055059
279,0.027434,-0.16824,0.0063866,0.19943,-0.094247,-0.04393,0.042233
280,0.02875,-0.17153,-0.004466,0.13464,-0.21428,-0.038011,0.03434
281,0.027763,-0.15509,-0.0064392,0.067556,-0.2771,-0.028802,0.029407
282,0.023817,-0.11431,-0.00051963,0.01132,-0.27348,-0.021567,0.026776
283,0.014937,-0.047877,0.010662,-0.028802,-0.21198,-0.016634,0.026447
284,0.0034268,0.038616,0.021843,-0.057085,-0.11003,-0.013017,0.028421
285,-0.0080836,0.13004,0.031381,-0.074515,0.023817,-0.012688,0.029078
286,-0.01795,0.20436,0.035327,-0.087669,0.20996,-0.014003,0.024145
287,-0.028473,0.23824,0.033354,-0.097536,0.48324,-0.018278,0.014608
288,-0.042944,0.22771,0.026776,-0.10082,0.86374,-0.026171,0.0037556
289,-0.057085,0.18529,0.017897,-0.097207,1.3265,-0.035051,0.0001381
290,-0.06432,0.12609,0.010004,-0.086025,1.7796,-0.039984,0.0067154
291,-0.063004,0.066569,0.0040845,-0.065964,2.0838,-0.037682,0.020199
292,-0.05281,0.020857,0.0014536,-0.032749,2.121,-0.028144,0.032367
293,-0.038668,-0.0018351,0.00079584,0.01132,1.8402,-0.018278,0.041904
294,-0.026171,-0.0011774,0.0021113,0.054401,1.2689,-0.012359,0.046508
295,-0.020581,0.012635,0.0054,0.081039,0.52665,-0.015976,0.043877
296,-0.021896,0.024803,0.010004,0.083013,-0.19159,-0.027158,0.033683
297,-0.029131,0.029736,0.017239,0.064596,-0.68555,-0.042944,0.020199
298,-0.031104,0.031381,0.022501,0.034998,-0.849,-0.056427,0.0086887
299,-0.019923,0.035985,0.024145,0.0073732,-0.70068,-0.063662,0.0034268
300,0.0037556,0.041904,0.022501,-0.0041372,-0.34616,-0.058729,0.0070443
301,0.033025,0.045522,0.019212,0.0024402,0.073804,-0.046232,0.012306
302,0.056046,0.039931,0.017568,0.01691,0.42701,-0.032749,0.016581
303,0.061965,0.024474,0.016253,0.024145,0.63979,-0.025842,0.017239
304,0.053743,0.00046697,0.012306,0.022172,0.70095,-0.024527,0.017897
305,0.035656,-0.02354,0.0057288,0.013622,0.64209,-0.02354,0.01987
306,0.018226,-0.034393,0.0021113,0.0057288,0.50988,-0.020252,0.025461
307,0.015266,-0.027158,0.0054,-0.0011774,0.33558,-0.014003,0.032367
308,0.034011,-0.0090702,0.012306,-0.0074258,0.13826,-0.004466,0.036642
309,0.064925,0.010333,0.023817,-0.011043,-0.063991,0.0050711,0.037958
310,0.090577,0.024145,0.037958,-0.0067681,-0.25342,0.014608,0.037958
311,0.099785,0.028421,0.051113,0.013293,-0.41785,0.026776,0.038287
312,0.09551,0.027434,0.058019,0.050126,-0.52013,0.036971,0.039273
313,0.083999,0.027434,0.055388,0.093865,-0.49941,0.041575,0.039602
314,0.067227,0.034011,0.047495,0.13103,-0.3238,0.039931,0.038944
315,0.045193,0.047495,0.035327,0.1501,-0.038339,0.036642,0.0373
316,0.022501,0.062952,0.023488,0.14681,0.24449,0.036314,0.034669
317,0.0001381,0.074133,0.013293,0.12379,0.41517,0.0373,0.029078
318,-0.016305,0.079724,0.010991,0.087288,0.41879,0.039602,0.018555
319,-0.025185,0.081697,0.015924,0.050126,0.27014,0.042891,0.0086887
320,-0.027487,0.081039,0.021843,0.021843,0.054401,0.049468,0.002769
321,-0.021896,0.073804,0.026119,0.010662,-0.11825,0.059334,0.0021113
322,-0.013674,0.056703,0.030723,0.014279,-0.14752,0.074462,0.0090175
323,-0.0074258,0.029407,0.033354,0.023159,-0.0047949,0.090905,0.018884
324,-0.0061104,-0.0051238,0.03434,0.027105,0.23199,0.10538,0.023817
325,-0.0087413,-0.041299,0.031381,0.020528,0.41122,0.11261,0.022172
326,-0.011372,-0.071884,0.023817,0.0011247,0.38064,0.11327,0.015595
327,-0.016634,-0.091945,0.013622,-0.029131,0.045522,0.10834,0.010333
328,-0.018278,-0.10017,0.0037556,-0.059387,-0.58327,0.098141,0.014608
329,-0.016963,-0.095233,0.0021113,-0.081421,-1.3683,0.086301,0.029078
330,-0.010715,-0.081421,0.0080309,-0.0903,-2.0928,0.077093,0.047166
331,-0.0051238,-0.062676,0.019541,-0.087998,-2.5548,0.0692,0.059005
332,-0.00051963,-0.044917,0.029736,-0.070568,-2.6331,0.06065,0.057032
333,0.002769,-0.034393,0.033025,-0.032749,-2.3328,0.047166,0.042233
334,0.0037556,-0.031433,0.030723,0.018884,-1.782,0.026119,0.025461
335,0.0040845,-0.034064,0.026447,0.067556,-1.1664,-0.0018351,0.012635
336,0.002769,-0.035051,0.024145,0.098798,-0.62504,-0.030118,0.0060577
337,0.0014536,-0.031104,0.021843,0.10472,-0.19324,-0.051823,0.0086887
338,0.0024402,-0.019594,0.016253,0.09255,0.18759,-0.060702,0.013951
339,0.0030979,-0.0015062,0.0096753,0.073476,0.63156,-0.057743,0.015595
340,0.0037556,0.023159,0.0030979,0.05769,1.2482,-0.046232,0.013951
341,0.0077021,0.049139,0.0017824,0.055059,2.0904,-0.021567,0.012635
342,0.013293,0.070187,0.0054,0.065583,3.0731,0.018226,0.016581
343,0.021514,0.083013,0.014608,0.084986,3.9923,0.070516,0.026447
344,0.029736,0.090248,0.027434,0.098798,4.6092,0.12741,0.037629
345,0.038287,0.095181,0.035656,0.096496,4.7322,0.17378,0.04618
346,0.047824,0.093536,0.036642,0.076106,4.2711,0.20305,0.050784
347,0.055717,0.081697,0.031381,0.047166,3.2737,0.21555,0.053743
348,0.06065,0.061965,0.023817,0.019541,1.9181,0.21588,0.058019
349,0.063281,0.04026,0.023159,0.0054,0.48818,0.207,0.064925
350,0.062623,0.02875,0.029736,0.012964,-0.69344,0.19121,0.074462
351,0.057032,0.033025,0.040918,0.034998,-1.4107,0.17214,0.076764
352,0.048153,0.052428,0.052099,0.055059,-1.6426,0.15569,0.071173
353,0.036314,0.079724,0.055059,0.061636,-1.4929,0.14254,0.061636
354,0.023488,0.10505,0.04881,0.05177,-1.1407,0.12379,0.047824
355,0.014279,0.11721,0.036642,0.03434,-0.76514,0.09551,0.035327
356,0.01132,0.10998,0.024145,0.018555,-0.49711,0.061636,0.028092
357,0.014279,0.090577,0.016581,0.010333,-0.3751,0.027434,0.027105
358,0.01691,0.079724,0.014937,0.0086887,-0.35339,0.0050711,0.029407
359,0.013622,0.094523,0.01691,0.010333,-0.35866,-0.0024928,0.026776
360,-0.00051963,0.13432,0.023488,0.016581,-0.36918,0.0037556,0.019212
361,-0.019594,0.17575,0.04026,0.028092,-0.42246,0.018884,0.010333
362,-0.032091,0.20173,0.068214,0.04881,-0.57242,0.032367,0.0037556
363,-0.030118,0.20404,0.098141,0.075449,-0.84308,0.035327,0.0017824
364,-0.013674,0.18989,0.11754,0.10307,-1.2012,0.025461,0.0014536
365,0.017239,0.17115,0.11623,0.11919,-1.5505,0.0037556,0.00079584
366,0.05473,0.14714,0.093208,0.12182,-1.7632,-0.021238,0.0024402
367,0.087946,0.10899,0.056703,0.10998,-1.7468,-0.042944,0.0077021
368,0.10965,0.047166,0.021186,0.088603,-1.4854,-0.056098,0.016581
369,0.11557,-0.042286,-0.0051238,0.064267,-1.0641,-0.057414,0.02875
370,0.11327,-0.15607,-0.020252,0.041904,-0.63096,-0.04689,0.040918
371,0.10834,-0.27414,-0.024198,0.027434,-0.31525,-0.030775,0.053086
372,0.10801,-0.3649,-0.016634,0.019212,-0.16561,-0.016634,0.059663
373,0.11294,-0.40338,-0.0064392,0.015595,-0.14785,-0.0067681,0.06065
374,0.11754,-0.3774,0.00079584,0.017239,-0.18008,-0.0031506,0.057361
375,0.11623,-0.29584,0.002769,0.021843,-0.18238,-0.00019077,0.053415
376,0.10899,-0.18534,-0.00019077,0.025461,-0.10937,0.0063866,0.050455
377,0.098469,-0.083394,-0.0047949,0.029736,0.018226,0.01691,0.051441
378,0.088932,-0.0064392,-0.0074258,0.031381,0.133,0.024803,0.053743
379,0.080711,0.037629,-0.0067681,0.030394,0.17016,0.027105,0.05177
380,0.075778,0.052099,-0.0034794,0.029078,0.12511,0.021843,0.046508
381,0.071831,0.035985,0.0001381,0.02283,0.042562,0.0083598,0.039931
382,0.066569,-0.011701,0.0024402,0.010333,-0.016634,-0.0074258,0.035656
383,0.058348,-0.076488,0.00079584,-0.0084125,-0.024856,-0.018607,0.033025
384,0.048153,-0.13536,-0.0057815,-0.024198,0.011977,-0.022554,0.028421
385,0.035327,-0.16528,-0.015648,-0.029131,0.064596,-0.01795,0.024474
386,0.014608,-0.15772,-0.025185,-0.0265,0.10702,-0.0077547,0.018555
387,-0.007097,-0.11299,-0.028144,-0.020581,0.12149,0.0021113,0.010991
388,-0.025842,-0.044588,-0.021896,-0.015976,0.10669,0.0080309,0.0037556
389,-0.037353,0.033354,-0.0067681,-0.012688,0.0692,0.002769,0.0001381
390,-0.038011,0.11393,0.015924,-0.0077547,0.023488,-0.0093991,0.0024402
391,-0.027816,0.19549,0.038287,0.0001381,-0.013017,-0.020252,0.0077021
392,-0.013017,0.26521,0.054072,0.0093464,-0.027487,-0.02354,0.012964
393,-0.0018351,0.30631,0.06065,0.019541,-0.01499,-0.020581,0.018555
394,0.0044134,0.31026,0.055388,0.029736,0.014279,-0.011701,0.023488
395,0.0096753,0.28395,0.044206,0.033025,0.042233,-0.0011774,0.025132
396,0.016581,0.25139,0.033683,0.031381,0.056374,0.0080309,0.021186
397,0.027434,0.22739,0.026447,0.024145,0.056046,0.011648,0.012635
398,0.036314,0.21752,0.020857,0.015924,0.053086,0.0096753,0.0054
399,0.044206,0.21653,0.017239,0.010333,0.059334,0.0047422,0.0001381
400,0.050126,0.2162,0.014608,0.0086887,0.082684,0.0017824,-0.0024928
401,0.050784,0.20831,0.014937,0.010991,0.12149,0.00046697,-0.0038083
402,0.050126,0.18365,0.016581,0.011648,0.16128,0.0011247,-0.002164
403,0.047495,0.14056,0.013293,0.010991,0.19384,0.002769,-0.00019077
404,0.047166,0.088932,0.002769,0.010662,0.21686,-0.0031506,-0.0008485
405,0.04618,0.037629,-0.0093991,0.015266,0.22837,-0.020909,-0.0061104
406,0.042562,-0.0011774,-0.01499,0.023159,0.22607,-0.047219,-0.013017
407,0.034669,-0.020581,-0.014003,0.030394,0.21292,-0.072542,-0.019923
408,0.025461,-0.024527,-0.0093991,0.030394,0.19187,-0.084052,-0.021567
409,0.018884,-0.020909,-0.0057815,0.023159,0.16786,-0.081421,-0.019265
410,0.013951,-0.014003,-0.0041372,0.017897,0.14912,-0.069253,-0.013017
411,0.010991,-0.0061104,-0.0034794,0.019212,0.14484,-0.055769,-0.0064392
412,0.0083598,0.002769,0.0001381,0.025132,0.16457,-0.047877,-0.0041372
413,0.0083598,0.010004,0.0054,0.032696,0.20798,-0.047877,-0.0097279
414,0.01132,0.015266,0.012964,0.044864,0.26685,-0.052481,-0.016305
415,0.014279,0.014937,0.020528,0.064596,0.32078,-0.055769,-0.017621
416,0.013622,0.011977,0.028092,0.083013,0.34479,-0.055112,-0.0064392
417,0.012306,0.010991,0.031709,0.092879,0.3221,-0.04985,0.010333
418,0.015595,0.014937,0.031052,0.088603,0.26027,-0.041957,0.021514
419,0.024145,0.022172,0.027763,0.071831,0.18693,-0.030118,0.027105
420,0.033025,0.028421,0.025132,0.05473,0.13169,-0.015319,0.032038
421,0.036642,0.031709,0.022501,0.047166,0.10472,0.0047422,0.039931
422,0.031381,0.0373,0.019212,0.048153,0.095839,0.024803,0.049468
423,0.01987,0.045851,0.014279,0.052757,0.090905,0.032696,0.058019
424,0.01132,0.056703,0.011648,0.05177,0.082355,0.030065,0.064267
425,0.010991,0.068214,0.012964,0.043877,0.065254,0.022172,0.070187
426,0.018555,0.074462,0.018884,0.031709,0.036314,0.016253,0.073476
427,0.029078,0.074133,0.027105,0.020199,-0.011701,0.019541,0.07216
428,0.033354,0.067556,0.035656,0.0096753,-0.088985,0.030723,0.070187
429,0.030723,0.05769,0.042562,0.0057288,-0.2008,0.045851,0.069529
430,0.024145,0.04881,0.04618,0.0096753,-0.33399,0.058019,0.069529
431,0.017568,0.044535,0.046837,0.021186,-0.46192,0.067556,0.06361
432,0.011648,0.043877,0.044535,0.036642,-0.55762,0.066569,0.054401
433,0.0080309,0.044864,0.038287,0.057032,-0.58163,0.052099,0.044864
434,0.0077021,0.047824,0.034998,0.077422,-0.51059,0.028092,0.039931
435,0.01132,0.047495,0.033683,0.091234,-0.36425,0.0063866,0.038287
436,0.015266,0.042233,0.036971,0.094194,-0.18765,-0.0008485,0.039273
437,0.018884,0.037629,0.038944,0.085644,-0.034393,0.0047422,0.037958
438,0.020857,0.042891,0.036642,0.07216,0.065912,0.012964,0.03434
439,0.017897,0.065912,0.031052,0.056046,0.11097,0.012964,0.029736
440,0.014608,0.10406,0.027434,0.041247,0.11952,0.0017824,0.029736
441,0.0083598,0.14287,0.029407,0.032696,0.11426,-0.012688,0.037629
442,0.0037556,0.16753,0.038944,0.027434,0.11393,-0.020581,0.044864
443,-0.00019077,0.17082,0.049139,0.024145,0.12544,-0.022225,0.044535
444,0.0017824,0.15701,0.052757,0.017239,0.14944,-0.022225,0.038287
445,0.0067154,0.13004,0.047824,0.0070443,0.18891,-0.022225,0.032367
446,0.010333,0.093865,0.042233,-0.0015062,0.24942,-0.022554,0.029078
447,0.012306,0.053415,0.036642,-0.004466,0.31421,-0.029789,0.028421
448,0.010662,0.017239,0.033683,-0.0015062,0.36123,-0.041299,0.028421
449,0.0030979,-0.015319,0.034011,-0.00019077,0.3688,-0.053138,0.024803
450,-0.0047949,-0.052152,0.037629,-0.0028217,0.32177,-0.055112,0.018555
451,-0.0093991,-0.10905,0.04026,-0.011043,0.21982,-0.049192,0.014937
452,-0.0077547,-0.18732,0.04026,-0.020909,0.069529,-0.038997,0.013951
453,-0.0011774,-0.26624,0.036314,-0.024856,-0.11562,-0.031433,0.013293
454,0.010991,-0.30965,0.027763,-0.017621,-0.32413,-0.032091,0.01132
455,0.029078,-0.29354,0.01691,-0.0038083,-0.52934,-0.038339,0.010662
456,0.048482,-0.22448,0.0077021,0.0090175,-0.69443,-0.046561,0.0090175
457,0.061307,-0.12976,0.00079584,0.015266,-0.77171,-0.048205,0.0096753
458,0.064596,-0.042615,-0.0018351,0.012635,-0.72041,-0.037024,0.016581
459,0.059334,0.0096753,0.00046697,0.0050711,-0.50402,-0.012688,0.024145
460,0.052757,0.021514,0.0090175,0.0054,-0.10839,0.024145,0.028421
461,0.046508,0.0093464,0.01987,0.021843,0.39379,0.067885,0.030394
462,0.043549,-0.0011774,0.029736,0.050126,0.8427,0.10669,0.028421
463,0.043877,0.0030979,0.036971,0.078409,1.0844,0.13399,0.021843
464,0.047824,0.02283,0.040918,0.096825,1.0588,0.14912,0.012306
465,0.05473,0.048482,0.042233,0.099785,0.82888,0.15273,0.0050711
466,0.063281,0.071502,0.044206,0.091234,0.52994,0.14912,0.0001381
467,0.069858,0.086301,0.048153,0.074133,0.28855,0.14385,-0.0015062
468,0.070187,0.092879,0.054072,0.060979,0.16654,0.14517,-0.0018351
469,0.066898,0.090905,0.063281,0.05769,0.15175,0.15306,-0.0018351
470,0.061307,0.081039,0.070187,0.058019,0.182,0.15964,-0.0034794
471,0.052428,0.068543,0.070187,0.055388,0.19614,0.15306,-0.0051238
472,0.039602,0.058348,0.061965,0.045522,0.16885,0.13004,-0.004466
473,0.025461,0.050126,0.047824,0.027763,0.11557,0.097812,-0.0011774
474,0.012635,0.045522,0.035985,0.0067154,0.06361,0.068871,0.0037556
475,0.0050711,0.04881,0.026776,-0.011043,0.032696,0.054401,0.0086887
476,0.0060577,0.059005,0.019541,-0.019265,0.022172,0.05769,0.018555
477,0.014937,0.074133,0.014279,-0.015976,0.024803,0.071173,0.029078
478,0.030723,0.086959,0.010991,-0.0057815,0.032696,0.083013,0.036642
479,0.049797,0.093865,0.0093464,0.0044134,0.039273,0.085972,0.040918
480,0.065583,0.093536,0.0090175,0.010662,0.041904,0.079395,0.038287
481,0.074462,0.084328,0.01132,0.014937,0.042891,0.063938,0.031709
482,0.074133,0.063938,0.017239,0.015266,0.042562,0.049139,0.024474
483,0.064925,0.034998,0.021186,0.013293,0.042562,0.039602,0.022501
484,0.047824,0.0067154,0.021186,0.012306,0.038944,0.038287,0.028092
485,0.027105,-0.010057,0.012964,0.012635,0.030394,0.042233,0.033025
486,0.0096753,-0.0090702,0.0021113,0.0077021,0.014279,0.047824,0.032038
487,-0.0034794,0.0054,-0.0064392,-0.0047949,-0.0077547,0.047824,0.02579
488,-0.0090702,0.025461,-0.0074258,-0.020909,-0.030447,0.044535,0.017568
489,-0.0087413,0.043549,0.0001381,-0.033406,-0.048863,0.041904,0.0057288
490,-0.0041372,0.055388,0.010662,-0.038011,-0.059387,0.039602,-0.0057815
491,0.0017824,0.060321,0.017568,-0.036695,-0.0584,0.03434,-0.012359
492,0.010991,0.058019,0.017897,-0.029789,-0.050507,0.028092,-0.010715
493,0.021843,0.048482,0.010333,-0.018278,-0.037024,0.023817,-0.0008485
494,0.031709,0.03434,0.00046697,-0.0061104,-0.019923,0.022501,0.013951
495,0.04026,0.018226,-0.0051238,0.0080309,-0.0067681,0.017568,0.026776
496,0.044535,0.0063866,-0.0084125,0.01987,-0.0047949,0.0067154,0.030065
497,0.045851,0.0030979,-0.011043,0.027763,-0.012688,-0.0080836,0.023817
498,0.048153,0.010991,-0.013674,0.028092,-0.0265,-0.02354,0.012635
499,0.053415,0.02875,-0.014332,0.028092,-0.036037,-0.037682,0.0080309
500,0.061965,0.05177,-0.0084125,0.032696,-0.034393,-0.046561,0.010333
501,0.072489,0.077422,0.0037556,0.038944,-0.016963,-0.047548,0.018226
502,0.087617,0.097154,0.020199,0.043877,0.017239,-0.04097,0.028092
503,0.1034,0.10373,0.034011,0.044864,0.058019,-0.033078,0.041575
504,0.11491,0.096825,0.038944,0.042233,0.088932,-0.032091,0.052757
505,0.11393,0.076764,0.036971,0.038616,0.059334,-0.041628,0.058019
506,0.099127,0.052757,0.032038,0.034011,-0.087012,-0.062018,0.055059
507,0.074462,0.033354,0.027105,0.029407,-0.35208,-0.081092,0.048153
508,0.045193,0.020857,0.025132,0.023488,-0.67963,-0.092274,0.039273
509,0.014279,0.024474,0.023159,0.019541,-0.98975,-0.097536,0.032367
510,-0.013017,0.047166,0.013622,0.01987,-1.219,-0.099509,0.02579
511,-0.02946,0.083013,-0.0041372,0.023817,-1.343,-0.096878,0.020199
512,-0.029789,0.12346,-0.023869,0.029736,-1.3591,-0.086354,0.015924
513,-0.015976,0.14879,-0.04097,0.033354,-1.2598,-0.068266,0.010662
514,0.0021113,0.14648,-0.050836,0.031381,-1.0664,-0.044588,0.0063866
515,0.016581,0.11524,-0.051823,0.021514,-0.82992,-0.022554,0.0037556
516,0.018884,0.067227,-0.046561,0.0080309,-0.58853,-0.011372,0.0057288
517,0.012306,0.015924,-0.036037,0.002769,-0.33202,-0.0077547,0.0080309
518,-0.0015062,-0.0265,-0.018278,0.014279,-0.015648,-0.0064392,0.010991
519,-0.013674,-0.056756,0.0073732,0.038944,0.39281,0.0050711,0.017897
520,-0.019594,-0.073199,0.043549,0.067227,0.8838,0.034669,0.028421
521,-0.016305,-0.077146,0.083999,0.092879,1.4011,0.083013,0.043877
522,-0.0024928,-0.075173,0.1136,0.10899,1.8421,0.13958,0.059005
523,0.010662,-0.079119,0.12577,0.10866,2.1381,0.19121,0.072818
524,0.014608,-0.095891,0.11754,0.088932,2.2956,0.22804,0.081039
525,0.0073732,-0.1222,0.098469,0.059334,2.3683,0.25008,0.081039
526,-0.0038083,-0.14292,0.077093,0.0373,2.3956,0.26257,0.073804
527,-0.013017,-0.13799,0.063281,0.039602,2.3578,0.27211,0.062623
528,-0.018278,-0.10017,0.061307,0.072489,2.1871,0.28,0.055717
529,-0.021238,-0.03242,0.071831,0.12544,1.8059,0.28362,0.055059
530,-0.02354,0.041904,0.08959,0.18167,1.1834,0.27704,0.060979
531,-0.024198,0.10011,0.10439,0.21588,0.37932,0.25731,0.0692
532,-0.024198,0.12346,0.1057,0.21423,-0.45896,0.22212,0.072818
533,-0.021896,0.1159,0.09255,0.18036,-1.1539,0.17181,0.070845
534,-0.017292,0.093865,0.070845,0.13169,-1.5827,0.12017,0.065583
535,-0.011043,0.073147,0.050126,0.093536,-1.7363,0.080382,0.059005
536,-0.0054526,0.05769,0.032696,0.085644,-1.7106,0.059334,0.056703
537,-0.0041372,0.046837,0.021514,0.10702,-1.6222,0.054072,0.05769
538,-0.007097,0.041247,0.017239,0.13925,-1.5334,0.059005,0.062294
539,-0.0080836,0.039931,0.019541,0.16095,-1.4521,0.063938,0.070516
540,-0.0061104,0.037629,0.024803,0.15964,-1.3591,0.067885,0.07808
541,-0.00051963,0.026776,0.026119,0.13333,-1.2246,0.068871,0.080053
542,0.0054,0.0077021,0.021514,0.09255,-1.0092,0.059334,0.076106
543,0.0093464,-0.017292,0.013293,0.052757,-0.67009,0.041575,0.06624
544,0.010991,-0.041628,0.0077021,0.018226,-0.19587,0.018884,0.05177
545,0.013293,-0.0584,0.0034268,-0.0067681,0.37669,-0.0011774,0.035656
546,0.016253,-0.066951,-0.002164,-0.022225,0.95024,-0.011701,0.01987
547,0.019541,-0.068266,-0.0061104,-0.033735,1.3909,-0.011701,0.0047422
548,0.019212,-0.064978,-0.0061104,-0.04393,1.5942,-0.007097,-0.0051238
549,0.016581,-0.060702,-0.0011774,-0.054783,1.5527,-0.0067681,-0.0093991
550,0.013622,-0.054125,0.0083598,-0.060045,1.3616,-0.012688,-0.0077547
551,0.013622,-0.04097,0.021514,-0.050179,1.1367,-0.020909,-0.0015062
552,0.017239,-0.016963,0.032696,-0.028473,0.91439,-0.023869,0.0086887
553,0.026776,0.019212,0.04026,-0.0047949,0.6513,-0.018278,0.017568
554,0.04026,0.068871,0.043549,0.010333,0.29217,-0.0090702,0.022501
555,0.05473,0.1353,0.040589,0.019212,-0.1541,-0.0080836,0.02283
556,0.064925,0.20831,0.033025,0.025461,-0.60366,-0.021238,0.021514
557,0.06624,0.27014,0.020528,0.028421,-0.95687,-0.044588,0.016581
558,0.061636,0.29941,0.0047422,0.025132,-1.1591,-0.065964,0.012306
559,0.048153,0.28823,-0.0084125,0.018555,-1.2213,-0.077146,0.010333
560,0.02579,0.24054,-0.014661,0.010991,-1.1838,-0.080763,0.010662
561,-0.0028217,0.1797,-0.013674,0.0077021,-1.0878,-0.079448,0.010333
562,-0.026829,0.13201,-0.0067681,0.010333,-0.9516,-0.077475,0.0080309
563,-0.039655,0.10899,0.0014536,0.016253,-0.79704,-0.081421,0.002769
564,-0.038997,0.10209,0.0096753,0.020857,-0.65365,-0.088985,-0.0015062
565,-0.027816,0.097483,0.014937,0.020528,-0.54052,-0.095233,-0.00051963
566,-0.012688,0.085644,0.013622,0.017568,-0.46126,-0.096549,0.0021113
567,-0.0011774,0.067227,0.0070443,0.013622,-0.39944,-0.090629,0.002769
568,0.0040845,0.046837,-0.0008485,0.0093464,-0.34649,-0.077475,0.00079584
569,0.0044134,0.031052,-0.004466,0.0040845,-0.29617,-0.063662,0.0021113
570,0.0037556,0.024803,-0.0034794,-0.0018351,-0.24717,-0.057743,0.0093464
571,0.0067154,0.024803,-0.0011774,-0.0087413,-0.20146,-0.063333,0.015924
572,0.013293,0.024145,-0.00019077,-0.012359,-0.16035,-0.072542,0.017897
573,0.020199,0.017897,-0.0028217,-0.011372,-0.11529,-0.073857,0.017897
574,0.021843,0.010333,-0.0080836,-0.004466,-0.063004,-0.063991,0.019541
575,0.019212,0.010991,-0.013017,0.0021113,-0.0087413,-0.051823,0.022172
576,0.012635,0.023817,-0.014332,0.0063866,0.038616,-0.045574,0.024145
577,0.0047422,0.04322,-0.011701,0.0054,0.073804,-0.047548,0.02579
578,-0.002164,0.055388,-0.0074258,0.00079584,0.10274,-0.05281,0.026776
579,-0.0080836,0.050126,-0.00019077,-0.0087413,0.13399,-0.053796,0.026447
580,-0.012359,0.028421,0.0073732,-0.021238,0.17378,-0.049521,0.023817
581,-0.013674,0.0014536,0.014937,-0.036366,0.21785,-0.046232,0.019541
582,-0.010057,-0.020909,0.022501,-0.049192,0.25369,-0.045903,0.014279
583,-0.0018351,-0.032091,0.026776,-0.054783,0.27343,-0.048863,0.0083598
584,0.0083598,-0.037682,0.027763,-0.046561,0.27474,-0.049521,0.0040845
585,0.01691,-0.043272,0.025132,-0.027158,0.25863,-0.046561,0.0030979
586,0.020199,-0.050507,0.024145,-0.0018351,0.22903,-0.038997,0.0040845
587,0.018884,-0.05544,0.025461,0.020199,0.20239,-0.030118,0.0044134
588,0.015924,-0.055112,0.028092,0.032038,0.19318,-0.02354,0.00079584
589,0.015266,-0.04985,0.025461,0.035656,0.20765,-0.021238,-0.0041372
590,0.015595,-0.043272,0.019212,0.035656,0.2389,-0.023869,-0.0057815
591,0.015924,-0.038668,0.010991,0.03434,0.26915,-0.031762,-0.0024928
592,0.01987,-0.039326,0.0077021,0.027763,0.28329,-0.038011,0.0050711
593,0.026776,-0.039655,0.010662,0.020199,0.26948,-0.038011,0.014279
594,0.032367,-0.036037,0.016581,0.015924,0.21785,-0.024856,0.022501
595,0.036971,-0.026829,0.021186,0.017568,0.12708,-0.0054526,0.026776
596,0.040589,-0.013017,0.023817,0.021514,0.016253,0.013293,0.026776
597,0.045522,0.0030979,0.020857,0.023817,-0.08175,0.020199,0.023488
598,0.047824,0.01691,0.015924,0.020199,-0.13996,0.014937,0.02283
599,0.050126,0.026447,0.012635,0.011648,-0.14522,0.0034268,0.02579
600,0.057032,0.032038,0.0093464,0.0001381,-0.10872,-0.002164,0.031052
601,0.068214,0.035656,0.0063866,-0.0057815,-0.057743,0.002769,0.0373
602,0.081039,0.041247,0.0040845,-0.0047949,-0.022883,0.013951,0.043549
603,0.090905,0.052428,0.0070443,0.00079584,-0.030775,0.027434,0.046837
604,0.09551,0.065912,0.013622,0.0086887,-0.088985,0.039273,0.048153
605,0.095181,0.078409,0.022501,0.018555,-0.17219,0.045193,0.054072
606,0.094523,0.086959,0.033354,0.034998,-0.23434,0.046837,0.065912
607,0.093865,0.08959,0.040918,0.059005,-0.2327,0.041247,0.076764
608,0.092221,0.08663,0.043549,0.084986,-0.15607,0.028092,0.080382
609,0.085972,0.07512,0.041247,0.10866,-0.031762,0.010333,0.076764
610,0.075449,0.059663,0.034011,0.1182,0.090577,-0.007097,0.067556
611,0.065912,0.046508,0.025132,0.10998,0.17477,-0.020909,0.056703
612,0.062623,0.034669,0.017897,0.090248,0.21982,-0.029789,0.04618
613,0.067227,0.026119,0.010662,0.066569,0.256,-0.031104,0.038944
614,0.075778,0.020528,0.0083598,0.047495,0.29908,-0.025185,0.034011
615,0.083342,0.01987,0.0096753,0.034011,0.33854,-0.015976,0.031381
616,0.085644,0.024474,0.012306,0.022172,0.35268,-0.0087413,0.030723
617,0.083999,0.028092,0.013951,0.0034268,0.32868,-0.0051238,0.031052
618,0.080053,0.030065,0.014937,-0.018936,0.28,-0.0031506,0.032367
619,0.076764,0.033025,0.016581,-0.03538,0.22969,-0.00051963,0.035656
620,0.072489,0.0373,0.01987,-0.038339,0.16654,0.0030979,0.040589
621,0.06361,0.04322,0.023488,-0.034064,0.064596,0.0080309,0.043877
622,0.054072,0.047495,0.025461,-0.025514,-0.083065,0.018884,0.041904
623,0.044864,0.047495,0.027105,-0.011701,-0.23336,0.037629,0.038944
624,0.039273,0.04026,0.030065,0.012635,-0.31064,0.063938,0.035985
625,0.041247,0.032367,0.039931,0.046837,-0.25276,0.096825,0.039931
626,0.054401,0.032038,0.05473,0.083342,-0.041957,0.12675,0.051113
627,0.073476,0.044535,0.071831,0.11458,0.26948,0.14813,0.068543
628,0.094523,0.065254,0.085315,0.13793,0.55132,0.16128,0.082684
629,0.11064,0.08367,0.089919,0.1524,0.65787,0.17049,0.088275
630,0.12182,0.091234,0.086959,0.15175,0.52764,0.17773,0.085972
631,0.12511,0.088275,0.079395,0.13037,0.22147,0.17707,0.07808
632,0.12083,0.075449,0.067227,0.08959,-0.12286,0.16457,0.06624
633,0.10965,0.061965,0.052428,0.0373,-0.36951,0.14024,0.054072
634,0.09551,0.052428,0.037629,-0.014332,-0.44449,0.11064,0.04322
635,0.081039,0.045851,0.02579,-0.051165,-0.3603,0.081368,0.032038
636,0.069529,0.036314,0.015595,-0.066622,-0.17909,0.056703,0.021514
637,0.062294,0.02579,0.0083598,-0.064978,0.049139,0.037629,0.015924
638,0.058019,0.011648,0.0060577,-0.054454,0.30598,0.023817,0.013951
639,0.052099,-0.0011774,0.0086887,-0.041628,0.58881,0.015266,0.015266
640,0.043549,-0.0077547,0.011977,-0.025514,0.8792,0.01132,0.014937
641,0.032696,-0.0054526,0.016581,-0.0041372,1.1212,0.010991,0.012635
642,0.020199,0.0090175,0.022501,0.021514,1.2268,0.012306,0.010004
643,0.0086887,0.027434,0.028421,0.043877,1.1387,0.010991,0.0047422
644,-0.0028217,0.038287,0.031052,0.054072,0.87361,0.0057288,-0.0015062
645,-0.016634,0.037629,0.027434,0.049468,0.5112,-0.0038083,-0.0057815
646,-0.034393,0.025461,0.018555,0.038616,0.15569,-0.015648,-0.0097279
647,-0.050836,0.010991,0.0054,0.029407,-0.098851,-0.0265,-0.013345
648,-0.0584,-0.00051963,-0.0034794,0.024474,-0.20573,-0.033406,-0.012688
649,-0.059058,-0.0057815,-0.0061104,0.029078,-0.17909,-0.036366,-0.0084125
650,-0.052481,-0.0051238,-0.0018351,0.040589,-0.088985,-0.034064,0.00079584
651,-0.041957,-0.0015062,0.0057288,0.053743,-0.020581,-0.028802,0.010333
652,-0.02946,0.0063866,0.013622,0.064925,-0.036366,-0.022225,0.019541
653,-0.017292,0.014608,0.02283,0.070845,-0.15213,-0.010715,0.025461
654,-0.0097279,0.020528,0.025132,0.068871,-0.33662,0.0011247,0.028421
655,-0.0084125,0.023159,0.020857,0.060321,-0.51355,0.010004,0.026776
656,-0.011372,0.016253,0.013622,0.049797,-0.60728,0.0083598,0.022172
657,-0.017621,-0.0064392,0.0054,0.042891,-0.58064,0.0017824,0.011977
658,-0.022225,-0.039984,-0.00019077,0.042562,-0.45962,-0.0038083,-0.0011774
659,-0.02354,-0.071226,0.0001381,0.046508,-0.30275,-0.0057815,-0.015319
660,-0.022225,-0.076159,0.0086887,0.049468,-0.16232,-0.0031506,-0.025842
661,-0.021896,-0.028802,0.024145,0.050126,-0.049192,0.002769,-0.028473
662,-0.018607,0.083342,0.041247,0.04881,0.045522,0.01132,-0.020909
663,-0.010715,0.23594,0.055388,0.046508,0.12774,0.019541,-0.0064392
664,0.0001381,0.37274,0.064267,0.042562,0.19976,0.022172,0.0044134
665,0.0090175,0.44214,0.067227,0.041575,0.26192,0.022501,0.010333
666,0.0093464,0.41681,0.064596,0.042562,0.30401,0.023159,0.011977
667,0.002769,0.29809,0.056703,0.044206,0.29612,0.024474,0.011648
668,-0.0077547,0.11393,0.045522,0.04026,0.20469,0.025461,0.010333
669,-0.01499,-0.083065,0.032038,0.026776,0.01691,0.025132,0.010004
670,-0.011701,-0.24585,0.018555,0.0060577,-0.235,0.024803,0.012306
671,0.0021113,-0.34583,0.0086887,-0.010715,-0.46488,0.027105,0.020528
672,0.018555,-0.38924,0.0047422,-0.011701,-0.58261,0.030723,0.033354
673,0.025132,-0.39056,0.0077021,0.010662,-0.56979,0.032367,0.046508
674,0.01691,-0.36425,0.016253,0.049797,-0.49711,0.032696,0.055388
675,0.0017824,-0.31261,0.030394,0.093208,-0.45995,0.02875,0.060321
676,-0.0067681,-0.23895,0.046508,0.12379,-0.50632,0.021843,0.060321
677,0.0050711,-0.14818,0.054072,0.13333,-0.63523,0.014937,0.059334
678,0.038287,-0.052481,0.047824,0.11985,-0.8319,0.0096753,0.061965
679,0.080382,0.032038,0.03434,0.090577,-1.068,0.0044134,0.0692
680,0.11294,0.090577,0.017568,0.059005,-1.269,-0.002164,0.073804
681,0.12511,0.12017,0.0014536,0.032038,-1.3203,-0.0087413,0.068214
682,0.11689,0.12478,-0.012359,0.013293,-1.122,-0.015976,0.052099
683,0.096825,0.11524,-0.023211,0.00046697,-0.64017,-0.022554,0.031052
684,0.071831,0.1057,-0.032749,-0.0087413,0.054401,-0.0265,0.016253
685,0.048482,0.10077,-0.038011,-0.014661,0.83316,-0.024198,0.011648
686,0.030394,0.10505,-0.036695,-0.017292,1.5603,-0.014661,0.015266
687,0.016581,0.11886,-0.024856,-0.015648,2.1006,0.0057288,0.016581
688,0.0054,0.14024,-0.0061104,-0.0090702,2.3387,0.036642,0.014937
689,-0.0015062,0.16194,0.01691,0.0034268,2.2075,0.07216,0.010333
690,-0.004466,0.17904,0.041575,0.024145,1.7102,0.10932,0.0060577
691,-0.0041372,0.18693,0.063281,0.051441,0.9157,0.1432,0.0054
692,-0.0061104,0.18299,0.077751,0.084328,-0.020252,0.17312,0.0057288
693,-0.0080836,0.16622,0.085315,0.1205,-0.8855,0.19121,0.0073732
694,-0.010386,0.14122,0.087946,0.15536,-1.5245,0.19088,0.010333
695,-0.0077547,0.11623,0.091892,0.17477,-1.8961,0.17082,0.019212
696,-0.0034794,0.091234,0.099127,0.17115,-2.0428,0.13958,0.035656
697,0.0017824,0.0692,0.10669,0.14681,-2.0457,0.11097,0.057032
698,0.0057288,0.052757,0.10834,0.11327,-1.9839,0.090248,0.073476
699,0.0093464,0.039931,0.099785,0.084986,-1.8991,0.076764,0.072489
700,0.0093464,0.031052,0.083013,0.067556,-1.7623,0.0692,0.055388
701,0.0093464,0.025461,0.064596,0.061307,-1.4571,0.06624,0.029078
702,0.015595,0.024145,0.046508,0.059005,-0.8388,0.062623,0.0050711
703,0.023488,0.024803,0.029078,0.056046,0.17115,0.053415,-0.0074258
704,0.029078,0.024145,0.014279,0.049139,1.4573,0.036971,-0.0051238
705,0.02875,0.017897,0.0073732,0.047495,2.7412,0.021843,0.0073732
706,0.026119,0.0037556,0.0073732,0.059334,3.6969,0.023159,0.023159
707,0.025132,-0.014003,0.014608,0.080382,4.057,0.047495,0.036314
708,0.023488,-0.026829,0.022501,0.098798,3.74,0.086301,0.042562
709,0.020528,-0.035051,0.02579,0.1034,2.8955,0.12478,0.039602
710,0.016253,-0.042615,0.021186,0.085315,1.8217,0.14944,0.031709
711,0.010004,-0.048534,0.0096753,0.048153,0.845,0.15471,0.021186
712,0.0017824,-0.053467,-0.0041372,0.010004,0.20601,0.1455,0.014608
713,-0.0034794,-0.056427,-0.014661,-0.0087413,-0.018607,0.12938,0.010991
714,-0.002164,-0.058729,-0.016305,-0.0041372,0.067556,0.11195,0.010662
715,0.0021113,-0.061031,-0.0051238,0.015595,0.27672,0.096496,0.016253
716,0.0070443,-0.063662,0.013293,0.038287,0.42964,0.080711,0.021514
717,0.012635,-0.068595,0.030065,0.04881,0.43161,0.061965,0.021186
718,0.019541,-0.073528,0.034998,0.038944,0.28921,0.042891,0.020199
719,0.026119,-0.075173,0.027105,0.0077021,0.068871,0.026776,0.020199
720,0.030394,-0.064649,0.011977,-0.031762,-0.15081,0.01132,0.021843
721,0.032696,-0.040313,-0.0031506,-0.063991,-0.32413,-0.0024928,0.02283
722,0.033354,-0.0074258,-0.012359,-0.081421,-0.43495,-0.012359,0.023488
723,0.033354,0.020199,-0.01499,-0.083394,-0.48593,-0.014661,0.021514
724,0.033025,0.036314,-0.014003,-0.073528,-0.49415,-0.0097279,0.016253
725,0.031709,0.040918,-0.010715,-0.063991,-0.47869,-0.00051963,0.013622
726,0.033025,0.040918,-0.0064392,-0.060702,-0.45863,0.0080309,0.011648
727,0.034669,0.041575,-0.004466,-0.064978,-0.44482,0.0080309,0.010333
728,0.035327,0.041904,-0.0064392,-0.066622,-0.44153,-0.00051963,0.012964
729,0.035656,0.038944,-0.014003,-0.0584,-0.44778,-0.016305,0.018884
730,0.035656,0.035656,-0.023869,-0.047548,-0.46291,-0.03242,0.027763
731,0.031381,0.036971,-0.03242,-0.043601,-0.48659,-0.047219,0.036314
732,0.02283,0.043877,-0.034064,-0.048534,-0.51257,-0.0584,0.041575
733,0.010991,0.052757,-0.027158,-0.059716,-0.53033,-0.063991,0.043549
734,-0.00019077,0.059005,-0.016634,-0.066293,-0.54578,-0.063004,0.042562
735,-0.0084125,0.064267,-0.0080836,-0.060373,-0.56124,-0.059716,0.039273
736,-0.01499,0.07216,-0.0038083,-0.034722,-0.56124,-0.059387,0.033683
737,-0.022883,0.083999,-0.0038083,0.0044134,-0.52671,-0.063004,0.02579
738,-0.036695,0.098798,-0.0038083,0.042562,-0.45173,-0.068266,0.01987
739,-0.051494,0.11031,-0.0028217,0.067556,-0.34517,-0.071884,0.017897
740,-0.065307,0.11261,-0.0018351,0.080382,-0.22678,-0.077146,0.017568
741,-0.07583,0.10209,-0.0015062,0.087946,-0.11825,-0.087341,0.015266
742,-0.082408,0.081039,-0.0008485,0.089919,-0.031433,-0.09918,0.010333
743,-0.085696,0.058676,-0.0024928,0.083013,0.038616,-0.10641,0.0047422
744,-0.0903,0.043877,-0.0084125,0.066569,0.10932,-0.10806,0.0011247
745,-0.094247,0.039273,-0.01499,0.046508,0.19483,-0.10937,0.00046697
746,-0.094576,0.043549,-0.024198,0.030394,0.28987,-0.11233,0.0024402
747,-0.088656,0.053743,-0.03242,0.017897,0.36617,-0.11825,0.0034268
748,-0.07879,0.065583,-0.035708,0.0047422,0.38919,-0.1199,0.0001381
749,-0.069253,0.070516,-0.031433,-0.0047949,0.34479,-0.11529,-0.002164
750,-0.06136,0.064267,-0.019594,-0.0015062,0.25106,-0.10346,0.0024402
751,-0.054783,0.056374,-0.0028217,0.017568,0.13695,-0.087012,0.014279
752,-0.048534,0.062623,0.012306,0.039602,0.024474,-0.068924,0.028092
753,-0.039326,0.093865,0.022172,0.05473,-0.087012,-0.055112,0.038616
754,-0.024856,0.14352,0.029078,0.059334,-0.20968,-0.048863,0.04618
755,-0.0090702,0.19417,0.037629,0.056703,-0.34813,-0.045246,0.053743
756,0.0060577,0.23035,0.050455,0.053086,-0.50829,-0.041299,0.061636
757,0.02283,0.24153,0.067227,0.052757,-0.68555,-0.031433,0.069529
758,0.040918,0.23002,0.082684,0.053415,-0.87268,-0.013017,0.077422
759,0.060979,0.20502,0.091234,0.055059,-1.0608,0.011648,0.085972
760,0.080711,0.17148,0.09551,0.060321,-1.2259,0.039931,0.093865
761,0.098798,0.13234,0.098798,0.068214,-1.3127,0.063938,0.097812
762,0.11327,0.087946,0.10011,0.076764,-1.2653,0.075449,0.09551
763,0.12412,0.032038,0.098798,0.080053,-1.0664,0.073804,0.084328
764,0.12807,-0.045903,0.089919,0.076435,-0.75428,0.060979,0.064925
765,0.12675,-0.14621,0.072489,0.067885,-0.4024,0.041575,0.047166
766,0.12346,-0.24059,0.050784,0.060321,-0.089314,0.022501,0.036971
767,0.11952,-0.29058,0.029407,0.052099,0.13333,0.013622,0.034011
768,0.11524,-0.27151,0.014937,0.045522,0.25863,0.020857,0.035656
769,0.10965,-0.1985,0.0093464,0.044864,0.31059,0.038944,0.036971
770,0.10274,-0.10543,0.0093464,0.053415,0.31223,0.055717,0.033354
771,0.09255,-0.026829,0.012964,0.064925,0.27968,0.058676,0.025132
772,0.077751,0.015595,0.014937,0.067885,0.22969,0.045193,0.013951
773,0.064925,0.019541,0.011648,0.05473,0.17674,0.026119,0.0030979
774,0.05769,0.0001381,0.0044134,0.02579,0.13234,0.020857,-0.002164
775,0.058676,-0.021896,-0.002164,-0.013017,0.08959,0.0373,0.0011247
776,0.064267,-0.032091,-0.0024928,-0.053138,-0.0008485,0.069858,0.012635
777,0.0692,-0.024856,0.0037556,-0.086025,-0.22711,0.10472,0.024803
778,0.067556,-0.0074258,0.013622,-0.11102,-0.62701,0.12642,0.030394
779,0.05473,0.013622,0.02283,-0.12483,-1.1282,0.13267,0.026447
780,0.037629,0.034011,0.029078,-0.1245,-1.5748,0.12642,0.012964
781,0.02579,0.049139,0.031709,-0.11266,-1.8162,0.1136,-0.0031506
782,0.022501,0.056046,0.029736,-0.092274,-1.7866,0.10143,-0.01499
783,0.026776,0.056374,0.027105,-0.063004,-1.5133,0.090905,-0.01795
784,0.035985,0.055059,0.028092,-0.029789,-1.0914,0.084328,-0.017292
785,0.052099,0.055388,0.032038,0.0011247,-0.63425,0.076435,-0.01795
786,0.071831,0.060321,0.037629,0.026776,-0.21955,0.065583,-0.019923
787,0.09255,0.0692,0.043877,0.048153,0.14155,0.056374,-0.022554
788,0.10702,0.075778,0.050784,0.066898,0.49147,0.052428,-0.022554
789,0.1136,0.076435,0.052099,0.084657,0.87328,0.053743,-0.016963
790,0.10801,0.070187,0.048482,0.10702,1.2893,0.057361,-0.0097279
791,0.09255,0.062294,0.042233,0.13497,1.706,0.06624,-0.00019077
792,0.073476,0.058348,0.038287,0.16063,2.0565,0.081697,0.0083598
793,0.056703,0.059334,0.038287,0.17411,2.2433,0.1011,0.016581
794,0.045522,0.063281,0.038287,0.16589,2.197,0.11919,0.021514
795,0.041904,0.071173,0.040589,0.14056,1.9207,0.12708,0.023817
796,0.042562,0.081697,0.044535,0.10735,1.505,0.11985,0.024803
797,0.044864,0.090905,0.049139,0.081368,1.1005,0.097483,0.026119
798,0.04618,0.096167,0.054401,0.069858,0.85223,0.069858,0.031052
799,0.045193,0.098141,0.058676,0.065254,0.82888,0.046508,0.037629
800,0.045193,0.095181,0.059005,0.059334,1.0071,0.035985,0.044535
801,0.051441,0.093865,0.055059,0.045851,1.2679,0.039602,0.047495
802,0.062952,0.096825,0.047824,0.028092,1.4597,0.051113,0.04618
803,0.076435,0.10636,0.041904,0.011977,1.4702,0.064267,0.044864
804,0.087288,0.11721,0.038287,0.00079584,1.2742,0.071502,0.04618
805,0.086959,0.11853,0.034669,-0.0064392,0.92228,0.069858,0.053415
806,0.075778,0.10439,0.033025,-0.0090702,0.50791,0.058348,0.067227
807,0.057361,0.083342,0.034011,-0.010057,0.12577,0.032696,0.077422
808,0.039273,0.065912,0.035985,-0.012688,-0.17285,-0.00051963,0.078409
809,0.027434,0.059992,0.0373,-0.015976,-0.38003,-0.036695,0.074791
810,0.021514,0.059992,0.034011,-0.023211,-0.50106,-0.066293,0.071502
811,0.021186,0.06065,0.026776,-0.027487,-0.52638,-0.080434,0.070845
812,0.023817,0.062952,0.018226,-0.01795,-0.44449,-0.076817,0.07512
813,0.026119,0.064267,0.015924,0.018555,-0.26493,-0.0584,0.084986
814,0.029078,0.058348,0.021514,0.075449,-0.044259,-0.036695,0.09255
815,0.032367,0.045193,0.030723,0.1376,0.14155,-0.020909,0.094852
816,0.033025,0.031052,0.034669,0.18759,0.24843,-0.015976,0.091563
817,0.028421,0.021514,0.029407,0.207,0.28264,-0.021567,0.082684
818,0.023817,0.018226,0.017568,0.19351,0.27441,-0.029789,0.069858
819,0.020199,0.01691,0.01132,0.15964,0.24909,-0.033735,0.056374
820,0.01691,0.011977,0.01132,0.12412,0.21883,-0.034064,0.048482
821,0.020199,0.0063866,0.014608,0.10077,0.18397,-0.03538,0.046837
822,0.025132,0.0054,0.020528,0.091234,0.14418,-0.039326,0.047495
823,0.029078,0.0083598,0.026119,0.085972,0.10143,-0.046232,0.044535
824,0.028421,0.0093464,0.024145,0.07808,0.05769,-0.056098,0.037958
825,0.021186,0.0054,0.015924,0.065912,0.019541,-0.069253,0.031709
826,0.0093464,-0.00019077,0.0063866,0.052428,-0.0061104,-0.086683,0.024803
827,-0.0034794,-0.0018351,-0.00019077,0.037629,-0.025842,-0.10839,0.016581
828,-0.010386,0.013951,-0.0018351,0.026447,-0.065964,-0.12944,0.010662
829,-0.010386,0.049139,-0.0008485,0.022172,-0.1587,-0.14325,0.010991
830,-0.0057815,0.10044,0.002769,0.022172,-0.31426,-0.14719,0.017897
831,-0.0011774,0.15405,0.0096753,0.025461,-0.49349,-0.1393,0.024803
832,0.0030979,0.19253,0.017568,0.030723,-0.628,-0.12549,0.029407
833,0.010991,0.20469,0.023159,0.036971,-0.66976,-0.11168,0.031381
834,0.021843,0.18628,0.023817,0.040589,-0.60728,-0.098851,0.026776
835,0.030394,0.14254,0.020199,0.035656,-0.47277,-0.086354,0.020528
836,0.032038,0.085972,0.016253,0.024145,-0.31853,-0.074186,0.015924
837,0.029078,0.027434,0.015595,0.0070443,-0.18995,-0.064649,0.013622
838,0.026776,-0.028144,0.026119,-0.012688,-0.10806,-0.056756,0.01132
839,0.027434,-0.080106,0.048153,-0.028473,-0.073528,-0.048534,0.0096753
840,0.032367,-0.12582,0.07216,-0.032749,-0.076817,-0.036695,0.0086887
841,0.044535,-0.16726,0.083999,-0.0265,-0.10905,-0.019594,0.0096753
842,0.063938,-0.20672,0.078409,-0.018278,-0.17285,-0.00019077,0.014937
843,0.083342,-0.24421,0.061307,-0.015976,-0.26493,0.018226,0.019212
844,0.099456,-0.27282,0.041575,-0.023211,-0.37214,0.03434,0.020199
845,0.10801,-0.28006,0.026447,-0.038339,-0.47277,0.047824,0.019541
846,0.10538,-0.25506,0.017239,-0.055769,-0.54512,0.060321,0.022172
847,0.085972,-0.19751,0.013951,-0.067609,-0.5711,0.066898,0.024474
848,0.053743,-0.1222,0.013293,-0.069911,-0.53789,0.062952,0.020199
849,0.018226,-0.048534,0.012635,-0.059716,-0.45304,0.053086,0.0086887
850,-0.013674,0.0086887,0.010991,-0.042286,-0.34024,0.040918,-0.0061104
851,-0.033735,0.041575,0.0063866,-0.023869,-0.22908,0.027763,-0.016634
852,-0.039326,0.050455,0.0040845,-0.010715,-0.13996,0.016253,-0.01795
853,-0.033406,0.046837,0.0063866,-0.0054526,-0.085367,0.0080309,-0.013017
854,-0.021238,0.046508,0.010333,-0.0051238,-0.059387,0.0054,-0.0061104
855,-0.0080836,0.05769,0.012306,-0.0051238,-0.054454,0.0073732,-0.0008485
856,-0.0018351,0.078409,0.0070443,-0.0015062,-0.063662,0.013951,0.0034268
857,-0.0034794,0.10077,-0.0047949,0.0047422,-0.094905,0.018884,0.002769
858,-0.0093991,0.11754,-0.016963,0.012306,-0.16134,0.020199,-0.0011774
859,-0.014661,0.12412,-0.021238,0.016253,-0.26953,0.023817,-0.0077547
860,-0.019265,0.12017,-0.015319,0.013951,-0.39845,0.031052,-0.014661
861,-0.021567,0.1057,-0.0054526,0.0083598,-0.50632,0.040589,-0.01795
862,-0.022225,0.083013,0.0037556,0.002769,-0.554,0.050784,-0.015319
863,-0.024856,0.058019,0.0096753,-0.0047949,-0.51816,0.061636,-0.0087413
864,-0.026829,0.037629,0.010991,-0.012688,-0.40042,0.069858,-0.0038083
865,-0.02946,0.02579,0.0083598,-0.022225,-0.21823,0.071831,-0.004466
866,-0.028144,0.01987,0.0054,-0.02946,-0.010057,0.069858,-0.0093991
867,-0.022554,0.012635,0.0030979,-0.024856,0.19549,0.066569,-0.015648
868,-0.014003,0.0017824,0.0030979,-0.010057,0.39083,0.065254,-0.018278
869,-0.007097,-0.0097279,0.0044134,0.0083598,0.59473,0.067885,-0.014003
870,-0.0051238,-0.01795,0.0067154,0.02283,0.80257,0.075449,-0.0024928
871,-0.0028217,-0.01499,0.010333,0.033354,0.9601,0.088275,0.011648
872,0.0047422,0.0001381,0.017568,0.039602,0.98674,0.1034,0.023488
873,0.020528,0.022501,0.02283,0.040589,0.84631,0.11886,0.028421
874,0.038287,0.044535,0.023159,0.03434,0.58388,0.12938,0.029078
875,0.050784,0.06361,0.019541,0.024474,0.29382,0.1307,0.029736
876,0.052757,0.074791,0.013293,0.012306,0.069858,0.12215,0.030394
877,0.041575,0.076435,0.0073732,0.0001381,-0.040641,0.10899,0.026776
878,0.02283,0.066569,0.0040845,-0.010057,-0.035051,0.094523,0.016581
879,0.0047422,0.051441,0.0037556,-0.01795,0.054072,0.081039,0.0034268
880,-0.0028217,0.036314,0.0070443,-0.020581,0.182,0.069858,-0.007097
881,0.0021113,0.027105,0.010662,-0.015976,0.31026,0.068543,-0.010057
882,0.01691,0.028092,0.015266,-0.0054526,0.4132,0.080382,-0.004466
883,0.035985,0.035327,0.018226,0.0093464,0.4793,0.099127,0.0090175
884,0.055717,0.043549,0.022172,0.027763,0.49541,0.11623,0.027763
885,0.075449,0.05177,0.031052,0.047495,0.44575,0.12412,0.046508
886,0.088603,0.058348,0.04026,0.063281,0.32506,0.11623,0.05769
887,0.090905,0.062294,0.045193,0.070516,0.15734,0.095181,0.054401
888,0.080382,0.059992,0.041247,0.0692,-0.0097279,0.068543,0.042562
889,0.062294,0.051441,0.028421,0.064267,-0.12154,0.04618,0.030723
890,0.038287,0.038944,0.010004,0.059005,-0.14423,0.032038,0.024145
891,0.011648,0.02875,-0.0061104,0.059334,-0.11595,0.027434,0.023159
892,-0.013674,0.025132,-0.01203,0.06361,-0.1393,0.032367,0.023488
893,-0.033406,0.029736,-0.0067681,0.065912,-0.2988,0.044206,0.024803
894,-0.04393,0.040918,0.0054,0.062294,-0.5665,0.060321,0.027105
895,-0.041957,0.053743,0.020199,0.055059,-0.84867,0.082684,0.030723
896,-0.031433,0.064596,0.030065,0.044864,-1.0657,0.10242,0.034011
897,-0.016634,0.068214,0.032367,0.033025,-1.1913,0.10932,0.036642
898,-0.0024928,0.062294,0.027105,0.021514,-1.2259,0.10176,0.036314
899,0.0096753,0.045851,0.020528,0.014279,-1.1736,0.082355,0.036314
900,0.01987,0.02579,0.013951,0.018226,-1.0424,0.063938,0.039931
901,0.027763,0.0083598,0.010004,0.029407,-0.84735,0.055059,0.048153
902,0.035656,-0.0047949,0.010004,0.042891,-0.6109,0.05177,0.059005
903,0.042233,-0.013345,0.012964,0.054401,-0.35175,0.049468,0.067885
904,0.046837,-0.018936,0.016581,0.064596,-0.062347,0.045193,0.076435
905,0.046837,-0.018936,0.020199,0.075778,0.28132,0.040918,0.085644
906,0.044206,-0.011372,0.024145,0.088603,0.69273,0.04618,0.093865
907,0.040918,0.0037556,0.030394,0.10274,1.141,0.063281,0.10011
908,0.0373,0.024474,0.035327,0.11721,1.5501,0.085972,0.10274
909,0.033683,0.045522,0.0373,0.13201,1.8211,0.10307,0.095181
910,0.02875,0.061636,0.036971,0.14385,1.8763,0.10669,0.079066
911,0.02283,0.066569,0.032367,0.14352,1.6908,0.093208,0.062952
912,0.018226,0.062623,0.028421,0.12741,1.3248,0.06361,0.050455
913,0.020857,0.055717,0.028421,0.10044,0.88216,0.02875,0.042562
914,0.032038,0.050455,0.03434,0.073476,0.48357,0.002769,0.038287
915,0.048153,0.044206,0.042891,0.056374,0.23133,-0.0074258,0.03434
916,0.059005,0.038616,0.050126,0.05473,0.16885,-0.0051238,0.032367
917,0.056046,0.035327,0.053086,0.06624,0.26882,0.00046697,0.030065
918,0.042233,0.038287,0.049797,0.082684,0.44477,0.0060577,0.029736
919,0.027763,0.042562,0.039602,0.094194,0.59111,0.0080309,0.02875
920,0.01987,0.04322,0.022172,0.092879,0.63025,0.0014536,0.02579
921,0.018555,0.036642,0.0054,0.08367,0.55724,-0.014332,0.02283
922,0.022172,0.028092,-0.0031506,0.074791,0.43161,-0.034722,0.021186
923,0.030065,0.018226,-0.0018351,0.073476,0.32572,-0.048205,0.02283
924,0.037629,0.0030979,0.0044134,0.075778,0.27803,-0.051165,0.021186
925,0.041904,-0.026171,0.010333,0.079395,0.29053,-0.048863,0.015595
926,0.044206,-0.073857,0.010004,0.074791,0.35696,-0.050179,0.0080309
927,0.044206,-0.13897,0.0040845,0.059992,0.46384,-0.061031,0.0024402
928,0.041904,-0.20409,-0.0061104,0.037958,0.58125,-0.076159,0.00046697
929,0.032367,-0.25408,-0.01795,0.018884,0.63946,-0.086025,0.00079584
930,0.014608,-0.26822,-0.026829,0.0083598,0.53948,-0.085367,0.00079584
931,-0.0051238,-0.23928,-0.0265,0.0037556,0.20042,-0.072213,-0.00051963
932,-0.020581,-0.1735,-0.01499,0.0030979,-0.37017,-0.053138,-0.0024928
933,-0.023211,-0.083065,0.0054,0.0070443,-1.0519,-0.037024,-0.0047949
934,-0.011043,0.022172,0.030723,0.010333,-1.6666,-0.026829,-0.0041372
935,0.0080309,0.12577,0.059005,0.010004,-2.0661,-0.022554,-0.0015062
936,0.024474,0.21127,0.08367,0.0040845,-2.1826,-0.023211,0.0034268
937,0.030394,0.2629,0.097483,-0.0061104,-2.0448,-0.025842,0.0077021
938,0.028421,0.27014,0.096167,-0.011372,-1.7603,-0.025842,0.013293
939,0.021186,0.24021,0.081697,-0.011372,-1.4544,-0.025185,0.020528
940,0.014937,0.19483,0.061636,-0.0051238,-1.1986,-0.021238,0.024474
941,0.012635,0.16095,0.043877,0.00046697,-0.99304,-0.015319,0.023159
942,0.014937,0.15142,0.032038,0.0047422,-0.80592,-0.016305,0.016581
943,0.020857,0.1626,0.026776,0.013622,-0.6155,-0.026829,0.01132
944,0.029407,0.17904,0.024474,0.029407,-0.42213,-0.042944,0.0077021
945,0.034998,0.1843,0.022501,0.049139,-0.23763,-0.061689,0.002769
946,0.033354,0.17016,0.017568,0.063281,-0.081092,-0.080106,-0.00051963
947,0.02579,0.13793,0.012635,0.065254,0.032367,-0.094905,0.0001381
948,0.015266,0.098798,0.010004,0.059005,0.088603,-0.10378,0.0050711
949,0.0037556,0.068543,0.0093464,0.045851,0.093536,-0.10905,0.01132
950,-0.0077547,0.050784,0.0054,0.023159,0.071831,-0.11036,0.01691
951,-0.019265,0.042891,-0.0024928,-0.00019077,0.043549,-0.11102,0.01987
952,-0.028802,0.041575,-0.014332,-0.021896,0.0047422,-0.11266,0.014937
953,-0.033406,0.042562,-0.025842,-0.040313,-0.073199,-0.11398,0.0040845
954,-0.032749,0.04026,-0.033078,-0.054125,-0.21461,-0.11825,-0.0087413
955,-0.024856,0.038944,-0.033735,-0.052481,-0.4093,-0.12121,-0.013017
956,-0.0041372,0.042891,-0.023869,-0.025185,-0.64017,-0.12286,-0.0034794
957,0.024474,0.055388,-0.0011774,0.02579,-0.90063,-0.12056,0.015266
958,0.049797,0.071173,0.027434,0.081697,-1.1812,-0.1074,0.034011
959,0.059005,0.08367,0.055717,0.12511,-1.4219,-0.082079,0.042233
960,0.052428,0.084986,0.077422,0.14287,-1.5258,-0.04985,0.042891
961,0.039602,0.068871,0.088603,0.13432,-1.4041,-0.015319,0.042891
962,0.032367,0.042233,0.090577,0.11623,-1.021,0.015924,0.047824
963,0.039931,0.015924,0.087288,0.099127,-0.42081,0.041904,0.057032
964,0.060979,-0.0008485,0.078409,0.086301,0.29809,0.06361,0.064925
965,0.084986,-0.0018351,0.067227,0.076764,1.0259,0.08367,0.0692
966,0.1011,0.012306,0.058019,0.068214,1.6836,0.10044,0.067885
967,0.1034,0.035656,0.049139,0.054401,2.2114,0.1182,0.061965
968,0.093208,0.061636,0.039273,0.035656,2.5587,0.13432,0.055388
969,0.079395,0.078737,0.030723,0.019212,2.6633,0.14155,0.052757
970,0.068871,0.083013,0.026447,0.013293,2.4877,0.13859,0.05473
971,0.059992,0.07512,0.028421,0.013622,2.0641,0.13169,0.057361
972,0.055059,0.058348,0.040918,0.011977,1.4925,0.12511,0.057032
973,0.050455,0.037629,0.062623,0.0021113,0.89367,0.11787,0.053743
974,0.048153,0.019541,0.084657,-0.011372,0.36913,0.10899,0.049139
975,0.045522,0.012306,0.094852,-0.025185,-0.019265,0.10044,0.041247
976,0.043549,0.011977,0.085315,-0.034722,-0.24585,0.092879,0.037629
977,0.035656,0.0070443,0.059334,-0.037024,-0.32413,0.083999,0.0373
978,0.021514,-0.0074258,0.029736,-0.035708,-0.30242,0.074133,0.039273
979,0.0054,-0.033078,0.0040845,-0.030447,-0.23632,0.06065,0.037629
980,-0.010057,-0.060045,-0.011701,-0.020909,-0.1689,0.048153,0.035327
981,-0.024527,-0.074186,-0.015319,-0.011372,-0.12286,0.039931,0.035327
982,-0.035708,-0.061031,-0.010057,-0.0061104,-0.10411,0.035985,0.041575
983,-0.041299,-0.019265,-0.0064392,-0.0067681,-0.1051,0.03434,0.052099
984,-0.04393,0.033025,-0.0097279,-0.013017,-0.10707,0.032696,0.061307
985,-0.045246,0.073476,-0.01795,-0.022883,-0.077475,0.031052,0.069529
986,-0.044259,0.090248,-0.024527,-0.0265,0.0047422,0.027763,0.075449
987,-0.039326,0.079066,-0.022554,-0.021567,0.12478,0.022501,0.078409
988,-0.03242,0.044864,-0.01203,-0.0093991,0.22903,0.01987,0.078737
989,-0.027158,0.002769,0.0034268,0.0017824,0.24712,0.018555,0.076106
990,-0.022883,-0.032749,0.017239,0.0077021,0.14254,0.020528,0.065583
991,-0.019594,-0.05544,0.026447,0.0070443,-0.051165,0.025132,0.046837
992,-0.013345,-0.074515,0.031381,0.0024402,-0.25671,0.031052,0.026776
993,-0.00019077,-0.10346,0.035985,-0.0057815,-0.39944,0.033354,0.010333
994,0.019541,-0.15015,0.036314,-0.020581,-0.42871,0.025132,0.0017824
995,0.040918,-0.20672,0.030723,-0.04097,-0.29716,0.011648,-0.0024928
996,0.059005,-0.24585,0.020528,-0.053467,0.030394,0.0014536,0.0014536
997,0.072818,-0.24355,0.013622,-0.045574,0.526,0.00079584,0.012306
998,0.082355,-0.19192,0.013293,-0.013674,1.0542,0.0073732,0.027105
999,0.094523,-0.1074,0.018555,0.030723,1.4222,0.014937,0.042233
1000,0.10834,-0.018278,0.026776,0.074791,1.4774,0.025461,0.050784
1001,0.11985,0.04881,0.032038,0.10768,1.1781,0.039273,0.047495
1002,0.12478,0.082026,0.033683,0.12642,0.58848,0.057032,0.035327
1003,0.12379,0.083999,0.032038,0.12873,-0.14522,0.073476,0.023488
1004,0.1159,0.069529,0.028092,0.11491,-0.83584,0.083342,0.01987
1005,0.10307,0.055388,0.024145,0.091563,-1.3298,0.080711,0.023488
1006,0.087617,0.053086,0.020857,0.065254,-1.5524,0.071831,0.027763
1007,0.068871,0.064267,0.01691,0.043877,-1.5038,0.06361,0.027434
1008,0.050455,0.085315,0.014279,0.033354,-1.244,0.059005,0.01987
1009,0.035327,0.10899,0.015595,0.037958,-0.85492,0.059334,0.0083598
1010,0.024474,0.12642,0.021843,0.054401,-0.3922,0.059663,0.00079584
1011,0.01987,0.13201,0.027763,0.078409,0.12708,0.059005,-0.0011774
1012,0.022172,0.12248,0.031052,0.10143,0.69602,0.061636,0.00046697
1013,0.027105,0.10242,0.030065,0.11985,1.265,0.071502,0.0067154
1014,0.031381,0.079395,0.025132,0.12807,1.7395,0.086959,0.017568
1015,0.031709,0.059005,0.017239,0.12215,2.0079,0.10011,0.027105
1016,0.02579,0.047495,0.0086887,0.10669,2.0,0.10242,0.033354
1017,0.018226,0.046508,0.00079584,0.085644,1.7316,0.086959,0.0373
1018,0.014279,0.050455,-0.0015062,0.067556,1.2936,0.060321,0.040589
1019,0.015266,0.055388,-0.00019077,0.05769,0.80422,0.030723,0.041904
1020,0.018226,0.059663,0.0011247,0.058676,0.36123,0.010004,0.038616
1021,0.021843,0.064596,0.0021113,0.066569,0.010004,0.0017824,0.03434
1022,0.025461,0.07512,0.0063866,0.073804,-0.24881,0.0054,0.030723
1023,0.033025,0.097154,0.013293,0.07216,-0.42739,0.012306,0.026119
1024,0.042562,0.13432,0.018884,0.061636,-0.53723,0.010662,0.022172
1025,0.050126,0.18693,0.023817,0.042233,-0.58656,-0.0034794,0.017568
1026,0.054072,0.24383,0.02875,0.019212,-0.58656,-0.025185,0.011648
1027,0.051441,0.28888,0.03434,-0.0011774,-0.55367,-0.04393,0.0040845
1028,0.043877,0.30566,0.041904,-0.016963,-0.505,-0.056756,-0.0051238
1029,0.032367,0.28198,0.048482,-0.026171,-0.45337,-0.058729,-0.01499
1030,0.020199,0.22212,0.050455,-0.029131,-0.40272,-0.049521,-0.018936
1031,0.0073732,0.14056,0.047495,-0.025842,-0.36129,-0.034064,-0.016963
1032,-0.0008485,0.057032,0.039602,-0.021896,-0.33432,-0.017621,-0.0097279
1033,-0.0041372,-0.0097279,0.025461,-0.017292,-0.3284,-0.0047949,-0.00019077
1034,-0.0038083,-0.048863,0.0073732,-0.012688,-0.33991,0.00046697,0.0080309
1035,-0.0038083,-0.057743,-0.0080836,-0.012359,-0.36984,-0.0028217,0.011648
1036,-0.0093991,-0.046561,-0.015976,-0.016963,-0.41358,-0.01499,0.01132
1037,-0.020581,-0.026829,-0.016305,-0.022883,-0.44942,-0.033735,0.0040845
1038,-0.028802,-0.0047949,-0.012359,-0.030447,-0.45534,-0.050507,-0.0061104
1039,-0.022883,0.022501,-0.0051238,-0.037024,-0.40601,-0.054783,-0.010715
1040,0.0011247,0.053415,0.0050711,-0.039984,-0.30801,-0.044588,-0.011043
1041,0.0373,0.082355,0.01691,-0.037682,-0.19126,-0.025842,-0.0041372
1042,0.066569,0.09551,0.030394,-0.032749,-0.091945,-0.0067681,0.0050711
1043,0.077093,0.083342,0.038616,-0.026171,-0.031762,0.0077021,0.014279
1044,0.067227,0.047824,0.037629,-0.022883,-0.010057,0.015595,0.021186
1045,0.048153,0.0077021,0.028421,-0.021896,-0.0051238,0.023159,0.021514
1046,0.034011,-0.013674,0.014279,-0.01795,0.01987,0.032367,0.015924
1047,0.031052,0.0014536,0.0034268,-0.0061104,0.10044,0.040918,0.0086887
1048,0.034998,0.052099,0.0001381,0.020528,0.24218,0.045522,0.0067154
1049,0.038287,0.11952,0.0054,0.062623,0.42602,0.049139,0.011977
1050,0.038287,0.17773,0.016253,0.10603,0.60624,0.056374,0.021186
1051,0.033683,0.21127,0.027434,0.13169,0.73417,0.064925,0.028092
1052,0.026447,0.21094,0.035985,0.1307,0.78021,0.071173,0.032367
1053,0.015595,0.17937,0.038616,0.10834,0.73713,0.074462,0.035327
1054,0.0021113,0.12642,0.03434,0.079066,0.61907,0.073476,0.038944
1055,-0.011701,0.062294,0.022501,0.05473,0.4543,0.068543,0.039931
1056,-0.022554,-0.0024928,0.0090175,0.039602,0.27441,0.062623,0.037629
1057,-0.026829,-0.066293,0.0001381,0.034998,0.10373,0.05769,0.036971
1058,-0.02354,-0.14226,-0.0028217,0.036971,-0.05544,0.050455,0.039273
1059,-0.012688,-0.22974,0.0014536,0.041247,-0.21264,0.044535,0.040918
1060,0.0030979,-0.30604,0.010004,0.04026,-0.38266,0.048153,0.043549
1061,0.017897,-0.34188,0.021186,0.034998,-0.57012,0.06065,0.047824
1062,0.028421,-0.32215,0.028421,0.027763,-0.76316,0.075778,0.057032
1063,0.033354,-0.25835,0.034669,0.023488,-0.92858,0.089919,0.066569
1064,0.033354,-0.17482,0.038287,0.025132,-1.0282,0.097812,0.073476
1065,0.029736,-0.098193,0.037958,0.034998,-1.0391,0.096167,0.071831
1066,0.024474,-0.04985,0.033683,0.050126,-0.95983,0.085315,0.063281
1067,0.018555,-0.033078,0.028092,0.068543,-0.82039,0.067227,0.050784
1068,0.012964,-0.036037,0.023817,0.08367,-0.68292,0.046508,0.044206
1069,0.0073732,-0.044259,0.023159,0.093536,-0.63852,0.032696,0.047824
1070,0.0017824,-0.041299,0.025461,0.097483,-0.74804,0.030065,0.056374
1071,-0.0024928,-0.024856,0.034669,0.098798,-0.97758,0.034998,0.063281
1072,-0.0041372,-0.0011774,0.04618,0.098141,-1.2242,0.037629,0.065583
1073,-0.0041372,0.025461,0.052428,0.091892,-1.3781,0.030723,0.059334
1074,-0.0084125,0.046508,0.050784,0.076764,-1.3788,0.014937,0.046837
1075,-0.011701,0.055388,0.043877,0.056703,-1.2186,0.0001381,0.035656
1076,-0.007097,0.050784,0.035656,0.034669,-0.93911,-0.0061104,0.029407
1077,0.0096753,0.044206,0.026447,0.014279,-0.60202,-0.0051238,0.027434
1078,0.032038,0.039931,0.016253,-0.004466,-0.2646,0.00046697,0.02875
1079,0.047824,0.034669,0.0070443,-0.018607,0.057361,0.0090175,0.026776
1080,0.052757,0.026119,-0.0028217,-0.027487,0.3882,0.021843,0.019541
1081,0.050784,0.015266,-0.0097279,-0.032749,0.7539,0.03434,0.012964
1082,0.044864,0.0054,-0.013674,-0.035051,1.1426,0.041904,0.013951
1083,0.041247,0.0067154,-0.013017,-0.036695,1.4721,0.038944,0.024474
1084,0.044206,0.018226,-0.0087413,-0.038011,1.633,0.028092,0.038944
1085,0.052757,0.035985,-0.0018351,-0.035708,1.58,0.013951,0.051113
1086,0.063938,0.052428,0.0050711,-0.025842,1.3735,0.0044134,0.054401
1087,0.06624,0.064267,0.01132,-0.0028217,1.1134,0.0030979,0.046508
1088,0.055388,0.073476,0.021843,0.031381,0.84237,0.0093464,0.030723
1089,0.033683,0.07808,0.034998,0.070516,0.53225,0.017897,0.015924
1090,0.0086887,0.079066,0.049139,0.10505,0.16359,0.02283,0.0047422
1091,-0.011043,0.080711,0.060321,0.13103,-0.25079,0.023817,-0.00051963
1092,-0.020581,0.085972,0.066569,0.14648,-0.65036,0.024145,-0.0051238
1093,-0.024198,0.094194,0.067885,0.15306,-0.947,0.024474,-0.01203
1094,-0.024856,0.096825,0.064267,0.14879,-1.0591,0.023817,-0.020581
1095,-0.025514,0.090577,0.059005,0.13333,-0.93812,0.025132,-0.024198
1096,-0.024198,0.077093,0.055388,0.1113,-0.59314,0.029078,-0.020581
1097,-0.017292,0.060321,0.055059,0.087617,-0.13404,0.028421,-0.017292
1098,-0.0015062,0.04618,0.056374,0.0692,0.25337,0.020857,-0.019594
1099,0.014608,0.039273,0.059334,0.056703,0.4201,0.010333,-0.027816
1100,0.027434,0.042233,0.059663,0.049468,0.35104,0.0014536,-0.037024
1101,0.035656,0.052099,0.056046,0.04618,0.15306,-0.0024928,-0.039326
1102,0.039273,0.062952,0.048482,0.049139,-0.038668,-0.0024928,-0.03538
1103,0.0373,0.068214,0.035327,0.055388,-0.13897,-0.002164,-0.028144
1104,0.030723,0.065912,0.021186,0.056703,-0.12944,-0.007097,-0.018278
1105,0.02283,0.06065,0.010004,0.046508,-0.020909,-0.01499,-0.010057
1106,0.017568,0.05769,0.0034268,0.02283,0.17542,-0.019923,-0.0061104
1107,0.014937,0.062294,-0.0008485,-0.0093991,0.4451,-0.018607,-0.0038083
1108,0.017568,0.071173,-0.00019077,-0.038997,0.73154,-0.014003,-0.0011774
1109,0.022501,0.07808,0.0037556,-0.060045,0.93708,-0.012359,0.0054
1110,0.023159,0.077422,0.0083598,-0.070897,0.9795,-0.019923,0.014937
1111,0.019212,0.067885,0.0086887,-0.07583,0.84862,-0.038011,0.023817
1112,0.013293,0.052099,0.0057288,-0.075501,0.61052,-0.062347,0.030394
1113,0.0090175,0.036971,-0.002164,-0.072542,0.35236,-0.082408,0.035656
1114,0.0080309,0.027763,-0.0087413,-0.07024,0.133,-0.090958,0.039931
1115,0.0067154,0.024474,-0.013674,-0.071884,-0.026171,-0.08471,0.045851
1116,0.0037556,0.02283,-0.015976,-0.071884,-0.13141,-0.06432,0.056703
1117,0.0011247,0.018884,-0.018936,-0.066951,-0.18633,-0.03538,0.069529
1118,0.0017824,0.013951,-0.021567,-0.055769,-0.19028,-0.004466,0.073804
1119,0.0044134,0.010662,-0.022883,-0.041628,-0.13272,0.018884,0.067556
1120,0.010662,0.0093464,-0.021567,-0.030118,-0.0011774,0.035985,0.057032
1121,0.020528,0.013622,-0.014003,-0.020909,0.20732,0.043549,0.049797
1122,0.034011,0.023817,0.00046697,-0.0084125,0.47305,0.045851,0.045193
1123,0.046508,0.038616,0.018555,0.0086887,0.72891,0.048482,0.041247
1124,0.055717,0.054072,0.035656,0.031052,0.88348,0.052757,0.039602
1125,0.059992,0.065254,0.048482,0.052428,0.86736,0.058019,0.043549
1126,0.058676,0.067556,0.054072,0.068214,0.68155,0.061636,0.052099
1127,0.053415,0.061636,0.052757,0.07216,0.39149,0.06065,0.061636
1128,0.04618,0.050455,0.042562,0.062952,0.10209,0.058676,0.069858
1129,0.039931,0.040589,0.02875,0.044206,-0.094905,0.06065,0.074133
1130,0.034669,0.034011,0.01691,0.024803,-0.16232,0.064596,0.073476
1131,0.029736,0.032696,0.010333,0.0083598,-0.12746,0.062294,0.064267
1132,0.024145,0.03434,0.0086887,0.0014536,-0.049521,0.053743,0.049468
1133,0.020199,0.032696,0.010991,0.0070443,0.021514,0.038616,0.037958
1134,0.018226,0.027434,0.010991,0.022501,0.067556,0.021186,0.033683
1135,0.017239,0.020528,0.0083598,0.039273,0.090905,0.0040845,0.037958
1136,0.016581,0.017239,0.0037556,0.052099,0.10242,-0.007097,0.045522
1137,0.014608,0.018555,-0.0011774,0.057032,0.11064,-0.0087413,0.051113
1138,0.010662,0.020528,-0.0061104,0.053086,0.11886,-0.0028217,0.052428
1139,0.0030979,0.017897,-0.0054526,0.045851,0.12478,0.0054,0.045193
1140,-0.007097,0.010004,0.0001381,0.037958,0.10866,0.010991,0.032696
1141,-0.015976,-0.00019077,0.010662,0.029407,0.029736,0.0093464,0.015266
1142,-0.020909,-0.011372,0.020857,0.027763,-0.137,0.0011247,0.0001381
1143,-0.015648,-0.02354,0.027105,0.0373,-0.38135,-0.010715,-0.007097
1144,0.00046697,-0.031433,0.032367,0.055388,-0.65431,-0.020252,-0.0041372
1145,0.021843,-0.038339,0.035656,0.074791,-0.90359,-0.024527,0.0047422
1146,0.039602,-0.048863,0.035985,0.085315,-1.0808,-0.023869,0.016581
1147,0.04881,-0.069253,0.034669,0.083013,-1.1627,-0.021567,0.02579
1148,0.04881,-0.10313,0.030065,0.070187,-1.1502,-0.01795,0.031052
1149,0.042891,-0.14719,0.026119,0.052099,-1.0614,-0.0090702,0.033354
1150,0.038616,-0.18666,0.024474,0.034669,-0.91148,0.0044134,0.040918
1151,0.037958,-0.21165,0.024145,0.026119,-0.6895,0.014937,0.049797
1152,0.039602,-0.20376,0.024145,0.02875,-0.35175,0.021843,0.058348
1153,0.036642,-0.15114,0.021514,0.034011,0.13991,0.023817,0.064596
1154,0.031052,-0.05544,0.017568,0.029736,0.75456,0.022172,0.068214
1155,0.027434,0.077422,0.015595,0.014608,1.3988,0.020528,0.068543
1156,0.027434,0.23988,0.020528,-0.0034794,1.9418,0.022501,0.068543
1157,0.032367,0.41352,0.034011,-0.013017,2.2555,0.028092,0.0692
1158,0.038616,0.56612,0.052757,-0.013674,2.2703,0.032367,0.066898
1159,0.045522,0.65722,0.064925,-0.010715,1.9993,0.031052,0.059005
1160,0.050126,0.6605,0.063281,-0.011701,1.5373,0.025132,0.050455
1161,0.05177,0.57829,0.052428,-0.018278,1.0173,0.016581,0.045193
1162,0.048153,0.43753,0.042562,-0.022554,0.56086,0.0054,0.045193
1163,0.039602,0.2754,0.04026,-0.019265,0.22903,-0.0041372,0.045522
1164,0.026776,0.12215,0.04881,-0.010386,0.010662,-0.0077547,0.043549
1165,0.01132,-0.010057,0.061636,0.002769,-0.14095,-0.0054526,0.039602
1166,-0.0018351,-0.12187,0.070187,0.016253,-0.27315,0.00046697,0.0373
1167,-0.0080836,-0.21889,0.068214,0.026447,-0.42871,0.0050711,0.042233
1168,-0.0041372,-0.30308,0.055717,0.03434,-0.62767,0.0040845,0.051441
1169,0.0063866,-0.36951,0.0373,0.042233,-0.83321,-0.0011774,0.05769
1170,0.020528,-0.41654,0.017239,0.04618,-0.97397,-0.010715,0.051441
1171,0.032367,-0.43791,-0.0011774,0.036971,-1.0016,-0.022883,0.032038
1172,0.038287,-0.42048,-0.014661,0.021514,-0.9276,-0.036695,0.0070443
1173,0.041904,-0.35734,-0.024527,0.011977,-0.80197,-0.048863,-0.01203
1174,0.044864,-0.25769,-0.029789,0.014937,-0.67733,-0.055769,-0.024198
1175,0.048482,-0.14522,-0.028144,0.02579,-0.58722,-0.060702,-0.031104
1176,0.056046,-0.047877,-0.023211,0.032696,-0.53723,-0.068266,-0.032749
1177,0.061965,0.018226,-0.018607,0.033683,-0.51553,-0.074844,-0.029131
1178,0.061965,0.052757,-0.013674,0.031381,-0.50336,-0.079448,-0.017292
1179,0.05177,0.064925,-0.007097,0.026447,-0.48034,-0.082408,0.00046697
1180,0.033025,0.066898,0.0017824,0.01987,-0.43594,-0.085039,0.017897
1181,0.012964,0.065583,0.0096753,0.016253,-0.36885,-0.089643,0.031052
1182,-0.0015062,0.064925,0.018226,0.015595,-0.28894,-0.093589,0.035985
1183,-0.004466,0.067885,0.026119,0.015924,-0.19389,-0.090629,0.032367
1184,0.0060577,0.073147,0.031381,0.013622,-0.069582,-0.080106,0.024145
1185,0.02579,0.077422,0.032038,0.0096753,0.10044,-0.063333,0.014608
1186,0.043877,0.080053,0.030723,0.0077021,0.31421,-0.042944,0.0054
1187,0.058019,0.079066,0.027763,0.010662,0.55296,-0.025514,-0.00051963
1188,0.068871,0.076764,0.027105,0.022501,0.78087,-0.010057,0.00046697
1189,0.076106,0.072818,0.030723,0.045851,0.9384,0.0080309,0.0057288
1190,0.079066,0.066569,0.038616,0.082355,0.97194,0.026776,0.013293
1191,0.081368,0.056703,0.047495,0.12807,0.85421,0.041247,0.022501
1192,0.089919,0.046837,0.055059,0.17016,0.58815,0.047495,0.031381
1193,0.10439,0.043549,0.059663,0.1968,0.21851,0.047824,0.034669
1194,0.12017,0.048482,0.059663,0.1991,-0.19554,0.047166,0.034011
1195,0.13037,0.05473,0.057032,0.18266,-0.59051,0.04618,0.032367
1196,0.133,0.064596,0.053086,0.16095,-0.90227,0.04881,0.029407
1197,0.12873,0.07512,0.050784,0.14418,-1.0726,0.057361,0.027105
1198,0.11458,0.08663,0.052099,0.1353,-1.0693,0.071173,0.027434
1199,0.09551,0.10077,0.057032,0.12675,-0.89931,0.085644,0.031381
1200,0.075449,0.11458,0.061965,0.11327,-0.58952,0.097483,0.033683
1201,0.054072,0.12346,0.064596,0.094852,-0.17778,0.10176,0.031381
1202,0.035985,0.12116,0.062294,0.07512,0.2777,0.10143,0.025132
1203,0.028092,0.10899,0.052757,0.060321,0.68813,0.1011,0.020857
1204,0.02875,0.092221,0.037958,0.049797,0.96898,0.10373,0.020857
1205,0.030723,0.07512,0.020199,0.039273,1.0851,0.1057,0.024803
1206,0.028421,0.062294,0.0047422,0.025461,1.0601,0.10209,0.024474
1207,0.023159,0.056046,-0.0064392,0.0086887,0.9532,0.087288,0.014608
1208,0.015595,0.056374,-0.010386,-0.0087413,0.82395,0.066898,-0.002164
1209,0.0083598,0.059005,-0.011043,-0.02354,0.71378,0.049797,-0.019265
1210,0.0030979,0.056374,-0.0097279,-0.03242,0.62926,0.039273,-0.026829
1211,-0.0031506,0.042562,-0.011043,-0.035051,0.55658,0.035656,-0.026171
1212,-0.0087413,0.01987,-0.015648,-0.034064,0.46943,0.036971,-0.019594
1213,-0.011043,-0.0051238,-0.021896,-0.029131,0.34052,0.038616,-0.013674
1214,-0.0097279,-0.022225,-0.025514,-0.019594,0.14484,0.037958,-0.0064392
1215,-0.0064392,-0.028473,-0.020909,-0.0031506,-0.13272,0.0373,0.0037556
1216,-0.0018351,-0.02354,-0.0090702,0.014608,-0.48527,0.042233,0.017568
1217,0.00046697,-0.010057,0.0067154,0.030723,-0.84735,0.052757,0.031381
1218,0.0037556,0.0070443,0.025461,0.038287,-1.1088,0.064925,0.04322
1219,0.0083598,0.018884,0.041247,0.0373,-1.1831,0.072818,0.049468
1220,0.013293,0.023817,0.050126,0.029078,-1.0529,0.073804,0.052099
1221,0.011977,0.029736,0.052428,0.020857,-0.77632,0.068871,0.056046
1222,0.0034268,0.042233,0.052099,0.023817,-0.44844,0.060979,0.059992
1223,-0.0080836,0.06065,0.051441,0.039602,-0.16364,0.05177,0.059663
1224,-0.01795,0.074791,0.050126,0.065254,0.0080309,0.04026,0.055388
1225,-0.018936,0.081697,0.04881,0.085972,0.041904,0.024803,0.05177
1226,-0.010057,0.084657,0.043877,0.092221,-0.027816,0.0086887,0.048153
1227,0.0034268,0.08367,0.034669,0.083013,-0.12549,-0.0031506,0.045522
1228,0.011648,0.07808,0.022172,0.061965,-0.18074,-0.0093991,0.045851
1229,0.0093464,0.065583,0.0070443,0.036971,-0.16594,-0.014661,0.046837
1230,-0.0011774,0.050126,-0.0090702,0.018226,-0.10115,-0.022554,0.044864
1231,-0.012359,0.031709,-0.019923,0.012306,-0.034393,-0.030775,0.039931
1232,-0.016963,0.0096753,-0.02354,0.019212,-0.034064,-0.034064,0.037629
1233,-0.014332,-0.0077547,-0.018278,0.035985,-0.14851,-0.033078,0.036642
1234,-0.0087413,-0.015319,-0.0084125,0.052099,-0.37674,-0.029789,0.031709
1235,-0.0034794,-0.011043,0.0037556,0.061636,-0.66516,-0.024198,0.024474
1236,-0.0041372,0.00079584,0.014608,0.062623,-0.92891,-0.01499,0.016581
1237,-0.011043,0.016253,0.017239,0.059992,-1.0805,-0.0057815,0.01132
1238,-0.01795,0.031052,0.013951,0.053415,-1.0624,0.0034268,0.0077021
1239,-0.019265,0.040589,0.0090175,0.043549,-0.85919,0.010662,0.0057288
1240,-0.013674,0.049139,0.0060577,0.0373,-0.51355,0.013951,0.0080309
1241,0.0014536,0.054401,0.0096753,0.046508,-0.14917,0.013622,0.016253
1242,0.020528,0.060321,0.020199,0.073804,0.073147,0.015924,0.031052
1243,0.037629,0.0692,0.035327,0.10242,0.030065,0.023488,0.047495
1244,0.048153,0.081039,0.049468,0.10998,-0.29255,0.037958,0.058019
1245,0.054401,0.091234,0.06361,0.088275,-0.78783,0.056374,0.059663
1246,0.057032,0.096825,0.075778,0.044864,-1.2683,0.077093,0.055717
1247,0.054401,0.093208,0.08367,-0.0051238,-1.5482,0.098798,0.049139
1248,0.042891,0.082684,0.082684,-0.043601,-1.5143,0.11426,0.039602
1249,0.027763,0.068214,0.070187,-0.06432,-1.1525,0.11721,0.028092
1250,0.016253,0.052099,0.050126,-0.068595,-0.5346,0.10768,0.011648
1251,0.0080309,0.040918,0.027105,-0.06136,0.21982,0.093208,-0.0093991
1252,0.0054,0.039273,0.0070443,-0.039655,0.98542,0.082355,-0.026829
1253,0.0080309,0.045522,-0.0034794,-0.0057815,1.6655,0.080382,-0.033406
1254,0.013951,0.056046,-0.00051963,0.037958,2.1782,0.086301,-0.027158
1255,0.020528,0.065912,0.0073732,0.082355,2.4637,0.093536,-0.01499
1256,0.027434,0.070845,0.015266,0.11721,2.4916,0.094852,-0.0018351
1257,0.030394,0.068214,0.017239,0.13267,2.2677,0.09551,0.010004
1258,0.03434,0.059663,0.018226,0.12083,1.8546,0.098469,0.018555
1259,0.039273,0.04881,0.018555,0.08663,1.3633,0.10044,0.023817
1260,0.040918,0.040589,0.018555,0.044206,0.91077,0.099127,0.027763
1261,0.036642,0.0373,0.014279,0.0024402,0.56875,0.087617,0.030394
1262,0.02579,0.038287,0.0047422,-0.033735,0.34644,0.067556,0.029736
1263,0.010662,0.042891,-0.0038083,-0.060045,0.2139,0.046837,0.023159
1264,-0.0047949,0.047824,-0.0077547,-0.075501,0.13432,0.033025,0.011648
1265,-0.012688,0.053743,-0.0093991,-0.082408,0.084657,0.02579,0.0014536
1266,-0.0090702,0.062623,-0.011372,-0.082736,0.050784,0.020199,-0.0038083
1267,0.0034268,0.071831,-0.015648,-0.076817,0.02579,0.013622,-0.0051238
1268,0.021514,0.081697,-0.017292,-0.06432,0.0073732,0.0080309,-0.0047949
1269,0.0373,0.090248,-0.0093991,-0.049192,-0.011372,0.0057288,-0.00051963
1270,0.047495,0.094852,0.010333,-0.035051,-0.031104,0.01132,0.0096753
1271,0.053415,0.090577,0.037629,-0.025842,-0.051494,0.02579,0.023488
1272,0.052099,0.074791,0.066569,-0.022883,-0.063333,0.04026,0.03434
1273,0.045851,0.052099,0.091563,-0.021238,-0.06136,0.052757,0.040589
1274,0.038616,0.027763,0.10439,-0.01795,-0.04393,0.060979,0.041575
1275,0.03434,0.0073732,0.10077,-0.010057,-0.020252,0.065912,0.037958
1276,0.029407,-0.012359,0.084657,0.00046697,-0.0024928,0.066569,0.032696
1277,0.023817,-0.038011,0.059992,0.014608,0.014608,0.063281,0.02875
1278,0.018226,-0.071555,0.032038,0.033683,0.058348,0.053086,0.028421
1279,0.013622,-0.10806,0.0047422,0.050455,0.15799,0.034011,0.031709
1280,0.010004,-0.1393,-0.017621,0.058676,0.31684,0.012306,0.036971
1281,0.0057288,-0.15805,-0.028144,0.059663,0.49771,-0.0051238,0.043877
1282,0.0011247,-0.15969,-0.028144,0.058676,0.64209,-0.010057,0.052757
1283,-0.0008485,-0.14325,-0.021567,0.057032,0.70194,0.00046697,0.06065
1284,0.00046697,-0.11497,-0.011701,0.051113,0.66577,0.01987,0.062952
1285,0.0037556,-0.083394,0.00079584,0.041575,0.56086,0.038616,0.06065
1286,0.0077021,-0.052152,0.017239,0.032367,0.42734,0.05473,0.053415
1287,0.012964,-0.023869,0.031052,0.031052,0.28362,0.0692,0.04618
1288,0.018884,0.00046697,0.039602,0.041904,0.12905,0.081697,0.042562
1289,0.025132,0.022172,0.041904,0.057361,-0.058071,0.093536,0.044864
1290,0.033354,0.043549,0.041904,0.070516,-0.29387,0.096496,0.050126
1291,0.042891,0.063281,0.041904,0.076435,-0.56157,0.088275,0.054072
1292,0.050126,0.076106,0.042891,0.073804,-0.82302,0.065583,0.054401
1293,0.054072,0.079724,0.044864,0.066569,-1.0371,0.038287,0.053086
1294,0.053743,0.07512,0.043549,0.057032,-1.1664,0.010662,0.052428
1295,0.050455,0.06624,0.037629,0.047824,-1.1923,-0.015648,0.050126
1296,0.04322,0.056703,0.027763,0.041575,-1.1072,-0.042615,0.048482
1297,0.032367,0.049468,0.018884,0.039602,-0.91082,-0.067609,0.046837
1298,0.021843,0.048153,0.013951,0.04026,-0.62866,-0.086025,0.048482
1299,0.016581,0.050784,0.012635,0.043877,-0.31886,-0.095562,0.052099
1300,0.01987,0.054072,0.013293,0.040918,-0.048205,-0.094905,0.055059
1301,0.027763,0.055717,0.011977,0.030723,0.1353,-0.087669,0.052757
1302,0.032038,0.054401,0.010004,0.015595,0.22114,-0.07879,0.046837
1303,0.033683,0.051113,0.0096753,0.0040845,0.22936,-0.068595,0.041575
1304,0.033025,0.04881,0.010662,-0.0061104,0.19121,-0.058729,0.034669
1305,0.029078,0.04618,0.010991,-0.012359,0.1432,-0.049521,0.02579
1306,0.02283,0.039602,0.011977,-0.016634,0.1113,-0.043601,0.015924
1307,0.012306,0.031052,0.0086887,-0.017621,0.097483,-0.039655,0.0096753
1308,0.0011247,0.02579,0.002769,-0.01795,0.082026,-0.036037,0.0086887
1309,-0.007097,0.022172,-0.0041372,-0.014661,0.046837,-0.031762,0.010662
1310,-0.0097279,0.019212,-0.007097,-0.01499,-0.019594,-0.026171,0.013293
1311,-0.0064392,0.015266,-0.0051238,-0.019265,-0.11036,-0.018278,0.013622
1312,0.0017824,0.010004,0.0001381,-0.026171,-0.19916,-0.010715,0.012635
1313,0.0067154,0.0063866,0.0037556,-0.032749,-0.25835,-0.0051238,0.015924
1314,0.0077021,0.011648,0.0057288,-0.034722,-0.2748,-0.0024928,0.020857
1315,0.0050711,0.025132,0.0073732,-0.022883,-0.24783,-0.00051963,0.023159
1316,0.0037556,0.038616,0.010662,0.012964,-0.18337,0.0044134,0.023817
1317,0.0077021,0.045851,0.016581,0.07216,-0.1028,0.0070443,0.020857
1318,0.016253,0.047166,0.025132,0.13728,-0.038997,0.0024402,0.015924
1319,0.02579,0.043549,0.037958,0.18924,-0.028144,-0.0090702,0.0096753
1320,0.031709,0.040918,0.05177,0.21193,-0.09326,-0.020252,0.0017824
1321,0.031052,0.042562,0.06361,0.20371,-0.2452,-0.021896,-0.004466
1322,0.027763,0.050126,0.071831,0.17082,-0.47277,-0.013674,-0.0057815
1323,0.026776,0.059663,0.075778,0.12577,-0.72765,-0.0011774,-0.0024928
1324,0.030723,0.070187,0.073476,0.080711,-0.92825,0.0047422,0.002769
1325,0.038287,0.075449,0.066569,0.047166,-0.9937,0.0044134,0.0090175
1326,0.045851,0.072489,0.059663,0.031052,-0.88353,0.00046697,0.013293
1327,0.047824,0.060321,0.052099,0.029078,-0.61978,-0.0024928,0.016253
1328,0.042891,0.048153,0.044535,0.036971,-0.27907,-0.0041372,0.017239
1329,0.034011,0.052099,0.037629,0.047824,0.048153,-0.0011774,0.014608
1330,0.024803,0.082355,0.031052,0.057032,0.29612,0.0054,0.013951
1331,0.018884,0.13234,0.025461,0.058348,0.44214,0.010004,0.015266
1332,0.015595,0.18233,0.017897,0.050455,0.49969,0.010662,0.017568
1333,0.013622,0.21555,0.010662,0.036314,0.49607,0.0073732,0.020199
1334,0.010662,0.21949,0.0080309,0.021186,0.45924,0.0024402,0.021186
1335,0.0080309,0.18891,0.011648,0.0090175,0.40432,-0.002164,0.016581
1336,0.0040845,0.12971,0.016581,0.0054,0.33624,-0.0011774,0.010333
1337,0.0021113,0.061965,0.020857,0.0086887,0.26751,0.0096753,0.0060577
1338,0.0017824,0.0093464,0.021186,0.013293,0.21489,0.030394,0.0017824
1339,0.0050711,-0.019923,0.018555,0.017568,0.18496,0.055717,0.00046697
1340,0.012635,-0.034722,0.012964,0.018884,0.17838,0.076435,0.0014536
1341,0.030065,-0.059716,0.0096753,0.016253,0.20009,0.085315,0.0060577
1342,0.053415,-0.10872,0.0083598,0.013293,0.26652,0.086959,0.014608
1343,0.077093,-0.17219,0.013622,0.011648,0.39116,0.085644,0.024474
1344,0.090248,-0.22546,0.022501,0.010662,0.56119,0.078737,0.035656
1345,0.092221,-0.24289,0.032038,0.013293,0.72562,0.064267,0.044206
1346,0.083999,-0.21626,0.038616,0.019541,0.82921,0.045193,0.049468
1347,0.0692,-0.15443,0.042233,0.023488,0.84401,0.024803,0.049468
1348,0.051113,-0.080763,0.039602,0.021186,0.78153,0.0067154,0.047824
1349,0.034011,-0.020909,0.029407,0.012635,0.67958,-0.0097279,0.042562
1350,0.018884,0.011648,0.014937,0.0017824,0.57533,-0.021896,0.03434
1351,0.0060577,0.017897,0.0044134,-0.0074258,0.49377,-0.030447,0.021843
1352,-0.002164,0.0086887,0.0011247,-0.013674,0.43918,-0.033406,0.013293
1353,-0.0024928,0.0001381,0.0034268,-0.014003,0.39905,-0.033406,0.0096753
1354,0.002769,-0.0008485,0.0080309,-0.016634,0.354,-0.036695,0.013293
1355,0.010004,0.0073732,0.014279,-0.026171,0.29875,-0.04393,0.021186
1356,0.018884,0.018884,0.020857,-0.041299,0.23594,-0.052481,0.026447
1357,0.027105,0.03434,0.026776,-0.058071,0.16622,-0.056756,0.026447
1358,0.0373,0.04881,0.030723,-0.07287,0.070187,-0.053467,0.01987
1359,0.043549,0.061965,0.031709,-0.075501,-0.092931,-0.044259,0.010991
1360,0.042562,0.06361,0.029736,-0.06136,-0.3284,-0.03242,0.0067154
1361,0.035985,0.058676,0.02579,-0.02946,-0.58229,-0.0265,0.010333
1362,0.026119,0.047495,0.022501,0.010004,-0.76514,-0.026171,0.01987
1363,0.018884,0.035327,0.019212,0.048153,-0.81973,-0.029131,0.026776
1364,0.017897,0.02579,0.015266,0.07512,-0.74508,-0.031104,0.027105
1365,0.021186,0.026119,0.0096753,0.082026,-0.58656,-0.030775,0.025461
1366,0.026776,0.03434,0.0030979,0.073804,-0.39549,-0.026829,0.02875
1367,0.027763,0.04881,-0.00051963,0.068871,-0.2031,-0.017621,0.035985
1368,0.024474,0.063938,0.0021113,0.082355,-0.027487,-0.0054526,0.041247
1369,0.021186,0.074791,0.010662,0.11524,0.11886,0.0063866,0.045193
1370,0.022501,0.083013,0.01987,0.15832,0.22541,0.017568,0.049468
1371,0.033354,0.088275,0.025461,0.19318,0.27902,0.032367,0.054072
1372,0.054072,0.093536,0.024474,0.20075,0.2754,0.05177,0.06065
1373,0.076435,0.11031,0.017239,0.17575,0.22245,0.071173,0.068214
1374,0.092221,0.14616,0.0093464,0.12675,0.1376,0.083999,0.070845
1375,0.096825,0.19187,0.0050711,0.067885,0.043549,0.089919,0.068543
1376,0.090905,0.23298,0.0057288,0.016581,-0.04097,0.088932,0.062952
1377,0.073804,0.25402,0.011648,-0.01499,-0.10839,0.082684,0.056374
1378,0.050126,0.24975,0.01987,-0.022225,-0.15246,0.076764,0.048482
1379,0.024145,0.22179,0.027763,-0.010386,-0.17285,0.069529,0.037958
1380,-0.0008485,0.17608,0.031709,0.010662,-0.17022,0.060979,0.026447
1381,-0.018607,0.11327,0.032367,0.035656,-0.14456,0.052428,0.019212
1382,-0.024527,0.042233,0.03434,0.05769,-0.095891,0.048153,0.017239
1383,-0.020909,-0.031104,0.035656,0.075449,-0.031104,0.047824,0.019541
1384,-0.01203,-0.1051,0.035985,0.092879,0.042562,0.049139,0.023159
1385,-0.007097,-0.18666,0.03434,0.10801,0.12379,0.055388,0.026119
1386,-0.0064392,-0.27874,0.032038,0.11689,0.2241,0.063938,0.026447
1387,-0.010715,-0.36458,0.030394,0.11952,0.37472,0.075449,0.023817
1388,-0.012359,-0.41095,0.028092,0.1159,0.58322,0.085972,0.020199
1389,-0.010386,-0.39549,0.02283,0.11097,0.79896,0.087617,0.014608
1390,-0.0080836,-0.32117,0.016581,0.10274,0.94333,0.075449,0.0070443
1391,-0.010386,-0.21428,0.0096753,0.090905,0.95648,0.054072,-0.0024928
1392,-0.016963,-0.10773,0.0034268,0.076435,0.84204,0.030723,-0.0077547
1393,-0.025185,-0.029789,0.002769,0.059005,0.65754,0.012635,-0.0057815
1394,-0.031433,0.010004,0.0054,0.038287,0.46779,0.0014536,0.0034268
1395,-0.031104,0.019541,0.01132,0.017239,0.31158,-0.0051238,0.016581
1396,-0.027158,0.013293,0.018555,0.0034268,0.1968,-0.0093991,0.030723
1397,-0.021238,0.0047422,0.027105,0.00046697,0.1136,-0.014332,0.039273
1398,-0.020252,0.0024402,0.034669,0.0034268,0.050126,-0.016634,0.041247
1399,-0.019594,0.0086887,0.039273,0.0037556,-0.002164,-0.014332,0.03434
1400,-0.016634,0.025132,0.039931,-0.0067681,-0.046232,-0.007097,0.025132
1401,-0.0087413,0.047824,0.037958,-0.024198,-0.087012,0.0070443,0.022172
1402,0.0063866,0.074791,0.035656,-0.042615,-0.13897,0.027763,0.029407
1403,0.029407,0.099785,0.032038,-0.054125,-0.21955,0.049797,0.043549
1404,0.056046,0.11689,0.029078,-0.056756,-0.34846,0.067227,0.056703
1405,0.081697,0.12675,0.029078,-0.04985,-0.53986,0.080711,0.066569
1406,0.10439,0.133,0.031381,-0.038668,-0.78421,0.091234,0.07512
1407,0.1205,0.13432,0.031381,-0.029789,-1.0483,0.093865,0.082684
1408,0.12905,0.13201,0.027105,-0.028473,-1.2884,0.085972,0.087946
1409,0.13267,0.12412,0.019541,-0.033735,-1.464,0.065583,0.085315
1410,0.12905,0.1159,0.0096753,-0.038668,-1.5406,0.039602,0.075778
1411,0.12182,0.10998,0.00046697,-0.038997,-1.4877,0.014937,0.060321
1412,0.10965,0.10834,-0.0028217,-0.032749,-1.3042,0.0021113,0.038944
1413,0.096825,0.10866,0.0014536,-0.021896,-1.0144,0.00079584,0.019212
1414,0.085644,0.10801,0.01132,-0.0087413,-0.64806,0.0037556,0.0073732
1415,0.074133,0.10636,0.022501,0.0067154,-0.21461,0.0060577,0.0034268
1416,0.062294,0.10143,0.033354,0.02283,0.29119,0.0060577,0.0063866
1417,0.049139,0.095181,0.039273,0.0373,0.85815,0.0034268,0.013951
1418,0.039602,0.093208,0.040918,0.04618,1.4383,0.0011247,0.01987
1419,0.036314,0.10077,0.040589,0.046837,1.9316,0.002769,0.020528
1420,0.037958,0.11426,0.037629,0.037629,2.2253,0.0080309,0.015266
1421,0.04322,0.12544,0.031709,0.020199,2.2522,0.016581,0.0086887
1422,0.046508,0.12741,0.022172,-0.0034794,2.0148,0.024803,0.0057288
1423,0.045851,0.11886,0.0090175,-0.0265,1.5738,0.028421,0.0060577
1424,0.04026,0.10636,-0.0034794,-0.040313,1.0295,0.033354,0.0073732
1425,0.031709,0.094523,-0.0097279,-0.038668,0.52402,0.048153,0.0093464
1426,0.02579,0.08367,-0.0067681,-0.015976,0.19022,0.073804,0.013293
1427,0.027105,0.073147,0.0040845,0.021514,0.06065,0.10899,0.020199
1428,0.031709,0.06065,0.019212,0.055388,0.052099,0.14714,0.030065
1429,0.034669,0.048153,0.029078,0.073147,0.014279,0.17214,0.036314
1430,0.034011,0.038287,0.027434,0.067885,-0.16462,0.16983,0.036642
1431,0.030394,0.033025,0.013951,0.045522,-0.50237,0.14024,0.030065
1432,0.026447,0.030723,-0.0067681,0.0096753,-0.91707,0.095839,0.019541
1433,0.024145,0.027763,-0.025842,-0.030118,-1.2732,0.053743,0.0096753
1434,0.021514,0.025461,-0.035708,-0.060702,-1.4597,0.02283,0.0060577
1435,0.02283,0.028421,-0.033078,-0.070568,-1.4429,0.0044134,0.010662
1436,0.032038,0.044206,-0.015976,-0.057085,-1.2808,-0.0051238,0.020857
1437,0.051441,0.07808,0.013293,-0.023869,-1.0776,-0.0028217,0.033025
1438,0.072818,0.12248,0.047824,0.017897,-0.9105,0.0073732,0.044864
1439,0.086959,0.15964,0.076764,0.054401,-0.79046,0.018555,0.055059
1440,0.085644,0.17082,0.089261,0.076764,-0.68292,0.023488,0.06065
1441,0.071502,0.14846,0.084986,0.085644,-0.54644,0.023159,0.056374
1442,0.055388,0.1034,0.072489,0.083342,-0.37082,0.017897,0.04322
1443,0.038944,0.054072,0.057032,0.072818,-0.18173,0.0077021,0.030065
1444,0.020199,0.018555,0.048482,0.053743,-0.021238,-0.004466,0.020199
1445,-0.0018351,0.0070443,0.045522,0.030723,0.086301,-0.014661,0.011648
1446,-0.024856,0.013622,0.043877,0.0086887,0.13267,-0.021896,0.0050711
1447,-0.041957,0.026119,0.038616,-0.0041372,0.12741,-0.029131,-0.00051963
1448,-0.053138,0.03434,0.029078,-0.0047949,0.089261,-0.036366,-0.0061104
1449,-0.056427,0.033025,0.017568,0.0054,0.032696,-0.042286,-0.012688
1450,-0.052481,0.023817,0.010004,0.020528,-0.038997,-0.049192,-0.017292
1451,-0.040641,0.010991,0.0073732,0.036314,-0.12845,-0.054454,-0.016634
1452,-0.024856,0.002769,0.012306,0.054072,-0.23336,-0.060702,-0.013674
1453,-0.0097279,0.0034268,0.024474,0.071502,-0.33958,-0.066951,-0.011043
1454,-0.00051963,0.014608,0.035985,0.085972,-0.41522,-0.066622,-0.010386
1455,0.0054,0.026119,0.042562,0.095839,-0.4343,-0.054454,-0.0074258
1456,0.0090175,0.01987,0.042233,0.098141,-0.38924,-0.027816,-0.0011774
1457,0.01132,-0.022225,0.034998,0.097483,-0.28104,0.0030979,0.0054
1458,0.010991,-0.10082,0.023817,0.10209,-0.1176,0.026447,0.011977
1459,0.0073732,-0.19324,0.010333,0.11623,0.077751,0.034998,0.020528
1460,0.0001381,-0.26789,0.0001381,0.13432,0.26718,0.034669,0.031052
1461,-0.011372,-0.29782,-0.010386,0.14254,0.40596,0.031381,0.039273
1462,-0.027487,-0.27414,-0.020909,0.13267,0.46351,0.029736,0.041247
1463,-0.042615,-0.20475,-0.026829,0.10866,0.44608,0.030394,0.037958
1464,-0.050507,-0.10477,-0.020252,0.083999,0.38031,0.033683,0.030723
1465,-0.04393,0.0096753,0.0001381,0.06624,0.30204,0.039602,0.019212
1466,-0.024527,0.12313,0.029736,0.06065,0.23857,0.044206,0.014608
1467,0.0060577,0.21588,0.061307,0.060321,0.20667,0.048153,0.023817
1468,0.034998,0.26718,0.084986,0.058348,0.20469,0.047495,0.041904
1469,0.051441,0.26751,0.097812,0.055388,0.21752,0.041904,0.059005
1470,0.050455,0.22311,0.094852,0.049468,0.23067,0.036642,0.070845
1471,0.037629,0.15372,0.077751,0.040589,0.23363,0.03434,0.076435
1472,0.020199,0.081368,0.05473,0.02875,0.22475,0.035327,0.079066
1473,0.0083598,0.022501,0.032696,0.013622,0.21522,0.036642,0.079066
1474,0.0080309,-0.013017,0.014937,0.0017824,0.21193,0.039602,0.070845
1475,0.014937,-0.022225,0.0034268,0.0030979,0.21522,0.04026,0.054401
1476,0.022172,-0.015319,-0.0011774,0.018555,0.21982,0.034011,0.035656
1477,0.026447,-0.002164,0.0001381,0.039273,0.22541,0.018884,0.020199
1478,0.026447,0.0086887,0.0040845,0.053086,0.23528,-0.00051963,0.012306
1479,0.02283,0.018555,0.0083598,0.04881,0.25172,-0.015648,0.0093464
1480,0.020199,0.03434,0.011648,0.030065,0.26784,-0.020581,0.012306
1481,0.026119,0.062623,0.012306,0.0077021,0.27968,-0.01795,0.017239
1482,0.040589,0.10702,0.014279,-0.010057,0.28132,-0.013345,0.026119
1483,0.054401,0.15767,0.016581,-0.01499,0.27376,-0.010386,0.034669
1484,0.061965,0.19516,0.01691,-0.0090702,0.2629,-0.0084125,0.038616
1485,0.064596,0.20075,0.012306,0.0001381,0.25468,-0.0041372,0.037958
1486,0.063938,0.17444,0.002769,0.0093464,0.25205,0.0037556,0.035985
1487,0.058019,0.12741,-0.0057815,0.011977,0.25468,0.012635,0.033354
1488,0.049139,0.080711,-0.010057,0.0060577,0.26225,0.017897,0.033025
1489,0.037629,0.050455,-0.010715,-0.0041372,0.26455,0.017897,0.033683
1490,0.029078,0.04026,-0.010057,-0.012359,0.23988,0.012306,0.035656
1491,0.02579,0.042562,-0.0087413,-0.015976,0.15701,0.0014536,0.036642
1492,0.027434,0.045522,-0.004466,-0.015648,0.0057288,-0.010715,0.037629
1493,0.030723,0.044206,-0.00019077,-0.011701,-0.18271,-0.019594,0.038287
1494,0.034011,0.038944,0.0050711,-0.0061104,-0.34419,-0.026829,0.037958
1495,0.035985,0.027763,0.010662,0.0057288,-0.43923,-0.03242,0.03434
1496,0.036971,0.010333,0.015595,0.02579,-0.46422,-0.036695,0.028421
1497,0.034998,-0.01203,0.015595,0.046508,-0.44778,-0.043272,0.019541
1498,0.033354,-0.034064,0.011977,0.06065,-0.42213,-0.051494,0.010004
1499,0.033683,-0.051165,0.0047422,0.067227,-0.40009,-0.06136,0.0024402
1500,0.033683,-0.059716,-0.0018351,0.070845,-0.38036,-0.066951,-0.00019077
1501,0.034669,-0.059387,0.00046697,0.07216,-0.35274,-0.06136,-0.00051963
1502,0.034998,-0.050179,0.0093464,0.067227,-0.30604,-0.046232,0.0017824
1503,0.036314,-0.034064,0.021186,0.056374,-0.22842,-0.023869,0.0093464
1504,0.040918,-0.015648,0.032367,0.045851,-0.11694,-0.00019077,0.020528
1505,0.045851,-0.0008485,0.0373,0.039602,0.011977,0.020528,0.030065
1506,0.047824,0.0057288,0.038616,0.039931,0.12971,0.033354,0.035327
1507,0.045851,0.00046697,0.034998,0.046508,0.21292,0.034669,0.0373
1508,0.041904,-0.0090702,0.027105,0.052099,0.26192,0.025461,0.039602
1509,0.037958,-0.018936,0.015924,0.049139,0.30368,0.014279,0.04026
1510,0.035656,-0.02354,0.0060577,0.039931,0.37176,0.010333,0.0373
1511,0.0373,-0.022883,0.0001381,0.032038,0.4862,0.017239,0.029078
1512,0.039273,-0.020252,0.0001381,0.029736,0.63814,0.030394,0.020199
1513,0.039931,-0.017292,0.0070443,0.037629,0.78876,0.041904,0.01691
1514,0.035985,-0.015976,0.019212,0.049468,0.88676,0.050126,0.01987
1515,0.026447,-0.016963,0.032367,0.053743,0.87493,0.052757,0.024145
1516,0.011977,-0.020252,0.039931,0.047824,0.71674,0.047824,0.028092
1517,-0.0054526,-0.025185,0.040918,0.032367,0.40662,0.034669,0.026447
1518,-0.021896,-0.030118,0.035656,0.0073732,-0.024856,0.013951,0.023159
1519,-0.033406,-0.029131,0.029407,-0.01795,-0.50138,-0.0090702,0.018555
1520,-0.036695,-0.021567,0.025461,-0.03242,-0.92957,-0.02946,0.010991
1521,-0.032091,-0.0064392,0.027763,-0.030447,-1.2295,-0.044588,0.0030979
1522,-0.024856,0.011648,0.033683,-0.01203,-1.3505,-0.050507,-0.0008485
1523,-0.018278,0.025132,0.039602,0.0086887,-1.2726,-0.049521,0.0001381
1524,-0.016963,0.031709,0.0373,0.02283,-1.022,-0.04393,0.0024402
1525,-0.01795,0.032367,0.029078,0.026119,-0.66385,-0.038011,0.0060577
1526,-0.016634,0.027105,0.018555,0.014937,-0.26888,-0.033735,0.0070443
1527,-0.010715,0.020199,0.0083598,-0.0090702,0.12281,-0.03538,0.0040845
1528,-0.0041372,0.017568,0.0017824,-0.034064,0.51514,-0.040641,-0.0011774
1529,0.0017824,0.020857,0.002769,-0.047548,0.9384,-0.040641,-0.0018351
1530,0.010333,0.028421,0.01132,-0.036695,1.3952,-0.027487,0.0080309
1531,0.021514,0.035985,0.027434,0.0021113,1.803,0.0040845,0.029736
1532,0.036314,0.04026,0.04618,0.055717,2.0141,0.052757,0.059334
1533,0.051113,0.042891,0.062294,0.10044,1.9099,0.1034,0.08367
1534,0.059334,0.042562,0.073476,0.11623,1.4794,0.13464,0.094852
1535,0.058676,0.042562,0.077751,0.097483,0.82362,0.13662,0.090577
1536,0.050455,0.04026,0.074462,0.055388,0.11327,0.11097,0.072489
1537,0.039602,0.034998,0.06361,0.010991,-0.45074,0.068871,0.04881
1538,0.032367,0.027763,0.049468,-0.014332,-0.7237,0.023817,0.026776
1539,0.029407,0.025461,0.036971,-0.013674,-0.68095,-0.011043,0.010333
1540,0.029078,0.032367,0.030394,0.010991,-0.39944,-0.029131,0.00079584
1541,0.024803,0.04322,0.031052,0.04618,0.0047422,-0.034064,-0.0024928
1542,0.014279,0.048153,0.035327,0.076435,0.40366,-0.028144,-0.0008485
1543,0.0011247,0.043549,0.0373,0.094523,0.69109,-0.015319,0.0047422
1544,-0.0067681,0.030723,0.035985,0.099456,0.81902,-0.0024928,0.010004
1545,-0.0015062,0.017897,0.032367,0.096825,0.80817,0.0044134,0.014279
1546,0.012306,0.0090175,0.027434,0.09255,0.71115,0.0040845,0.013622
1547,0.027763,0.0014536,0.024474,0.090577,0.56941,-0.0024928,0.0054
1548,0.035656,-0.004466,0.021843,0.091892,0.40399,-0.015648,-0.0047949
1549,0.031052,-0.0093991,0.017239,0.093536,0.23659,-0.031104,-0.011372
1550,0.016253,-0.011701,0.0077021,0.091892,0.094852,-0.044917,-0.017292
1551,-0.0008485,-0.011701,-0.0038083,0.084657,0.0024402,-0.053796,-0.021896
1552,-0.010057,-0.002164,-0.012359,0.070516,-0.045246,-0.05281,-0.022225
1553,-0.011043,0.024474,-0.016634,0.055388,-0.073199,-0.042286,-0.015319
1554,-0.004466,0.07216,-0.014003,0.040589,-0.10313,-0.025514,-0.0008485
1555,0.0067154,0.13596,-0.004466,0.027434,-0.14654,-0.0064392,0.017897
1556,0.017568,0.20075,0.010004,0.019212,-0.21757,0.0096753,0.031709
1557,0.027434,0.2481,0.022501,0.016581,-0.32643,0.021843,0.034011
1558,0.0373,0.26685,0.030394,0.013293,-0.46159,0.033025,0.027105
1559,0.043877,0.25304,0.03434,0.0096753,-0.58886,0.044206,0.022172
1560,0.050126,0.21061,0.035656,0.0086887,-0.67009,0.055717,0.026776
1561,0.059334,0.14944,0.038287,0.010333,-0.68687,0.067556,0.042562
1562,0.071173,0.082355,0.048153,0.018884,-0.65464,0.080053,0.061636
1563,0.083013,0.018884,0.067885,0.036642,-0.61484,0.094852,0.076435
1564,0.088275,-0.03242,0.093865,0.061636,-0.62899,0.11031,0.083342
1565,0.085315,-0.069582,0.11228,0.085644,-0.7533,0.12281,0.086301
1566,0.076435,-0.095891,0.11064,0.098141,-0.99074,0.1284,0.087617
1567,0.06361,-0.12253,0.082684,0.095839,-1.2726,0.12248,0.090248
1568,0.050126,-0.15772,0.044206,0.079395,-1.4949,0.10274,0.092879
1569,0.038944,-0.19554,0.011648,0.061965,-1.5853,0.077751,0.091892
1570,0.028092,-0.2202,-0.0008485,0.056374,-1.5291,0.057361,0.088275
1571,0.020199,-0.21428,0.0083598,0.063938,-1.361,0.043877,0.084986
1572,0.014608,-0.17581,0.02579,0.077751,-1.1404,0.0373,0.080711
1573,0.0070443,-0.11332,0.038944,0.085972,-0.92891,0.034669,0.074133
1574,-0.0061104,-0.047877,0.04026,0.080382,-0.77566,0.031709,0.064267
1575,-0.022554,0.0014536,0.030394,0.058676,-0.68292,0.021843,0.050784
1576,-0.038011,0.021843,0.013622,0.026447,-0.60202,0.011648,0.036642
1577,-0.045246,0.021186,-0.0011774,-0.0057815,-0.44449,0.0070443,0.021843
1578,-0.042615,0.014937,-0.0097279,-0.030447,-0.1587,0.011648,0.010662
1579,-0.031104,0.016581,-0.011701,-0.041957,0.18134,0.023817,0.0047422
1580,-0.014332,0.023817,-0.0074258,-0.044259,0.39445,0.036642,0.0054
1581,-0.00051963,0.035985,0.0047422,-0.043601,0.32868,0.044864,0.01132
1582,0.0077021,0.047495,0.015924,-0.04689,-0.02354,0.043549,0.015924
1583,0.0070443,0.057032,0.020199,-0.053467,-0.51487,0.033025,0.015924
1584,0.0014536,0.064596,0.01987,-0.059387,-0.94174,0.017568,0.012635
1585,-0.002164,0.07216,0.018884,-0.061689,-1.1473,0.0047422,0.014937
1586,0.0001381,0.082026,0.020857,-0.05544,-1.0572,0.0024402,0.024474
1587,0.0086887,0.091563,0.021843,-0.045903,-0.70101,0.010004,0.038616
1588,0.021843,0.097483,0.016581,-0.039655,-0.18699,0.021514,0.049468
1589,0.037958,0.099127,0.0060577,-0.037682,0.3494,0.028092,0.051441
1590,0.053086,0.096496,-0.0061104,-0.041957,0.81343,0.027763,0.045193
1591,0.063938,0.08959,-0.016305,-0.049192,1.1956,0.027434,0.039273
1592,0.068214,0.080382,-0.022883,-0.051165,1.5369,0.032367,0.034998
1593,0.067227,0.073476,-0.022883,-0.037353,1.8605,0.042233,0.030394
1594,0.060979,0.073147,-0.014332,-0.0041372,2.1365,0.057032,0.01987
1595,0.054401,0.082355,-0.00051963,0.044864,2.2907,0.081368,0.010004
1596,0.055059,0.097812,0.014937,0.099456,2.2519,0.11261,0.0050711
1597,0.062623,0.11064,0.02875,0.14385,1.997,0.14221,0.0044134
1598,0.073804,0.1159,0.035985,0.1626,1.5695,0.15635,0.0057288
1599,0.081697,0.11097,0.036971,0.15339,1.0607,0.14977,0.0073732
1600,0.08663,0.10307,0.035656,0.12182,0.55823,0.12774,0.010662
1601,0.088275,0.09551,0.032367,0.084328,0.11689,0.10274,0.01691
1602,0.089261,0.09255,0.029736,0.050126,-0.23369,0.087617,0.025461
1603,0.08959,0.090248,0.02875,0.029407,-0.48264,0.082355,0.033354
1604,0.087288,0.090577,0.031381,0.02283,-0.62668,0.089261,0.038616
1605,0.081697,0.096167,0.032696,0.020857,-0.66681,0.098469,0.039273
1606,0.073476,0.10669,0.032696,0.01987,-0.61912,0.098469,0.037958
1607,0.06624,0.11327,0.029736,0.021186,-0.48823,0.088275,0.033354
1608,0.06065,0.11228,0.02579,0.027434,-0.28006,0.072818,0.026776
1609,0.057032,0.10472,0.021514,0.035327,-0.023869,0.059005,0.017897
1610,0.054072,0.091234,0.016581,0.037629,0.21127,0.046508,0.0096753
1611,0.050784,0.072489,0.012964,0.033025,0.36189,0.033025,0.0050711
1612,0.043877,0.051113,0.010662,0.023159,0.3984,0.020199,0.0014536
1613,0.031381,0.029736,0.010333,0.013622,0.34249,0.01132,-0.00051963
1614,0.014608,0.013293,0.010333,0.0070443,0.24284,0.0086887,0.00046697
1615,0.00079584,0.0073732,0.0070443,0.0054,0.14879,0.0080309,0.002769
1616,-0.0057815,0.013622,0.0014536,0.0080309,0.084328,0.0060577,0.0050711
1617,-0.0041372,0.02579,-0.0024928,0.01132,0.051441,0.0017824,0.0073732
1618,0.0054,0.0373,-0.002164,0.01132,0.041575,-0.007097,0.010991
1619,0.016581,0.045193,-0.00019077,0.0086887,0.047824,-0.016963,0.014608
1620,0.027105,0.050455,0.0011247,0.0060577,0.073804,-0.022883,0.016581
1621,0.037629,0.053415,0.0030979,0.0047422,0.11754,-0.020909,0.016253
1622,0.045193,0.055059,0.0060577,0.0050711,0.17115,-0.01499,0.012306
1623,0.046508,0.05177,0.0096753,0.0070443,0.22344,-0.0087413,0.0030979
1624,0.039602,0.04618,0.012306,0.0070443,0.26356,-0.0024928,-0.0061104
1625,0.030394,0.038616,0.011648,0.0063866,0.29151,0.0014536,-0.011043
1626,0.020528,0.032038,0.012306,0.0080309,0.30829,-0.0018351,-0.007097
1627,0.013293,0.02579,0.015266,0.013951,0.31585,-0.010386,0.0021113
1628,0.0070443,0.015924,0.017897,0.025132,0.31519,-0.020581,0.0096753
1629,0.0060577,0.0047422,0.017897,0.038287,0.30434,-0.02946,0.011977
1630,0.0093464,-0.0041372,0.016253,0.049139,0.27408,-0.034393,0.011977
1631,0.013951,-0.0067681,0.013622,0.052757,0.22377,-0.031433,0.012306
1632,0.019541,-0.0015062,0.01132,0.047495,0.1501,-0.022883,0.014937
1633,0.024474,0.0086887,0.012964,0.041904,0.047824,-0.012688,0.01987
1634,0.029407,0.016581,0.01691,0.037629,-0.11135,-0.0041372,0.029078
1635,0.032038,0.02579,0.018884,0.035327,-0.35372,0.0017824,0.04026
1636,0.029078,0.033354,0.017897,0.031709,-0.65562,0.0054,0.048482
1637,0.018884,0.0373,0.014937,0.027105,-0.9276,0.0077021,0.051113
1638,0.0021113,0.034998,0.013622,0.024145,-1.0644,0.0083598,0.049468
1639,-0.018936,0.025132,0.017568,0.023159,-1.0111,0.0080309,0.047495
1640,-0.03538,0.0080309,0.028421,0.026119,-0.79408,0.0067154,0.045522
1641,-0.043272,-0.0077547,0.039273,0.023159,-0.49612,0.0044134,0.042233
1642,-0.038339,-0.0074258,0.044864,0.014937,-0.21132,0.0037556,0.04026
1643,-0.022883,0.0080309,0.043877,0.0067154,-0.00051963,0.0063866,0.038287
1644,-0.0024928,0.029407,0.041247,0.0044134,0.12675,0.010333,0.037629
1645,0.017897,0.042233,0.039602,0.0037556,0.19022,0.01987,0.036314
1646,0.035656,0.041247,0.038287,-0.0008485,0.22179,0.035327,0.032038
1647,0.047495,0.031052,0.033354,-0.0087413,0.24317,0.047495,0.027434
1648,0.049139,0.01987,0.023817,-0.018607,0.26817,0.047495,0.027434
1649,0.038287,0.010333,0.014608,-0.028144,0.29119,0.03434,0.032038
1650,0.018884,-0.00051963,0.0090175,-0.033078,0.30894,0.013622,0.036314
1651,-0.0054526,-0.015648,0.0057288,-0.023211,0.3415,-0.004466,0.036642
1652,-0.025514,-0.03242,0.0014536,-0.00019077,0.42997,-0.013345,0.036642
1653,-0.036695,-0.045903,-0.0034794,0.030723,0.60657,-0.0093991,0.037629
1654,-0.036366,-0.048863,-0.010057,0.067556,0.83678,0.0080309,0.038944
1655,-0.022225,-0.036366,-0.014332,0.11327,1.0124,0.035327,0.042891
1656,-0.00019077,-0.013345,-0.012359,0.17148,1.0269,0.067885,0.050126
1657,0.023817,0.016253,-0.0034794,0.23265,0.8348,0.096496,0.055388
1658,0.046508,0.047824,0.013293,0.27112,0.46384,0.11162,0.058348
1659,0.065583,0.076435,0.029407,0.25994,-0.0028217,0.11064,0.059334
1660,0.076435,0.097812,0.04026,0.19746,-0.45929,0.098469,0.061965
1661,0.081368,0.11064,0.045522,0.10636,-0.81644,0.084328,0.066898
1662,0.084328,0.11294,0.049139,0.018226,-1.0279,0.075778,0.07216
1663,0.088275,0.10834,0.04881,-0.043272,-1.0779,0.071502,0.073147
1664,0.090905,0.098469,0.046837,-0.073528,-0.98745,0.067556,0.066898
1665,0.090248,0.089261,0.045193,-0.077475,-0.80394,0.05769,0.052099
1666,0.083999,0.077422,0.043549,-0.069253,-0.59281,0.035985,0.02875
1667,0.068543,0.063938,0.035985,-0.063333,-0.42871,0.002769,0.0034268
1668,0.050784,0.050784,0.021843,-0.070897,-0.37181,-0.034064,-0.017621
1669,0.035327,0.0373,0.0083598,-0.091287,-0.43923,-0.063662,-0.030118
1670,0.027434,0.023488,0.00079584,-0.11464,-0.58656,-0.079119,-0.034722
1671,0.027434,0.0093464,-0.0028217,-0.12944,-0.74639,-0.07879,-0.03242
1672,0.032038,-0.0028217,-0.0031506,-0.12812,-0.87037,-0.06432,-0.027487
1673,0.037629,-0.013017,-0.002164,-0.11069,-0.94174,-0.045246,-0.021896
1674,0.037629,-0.018278,0.0011247,-0.087998,-0.96673,-0.031762,-0.018936
1675,0.032038,-0.016963,0.0044134,-0.070897,-0.94634,-0.028802,-0.015319
1676,0.024803,-0.0041372,0.0067154,-0.063662,-0.8559,-0.031762,-0.010715
1677,0.018884,0.020199,0.0063866,-0.066293,-0.67568,-0.037682,-0.004466
1678,0.017568,0.05177,0.0040845,-0.074186,-0.40404,-0.043601,0.0017824
1679,0.020857,0.081368,0.0024402,-0.080763,-0.051165,-0.050836,0.0050711
1680,0.026776,0.11097,0.0044134,-0.07583,0.37801,-0.056756,0.0063866
1681,0.034998,0.1501,0.012306,-0.052152,0.88578,-0.058729,0.0077021
1682,0.041247,0.20042,0.02579,-0.004466,1.4544,-0.049521,0.012635
1683,0.04322,0.25468,0.040589,0.064925,2.0066,-0.024527,0.023817
1684,0.041575,0.2925,0.058676,0.14714,2.3959,0.010333,0.039931
1685,0.0373,0.29776,0.082026,0.22771,2.4512,0.044535,0.057032
1686,0.034011,0.2629,0.11261,0.29184,2.0868,0.063938,0.068543
1687,0.030394,0.19581,0.14681,0.33328,1.3978,0.068871,0.07216
1688,0.025132,0.11524,0.17345,0.35203,0.62301,0.066569,0.066898
1689,0.017568,0.036642,0.182,0.3494,0.025461,0.0692,0.060321
1690,0.0073732,-0.031433,0.16983,0.33229,-0.23862,0.072489,0.053415
1691,-0.0028217,-0.094247,0.14221,0.30796,-0.19324,0.07512,0.050126
1692,-0.010715,-0.16134,0.10866,0.28527,-0.020252,0.076106,0.053086
1693,-0.011043,-0.24026,0.078737,0.26455,0.060979,0.071173,0.057032
1694,-0.0051238,-0.32676,0.058019,0.2435,-0.08471,0.053415,0.060321
1695,0.0021113,-0.4047,0.047824,0.21785,-0.4514,0.021186,0.063281
1696,0.0073732,-0.4435,0.043877,0.18496,-0.91017,-0.013345,0.06624
1697,0.0077021,-0.42739,0.042562,0.1455,-1.2824,-0.03538,0.068214
1698,0.0014536,-0.35964,0.041247,0.10373,-1.4314,-0.040313,0.065254
1699,-0.0087413,-0.2646,0.038287,0.067556,-1.3166,-0.030118,0.056046
1700,-0.016305,-0.17087,0.032367,0.038616,-1.0046,-0.012359,0.042891
1701,-0.013017,-0.097864,0.028421,0.014279,-0.61649,0.002769,0.035327
1702,0.0001381,-0.049192,0.029736,-0.0041372,-0.27184,0.0090175,0.034998
1703,0.015595,-0.019265,0.034669,-0.014661,-0.032749,0.0014536,0.037958
1704,0.026447,-0.0041372,0.039602,-0.020581,0.11162,-0.018936,0.04026
1705,0.029078,0.0030979,0.039931,-0.026171,0.20601,-0.043601,0.042891
1706,0.026447,0.0060577,0.032696,-0.030118,0.2925,-0.066951,0.04322
1707,0.017568,0.010333,0.017897,-0.03242,0.37077,-0.083065,0.040918
1708,0.0040845,0.017239,0.0024402,-0.033406,0.41944,-0.087012,0.034669
1709,-0.012359,0.024474,-0.0093991,-0.037353,0.42372,-0.079119,0.026119
1710,-0.021896,0.034669,-0.017621,-0.044588,0.38557,-0.067609,0.020199
1711,-0.026171,0.047495,-0.028802,-0.053138,0.32276,-0.059387,0.022501
1712,-0.026171,0.064596,-0.041299,-0.059716,0.2583,-0.057414,0.026776
1713,-0.021567,0.079395,-0.053138,-0.06432,0.207,-0.060373,0.029078
1714,-0.015648,0.089919,-0.059716,-0.065307,0.18134,-0.060373,0.025132
1715,-0.0064392,0.093536,-0.061689,-0.061689,0.17904,-0.0584,0.020528
1716,0.0044134,0.093208,-0.062676,-0.053138,0.19187,-0.055112,0.020857
1717,0.011977,0.089919,-0.066951,-0.041299,0.20732,-0.051165,0.024474
1718,0.013293,0.082026,-0.07287,-0.032091,0.2162,-0.050179,0.031052
1719,0.010333,0.073147,-0.076159,-0.026829,0.22739,-0.053796,0.032696
1720,0.0086887,0.068543,-0.07287,-0.018936,0.25271,-0.05281,0.030394
1721,0.012635,0.069858,-0.063004,-0.0034794,0.30927,-0.042286,0.026447
1722,0.025132,0.080053,-0.047548,0.017897,0.39577,-0.022554,0.021843
1723,0.043549,0.097483,-0.028473,0.037629,0.49673,0.0017824,0.01691
1724,0.06361,0.11294,-0.011372,0.05177,0.5796,0.020857,0.011648
1725,0.076764,0.12215,0.0024402,0.056703,0.61709,0.029078,0.013622
1726,0.075449,0.12379,0.010991,0.053086,0.59473,0.027105,0.019212
1727,0.059005,0.11952,0.012306,0.041904,0.51087,0.017568,0.024145
1728,0.036314,0.11195,0.0093464,0.023488,0.37505,0.0073732,0.025132
1729,0.020199,0.1057,0.0077021,0.0021113,0.20897,-0.00051963,0.021843
1730,0.016581,0.10209,0.01132,-0.016634,0.030065,-0.0051238,0.010004
1731,0.01987,0.10044,0.018884,-0.025185,-0.13733,-0.0080836,-0.0084125
1732,0.024145,0.097483,0.027763,-0.016963,-0.26263,-0.0034794,-0.023869
1733,0.027105,0.092879,0.0373,0.0083598,-0.33629,0.012306,-0.033406
1734,0.031709,0.090577,0.049139,0.042562,-0.37806,0.036642,-0.035051
1735,0.038287,0.094194,0.059334,0.073804,-0.40766,0.058676,-0.031762
1736,0.045193,0.098141,0.067556,0.093536,-0.3968,0.073804,-0.023211
1737,0.048482,0.093536,0.0692,0.10143,-0.28631,0.077751,-0.01499
1738,0.046508,0.081039,0.062952,0.10077,-0.064978,0.071502,-0.0084125
1739,0.041247,0.07216,0.050784,0.096825,0.19943,0.061965,-0.0031506
1740,0.033025,0.085972,0.0373,0.083999,0.40037,0.053743,0.0040845
1741,0.022172,0.12412,0.022172,0.05473,0.44707,0.04881,0.0096753
1742,0.01132,0.17082,0.0090175,0.012635,0.31388,0.048153,0.010004
1743,0.002769,0.20963,0.00046697,-0.032091,0.044206,0.04881,0.0054
1744,-0.0034794,0.23067,-0.0038083,-0.067937,-0.27973,0.050126,-0.0031506
1745,-0.010715,0.231,-0.00051963,-0.091287,-0.57867,0.053415,-0.0090702
1746,-0.017292,0.20864,0.0073732,-0.10378,-0.79112,0.053743,-0.01203
1747,-0.022554,0.16918,0.017239,-0.10477,-0.87728,0.053743,-0.010057
1748,-0.027487,0.12248,0.028421,-0.090958,-0.82466,0.05769,-0.0061104
1749,-0.030118,0.068543,0.036971,-0.065635,-0.66944,0.063938,-0.0011774
1750,-0.030118,-0.00051963,0.038944,-0.038011,-0.48034,0.069858,0.0014536
1751,-0.028144,-0.099838,0.032038,-0.015976,-0.31821,0.075778,0.0040845
1752,-0.023869,-0.2373,0.013951,-0.0054526,-0.19916,0.084657,0.0060577
1753,-0.015976,-0.39089,-0.0080836,-0.0047949,-0.091287,0.095181,0.010004
1754,-0.0024928,-0.51191,-0.026171,-0.0090702,0.047824,0.098469,0.015595
1755,0.015924,-0.554,-0.033406,-0.0064392,0.22377,0.092221,0.02283
1756,0.035327,-0.49908,-0.027487,0.0034268,0.42273,0.076764,0.027105
1757,0.052757,-0.36359,-0.014332,0.014937,0.62827,0.064267,0.028421
1758,0.065912,-0.18501,0.0014536,0.024145,0.83415,0.062952,0.025132
1759,0.073147,-0.0067681,0.020528,0.031052,1.0331,0.065912,0.016581
1760,0.074791,0.14484,0.044206,0.037629,1.2018,0.074133,0.0096753
1761,0.075449,0.25698,0.0692,0.051441,1.2926,0.08663,0.013622
