,channel_1,channel_2,channel_3,channel_4,channel_5,channel_6,channel_7
0,0.0021113,0.0080309,-0.022225,0.025461,-0.33169,-0.31853,-0.013345
1,0.0067154,0.027763,-0.014332,0.023159,-0.34649,-0.31623,-0.010386
2,0.018555,0.052099,0.0017824,0.026776,-0.36754,-0.30538,0.00079584
3,0.030723,0.071831,0.01987,0.035985,-0.40733,-0.28631,0.012964
4,0.038287,0.079066,0.028421,0.041575,-0.46521,-0.24881,0.023159
5,0.038616,0.073476,0.023817,0.039602,-0.52408,-0.18008,0.032367
6,0.035327,0.057032,0.0077021,0.03434,-0.55631,-0.079119,0.040918
7,0.030394,0.036642,-0.014003,0.030065,-0.53263,0.038287,0.048153
8,0.025132,0.015595,-0.031433,0.030394,-0.43627,0.15438,0.052428
9,0.021186,0.0001381,-0.037682,0.038616,-0.28532,0.25468,0.055388
10,0.024145,-0.01203,-0.036695,0.049797,-0.12121,0.32572,0.058348
11,0.029736,-0.017292,-0.031104,0.06065,0.027763,0.36321,0.061965
12,0.032696,-0.018936,-0.023869,0.071173,0.16128,0.3711,0.065583
13,0.02875,-0.017292,-0.017292,0.081039,0.28033,0.35564,0.068214
14,0.01987,-0.015976,-0.0074258,0.087288,0.38458,0.32539,0.068543
15,0.0093464,-0.015648,0.0063866,0.089919,0.46943,0.29283,0.064925
16,0.0044134,-0.013345,0.021186,0.093208,0.526,0.26652,0.059005
17,0.0063866,-0.0067681,0.030065,0.099456,0.53718,0.2435,0.050126
18,0.013293,0.0024402,0.030065,0.10801,0.49048,0.21686,0.038944
19,0.020857,0.010333,0.022501,0.11524,0.38656,0.182,0.026447
20,0.027763,0.014608,0.0090175,0.11754,0.24284,0.1307,0.014608
21,0.029736,0.015924,-0.0041372,0.11426,0.087288,0.067227,0.0093464
22,0.026119,0.016253,-0.01499,0.10505,-0.053796,0.0030979,0.0086887
23,0.019212,0.015266,-0.021896,0.094523,-0.15081,-0.050507,0.0086887
24,0.012635,0.015266,-0.024527,0.088275,-0.18173,-0.086683,0.0077021
25,0.0093464,0.016581,-0.01795,0.086301,-0.13141,-0.10181,0.0086887
26,0.0080309,0.020528,-0.0038083,0.089919,-0.00051963,-0.09326,0.017568
27,0.0093464,0.02579,0.013293,0.095181,0.19088,-0.063662,0.032696
28,0.01132,0.029736,0.02579,0.096496,0.40859,-0.023211,0.049797
29,0.012964,0.030394,0.029407,0.097812,0.62531,0.018555,0.058019
30,0.012306,0.031381,0.028421,0.096167,0.8154,0.059663,0.053415
31,0.010991,0.034669,0.030723,0.095181,0.9532,0.092879,0.040589
32,0.010333,0.034998,0.038287,0.091563,1.0167,0.11491,0.029078
33,0.010004,0.028421,0.04881,0.086959,0.99398,0.12873,0.021514
34,0.012306,0.017568,0.058348,0.080711,0.88315,0.13728,0.020199
35,0.014608,0.0070443,0.062952,0.072818,0.70753,0.14583,0.025132
36,0.020857,0.0001381,0.06361,0.062623,0.51054,0.16359,0.03434
37,0.032038,-0.0018351,0.057361,0.050784,0.34874,0.19384,0.044535
38,0.045851,0.00079584,0.050455,0.038287,0.25008,0.23067,0.051113
39,0.056703,0.0070443,0.043877,0.029078,0.20897,0.25896,0.050455
40,0.061965,0.0070443,0.039602,0.023817,0.18726,0.26422,0.04322
41,0.06361,-0.0015062,0.034998,0.019212,0.14122,0.23955,0.031052
42,0.059992,-0.01499,0.031709,0.013622,0.052757,0.18924,0.021843
43,0.054072,-0.024856,0.026447,0.0040845,-0.066951,0.12313,0.019212
44,0.04881,-0.025514,0.019541,-0.007097,-0.18469,0.05473,0.021186
45,0.048153,-0.01203,0.013951,-0.019923,-0.2692,-0.0080836,0.019541
46,0.051113,0.01691,0.012306,-0.033406,-0.30505,-0.061031,0.013293
47,0.056703,0.056703,0.01987,-0.044588,-0.2919,-0.099509,0.0073732
48,0.062294,0.097154,0.035327,-0.044588,-0.23698,-0.11661,0.0093464
49,0.065912,0.12445,0.050126,-0.035051,-0.14884,-0.11891,0.015266
50,0.066898,0.13201,0.059334,-0.021567,-0.044588,-0.11431,0.021843
51,0.066569,0.11952,0.060321,-0.0087413,0.050455,-0.10937,0.026447
52,0.064596,0.086959,0.052757,-0.0015062,0.11294,-0.10773,0.026776
53,0.057032,0.04322,0.037629,-0.0034794,0.11985,-0.11201,0.023817
54,0.04881,0.0001381,0.020199,-0.014003,0.06361,-0.12089,0.020199
55,0.041904,-0.032749,0.0050711,-0.028144,-0.048205,-0.13766,0.015266
56,0.03434,-0.048863,-0.0041372,-0.042615,-0.18534,-0.15772,0.01132
57,0.024474,-0.049192,-0.0034794,-0.054125,-0.3136,-0.1735,0.0054
58,0.015924,-0.036366,0.0060577,-0.060702,-0.40733,-0.18469,-0.00019077
59,0.0090175,-0.017292,0.017568,-0.062347,-0.45929,-0.19225,-0.004466
60,0.0070443,0.0034268,0.02283,-0.063333,-0.48034,-0.19587,-0.0054526
61,0.013951,0.020528,0.020199,-0.062676,-0.48659,-0.18929,-0.0041372
62,0.033025,0.033683,0.013951,-0.059387,-0.49119,-0.17087,-0.0018351
63,0.06065,0.041247,0.0070443,-0.05281,-0.49908,-0.14917,-0.0024928
64,0.086301,0.040589,0.0044134,-0.047219,-0.50796,-0.1324,-0.007097
65,0.10603,0.032367,0.0070443,-0.044588,-0.5129,-0.12253,-0.015319
66,0.1182,0.01987,0.01132,-0.042944,-0.50632,-0.11858,-0.018278
67,0.12281,0.0073732,0.013293,-0.039655,-0.48856,-0.11825,-0.012688
68,0.12346,-0.0038083,0.012964,-0.033406,-0.46455,-0.12187,0.0001381
69,0.1205,-0.012359,0.0093464,-0.024856,-0.43528,-0.12779,0.01132
70,0.11656,-0.018278,0.0037556,-0.021567,-0.40568,-0.13667,0.015924
71,0.11031,-0.022225,0.00079584,-0.026829,-0.38003,-0.14456,0.013293
72,0.099456,-0.020909,0.0011247,-0.040641,-0.3603,-0.14917,0.0090175
73,0.084657,-0.013017,0.0040845,-0.054125,-0.34156,-0.14456,0.011648
74,0.068214,0.0070443,0.0080309,-0.06136,-0.32051,-0.12911,0.01987
75,0.053086,0.036971,0.010991,-0.06136,-0.29946,-0.10641,0.031052
76,0.042233,0.071502,0.012306,-0.055769,-0.27743,-0.080106,0.039931
77,0.033025,0.1011,0.013622,-0.046561,-0.25934,-0.062347,0.041247
78,0.017897,0.11721,0.013622,-0.039326,-0.24421,-0.056098,0.036314
79,-0.0041372,0.1113,0.013951,-0.035051,-0.23138,-0.0584,0.026776
80,-0.029131,0.090248,0.011977,-0.030447,-0.21593,-0.061031,0.017897
81,-0.052481,0.060979,0.0093464,-0.02354,-0.19389,-0.060373,0.014279
82,-0.073199,0.030065,0.0080309,-0.011372,-0.16726,-0.046561,0.012635
83,-0.09326,-0.0047949,0.0057288,0.0040845,-0.13963,-0.01795,0.010004
84,-0.11003,-0.040313,0.0014536,0.017568,-0.11595,0.020857,0.0077021
85,-0.12648,-0.069582,-0.0051238,0.027434,-0.1051,0.06065,0.0080309
86,-0.13963,-0.082408,-0.0093991,0.03434,-0.11299,0.090905,0.0077021
87,-0.14325,-0.069253,-0.011043,0.034669,-0.13799,0.10011,0.0073732
88,-0.13305,-0.031433,-0.0074258,0.028092,-0.17318,0.085315,0.0050711
89,-0.10937,0.018226,0.00079584,0.020857,-0.21264,0.043877,0.00046697
90,-0.077475,0.065912,0.010991,0.015595,-0.25046,-0.0087413,-0.0015062
91,-0.04689,0.10899,0.020199,0.013293,-0.27907,-0.05281,0.00046697
92,-0.024527,0.14616,0.028092,0.013293,-0.29288,-0.073857,0.0057288
93,-0.014332,0.17608,0.031709,0.018884,-0.28696,-0.073199,0.010004
94,-0.013017,0.19614,0.032367,0.028421,-0.26394,-0.057414,0.0083598
95,-0.016305,0.2014,0.027434,0.037958,-0.22974,-0.036037,0.00046697
96,-0.018278,0.18858,0.021514,0.045522,-0.1883,-0.018607,-0.0097279
97,-0.017621,0.15799,0.015924,0.051113,-0.14193,-0.0074258,-0.018936
98,-0.015976,0.1159,0.012635,0.055059,-0.093918,-0.0054526,-0.026829
99,-0.015648,0.069858,0.011977,0.061965,-0.048205,-0.017621,-0.031104
100,-0.016963,0.031381,0.015595,0.072489,-0.0051238,-0.047877,-0.033406
101,-0.022554,0.0057288,0.026119,0.084328,0.030394,-0.0903,-0.032749
102,-0.031104,-0.0064392,0.045522,0.093536,0.059334,-0.13075,-0.024856
103,-0.035708,-0.011043,0.065583,0.097154,0.088932,-0.15772,-0.0061104
104,-0.030118,-0.013017,0.080053,0.094852,0.13201,-0.16693,0.021186
105,-0.015648,-0.013674,0.084986,0.088603,0.2014,-0.15772,0.051441
106,0.0034268,-0.011043,0.077093,0.080382,0.29809,-0.13042,0.076435
107,0.022501,-0.0067681,0.060979,0.075449,0.41616,-0.077803,0.094194
108,0.039931,-0.010057,0.041247,0.073804,0.54474,0.012306,0.10242
109,0.053415,-0.025185,0.02579,0.074462,0.68089,0.15799,0.10406
110,0.060979,-0.047877,0.015924,0.076435,0.81935,0.37274,0.10505
111,0.065583,-0.067937,0.01132,0.07808,0.943,0.63222,0.10866
112,0.065912,-0.076159,0.011648,0.079066,1.0229,0.87361,0.12215
113,0.061965,-0.070897,0.013951,0.080053,1.0311,1.0272,0.14385
114,0.055717,-0.054125,0.013951,0.077422,0.96175,1.0469,0.16457
115,0.052099,-0.033735,0.01132,0.069858,0.82329,0.93511,0.17016
116,0.053415,-0.016634,0.0086887,0.064267,0.64011,0.73943,0.15503
117,0.059005,-0.0057815,0.010333,0.058676,0.44542,0.52501,0.12379
118,0.065583,0.00046697,0.014937,0.050126,0.2708,0.34841,0.087617
119,0.067885,0.0034268,0.021843,0.038287,0.13859,0.23199,0.057032
120,0.061965,0.0057288,0.027434,0.029078,0.052757,0.17049,0.03434
121,0.047824,0.01132,0.029078,0.024803,0.0086887,0.14714,0.021186
122,0.029407,0.019541,0.025132,0.023488,-0.0031506,0.13892,0.018555
123,0.017239,0.028421,0.01691,0.021514,0.013622,0.1284,0.022501
124,0.014608,0.030723,0.0050711,0.019541,0.056046,0.11031,0.026119
125,0.024145,0.029078,-0.004466,0.021514,0.11261,0.087288,0.027763
126,0.037958,0.026119,-0.0041372,0.027434,0.1524,0.060979,0.02579
127,0.051113,0.027434,0.0060577,0.036642,0.14484,0.03434,0.026776
128,0.059663,0.034669,0.021843,0.046508,0.081039,0.0093464,0.033354
129,0.06361,0.049468,0.039931,0.057032,-0.016963,-0.016963,0.041904
130,0.062952,0.06624,0.055059,0.067556,-0.11529,-0.041957,0.049139
131,0.059663,0.085972,0.064925,0.073147,-0.18238,-0.06432,0.051113
132,0.055388,0.10176,0.066898,0.073804,-0.20705,-0.084052,0.049139
133,0.053415,0.11031,0.063938,0.069858,-0.19126,-0.10115,0.046508
134,0.05473,0.11195,0.05769,0.064925,-0.15213,-0.11858,0.041575
135,0.060321,0.10702,0.049797,0.063281,-0.10937,-0.13371,0.032696
136,0.068543,0.097483,0.038616,0.059334,-0.080434,-0.14423,0.016253
137,0.071831,0.086301,0.024145,0.049468,-0.065307,-0.1495,-0.004466
138,0.067885,0.079066,0.0067154,0.036314,-0.0584,-0.15048,-0.023211
139,0.052757,0.076435,-0.0097279,0.026447,-0.048863,-0.14983,-0.03242
140,0.029736,0.081368,-0.021238,0.020528,-0.031762,-0.14719,-0.034393
141,0.002769,0.086959,-0.028802,0.013951,-0.0087413,-0.14095,-0.034064
142,-0.025185,0.084328,-0.036037,0.002769,0.010662,-0.1324,-0.037682
143,-0.046232,0.074133,-0.043272,-0.0093991,0.020199,-0.12352,-0.041628
144,-0.060373,0.059334,-0.04393,-0.019265,0.022172,-0.11003,-0.042944
145,-0.065964,0.042891,-0.037024,-0.026171,0.021514,-0.094576,-0.042286
146,-0.063991,0.033025,-0.025842,-0.029789,0.021186,-0.078461,-0.039655
147,-0.061689,0.030394,-0.01499,-0.033078,0.023488,-0.065307,-0.036695
148,-0.061689,0.032696,-0.01203,-0.038668,0.028092,-0.060702,-0.036695
149,-0.059387,0.034011,-0.013345,-0.045903,0.031381,-0.063662,-0.040313
150,-0.048534,0.030723,-0.017292,-0.049521,0.031052,-0.073857,-0.049521
151,-0.028144,0.023817,-0.020252,-0.045246,0.030723,-0.085696,-0.055112
152,-0.0047949,0.018226,-0.016963,-0.030447,0.033354,-0.094247,-0.052481
153,0.018226,0.019541,-0.0024928,-0.01203,0.039602,-0.093918,-0.039655
154,0.038616,0.026776,0.023159,0.0083598,0.051113,-0.085367,-0.022554
155,0.056703,0.036314,0.050455,0.025132,0.068543,-0.074186,-0.0084125
156,0.072818,0.047824,0.0692,0.036314,0.084986,-0.062347,-0.00019077
157,0.088275,0.056046,0.0692,0.037629,0.089919,-0.053467,0.002769
158,0.10406,0.056703,0.054072,0.030723,0.082355,-0.04985,0.0040845
159,0.12116,0.050126,0.029736,0.020857,0.066569,-0.055112,0.0047422
160,0.13826,0.044206,0.0047422,0.012635,0.043549,-0.070568,0.0070443
161,0.14912,0.044206,-0.016305,0.0080309,0.018226,-0.10378,0.0093464
162,0.14912,0.041904,-0.03242,0.0044134,-0.0031506,-0.17054,0.012306
163,0.13497,0.029736,-0.044259,0.0050711,-0.018936,-0.27019,0.016581
164,0.11524,0.0077021,-0.049521,0.0093464,-0.032749,-0.38102,0.01987
165,0.10209,-0.018278,-0.047548,0.014279,-0.051823,-0.4708,0.022172
166,0.092879,-0.041299,-0.037682,0.018884,-0.079448,-0.51421,0.024803
167,0.086959,-0.055769,-0.019923,0.023817,-0.11398,-0.49514,0.027105
168,0.078737,-0.061689,-0.00051963,0.025132,-0.14292,-0.41719,0.026776
169,0.064925,-0.060702,0.013622,0.028421,-0.15377,-0.29716,0.01987
170,0.042562,-0.055112,0.018226,0.034669,-0.13996,-0.16035,0.0047422
171,0.012635,-0.04689,0.015595,0.0373,-0.10839,-0.028802,-0.014332
172,-0.018607,-0.038668,0.010662,0.035656,-0.070897,0.079724,-0.030118
173,-0.046232,-0.029789,0.0083598,0.028092,-0.042944,0.15931,-0.036366
174,-0.069253,-0.018278,0.013622,0.020528,-0.028802,0.20634,-0.029131
175,-0.085367,-0.0077547,0.02283,0.014937,-0.02946,0.22771,-0.015648
176,-0.093918,-0.0034794,0.033025,0.013293,-0.037682,0.23857,-0.0024928
177,-0.097864,-0.0064392,0.039602,0.018226,-0.048534,0.24942,0.011648
178,-0.096549,-0.013017,0.044864,0.028092,-0.053796,0.26389,0.025461
179,-0.091945,-0.020252,0.046508,0.0373,-0.04689,0.28329,0.032367
180,-0.086354,-0.021896,0.050784,0.044535,-0.023869,0.30335,0.030394
181,-0.080763,-0.015648,0.053415,0.04881,0.016253,0.3073,0.025461
182,-0.074515,-0.0034794,0.052428,0.050126,0.07216,0.27902,0.02579
183,-0.063991,0.012964,0.04618,0.051441,0.14418,0.21785,0.036971
184,-0.052481,0.030394,0.039273,0.05473,0.22771,0.14681,0.058348
185,-0.042615,0.045851,0.035327,0.062294,0.31552,0.096825,0.083013
186,-0.039984,0.057032,0.029078,0.070516,0.38656,0.074133,0.099785
187,-0.044917,0.061965,0.019541,0.076435,0.41418,0.06361,0.10965
188,-0.054783,0.058676,0.0073732,0.076435,0.38754,0.041575,0.11623
189,-0.065635,0.04618,-0.0028217,0.071173,0.31782,-0.0067681,0.11886
190,-0.073528,0.027434,-0.007097,0.059005,0.22574,-0.073199,0.11886
191,-0.073199,0.0073732,-0.0041372,0.045851,0.13366,-0.13766,0.11656
192,-0.063004,-0.010057,0.0011247,0.038287,0.057361,-0.18205,0.11327
193,-0.045246,-0.015319,0.0083598,0.044535,0.012635,-0.18699,0.11097
194,-0.028473,-0.007097,0.017239,0.06361,0.013951,-0.13963,0.11097
195,-0.013674,0.010333,0.025461,0.09255,0.062294,-0.037024,0.1113
196,0.0001381,0.02579,0.034998,0.12248,0.14254,0.11623,0.10965
197,0.013293,0.030723,0.047495,0.14714,0.23495,0.3119,0.10702
198,0.021514,0.020199,0.062294,0.16194,0.32374,0.52929,0.10636
199,0.023817,-0.0061104,0.079066,0.16293,0.38393,0.72957,0.10669
200,0.017568,-0.04097,0.090248,0.15273,0.39281,0.86506,0.10077
201,0.0034268,-0.077475,0.090248,0.13629,0.34611,0.90485,0.083013
202,-0.014332,-0.10609,0.075449,0.11721,0.25139,0.845,0.055717
203,-0.030118,-0.11924,0.048482,0.097483,0.13267,0.7026,0.026776
204,-0.036695,-0.11628,0.019212,0.078737,0.02283,0.51646,0.0034268
205,-0.027158,-0.10181,-0.0031506,0.063281,-0.045574,0.32802,-0.011701
206,-0.010386,-0.082079,-0.013345,0.04881,-0.062018,0.16918,-0.023211
207,0.0060577,-0.063991,-0.013017,0.033025,-0.043601,0.053415,-0.030118
208,0.020528,-0.052152,-0.0087413,0.016253,-0.023211,-0.019594,-0.033735
209,0.032696,-0.042944,-0.0034794,0.0040845,-0.024856,-0.060702,-0.034064
210,0.043877,-0.032091,0.0050711,0.0001381,-0.05281,-0.085367,-0.033078
211,0.04881,-0.016305,0.011977,0.0011247,-0.096878,-0.10346,-0.031433
212,0.049139,0.0030979,0.014937,0.0014536,-0.14325,-0.12286,-0.027487
213,0.047166,0.023488,0.014608,-0.00019077,-0.17548,-0.14456,-0.023869
214,0.046508,0.036971,0.013622,-0.0038083,-0.17712,-0.16561,-0.019923
215,0.051441,0.040918,0.015266,-0.0097279,-0.1393,-0.17975,-0.018278
216,0.062952,0.040589,0.018226,-0.016305,-0.067609,-0.18666,-0.017621
217,0.077751,0.039931,0.020199,-0.022554,0.014937,-0.18929,-0.017621
218,0.090905,0.04026,0.019212,-0.027158,0.068871,-0.19389,-0.019265
219,0.10077,0.038287,0.014608,-0.03242,0.069529,-0.20442,-0.022883
220,0.1057,0.035656,0.0054,-0.038997,0.018884,-0.21955,-0.028144
221,0.10899,0.03434,-0.0011774,-0.047877,-0.05281,-0.23665,-0.03242
222,0.1113,0.036642,-0.002164,-0.056756,-0.11135,-0.25013,-0.029131
223,0.11393,0.041575,0.0017824,-0.062676,-0.14226,-0.25473,-0.01795
224,0.11721,0.044864,0.0073732,-0.06432,-0.14851,-0.2521,-0.0028217
225,0.11853,0.038944,0.010991,-0.060373,-0.14259,-0.24618,0.0077021
226,0.11327,0.026447,0.011648,-0.054454,-0.1347,-0.23632,0.010991
227,0.10307,0.013951,0.010662,-0.047548,-0.13141,-0.22152,0.010004
228,0.096167,0.01132,0.0073732,-0.041957,-0.13174,-0.19948,0.0040845
229,0.095181,0.020199,0.0037556,-0.038668,-0.13141,-0.17449,-0.0018351
230,0.10044,0.034669,-0.00051963,-0.040641,-0.12976,-0.15377,-0.007097
231,0.10735,0.047824,-0.004466,-0.046232,-0.1245,-0.13667,-0.0093991
232,0.1113,0.06065,-0.0057815,-0.049521,-0.12384,-0.12384,-0.0061104
233,0.10834,0.068214,-0.002164,-0.04393,-0.137,-0.11365,0.0011247
234,0.097154,0.072489,0.0060577,-0.028473,-0.16627,-0.10609,0.0096753
235,0.081697,0.073147,0.010991,-0.0074258,-0.20672,-0.1051,0.014608
236,0.066569,0.077093,0.010004,0.013293,-0.24783,-0.11003,0.018226
237,0.053743,0.08959,0.0080309,0.02875,-0.2817,-0.1176,0.017897
238,0.040918,0.1113,0.0093464,0.036642,-0.30439,-0.1222,0.014279
239,0.027434,0.13695,0.018555,0.036971,-0.31821,-0.11727,0.0063866
240,0.013951,0.15997,0.032038,0.032367,-0.33037,-0.10444,-0.0008485
241,0.002769,0.17806,0.04618,0.028092,-0.34945,-0.089314,-0.0034794
242,-0.0077547,0.18924,0.05769,0.026119,-0.37214,-0.076488,0.0021113
243,-0.01795,0.19417,0.064925,0.022172,-0.39286,-0.069253,0.015595
244,-0.028144,0.19549,0.066898,0.017239,-0.40733,-0.069582,0.029736
245,-0.038668,0.19121,0.062952,0.015924,-0.42213,-0.074186,0.037629
246,-0.047219,0.1797,0.05473,0.018555,-0.44054,-0.076488,0.04026
247,-0.053138,0.15964,0.04322,0.021514,-0.46061,-0.074844,0.040589
248,-0.054783,0.13662,0.029078,0.02283,-0.4708,-0.071555,0.041575
249,-0.055112,0.11853,0.015924,0.023817,-0.45666,-0.068924,0.039273
250,-0.057743,0.10603,0.0040845,0.023488,-0.4093,-0.068266,0.034998
251,-0.066951,0.096496,-0.0034794,0.021843,-0.3284,-0.066293,0.029407
252,-0.07879,0.084986,-0.0057815,0.019541,-0.22546,-0.063662,0.020857
253,-0.089972,0.068871,-0.004466,0.017239,-0.11595,-0.063333,0.013622
254,-0.095562,0.044535,-0.0054526,0.010662,-0.013017,-0.060702,0.011977
255,-0.094905,0.013293,-0.012359,0.00079584,0.071831,-0.05281,0.016253
256,-0.087669,-0.022554,-0.022883,-0.0061104,0.13201,-0.037353,0.024474
257,-0.073199,-0.059387,-0.034722,-0.0087413,0.1672,-0.01499,0.032696
258,-0.050507,-0.10115,-0.041299,-0.0077547,0.18102,0.0093464,0.039273
259,-0.019265,-0.14259,-0.038997,-0.0008485,0.182,0.02875,0.04322
260,0.014279,-0.17449,-0.028802,0.010333,0.18463,0.039931,0.043549
261,0.043877,-0.1814,-0.013674,0.019212,0.21061,0.044206,0.042891
262,0.064596,-0.15739,0.0054,0.029078,0.28033,0.046837,0.046508
263,0.075449,-0.10674,0.023488,0.039931,0.40037,0.047166,0.055059
264,0.080053,-0.042286,0.038944,0.05177,0.55198,0.051113,0.062294
265,0.08367,0.014608,0.049797,0.061307,0.69832,0.06065,0.065583
266,0.089261,0.049468,0.052428,0.06624,0.79929,0.077751,0.060321
267,0.096167,0.059334,0.046837,0.068214,0.82428,0.096825,0.04881
268,0.097154,0.05177,0.039273,0.0692,0.76179,0.10965,0.03434
269,0.094194,0.040918,0.034998,0.068543,0.62663,0.10932,0.019541
270,0.088275,0.035327,0.03434,0.063281,0.44806,0.092221,0.0083598
271,0.079066,0.034669,0.036314,0.055388,0.26323,0.062623,0.0024402
272,0.067556,0.036971,0.038616,0.045522,0.10636,0.033025,-0.00019077
273,0.055717,0.03434,0.035656,0.035327,-0.004466,0.010662,0.0024402
274,0.045851,0.029736,0.023488,0.02579,-0.062676,-0.00051963,0.01132
275,0.042233,0.027105,0.0060577,0.018884,-0.068266,0.0021113,0.023159
276,0.04618,0.031052,-0.0080836,0.017568,-0.016963,0.016581,0.031709
277,0.05177,0.04026,-0.010057,0.018555,0.088932,0.044864,0.034011
278,0.055059,0.048482,-0.0015062,0.022501,0.22706,0.083013,0.030065
279,0.05769,0.055388,0.014608,0.032696,0.35531,0.12281,0.027105
280,0.059005,0.062623,0.030065,0.046837,0.41879,0.14879,0.02875
281,0.060979,0.069529,0.037958,0.058348,0.38623,0.1501,0.034669
282,0.060979,0.074462,0.039602,0.061636,0.27507,0.12741,0.040589
283,0.060979,0.078409,0.038287,0.053743,0.12609,0.094523,0.040918
284,0.063938,0.080711,0.038944,0.036971,-0.015648,0.064925,0.033025
285,0.064596,0.083013,0.040918,0.016581,-0.12615,0.044206,0.020528
286,0.064267,0.082026,0.039273,-0.0028217,-0.19685,0.033025,0.0096753
287,0.057032,0.074133,0.031381,-0.016634,-0.2281,0.029736,0.0044134
288,0.042233,0.058676,0.021186,-0.025842,-0.22349,0.031052,0.002769
289,0.023817,0.037629,0.010662,-0.02946,-0.18271,0.040918,0.0054
290,0.0040845,0.014608,0.0014536,-0.026829,-0.11793,0.061636,0.010991
291,-0.0084125,-0.0054526,-0.0038083,-0.019594,-0.047877,0.094523,0.017568
292,-0.011372,-0.019594,-0.004466,-0.010386,0.0047422,0.13432,0.020199
293,-0.0080836,-0.024527,-0.002164,-0.0018351,0.018555,0.17279,0.018555
294,-0.0024928,-0.021567,0.0030979,0.0017824,-0.0090702,0.19746,0.018226
295,0.0050711,-0.012359,0.0067154,0.00079584,-0.060702,0.20272,0.020199
296,0.013293,-0.0031506,0.010333,-0.004466,-0.1199,0.19088,0.022172
297,0.018884,0.0063866,0.012635,-0.0090702,-0.17153,0.16589,0.01987
298,0.02283,0.012964,0.010991,-0.0097279,-0.20343,0.13267,0.01132
299,0.025461,0.017568,0.0073732,-0.0080836,-0.20836,0.093208,-0.0015062
300,0.031052,0.019212,0.002769,-0.0041372,-0.18436,0.048482,-0.013345
301,0.034998,0.019541,0.00046697,-0.0024928,-0.13733,0.0080309,-0.021238
302,0.036642,0.016581,0.00046697,-0.0031506,-0.074515,-0.019265,-0.024856
303,0.036314,0.014279,0.0054,-0.0041372,-0.007097,-0.029131,-0.024198
304,0.037958,0.020857,0.011977,-0.0038083,0.04881,-0.025514,-0.015976
305,0.038944,0.04026,0.018884,-0.00051963,0.076764,-0.017621,-0.0015062
306,0.04026,0.06624,0.024803,0.0037556,0.071173,-0.014332,0.010991
307,0.042233,0.087288,0.029736,0.0096753,0.03434,-0.018936,0.018884
308,0.043877,0.094852,0.031381,0.011977,-0.020909,-0.034393,0.017897
309,0.044206,0.088932,0.029736,0.010662,-0.07879,-0.057414,0.011648
310,0.041575,0.077093,0.022172,0.0030979,-0.12878,-0.083394,0.0044134
311,0.035985,0.06624,0.010662,-0.0067681,-0.16989,-0.10707,0.0024402
312,0.027434,0.056374,0.0014536,-0.016305,-0.19488,-0.11365,0.0034268
313,0.015266,0.042891,-0.0054526,-0.025842,-0.19948,-0.098851,0.0067154
314,0.0001381,0.025461,-0.0090702,-0.031433,-0.18863,-0.064978,0.0044134
315,-0.013017,0.0040845,-0.011372,-0.030775,-0.17975,-0.025185,-0.0008485
316,-0.025842,-0.018278,-0.014003,-0.025185,-0.1906,0.0073732,-0.0090702
317,-0.03242,-0.041299,-0.014332,-0.016305,-0.22612,0.016581,-0.015648
318,-0.028473,-0.058729,-0.011701,-0.0057815,-0.28663,-0.0008485,-0.017621
319,-0.017292,-0.066951,-0.0061104,0.0057288,-0.36458,-0.04393,-0.015976
320,-0.0054526,-0.067609,0.002769,0.016581,-0.44449,-0.10214,-0.013017
321,0.0047422,-0.064978,0.011648,0.024803,-0.50796,-0.15279,-0.0077547
322,0.012964,-0.061689,0.017897,0.030394,-0.54512,-0.17679,0.0017824
323,0.023159,-0.059716,0.020528,0.034669,-0.54874,-0.16199,0.013293
324,0.035656,-0.056756,0.018884,0.04026,-0.5152,-0.10839,0.023488
325,0.047166,-0.0584,0.013293,0.049468,-0.44285,-0.024198,0.027434
326,0.052757,-0.060702,0.010004,0.061965,-0.33629,0.07808,0.024145
327,0.052757,-0.062018,0.0096753,0.077093,-0.21067,0.17871,0.014937
328,0.046837,-0.0584,0.010991,0.090577,-0.085367,0.25369,0.002769
329,0.035327,-0.049192,0.010333,0.10077,0.028421,0.29743,-0.0024928
330,0.021514,-0.028144,0.0063866,0.10768,0.14747,0.31355,0.0021113
331,0.0077021,0.0073732,0.0037556,0.11426,0.30368,0.31256,0.015924
332,-0.0051238,0.059005,0.0063866,0.12445,0.5135,0.30302,0.034998
333,-0.012359,0.12346,0.013951,0.13728,0.73549,0.28724,0.056374
334,-0.014661,0.18792,0.024474,0.14846,0.89236,0.25863,0.075778
335,-0.015319,0.23626,0.033683,0.14944,0.92853,0.21423,0.088932
336,-0.019594,0.25896,0.042562,0.13859,0.84072,0.1649,0.095839
337,-0.026829,0.25468,0.050126,0.12412,0.68648,0.13662,0.099456
338,-0.038339,0.22344,0.053415,0.11623,0.55395,0.14879,0.10406
339,-0.053138,0.16983,0.052428,0.11689,0.5158,0.19483,0.10998
340,-0.067609,0.10143,0.04881,0.13037,0.59045,0.25172,0.11689
341,-0.079119,0.032038,0.045851,0.1501,0.7391,0.29349,0.12412
342,-0.085696,-0.020581,0.042562,0.17148,0.89433,0.30927,0.12807
343,-0.087012,-0.049192,0.041247,0.18529,0.99398,0.30204,0.133
344,-0.083723,-0.057085,0.038944,0.18562,0.99463,0.27902,0.13728
345,-0.075173,-0.055112,0.036642,0.17575,0.87953,0.23791,0.13563
346,-0.06136,-0.052481,0.032696,0.15635,0.66281,0.17345,0.12412
347,-0.045903,-0.056427,0.024803,0.1284,0.38919,0.087288,0.10505
348,-0.028144,-0.068595,0.013293,0.098469,0.12083,-0.0064392,0.087617
349,-0.011372,-0.084052,0.0021113,0.071831,-0.087012,-0.095233,0.077751
350,0.00079584,-0.099838,-0.0077547,0.052428,-0.21165,-0.16331,0.073147
351,0.0080309,-0.10773,-0.016963,0.038616,-0.26296,-0.20573,0.068543
352,0.012306,-0.10641,-0.023211,0.027763,-0.26789,-0.21856,0.064596
353,0.016253,-0.1005,-0.022554,0.024803,-0.25112,-0.20738,0.058019
354,0.015595,-0.093918,-0.017292,0.024803,-0.22514,-0.18666,0.041904
355,0.013951,-0.087669,-0.0093991,0.026447,-0.19192,-0.16726,0.023488
356,0.016253,-0.081421,0.002769,0.029078,-0.15443,-0.15377,0.010991
357,0.024145,-0.072542,0.014608,0.031381,-0.11365,-0.14654,0.010004
358,0.039931,-0.06136,0.02579,0.030065,-0.076817,-0.14423,0.015924
359,0.059005,-0.046561,0.031709,0.026119,-0.057743,-0.14325,0.023488
360,0.073804,-0.032091,0.027763,0.015924,-0.065964,-0.14226,0.024145
361,0.080382,-0.020252,0.016581,0.002769,-0.1005,-0.14062,0.018226
362,0.077751,-0.011043,0.002769,-0.0077547,-0.15279,-0.1393,0.0093464
363,0.067227,0.00079584,-0.010386,-0.013017,-0.20606,-0.13799,0.0047422
364,0.05473,0.017568,-0.016963,-0.014661,-0.24585,-0.13667,0.0040845
365,0.044535,0.038944,-0.019594,-0.017292,-0.25901,-0.13634,0.0011247
366,0.038944,0.060979,-0.017621,-0.017621,-0.25112,-0.13503,-0.0061104
367,0.043549,0.079724,-0.011372,-0.020252,-0.24651,-0.12812,-0.01499
368,0.056046,0.092879,-0.0015062,-0.024527,-0.26493,-0.11595,-0.017621
369,0.068871,0.10143,0.012306,-0.027158,-0.30702,-0.10313,-0.012359
370,0.07512,0.11327,0.02875,-0.020909,-0.36523,-0.091945,-0.0031506
371,0.076106,0.13497,0.045851,-0.0093991,-0.41818,-0.082079,0.0054
372,0.070516,0.16391,0.06065,-0.00019077,-0.44942,-0.07287,0.0060577
373,0.06065,0.18726,0.070845,0.0047422,-0.44153,-0.069253,-0.00051963
374,0.047824,0.18957,0.073476,0.0037556,-0.3968,-0.069253,-0.0097279
375,0.035327,0.16654,0.067885,-0.00019077,-0.32774,-0.064978,-0.017621
376,0.023488,0.12609,0.055717,-0.0041372,-0.25243,-0.054125,-0.021567
377,0.016581,0.080053,0.038616,-0.0084125,-0.18304,-0.034064,-0.019594
378,0.013293,0.040589,0.018555,-0.014332,-0.13009,-0.012359,-0.012688
379,0.015924,0.014937,0.0034268,-0.020581,-0.096878,0.0060577,-0.0064392
380,0.018555,0.0050711,-0.0077547,-0.027158,-0.082079,0.011648,-0.0061104
381,0.022172,0.0080309,-0.013345,-0.03538,-0.088327,0.0021113,-0.011043
382,0.026119,0.01691,-0.011043,-0.041628,-0.11233,-0.019594,-0.015319
383,0.027434,0.023159,-0.0024928,-0.041628,-0.14851,-0.04393,-0.017621
384,0.028421,0.021186,0.0093464,-0.038011,-0.19028,-0.059058,-0.013345
385,0.025132,0.014279,0.020199,-0.03242,-0.23138,-0.066622,-0.0024928
386,0.018555,0.0054,0.029078,-0.025842,-0.26657,-0.066951,0.0096753
387,0.011648,-0.0008485,0.03434,-0.01795,-0.28663,-0.06432,0.016581
388,0.0050711,-0.0038083,0.033683,-0.0080836,-0.28663,-0.056427,0.010662
389,-0.0011774,-0.00019077,0.029736,0.0001381,-0.26723,-0.045574,-0.0057815
390,-0.0061104,0.0096753,0.025461,0.0054,-0.23599,-0.032091,-0.023869
391,-0.0077547,0.023817,0.023817,0.0044134,-0.19916,-0.018936,-0.032091
392,-0.0080836,0.038287,0.025132,0.002769,-0.16627,-0.0041372,-0.026171
393,-0.0024928,0.049468,0.025461,0.0047422,-0.13864,0.0077021,-0.0097279
394,0.0073732,0.055717,0.021186,0.0090175,-0.11332,0.014937,0.0047422
395,0.01691,0.055388,0.014279,0.0093464,-0.089972,0.019212,0.010004
396,0.023817,0.048153,0.0057288,0.0077021,-0.06728,0.017239,0.0040845
397,0.024145,0.033025,-0.004466,0.0034268,-0.046561,0.010333,-0.010386
398,0.019212,0.013951,-0.013017,-0.0038083,-0.031433,0.0080309,-0.027816
399,0.014279,-0.00051963,-0.011701,-0.012688,-0.021238,0.012964,-0.040641
400,0.012635,-0.011043,-0.0034794,-0.022554,-0.0097279,0.02283,-0.046232
401,0.019541,-0.016634,0.0067154,-0.03242,0.0070443,0.033354,-0.041957
402,0.031052,-0.018936,0.012964,-0.037682,0.026447,0.043877,-0.030118
403,0.040589,-0.020581,0.014608,-0.035051,0.043877,0.057361,-0.014661
404,0.043877,-0.026171,0.012306,-0.028802,0.056703,0.070845,0.0011247
405,0.037629,-0.040313,0.0093464,-0.020252,0.072489,0.079724,0.015595
406,0.025461,-0.057085,0.0086887,-0.0090702,0.10439,0.078409,0.027105
407,0.010333,-0.066622,0.0093464,0.0034268,0.15701,0.055388,0.035656
408,-0.0015062,-0.065964,0.012964,0.015266,0.21555,-0.00051963,0.038287
409,-0.0077547,-0.063004,0.016253,0.021514,0.25731,-0.09918,0.033683
410,-0.0077547,-0.062347,0.01691,0.023159,0.26718,-0.22941,0.025132
411,-0.0054526,-0.064649,0.013951,0.021186,0.24679,-0.36458,0.013622
412,-0.0015062,-0.07024,0.0090175,0.017239,0.20469,-0.46521,0.0030979
413,0.00079584,-0.077146,0.0034268,0.012964,0.15898,-0.49678,-0.0041372
414,0.0011247,-0.081421,-0.0015062,0.0093464,0.12017,-0.45107,-0.0034794
415,0.0024402,-0.076159,-0.0024928,0.0077021,0.091563,-0.34616,0.002769
416,0.0040845,-0.059387,0.0017824,0.012635,0.073476,-0.21823,0.010333
417,0.0011247,-0.035708,0.010004,0.022172,0.058019,-0.10313,0.012964
418,-0.007097,-0.0093991,0.018555,0.034011,0.0373,-0.019594,0.011977
419,-0.021896,0.014608,0.024803,0.040918,0.022501,0.033025,0.0096753
420,-0.036695,0.035985,0.031381,0.042891,0.032038,0.06361,0.010004
421,-0.045574,0.053743,0.038287,0.041575,0.080053,0.087617,0.014937
422,-0.049521,0.067885,0.04618,0.039602,0.16523,0.11491,0.021514
423,-0.049521,0.080053,0.050455,0.042562,0.26455,0.15142,0.026447
424,-0.048534,0.092879,0.049139,0.053415,0.35137,0.20338,0.031381
425,-0.046561,0.1034,0.041247,0.068871,0.40497,0.27639,0.036314
426,-0.045903,0.10209,0.027763,0.081039,0.42109,0.36419,0.041247
427,-0.04689,0.086301,0.01691,0.083342,0.41648,0.45266,0.049797
428,-0.047548,0.065583,0.012635,0.079724,0.40004,0.53553,0.062952
429,-0.050179,0.045522,0.014937,0.079724,0.37242,0.6138,0.080382
430,-0.05281,0.031381,0.020857,0.084328,0.32999,0.68024,0.094523
431,-0.051165,0.022501,0.027105,0.092221,0.26685,0.71312,0.1057
432,-0.041957,0.022172,0.030065,0.098798,0.18693,0.68813,0.11228
433,-0.020909,0.028421,0.029407,0.097812,0.10242,0.59144,0.11524
434,0.0077021,0.038287,0.030723,0.090577,0.029078,0.4372,0.1136
435,0.036314,0.047495,0.034998,0.080382,-0.021238,0.25139,0.10834
436,0.058019,0.053086,0.042233,0.071173,-0.048534,0.07216,0.10307
437,0.074791,0.060321,0.048153,0.062952,-0.059387,-0.073857,0.097154
438,0.086301,0.071831,0.049139,0.057361,-0.058729,-0.1735,0.086959
439,0.095181,0.084986,0.045193,0.049797,-0.050836,-0.22481,0.071173
440,0.097812,0.098141,0.039273,0.039931,-0.030775,-0.23237,0.055717
441,0.091234,0.10866,0.035656,0.029407,0.002769,-0.21034,0.045851
442,0.084986,0.11294,0.035985,0.021514,0.039931,-0.16791,0.041575
443,0.083342,0.10866,0.036971,0.017897,0.071173,-0.10247,0.041904
444,0.086959,0.10406,0.038287,0.017568,0.090905,-0.012688,0.042891
445,0.090577,0.1057,0.039602,0.013293,0.097154,0.094852,0.042233
446,0.088603,0.11195,0.041904,0.0047422,0.093536,0.21127,0.042233
447,0.07808,0.1159,0.043549,-0.004466,0.084657,0.32045,0.044206
448,0.065912,0.10899,0.041575,-0.0087413,0.0692,0.40432,0.04322
449,0.059334,0.090248,0.032696,-0.012359,0.046508,0.44707,0.038287
450,0.058348,0.064596,0.019212,-0.018607,0.013622,0.43556,0.030723
451,0.059005,0.041575,0.0044134,-0.028144,-0.019594,0.37242,0.026119
452,0.06065,0.027434,-0.0077547,-0.038011,-0.042944,0.27277,0.028421
453,0.059663,0.029078,-0.01499,-0.042615,-0.049521,0.15865,0.035327
454,0.056046,0.044535,-0.016634,-0.042615,-0.041628,0.049468,0.039273
455,0.05177,0.060979,-0.011701,-0.037024,-0.025842,-0.037353,0.038287
456,0.050455,0.0692,-0.0054526,-0.03242,-0.010057,-0.093589,0.033683
457,0.054072,0.069529,-0.0015062,-0.030447,0.0057288,-0.1199,0.026119
458,0.061307,0.06624,-0.0028217,-0.031762,0.020857,-0.12516,0.019212
459,0.070187,0.06065,-0.007097,-0.03538,0.029078,-0.11727,0.016253
460,0.07512,0.052099,-0.010386,-0.037353,0.019541,-0.10937,0.014279
461,0.071502,0.044206,-0.0077547,-0.033406,-0.0047949,-0.1051,0.015924
462,0.060979,0.041904,-0.0015062,-0.024527,-0.033735,-0.10115,0.017239
463,0.046837,0.045851,0.0054,-0.014003,-0.058729,-0.095562,0.015924
464,0.033683,0.056703,0.010662,-0.0057815,-0.072542,-0.08471,0.010333
465,0.023488,0.069858,0.013951,-0.0024928,-0.07583,-0.070568,0.0017824
466,0.016581,0.074791,0.019212,-0.0074258,-0.074186,-0.052152,-0.0038083
467,0.01132,0.065583,0.018884,-0.015648,-0.073857,-0.036037,-0.0090702
468,0.0044134,0.048153,0.013293,-0.020909,-0.079777,-0.034064,-0.016305
469,-0.004466,0.031709,0.0011247,-0.020909,-0.091945,-0.052152,-0.024856
470,-0.01203,0.020199,-0.013674,-0.014003,-0.10214,-0.089643,-0.034064
471,-0.014661,0.013622,-0.024198,-0.00051963,-0.10477,-0.13437,-0.037353
472,-0.012688,0.0090175,-0.0265,0.016253,-0.10411,-0.17219,-0.030775
473,-0.0077547,0.0047422,-0.017621,0.030394,-0.11003,-0.19324,-0.013674
474,-0.0015062,0.0014536,-0.0041372,0.037958,-0.13108,-0.19718,0.0054
475,0.0054,0.00079584,0.0073732,0.039602,-0.16528,-0.1837,0.018555
476,0.014608,0.0057288,0.014279,0.04026,-0.20409,-0.16364,0.021843
477,0.023488,0.015266,0.022501,0.042562,-0.23204,-0.14752,0.014608
478,0.032038,0.026776,0.02875,0.045851,-0.23928,-0.13897,0.0017824
479,0.037958,0.034669,0.029736,0.04881,-0.21987,-0.13601,-0.0074258
480,0.044535,0.039602,0.028092,0.052757,-0.17679,-0.13864,-0.010386
481,0.053743,0.041247,0.026119,0.055388,-0.11398,-0.13864,-0.0084125
482,0.064267,0.041904,0.024803,0.059992,-0.033078,-0.13503,-0.0061104
483,0.077093,0.043549,0.026776,0.070187,0.059992,-0.13009,-0.0028217
484,0.08959,0.042233,0.028421,0.086959,0.15142,-0.12023,0.0044134
485,0.097483,0.035985,0.027105,0.10274,0.22903,-0.10477,0.01691
486,0.098798,0.023159,0.020857,0.11294,0.28329,-0.086683,0.029407
487,0.095839,0.0057288,0.011977,0.11524,0.3096,-0.076159,0.037958
488,0.090905,-0.0087413,0.0001381,0.10768,0.30862,-0.078461,0.036971
489,0.085972,-0.019594,-0.015648,0.090577,0.28395,-0.0903,0.027105
490,0.07808,-0.025514,-0.030447,0.066569,0.24449,-0.10346,0.012635
491,0.064596,-0.031104,-0.040641,0.043549,0.19713,-0.11069,-0.0024928
492,0.050126,-0.033735,-0.043601,0.030723,0.14616,-0.11036,-0.012688
493,0.041247,-0.030118,-0.040313,0.032367,0.098141,-0.099509,-0.016963
494,0.037629,-0.019594,-0.029789,0.041575,0.059663,-0.073528,-0.014661
495,0.034669,-0.0034794,-0.012688,0.054401,0.036642,-0.034393,-0.0038083
496,0.035656,0.01132,0.0067154,0.067227,0.032696,0.0086887,0.013951
497,0.037958,0.017568,0.025461,0.079724,0.050455,0.047166,0.03434
498,0.037629,0.014608,0.041575,0.09255,0.097483,0.076435,0.054401
499,0.030723,0.0077021,0.050126,0.10373,0.17674,0.098141,0.069529
500,0.018555,0.0014536,0.05177,0.10735,0.26619,0.11228,0.079395
501,0.0070443,-0.0015062,0.048482,0.10176,0.33953,0.12708,0.081697
502,-0.0024928,0.0011247,0.041575,0.093536,0.3836,0.14583,0.078409
503,-0.0084125,0.0047422,0.032038,0.08663,0.40432,0.16786,0.070516
504,-0.01203,0.0063866,0.022501,0.08367,0.41747,0.18299,0.058676
505,-0.016305,0.0080309,0.015924,0.084657,0.43885,0.18496,0.045522
506,-0.021567,0.0096753,0.011648,0.090905,0.47305,0.17411,0.03434
507,-0.030118,0.013293,0.0080309,0.099127,0.51251,0.15767,0.024145
508,-0.040313,0.021186,0.0044134,0.099785,0.54145,0.13793,0.013951
509,-0.050507,0.027763,0.0014536,0.092879,0.53981,0.1159,0.0044134
510,-0.057743,0.030723,0.0001381,0.081697,0.49804,0.090905,-0.0031506
511,-0.057414,0.029736,0.0014536,0.074133,0.40958,0.062294,-0.0057815
512,-0.048863,0.030065,0.0044134,0.067556,0.28296,0.026776,-0.0034794
513,-0.033078,0.035327,0.012964,0.058676,0.14024,-0.0097279,-0.002164
514,-0.015648,0.047166,0.02579,0.04618,0.0063866,-0.039984,-0.002164
515,-0.0015062,0.067227,0.039931,0.033683,-0.099509,-0.056756,0.0011247
516,0.0073732,0.089919,0.050784,0.027434,-0.16989,-0.062676,0.013293
517,0.015924,0.10406,0.055059,0.027434,-0.20738,-0.063991,0.032367
518,0.022501,0.097154,0.05769,0.027763,-0.22185,-0.065307,0.046837
519,0.022501,0.066898,0.06065,0.024145,-0.22777,-0.069253,0.050126
520,0.017897,0.021514,0.06361,0.015266,-0.23599,-0.071555,0.041904
521,0.010004,-0.028802,0.064267,0.0024402,-0.25276,-0.069253,0.025461
522,0.002769,-0.073199,0.059992,-0.010057,-0.27743,-0.063662,0.0083598
523,-0.0034794,-0.10247,0.05177,-0.01499,-0.30735,-0.059716,-0.0047949
524,-0.0064392,-0.1176,0.039602,-0.013017,-0.33596,-0.059387,-0.010057
525,-0.0067681,-0.12286,0.025132,-0.013017,-0.35899,-0.065635,-0.0090702
526,-0.0077547,-0.12713,0.010662,-0.016305,-0.37609,-0.079448,-0.0064392
527,-0.010057,-0.13305,-0.0015062,-0.022883,-0.38924,-0.092931,-0.0038083
528,-0.01499,-0.137,-0.0064392,-0.031433,-0.40075,-0.10115,0.0021113
529,-0.016963,-0.137,-0.0041372,-0.037024,-0.40996,-0.10082,0.0080309
530,-0.020252,-0.13437,-0.0011774,-0.038997,-0.42279,-0.096549,0.0093464
531,-0.026829,-0.12615,-0.0018351,-0.039984,-0.43956,-0.092274,0.0034268
532,-0.037353,-0.10773,-0.0057815,-0.043601,-0.46225,-0.087998,-0.0028217
533,-0.049192,-0.076159,-0.0097279,-0.045903,-0.4856,-0.080434,-0.0024928
534,-0.059058,-0.037353,-0.011043,-0.048205,-0.49711,-0.067937,0.0067154
535,-0.06136,-0.002164,-0.010386,-0.044917,-0.47606,-0.051165,0.019541
536,-0.053467,0.022501,-0.0097279,-0.039326,-0.40963,-0.03538,0.029407
537,-0.037024,0.033354,-0.0087413,-0.031762,-0.30571,-0.025514,0.031381
538,-0.013345,0.037629,-0.0067681,-0.025185,-0.20014,-0.022554,0.028421
539,0.013293,0.042233,-0.004466,-0.017292,-0.12976,-0.027487,0.022172
540,0.035985,0.05769,0.0017824,-0.0064392,-0.10674,-0.032749,0.015924
541,0.055059,0.086959,0.013293,0.0060577,-0.10905,-0.032749,0.013293
542,0.070187,0.12774,0.027434,0.014937,-0.10707,-0.024198,0.015595
543,0.081697,0.17049,0.036314,0.017568,-0.082408,-0.010057,0.018884
544,0.087617,0.19943,0.03434,0.013622,-0.04097,0.0030979,0.020857
545,0.086301,0.20206,0.01987,0.0054,0.0034268,0.013293,0.020199
546,0.075778,0.17575,0.0001381,-0.004466,0.032367,0.018555,0.014279
547,0.061307,0.13136,-0.017621,-0.013674,0.033354,0.023159,0.0047422
548,0.04618,0.088275,-0.028802,-0.020909,0.0024402,0.028092,-0.00051963
549,0.039602,0.061307,-0.029789,-0.027158,-0.046561,0.031381,0.0037556
550,0.039273,0.052757,-0.021896,-0.031104,-0.095233,0.033683,0.016581
551,0.039931,0.05473,-0.007097,-0.032749,-0.13371,0.037629,0.030723
552,0.04026,0.059005,0.012635,-0.030447,-0.15607,0.043877,0.040589
553,0.038287,0.062294,0.026776,-0.025842,-0.16298,0.05473,0.042562
554,0.034669,0.063281,0.028092,-0.020252,-0.1564,0.070187,0.037629
555,0.023817,0.063281,0.020199,-0.013674,-0.13601,0.090905,0.030065
556,0.0034268,0.059663,0.010662,-0.0087413,-0.093918,0.11524,0.025461
557,-0.015319,0.053086,0.0044134,-0.0038083,-0.024527,0.13826,0.02579
558,-0.023869,0.046837,0.0047422,0.0037556,0.067556,0.16359,0.031709
559,-0.019923,0.045522,0.013951,0.015924,0.17181,0.19088,0.035656
560,-0.0087413,0.044535,0.023488,0.026119,0.26126,0.21324,0.02875
561,-0.00051963,0.039273,0.027434,0.033025,0.30927,0.2162,0.010991
562,0.0030979,0.029078,0.024145,0.033025,0.30105,0.18924,-0.0093991
563,0.0021113,0.01691,0.015266,0.025461,0.24416,0.13432,-0.022883
564,-0.002164,0.0093464,0.0067154,0.016581,0.15602,0.065912,-0.026171
565,-0.0024928,0.0080309,0.002769,0.0067154,0.062294,-0.00051963,-0.024856
566,0.0063866,0.010004,0.0047422,0.00046697,-0.013674,-0.053138,-0.024856
567,0.017568,0.012635,0.010991,-0.0015062,-0.063991,-0.083394,-0.0265
568,0.028092,0.014937,0.018226,0.00079584,-0.092931,-0.097864,-0.026829
569,0.034998,0.015924,0.023817,0.0037556,-0.11036,-0.10082,-0.022883
570,0.039931,0.017568,0.029736,0.010004,-0.12516,-0.1005,-0.014661
571,0.040918,0.021514,0.033683,0.019212,-0.14851,-0.10576,-0.0047949
572,0.036314,0.024145,0.034669,0.031709,-0.18633,-0.11957,0.0030979
573,0.030065,0.020199,0.033683,0.045851,-0.24059,-0.13634,0.0047422
574,0.025132,0.015595,0.031052,0.056703,-0.30867,-0.15542,-0.00051963
575,0.023817,0.019212,0.030394,0.062952,-0.38135,-0.17285,-0.0024928
576,0.023817,0.033354,0.032367,0.064596,-0.44318,-0.1814,0.002769
577,0.025132,0.05473,0.03434,0.066569,-0.48099,-0.16397,0.016253
578,0.024474,0.076106,0.03434,0.072489,-0.47409,-0.10543,0.032367
579,0.017897,0.089261,0.032696,0.078737,-0.40404,-0.0080836,0.04618
580,0.0057288,0.090905,0.031709,0.082355,-0.2646,0.10439,0.05177
581,-0.0074258,0.083999,0.03434,0.085644,-0.069253,0.20173,0.052428
582,-0.019594,0.076764,0.041575,0.090905,0.15602,0.25863,0.05177
583,-0.027816,0.071502,0.054401,0.097483,0.38162,0.27408,0.056374
584,-0.030118,0.065583,0.070187,0.10176,0.5773,0.25961,0.063938
585,-0.02946,0.054401,0.081368,0.099456,0.70819,0.23626,0.065254
586,-0.027487,0.034011,0.082684,0.090577,0.75884,0.21916,0.058019
587,-0.023211,0.0070443,0.074791,0.081039,0.7345,0.21686,0.050784
588,-0.0097279,-0.017621,0.061636,0.076435,0.65656,0.22541,0.048153
589,0.013622,-0.033735,0.053086,0.077422,0.55132,0.24186,0.05177
590,0.038944,-0.04097,0.05473,0.083342,0.44871,0.25567,0.063281
591,0.053415,-0.042286,0.062952,0.084986,0.36683,0.25304,0.078737
592,0.052757,-0.040313,0.072818,0.079066,0.31881,0.22771,0.089919
593,0.039273,-0.036366,0.078737,0.062294,0.30072,0.18595,0.092221
594,0.019541,-0.034393,0.074791,0.038944,0.30171,0.13695,0.084328
595,0.0014536,-0.040641,0.062294,0.017568,0.3119,0.09255,0.066898
596,-0.010057,-0.054783,0.047495,0.0044134,0.32013,0.062623,0.044864
597,-0.011043,-0.07287,0.031381,0.0014536,0.31947,0.051113,0.026776
598,-0.0074258,-0.085039,0.01691,0.0011247,0.30763,0.058019,0.020857
599,-0.0011774,-0.08471,0.0044134,0.0017824,0.28329,0.081368,0.029078
600,0.0083598,-0.064649,-0.00051963,0.0057288,0.24975,0.12379,0.044864
601,0.02283,-0.029131,0.0040845,0.015266,0.21061,0.19121,0.064267
602,0.039931,0.0073732,0.016253,0.024474,0.1672,0.28494,0.084328
603,0.054072,0.032367,0.028092,0.02579,0.12083,0.38886,0.1011
604,0.059005,0.04322,0.030065,0.016581,0.083342,0.47009,0.11097
605,0.050784,0.042233,0.021843,0.00079584,0.069858,0.50166,0.10932
606,0.0373,0.035985,0.0070443,-0.010715,0.090577,0.47568,0.094523
607,0.026776,0.029078,-0.0041372,-0.017292,0.15043,0.40333,0.071173
608,0.023159,0.025132,-0.0074258,-0.021238,0.231,0.30138,0.04618
609,0.031381,0.021843,-0.0041372,-0.023211,0.30631,0.18858,0.024474
610,0.049468,0.019541,-0.0008485,-0.023869,0.34808,0.083013,0.0057288
611,0.069529,0.017568,-0.0018351,-0.022883,0.34216,-0.0015062,-0.0093991
612,0.081697,0.015924,-0.007097,-0.017621,0.28625,-0.0584,-0.021896
613,0.083999,0.01691,-0.012688,-0.0087413,0.19088,-0.086354,-0.032091
614,0.076106,0.018555,-0.015648,0.0001381,0.083342,-0.088985,-0.039326
615,0.069529,0.025132,-0.016305,0.010333,0.0021113,-0.076488,-0.040313
616,0.072489,0.034011,-0.012359,0.021186,-0.0084125,-0.061689,-0.031433
617,0.088275,0.046508,-0.0067681,0.033025,0.067885,-0.050507,-0.016305
618,0.11261,0.061965,0.0011247,0.047166,0.19779,-0.04689,-0.0011774
619,0.1353,0.07512,0.0090175,0.058348,0.2948,-0.056756,0.0093464
620,0.14747,0.079395,0.014279,0.065254,0.28066,-0.084381,0.013293
621,0.14714,0.069529,0.016253,0.065254,0.14056,-0.12286,0.013622
622,0.13826,0.051113,0.011977,0.057032,-0.076488,-0.16035,0.0090175
623,0.12741,0.033683,0.00079584,0.039602,-0.29157,-0.1906,0.0024402
624,0.11656,0.021843,-0.014003,0.013622,-0.4366,-0.21165,-0.0038083
625,0.10406,0.019541,-0.022554,-0.0087413,-0.48363,-0.21922,-0.004466
626,0.090905,0.023159,-0.018607,-0.016963,-0.44646,-0.21067,-0.0041372
627,0.081039,0.028092,-0.0064392,-0.010386,-0.35866,-0.186,-0.002164
628,0.075778,0.032696,0.0090175,0.00046697,-0.26065,-0.15114,0.0017824
629,0.07216,0.038616,0.021186,0.0037556,-0.18534,-0.11957,0.0090175
630,0.065583,0.050126,0.025461,-0.004466,-0.15213,-0.10181,0.018555
631,0.058348,0.071831,0.025132,-0.022554,-0.16232,-0.10247,0.023817
632,0.05177,0.096167,0.024145,-0.041957,-0.20376,-0.11529,0.020199
633,0.047166,0.1136,0.02579,-0.049521,-0.24914,-0.12779,0.0090175
634,0.045851,0.11228,0.027763,-0.043601,-0.27447,-0.13371,-0.0024928
635,0.047824,0.094194,0.021843,-0.030447,-0.26493,-0.13174,-0.011701
636,0.04881,0.059334,0.0096753,-0.018607,-0.23303,-0.12779,-0.015976
637,0.04881,0.012964,-0.0057815,-0.011372,-0.20409,-0.12713,-0.014661
638,0.04322,-0.032749,-0.019594,-0.0064392,-0.19258,-0.13108,-0.011701
639,0.031052,-0.069911,-0.031104,0.0011247,-0.19587,-0.13536,-0.0067681
640,0.013622,-0.095891,-0.041299,0.010004,-0.20442,-0.13634,-0.004466
641,-0.011043,-0.11332,-0.049521,0.017239,-0.20902,-0.13634,-0.0084125
642,-0.036037,-0.11825,-0.050836,0.023159,-0.20442,-0.13996,-0.012359
643,-0.054783,-0.10477,-0.045903,0.02875,-0.19324,-0.14983,-0.011701
644,-0.065635,-0.070897,-0.038997,0.032367,-0.18205,-0.16397,-0.0084125
645,-0.069253,-0.01795,-0.032749,0.03434,-0.17515,-0.17811,-0.0051238
646,-0.067609,0.044864,-0.027816,0.036314,-0.17712,-0.19159,-0.0034794
647,-0.06432,0.10143,-0.025185,0.038287,-0.18501,-0.20244,-0.0054526
648,-0.063991,0.14221,-0.023869,0.038616,-0.19192,-0.20803,-0.011043
649,-0.071884,0.16128,-0.020252,0.038616,-0.19192,-0.20836,-0.016305
650,-0.087998,0.16227,-0.013017,0.036642,-0.18469,-0.20705,-0.019265
651,-0.10444,0.15471,-0.0018351,0.033354,-0.17252,-0.21165,-0.019265
652,-0.11299,0.14912,0.010991,0.029078,-0.1564,-0.22152,-0.012688
653,-0.11102,0.14648,0.022172,0.025132,-0.13437,-0.22875,0.0017824
654,-0.10082,0.14583,0.031381,0.025461,-0.099509,-0.23171,0.020857
655,-0.084052,0.14188,0.030065,0.030065,-0.051494,-0.22579,0.033025
656,-0.065635,0.13333,0.01987,0.036642,-0.0034794,-0.21527,0.038616
657,-0.04985,0.11985,0.0090175,0.045851,0.027763,-0.22744,0.04026
658,-0.038668,0.10538,0.0030979,0.05177,0.035656,-0.28729,0.041904
659,-0.03242,0.095839,0.0037556,0.049797,0.018884,-0.39648,0.04618
660,-0.02946,0.088932,0.01132,0.043877,-0.014003,-0.52177,0.052428
661,-0.0265,0.08367,0.017568,0.036971,-0.042615,-0.6086,0.059334
662,-0.020909,0.079724,0.022501,0.031052,-0.036366,-0.60465,0.065583
663,-0.01795,0.075449,0.027105,0.033025,0.024474,-0.48659,0.065912
664,-0.018936,0.070187,0.033683,0.041904,0.13136,-0.27151,0.062623
665,-0.024856,0.060979,0.039931,0.057032,0.24843,-0.0047949,0.05473
666,-0.032091,0.045193,0.04618,0.07512,0.33295,0.24712,0.044535
667,-0.038339,0.024145,0.04618,0.08663,0.35729,0.43227,0.037629
668,-0.041299,0.0011247,0.040589,0.082684,0.32013,0.52468,0.033354
669,-0.04097,-0.020581,0.032367,0.066898,0.24613,0.53521,0.030394
670,-0.039326,-0.036695,0.027763,0.043877,0.16654,0.501,0.030723
671,-0.033406,-0.044588,0.026447,0.024145,0.1057,0.45496,0.034011
672,-0.023211,-0.043601,0.029078,0.014937,0.06624,0.41879,0.036314
673,-0.01203,-0.03538,0.032696,0.021186,0.033354,0.40366,0.033683
674,-0.0038083,-0.024527,0.034011,0.039273,-0.0018351,0.41221,0.023159
675,0.0024402,-0.012359,0.032367,0.064267,-0.041299,0.43786,0.0077021
676,0.0063866,0.0021113,0.030065,0.084986,-0.074186,0.4645,-0.0041372
677,0.013951,0.010662,0.028421,0.096825,-0.087669,0.47404,-0.007097
678,0.026776,0.0070443,0.027105,0.098798,-0.078132,0.45398,-0.0008485
679,0.042562,-0.011372,0.024145,0.092221,-0.052152,0.4132,0.014608
680,0.057032,-0.04689,0.021186,0.078409,-0.019265,0.36123,0.0373
681,0.065254,-0.097207,0.018226,0.06065,0.010991,0.29875,0.060321
682,0.065912,-0.14983,0.012964,0.048153,0.030394,0.22541,0.075778
683,0.061965,-0.18929,0.0067154,0.04618,0.02875,0.14188,0.081697
684,0.058348,-0.2031,0.0037556,0.052428,0.0057288,0.061636,0.080382
685,0.059663,-0.18534,0.0057288,0.058019,-0.024527,-0.00019077,0.075778
686,0.067556,-0.14752,0.013293,0.058676,-0.044259,-0.037682,0.064925
687,0.080711,-0.09918,0.019541,0.053743,-0.045246,-0.051823,0.05177
688,0.091234,-0.05281,0.02283,0.04618,-0.03242,-0.047219,0.041575
689,0.096496,-0.015976,0.024145,0.038287,-0.011372,-0.034064,0.035985
690,0.096167,0.0073732,0.02283,0.030065,0.014279,-0.019265,0.030723
691,0.090905,0.017568,0.015266,0.019212,0.0373,-0.004466,0.026119
692,0.078409,0.019212,0.0060577,0.0057288,0.056046,0.0077021,0.027434
693,0.061307,0.021843,0.0024402,-0.010386,0.065254,0.014608,0.036314
694,0.046837,0.027763,0.0063866,-0.025185,0.063281,0.017239,0.047166
695,0.038287,0.036642,0.015595,-0.034722,0.05473,0.017568,0.054401
696,0.040589,0.042891,0.020857,-0.038339,0.044864,0.013293,0.053415
697,0.050455,0.044864,0.020857,-0.036695,0.033683,0.0057288,0.043877
698,0.058348,0.044535,0.017897,-0.028802,0.027105,-0.0024928,0.029736
699,0.06065,0.045522,0.011977,-0.016634,0.02579,-0.014003,0.015266
700,0.056703,0.047166,0.0057288,-0.0041372,0.024803,-0.027487,0.0040845
701,0.048482,0.046837,0.0030979,0.0034268,0.019541,-0.037682,-0.0057815
702,0.037958,0.039273,0.0073732,0.0070443,0.013293,-0.039655,-0.015648
703,0.024474,0.026447,0.014608,0.0037556,0.0096753,-0.038339,-0.023869
704,0.010991,0.014608,0.020199,-0.0038083,0.010333,-0.037353,-0.026829
705,0.00079584,0.015924,0.021843,-0.010715,0.011977,-0.03538,-0.026171
706,-0.0008485,0.030394,0.020857,-0.012688,0.012964,-0.033735,-0.018936
707,0.0030979,0.048482,0.015595,-0.0038083,0.010004,-0.033406,-0.0061104
708,0.012964,0.064267,0.0093464,0.011648,0.0030979,-0.033406,0.010662
709,0.026119,0.072818,0.0017824,0.026776,-0.0028217,-0.037682,0.024145
710,0.04026,0.074462,-0.0031506,0.037629,-0.0024928,-0.042944,0.034669
711,0.049468,0.0692,-0.0054526,0.04618,0.0040845,-0.043601,0.039602
712,0.053086,0.057032,-0.0011774,0.052099,0.013622,-0.038339,0.040918
713,0.049139,0.040918,0.0047422,0.052757,0.020528,-0.029131,0.038944
714,0.04322,0.028421,0.014608,0.047495,0.020199,-0.018278,0.037629
715,0.039273,0.02579,0.026447,0.038944,0.015924,-0.0064392,0.038616
716,0.038287,0.0373,0.039602,0.032367,0.020528,0.0070443,0.040918
717,0.039273,0.058348,0.049139,0.026776,0.053086,0.020857,0.041575
718,0.041247,0.075778,0.053415,0.02283,0.11261,0.031709,0.039931
719,0.042891,0.080382,0.049797,0.023817,0.18069,0.037958,0.035985
720,0.042233,0.072489,0.042233,0.030723,0.22837,0.037958,0.031381
721,0.037629,0.059663,0.034998,0.038616,0.23824,0.027763,0.02875
722,0.028092,0.047495,0.030723,0.042891,0.2116,0.0014536,0.026447
723,0.015595,0.039602,0.029078,0.044864,0.16227,-0.035708,0.025132
724,0.002769,0.039602,0.026447,0.04322,0.10834,-0.065964,0.02283
725,-0.0024928,0.042562,0.021843,0.037958,0.070516,-0.073199,0.021843
726,0.0030979,0.047824,0.019541,0.033025,0.059992,-0.056098,0.021843
727,0.017568,0.048153,0.020528,0.031052,0.070516,-0.025842,0.018555
728,0.032038,0.042233,0.027763,0.033025,0.082355,-0.0034794,0.015595
729,0.037629,0.0373,0.034998,0.036314,0.08367,-0.004466,0.015924
730,0.033683,0.034011,0.039931,0.041904,0.068214,-0.030447,0.019212
731,0.02579,0.031381,0.041247,0.049468,0.037629,-0.072213,0.025461
732,0.017239,0.029407,0.037629,0.058676,-0.0008485,-0.11661,0.03434
733,0.010333,0.030394,0.030065,0.0692,-0.033406,-0.15673,0.045193
734,0.0024402,0.033683,0.026447,0.075449,-0.050507,-0.1837,0.052757
735,-0.010386,0.039931,0.028092,0.074462,-0.051823,-0.19488,0.051441
736,-0.02354,0.047495,0.037629,0.069858,-0.04393,-0.19093,0.045522
737,-0.03538,0.053743,0.049139,0.067556,-0.033078,-0.1712,0.04322
738,-0.042615,0.058348,0.057361,0.066569,-0.019594,-0.13404,0.047495
739,-0.045246,0.058348,0.06065,0.065912,-0.0015062,-0.07583,0.055388
740,-0.045246,0.052428,0.058348,0.065254,0.025132,0.0047422,0.063281
741,-0.044259,0.0373,0.052428,0.064925,0.063281,0.11064,0.070516
742,-0.042944,0.017568,0.04881,0.063938,0.11952,0.24383,0.07808
743,-0.038997,-0.00019077,0.05177,0.065912,0.2014,0.39379,0.087288
744,-0.031104,-0.0084125,0.06065,0.070187,0.31125,0.5408,0.098469
745,-0.021567,-0.0067681,0.064925,0.074791,0.43523,0.65722,0.10899
746,-0.015319,0.0024402,0.059334,0.076435,0.54672,0.71312,0.11228
747,-0.013017,0.01132,0.043877,0.075449,0.61052,0.69569,0.10373
748,-0.01499,0.016253,0.024803,0.070845,0.60361,0.61117,0.083999
749,-0.016963,0.014937,0.0096753,0.061965,0.52863,0.48522,0.055717
750,-0.01499,0.010004,0.0037556,0.04881,0.41188,0.34874,0.02875
751,-0.010715,0.012964,0.00079584,0.036314,0.28428,0.23166,0.013622
752,-0.0018351,0.025132,-0.00051963,0.026447,0.1672,0.14648,0.012306
753,0.012635,0.04026,0.0014536,0.018226,0.064925,0.087946,0.019541
754,0.032696,0.05473,0.0037556,0.012635,-0.02354,0.044864,0.026776
755,0.049468,0.065254,0.0080309,0.012306,-0.10148,0.012306,0.027434
756,0.058019,0.067227,0.010991,0.013951,-0.17186,-0.01203,0.019212
757,0.060321,0.058348,0.013951,0.020528,-0.23138,-0.032091,0.0080309
758,0.058676,0.044535,0.01987,0.031052,-0.27381,-0.054454,0.0014536
759,0.055388,0.035656,0.025461,0.04026,-0.2919,-0.086683,0.0001381
760,0.052757,0.035985,0.029078,0.038944,-0.29288,-0.13009,0.0011247
761,0.05177,0.046508,0.029736,0.027105,-0.28861,-0.17482,-0.0011774
762,0.048482,0.062623,0.026776,0.0050711,-0.29288,-0.21198,-0.0084125
763,0.039931,0.077093,0.021514,-0.021896,-0.30801,-0.23237,-0.019265
764,0.024803,0.08367,0.011977,-0.045574,-0.33037,-0.2327,-0.032091
765,0.0096753,0.084328,-0.0031506,-0.057743,-0.35076,-0.21428,-0.044588
766,-0.0024928,0.076435,-0.019265,-0.063991,-0.36194,-0.18436,-0.048534
767,-0.0097279,0.062623,-0.032749,-0.066951,-0.35997,-0.14983,-0.042944
768,-0.015648,0.046508,-0.041628,-0.070568,-0.34649,-0.11628,-0.034064
769,-0.012688,0.031709,-0.04393,-0.07583,-0.32478,-0.088656,-0.024527
770,-0.0018351,0.017568,-0.04097,-0.08175,-0.29518,-0.067609,-0.016634
771,0.015924,0.0070443,-0.034393,-0.087669,-0.25408,-0.052481,-0.011372
772,0.037629,-0.0018351,-0.028473,-0.089972,-0.20277,-0.041957,-0.0097279
773,0.053086,-0.0080836,-0.023869,-0.090629,-0.14719,-0.034064,-0.013674
774,0.061636,-0.014661,-0.021896,-0.088985,-0.094905,-0.0265,-0.019594
775,0.06361,-0.01795,-0.02354,-0.080106,-0.045574,-0.017621,-0.025842
776,0.063281,-0.01795,-0.02946,-0.063991,0.0044134,-0.01203,-0.032091
777,0.058348,-0.017292,-0.034393,-0.048205,0.052099,-0.012688,-0.038668
778,0.055059,-0.01795,-0.033078,-0.038011,0.089919,-0.014661,-0.042615
779,0.052757,-0.025842,-0.028144,-0.035051,0.10669,-0.024527,-0.041957
780,0.053086,-0.041628,-0.019265,-0.033735,0.099456,-0.045574,-0.036366
781,0.057032,-0.057743,-0.011701,-0.030775,0.078737,-0.071555,-0.030118
782,0.059992,-0.06432,-0.0057815,-0.021896,0.066569,-0.094905,-0.027816
783,0.06065,-0.057743,-0.0018351,-0.010057,0.073804,-0.11595,-0.031433
784,0.062623,-0.042286,0.0037556,0.0047422,0.099785,-0.13404,-0.037353
785,0.068871,-0.024198,0.01132,0.018226,0.13399,-0.15114,-0.041299
786,0.078737,-0.0051238,0.016581,0.027434,0.16095,-0.16989,-0.040313
787,0.088275,0.013951,0.014608,0.033354,0.17246,-0.18797,-0.032091
788,0.091563,0.034011,0.0063866,0.038287,0.16852,-0.20343,-0.019594
789,0.085644,0.054072,-0.002164,0.041904,0.15931,-0.21955,-0.0051238
790,0.07216,0.066898,-0.0038083,0.04618,0.15109,-0.24125,0.0093464
791,0.054072,0.066569,0.0001381,0.048153,0.14846,-0.27118,0.018884
792,0.038287,0.055717,0.0083598,0.043877,0.15306,-0.30472,0.020528
793,0.028421,0.04322,0.020199,0.034669,0.16523,-0.32413,0.016253
794,0.022501,0.036971,0.030723,0.024803,0.18102,-0.29387,0.012964
795,0.018884,0.039931,0.038287,0.018555,0.20568,-0.18501,0.016253
796,0.015924,0.047824,0.039273,0.01987,0.2629,0.0001381,0.025132
797,0.017897,0.056374,0.040918,0.034011,0.37242,0.22739,0.04026
798,0.024803,0.059992,0.047166,0.058019,0.53159,0.44214,0.059992
799,0.03434,0.055388,0.057361,0.08663,0.69372,0.59868,0.079066
800,0.039931,0.043549,0.065912,0.11195,0.78218,0.66971,0.092879
801,0.037958,0.032038,0.065254,0.12577,0.73483,0.64472,0.099456
802,0.029736,0.024803,0.058348,0.12445,0.54803,0.53619,0.098141
803,0.022172,0.01987,0.050784,0.10866,0.27474,0.37439,0.089919
804,0.020528,0.017239,0.046837,0.088275,-0.0024928,0.20502,0.076435
805,0.02579,0.01691,0.048153,0.071173,-0.21297,0.067885,0.063938
806,0.033025,0.023817,0.051441,0.059663,-0.32544,-0.018607,0.057361
807,0.039931,0.033354,0.053086,0.04881,-0.35339,-0.060373,0.059663
808,0.042891,0.045193,0.050784,0.039931,-0.34024,-0.077146,0.067556
809,0.038616,0.052428,0.042562,0.033025,-0.33202,-0.091287,0.073476
810,0.026776,0.058019,0.035985,0.028092,-0.35208,-0.11299,0.069529
811,0.011977,0.059992,0.033354,0.026119,-0.39549,-0.1393,0.057032
812,-0.0008485,0.05769,0.035656,0.025461,-0.44745,-0.1564,0.043877
813,-0.0077547,0.050126,0.036642,0.022172,-0.49152,-0.15509,0.029078
814,-0.0087413,0.038287,0.035656,0.01691,-0.51816,-0.13897,0.013293
815,-0.0034794,0.021514,0.032367,0.013293,-0.52638,-0.11201,-0.0018351
816,-0.0008485,0.0037556,0.027105,0.012306,-0.51388,-0.079777,-0.011372
817,-0.0015062,-0.0038083,0.021843,0.014608,-0.48494,-0.044259,-0.013674
818,-0.0038083,0.0044134,0.019541,0.020528,-0.44745,-0.007097,-0.010715
819,-0.0061104,0.022172,0.017897,0.027763,-0.4116,0.032038,-0.0034794
820,-0.0087413,0.041575,0.019541,0.033683,-0.3774,0.071173,0.0086887
821,-0.010386,0.056374,0.022172,0.036314,-0.32347,0.10176,0.024145
822,-0.010715,0.062623,0.022501,0.034998,-0.23204,0.12248,0.039273
823,-0.0074258,0.061307,0.023159,0.034011,-0.11464,0.12905,0.05473
824,-0.004466,0.056046,0.024803,0.035985,-0.018607,0.12313,0.06361
825,-0.0064392,0.046508,0.026119,0.039931,0.010662,0.1011,0.065254
826,-0.013017,0.0373,0.024145,0.044864,-0.039655,0.059334,0.058348
827,-0.016963,0.029078,0.018555,0.045522,-0.13568,-0.00019077,0.04322
828,-0.016963,0.020199,0.010004,0.042562,-0.21626,-0.07024,0.022501
829,-0.014661,0.014608,0.0044134,0.039931,-0.23434,-0.13832,0.0073732
830,-0.011372,0.014608,0.00046697,0.038944,-0.17712,-0.18699,0.0040845
831,-0.0057815,0.020528,-0.0011774,0.038944,-0.056427,-0.19751,0.011977
832,0.0017824,0.028092,-0.00051963,0.042562,0.096496,-0.15706,0.025132
833,0.010662,0.03434,0.0057288,0.052099,0.2458,-0.07024,0.038944
834,0.018226,0.036642,0.016581,0.067556,0.36255,0.041247,0.053743
835,0.021843,0.037629,0.026776,0.084328,0.4303,0.14484,0.066569
836,0.021843,0.038287,0.034998,0.094194,0.43852,0.22114,0.075778
837,0.020857,0.039273,0.041247,0.097483,0.38952,0.2606,0.075778
838,0.017897,0.04026,0.044206,0.091234,0.29776,0.26488,0.065583
839,0.014937,0.037629,0.041247,0.077422,0.18562,0.23791,0.049468
840,0.013622,0.034011,0.033354,0.057361,0.080382,0.19187,0.030065
841,0.01132,0.029078,0.022172,0.038944,0.0073732,0.13169,0.010991
842,0.0077021,0.023817,0.0063866,0.028092,-0.010386,0.062623,-0.0018351
843,0.0017824,0.020199,-0.0084125,0.025132,0.020199,-0.01203,-0.010715
844,-0.0015062,0.023159,-0.018278,0.023488,0.070516,-0.086354,-0.019594
845,-0.0034794,0.038944,-0.018936,0.020199,0.11327,-0.14423,-0.026171
846,-0.0047949,0.067556,-0.0087413,0.014937,0.12971,-0.16857,-0.029789
847,-0.0074258,0.10274,0.0080309,0.0070443,0.12248,-0.14785,-0.030118
848,-0.012688,0.13432,0.024803,-0.002164,0.11097,-0.080434,-0.028473
849,-0.01795,0.15175,0.034669,-0.0080836,0.11689,0.026447,-0.030118
850,-0.021238,0.14846,0.033683,-0.0097279,0.14254,0.15076,-0.033735
851,-0.018278,0.12511,0.023817,-0.010057,0.17707,0.25633,-0.032091
852,-0.01203,0.091563,0.0073732,-0.010057,0.20502,0.3096,-0.021567
853,-0.0084125,0.052099,-0.0084125,-0.0097279,0.20535,0.29908,-0.007097
854,-0.010057,0.013951,-0.021567,-0.013674,0.1649,0.23692,0.002769
855,-0.012359,-0.018607,-0.030118,-0.026171,0.085315,0.1455,0.002769
856,-0.013017,-0.04097,-0.033735,-0.044917,-0.020909,0.04618,-0.007097
857,-0.010386,-0.053796,-0.032749,-0.064649,-0.13503,-0.041957,-0.021567
858,-0.0041372,-0.063004,-0.02946,-0.074844,-0.24125,-0.11201,-0.037024
859,0.0070443,-0.076159,-0.025185,-0.075501,-0.31393,-0.1587,-0.05281
860,0.021843,-0.094576,-0.018278,-0.063004,-0.32972,-0.17975,-0.062676
861,0.036971,-0.11299,-0.0074258,-0.04097,-0.28137,-0.17383,-0.062018
862,0.051441,-0.12417,0.0063866,-0.0087413,-0.18107,-0.14588,-0.047219
863,0.061965,-0.12384,0.021514,0.02875,-0.058729,-0.10214,-0.020252
864,0.067885,-0.11431,0.035656,0.062952,0.042562,-0.056756,0.0093464
865,0.067556,-0.10082,0.043877,0.084657,0.084657,-0.024198,0.035327
866,0.065912,-0.097536,0.041247,0.086301,0.055717,-0.014661,0.051441
867,0.062952,-0.1051,0.030065,0.07216,-0.025185,-0.025842,0.059334
868,0.061307,-0.11628,0.015266,0.052099,-0.11529,-0.046232,0.057032
869,0.058348,-0.12154,0.0001381,0.038287,-0.1814,-0.065635,0.039931
870,0.057361,-0.11201,-0.0097279,0.031381,-0.21264,-0.073199,0.013293
871,0.059992,-0.087341,-0.011372,0.027763,-0.21659,-0.062676,-0.012688
872,0.063281,-0.04985,-0.0054526,0.025461,-0.21001,-0.038011,-0.0265
873,0.06361,-0.0093991,0.0030979,0.022501,-0.20573,-0.00019077,-0.025842
874,0.059992,0.027105,0.0073732,0.013293,-0.20705,0.044535,-0.018278
875,0.049139,0.051113,0.010004,-0.002164,-0.21494,0.085972,-0.010057
876,0.030723,0.065583,0.013622,-0.019265,-0.22448,0.10998,-0.0087413
877,0.0093464,0.072818,0.019212,-0.03242,-0.23171,0.1057,-0.012359
878,-0.0093991,0.07808,0.023488,-0.038668,-0.23467,0.073804,-0.020252
879,-0.022225,0.07808,0.023817,-0.039326,-0.23369,0.025132,-0.027487
880,-0.030118,0.072489,0.018884,-0.032749,-0.22481,-0.022554,-0.026171
881,-0.031104,0.059992,0.010333,-0.023869,-0.20738,-0.05544,-0.012688
882,-0.029131,0.046837,0.0011247,-0.01499,-0.18238,-0.067609,0.0050711
883,-0.027158,0.037629,-0.0018351,-0.0064392,-0.15015,-0.066622,0.021514
884,-0.028802,0.03434,0.00079584,0.0011247,-0.097536,-0.0584,0.032367
885,-0.033735,0.033354,0.0073732,0.0080309,-0.0064392,-0.049192,0.037629
886,-0.038997,0.033683,0.010004,0.01987,0.13958,-0.034064,0.041575
887,-0.042286,0.034669,0.0083598,0.0373,0.33723,-0.007097,0.051441
888,-0.040313,0.036642,0.0021113,0.060979,0.55921,0.033683,0.062952
889,-0.03538,0.037958,-0.0034794,0.082026,0.76147,0.076764,0.07216
890,-0.026829,0.036971,-0.0024928,0.094852,0.90025,0.097483,0.077751
891,-0.014003,0.033025,0.0057288,0.099127,0.94991,0.068214,0.082684
892,-0.0008485,0.027763,0.019541,0.098469,0.9065,-0.017621,0.084657
893,0.014608,0.024474,0.031381,0.097483,0.79402,-0.13174,0.085972
894,0.032038,0.025461,0.039931,0.098141,0.64735,-0.23434,0.083342
895,0.045522,0.031709,0.044864,0.098141,0.49706,-0.29157,0.079395
896,0.050784,0.042562,0.047824,0.096496,0.36058,-0.28992,0.077093
897,0.048482,0.056703,0.046837,0.08959,0.24482,-0.23665,0.071831
898,0.04322,0.0692,0.040589,0.07808,0.1501,-0.1518,0.065583
899,0.037629,0.076764,0.033025,0.063281,0.068214,-0.060373,0.05769
900,0.034998,0.076764,0.02579,0.049139,-0.011043,0.018555,0.050455
901,0.033025,0.067556,0.021186,0.039931,-0.090958,0.071502,0.046837
902,0.030394,0.048482,0.01987,0.035656,-0.16495,0.095839,0.047824
903,0.027105,0.024474,0.020528,0.033354,-0.22119,0.10505,0.051441
904,0.02283,0.0011247,0.018226,0.027763,-0.25112,0.11261,0.057361
905,0.017568,-0.020581,0.011977,0.020857,-0.25737,0.13234,0.060979
906,0.0093464,-0.036037,0.00046697,0.012306,-0.24651,0.16523,0.061636
907,0.00079584,-0.042944,-0.010715,0.0047422,-0.22612,0.20798,0.061307
908,-0.0064392,-0.039984,-0.017621,0.0037556,-0.19817,0.25929,0.061636
909,-0.0080836,-0.027816,-0.017621,0.0093464,-0.16265,0.31388,0.065254
910,-0.0011774,-0.0087413,-0.012359,0.017568,-0.1268,0.36058,0.072818
911,0.0077021,0.013293,-0.0064392,0.023159,-0.098522,0.38985,0.081697
912,0.010333,0.034998,0.0024402,0.027105,-0.079448,0.39741,0.084657
913,0.0063866,0.055388,0.010004,0.032367,-0.067609,0.38162,0.077093
914,-0.004466,0.07216,0.017239,0.036971,-0.058729,0.33756,0.063281
915,-0.018278,0.085315,0.023817,0.041904,-0.056427,0.26488,0.048482
916,-0.030447,0.089919,0.034011,0.04322,-0.063004,0.17016,0.04026
917,-0.039984,0.080382,0.045851,0.035656,-0.08175,0.068214,0.034669
918,-0.044259,0.056374,0.052757,0.024803,-0.11069,-0.023211,0.026447
919,-0.038339,0.024145,0.050126,0.015924,-0.14489,-0.089972,0.016253
920,-0.025185,-0.0034794,0.041575,0.0093464,-0.18271,-0.12878,0.010004
921,-0.004466,-0.017621,0.034669,0.0080309,-0.21264,-0.14095,0.0040845
922,0.020199,-0.014332,0.036971,0.011977,-0.22316,-0.137,0.00079584
923,0.04618,0.0024402,0.047166,0.020528,-0.21297,-0.12878,0.00079584
924,0.070845,0.024803,0.06361,0.032367,-0.17942,-0.12286,0.0044134
925,0.08959,0.041575,0.077093,0.041575,-0.12911,-0.11924,0.010004
926,0.099785,0.045522,0.078737,0.044535,-0.07024,-0.11793,0.014279
927,0.098469,0.032696,0.062294,0.037629,-0.016634,-0.12516,0.0093464
928,0.085644,0.0070443,0.030394,0.025132,0.029078,-0.14456,-0.0047949
929,0.067556,-0.02354,-0.0093991,0.013622,0.075449,-0.17285,-0.019594
930,0.053415,-0.046232,-0.044588,0.010991,0.1501,-0.20146,-0.028473
931,0.047166,-0.054454,-0.064649,0.017239,0.26586,-0.21626,-0.025514
932,0.047495,-0.043272,-0.063662,0.025132,0.39938,-0.21527,-0.0090702
933,0.055059,-0.018607,-0.044917,0.02579,0.49837,-0.20475,0.012306
934,0.065912,0.012306,-0.016963,0.01987,0.51942,-0.19291,0.033025
935,0.077751,0.04026,0.013293,0.015595,0.45332,-0.1837,0.049139
936,0.086301,0.059992,0.035656,0.015266,0.32966,-0.17942,0.059005
937,0.092221,0.071502,0.044535,0.017897,0.19746,-0.17942,0.060979
938,0.093208,0.080711,0.044206,0.021843,0.098141,-0.18436,0.055059
939,0.091234,0.097483,0.039931,0.029078,0.060979,-0.18666,0.044535
940,0.08959,0.12905,0.035327,0.03434,0.087617,-0.17679,0.033683
941,0.090577,0.1751,0.03434,0.033354,0.15405,-0.15213,0.023488
942,0.094523,0.22212,0.036642,0.025461,0.21555,-0.11825,0.018884
943,0.10044,0.25402,0.040589,0.016253,0.23955,-0.083065,0.018884
944,0.10603,0.25961,0.045193,0.0080309,0.20897,-0.052152,0.016253
945,0.1057,0.23396,0.047166,0.0017824,0.14155,-0.027487,0.011648
946,0.098798,0.18792,0.041904,-0.007097,0.063938,-0.004466,0.0040845
947,0.086301,0.13728,0.035327,-0.018278,-0.0008485,0.026447,-0.0028217
948,0.070187,0.09255,0.032367,-0.026829,-0.03538,0.082684,-0.0077547
949,0.053415,0.055388,0.03434,-0.028144,-0.037682,0.17542,-0.012688
950,0.040918,0.026776,0.037958,-0.025185,-0.01795,0.30434,-0.012688
951,0.032038,0.0083598,0.040589,-0.02354,0.0083598,0.44016,-0.0038083
952,0.024803,0.00046697,0.039931,-0.021896,0.02579,0.54112,0.010662
953,0.017568,0.0037556,0.036642,-0.018278,0.025132,0.57467,0.028092
954,0.0086887,0.01132,0.033025,-0.012359,0.0040845,0.52665,0.042233
955,0.00079584,0.017239,0.030723,-0.002164,-0.032091,0.41089,0.050126
956,-0.0038083,0.021186,0.027763,0.0090175,-0.075173,0.26192,0.05473
957,-0.0051238,0.022501,0.024803,0.016253,-0.11529,0.11853,0.055388
958,-0.0038083,0.019212,0.01987,0.017568,-0.15147,0.0077021,0.051113
959,-0.0011774,0.012964,0.01691,0.015595,-0.18469,-0.065307,0.043877
960,0.002769,0.0017824,0.016253,0.0096753,-0.22218,-0.1097,0.035985
961,0.0070443,-0.01203,0.015595,0.0044134,-0.26263,-0.14127,0.029736
962,0.010333,-0.02354,0.012635,0.0040845,-0.30275,-0.17153,0.025132
963,0.010004,-0.025514,0.0093464,0.0086887,-0.33399,-0.20179,0.020199
964,0.0083598,-0.011701,0.0083598,0.01691,-0.35537,-0.2281,0.014608
965,0.0063866,0.014937,0.010004,0.024145,-0.36951,-0.24388,0.0090175
966,0.0070443,0.044864,0.012635,0.031709,-0.38398,-0.25013,0.0030979
967,0.010004,0.06624,0.013293,0.039273,-0.39944,-0.24947,-0.0008485
968,0.013293,0.073476,0.0090175,0.047824,-0.40963,-0.24388,0.00079584
969,0.017897,0.064596,0.0017824,0.05177,-0.40536,-0.235,0.0083598
970,0.022501,0.040918,-0.0054526,0.047824,-0.38036,-0.22514,0.019541
971,0.020199,0.013293,-0.011701,0.036642,-0.33268,-0.20738,0.035656
972,0.011648,-0.0041372,-0.013017,0.027434,-0.26756,-0.17811,0.055717
973,0.00079584,-0.0064392,-0.010386,0.025132,-0.19718,-0.13536,0.071173
974,-0.0093991,-0.0018351,-0.0054526,0.029078,-0.13338,-0.084381,0.07808
975,-0.016305,0.0080309,0.0001381,0.040589,-0.080434,-0.031104,0.076435
976,-0.019923,0.017239,0.0017824,0.055059,-0.029789,0.017239,0.07216
977,-0.024527,0.018884,-0.0015062,0.066898,0.037629,0.063281,0.069858
978,-0.028473,0.0090175,-0.0074258,0.074791,0.14451,0.11623,0.072818
979,-0.03538,-0.010386,-0.010715,0.081039,0.29809,0.18463,0.077093
980,-0.041957,-0.033735,-0.0051238,0.088275,0.47667,0.27145,0.079066
981,-0.047877,-0.053796,0.010333,0.096496,0.64834,0.37702,0.07808
982,-0.054783,-0.063662,0.027763,0.10702,0.78646,0.49706,0.07512
983,-0.058071,-0.062018,0.041575,0.11524,0.87756,0.61413,0.071173
984,-0.056427,-0.05544,0.043549,0.11985,0.92195,0.70227,0.0692
985,-0.052481,-0.051823,0.034998,0.12149,0.92689,0.73483,0.0692
986,-0.047219,-0.054125,0.02283,0.11952,0.89696,0.69997,0.068214
987,-0.040313,-0.058729,0.013293,0.1159,0.83382,0.60328,0.065912
988,-0.029131,-0.059058,0.011648,0.11195,0.74141,0.47469,0.060321
989,-0.012688,-0.056098,0.018884,0.10965,0.6217,0.34282,0.055388
990,0.002769,-0.052481,0.032038,0.10866,0.48127,0.22837,0.050126
991,0.010662,-0.051823,0.044864,0.10505,0.32901,0.13892,0.042891
992,0.0083598,-0.051823,0.05177,0.09551,0.17378,0.07512,0.033354
993,-0.0018351,-0.052152,0.05177,0.082026,0.031381,0.031709,0.023488
994,-0.010057,-0.054454,0.04322,0.067227,-0.085696,0.0044134,0.014608
995,-0.01203,-0.061689,0.033025,0.048153,-0.17153,-0.015976,0.0060577
996,-0.0051238,-0.069911,0.020857,0.027434,-0.2281,-0.039326,-0.0028217
997,0.0083598,-0.076159,0.0070443,0.0086887,-0.26657,-0.068595,-0.015319
998,0.023488,-0.077475,-0.004466,-0.0018351,-0.29518,-0.10346,-0.024198
999,0.036642,-0.07024,-0.0097279,-0.0047949,-0.32051,-0.1416,-0.028144
1000,0.043549,-0.053467,-0.007097,-0.0015062,-0.3455,-0.18173,-0.029789
1001,0.044535,-0.030447,0.0011247,0.002769,-0.37214,-0.21889,-0.028473
1002,0.04322,-0.0061104,0.011648,0.0037556,-0.39878,-0.24651,-0.025185
1003,0.038944,0.015595,0.021186,0.0014536,-0.42311,-0.26164,-0.025185
1004,0.037958,0.034669,0.02579,-0.0061104,-0.43758,-0.26953,-0.030775
1005,0.042233,0.051441,0.023159,-0.019594,-0.4241,-0.27151,-0.039326
1006,0.049797,0.064925,0.015924,-0.033078,-0.36721,-0.26328,-0.045903
1007,0.055059,0.073147,0.0083598,-0.04097,-0.27118,-0.23533,-0.048534
1008,0.055388,0.074791,0.0044134,-0.041957,-0.15311,-0.18238,-0.046232
1009,0.050455,0.067885,0.0024402,-0.04097,-0.042286,-0.11266,-0.042944
1010,0.043877,0.055059,0.0014536,-0.038668,0.040589,-0.04985,-0.041628
1011,0.034669,0.037958,0.00046697,-0.035051,0.085972,-0.019594,-0.042615
1012,0.023159,0.025461,-0.0028217,-0.028473,0.094194,-0.028802,-0.045903
1013,0.01132,0.023817,-0.0038083,-0.020252,0.07512,-0.069253,-0.051165
1014,0.0047422,0.032038,-0.0038083,-0.011701,0.04618,-0.11957,-0.05544
1015,0.0047422,0.04322,-0.0034794,-0.0041372,0.028092,-0.16265,-0.059058
1016,0.011977,0.055717,-0.0024928,0.0011247,0.029407,-0.18567,-0.058071
1017,0.026776,0.06361,-0.00019077,0.0054,0.035985,-0.18666,-0.053138
1018,0.04322,0.065583,0.002769,0.0080309,0.029078,-0.17383,-0.042615
1019,0.055717,0.060979,0.0034268,0.0030979,-0.0047949,-0.1541,-0.031762
1020,0.061965,0.054072,0.00046697,-0.0051238,-0.057085,-0.12911,-0.024198
1021,0.058348,0.047166,-0.0054526,-0.012688,-0.11365,-0.099509,-0.019923
1022,0.048482,0.045851,-0.010057,-0.017292,-0.15443,-0.06432,-0.017292
1023,0.035327,0.055388,-0.007097,-0.01795,-0.17186,-0.024198,-0.015648
1024,0.025132,0.07216,0.00046697,-0.015319,-0.1643,0.015924,-0.013345
1025,0.01987,0.088603,0.0093464,-0.014332,-0.14358,0.048482,-0.011701
1026,0.019212,0.097483,0.01691,-0.011372,-0.12417,0.069529,-0.0074258
1027,0.020528,0.098141,0.020199,-0.0061104,-0.11628,0.080053,-0.0054526
1028,0.024474,0.092879,0.022501,-0.0034794,-0.1268,0.086301,-0.0093991
1029,0.027434,0.087288,0.02579,-0.0051238,-0.1495,0.088932,-0.01499
1030,0.028092,0.084328,0.028092,-0.0087413,-0.17844,0.084986,-0.016305
1031,0.02579,0.082026,0.027105,-0.013674,-0.21165,0.070845,-0.010057
1032,0.026447,0.07512,0.027105,-0.021896,-0.25013,0.045851,0.0011247
1033,0.033354,0.062952,0.028092,-0.030118,-0.29288,0.016581,0.01132
1034,0.042891,0.050455,0.027763,-0.035708,-0.33399,-0.013345,0.017897
1035,0.049797,0.038616,0.024803,-0.033406,-0.36721,-0.036037,0.022172
1036,0.052099,0.031052,0.020528,-0.023211,-0.37905,-0.047219,0.022501
1037,0.05177,0.030394,0.01987,-0.0087413,-0.36458,-0.047219,0.024145
1038,0.047824,0.035985,0.023159,0.0050711,-0.32215,-0.038997,0.02875
1039,0.04322,0.047824,0.027105,0.015266,-0.25013,-0.025842,0.035985
1040,0.036642,0.06361,0.027763,0.022172,-0.14687,-0.013017,0.046837
1041,0.030723,0.078737,0.026447,0.024474,-0.02354,-0.0041372,0.056046
1042,0.025461,0.092221,0.023159,0.024803,0.093865,-0.0084125,0.06361
1043,0.019212,0.1011,0.018884,0.02579,0.17115,-0.033735,0.068871
1044,0.013293,0.10439,0.012635,0.025132,0.18628,-0.079777,0.065254
1045,0.0067154,0.099127,0.0063866,0.022172,0.1432,-0.13536,0.05473
1046,0.002769,0.083013,0.0017824,0.016581,0.059005,-0.18732,0.043877
1047,-0.00019077,0.060979,-0.0024928,0.010004,-0.030447,-0.22283,0.04026
1048,-0.004466,0.038287,-0.0061104,0.0024402,-0.094905,-0.23698,0.042562
1049,-0.014003,0.020528,-0.0087413,0.00046697,-0.11957,-0.2304,0.04881
1050,-0.024198,0.0060577,-0.0097279,0.0083598,-0.10378,-0.20343,0.050784
1051,-0.031433,-0.0074258,-0.010715,0.023488,-0.057414,-0.15772,0.04881
1052,-0.036695,-0.020909,-0.015319,0.041247,0.01132,-0.086354,0.043877
1053,-0.039984,-0.032749,-0.019265,0.056046,0.099456,0.015595,0.040918
1054,-0.041628,-0.037353,-0.021238,0.061307,0.20009,0.14056,0.038616
1055,-0.040641,-0.030775,-0.018278,0.061636,0.29184,0.2629,0.039931
1056,-0.038011,-0.013345,-0.011043,0.061636,0.35104,0.35203,0.047166
1057,-0.034064,0.010004,-0.0041372,0.067556,0.36715,0.3905,0.059663
1058,-0.028802,0.028421,0.002769,0.077422,0.34545,0.37768,0.071173
1059,-0.025185,0.035656,0.0060577,0.087288,0.29645,0.32539,0.075778
1060,-0.020909,0.031709,0.0047422,0.094852,0.23133,0.25074,0.073147
1061,-0.015319,0.023159,0.0044134,0.096825,0.1626,0.17181,0.069529
1062,-0.0077547,0.015924,0.0067154,0.093208,0.1011,0.10209,0.067556
1063,-0.002164,0.010333,0.012635,0.085315,0.051441,0.050455,0.067227
1064,0.0037556,0.0093464,0.018884,0.076106,0.016581,0.021843,0.066569
1065,0.0090175,0.015924,0.023817,0.069529,-0.007097,0.010662,0.061307
1066,0.012964,0.026119,0.027763,0.062294,-0.01795,0.0080309,0.052099
1067,0.013622,0.037629,0.027763,0.052757,-0.0087413,0.0086887,0.04026
1068,0.015266,0.047495,0.023159,0.042233,0.027763,0.015266,0.030723
1069,0.01987,0.052757,0.021843,0.033683,0.093208,0.028421,0.029736
1070,0.026119,0.054401,0.028092,0.029407,0.17049,0.044864,0.032696
1071,0.034011,0.053743,0.037958,0.033683,0.231,0.057032,0.037958
1072,0.042233,0.052428,0.047824,0.046508,0.25994,0.060979,0.041904
1073,0.050784,0.05177,0.051113,0.061965,0.25238,0.054401,0.041904
1074,0.056374,0.052428,0.045851,0.075778,0.21653,0.0373,0.037629
1075,0.052099,0.051441,0.033025,0.079724,0.1649,0.013622,0.033025
1076,0.038944,0.050126,0.01987,0.070187,0.10932,-0.0064392,0.031381
1077,0.027105,0.049139,0.01132,0.050455,0.060979,-0.019923,0.031709
1078,0.026119,0.049139,0.010662,0.028092,0.031052,-0.028473,0.032038
1079,0.03434,0.050784,0.018884,0.0093464,0.017568,-0.03242,0.029736
1080,0.041575,0.056046,0.031381,0.0011247,0.012306,-0.025185,0.022172
1081,0.046508,0.06361,0.043549,-0.00051963,0.010004,-0.0084125,0.012635
1082,0.047495,0.073147,0.053415,-0.00051963,0.0030979,0.0093464,0.0037556
1083,0.049139,0.079395,0.059334,-0.0047949,-0.0097279,0.021186,-0.0041372
1084,0.052099,0.081039,0.059992,-0.011372,-0.028473,0.024803,-0.014661
1085,0.052428,0.072818,0.052099,-0.016634,-0.051494,0.017239,-0.024198
1086,0.049139,0.059005,0.039602,-0.016634,-0.076817,-0.00019077,-0.029131
1087,0.044206,0.042233,0.027105,-0.0087413,-0.098193,-0.025514,-0.027487
1088,0.037629,0.026447,0.018555,-0.00051963,-0.11201,-0.047877,-0.027816
1089,0.031052,0.012635,0.013951,0.0044134,-0.11529,-0.065635,-0.029131
1090,0.027105,0.0017824,0.0090175,-0.0008485,-0.11036,-0.081421,-0.031104
1091,0.026776,-0.0090702,0.0047422,-0.015648,-0.10181,-0.097864,-0.028802
1092,0.030065,-0.022225,-0.00019077,-0.037353,-0.095233,-0.11201,-0.020252
1093,0.0373,-0.043601,-0.0077547,-0.056756,-0.091616,-0.12516,-0.0064392
1094,0.045193,-0.077803,-0.01795,-0.06728,-0.092274,-0.14029,0.0050711
1095,0.052428,-0.12549,-0.028802,-0.063662,-0.094576,-0.16002,0.0090175
1096,0.057032,-0.1735,-0.037024,-0.049521,-0.096878,-0.18534,0.0070443
1097,0.061965,-0.20244,-0.036366,-0.029789,-0.09622,-0.21297,0.0040845
1098,0.064267,-0.19521,-0.026171,-0.010715,-0.08471,-0.23336,0.00046697
1099,0.064267,-0.14983,-0.0087413,0.0040845,-0.063662,-0.23434,-0.0047949
1100,0.062623,-0.078461,0.010333,0.011977,-0.037682,-0.21395,-0.0077547
1101,0.063281,-0.002164,0.026776,0.010004,-0.013017,-0.17844,-0.0024928
1102,0.06361,0.060321,0.036971,0.0021113,0.0047422,-0.1347,0.011648
1103,0.06065,0.091892,0.041247,-0.0034794,0.01691,-0.087669,0.028421
1104,0.053086,0.085972,0.040589,-0.0047949,0.036642,-0.039984,0.036642
1105,0.039602,0.05473,0.035327,-0.00019077,0.081368,0.013293,0.036642
1106,0.020199,0.017897,0.027434,0.0060577,0.16227,0.079724,0.03434
1107,0.0044134,-0.0080836,0.018226,0.012635,0.27902,0.16326,0.034011
1108,-0.0015062,-0.018278,0.01132,0.018555,0.4224,0.26225,0.04026
1109,0.0021113,-0.010386,0.01132,0.031052,0.56612,0.36419,0.055388
1110,0.012964,0.0093464,0.018555,0.05177,0.66741,0.44411,0.072818
1111,0.025461,0.036971,0.029407,0.080711,0.68846,0.48423,0.083999
1112,0.036971,0.065912,0.039273,0.10998,0.62301,0.47864,0.08663
1113,0.043877,0.086959,0.044864,0.13366,0.51153,0.44016,0.082355
1114,0.045522,0.095839,0.046508,0.14879,0.40366,0.38754,0.07216
1115,0.042562,0.096496,0.04881,0.15635,0.33427,0.3369,0.059334
1116,0.036971,0.091234,0.054072,0.15569,0.3119,0.29645,0.048153
1117,0.035327,0.081368,0.061636,0.14912,0.31881,0.26488,0.041575
1118,0.035656,0.070845,0.0692,0.1376,0.32374,0.23396,0.039273
1119,0.034998,0.062623,0.076435,0.12511,0.28888,0.19187,0.04026
1120,0.030394,0.056046,0.081368,0.11491,0.18365,0.13826,0.042562
1121,0.018884,0.047824,0.081697,0.10702,0.013293,0.079724,0.04322
1122,0.0083598,0.036642,0.078737,0.1011,-0.18995,0.033354,0.045522
1123,0.0021113,0.01987,0.074462,0.094852,-0.37937,0.0090175,0.05177
1124,0.0073732,0.0017824,0.070187,0.08663,-0.51322,0.011977,0.06065
1125,0.020528,-0.010386,0.064925,0.083013,-0.56716,0.04026,0.070187
1126,0.035985,-0.011701,0.057361,0.082684,-0.54348,0.078409,0.079724
1127,0.044864,-0.0054526,0.046837,0.079066,-0.4685,0.1034,0.08367
1128,0.044864,0.0034268,0.034998,0.06624,-0.3705,0.10307,0.078409
1129,0.036971,0.010662,0.026776,0.04618,-0.27216,0.084657,0.068871
1130,0.025132,0.015266,0.021514,0.029736,-0.19389,0.061307,0.059992
1131,0.010991,0.017239,0.019212,0.021843,-0.15081,0.041247,0.05473
1132,-0.0011774,0.015924,0.018226,0.021843,-0.14127,0.031381,0.05177
1133,-0.0090702,0.012964,0.017239,0.026119,-0.14555,0.033025,0.05177
1134,-0.015648,0.010991,0.013951,0.030065,-0.13568,0.048482,0.054401
1135,-0.017621,0.010991,0.010662,0.033354,-0.095562,0.075449,0.056703
1136,-0.013017,0.017239,0.0096753,0.034011,-0.022225,0.1034,0.057361
1137,-0.0034794,0.031381,0.01132,0.034669,0.061307,0.12215,0.05473
1138,0.010662,0.05473,0.014937,0.0373,0.11787,0.12577,0.053086
1139,0.026447,0.076764,0.017239,0.041247,0.11721,0.11261,0.055388
1140,0.039602,0.091563,0.017568,0.042233,0.049797,0.080711,0.059334
1141,0.04618,0.099456,0.01691,0.03434,-0.060702,0.031709,0.058676
1142,0.043877,0.099127,0.017568,0.022172,-0.17022,-0.023869,0.053086
1143,0.034669,0.08959,0.018555,0.010991,-0.25046,-0.073857,0.042891
1144,0.024474,0.076435,0.020857,-0.00019077,-0.28861,-0.1074,0.032696
1145,0.017568,0.06361,0.021186,-0.013345,-0.28894,-0.12319,0.020199
1146,0.014608,0.054401,0.015924,-0.024856,-0.26394,-0.13272,0.0054
1147,0.012964,0.047824,0.0057288,-0.030775,-0.22941,-0.15706,-0.010386
1148,0.010991,0.042562,-0.0061104,-0.027487,-0.20442,-0.2179,-0.022225
1149,0.0090175,0.035656,-0.015319,-0.021238,-0.19389,-0.32215,-0.02946
1150,0.0044134,0.029407,-0.021567,-0.017621,-0.19389,-0.45469,-0.027158
1151,-0.0018351,0.029407,-0.023869,-0.019594,-0.19981,-0.57604,-0.019265
1152,-0.0090702,0.030723,-0.024198,-0.024527,-0.2054,-0.6474,-0.010715
1153,-0.015976,0.029736,-0.026171,-0.028144,-0.20606,-0.64839,-0.0090702
1154,-0.020909,0.020857,-0.028473,-0.028473,-0.19554,-0.58031,-0.016634
1155,-0.022883,0.00046697,-0.027816,-0.02354,-0.17087,-0.46422,-0.028144
1156,-0.023869,-0.023211,-0.019594,-0.012359,-0.13568,-0.32939,-0.039326
1157,-0.027158,-0.042286,-0.0034794,-0.0018351,-0.097207,-0.20639,-0.048534
1158,-0.033078,-0.051494,0.015924,0.0044134,-0.056427,-0.10576,-0.055769
1159,-0.042615,-0.050507,0.02875,0.0017824,-0.018278,-0.027487,-0.063333
1160,-0.052152,-0.045574,0.031381,-0.0084125,0.014937,0.036971,-0.068924
1161,-0.059387,-0.042944,0.024145,-0.022883,0.045522,0.098469,-0.069582
1162,-0.061031,-0.04393,0.011648,-0.036695,0.079724,0.15964,-0.064649
1163,-0.055112,-0.046561,-0.0015062,-0.04689,0.11623,0.21883,-0.056756
1164,-0.044588,-0.045903,-0.011043,-0.04985,0.1524,0.27573,-0.048205
1165,-0.031104,-0.037682,-0.014003,-0.04689,0.18989,0.33657,-0.037682
1166,-0.016305,-0.019594,-0.015319,-0.041628,0.22443,0.39642,-0.027487
1167,-0.0008485,0.0024402,-0.018607,-0.034722,0.24778,0.44246,-0.01795
1168,0.013293,0.017897,-0.021567,-0.028144,0.25337,0.46483,-0.013345
1169,0.023159,0.021514,-0.02354,-0.022883,0.24186,0.46055,-0.01795
1170,0.029078,0.012964,-0.025842,-0.02354,0.22015,0.43523,-0.027816
1171,0.035327,-0.0034794,-0.024856,-0.027816,0.19812,0.39182,-0.033406
1172,0.043549,-0.025185,-0.018278,-0.033735,0.18299,0.32769,-0.028473
1173,0.054401,-0.045574,-0.011701,-0.037682,0.17378,0.24646,-0.015319
1174,0.062623,-0.051494,-0.0077547,-0.036366,0.16654,0.1649,0.0034268
1175,0.064925,-0.039326,-0.0077547,-0.029789,0.15635,0.097812,0.026447
1176,0.064596,-0.018278,-0.0097279,-0.019594,0.14648,0.056703,0.044864
1177,0.063938,0.002769,-0.014332,-0.011701,0.14122,0.052099,0.052757
1178,0.062952,0.024145,-0.021238,-0.0057815,0.14024,0.084328,0.049797
1179,0.059992,0.048153,-0.028144,-0.0041372,0.13958,0.13596,0.042233
1180,0.054401,0.073476,-0.033406,-0.004466,0.13169,0.18299,0.034011
1181,0.04618,0.092879,-0.034393,-0.0038083,0.11952,0.20535,0.028421
1182,0.040589,0.1034,-0.028144,-0.0011774,0.11294,0.1922,0.027434
1183,0.039602,0.10932,-0.013017,0.0054,0.12346,0.14616,0.031052
1184,0.040918,0.1159,0.010662,0.018555,0.15767,0.077422,0.038944
1185,0.036971,0.12774,0.038287,0.036642,0.20436,-0.00051963,0.048153
1186,0.029407,0.14155,0.063938,0.050455,0.23988,-0.074186,0.052757
1187,0.021186,0.15799,0.082684,0.057032,0.23857,-0.13174,0.052428
1188,0.019541,0.17279,0.09255,0.058348,0.19055,-0.16528,0.050126
1189,0.021186,0.18069,0.091563,0.053743,0.10406,-0.17646,0.049139
1190,0.021843,0.17641,0.077751,0.047495,0.0090175,-0.17515,0.045851
1191,0.022172,0.15832,0.055388,0.04618,-0.066951,-0.1735,0.040918
1192,0.02283,0.13169,0.036642,0.051113,-0.1028,-0.17252,0.035656
1193,0.023817,0.1113,0.027434,0.059663,-0.095891,-0.16693,0.030394
1194,0.02283,0.10406,0.021186,0.066569,-0.049521,-0.1541,0.02579
1195,0.019212,0.11294,0.018555,0.071173,0.029407,-0.13733,0.025132
1196,0.013293,0.13201,0.015266,0.073804,0.1284,-0.11825,0.024145
1197,0.0093464,0.15142,0.010662,0.075449,0.23495,-0.095891,0.021514
1198,0.013951,0.16095,0.0034268,0.073804,0.33953,-0.07024,0.017239
1199,0.025132,0.15602,-0.0031506,0.065254,0.4303,-0.041299,0.013622
1200,0.040589,0.13366,-0.0074258,0.053743,0.4964,-0.013674,0.015266
1201,0.051441,0.10011,-0.0074258,0.04618,0.52797,0.013622,0.021514
1202,0.052757,0.061965,-0.0018351,0.044864,0.51251,0.037629,0.029736
1203,0.047495,0.025461,0.0080309,0.047824,0.44378,0.05769,0.034998
1204,0.036314,-0.0047949,0.015924,0.052099,0.33032,0.068543,0.0373
1205,0.025132,-0.025514,0.019541,0.057032,0.18759,0.064925,0.035656
1206,0.016253,-0.038011,0.020199,0.060979,0.034669,0.045522,0.029736
1207,0.0080309,-0.047548,0.019541,0.063281,-0.10609,0.012635,0.018226
1208,-0.002164,-0.060045,0.018555,0.062294,-0.21987,-0.030775,0.0080309
1209,-0.016634,-0.080106,0.022172,0.059005,-0.29946,-0.07879,0.0063866
1210,-0.030447,-0.10937,0.031709,0.051441,-0.34451,-0.12582,0.012635
1211,-0.041957,-0.14555,0.04322,0.042233,-0.36556,-0.16594,0.021843
1212,-0.048205,-0.18469,0.051441,0.033025,-0.37674,-0.19324,0.031052
1213,-0.046232,-0.21757,0.047495,0.025132,-0.38464,-0.20475,0.037958
1214,-0.03538,-0.2327,0.033025,0.021186,-0.38957,-0.21001,0.042233
1215,-0.020909,-0.23237,0.012306,0.019212,-0.38562,-0.2179,0.042233
1216,-0.0080836,-0.22152,-0.0054526,0.018555,-0.37214,-0.23434,0.042562
1217,0.0037556,-0.20113,-0.014003,0.02283,-0.34353,-0.25802,0.049468
1218,0.015924,-0.17515,-0.010386,0.033683,-0.30472,-0.28729,0.055388
1219,0.024803,-0.14522,0.0030979,0.045851,-0.26098,-0.31952,0.056046
1220,0.026776,-0.11332,0.017897,0.054401,-0.22053,-0.34978,0.046837
1221,0.021186,-0.083723,0.026776,0.056046,-0.18436,-0.37181,0.031709
1222,0.014937,-0.057414,0.025132,0.053086,-0.14621,-0.37444,0.01691
1223,0.010991,-0.036366,0.011648,0.050784,-0.095562,-0.34583,0.0093464
1224,0.010662,-0.022883,-0.0087413,0.053743,-0.023211,-0.2692,0.010004
1225,0.012635,-0.019265,-0.024527,0.06361,0.076435,-0.13963,0.021514
1226,0.013622,-0.020909,-0.030118,0.07512,0.19581,0.025461,0.042233
1227,0.012306,-0.021238,-0.0265,0.085644,0.31881,0.19417,0.063281
1228,0.013293,-0.015648,-0.01795,0.093536,0.42076,0.33756,0.077751
1229,0.019212,-0.0047949,-0.0061104,0.097483,0.47831,0.44246,0.08663
1230,0.030394,0.010662,0.0070443,0.097154,0.48357,0.50429,0.090905
1231,0.044206,0.02579,0.016253,0.09255,0.43753,0.52205,0.090577
1232,0.058676,0.036642,0.02283,0.084328,0.34841,0.49377,0.083999
1233,0.069529,0.042233,0.026447,0.07512,0.23429,0.41977,0.0692
1234,0.073804,0.041904,0.027763,0.065583,0.11656,0.31256,0.04618
1235,0.068871,0.039273,0.028092,0.051113,0.013293,0.19516,0.020528
1236,0.058348,0.042233,0.027105,0.035327,-0.071555,0.092879,-0.0034794
1237,0.046837,0.049139,0.024145,0.023817,-0.13634,0.015924,-0.02354
1238,0.036971,0.053086,0.018884,0.020857,-0.18699,-0.033735,-0.037353
1239,0.026447,0.050455,0.014608,0.022172,-0.23007,-0.061689,-0.044259
1240,0.014608,0.036642,0.0090175,0.02283,-0.26657,-0.073528,-0.042615
1241,0.0050711,0.018884,0.002769,0.016581,-0.30078,-0.070897,-0.036366
1242,-0.0018351,0.0063866,-0.0011774,0.0080309,-0.3386,-0.058729,-0.031104
1243,-0.0041372,0.0073732,0.0001381,0.002769,-0.37872,-0.045246,-0.024856
1244,-0.0015062,0.021843,0.0083598,0.0047422,-0.40371,-0.040641,-0.020252
1245,0.0063866,0.047495,0.018884,0.011648,-0.39121,-0.048863,-0.015648
1246,0.015595,0.079395,0.029078,0.021843,-0.33662,-0.06136,-0.0041372
1247,0.024145,0.11064,0.038944,0.035327,-0.25013,-0.069253,0.012964
1248,0.029407,0.13629,0.047166,0.046508,-0.16002,-0.066951,0.025461
1249,0.031709,0.15438,0.053086,0.053086,-0.099509,-0.055769,0.028421
1250,0.035985,0.16063,0.058348,0.054072,-0.085696,-0.043272,0.022501
1251,0.044864,0.14879,0.060321,0.049139,-0.11398,-0.034393,0.013293
1252,0.054401,0.12149,0.06065,0.038616,-0.16462,-0.034393,0.0047422
1253,0.056374,0.084657,0.055388,0.025132,-0.21428,-0.045246,-0.004466
1254,0.050784,0.045851,0.042562,0.0073732,-0.24487,-0.065635,-0.0084125
1255,0.041247,0.014937,0.02579,-0.013017,-0.25342,-0.092603,-0.010386
1256,0.035656,0.0001381,0.010004,-0.032749,-0.24191,-0.1222,-0.0087413
1257,0.032038,0.00079584,-0.0031506,-0.047877,-0.21724,-0.1518,-0.0028217
1258,0.033683,0.011977,-0.011043,-0.05544,-0.18962,-0.18469,0.0060577
1259,0.039273,0.024474,-0.011372,-0.056098,-0.16627,-0.22415,0.013293
1260,0.042233,0.032696,-0.0077547,-0.04985,-0.14259,-0.2623,0.01691
1261,0.037629,0.038944,-0.0031506,-0.038997,-0.1097,-0.27545,0.01987
1262,0.024474,0.047824,0.0021113,-0.028144,-0.061031,-0.23665,0.024474
1263,0.0090175,0.063938,0.0083598,-0.018936,0.010991,-0.14292,0.032696
1264,-0.0028217,0.080711,0.019541,-0.01203,0.11261,-0.0080836,0.04618
1265,-0.0097279,0.090248,0.033354,-0.007097,0.23035,0.13596,0.064596
1266,-0.01203,0.087946,0.043549,-0.0038083,0.32506,0.256,0.082026
1267,-0.012359,0.076435,0.049797,-0.0015062,0.35795,0.3267,0.09255
1268,-0.013017,0.061307,0.050784,-0.002164,0.31717,0.33525,0.090905
1269,-0.015648,0.056046,0.04618,-0.0024928,0.22245,0.29711,0.080382
1270,-0.016305,0.063281,0.035656,-0.0008485,0.11228,0.24876,0.064925
1271,-0.012359,0.076764,0.025461,0.002769,0.023817,0.2264,0.054072
1272,-0.0061104,0.094194,0.018884,0.0044134,-0.027158,0.2412,0.050784
1273,-0.0024928,0.10998,0.016253,0.0070443,-0.043272,0.27672,0.053415
1274,-0.0054526,0.11952,0.017568,0.0086887,-0.042615,0.30664,0.055388
1275,-0.022225,0.11689,0.01987,0.0086887,-0.040313,0.30862,0.055717
1276,-0.048205,0.10077,0.021186,0.0070443,-0.048863,0.2777,0.052099
1277,-0.076159,0.077093,0.021186,0.0054,-0.076817,0.22015,0.045522
1278,-0.095233,0.051441,0.01987,0.0070443,-0.12286,0.15668,0.035327
1279,-0.098193,0.030723,0.017568,0.013293,-0.17219,0.10242,0.022501
1280,-0.084381,0.01987,0.01691,0.02283,-0.19028,0.065254,0.010991
1281,-0.059058,0.016581,0.018226,0.033683,-0.13832,0.045851,0.0011247
1282,-0.030775,0.012635,0.018555,0.041247,0.010991,0.039602,-0.0028217
1283,-0.0054526,0.0017824,0.016253,0.043877,0.23199,0.039602,-0.002164
1284,0.016581,-0.013017,0.011977,0.041247,0.44707,0.039602,0.0014536
1285,0.03434,-0.025185,0.0090175,0.034998,0.5727,0.033683,0.0047422
1286,0.049139,-0.027158,0.010333,0.029736,0.56513,0.02283,0.0067154
1287,0.061965,-0.01795,0.015924,0.027434,0.43556,0.0077021,0.0050711
1288,0.075449,-0.0051238,0.023159,0.026447,0.23857,-0.0064392,0.0030979
1289,0.086301,0.0044134,0.033025,0.02283,0.039931,-0.015976,-0.00051963
1290,0.093865,0.0073732,0.041575,0.018884,-0.11332,-0.022554,-0.0074258
1291,0.098141,0.0050711,0.047495,0.021186,-0.19685,-0.026171,-0.017292
1292,0.10307,0.0047422,0.048153,0.031709,-0.21132,-0.028802,-0.028802
1293,0.1159,0.015266,0.040918,0.045522,-0.17252,-0.028473,-0.036037
1294,0.13793,0.033354,0.031709,0.055717,-0.1051,-0.019265,-0.03242
1295,0.16095,0.051113,0.026119,0.06065,-0.038339,-0.0008485,-0.019265
1296,0.17411,0.059992,0.02579,0.056374,0.0080309,0.021186,-0.0064392
1297,0.17148,0.057032,0.028092,0.047824,0.030065,0.043877,0.0030979
1298,0.15569,0.044864,0.030723,0.039602,0.030065,0.060979,0.0096753
1299,0.13728,0.02579,0.029407,0.034998,0.01987,0.065912,0.013622
1300,0.11919,0.0011247,0.025461,0.032038,0.015924,0.06065,0.015924
1301,0.10307,-0.022883,0.017897,0.027105,0.027105,0.051441,0.01691
1302,0.085315,-0.037024,0.0090175,0.023488,0.056046,0.045193,0.019212
1303,0.068214,-0.033406,0.0001381,0.021186,0.091234,0.043549,0.025132
1304,0.053086,-0.015319,-0.0041372,0.021186,0.13432,0.038616,0.033025
1305,0.037629,0.010004,0.0011247,0.024474,0.18693,0.030723,0.039602
1306,0.020857,0.033683,0.01132,0.029736,0.24876,0.019541,0.041247
1307,0.0021113,0.05177,0.01987,0.034998,0.31717,0.0030979,0.038287
1308,-0.019265,0.058019,0.02283,0.039931,0.38491,-0.019265,0.030394
1309,-0.040313,0.051441,0.01987,0.044206,0.43293,-0.049521,0.01987
1310,-0.063662,0.033025,0.010004,0.052757,0.44246,-0.083723,0.014279
1311,-0.085696,0.011648,-0.00019077,0.062294,0.40432,-0.11266,0.017897
1312,-0.099838,-0.0018351,-0.0087413,0.070187,0.32572,-0.13174,0.029736
1313,-0.10148,-0.00019077,-0.014003,0.073804,0.2264,-0.14226,0.042562
1314,-0.091945,0.014279,-0.013674,0.0692,0.12412,-0.15048,0.048153
1315,-0.071884,0.031381,-0.0084125,0.056046,0.039602,-0.16002,0.047824
1316,-0.04689,0.040918,-0.00019077,0.043877,-0.013345,-0.17877,0.047495
1317,-0.022883,0.040589,0.0040845,0.0373,-0.039326,-0.20902,0.049139
1318,-0.0038083,0.032367,0.0060577,0.033683,-0.050507,-0.24783,0.053415
1319,0.011977,0.020857,0.010004,0.030723,-0.054125,-0.28696,0.056703
1320,0.024474,0.012635,0.015266,0.026119,-0.05544,-0.31031,0.057032
1321,0.035656,0.011648,0.022172,0.020857,-0.044588,-0.30505,0.051441
1322,0.04618,0.017239,0.027105,0.015595,-0.0031506,-0.26822,0.04026
1323,0.054072,0.029407,0.031052,0.0093464,0.078737,-0.20047,0.027434
1324,0.053415,0.041575,0.03434,0.0024402,0.19088,-0.10247,0.018884
1325,0.045522,0.053415,0.036314,0.00046697,0.3096,0.023488,0.017568
1326,0.037958,0.062952,0.036971,0.0077021,0.39938,0.17411,0.028092
1327,0.037629,0.0692,0.035656,0.024803,0.42964,0.33164,0.045193
1328,0.041904,0.073476,0.030394,0.043877,0.39741,0.48292,0.065583
1329,0.048482,0.077093,0.026119,0.058019,0.32736,0.61907,0.086959
1330,0.055059,0.077422,0.020528,0.064596,0.25501,0.73877,0.10307
1331,0.059663,0.073804,0.015266,0.062623,0.20371,0.83283,0.10932
1332,0.061965,0.066898,0.010662,0.054401,0.16391,0.8815,0.1057
1333,0.055059,0.060321,0.010333,0.040918,0.10866,0.86309,0.092879
1334,0.042891,0.057032,0.012964,0.027763,0.024803,0.76278,0.077751
1335,0.031052,0.057361,0.018884,0.018555,-0.079777,0.59769,0.062952
1336,0.024145,0.060321,0.027434,0.014279,-0.18304,0.40497,0.052757
1337,0.025461,0.059992,0.037958,0.013951,-0.26296,0.22147,0.048153
1338,0.026447,0.057032,0.042891,0.014937,-0.31097,0.074791,0.047166
1339,0.023817,0.054401,0.038287,0.010991,-0.3307,-0.023869,0.045522
1340,0.017239,0.053086,0.027105,0.0014536,-0.33366,-0.07879,0.041904
1341,0.0070443,0.049797,0.015595,-0.013017,-0.333,-0.10017,0.031381
1342,-0.00019077,0.043877,0.0063866,-0.025842,-0.33531,-0.10411,0.014279
1343,-0.0015062,0.035327,-0.0018351,-0.034064,-0.34123,-0.10181,-0.0031506
1344,0.00046697,0.026776,-0.0087413,-0.042615,-0.3455,-0.099509,-0.016963
1345,0.002769,0.022172,-0.013017,-0.050179,-0.34287,-0.098522,-0.0265
1346,0.0024402,0.024145,-0.01499,-0.054125,-0.32939,-0.096549,-0.030118
1347,0.0014536,0.025461,-0.015976,-0.04689,-0.30078,-0.09326,-0.0265
1348,0.002769,0.02579,-0.016305,-0.034393,-0.25506,-0.089314,-0.018936
1349,0.0054,0.027763,-0.014003,-0.023211,-0.19652,-0.083723,-0.014003
1350,0.0077021,0.034998,-0.010715,-0.020252,-0.13568,-0.079777,-0.015976
1351,0.0077021,0.04618,-0.0077547,-0.023211,-0.088327,-0.081092,-0.023211
1352,0.0030979,0.05473,-0.0038083,-0.027487,-0.065964,-0.087669,-0.030118
1353,-0.0038083,0.059992,0.0017824,-0.02946,-0.077475,-0.10214,-0.030118
1354,-0.0057815,0.06361,0.0063866,-0.028473,-0.11661,-0.12417,-0.020581
1355,-0.0051238,0.062294,0.0054,-0.027158,-0.17054,-0.15147,-0.0077547
1356,-0.0011774,0.055059,0.0017824,-0.021896,-0.21691,-0.18469,-0.0008485
1357,0.0047422,0.040918,-0.0015062,-0.012688,-0.24322,-0.21987,-0.0011774
1358,0.013293,0.021843,-0.0018351,-0.0024928,-0.2452,-0.2498,-0.0074258
1359,0.019541,0.0011247,0.002769,0.0050711,-0.22678,-0.26986,-0.014003
1360,0.021514,-0.015648,0.0077021,0.010333,-0.19093,-0.27677,-0.017621
1361,0.017239,-0.028144,0.012306,0.011977,-0.14029,-0.26592,-0.015976
1362,0.0080309,-0.037353,0.014608,0.01132,-0.082408,-0.23796,-0.0051238
1363,-0.0034794,-0.041299,0.012635,0.011648,-0.032091,-0.2031,0.0073732
1364,-0.013017,-0.041299,0.0067154,0.0090175,-0.0077547,-0.16956,0.013622
1365,-0.020252,-0.037353,-0.0031506,0.0060577,-0.023211,-0.14423,0.010662
1366,-0.024527,-0.029789,-0.01203,0.0057288,-0.076488,-0.12812,0.0017824
1367,-0.027816,-0.014332,-0.015648,0.0054,-0.15903,-0.1222,-0.0054526
1368,-0.032749,0.0093464,-0.011372,0.0040845,-0.25112,-0.12976,-0.0064392
1369,-0.042944,0.038616,-0.0028217,0.0044134,-0.32676,-0.14818,-0.0031506
1370,-0.053796,0.070516,0.0073732,0.013951,-0.35767,-0.16166,0.00079584
1371,-0.055112,0.093536,0.015595,0.035985,-0.31755,-0.15838,0.0040845
1372,-0.047548,0.097812,0.018555,0.065254,-0.19093,-0.13305,0.0073732
1373,-0.034722,0.084328,0.018226,0.092879,0.00046697,-0.090629,0.010004
1374,-0.023869,0.059992,0.017897,0.11195,0.21423,-0.044259,0.015595
1375,-0.016634,0.032367,0.021514,0.11853,0.39971,-0.0011774,0.02579
1376,-0.013017,0.0086887,0.02875,0.11491,0.50561,0.0373,0.038616
1377,-0.010386,-0.010386,0.036314,0.10801,0.50824,0.065583,0.05177
1378,-0.0087413,-0.0265,0.041904,0.10143,0.41747,0.076106,0.059005
1379,-0.0064392,-0.041957,0.045193,0.097483,0.28099,0.070187,0.063281
1380,-0.0018351,-0.051494,0.046837,0.09255,0.16194,0.055388,0.063281
1381,0.0030979,-0.052481,0.045522,0.083342,0.10965,0.047166,0.060321
1382,0.0077021,-0.045246,0.039273,0.075778,0.14714,0.056046,0.056046
1383,0.0096753,-0.030775,0.030394,0.071173,0.25567,0.084328,0.055388
1384,0.0083598,-0.011701,0.022172,0.069858,0.39215,0.12313,0.058348
1385,0.0054,0.0080309,0.014608,0.071502,0.50166,0.15997,0.064925
1386,0.0047422,0.025461,0.010662,0.080053,0.54803,0.18989,0.071173
1387,0.0090175,0.0373,0.01132,0.09551,0.53488,0.21489,0.076764
1388,0.01691,0.041575,0.011977,0.1136,0.48982,0.23495,0.082026
1389,0.024803,0.038616,0.0086887,0.12412,0.43753,0.24876,0.083013
1390,0.034011,0.029078,0.0034268,0.12149,0.38031,0.25205,0.080053
1391,0.042233,0.014608,-0.0008485,0.10636,0.30829,0.23495,0.074462
1392,0.04881,-0.0047949,-0.0008485,0.087288,0.22443,0.18003,0.067885
1393,0.056046,-0.025514,0.0001381,0.071502,0.1455,0.074791,0.061307
1394,0.063281,-0.041957,0.002769,0.064596,0.084986,-0.077146,0.056703
1395,0.067227,-0.051823,0.0073732,0.065583,0.047166,-0.2498,0.052757
1396,0.065254,-0.051823,0.016253,0.067556,0.023488,-0.40799,0.04881
1397,0.058348,-0.040641,0.026776,0.067227,0.0054,-0.51322,0.042562
1398,0.053415,-0.02354,0.034669,0.061965,-0.018278,-0.54381,0.026119
1399,0.051441,-0.0034794,0.038287,0.050126,-0.054454,-0.49744,0.00046697
1400,0.052099,0.011648,0.036642,0.03434,-0.10444,-0.39779,-0.024527
1401,0.051113,0.016581,0.030065,0.016581,-0.15969,-0.27808,-0.041628
1402,0.047495,0.0096753,0.024145,0.0001381,-0.21001,-0.16726,-0.049192
1403,0.039602,-0.0047949,0.021514,-0.016963,-0.2452,-0.083394,-0.048534
1404,0.029736,-0.022883,0.018555,-0.031433,-0.26164,-0.024198,-0.04393
1405,0.022501,-0.040641,0.015595,-0.038011,-0.25704,0.026447,-0.040313
1406,0.018884,-0.056098,0.0093464,-0.040313,-0.23467,0.077751,-0.038997
1407,0.022172,-0.070568,-0.0011774,-0.039326,-0.19916,0.13004,-0.039655
1408,0.029736,-0.080434,-0.0090702,-0.036366,-0.15838,0.18134,-0.041628
1409,0.036642,-0.085367,-0.012688,-0.031104,-0.12023,0.23429,-0.041957
1410,0.038287,-0.086683,-0.010386,-0.022883,-0.092931,0.29612,-0.038011
1411,0.038287,-0.082736,-0.004466,-0.016634,-0.080106,0.36781,-0.031104
1412,0.036642,-0.068595,0.0011247,-0.015319,-0.075501,0.44246,-0.019594
1413,0.0373,-0.044588,0.0014536,-0.018936,-0.063333,0.51186,-0.0034794
1414,0.039931,-0.01499,-0.0038083,-0.022225,-0.031433,0.5648,0.014279
1415,0.045193,0.015266,-0.010057,-0.020909,0.018884,0.58289,0.030394
1416,0.052428,0.039602,-0.010386,-0.016305,0.07808,0.55165,0.041247
1417,0.06361,0.062623,0.0011247,-0.0077547,0.13169,0.46647,0.044864
1418,0.077751,0.085644,0.025461,0.002769,0.16128,0.33624,0.042891
1419,0.092221,0.10768,0.055388,0.016253,0.15273,0.18299,0.034669
1420,0.10242,0.12313,0.082355,0.031052,0.10702,0.032367,0.017239
1421,0.10932,0.13234,0.099127,0.042891,0.039931,-0.090629,-0.0047949
1422,0.11195,0.13826,0.10472,0.048482,-0.027487,-0.17318,-0.02354
1423,0.10965,0.13892,0.099127,0.045193,-0.076159,-0.2133,-0.025185
1424,0.10768,0.1284,0.082355,0.03434,-0.10082,-0.21955,-0.011701
1425,0.10998,0.11031,0.061307,0.020199,-0.10378,-0.21001,0.0070443
1426,0.11393,0.090577,0.04322,0.0037556,-0.092274,-0.20146,0.014279
1427,0.11162,0.073476,0.030723,-0.0084125,-0.076159,-0.1985,0.0086887
1428,0.10176,0.057032,0.02283,-0.014003,-0.061689,-0.19225,-0.0024928
1429,0.091892,0.043549,0.019541,-0.011701,-0.053467,-0.18173,-0.013017
1430,0.080711,0.033354,0.020528,-0.0061104,-0.054783,-0.16923,-0.018936
1431,0.066898,0.030065,0.02283,-0.0008485,-0.063662,-0.15936,-0.015976
1432,0.051113,0.027763,0.019541,0.0050711,-0.073199,-0.15509,-0.0074258
1433,0.036971,0.024474,0.0093464,0.0090175,-0.078461,-0.1564,-0.0008485
1434,0.022172,0.018226,-0.0034794,0.0083598,-0.077475,-0.16232,-0.0038083
1435,0.0040845,0.010333,-0.014003,-0.00051963,-0.074844,-0.16726,-0.015648
1436,-0.016963,0.0040845,-0.022225,-0.016963,-0.074515,-0.16824,-0.026171
1437,-0.034393,0.0040845,-0.024856,-0.033735,-0.07879,-0.16364,-0.029789
1438,-0.042944,0.01132,-0.023869,-0.047877,-0.089643,-0.15377,-0.028802
1439,-0.041628,0.023159,-0.020252,-0.053796,-0.10641,-0.14489,-0.025514
1440,-0.03538,0.031709,-0.016963,-0.048534,-0.12911,-0.13766,-0.017292
1441,-0.030775,0.034998,-0.013017,-0.037682,-0.15673,-0.13272,-0.0061104
1442,-0.030775,0.033025,-0.0093991,-0.026171,-0.18337,-0.1324,0.0067154
1443,-0.031104,0.026776,-0.0061104,-0.017621,-0.20277,-0.13437,0.015266
1444,-0.028144,0.020199,-0.0041372,-0.013017,-0.21363,-0.13864,0.014608
1445,-0.022554,0.015266,-0.0041372,-0.012688,-0.21757,-0.14062,0.0093464
1446,-0.014661,0.010333,-0.0047949,-0.011043,-0.21527,-0.1393,0.0060577
1447,-0.0054526,0.0047422,-0.0051238,-0.0024928,-0.21001,-0.13897,0.0073732
1448,0.0014536,-0.00019077,-0.0024928,0.0080309,-0.20968,-0.14752,0.013293
1449,0.0017824,-0.0057815,0.0021113,0.015266,-0.20869,-0.16528,0.023488
1450,-0.0051238,-0.010715,0.0060577,0.015266,-0.20442,-0.19422,0.034011
1451,-0.017292,-0.013017,0.0063866,0.010662,-0.19389,-0.22612,0.042233
1452,-0.03242,-0.01203,0.0054,0.0057288,-0.17712,-0.2521,0.044206
1453,-0.047219,-0.0077547,0.0063866,0.0047422,-0.15279,-0.26723,0.039931
1454,-0.057414,-0.0024928,0.012306,0.0093464,-0.11266,-0.26657,0.033683
1455,-0.058729,0.0044134,0.01987,0.020857,-0.055112,-0.24553,0.032696
1456,-0.053138,0.014937,0.026447,0.041247,0.015266,-0.19389,0.041575
1457,-0.043272,0.028421,0.032696,0.069529,0.08959,-0.11529,0.058676
1458,-0.034722,0.040918,0.040918,0.098141,0.15635,-0.019923,0.07808
1459,-0.025514,0.052099,0.05177,0.12116,0.21061,0.074791,0.093865
1460,-0.014003,0.059334,0.06361,0.13464,0.25534,0.14616,0.10406
1461,-0.00019077,0.063938,0.068871,0.13892,0.29908,0.19549,0.10307
1462,0.015595,0.066569,0.061965,0.13399,0.35564,0.2412,0.09551
1463,0.031709,0.0692,0.044864,0.12116,0.4372,0.30171,0.090577
1464,0.045522,0.068871,0.021843,0.10439,0.53751,0.37636,0.090248
1465,0.052757,0.06361,0.0017824,0.08663,0.63255,0.44707,0.090905
1466,0.051441,0.052757,-0.011701,0.073476,0.68155,0.48555,0.08663
1467,0.044206,0.037629,-0.015319,0.070187,0.6605,0.46779,0.074791
1468,0.034998,0.021514,-0.011372,0.075449,0.5727,0.39642,0.061307
1469,0.025132,0.0090175,-0.0034794,0.081368,0.44279,0.2948,0.047166
1470,0.014608,0.0037556,0.0086887,0.082026,0.30467,0.19417,0.038287
1471,0.0073732,0.0067154,0.021843,0.075778,0.1922,0.11689,0.031052
1472,0.0040845,0.015266,0.032038,0.06624,0.11787,0.071502,0.029407
1473,0.0060577,0.026119,0.035327,0.061636,0.070187,0.055059,0.032038
1474,0.010333,0.037629,0.032367,0.059334,0.031709,0.053086,0.036642
1475,0.010662,0.04618,0.026776,0.056046,-0.01203,0.053743,0.039931
1476,0.0034268,0.045851,0.020528,0.046837,-0.06136,0.050126,0.040918
1477,-0.0077547,0.036314,0.019212,0.034998,-0.10543,0.04322,0.04026
1478,-0.016634,0.021843,0.018226,0.023488,-0.13141,0.035327,0.038944
1479,-0.018936,0.0090175,0.01691,0.020199,-0.13536,0.031052,0.036314
1480,-0.014332,-0.0008485,0.012635,0.027763,-0.11595,0.041904,0.036642
1481,-0.0041372,-0.0038083,0.0093464,0.044206,-0.073857,0.08367,0.042562
1482,0.012306,0.0014536,0.0093464,0.059992,-0.018607,0.17082,0.056046
1483,0.033354,0.014937,0.015924,0.071502,0.033354,0.2925,0.071831
1484,0.052757,0.034011,0.027763,0.080053,0.060979,0.41221,0.083342
1485,0.065254,0.051113,0.04322,0.080711,0.06065,0.49179,0.086959
1486,0.069858,0.062623,0.056703,0.075778,0.039273,0.5089,0.084328
1487,0.071173,0.070187,0.062623,0.064596,0.01132,0.46384,0.076106
1488,0.070187,0.078737,0.061307,0.053415,-0.004466,0.37505,0.065254
1489,0.070845,0.08959,0.054401,0.044206,-0.007097,0.26817,0.049139
1490,0.070187,0.098798,0.045851,0.035985,0.002769,0.16457,0.032038
1491,0.067885,0.1034,0.034011,0.029078,0.019212,0.081697,0.020528
1492,0.061307,0.098798,0.020528,0.021514,0.038616,0.021186,0.01691
1493,0.053086,0.086959,0.010004,0.015924,0.065583,-0.023211,0.015924
1494,0.043877,0.071502,0.0057288,0.014608,0.1057,-0.053796,0.015924
1495,0.035327,0.055059,0.0070443,0.013951,0.16293,-0.07287,0.015266
1496,0.029407,0.039273,0.011977,0.010333,0.22936,-0.082408,0.015924
1497,0.027105,0.030394,0.019541,0.0083598,0.28658,-0.085696,0.012635
1498,0.029078,0.027763,0.028421,0.0034268,0.31651,-0.081421,0.0054
1499,0.035327,0.029407,0.034011,-0.0057815,0.30927,-0.067609,-0.0034794
1500,0.045193,0.033025,0.037958,-0.016634,0.27376,-0.034722,-0.0061104
1501,0.056374,0.035327,0.041904,-0.019594,0.2264,0.021514,0.0011247
1502,0.065254,0.033683,0.042891,-0.016963,0.18365,0.095839,0.016581
1503,0.068214,0.028421,0.041247,-0.012688,0.14813,0.17082,0.032367
1504,0.062952,0.021843,0.034669,-0.012688,0.11623,0.22804,0.042562
1505,0.04881,0.017897,0.025132,-0.019923,0.080053,0.25205,0.041575
1506,0.029407,0.015924,0.014937,-0.032749,0.034998,0.23758,0.026776
1507,0.012964,0.012306,0.0070443,-0.048205,-0.01499,0.18693,0.002769
1508,0.0070443,0.0067154,0.002769,-0.062018,-0.062347,0.11886,-0.020252
1509,0.010004,0.0030979,0.0024402,-0.069253,-0.10411,0.056703,-0.032749
1510,0.018226,0.0060577,0.0044134,-0.069582,-0.13766,0.0073732,-0.034064
1511,0.02579,0.017568,0.0073732,-0.066951,-0.16364,-0.028144,-0.026829
1512,0.025461,0.034011,0.011648,-0.060045,-0.18469,-0.05281,-0.015319
1513,0.015924,0.048482,0.012964,-0.048205,-0.20409,-0.07024,-0.0038083
1514,0.0001381,0.054401,0.0080309,-0.031762,-0.22152,-0.081421,0.0024402
1515,-0.015648,0.052757,0.00046697,-0.018607,-0.23171,-0.086683,0.0050711
1516,-0.025514,0.044206,-0.0064392,-0.0093991,-0.23106,-0.087998,0.0037556
1517,-0.028473,0.033025,-0.011701,-0.0038083,-0.22152,-0.087998,0.0047422
1518,-0.0265,0.025132,-0.013345,-0.0008485,-0.21165,-0.087998,0.0067154
1519,-0.017292,0.024474,-0.011701,0.0017824,-0.20409,-0.089972,0.010004
1520,-0.0038083,0.029736,-0.0077547,0.0080309,-0.1985,-0.092931,0.010991
1521,0.0080309,0.036314,-0.0015062,0.020857,-0.19389,-0.096878,0.0093464
1522,0.015266,0.040589,0.0057288,0.038616,-0.18929,-0.10181,0.0073732
1523,0.014937,0.039273,0.010662,0.053086,-0.18501,-0.10247,0.0050711
1524,0.0037556,0.033683,0.011977,0.056374,-0.18633,-0.10148,0.0014536
1525,-0.014003,0.024474,0.010991,0.048482,-0.19389,-0.097207,0.0011247
1526,-0.030118,0.018226,0.0083598,0.032367,-0.20014,-0.087341,0.0080309
1527,-0.036366,0.018555,0.0057288,0.01691,-0.19883,-0.074186,0.021514
1528,-0.034722,0.020857,0.0014536,0.0080309,-0.18797,-0.063004,0.033683
1529,-0.025842,0.023159,-0.0031506,0.0073732,-0.1712,-0.056098,0.041904
1530,-0.017621,0.026447,-0.0054526,0.012964,-0.15246,-0.053467,0.041904
1531,-0.015648,0.028092,-0.0024928,0.019541,-0.13371,-0.056098,0.037958
1532,-0.024198,0.022172,0.0044134,0.024803,-0.11529,-0.063004,0.034998
1533,-0.037024,0.010991,0.010333,0.031709,-0.099509,-0.068595,0.033025
1534,-0.045246,0.0030979,0.014937,0.038616,-0.0903,-0.069582,0.031381
1535,-0.042615,0.002769,0.017568,0.041575,-0.085696,-0.068924,0.028421
1536,-0.031433,0.0054,0.018555,0.038287,-0.085039,-0.07024,0.023159
1537,-0.021238,0.0063866,0.016253,0.032038,-0.086025,-0.075173,0.016253
1538,-0.018278,0.0070443,0.015595,0.024145,-0.088985,-0.079777,0.010333
1539,-0.022225,0.0086887,0.018884,0.017239,-0.089643,-0.081421,0.0057288
1540,-0.025842,0.012306,0.021186,0.014937,-0.087341,-0.077146,0.0067154
1541,-0.022225,0.017897,0.020199,0.018555,-0.079119,-0.069911,0.013951
1542,-0.0090702,0.024474,0.020199,0.026776,-0.068924,-0.066951,0.026119
1543,0.011977,0.028421,0.024145,0.037958,-0.056756,-0.065635,0.035327
1544,0.034669,0.030065,0.031052,0.050784,-0.046561,-0.061031,0.037629
1545,0.05177,0.030065,0.038944,0.06361,-0.040641,-0.048534,0.038616
1546,0.06065,0.031709,0.043877,0.071831,-0.037353,-0.031104,0.041575
1547,0.061965,0.03434,0.044864,0.071502,-0.033406,-0.016963,0.046508
1548,0.05769,0.036642,0.041247,0.065912,-0.030118,-0.018936,0.047166
1549,0.047824,0.042233,0.032367,0.053743,-0.034064,-0.037682,0.042891
1550,0.040589,0.053743,0.023159,0.042891,-0.04393,-0.065635,0.036314
1551,0.0373,0.070845,0.017239,0.0373,-0.056098,-0.092274,0.031052
1552,0.034998,0.088275,0.014279,0.035985,-0.060373,-0.10937,0.026776
1553,0.032367,0.10143,0.013293,0.04026,-0.050507,-0.11168,0.025132
1554,0.030065,0.10866,0.010991,0.042562,-0.030118,-0.10017,0.025461
1555,0.030723,0.10899,0.0037556,0.040918,-0.0061104,-0.080434,0.029078
1556,0.034998,0.10242,-0.0051238,0.033683,0.015924,-0.056756,0.032367
1557,0.038944,0.089261,-0.010715,0.026447,0.04026,-0.037024,0.034998
1558,0.043549,0.070516,-0.0090702,0.026776,0.067556,-0.022554,0.035656
1559,0.045522,0.048482,-0.0024928,0.0373,0.10176,-0.014332,0.030723
1560,0.041904,0.020199,0.0050711,0.04881,0.13366,-0.0077547,0.020528
1561,0.033683,-0.015648,0.0083598,0.052428,0.14846,-0.002164,0.0080309
1562,0.02579,-0.054125,0.010662,0.047166,0.13037,0.0014536,-0.0015062
1563,0.023159,-0.08471,0.011977,0.036642,0.076435,-0.0008485,-0.0064392
1564,0.026447,-0.10576,0.013951,0.024474,0.00046697,-0.010386,-0.0080836
1565,0.035327,-0.11793,0.017239,0.011648,-0.07879,-0.028802,-0.0093991
1566,0.044206,-0.12319,0.020199,0.0021113,-0.14818,-0.049192,-0.011043
1567,0.046508,-0.12615,0.019541,-0.0057815,-0.20047,-0.066951,-0.014003
1568,0.041575,-0.12746,0.01691,-0.013345,-0.23369,-0.076159,-0.018936
1569,0.032038,-0.12779,0.012635,-0.022554,-0.24421,-0.082736,-0.021567
1570,0.026447,-0.13141,0.0070443,-0.029789,-0.2281,-0.088656,-0.019923
1571,0.026447,-0.13766,0.00079584,-0.031762,-0.18732,-0.089972,-0.011701
1572,0.030394,-0.14391,-0.0031506,-0.024198,-0.14259,-0.082408,-0.00051963
1573,0.034669,-0.14752,-0.0061104,-0.007097,-0.12779,-0.068266,0.0093464
1574,0.036642,-0.14752,-0.011701,0.0093464,-0.16627,-0.051494,0.013951
1575,0.037629,-0.13996,-0.01795,0.019212,-0.25309,-0.034064,0.015924
1576,0.038287,-0.12154,-0.024856,0.016253,-0.35011,-0.016963,0.014937
1577,0.041575,-0.094905,-0.025185,0.0021113,-0.4116,0.0011247,0.0093464
1578,0.048482,-0.062676,-0.021567,-0.017292,-0.40108,0.022172,0.0040845
1579,0.056703,-0.031433,-0.010715,-0.032749,-0.3113,0.046837,0.002769
1580,0.060979,-0.0051238,0.002769,-0.032091,-0.16068,0.071173,0.0063866
1581,0.061307,0.017897,0.017239,-0.011372,0.033683,0.092221,0.011977
1582,0.059663,0.040918,0.02875,0.026119,0.27047,0.11524,0.018555
1583,0.059005,0.064925,0.038616,0.065912,0.55921,0.14385,0.023159
1584,0.059005,0.086301,0.050126,0.096167,0.89005,0.17641,0.028421
1585,0.058676,0.10307,0.06065,0.1136,1.2123,0.20601,0.034998
1586,0.059334,0.11097,0.06624,0.11886,1.436,0.22673,0.040589
1587,0.061965,0.10603,0.06624,0.11294,1.4873,0.23396,0.045851
1588,0.065583,0.093208,0.058676,0.099785,1.3524,0.2287,0.050784
1589,0.068543,0.081368,0.044864,0.084328,1.0805,0.2116,0.049139
1590,0.066569,0.077422,0.02875,0.070187,0.75094,0.18463,0.037958
1591,0.06065,0.085315,0.016253,0.061636,0.44575,0.1501,0.021843
1592,0.046508,0.09551,0.010333,0.056374,0.21324,0.10932,0.0086887
1593,0.027763,0.10143,0.010004,0.051113,0.061307,0.06361,0.0017824
1594,0.0090175,0.10209,0.013293,0.044864,-0.032091,0.020199,-0.0015062
1595,-0.0051238,0.098469,0.018884,0.04026,-0.093589,-0.012688,-0.0008485
1596,-0.016305,0.094523,0.023817,0.038616,-0.1393,-0.0265,0.0014536
1597,-0.025842,0.091234,0.027434,0.035327,-0.17909,-0.015976,0.002769
1598,-0.037024,0.083999,0.030065,0.026119,-0.21593,0.010991,0.0014536
1599,-0.047877,0.073147,0.029078,0.014608,-0.25441,0.037629,-0.00051963
1600,-0.051165,0.061965,0.022172,0.0077021,-0.29782,0.052428,0.0014536
1601,-0.041957,0.050784,0.0093464,0.0060577,-0.33925,0.05473,0.0030979
1602,-0.025185,0.041575,-0.007097,0.0093464,-0.36129,0.050126,0.0080309
1603,-0.010057,0.032367,-0.018278,0.015266,-0.34484,0.04881,0.016581
1604,-0.0061104,0.021843,-0.022883,0.020528,-0.28795,0.047495,0.029736
1605,-0.016305,0.010333,-0.020581,0.01987,-0.22218,0.040918,0.040589
1606,-0.033406,-0.002164,-0.020909,0.015595,-0.18797,0.021843,0.044535
1607,-0.047877,-0.014661,-0.024856,0.0080309,-0.21034,-0.011043,0.039602
1608,-0.051165,-0.02354,-0.031762,0.00046697,-0.27775,-0.051165,0.030723
1609,-0.042615,-0.027487,-0.029789,-0.004466,-0.3478,-0.089314,0.021186
1610,-0.024856,-0.025185,-0.015648,-0.0057815,-0.36556,-0.11464,0.01132
1611,-0.0034794,-0.01795,0.0090175,-0.004466,-0.28236,-0.12089,0.0011247
1612,0.016581,-0.010057,0.035985,0.0030979,-0.092274,-0.11595,-0.0064392
1613,0.031709,-0.0051238,0.05473,0.016581,0.16687,-0.1097,-0.0061104
1614,0.04322,-0.0008485,0.05769,0.030065,0.42273,-0.10937,0.0021113
1615,0.056703,0.0093464,0.048482,0.040589,0.60723,-0.11595,0.018226
1616,0.070187,0.032038,0.038944,0.048482,0.68451,-0.12154,0.037629
1617,0.077422,0.069858,0.034998,0.055388,0.66478,-0.11266,0.057032
1618,0.077093,0.1136,0.037629,0.058676,0.59276,-0.087998,0.069858
1619,0.072818,0.15569,0.042233,0.060321,0.52271,-0.051494,0.072489
1620,0.069529,0.19877,0.047495,0.061307,0.49278,-0.0080836,0.06624
1621,0.068871,0.25172,0.054401,0.062952,0.50528,0.04026,0.058676
1622,0.070516,0.3175,0.063281,0.062623,0.53619,0.083342,0.059334
1623,0.067885,0.38294,0.070187,0.058348,0.53948,0.10899,0.069529
1624,0.053743,0.42273,0.072818,0.048153,0.47963,0.10505,0.081697
1625,0.026447,0.41747,0.071173,0.036314,0.35433,0.072818,0.087617
1626,-0.0097279,0.36715,0.064596,0.02579,0.19483,0.031381,0.085315
1627,-0.040313,0.28954,0.053415,0.023817,0.049139,0.011648,0.076764
1628,-0.059387,0.20732,0.041247,0.02875,-0.050507,0.030394,0.071173
1629,-0.064978,0.13662,0.032038,0.038944,-0.10444,0.087617,0.072489
1630,-0.064649,0.080711,0.023159,0.05473,-0.14127,0.15109,0.078737
1631,-0.062018,0.036314,0.017239,0.07216,-0.18436,0.17838,0.083013
1632,-0.058729,0.0040845,0.01987,0.08959,-0.23336,0.14944,0.078737
1633,-0.050507,-0.01795,0.030065,0.10472,-0.25769,0.080382,0.068543
1634,-0.036695,-0.035708,0.041575,0.11754,-0.23434,0.0037556,0.058348
1635,-0.021567,-0.060373,0.051113,0.12511,-0.16364,-0.046232,0.050455
1636,-0.0051238,-0.1051,0.054072,0.12478,-0.074515,-0.050507,0.042233
1637,0.0090175,-0.18041,0.049139,0.11261,-0.0080836,-0.01203,0.031709
1638,0.019541,-0.26953,0.038616,0.09255,0.010991,0.051113,0.020199
1639,0.023488,-0.34221,0.026119,0.071831,-0.015976,0.11294,0.0086887
1640,0.01987,-0.37411,0.018884,0.055717,-0.071226,0.15142,-0.0024928
1641,0.014608,-0.36162,0.020199,0.04618,-0.13766,0.15865,-0.012688
1642,0.016253,-0.3159,0.027105,0.038287,-0.20508,0.13991,-0.019923
1643,0.030394,-0.25408,0.035985,0.024803,-0.27216,0.1113,-0.025514
1644,0.049468,-0.19324,0.042891,0.0067154,-0.33169,0.087946,-0.031104
1645,0.06361,-0.14654,0.042233,-0.014332,-0.37247,0.088603,-0.038668
1646,0.0692,-0.11793,0.036642,-0.028802,-0.38036,0.13366,-0.042615
1647,0.066898,-0.094905,0.029078,-0.03538,-0.35175,0.23265,-0.038011
1648,0.061636,-0.065964,0.025461,-0.035051,-0.2919,0.37143,-0.020581
1649,0.056374,-0.029789,0.02579,-0.02946,-0.21691,0.51186,0.0037556
1650,0.059334,0.0057288,0.027105,-0.021238,-0.14851,0.60525,0.024803
1651,0.068214,0.027434,0.024803,-0.015976,-0.11135,0.624,0.032367
1652,0.078737,0.027434,0.015924,-0.014003,-0.11398,0.56546,0.028092
1653,0.088932,0.0086887,-0.0008485,-0.011701,-0.14818,0.44608,0.018226
1654,0.093865,-0.020581,-0.021896,-0.010057,-0.1962,0.28592,0.0090175
1655,0.092221,-0.051165,-0.045903,-0.0084125,-0.23895,0.10768,-0.00051963
1656,0.086959,-0.073199,-0.070897,-0.01203,-0.26131,-0.065307,-0.0074258
1657,0.081368,-0.081421,-0.091287,-0.019594,-0.25046,-0.20771,-0.015648
1658,0.076106,-0.074515,-0.10378,-0.02946,-0.19916,-0.30406,-0.025842
1659,0.0692,-0.056098,-0.10378,-0.041957,-0.11365,-0.35307,-0.036366
1660,0.058019,-0.03242,-0.09326,-0.058071,-0.015648,-0.36194,-0.044259
1661,0.040918,-0.0067681,-0.079448,-0.073857,0.069529,-0.34057,-0.048205
1662,0.01987,0.01987,-0.065964,-0.07879,0.12248,-0.30637,-0.049521
1663,0.0001381,0.04881,-0.050179,-0.076159,0.13333,-0.27315,-0.050179
1664,-0.0093991,0.075778,-0.033078,-0.067609,0.1057,-0.24717,-0.050507
1665,-0.007097,0.098141,-0.020581,-0.0584,0.053743,-0.22546,-0.051494
1666,0.0037556,0.11491,-0.012359,-0.051494,0.0011247,-0.20771,-0.052152
1667,0.014937,0.13136,-0.0047949,-0.050836,-0.038011,-0.19291,-0.050179
1668,0.023817,0.15142,0.0017824,-0.056098,-0.056427,-0.17613,-0.046232
1669,0.029407,0.17542,0.0073732,-0.063333,-0.058729,-0.15213,-0.035708
1670,0.028421,0.19812,0.013951,-0.06728,-0.045903,-0.11036,-0.020252
1671,0.023488,0.20996,0.024474,-0.063333,-0.024856,-0.041299,0.00079584
1672,0.01691,0.20568,0.032367,-0.052481,-0.0057815,0.053415,0.023159
1673,0.012964,0.18924,0.035985,-0.036037,0.0011247,0.15668,0.044206
1674,0.012964,0.17279,0.034669,-0.019265,-0.0087413,0.23725,0.06065
1675,0.010662,0.16063,0.034998,-0.0038083,-0.030118,0.27606,0.070845
1676,0.0080309,0.15503,0.037629,0.015595,-0.053796,0.26586,0.079066
1677,0.0086887,0.15306,0.043877,0.0373,-0.074844,0.21883,0.084657
1678,0.010991,0.14912,0.051441,0.060979,-0.094247,0.15503,0.088275
1679,0.011977,0.13563,0.056046,0.077422,-0.11332,0.09255,0.088932
1680,0.010004,0.11721,0.053743,0.081039,-0.13075,0.035985,0.087288
1681,0.0017824,0.098469,0.039602,0.074133,-0.14851,-0.01499,0.082026
1682,-0.011043,0.082355,0.016253,0.061965,-0.16495,-0.059387,0.074462
1683,-0.027158,0.070516,-0.0064392,0.045522,-0.17877,-0.10181,0.062294
1684,-0.047877,0.062623,-0.020252,0.024803,-0.19159,-0.14095,0.04881
1685,-0.066293,0.062623,-0.018936,0.0054,-0.2008,-0.18107,0.038616
1686,-0.077475,0.064267,-0.0087413,-0.0054526,-0.20935,-0.22546,0.035327
1687,-0.077475,0.064596,0.0037556,-0.0041372,-0.22251,-0.27578,0.036971
1688,-0.069253,0.063281,0.015266,0.0067154,-0.24355,-0.32018,0.038944
1689,-0.058071,0.06065,0.019541,0.020199,-0.26756,-0.35043,0.038616
1690,-0.050507,0.059334,0.015924,0.027434,-0.29025,-0.36096,0.035656
1691,-0.041957,0.064596,0.0077021,0.029407,-0.30768,-0.34945,0.033683
1692,-0.033735,0.074133,-0.0024928,0.033025,-0.31525,-0.32347,0.03434
1693,-0.026171,0.081039,-0.010715,0.039273,-0.31163,-0.29814,0.036314
1694,-0.019265,0.080711,-0.012688,0.045851,-0.2988,-0.29058,0.037958
1695,-0.013674,0.070187,-0.0054526,0.050455,-0.28039,-0.30308,0.039273
1696,-0.0077547,0.050784,0.0086887,0.053415,-0.26131,-0.32807,0.041247
1697,0.0017824,0.025132,0.024145,0.055388,-0.23533,-0.35471,0.044864
1698,0.014937,-0.004466,0.036971,0.056374,-0.2031,-0.37214,0.043877
1699,0.031709,-0.034393,0.045522,0.058676,-0.16199,-0.37642,0.038944
1700,0.04618,-0.054783,0.049139,0.063938,-0.11562,-0.36721,0.035327
1701,0.053086,-0.056756,0.047495,0.072818,-0.062347,-0.34912,0.034998
1702,0.050784,-0.043272,0.041575,0.082355,-0.0015062,-0.32413,0.033354
1703,0.043877,-0.023211,0.034998,0.091892,0.074791,-0.28696,0.028092
1704,0.041247,-0.0077547,0.031709,0.097812,0.17674,-0.22251,0.020199
1705,0.048482,0.0017824,0.025461,0.099785,0.31454,-0.12253,0.013622
1706,0.062294,0.010004,0.019541,0.098798,0.48259,0.022501,0.014608
1707,0.073147,0.014937,0.018226,0.095839,0.66215,0.20963,0.027105
1708,0.077751,0.015266,0.022172,0.093536,0.81836,0.4155,0.049797
1709,0.079066,0.011648,0.02875,0.09255,0.92228,0.59999,0.073804
1710,0.081368,0.0077021,0.036314,0.093208,0.95484,0.71806,0.088932
1711,0.08663,0.0024402,0.037629,0.087617,0.91242,0.74239,0.090248
1712,0.094194,-0.0051238,0.031381,0.072489,0.80356,0.6707,0.079724
1713,0.10143,-0.015648,0.018226,0.055388,0.65327,0.52304,0.064925
1714,0.10505,-0.022554,0.0047422,0.042562,0.49673,0.34512,0.052757
1715,0.10209,-0.025514,-0.0031506,0.038944,0.35499,0.18858,0.045193
1716,0.092221,-0.024856,-0.0041372,0.040589,0.23725,0.088275,0.043549
1717,0.077093,-0.020581,-0.0024928,0.04026,0.15109,0.057032,0.043549
1718,0.062952,-0.013345,-0.00019077,0.039273,0.099456,0.093208,0.041247
1719,0.054401,-0.0061104,0.0011247,0.039602,0.077093,0.1843,0.038944
1720,0.050126,-0.00051963,0.0011247,0.041575,0.080382,0.30237,0.036971
1721,0.049139,0.0014536,0.0034268,0.04322,0.1011,0.41944,0.034669
1722,0.050784,-0.0008485,0.0086887,0.045851,0.12182,0.50824,0.032367
1723,0.051441,-0.0041372,0.010333,0.04618,0.12182,0.53981,0.026776
1724,0.047166,-0.0061104,0.010004,0.041904,0.090248,0.50035,0.014608
1725,0.036314,-0.0038083,0.0093464,0.032367,0.027763,0.40037,0.00079584
1726,0.022501,0.0030979,0.0093464,0.018884,-0.044588,0.26948,-0.0090702
1727,0.010662,0.012306,0.010004,0.0054,-0.10674,0.14352,-0.012359
1728,0.0077021,0.017897,0.013622,-0.0038083,-0.14983,0.04322,-0.011701
1729,0.0083598,0.018884,0.018884,-0.0080836,-0.17745,-0.020581,-0.0084125
1730,0.01132,0.014608,0.026119,-0.0074258,-0.19751,-0.05281,-0.0034794
1731,0.0096753,0.0073732,0.034998,-0.0034794,-0.22612,-0.066293,0.0017824
1732,0.002769,0.0030979,0.039602,0.0044134,-0.26986,-0.074515,0.0057288
1733,-0.0074258,0.0037556,0.036314,0.015266,-0.32478,-0.084381,0.0090175
1734,-0.018936,0.0093464,0.028092,0.026447,-0.37642,-0.095562,0.0096753
1735,-0.027158,0.015266,0.021514,0.03434,-0.40503,-0.10839,0.0080309
1736,-0.033735,0.01987,0.019541,0.033354,-0.39944,-0.1222,0.0044134
1737,-0.040313,0.023817,0.021843,0.029078,-0.36227,-0.13601,-0.00019077
1738,-0.044917,0.029078,0.026447,0.022501,-0.30406,-0.1495,-0.0067681
1739,-0.045246,0.030394,0.030394,0.012306,-0.23994,-0.15838,-0.012688
1740,-0.039655,0.028421,0.033025,0.002769,-0.17646,-0.16232,-0.01795
1741,-0.036037,0.029736,0.034669,-0.0034794,-0.11102,-0.16166,-0.018936
1742,-0.036366,0.030723,0.035985,-0.007097,-0.037682,-0.15805,-0.015648
1743,-0.040313,0.026119,0.031381,-0.004466,0.047166,-0.14719,-0.0087413
1744,-0.041957,0.018555,0.022501,0.0044134,0.14287,-0.13305,-0.0034794
1745,-0.039326,0.013622,0.015266,0.015595,0.23922,-0.12121,0.0001381
1746,-0.031433,0.0093464,0.012306,0.021514,0.3244,-0.11003,0.0030979
