,channel_1,channel_2,channel_3,channel_4,channel_5,channel_6,channel_7
0,-0.018278,-0.007097,0.033683,-0.033406,-0.077475,-0.28499,-0.026171
1,-0.016634,-0.010057,0.050455,-0.030775,-0.16495,-0.31163,-0.034064
2,-0.019265,-0.010057,0.058019,-0.027816,-0.24585,-0.32413,-0.036037
3,-0.023211,-0.007097,0.057032,-0.022225,-0.31031,-0.32807,-0.030118
4,-0.024527,-0.004466,0.050455,-0.015648,-0.35109,-0.32544,-0.020252
5,-0.017292,-0.0024928,0.04322,-0.0064392,-0.36129,-0.30834,-0.012359
6,-0.0038083,-0.00051963,0.042233,0.0011247,-0.33498,-0.26756,-0.0090702
7,0.010991,0.0014536,0.050126,0.0057288,-0.27545,-0.20014,-0.0097279
8,0.022501,0.0047422,0.064925,0.0057288,-0.19356,-0.10937,-0.013345
9,0.029736,0.0083598,0.077751,0.0044134,-0.10247,-0.0084125,-0.01795
10,0.035656,0.012306,0.087946,0.00046697,-0.011372,0.092879,-0.022883
11,0.038616,0.017239,0.094194,-0.0054526,0.061636,0.19483,-0.023869
12,0.040589,0.023817,0.096496,-0.0080836,0.10735,0.30302,-0.019594
13,0.040589,0.030394,0.092879,-0.0057815,0.13859,0.4178,-0.010057
14,0.044864,0.030723,0.086301,0.00079584,0.18463,0.53422,-0.0024928
15,0.047495,0.02579,0.077093,0.0093464,0.2629,0.64077,0.0077021
16,0.044864,0.020857,0.064925,0.019541,0.36354,0.7368,0.01987
17,0.038616,0.021843,0.051441,0.032367,0.4451,0.82264,0.035985
18,0.035327,0.030394,0.038616,0.04881,0.46943,0.90255,0.052099
19,0.036642,0.041904,0.028421,0.065912,0.43391,0.97227,0.066569
20,0.04026,0.049797,0.021843,0.077422,0.37702,1.013,0.081697
21,0.043877,0.049468,0.024145,0.083013,0.32999,0.99957,0.099456
22,0.044864,0.044864,0.039931,0.084657,0.2948,0.91669,0.1182
23,0.045522,0.039602,0.068543,0.084657,0.24942,0.76607,0.13136
24,0.046508,0.036642,0.10143,0.084328,0.17641,0.56513,0.13399
25,0.047166,0.036642,0.13103,0.081039,0.073804,0.34052,0.12741
26,0.04618,0.039931,0.14681,0.073804,-0.038011,0.12741,0.12149
27,0.04322,0.044864,0.15043,0.062952,-0.12746,-0.044917,0.11853
28,0.042233,0.050455,0.14024,0.054401,-0.16265,-0.15509,0.11689
29,0.043549,0.05769,0.12083,0.052099,-0.13371,-0.20212,0.11524
30,0.046508,0.067556,0.092879,0.057032,-0.069911,-0.20212,0.11294
31,0.04881,0.075449,0.059663,0.059005,-0.012688,-0.18107,0.10834
32,0.049468,0.07808,0.024474,0.055388,0.0017824,-0.16397,0.098798
33,0.050126,0.07512,-0.016305,0.045851,-0.041299,-0.1564,0.081697
34,0.047166,0.065583,-0.062347,0.03434,-0.12713,-0.15147,0.06065
35,0.041247,0.050126,-0.11036,0.020857,-0.22382,-0.12944,0.041904
36,0.033354,0.02875,-0.1564,0.0083598,-0.30768,-0.081092,0.032038
37,0.025132,-0.00051963,-0.19488,-0.0015062,-0.37148,-0.0093991,0.026119
38,0.015266,-0.033406,-0.21593,-0.0041372,-0.41621,0.067885,0.022172
39,0.0050711,-0.068266,-0.21659,-0.002164,-0.4435,0.12708,0.019541
40,-0.0028217,-0.10017,-0.19718,-0.00019077,-0.4583,0.1478,0.018555
41,-0.0061104,-0.12089,-0.16495,-0.0024928,-0.46159,0.12642,0.014608
42,-0.0031506,-0.12417,-0.12352,-0.0064392,-0.44778,0.072818,0.0080309
43,0.0034268,-0.1051,-0.077475,-0.0074258,-0.40601,0.0077021,0.0021113
44,0.010991,-0.061689,-0.031104,-0.0018351,-0.33333,-0.054454,-0.0028217
45,0.017568,-0.0011774,0.016581,0.0077021,-0.23796,-0.10477,-0.0031506
46,0.021843,0.064596,0.071502,0.020199,-0.1393,-0.14687,0.0017824
47,0.024145,0.12577,0.13662,0.031052,-0.053138,-0.18962,0.0083598
48,0.024145,0.18003,0.21028,0.033354,0.022501,-0.23599,0.012964
49,0.027105,0.22607,0.28855,0.026447,0.10636,-0.27973,0.012306
50,0.033683,0.26521,0.36156,0.015924,0.2116,-0.31163,0.0050711
51,0.038944,0.28954,0.42405,0.01132,0.33986,-0.32939,-0.0080836
52,0.039602,0.29086,0.47568,0.016581,0.4839,-0.33202,-0.017621
53,0.037629,0.26685,0.50988,0.026776,0.62071,-0.32084,-0.019923
54,0.036314,0.22607,0.51449,0.039273,0.71214,-0.29913,-0.011043
55,0.036642,0.17773,0.47272,0.053086,0.72299,-0.28433,0.0030979
56,0.0373,0.12642,0.38228,0.06624,0.64603,-0.30341,0.017568
57,0.036971,0.079724,0.26159,0.07512,0.5089,-0.3728,0.023817
58,0.03434,0.048153,0.13728,0.076106,0.35268,-0.47902,0.021514
59,0.027763,0.036971,0.037958,0.073147,0.20568,-0.58952,0.015266
60,0.018884,0.042233,-0.020581,0.07216,0.077751,-0.66549,0.0093464
61,0.010662,0.05177,-0.044259,0.0692,-0.041628,-0.67897,0.0050711
62,0.0073732,0.056374,-0.051165,0.060979,-0.16364,-0.62635,0.00079584
63,0.0073732,0.055388,-0.063991,0.04322,-0.28663,-0.51881,-0.0038083
64,0.0070443,0.053743,-0.094905,0.019212,-0.3922,-0.38233,-0.0074258
65,0.0083598,0.054072,-0.14325,-0.0090702,-0.45962,-0.24289,-0.0097279
66,0.0096753,0.055717,-0.19784,-0.034064,-0.47869,-0.1176,-0.0097279
67,0.0093464,0.05473,-0.24487,-0.051494,-0.44778,-0.018278,-0.0087413
68,0.010333,0.04881,-0.27348,-0.059716,-0.37872,0.05769,-0.0097279
69,0.013951,0.038287,-0.27644,-0.06136,-0.29387,0.11623,-0.014332
70,0.016581,0.026119,-0.25375,-0.056427,-0.21626,0.16227,-0.024527
71,0.018884,0.012635,-0.21198,-0.046232,-0.16134,0.20272,-0.036695
72,0.021186,0.0017824,-0.16035,-0.031762,-0.13536,0.24153,-0.04689
73,0.022501,-0.0028217,-0.11003,-0.014661,-0.13963,0.28461,-0.046561
74,0.021514,0.0034268,-0.067937,0.00046697,-0.17022,0.3346,-0.034064
75,0.020528,0.017568,-0.037682,0.015266,-0.22086,0.3882,-0.011043
76,0.01987,0.034669,-0.014003,0.030065,-0.27085,0.44312,0.016253
77,0.020528,0.04881,0.0050711,0.044535,-0.28466,0.49377,0.038944
78,0.018884,0.056703,0.017568,0.058676,-0.22842,0.526,0.056046
79,0.011977,0.058019,0.022501,0.067885,-0.097536,0.52633,0.06361
80,0.0017824,0.053743,0.022501,0.071173,0.079066,0.49081,0.066569
81,-0.0084125,0.047166,0.018555,0.067885,0.25041,0.42734,0.064267
82,-0.015319,0.040918,0.018226,0.05473,0.37044,0.34808,0.057032
83,-0.021567,0.037958,0.018555,0.037629,0.41813,0.27047,0.044206
84,-0.028473,0.038287,0.015595,0.019212,0.40432,0.20502,0.028421
85,-0.038339,0.040918,0.0063866,0.0073732,0.35827,0.15405,0.018884
86,-0.049192,0.043549,-0.0054526,0.0037556,0.30467,0.11195,0.017897
87,-0.056756,0.039602,-0.018278,0.0067154,0.25501,0.074133,0.021514
88,-0.059058,0.029407,-0.030118,0.013293,0.21028,0.040589,0.027434
89,-0.054125,0.013951,-0.040641,0.022501,0.16786,0.016581,0.029078
90,-0.044588,-0.0064392,-0.045574,0.031052,0.1182,0.002769,0.028421
91,-0.033078,-0.033406,-0.041628,0.034669,0.055059,-0.0015062,0.025461
92,-0.020252,-0.068924,-0.034064,0.032038,-0.021238,-0.0028217,0.024145
93,-0.0074258,-0.11595,-0.029131,0.024803,-0.098851,-0.0077547,0.027105
94,0.0037556,-0.1712,-0.034722,0.016253,-0.16956,-0.022225,0.033354
95,0.014937,-0.22448,-0.051823,0.016253,-0.23665,-0.046561,0.036971
96,0.026119,-0.25868,-0.074186,0.025461,-0.30209,-0.082736,0.035985
97,0.038616,-0.25934,-0.095233,0.039273,-0.34846,-0.12384,0.033354
98,0.047495,-0.22546,-0.11299,0.049797,-0.35043,-0.16232,0.034669
99,0.050126,-0.16265,-0.12121,0.054072,-0.29453,-0.19192,0.0373
100,0.04618,-0.086683,-0.11398,0.052757,-0.19159,-0.21165,0.043549
101,0.036642,-0.015648,-0.094905,0.04881,-0.069582,-0.2304,0.050455
102,0.029078,0.036971,-0.07024,0.04322,0.034669,-0.2521,0.055717
103,0.02283,0.064596,-0.04689,0.038287,0.095839,-0.28137,0.056703
104,0.018884,0.070187,-0.027158,0.033683,0.10636,-0.3136,0.052757
105,0.017239,0.060321,-0.011372,0.032367,0.076764,-0.33794,0.047495
106,0.016581,0.042562,0.0021113,0.031709,0.028092,-0.34353,0.042562
107,0.014608,0.029407,0.011977,0.030723,-0.020909,-0.31919,0.0373
108,0.010991,0.020857,0.020528,0.031052,-0.062347,-0.26296,0.032038
109,0.0070443,0.011977,0.029736,0.035656,-0.097536,-0.1689,0.032696
110,0.0070443,-0.0038083,0.040918,0.048482,-0.13174,-0.02946,0.0373
111,0.012964,-0.0265,0.053743,0.06624,-0.16791,0.14813,0.040918
112,0.021186,-0.050507,0.064925,0.080053,-0.20475,0.33657,0.041575
113,0.027105,-0.067937,0.07512,0.085644,-0.235,0.48851,0.039273
114,0.027763,-0.079119,0.081039,0.081039,-0.24849,0.56217,0.036314
115,0.025461,-0.086683,0.081697,0.069858,-0.235,0.54211,0.03434
116,0.024803,-0.093589,0.077093,0.056374,-0.19652,0.44773,0.034669
117,0.023817,-0.1005,0.070187,0.041904,-0.14654,0.31717,0.035656
118,0.02579,-0.10641,0.061965,0.031381,-0.095891,0.19483,0.033025
119,0.027763,-0.1097,0.056046,0.026447,-0.05281,0.10472,0.029407
120,0.030394,-0.1074,0.054401,0.026447,-0.019923,0.048482,0.026447
121,0.033025,-0.10148,0.053743,0.030394,-0.002164,0.014279,0.029078
122,0.034998,-0.090629,0.051441,0.039273,0.0030979,-0.01203,0.033354
123,0.036642,-0.078132,0.04618,0.04618,-0.0038083,-0.039326,0.035327
124,0.038944,-0.066622,0.040918,0.04881,-0.022225,-0.063662,0.031381
125,0.038944,-0.056098,0.034011,0.050455,-0.051823,-0.076159,0.023817
126,0.038944,-0.04097,0.028092,0.04881,-0.083394,-0.076817,0.016581
127,0.041247,-0.019594,0.026776,0.041904,-0.10609,-0.07024,0.014608
128,0.04881,0.0067154,0.028092,0.032696,-0.11036,-0.06728,0.015924
129,0.059005,0.034998,0.031381,0.02283,-0.095891,-0.06432,0.015924
130,0.067227,0.059334,0.03434,0.014279,-0.068595,-0.060045,0.012635
131,0.070845,0.076764,0.036971,0.010662,-0.041628,-0.057743,0.0077021
132,0.071173,0.083999,0.035985,0.0093464,-0.025842,-0.062018,0.0067154
133,0.067227,0.087946,0.03434,0.012635,-0.022225,-0.07287,0.01132
134,0.059663,0.094194,0.035656,0.017897,-0.025185,-0.084381,0.019541
135,0.04881,0.10603,0.036642,0.025461,-0.022554,-0.091945,0.026447
136,0.036314,0.11952,0.036642,0.032367,-0.00051963,-0.092931,0.02579
137,0.027763,0.13103,0.036642,0.041247,0.04881,-0.086354,0.019212
138,0.024803,0.1376,0.038616,0.051441,0.12971,-0.073199,0.011648
139,0.02875,0.13958,0.042891,0.059663,0.23758,-0.050836,0.0086887
140,0.040589,0.13859,0.050126,0.061307,0.36321,-0.018607,0.0096753
141,0.05769,0.13793,0.058019,0.053415,0.48555,0.015266,0.012635
142,0.071831,0.13662,0.06065,0.036971,0.58223,0.038616,0.011648
143,0.074462,0.13037,0.055059,0.017239,0.64209,0.043877,0.0047422
144,0.067227,0.11952,0.045851,0.0014536,0.67037,0.029407,-0.0057815
145,0.056046,0.10702,0.039273,-0.0034794,0.69438,0.0024402,-0.014332
146,0.045193,0.10011,0.038616,0.0014536,0.73713,-0.018936,-0.015648
147,0.0373,0.098141,0.038616,0.012635,0.80257,-0.023869,-0.0090702
148,0.03434,0.099127,0.035327,0.023488,0.87821,-0.012359,-0.00019077
149,0.033354,0.097483,0.027763,0.028092,0.92886,0.010004,0.0077021
150,0.031709,0.092221,0.023817,0.022172,0.92162,0.032038,0.01132
151,0.028092,0.08959,0.023817,0.0096753,0.83875,0.044206,0.010004
152,0.025132,0.092221,0.023817,-0.004466,0.68188,0.040589,0.0063866
153,0.021843,0.096496,0.024145,-0.014661,0.47371,0.026776,0.0034268
154,0.01987,0.099785,0.023817,-0.015976,0.25304,0.015595,0.0050711
155,0.022501,0.10077,0.02579,-0.0067681,0.064267,0.016253,0.012964
156,0.030723,0.099785,0.032696,0.0086887,-0.06432,0.032696,0.023159
157,0.037958,0.096167,0.041247,0.02283,-0.12779,0.053415,0.031381
158,0.041247,0.088603,0.047495,0.02579,-0.14259,0.068543,0.03434
159,0.038616,0.078737,0.050126,0.021186,-0.1393,0.071173,0.035327
160,0.032696,0.068214,0.051113,0.014279,-0.14325,0.06361,0.034998
161,0.025132,0.061307,0.050126,0.01132,-0.15936,0.054401,0.03434
162,0.01987,0.059005,0.045851,0.013293,-0.18436,0.048153,0.029407
163,0.020528,0.059334,0.040918,0.017239,-0.21461,0.045522,0.023817
164,0.023488,0.058019,0.039273,0.01987,-0.24388,0.048482,0.018884
165,0.025132,0.058676,0.042233,0.022172,-0.27118,0.056046,0.015924
166,0.024145,0.061307,0.048482,0.024145,-0.29157,0.067885,0.013622
167,0.024474,0.064596,0.049797,0.025132,-0.29518,0.078409,0.0083598
168,0.025461,0.069858,0.028092,0.021186,-0.28598,0.084986,0.0037556
169,0.024474,0.077093,-0.0265,0.012306,-0.2692,0.085315,0.0024402
170,0.018884,0.084986,-0.11036,-0.00019077,-0.25145,0.077751,0.0073732
171,0.010333,0.088275,-0.20212,-0.0097279,-0.23698,0.066569,0.017239
172,0.0024402,0.086301,-0.2748,-0.011701,-0.22185,0.05473,0.027105
173,-0.002164,0.080711,-0.30209,0.00046697,-0.19948,0.041575,0.032038
174,-0.0067681,0.078737,-0.27315,0.023159,-0.16331,0.031052,0.027763
175,-0.011043,0.088275,-0.19258,0.041575,-0.11431,0.023817,0.017568
176,-0.016634,0.10801,-0.074186,0.046508,-0.052481,0.018555,0.0060577
177,-0.019923,0.12774,0.051113,0.040589,0.021186,0.014608,-0.0008485
178,-0.022554,0.13892,0.1603,0.029078,0.10702,0.013951,-0.00051963
179,-0.022883,0.14122,0.24317,0.01987,0.20108,0.015266,0.0060577
180,-0.018607,0.13366,0.30829,0.017568,0.29217,0.018226,0.01691
181,-0.0097279,0.12445,0.37998,0.023817,0.35795,0.020857,0.027763
182,-0.0008485,0.12083,0.46581,0.036314,0.3711,0.021186,0.035656
183,0.0030979,0.12116,0.54047,0.052428,0.31421,0.012306,0.04026
184,0.002769,0.12511,0.56053,0.067556,0.1922,-0.010386,0.043549
185,-0.00051963,0.12873,0.50561,0.075449,0.036314,-0.038668,0.045851
186,-0.0041372,0.12313,0.39577,0.075778,-0.10773,-0.062347,0.043877
187,-0.007097,0.10932,0.26619,0.071831,-0.20968,-0.074844,0.0373
188,-0.010386,0.091892,0.15438,0.065912,-0.26592,-0.078461,0.032696
189,-0.012359,0.074791,0.080711,0.062623,-0.28861,-0.070897,0.031052
190,-0.010386,0.056046,0.042233,0.061636,-0.30143,-0.054783,0.031381
191,-0.0047949,0.035656,0.021514,0.058676,-0.32314,-0.03538,0.033354
192,0.0011247,0.0044134,0.0021113,0.05177,-0.35471,-0.025842,0.036314
193,0.0060577,-0.035051,-0.020581,0.041904,-0.37642,-0.032749,0.041247
194,0.01132,-0.074186,-0.044259,0.034011,-0.37411,-0.04689,0.049797
195,0.016581,-0.10346,-0.066622,0.024474,-0.34682,-0.054783,0.05769
196,0.018884,-0.11924,-0.087669,0.017239,-0.30143,-0.051494,0.058348
197,0.018884,-0.12746,-0.1074,0.0086887,-0.24684,-0.03538,0.052428
198,0.016581,-0.12878,-0.13305,-0.0015062,-0.19751,-0.010057,0.044206
199,0.016253,-0.12615,-0.17022,-0.010386,-0.16134,0.017239,0.040918
200,0.016581,-0.12648,-0.21395,-0.015648,-0.13305,0.036314,0.04322
201,0.017239,-0.13601,-0.25112,-0.013345,-0.10017,0.041575,0.050784
202,0.02283,-0.15575,-0.26559,-0.0061104,-0.065307,0.032367,0.061636
203,0.029078,-0.18501,-0.2475,0.0057288,-0.044259,0.0080309,0.067885
204,0.034669,-0.21363,-0.19488,0.020528,-0.04393,-0.023869,0.064267
205,0.036971,-0.22974,-0.11431,0.036642,-0.054454,-0.048534,0.056374
206,0.039931,-0.21987,-0.011701,0.055388,-0.053467,-0.056098,0.050126
207,0.042233,-0.18403,0.10143,0.071173,-0.02354,-0.038011,0.049139
208,0.042891,-0.13338,0.21719,0.083013,0.037629,0.0060577,0.052757
209,0.041575,-0.083723,0.33262,0.087617,0.1159,0.0692,0.057361
210,0.039273,-0.045574,0.43063,0.084986,0.18463,0.13695,0.056046
211,0.038287,-0.021567,0.49443,0.07512,0.2116,0.19516,0.048153
212,0.0373,-0.0087413,0.51021,0.061307,0.17773,0.23166,0.038944
213,0.035656,-0.0041372,0.47864,0.044206,0.093865,0.24613,0.029078
214,0.032038,-0.0080836,0.41517,0.027105,0.0021113,0.24482,0.020857
215,0.029078,-0.01795,0.33525,0.013951,-0.0584,0.23429,0.016253
216,0.030065,-0.024527,0.23659,0.0080309,-0.075501,0.2241,0.018226
217,0.036314,-0.019265,0.092221,0.0093464,-0.056756,0.21851,0.026119
218,0.04618,-0.0047949,-0.12319,0.01691,-0.019594,0.21752,0.038944
219,0.058019,0.0070443,-0.40108,0.02579,0.034669,0.21719,0.049797
220,0.070187,0.01132,-0.68983,0.035656,0.11985,0.20897,0.054072
221,0.080382,0.010662,-0.91477,0.045851,0.25797,0.19285,0.049797
222,0.082684,0.010333,-1.0124,0.048153,0.44542,0.17016,0.039931
223,0.078409,0.0096753,-0.95818,0.042891,0.63617,0.14681,0.031381
224,0.068543,0.010004,-0.77829,0.029736,0.74634,0.12478,0.030065
225,0.05769,0.010333,-0.52967,0.018226,0.70655,0.098141,0.033354
226,0.045193,0.014937,-0.27808,0.010662,0.50166,0.061965,0.039273
227,0.036314,0.02579,-0.073528,0.0086887,0.19647,0.013622,0.041904
228,0.027105,0.04026,0.053415,0.0070443,-0.10872,-0.04393,0.040918
229,0.018884,0.054072,0.10307,0.0034268,-0.32873,-0.1005,0.036314
230,0.014608,0.060979,0.10044,-0.0008485,-0.42871,-0.14456,0.028092
231,0.015266,0.06361,0.077093,-0.0041372,-0.42575,-0.16726,0.016253
232,0.017239,0.069529,0.050126,-0.0057815,-0.35504,-0.16791,0.0050711
233,0.018884,0.08367,0.015924,-0.0064392,-0.25835,-0.15081,0.0014536
234,0.017897,0.10538,-0.030775,-0.0031506,-0.17087,-0.12187,0.0050711
235,0.015595,0.12938,-0.089643,0.0034268,-0.11529,-0.091287,0.013951
236,0.012635,0.14616,-0.14226,0.014279,-0.097536,-0.069253,0.023159
237,0.011648,0.14912,-0.16397,0.025461,-0.10806,-0.052481,0.02875
238,0.013622,0.14056,-0.14752,0.026447,-0.12878,-0.038997,0.032367
239,0.016253,0.12313,-0.10444,0.012635,-0.13832,-0.027816,0.034669
240,0.01987,0.099456,-0.06728,-0.012688,-0.12319,-0.017292,0.035656
241,0.021843,0.074462,-0.061031,-0.040313,-0.085696,-0.0051238,0.033025
242,0.021186,0.05177,-0.098193,-0.058071,-0.035051,0.0080309,0.025461
243,0.01987,0.03434,-0.17778,-0.062347,0.018555,0.025461,0.017239
244,0.015266,0.023817,-0.28762,-0.05281,0.062294,0.053415,0.013293
245,0.010991,0.017568,-0.41095,-0.031433,0.084657,0.098469,0.015595
246,0.0063866,0.011977,-0.50862,-0.0034794,0.082355,0.15701,0.025461
247,0.00046697,0.0070443,-0.52704,0.028421,0.056703,0.21719,0.037958
248,-0.0018351,0.002769,-0.41851,0.059005,0.0090175,0.25764,0.046837
249,-0.0018351,0.00046697,-0.18501,0.08367,-0.057414,0.26915,0.050784
250,0.0011247,0.0030979,0.11064,0.098798,-0.12746,0.24843,0.051441
251,0.0037556,0.010333,0.39511,0.10735,-0.18863,0.1991,0.048153
252,0.0067154,0.018884,0.61742,0.11195,-0.23204,0.13464,0.041575
253,0.011977,0.026447,0.75094,0.1113,-0.25441,0.068871,0.031709
254,0.018226,0.027105,0.79041,0.10834,-0.25835,0.012306,0.020857
255,0.021186,0.021843,0.75719,0.10274,-0.24849,-0.028144,0.0093464
256,0.01987,0.010004,0.67695,0.097154,-0.22678,-0.053796,-0.0018351
257,0.015595,-0.0051238,0.57303,0.091234,-0.18666,-0.066951,-0.011372
258,0.013951,-0.01795,0.4622,0.083999,-0.12154,-0.071884,-0.012688
259,0.01691,-0.019923,0.35433,0.076435,-0.035051,-0.078132,-0.0084125
260,0.025461,-0.011372,0.26093,0.067556,0.050455,-0.090629,-0.0015062
261,0.033025,-0.0034794,0.19121,0.059334,0.11458,-0.11003,0.0034268
262,0.039602,-0.0084125,0.15207,0.05473,0.14714,-0.12944,0.0040845
263,0.039931,-0.0265,0.13991,0.054072,0.15602,-0.14226,0.0037556
264,0.032696,-0.045574,0.13925,0.052428,0.16293,-0.14391,0.0014536
265,0.01987,-0.047877,0.13728,0.04881,0.18628,-0.13207,-0.004466
266,0.0060577,-0.030775,0.12938,0.042562,0.23594,-0.11135,-0.012688
267,-0.0054526,-0.00019077,0.12116,0.035327,0.30927,-0.08471,-0.020252
268,-0.0093991,0.030065,0.1182,0.027105,0.38952,-0.056098,-0.02946
269,-0.0047949,0.050784,0.11623,0.016581,0.45496,-0.024527,-0.035708
270,0.0050711,0.057361,0.11261,0.0057288,0.49212,0.0080309,-0.035708
271,0.017568,0.058348,0.10834,-0.0041372,0.4987,0.036642,-0.031762
272,0.028421,0.067556,0.10505,-0.010715,0.48357,0.058348,-0.024856
273,0.035656,0.09551,0.10176,-0.012688,0.45957,0.069858,-0.018936
274,0.039602,0.13859,0.1011,-0.0084125,0.44444,0.071502,-0.014661
275,0.039931,0.18496,0.097154,-0.004466,0.44016,0.071173,-0.014661
276,0.04026,0.22048,0.087946,-0.0093991,0.43753,0.072818,-0.01795
277,0.036642,0.23429,0.073476,-0.022225,0.4224,0.07512,-0.020909
278,0.029407,0.23002,0.054401,-0.032091,0.38261,0.072818,-0.018936
279,0.018884,0.21916,0.034011,-0.033735,0.31158,0.062952,-0.0097279
280,0.0083598,0.20535,0.013622,-0.028802,0.21127,0.048482,-0.0008485
281,0.0011247,0.18825,-0.0074258,-0.021567,0.090905,0.036971,0.0017824
282,-0.002164,0.1672,-0.025185,-0.013674,-0.034722,0.027105,0.0001381
283,-0.00051963,0.14681,-0.040641,-0.0054526,-0.15575,0.01987,-0.0038083
284,0.0057288,0.13333,-0.051165,-0.00019077,-0.26855,0.014279,-0.0097279
285,0.013622,0.12412,-0.056098,-0.0011774,-0.37576,0.0073732,-0.01203
286,0.01987,0.11754,-0.059058,-0.010057,-0.47639,-0.0064392,-0.0084125
287,0.02283,0.11393,-0.064978,-0.020909,-0.54907,-0.027487,-0.0034794
288,0.02579,0.11458,-0.070897,-0.030447,-0.55795,-0.053796,-0.002164
289,0.030723,0.11787,-0.072542,-0.038339,-0.46883,-0.073857,-0.0061104
290,0.03434,0.11689,-0.067609,-0.042615,-0.28927,-0.080763,-0.013017
291,0.034669,0.10965,-0.054125,-0.041957,-0.074186,-0.071226,-0.018278
292,0.032367,0.098469,-0.037353,-0.037024,0.10044,-0.048863,-0.020909
293,0.02579,0.085972,-0.019265,-0.036695,0.18167,-0.016305,-0.021567
294,0.018226,0.074791,-0.0024928,-0.042286,0.16589,0.018226,-0.021567
295,0.0090175,0.063281,0.010991,-0.053796,0.083999,0.044864,-0.021238
296,0.0017824,0.053086,0.018884,-0.066293,-0.019265,0.058348,-0.017621
297,0.0034268,0.045851,0.023488,-0.074186,-0.10609,0.060321,-0.0090702
298,0.012964,0.035656,0.027763,-0.073528,-0.15739,0.050784,-0.00051963
299,0.024474,0.014279,0.033683,-0.064978,-0.17942,0.028092,0.0060577
300,0.034011,-0.021896,0.034669,-0.052481,-0.18271,-0.0061104,0.0093464
301,0.043549,-0.068924,0.023817,-0.037353,-0.17383,-0.040313,0.012964
302,0.053415,-0.11497,-0.00051963,-0.022883,-0.1564,-0.068266,0.016253
303,0.058348,-0.15081,-0.036037,-0.0077547,-0.13503,-0.086354,0.018226
304,0.059663,-0.17581,-0.074844,0.0096753,-0.11562,-0.10378,0.018884
305,0.057361,-0.18896,-0.10378,0.032696,-0.11398,-0.13207,0.021843
306,0.055388,-0.18765,-0.11661,0.05769,-0.14588,-0.16956,0.02875
307,0.056374,-0.16693,-0.11168,0.07808,-0.21527,-0.20639,0.036314
308,0.058348,-0.12253,-0.092603,0.087946,-0.30538,-0.23336,0.042891
309,0.061965,-0.061031,-0.064978,0.085972,-0.38628,-0.24783,0.047166
310,0.065254,0.002769,-0.035708,0.073476,-0.42311,-0.25276,0.047824
311,0.068214,0.058676,-0.012359,0.055059,-0.3899,-0.24783,0.045193
312,0.06624,0.10636,0.002769,0.037958,-0.28927,-0.23928,0.041575
313,0.06361,0.14648,0.012635,0.027105,-0.1564,-0.2327,0.036314
314,0.059334,0.1774,0.024145,0.02875,-0.045574,-0.23336,0.027434
315,0.056046,0.19713,0.036642,0.035985,0.0096753,-0.24092,0.017897
316,0.056374,0.19779,0.049139,0.044535,0.0063866,-0.25441,0.010662
317,0.059992,0.18003,0.059663,0.046837,-0.036037,-0.26855,0.01132
318,0.06624,0.14714,0.062623,0.039931,-0.09326,-0.27578,0.019212
319,0.07216,0.10702,0.054072,0.026447,-0.14588,-0.26855,0.031709
320,0.073476,0.067227,0.031381,0.012635,-0.17942,-0.24158,0.039931
321,0.069529,0.032367,-0.004466,0.0030979,-0.18501,-0.19718,0.038944
322,0.056046,0.002769,-0.048534,-0.0054526,-0.16791,-0.14555,0.030723
323,0.035656,-0.021238,-0.088656,-0.012359,-0.13897,-0.093589,0.018555
324,0.013293,-0.038011,-0.11891,-0.014332,-0.10707,-0.047219,0.0090175
325,-0.0054526,-0.04689,-0.12878,-0.010386,-0.074186,-0.012688,0.0057288
326,-0.020252,-0.053467,-0.11858,-0.0008485,-0.048205,0.010004,0.0044134
327,-0.02946,-0.057743,-0.097207,0.012306,-0.032091,0.023817,0.00079584
328,-0.031433,-0.063991,-0.071884,0.025461,-0.025842,0.029078,-0.0041372
329,-0.029789,-0.069911,-0.045574,0.035985,-0.024856,0.026776,-0.010715
330,-0.024527,-0.073528,-0.022554,0.038616,-0.029789,0.018226,-0.014003
331,-0.018936,-0.077803,-0.0041372,0.035985,-0.048534,0.010004,-0.011701
332,-0.017621,-0.081421,0.010991,0.032696,-0.085039,0.0050711,-0.0028217
333,-0.021567,-0.083065,0.024145,0.033025,-0.13305,0.0017824,0.0093464
334,-0.028144,-0.080106,0.033683,0.041247,-0.17581,-0.00051963,0.023159
335,-0.034722,-0.078132,0.038944,0.056046,-0.20376,-0.01203,0.03434
336,-0.036695,-0.076817,0.039273,0.072489,-0.21428,-0.056756,0.040918
337,-0.03538,-0.078132,0.033683,0.088275,-0.20869,-0.14687,0.044535
338,-0.030775,-0.081092,0.028421,0.096496,-0.19159,-0.27249,0.046837
339,-0.026171,-0.084052,0.027763,0.097483,-0.16265,-0.39582,0.047495
340,-0.021567,-0.085039,0.031381,0.095181,-0.12023,-0.47376,0.046837
341,-0.014661,-0.080106,0.033683,0.095839,-0.068595,-0.48297,0.045522
342,-0.0038083,-0.067609,0.031709,0.10011,-0.007097,-0.41884,0.048482
343,0.0070443,-0.052152,0.026447,0.10242,0.064267,-0.29387,0.055717
344,0.01132,-0.038011,0.019212,0.10077,0.13925,-0.13667,0.065583
345,0.0077021,-0.026171,0.016253,0.090248,0.21522,0.023488,0.07808
346,-0.0015062,-0.017621,0.016581,0.070516,0.28888,0.16622,0.091563
347,-0.011043,-0.013345,0.021514,0.045851,0.36485,0.28527,0.10274
348,-0.015319,-0.016305,0.029078,0.027763,0.45628,0.3836,0.11327
349,-0.012688,-0.0265,0.037629,0.026119,0.56711,0.47141,0.12215
350,-0.0087413,-0.042286,0.048482,0.042562,0.68451,0.55428,0.12609
351,-0.0074258,-0.058071,0.057032,0.070845,0.78153,0.63946,0.12577
352,-0.0084125,-0.066293,0.059663,0.098141,0.84303,0.72496,0.12215
353,-0.016963,-0.060702,0.056703,0.1159,0.86144,0.81277,0.11491
354,-0.032091,-0.044588,0.053415,0.11853,0.83941,0.894,0.10702
355,-0.048534,-0.025514,0.055717,0.11031,0.77824,0.96109,0.098798
356,-0.062018,-0.011043,0.063938,0.097154,0.67695,1.0058,0.096167
357,-0.065635,-0.0024928,0.07216,0.086301,0.53257,1.0121,0.1011
358,-0.0584,0.002769,0.075778,0.083013,0.36518,0.96208,0.11097
359,-0.040641,0.010333,0.077751,0.086959,0.2162,0.85454,0.11985
360,-0.018278,0.014608,0.077751,0.095181,0.15076,0.70523,0.11886
361,0.00079584,0.019212,0.077093,0.10143,0.20996,0.54376,0.10702
362,0.014608,0.023488,0.080053,0.10209,0.36485,0.39675,0.087617
363,0.024474,0.024145,0.083013,0.097154,0.52369,0.27935,0.0692
364,0.029078,0.019541,0.079724,0.088603,0.59243,0.19384,0.05473
365,0.031052,0.013951,0.071831,0.079395,0.52402,0.13136,0.048482
366,0.029736,0.0083598,0.064267,0.070516,0.3415,0.082026,0.047495
367,0.025132,0.0050711,0.05769,0.058676,0.11557,0.035656,0.053086
368,0.018555,0.0054,0.055717,0.043877,-0.079119,-0.010386,0.058676
369,0.013293,0.0073732,0.057032,0.028421,-0.20113,-0.05544,0.058676
370,0.0073732,0.010004,0.062952,0.018555,-0.24553,-0.09622,0.050784
371,0.0030979,0.016253,0.065583,0.013951,-0.23763,-0.12779,0.032038
372,-0.0008485,0.024803,0.063281,0.011648,-0.20409,-0.14884,0.0073732
373,0.00046697,0.031709,0.05473,0.0073732,-0.17054,-0.15772,-0.011043
374,0.0063866,0.035656,0.038944,0.0017824,-0.15081,-0.15969,-0.013017
375,0.013951,0.034669,0.020199,-0.0064392,-0.14752,-0.15739,-0.00051963
376,0.019212,0.032367,0.00079584,-0.014332,-0.16101,-0.14391,0.017568
377,0.023817,0.032696,-0.018278,-0.018607,-0.18107,-0.11464,0.033683
378,0.024803,0.037629,-0.035708,-0.015319,-0.20409,-0.070568,0.041904
379,0.026119,0.044864,-0.04985,-0.0064392,-0.22053,-0.024198,0.042233
380,0.02875,0.053743,-0.062347,0.0047422,-0.22875,0.013951,0.035656
381,0.033354,0.066898,-0.073199,0.017897,-0.22546,0.04026,0.025132
382,0.040918,0.082026,-0.084381,0.032038,-0.21724,0.058348,0.019212
383,0.04881,0.094852,-0.10115,0.045851,-0.21494,0.067556,0.017239
384,0.054072,0.099785,-0.11858,0.059334,-0.21823,0.074462,0.014937
385,0.055717,0.10274,-0.12779,0.0692,-0.20869,0.096496,0.010333
386,0.051441,0.10801,-0.10937,0.072818,-0.16693,0.1501,0.0070443
387,0.049139,0.11393,-0.056756,0.074462,-0.088656,0.23331,0.0047422
388,0.052099,0.11985,0.015595,0.072489,0.01132,0.32013,0.0024402
389,0.059005,0.12281,0.078737,0.066569,0.11261,0.38031,0.0030979
390,0.065912,0.11787,0.11195,0.058348,0.20009,0.38853,0.0077021
391,0.068214,0.10768,0.10932,0.050784,0.26784,0.33361,0.011648
392,0.063281,0.096496,0.080053,0.045522,0.31454,0.22377,0.0090175
393,0.056046,0.088932,0.042562,0.041247,0.3392,0.083013,0.0030979
394,0.053086,0.084986,0.011648,0.037629,0.34282,-0.061031,-0.0018351
395,0.056374,0.083013,-0.004466,0.036971,0.32506,-0.1814,-0.0015062
396,0.061307,0.07808,-0.00019077,0.041904,0.29217,-0.27184,0.0044134
397,0.067885,0.074133,0.020199,0.04881,0.2458,-0.33925,0.015266
398,0.072489,0.071502,0.045522,0.058348,0.18036,-0.39878,0.025461
399,0.074462,0.074462,0.065912,0.067556,0.088932,-0.45995,0.0373
400,0.072818,0.07808,0.07808,0.073476,-0.026171,-0.52309,0.048153
401,0.068214,0.080711,0.074462,0.070187,-0.14719,-0.57933,0.057361
402,0.061965,0.081039,0.058676,0.056046,-0.25934,-0.6132,0.062623
403,0.059663,0.080382,0.040918,0.035327,-0.35603,-0.61386,0.06624
404,0.058676,0.079724,0.030723,0.014279,-0.42838,-0.58196,0.068543
405,0.06065,0.076435,0.036314,0.0001381,-0.46455,-0.53131,0.066898
406,0.06361,0.068871,0.052428,-0.0051238,-0.46225,-0.47573,0.057361
407,0.067227,0.057361,0.068543,-0.0057815,-0.43265,-0.42969,0.040918
408,0.068214,0.046837,0.076435,-0.0077547,-0.39089,-0.39352,0.023817
409,0.06361,0.038944,0.075449,-0.016305,-0.35668,-0.36392,0.0080309
410,0.053086,0.034669,0.073476,-0.027158,-0.3409,-0.33728,-0.0064392
411,0.044206,0.035656,0.077751,-0.036695,-0.34123,-0.309,-0.018936
412,0.0373,0.04322,0.092879,-0.044259,-0.34715,-0.27414,-0.028144
413,0.032696,0.054072,0.12511,-0.048534,-0.34484,-0.23467,-0.03538
414,0.030065,0.065912,0.17049,-0.047877,-0.33004,-0.19324,-0.038339
415,0.029736,0.075449,0.21686,-0.039984,-0.29847,-0.1518,-0.037024
416,0.031381,0.07808,0.24613,-0.027158,-0.24322,-0.11201,-0.031104
417,0.031381,0.073804,0.24679,-0.013674,-0.16397,-0.077803,-0.024198
418,0.032696,0.06361,0.2162,-0.0051238,-0.059716,-0.056756,-0.012359
419,0.034011,0.050784,0.16622,0.0001381,0.060321,-0.051823,0.002769
420,0.028092,0.037629,0.11294,0.0017824,0.16885,-0.060702,0.016581
421,0.013951,0.027763,0.066898,0.0011247,0.23363,-0.082079,0.020857
422,-0.0015062,0.02283,0.02875,0.0014536,0.22936,-0.10872,0.018555
423,-0.010715,0.01987,-0.0084125,0.0054,0.15635,-0.1268,0.012964
424,-0.010057,0.019212,-0.055112,0.016253,0.037958,-0.12319,0.0083598
425,-0.0041372,0.013951,-0.11201,0.031381,-0.089972,-0.091287,0.0083598
426,0.00079584,0.0050711,-0.17087,0.046837,-0.18501,-0.035051,0.010662
427,0.0034268,-0.0067681,-0.22514,0.05769,-0.20639,0.036314,0.011648
428,-0.0011774,-0.017621,-0.26986,0.066569,-0.14259,0.11458,0.0093464
429,-0.0080836,-0.023211,-0.30505,0.077422,-0.012359,0.18628,0.0030979
430,-0.014332,-0.019265,-0.3284,0.091234,0.14254,0.24186,-0.0015062
431,-0.01795,-0.0051238,-0.33268,0.10373,0.26784,0.27474,0.002769
432,-0.018936,0.010991,-0.31722,0.11261,0.31717,0.27672,0.010991
433,-0.015976,0.018555,-0.28565,0.11426,0.26356,0.23955,0.016581
434,-0.010386,0.013622,-0.24289,0.10702,0.11721,0.16457,0.014937
435,-0.0028217,0.0024402,-0.19258,0.09255,-0.077146,0.06624,0.0063866
436,0.0050711,-0.0077547,-0.14062,0.072818,-0.26559,-0.031762,-0.0041372
437,0.0077021,-0.013674,-0.095233,0.050126,-0.40568,-0.10378,-0.011043
438,0.0054,-0.013345,-0.061031,0.022501,-0.47869,-0.13042,-0.014332
439,0.00046697,-0.0077547,-0.038011,-0.010057,-0.48494,-0.10477,-0.012688
440,-0.0057815,0.0001381,-0.020909,-0.041299,-0.43199,-0.029789,-0.0080836
441,-0.013017,0.0063866,-0.0028217,-0.066622,-0.33136,0.082684,-0.0047949
442,-0.019594,0.0060577,0.023488,-0.079777,-0.2031,0.2116,-0.0057815
443,-0.021567,-0.0018351,0.055388,-0.081092,-0.069911,0.33131,-0.010386
444,-0.021896,-0.016305,0.085315,-0.069582,0.049139,0.4201,-0.013017
445,-0.019594,-0.035051,0.10834,-0.055769,0.13728,0.46877,-0.012359
446,-0.014661,-0.051823,0.12017,-0.045246,0.19022,0.47535,-0.0057815
447,-0.0028217,-0.0584,0.11623,-0.04097,0.22706,0.44542,0.0011247
448,0.013622,-0.051823,0.098141,-0.041957,0.27737,0.39346,0.0063866
449,0.029078,-0.03242,0.071502,-0.046561,0.35433,0.33657,0.010333
450,0.039273,-0.0054526,0.042562,-0.048863,0.43918,0.28592,0.015266
451,0.04026,0.019541,0.020528,-0.047877,0.49706,0.24186,0.016581
452,0.038287,0.035656,0.0063866,-0.042615,0.50067,0.20272,0.013293
453,0.036642,0.042562,0.0037556,-0.03242,0.44444,0.1695,0.0044134
454,0.038287,0.042233,0.011648,-0.01499,0.354,0.1455,-0.0054526
455,0.041247,0.035656,0.023817,0.0077021,0.26257,0.13004,-0.016305
456,0.044864,0.029078,0.033354,0.030723,0.1991,0.12609,-0.02354
457,0.049468,0.027434,0.043877,0.052757,0.18069,0.13234,-0.024527
458,0.053086,0.031052,0.056703,0.072489,0.21489,0.14451,-0.015976
459,0.055388,0.039931,0.07216,0.083999,0.3096,0.1524,-0.0008485
460,0.056703,0.049797,0.085972,0.083342,0.46088,0.14879,0.018884
461,0.058019,0.055717,0.096496,0.071173,0.6411,0.13464,0.035656
462,0.055717,0.055059,0.10209,0.05473,0.79139,0.11458,0.043549
463,0.047166,0.050126,0.10406,0.041575,0.84335,0.089261,0.041575
464,0.0373,0.043877,0.10373,0.032038,0.75982,0.06065,0.035656
465,0.029407,0.039602,0.10011,0.026776,0.56217,0.032696,0.031709
466,0.027763,0.035327,0.094194,0.024145,0.31059,0.0057288,0.032696
467,0.032696,0.034998,0.089919,0.025461,0.070516,-0.024527,0.037629
468,0.040918,0.037958,0.088932,0.027105,-0.11201,-0.058729,0.042891
469,0.04618,0.042562,0.088932,0.027763,-0.22152,-0.089972,0.041904
470,0.04881,0.046837,0.088275,0.027763,-0.26526,-0.10444,0.039602
471,0.051441,0.05177,0.082026,0.030394,-0.25638,-0.097864,0.042562
472,0.051113,0.057032,0.073476,0.036314,-0.21067,-0.065307,0.051113
473,0.045522,0.062952,0.068871,0.042233,-0.14391,-0.012688,0.057032
474,0.038287,0.067556,0.065583,0.044864,-0.066293,0.056046,0.056703
475,0.034998,0.0692,0.062294,0.044206,0.018226,0.13267,0.050126
476,0.035985,0.06624,0.059663,0.04322,0.1136,0.20469,0.042233
477,0.0373,0.059992,0.06065,0.044206,0.21522,0.26356,0.036314
478,0.037629,0.050126,0.06624,0.049468,0.30631,0.30401,0.031052
479,0.036971,0.035985,0.076106,0.05769,0.36748,0.31848,0.024474
480,0.034011,0.023159,0.083013,0.061636,0.3859,0.3027,0.017568
481,0.027434,0.012635,0.081368,0.059663,0.35334,0.25435,0.010333
482,0.018226,0.0054,0.071831,0.050455,0.26915,0.17904,0.0054
483,0.0070443,-0.0024928,0.060979,0.038287,0.14846,0.094523,0.0030979
484,-0.0047949,-0.0087413,0.050126,0.030065,0.010004,0.0093464,0.0044134
485,-0.011043,-0.0084125,0.044206,0.026447,-0.12779,-0.070568,0.0090175
486,-0.010715,-0.0031506,0.046837,0.023159,-0.24322,-0.14719,0.014279
487,-0.0084125,0.002769,0.053743,0.016253,-0.32643,-0.22842,0.013293
488,-0.0054526,0.0060577,0.060979,0.0073732,-0.37642,-0.3136,0.0067154
489,-0.002164,0.0080309,0.062294,0.0014536,-0.40634,-0.39056,-0.0038083
490,0.0024402,0.011648,0.058019,0.0011247,-0.42279,-0.45041,-0.014661
491,0.0083598,0.019541,0.056374,0.0034268,-0.43002,-0.49053,-0.022225
492,0.014279,0.033025,0.062294,0.0021113,-0.4389,-0.51388,-0.024198
493,0.015924,0.047166,0.069858,-0.0028217,-0.4583,-0.52079,-0.015648
494,0.010333,0.056703,0.06624,-0.010715,-0.48659,-0.51224,-0.00019077
495,0.00079584,0.058676,0.042891,-0.015976,-0.51191,-0.4856,0.013293
496,-0.010386,0.053743,0.0011247,-0.016305,-0.52408,-0.44186,0.017568
497,-0.018936,0.048482,-0.051823,-0.011372,-0.52079,-0.37872,0.014937
498,-0.025514,0.046508,-0.10543,-0.0024928,-0.50829,-0.29782,0.013622
499,-0.029131,0.043877,-0.14752,0.0063866,-0.48691,-0.20244,0.018226
500,-0.02946,0.036314,-0.16824,0.014608,-0.45173,-0.091616,0.025132
501,-0.026171,0.024474,-0.16265,0.022172,-0.39845,0.035656,0.031709
502,-0.021896,0.014608,-0.12779,0.033354,-0.32807,0.18167,0.034669
503,-0.019594,0.0077021,-0.068266,0.049139,-0.24651,0.33756,0.033025
504,-0.021238,0.0057288,0.0067154,0.065254,-0.1712,0.48883,0.029078
505,-0.024198,0.0080309,0.08367,0.076764,-0.11858,0.61972,0.026447
506,-0.027487,0.010662,0.14616,0.079724,-0.090629,0.72036,0.025461
507,-0.033078,0.010662,0.18003,0.07808,-0.077803,0.79106,0.027763
508,-0.036037,0.010662,0.17148,0.071831,-0.064978,0.83908,0.035656
509,-0.030447,0.0090175,0.1205,0.063938,-0.041628,0.86111,0.045522
510,-0.016963,0.0073732,0.037958,0.055388,-0.0057815,0.84401,0.056046
511,-0.0011774,0.0044134,-0.049521,0.042233,0.043549,0.771,0.064925
512,0.013951,0.0040845,-0.11793,0.027434,0.10834,0.63781,0.071173
513,0.027105,0.0080309,-0.14588,0.018884,0.1843,0.452,0.076435
514,0.036314,0.012964,-0.12253,0.019212,0.25797,0.24416,0.079066
515,0.042562,0.016581,-0.056098,0.024803,0.3119,0.044206,0.079395
516,0.044864,0.021186,0.036642,0.024145,0.3221,-0.12845,0.074133
517,0.044206,0.024803,0.1307,0.011977,0.2731,-0.26822,0.063281
518,0.044206,0.025461,0.20338,-0.0090702,0.16687,-0.3797,0.04881
519,0.04322,0.023159,0.24218,-0.025842,0.023817,-0.47212,0.034011
520,0.04322,0.021514,0.24613,-0.029789,-0.12746,-0.54973,0.02283
521,0.043877,0.029078,0.22311,-0.019265,-0.26032,-0.61484,0.018884
522,0.049139,0.050455,0.18759,-0.0018351,-0.35504,-0.66253,0.019212
523,0.058676,0.079066,0.14846,0.015924,-0.40174,-0.68489,0.018884
524,0.068871,0.10702,0.1034,0.023817,-0.40338,-0.67864,0.017568
525,0.07808,0.12478,0.043877,0.019212,-0.3728,-0.63688,0.015266
526,0.078737,0.12675,-0.038668,0.0063866,-0.32413,-0.55959,0.015595
527,0.070187,0.11064,-0.1347,-0.0067681,-0.27348,-0.45436,0.018226
528,0.05473,0.08367,-0.22185,-0.015976,-0.2304,-0.3432,0.019212
529,0.036971,0.058348,-0.27743,-0.021896,-0.20047,-0.24947,0.021186
530,0.026119,0.036314,-0.29025,-0.025514,-0.17811,-0.1837,0.022172
531,0.021843,0.015924,-0.26493,-0.025185,-0.15081,-0.14358,0.022501
532,0.023488,-0.0031506,-0.21626,-0.020909,-0.10082,-0.12023,0.019541
533,0.028092,-0.01795,-0.15936,-0.016305,-0.0054526,-0.10444,0.01691
534,0.034011,-0.02354,-0.1051,-0.013017,0.16128,-0.089314,0.018226
535,0.038616,-0.019594,-0.060373,-0.011043,0.40826,-0.069253,0.020857
536,0.04026,-0.011372,-0.031433,-0.010386,0.70227,-0.041957,0.024474
537,0.04322,-0.0047949,-0.022554,-0.0077547,0.9601,-0.012359,0.028092
538,0.047824,0.0001381,-0.036366,0.00079584,1.0798,0.014608,0.033683
539,0.05473,0.0073732,-0.063004,0.013951,1.0137,0.033354,0.040918
540,0.060979,0.017239,-0.086683,0.030394,0.78975,0.05177,0.04618
541,0.067227,0.027763,-0.1005,0.04322,0.49541,0.079724,0.049468
542,0.073476,0.035656,-0.098851,0.050784,0.22541,0.11458,0.056046
543,0.080053,0.041575,-0.083065,0.052757,0.039273,0.14747,0.064596
544,0.087288,0.047824,-0.054783,0.05473,-0.042944,0.16753,0.074133
545,0.093208,0.055717,-0.021238,0.059005,-0.032749,0.16918,0.077422
546,0.092879,0.066569,0.010333,0.06065,0.04322,0.15536,0.073147
547,0.084328,0.080053,0.035985,0.054401,0.14418,0.12938,0.060979
548,0.070187,0.09551,0.056703,0.041247,0.22837,0.09551,0.045193
549,0.056703,0.11064,0.079395,0.026776,0.26718,0.059005,0.032367
550,0.044864,0.12544,0.10932,0.012635,0.25633,0.024474,0.031709
551,0.039931,0.13728,0.1455,0.0037556,0.20963,0.0011247,0.039931
552,0.035327,0.14352,0.18167,0.0030979,0.15207,-0.0084125,0.049139
553,0.027763,0.14747,0.21555,0.0077021,0.10209,-0.0064392,0.05177
554,0.015266,0.14846,0.24547,0.010991,0.067227,-0.00051963,0.041247
555,0.0001381,0.14188,0.26488,0.013293,0.041904,0.0047422,0.024145
556,-0.012688,0.12774,0.26488,0.013951,0.021843,0.0096753,0.0063866
557,-0.019594,0.10735,0.23659,0.010662,0.014608,0.020857,-0.0051238
558,-0.020252,0.087288,0.18069,0.0037556,0.035656,0.046508,-0.0074258
559,-0.019594,0.067227,0.10505,-0.0034794,0.093208,0.090905,0.0021113
560,-0.019265,0.049797,0.022172,-0.0051238,0.182,0.14747,0.01987
561,-0.020252,0.0373,-0.053138,0.0047422,0.27803,0.20009,0.035327
562,-0.02354,0.029078,-0.10872,0.029736,0.34742,0.23265,0.040918
563,-0.026829,0.023817,-0.1347,0.062294,0.36748,0.23824,0.038287
564,-0.025514,0.010991,-0.13141,0.093536,0.33986,0.21818,0.031709
565,-0.021238,-0.018936,-0.10905,0.11294,0.27639,0.17542,0.025132
566,-0.012359,-0.072542,-0.078461,0.11919,0.19943,0.12116,0.018884
567,-0.0028217,-0.14193,-0.051823,0.11623,0.12281,0.071173,0.015924
568,0.0034268,-0.21132,-0.034722,0.11097,0.052757,0.036971,0.013951
569,0.0063866,-0.26098,-0.027816,0.1034,-0.0097279,0.01987,0.01132
570,0.0047422,-0.27743,-0.026171,0.09255,-0.068924,0.018555,0.010333
571,0.002769,-0.25868,-0.024527,0.081697,-0.12746,0.024474,0.010662
572,0.0011247,-0.21231,-0.01795,0.075449,-0.17778,0.033025,0.013293
573,-0.00051963,-0.15772,-0.0057815,0.076764,-0.21593,0.042891,0.013951
574,-0.0024928,-0.11135,0.0077021,0.084657,-0.23895,0.054401,0.010991
575,-0.0018351,-0.076159,0.021186,0.09255,-0.24849,0.070187,0.0080309
576,0.0044134,-0.048205,0.032367,0.094194,-0.24388,0.091892,0.0080309
577,0.014608,-0.019594,0.038944,0.08959,-0.22349,0.11327,0.012964
578,0.02283,0.015924,0.044206,0.076764,-0.18962,0.12675,0.021186
579,0.022172,0.054401,0.046508,0.058676,-0.15903,0.12346,0.027434
580,0.015595,0.090248,0.046837,0.039602,-0.14851,0.10209,0.028421
581,0.0063866,0.11656,0.045193,0.024803,-0.1712,0.070187,0.02579
582,-0.0034794,0.12971,0.04322,0.01691,-0.23303,0.035985,0.023817
583,-0.0097279,0.12873,0.041575,0.014937,-0.32215,0.0054,0.01987
584,-0.0074258,0.11886,0.040918,0.015266,-0.41621,-0.023211,0.012306
585,0.0054,0.10702,0.042891,0.014937,-0.4879,-0.055112,0.0017824
586,0.021843,0.099456,0.04618,0.013951,-0.51684,-0.087012,-0.0077547
587,0.035656,0.094194,0.04618,0.015924,-0.49777,-0.11332,-0.012359
588,0.044535,0.088603,0.036971,0.021514,-0.43693,-0.13568,-0.013017
589,0.046508,0.080711,0.013622,0.028092,-0.35701,-0.15805,-0.014661
590,0.039273,0.068214,-0.023869,0.035327,-0.284,-0.17844,-0.019594
591,0.022501,0.053743,-0.071226,0.039273,-0.23138,-0.19948,-0.026171
592,0.0021113,0.039602,-0.12154,0.036314,-0.19291,-0.2202,-0.034064
593,-0.013674,0.025461,-0.16035,0.02579,-0.14983,-0.2327,-0.037682
594,-0.021567,0.0073732,-0.17515,0.0093464,-0.07879,-0.23303,-0.033735
595,-0.02354,-0.013674,-0.16693,-0.0084125,0.027763,-0.22415,-0.018278
596,-0.022225,-0.040313,-0.14752,-0.020252,0.16391,-0.2133,0.0063866
597,-0.016963,-0.07287,-0.12779,-0.022554,0.31158,-0.20705,0.035985
598,-0.004466,-0.10872,-0.1074,-0.017292,0.45134,-0.20573,0.064925
599,0.0090175,-0.13733,-0.086683,-0.0051238,0.56415,-0.20409,0.084328
600,0.019541,-0.15048,-0.068924,0.0096753,0.63387,-0.19521,0.088932
601,0.026447,-0.14127,-0.058729,0.025461,0.64538,-0.17877,0.082026
602,0.030394,-0.11661,-0.060702,0.036971,0.59572,-0.15147,0.07216
603,0.033683,-0.088656,-0.083394,0.041904,0.49278,-0.099838,0.062294
604,0.039931,-0.065307,-0.12648,0.043549,0.35433,-0.0038083,0.054072
605,0.044535,-0.048534,-0.1837,0.041904,0.20897,0.14681,0.04881
606,0.048482,-0.037024,-0.23763,0.037958,0.08663,0.32966,0.047166
607,0.048482,-0.028473,-0.25243,0.034669,0.0040845,0.4964,0.046508
608,0.045851,-0.021567,-0.18304,0.031381,-0.04689,0.5944,0.045522
609,0.041247,-0.011701,-0.0028217,0.028421,-0.085367,0.59506,0.042891
610,0.036642,0.0024402,0.28033,0.028092,-0.12845,0.50692,0.038616
611,0.034669,0.021186,0.61775,0.035985,-0.18633,0.35137,0.035985
612,0.035656,0.039931,0.93774,0.053743,-0.25079,0.14912,0.035656
613,0.038616,0.056374,1.167,0.07512,-0.29749,-0.067937,0.036642
614,0.041247,0.065912,1.2548,0.087946,-0.31261,-0.25473,0.032696
615,0.041247,0.068871,1.1906,0.087617,-0.30341,-0.37247,0.020199
616,0.0373,0.070516,1.0032,0.076435,-0.28828,-0.40371,0.0034268
617,0.030394,0.068871,0.75193,0.061636,-0.2919,-0.35504,-0.011701
618,0.023159,0.059992,0.49673,0.045851,-0.32873,-0.25177,-0.024527
619,0.017239,0.04322,0.27803,0.034669,-0.39286,-0.12417,-0.031104
620,0.014279,0.023488,0.1113,0.030394,-0.45501,0.00046697,-0.029131
621,0.013951,0.0040845,-0.010386,0.030065,-0.48527,0.10439,-0.022225
622,0.018555,-0.013345,-0.1051,0.029407,-0.46521,0.18036,-0.015319
623,0.024474,-0.027158,-0.18896,0.026776,-0.39352,0.22936,-0.014332
624,0.028092,-0.034064,-0.27282,0.021186,-0.28565,0.25402,-0.019594
625,0.033683,-0.027816,-0.35899,0.013951,-0.1689,0.25929,-0.024527
626,0.040918,-0.0051238,-0.44844,0.0067154,-0.074515,0.25435,-0.023211
627,0.048482,0.038616,-0.53756,0.0001381,-0.02354,0.24909,-0.015319
628,0.053086,0.10209,-0.61813,-0.0041372,-0.014332,0.25271,-0.0018351
629,0.054072,0.17246,-0.66549,-0.0080836,-0.019594,0.27014,0.015924
630,0.05177,0.23594,-0.65957,-0.0097279,0.0044134,0.30401,0.034998
631,0.047495,0.28592,-0.59149,-0.004466,0.10406,0.35137,0.053415
632,0.045851,0.32177,-0.46652,0.0063866,0.30072,0.40201,0.068543
633,0.047495,0.34084,-0.30209,0.022501,0.56612,0.44246,0.080711
634,0.053743,0.3392,-0.13404,0.039273,0.83184,0.45825,0.08959
635,0.065912,0.31519,0.0011247,0.052099,1.0216,0.44312,0.094194
636,0.080053,0.26882,0.084657,0.055717,1.093,0.39905,0.093536
637,0.090248,0.20469,0.11721,0.050126,1.0486,0.33953,0.090905
638,0.093865,0.13793,0.1113,0.040589,0.92294,0.27408,0.086301
639,0.08959,0.084986,0.083342,0.028421,0.75588,0.2093,0.079724
640,0.07808,0.053086,0.049139,0.018884,0.58158,0.15273,0.070516
641,0.059663,0.038944,0.020528,0.0090175,0.41714,0.10669,0.060321
642,0.041575,0.03434,0.002769,0.00079584,0.27672,0.07216,0.048482
643,0.030723,0.032696,-0.0028217,-0.004466,0.16786,0.045522,0.033025
644,0.028421,0.030723,-0.0024928,-0.0080836,0.089919,0.029407,0.015595
645,0.030065,0.027763,-0.0028217,-0.010386,0.031709,0.01987,0.0024402
646,0.030723,0.023817,-0.013017,-0.011043,-0.026171,0.012635,-0.0018351
647,0.027763,0.021514,-0.037024,-0.014003,-0.091287,0.0044134,0.0017824
648,0.021514,0.021843,-0.074844,-0.016634,-0.15805,-0.0090702,0.0077021
649,0.010333,0.023488,-0.11694,-0.016305,-0.21461,-0.031762,0.012635
650,-0.002164,0.023488,-0.15344,-0.011701,-0.25243,-0.061689,0.014937
651,-0.0074258,0.018226,-0.17745,-0.0024928,-0.27249,-0.086025,0.014937
652,-0.0038083,0.0073732,-0.18962,0.014608,-0.27545,-0.098851,0.017568
653,0.0044134,-0.0018351,-0.19159,0.036642,-0.26657,-0.097536,0.02283
654,0.013622,-0.0054526,-0.1837,0.059992,-0.24487,-0.085367,0.027763
655,0.02283,-0.0034794,-0.1689,0.082355,-0.21067,-0.067937,0.026776
656,0.025461,-0.0041372,-0.1393,0.099785,-0.17022,-0.050836,0.022172
657,0.017897,-0.0084125,-0.073857,0.10735,-0.14029,-0.037682,0.018555
658,0.0037556,-0.011372,0.040589,0.10801,-0.13141,-0.030447,0.020199
659,-0.01203,-0.011043,0.18825,0.10011,-0.14719,-0.033406,0.023817
660,-0.025514,-0.010386,0.32309,0.078737,-0.18205,-0.05281,0.023488
661,-0.038011,-0.011701,0.40728,0.045522,-0.21955,-0.083065,0.017239
662,-0.049192,-0.015319,0.42832,0.0083598,-0.24454,-0.11924,0.013293
663,-0.056756,-0.021567,0.40333,-0.022225,-0.24849,-0.15607,0.010662
664,-0.059716,-0.027487,0.36485,-0.038668,-0.23467,-0.18797,0.0070443
665,-0.062018,-0.024198,0.34907,-0.039984,-0.21001,-0.20968,0.00079584
666,-0.06432,-0.007097,0.37899,-0.033078,-0.1814,-0.21955,-0.0074258
667,-0.06136,0.026447,0.44773,-0.021567,-0.15443,-0.2202,-0.015319
668,-0.053138,0.0692,0.53159,-0.0093991,-0.13108,-0.21593,-0.020581
669,-0.038997,0.11162,0.59966,0.0014536,-0.11529,-0.20738,-0.023211
670,-0.0265,0.14583,0.62499,0.010004,-0.1097,-0.19422,-0.020909
671,-0.019265,0.1649,0.59637,0.014279,-0.11299,-0.18337,-0.01499
672,-0.018278,0.16457,0.51218,0.010004,-0.11957,-0.17877,-0.010386
673,-0.024198,0.14418,0.37669,0.0014536,-0.12746,-0.17909,-0.0097279
674,-0.032749,0.10932,0.18266,-0.0028217,-0.13503,-0.17844,-0.010386
675,-0.038339,0.072489,-0.079448,-0.002164,-0.14654,-0.17153,-0.011043
676,-0.036037,0.040918,-0.39417,0.00079584,-0.16298,-0.15213,-0.0080836
677,-0.0265,0.021186,-0.71285,0.0034268,-0.18469,-0.11858,0.0040845
678,-0.012359,0.0063866,-0.96015,0.0093464,-0.20409,-0.073857,0.024474
679,-0.00051963,-0.01203,-1.0687,0.01987,-0.20113,-0.024527,0.04322
680,0.012306,-0.04097,-1.0138,0.031709,-0.1643,0.023817,0.053086
681,0.025132,-0.08471,-0.82828,0.036642,-0.10707,0.064596,0.054072
682,0.039273,-0.14226,-0.5813,0.033683,-0.062018,0.090577,0.055059
683,0.052099,-0.20113,-0.3409,0.032038,-0.047877,0.094852,0.056703
684,0.059334,-0.24355,-0.15936,0.037958,-0.048205,0.084328,0.058676
685,0.059334,-0.25835,-0.058729,0.050455,-0.02946,0.070516,0.061636
686,0.054401,-0.24553,-0.032749,0.065254,0.033354,0.056046,0.061307
687,0.045851,-0.21264,-0.054454,0.07512,0.13695,0.043877,0.055059
688,0.037629,-0.17054,-0.092931,0.077093,0.25501,0.032367,0.043877
689,0.032038,-0.13338,-0.11891,0.074462,0.36387,0.018555,0.033354
690,0.031709,-0.11102,-0.12286,0.069529,0.45003,0.0044134,0.027763
691,0.035327,-0.099838,-0.10543,0.065912,0.51482,-0.010057,0.027105
692,0.040918,-0.087998,-0.068595,0.065583,0.55954,-0.020252,0.028421
693,0.047166,-0.064978,-0.016634,0.064596,0.58815,-0.027158,0.032038
694,0.053086,-0.024198,0.043877,0.059992,0.60131,-0.029789,0.033025
695,0.058019,0.02875,0.10077,0.051441,0.59111,-0.026171,0.031381
696,0.061636,0.080053,0.14352,0.042233,0.54869,-0.018936,0.026447
697,0.062623,0.11524,0.17016,0.035656,0.46943,-0.010057,0.021843
698,0.061307,0.12346,0.18233,0.033354,0.36058,-0.0015062,0.017897
699,0.058019,0.11557,0.18365,0.035985,0.23363,0.0030979,0.018555
700,0.055388,0.10307,0.17937,0.039931,0.1011,0.0040845,0.024145
701,0.049797,0.097812,0.1797,0.04322,-0.0265,0.0001381,0.031381
702,0.042891,0.094852,0.18825,0.043877,-0.14193,-0.0074258,0.038287
703,0.035985,0.08959,0.20601,0.035656,-0.24388,-0.015976,0.042233
704,0.030394,0.079066,0.22739,0.018226,-0.32314,-0.022883,0.04322
705,0.025461,0.066898,0.24613,-0.0061104,-0.36392,-0.021896,0.038616
706,0.023488,0.057361,0.25731,-0.025514,-0.35142,-0.0090702,0.028092
707,0.026119,0.053086,0.25863,-0.037353,-0.28729,0.010991,0.011977
708,0.030723,0.054401,0.25139,-0.04097,-0.1962,0.027105,-0.0008485
709,0.029736,0.06065,0.24021,-0.038997,-0.11069,0.034011,-0.0054526
710,0.02283,0.074791,0.2264,-0.038011,-0.055769,0.032367,-0.0064392
711,0.013951,0.092221,0.20305,-0.042615,-0.035708,0.027434,-0.0047949
712,0.0067154,0.10209,0.15701,-0.054454,-0.037353,0.021186,-0.0018351
713,0.0040845,0.098798,0.088275,-0.068924,-0.038997,0.017568,0.0001381
714,0.0070443,0.088275,0.016253,-0.080434,-0.024198,0.017897,0.0001381
715,0.012306,0.076435,-0.033735,-0.083394,0.014937,0.021186,-0.00051963
716,0.017897,0.064596,-0.045903,-0.079119,0.073476,0.028421,-0.00019077
717,0.024474,0.055059,-0.022883,-0.066951,0.14122,0.036642,0.002769
718,0.032696,0.046508,0.015595,-0.04985,0.20667,0.039273,0.0067154
719,0.042891,0.040918,0.032038,-0.034064,0.2606,0.024145,0.0093464
720,0.05177,0.034669,-0.0093991,-0.0265,0.2948,-0.018936,0.011977
721,0.059005,0.026447,-0.11299,-0.028473,0.3027,-0.080763,0.016581
722,0.066569,0.020528,-0.24816,-0.035051,0.28132,-0.14193,0.024803
723,0.069858,0.01987,-0.3705,-0.038668,0.22443,-0.19192,0.036642
724,0.067885,0.022172,-0.43956,-0.035051,0.12675,-0.22744,0.043877
725,0.060979,0.02283,-0.44383,-0.027487,-0.0031506,-0.25046,0.043877
726,0.051113,0.020857,-0.39878,-0.020252,-0.13634,-0.25934,0.036971
727,0.04026,0.01691,-0.33465,-0.018278,-0.24059,-0.24914,0.02579
728,0.02875,0.013951,-0.27578,-0.017621,-0.29321,-0.21626,0.014279
729,0.019541,0.014937,-0.22842,-0.012688,-0.29683,-0.1666,0.0080309
730,0.012306,0.021186,-0.18469,0.0017824,-0.27085,-0.10707,0.01132
731,0.0083598,0.030394,-0.11497,0.019541,-0.23402,-0.045903,0.02283
732,0.0080309,0.035656,0.019541,0.041575,-0.19652,0.016581,0.033683
733,0.0093464,0.038287,0.22114,0.06624,-0.16298,0.084657,0.041247
734,0.012306,0.042233,0.4395,0.091892,-0.13141,0.15372,0.046508
735,0.014937,0.049797,0.60558,0.11064,-0.1074,0.2139,0.047824
736,0.017568,0.06065,0.67662,0.11491,-0.098522,0.25304,0.045851
737,0.019541,0.072818,0.65031,0.10209,-0.11924,0.26521,0.04026
738,0.020528,0.084328,0.55625,0.081039,-0.18205,0.25369,0.035327
739,0.017568,0.097483,0.43128,0.061636,-0.27775,0.23363,0.031381
740,0.010004,0.10439,0.3073,0.051441,-0.37247,0.22377,0.025461
741,-0.00019077,0.10176,0.20502,0.048482,-0.42805,0.23331,0.021843
742,-0.007097,0.088603,0.13728,0.052099,-0.40503,0.26586,0.021514
743,-0.0077547,0.068543,0.10176,0.062952,-0.26394,0.32111,0.025461
744,-0.0024928,0.049139,0.092221,0.082026,0.0093464,0.39346,0.030065
745,0.0057288,0.032038,0.099127,0.10636,0.38195,0.47272,0.035985
746,0.015924,0.01691,0.10538,0.1307,0.76311,0.53488,0.04618
747,0.022501,0.0037556,0.10373,0.1455,1.0446,0.55494,0.061636
748,0.022501,-0.0051238,0.087946,0.14616,1.1466,0.51547,0.076764
749,0.018884,-0.0087413,0.06361,0.1353,1.0449,0.4224,0.087617
750,0.014279,-0.0080836,0.039602,0.11919,0.77561,0.29612,0.085972
751,0.0077021,-0.0061104,0.024145,0.10307,0.4155,0.15799,0.070516
752,0.0011247,-0.0061104,0.022501,0.089261,0.062623,0.027763,0.046508
753,-0.0024928,-0.0080836,0.029078,0.076764,-0.19652,-0.080106,0.023817
754,-0.0047949,-0.010386,0.039602,0.065912,-0.30768,-0.1564,0.013293
755,-0.010057,-0.012359,0.047495,0.058676,-0.26953,-0.2031,0.013951
756,-0.016963,-0.015648,0.04881,0.055717,-0.13108,-0.22711,0.020857
757,-0.015976,-0.017292,0.04322,0.055388,0.027434,-0.23862,0.02579
758,-0.0064392,-0.016305,0.033025,0.060321,0.14221,-0.24717,0.023817
759,0.0090175,-0.015319,0.023817,0.067556,0.1843,-0.2521,0.013293
760,0.023488,-0.014003,0.01987,0.07216,0.15799,-0.2498,-0.00051963
761,0.032038,-0.012688,0.02283,0.071502,0.094523,-0.2327,-0.010386
762,0.038287,-0.0084125,0.033025,0.066569,0.028421,-0.1985,-0.014661
763,0.047495,0.0001381,0.050126,0.06361,-0.014003,-0.14983,-0.01203
764,0.056703,0.012306,0.0692,0.062294,-0.025185,-0.095562,-0.0051238
765,0.065254,0.022501,0.085644,0.061307,-0.014332,-0.041957,0.002769
766,0.067556,0.025132,0.091563,0.061636,-0.00051963,0.0011247,0.010004
767,0.062294,0.018226,0.080711,0.058676,-0.0067681,0.020857,0.019212
768,0.053415,0.0044134,0.050784,0.05177,-0.052152,0.013951,0.026447
769,0.045522,-0.0074258,0.010662,0.043549,-0.12976,-0.014661,0.028092
770,0.038287,-0.01499,-0.025185,0.038616,-0.21922,-0.052152,0.025461
771,0.032038,-0.014661,-0.04689,0.039931,-0.30439,-0.085367,0.020528
772,0.029078,-0.0080836,-0.051494,0.047495,-0.3705,-0.10313,0.01691
773,0.029736,0.002769,-0.041299,0.059992,-0.40963,-0.09918,0.014608
774,0.032696,0.014608,-0.025514,0.073476,-0.42114,-0.080106,0.016253
775,0.037958,0.02283,-0.013017,0.081039,-0.41292,-0.053796,0.019541
776,0.045522,0.023817,-0.010057,0.08367,-0.39253,-0.028144,0.022172
777,0.049797,0.020199,-0.016963,0.083013,-0.36852,-0.0067681,0.018226
778,0.04618,0.013951,-0.029789,0.080711,-0.34978,0.013622,0.0090175
779,0.038616,0.01132,-0.045246,0.072818,-0.34024,0.036971,0.00046697
780,0.034011,0.013293,-0.0584,0.055059,-0.33268,0.06361,-0.0034794
781,0.036314,0.020528,-0.066293,0.028092,-0.31163,0.090905,-0.0024928
782,0.041575,0.033025,-0.064649,0.0001381,-0.26756,0.1136,0.00079584
783,0.045193,0.047495,-0.049521,-0.019923,-0.20146,0.12675,0.0044134
784,0.044864,0.061965,-0.024527,-0.030118,-0.12746,0.1284,0.0090175
785,0.041247,0.075449,-0.0041372,-0.03242,-0.060702,0.11952,0.01987
786,0.034998,0.086301,-0.0011774,-0.030118,-0.013017,0.10011,0.033025
787,0.03434,0.090905,-0.016963,-0.028473,0.013951,0.071831,0.042562
788,0.04026,0.089261,-0.044259,-0.032091,0.024474,0.040589,0.046508
789,0.047495,0.084657,-0.069253,-0.039655,0.024803,0.017897,0.047495
790,0.050455,0.081039,-0.082736,-0.04689,0.021843,0.01132,0.040589
791,0.047824,0.081368,-0.087341,-0.050179,0.019212,0.021843,0.030065
792,0.040918,0.081368,-0.085367,-0.047877,0.018555,0.039602,0.020199
793,0.032038,0.073804,-0.07879,-0.041957,0.017239,0.049139,0.012306
794,0.023159,0.056703,-0.068595,-0.036366,0.013951,0.042891,0.0070443
795,0.014937,0.036314,-0.053467,-0.034064,0.0063866,0.025461,0.0017824
796,0.0096753,0.020857,-0.035708,-0.032091,-0.007097,0.0044134,-0.0018351
797,0.0073732,0.013293,-0.019923,-0.02946,-0.0265,-0.01795,-0.004466
798,0.0067154,0.010662,-0.0080836,-0.024198,-0.043601,-0.037353,-0.0041372
799,0.0073732,0.0057288,-0.0008485,-0.021896,-0.056427,-0.045574,-0.0015062
800,0.0096753,-0.002164,0.0017824,-0.023869,-0.06432,-0.042286,0.0011247
801,0.014608,-0.010057,0.0017824,-0.029131,-0.069582,-0.033406,0.0044134
802,0.020528,-0.013345,0.0014536,-0.033078,-0.071555,-0.028144,0.0096753
803,0.02579,-0.011701,0.0014536,-0.030775,-0.062676,-0.034393,0.01691
804,0.028421,-0.0093991,-0.0008485,-0.022225,-0.025514,-0.048534,0.025461
805,0.024803,-0.0087413,-0.0087413,-0.012359,0.056374,-0.059387,0.032367
806,0.013622,-0.0093991,-0.02946,-0.0051238,0.17707,-0.051823,0.04026
807,0.0001381,-0.010057,-0.060045,-0.0015062,0.30039,-0.029131,0.04881
808,-0.0090702,-0.0090702,-0.092931,0.00079584,0.37439,-0.004466,0.056046
809,-0.012688,-0.0064392,-0.12615,0.0080309,0.36617,0.0077021,0.058676
810,-0.011701,0.0017824,-0.16035,0.023817,0.28099,0.0014536,0.058019
811,-0.0090702,0.012635,-0.19356,0.041247,0.15997,-0.016305,0.052428
812,-0.0067681,0.022172,-0.2156,0.059334,0.052757,-0.037024,0.042233
813,-0.0057815,0.028092,-0.20738,0.079066,-0.0038083,-0.055112,0.029736
814,-0.0064392,0.032367,-0.15969,0.10538,-0.0038083,-0.063333,0.018555
815,-0.0077547,0.035985,-0.081421,0.13662,0.035985,-0.06136,0.014937
816,-0.010057,0.035656,-0.00051963,0.16227,0.08367,-0.053796,0.018555
817,-0.0093991,0.032038,0.061307,0.17279,0.10998,-0.043272,0.030723
818,-0.0064392,0.029407,0.091892,0.16424,0.10242,-0.027816,0.044864
819,-0.0034794,0.032038,0.095181,0.14484,0.0692,-0.01203,0.056703
820,-0.0015062,0.039602,0.083999,0.12346,0.027434,-0.0011774,0.06065
821,-0.0008485,0.047166,0.07512,0.10538,-0.0064392,0.0001381,0.057032
822,-0.0015062,0.050126,0.077422,0.087617,-0.016305,-0.01203,0.050784
823,-0.0041372,0.050455,0.089261,0.069858,0.0060577,-0.033735,0.04881
824,-0.0067681,0.048153,0.10209,0.05473,0.062294,-0.050179,0.047824
825,-0.0077547,0.048153,0.10998,0.047166,0.14352,-0.05544,0.049468
826,-0.0047949,0.053743,0.10899,0.051441,0.23035,-0.042944,0.051113
827,-0.0018351,0.062294,0.095839,0.063281,0.3027,-0.019594,0.050784
828,0.0011247,0.070845,0.071173,0.076764,0.34676,0.0021113,0.04881
829,0.0021113,0.07512,0.042891,0.085972,0.3586,0.01132,0.045193
830,0.00079584,0.072489,0.01987,0.087617,0.33854,0.0047422,0.04322
831,-0.0028217,0.064925,0.012306,0.084986,0.29415,-0.013345,0.042233
832,-0.0077547,0.056703,0.020199,0.075449,0.24416,-0.031762,0.040918
833,-0.011043,0.047824,0.032696,0.062952,0.21555,-0.033078,0.039931
834,-0.010715,0.0373,0.044206,0.050455,0.23692,-0.0015062,0.038944
835,-0.0084125,0.026447,0.049797,0.04026,0.31585,0.068543,0.041575
836,-0.0047949,0.022501,0.047824,0.031052,0.42503,0.16326,0.050784
837,0.0014536,0.026776,0.043549,0.021514,0.52074,0.25797,0.060979
838,0.0080309,0.035327,0.042233,0.011648,0.55921,0.32703,0.068214
839,0.015595,0.038287,0.04618,0.0021113,0.52238,0.354,0.067227
840,0.021843,0.034998,0.05177,-0.011043,0.41188,0.33493,0.056374
841,0.022172,0.02283,0.053743,-0.026829,0.24613,0.27639,0.036971
842,0.01691,0.0047422,0.050126,-0.04689,0.057361,0.19121,0.012306
843,0.012306,-0.011043,0.040589,-0.063991,-0.12319,0.10307,-0.0093991
844,0.014279,-0.018278,0.024803,-0.071884,-0.26822,0.035985,-0.021567
845,0.020528,-0.016305,0.0040845,-0.067609,-0.37214,-0.0038083,-0.020581
846,0.029078,-0.0090702,-0.012359,-0.05281,-0.44318,-0.029789,-0.012688
847,0.036314,0.0021113,-0.020909,-0.03538,-0.4879,-0.058729,-0.004466
848,0.037629,0.015924,-0.022225,-0.022883,-0.50796,-0.098851,0.00079584
849,0.031052,0.03434,-0.020581,-0.021238,-0.50467,-0.14884,0.002769
850,0.019541,0.053086,-0.020252,-0.029789,-0.47968,-0.19554,0.0040845
851,0.0060577,0.063938,-0.021896,-0.043601,-0.43528,-0.22744,0.0047422
852,-0.0028217,0.064596,-0.025842,-0.059058,-0.36622,-0.23467,0.0014536
853,-0.0057815,0.059334,-0.031433,-0.071884,-0.2498,-0.21823,-0.0074258
854,-0.0051238,0.052757,-0.035051,-0.083394,-0.060373,-0.18304,-0.019265
855,-0.0024928,0.045522,-0.036366,-0.09326,0.19713,-0.13733,-0.029789
856,0.00079584,0.039602,-0.03242,-0.095233,0.47436,-0.089314,-0.035051
857,0.0073732,0.036314,-0.024198,-0.084052,0.68681,-0.041628,-0.032091
858,0.01691,0.035327,-0.011701,-0.067609,0.75949,0.0034268,-0.019594
859,0.029407,0.033025,0.002769,-0.054125,0.66873,0.047166,-0.0034794
860,0.038944,0.030065,0.017239,-0.048863,0.46779,0.093865,0.0086887
861,0.044535,0.027434,0.033025,-0.047877,0.25304,0.14648,0.014608
862,0.046508,0.026119,0.045522,-0.042944,0.1159,0.20798,0.013622
863,0.048153,0.027434,0.05473,-0.030447,0.093536,0.27869,0.010004
864,0.051441,0.028421,0.059663,-0.0097279,0.16786,0.35959,0.0050711
865,0.055388,0.030723,0.06624,0.012306,0.2777,0.44345,0.0034268
866,0.057361,0.032038,0.076106,0.026776,0.35531,0.51416,0.0037556
867,0.052099,0.036971,0.088932,0.031709,0.35564,0.55658,0.0030979
868,0.042562,0.049797,0.10176,0.031709,0.27474,0.56941,0.0011247
869,0.03434,0.0692,0.10702,0.031381,0.14385,0.5602,0.00046697
870,0.033025,0.09255,0.1011,0.030394,0.0040845,0.53257,0.0024402
871,0.035985,0.11261,0.088603,0.025461,-0.10641,0.48949,0.0090175
872,0.039602,0.11721,0.080711,0.01987,-0.17186,0.42471,0.023817
873,0.041575,0.099785,0.082355,0.01987,-0.19455,0.33558,0.041575
874,0.043549,0.058348,0.087288,0.026776,-0.18436,0.22574,0.058348
875,0.046508,-0.0061104,0.084328,0.037958,-0.1587,0.10538,0.072489
876,0.049468,-0.083065,0.068871,0.050784,-0.14193,-0.0087413,0.082684
877,0.054072,-0.1541,0.046508,0.058019,-0.15772,-0.098851,0.087288
878,0.060979,-0.20343,0.030394,0.055717,-0.22316,-0.15607,0.087288
879,0.068871,-0.2202,0.030723,0.045193,-0.33103,-0.186,0.083999
880,0.072489,-0.2054,0.055388,0.036314,-0.45567,-0.20146,0.073804
881,0.068871,-0.1666,0.10768,0.03434,-0.5642,-0.21099,0.058019
882,0.056703,-0.11628,0.17444,0.034011,-0.62405,-0.21363,0.04026
883,0.041247,-0.067609,0.23626,0.033683,-0.60991,-0.20442,0.025461
884,0.02579,-0.026171,0.27112,0.035656,-0.52079,-0.18238,0.021186
885,0.015266,0.0073732,0.26685,0.04026,-0.38332,-0.15706,0.026447
886,0.013293,0.038287,0.22147,0.042891,-0.24322,-0.14062,0.03434
887,0.018555,0.072818,0.13793,0.04026,-0.13536,-0.14325,0.039602
888,0.028092,0.11162,0.033025,0.036314,-0.069253,-0.16627,0.036642
889,0.036314,0.14254,-0.080763,0.039602,-0.0265,-0.20573,0.027105
890,0.042891,0.15076,-0.19225,0.052099,0.013293,-0.25375,0.014279
891,0.044206,0.1307,-0.28729,0.068543,0.059992,-0.2988,0.00079584
892,0.042562,0.090248,-0.3557,0.079066,0.10899,-0.32807,-0.0097279
893,0.036642,0.044206,-0.3899,0.07512,0.15569,-0.3409,-0.013017
894,0.029407,0.0054,-0.38793,0.061307,0.1991,-0.33531,-0.010386
895,0.023817,-0.021896,-0.35438,0.045193,0.24942,-0.31492,-0.0011774
896,0.021186,-0.036695,-0.30439,0.036642,0.3096,-0.29551,0.010662
897,0.025132,-0.038668,-0.25112,0.036642,0.3711,-0.29979,0.016581
898,0.03434,-0.028802,-0.20179,0.047824,0.42635,-0.33235,0.014937
899,0.041904,-0.0084125,-0.15969,0.07216,0.4691,-0.35997,0.0073732
900,0.042891,0.013293,-0.12384,0.10735,0.48555,-0.34188,0.0017824
901,0.034669,0.027763,-0.094247,0.14089,0.46022,-0.25967,0.002769
902,0.020199,0.026119,-0.075173,0.16063,0.37768,-0.13437,0.0096753
903,0.0030979,0.0096753,-0.069582,0.15964,0.24153,-0.0097279,0.012964
904,-0.0090702,-0.013017,-0.084052,0.1432,0.081697,0.079724,0.012306
905,-0.013017,-0.032091,-0.11793,0.11886,-0.060045,0.12511,0.012306
906,-0.0090702,-0.045246,-0.16397,0.094852,-0.15575,0.13793,0.016581
907,-0.00019077,-0.05281,-0.20902,0.073476,-0.19751,0.13892,0.021843
908,0.0083598,-0.056098,-0.2373,0.058676,-0.19389,0.14813,0.022172
909,0.0090175,-0.053467,-0.23467,0.048153,-0.16364,0.17016,0.018226
910,-0.0008485,-0.047219,-0.1962,0.041575,-0.13108,0.19483,0.013293
911,-0.014332,-0.039326,-0.12812,0.036971,-0.1051,0.20897,0.0093464
912,-0.025842,-0.031762,-0.045903,0.033683,-0.08175,0.21686,0.0040845
913,-0.032091,-0.0265,0.037958,0.033025,-0.051165,0.22541,-0.0018351
914,-0.033406,-0.021567,0.11261,0.035656,-0.01499,0.24186,-0.0041372
915,-0.031104,-0.016305,0.17148,0.038944,0.022172,0.26981,-0.0024928
916,-0.025185,-0.0097279,0.21292,0.039602,0.052428,0.31355,0.0030979
917,-0.016634,-0.0038083,0.23659,0.041575,0.060979,0.36781,0.012964
918,-0.0031506,0.0063866,0.24514,0.049797,0.044864,0.41879,0.024803
919,0.016581,0.025132,0.24317,0.060979,0.0093464,0.44312,0.038944
920,0.038287,0.053743,0.23758,0.070845,-0.022883,0.42602,0.050126
921,0.059005,0.085972,0.23298,0.074133,-0.027487,0.36617,0.059334
922,0.075778,0.11491,0.231,0.072489,0.0054,0.27935,0.06624
923,0.086959,0.13728,0.24383,0.065583,0.053743,0.19121,0.068214
924,0.088932,0.14813,0.29645,0.055388,0.087288,0.1182,0.062952
925,0.084328,0.14484,0.40563,0.040918,0.087617,0.0692,0.054072
926,0.073804,0.12938,0.55888,0.024803,0.056374,0.039273,0.046837
927,0.059992,0.11064,0.72693,0.0080309,0.0047422,0.017239,0.044864
928,0.046837,0.093865,0.85782,-0.0034794,-0.048534,-0.0077547,0.047495
929,0.036642,0.081039,0.90189,-0.0084125,-0.087341,-0.034393,0.047495
930,0.031381,0.076435,0.83875,-0.010057,-0.10641,-0.064978,0.045193
931,0.030723,0.076764,0.67201,-0.014003,-0.11102,-0.10017,0.041904
932,0.033025,0.078737,0.43391,-0.020909,-0.11727,-0.13996,0.03434
933,0.036642,0.077751,0.17214,-0.031104,-0.13996,-0.18271,0.023159
934,0.0373,0.075449,-0.081421,-0.042286,-0.18699,-0.22316,0.010333
935,0.033354,0.07216,-0.31064,-0.051165,-0.2521,-0.25408,-0.0018351
936,0.021843,0.067556,-0.50961,-0.056756,-0.31656,-0.26888,-0.013017
937,0.010991,0.06361,-0.66385,-0.057743,-0.36523,-0.26822,-0.024527
938,0.0054,0.061636,-0.74672,-0.051823,-0.39845,-0.26,-0.036695
939,0.0080309,0.073476,-0.74475,-0.045903,-0.42936,-0.25342,-0.045903
940,0.010004,0.11393,-0.66023,-0.045246,-0.47409,-0.25408,-0.047548
941,0.010991,0.18595,-0.51257,-0.053138,-0.54249,-0.26296,-0.043272
942,0.010004,0.27244,-0.33564,-0.062676,-0.63227,-0.28006,-0.037682
943,0.0080309,0.34775,-0.16693,-0.068924,-0.73093,-0.30341,-0.036366
944,0.0034268,0.39445,-0.032749,-0.069911,-0.81315,-0.3386,-0.038339
945,-0.0015062,0.40695,0.05769,-0.065307,-0.84966,-0.37642,-0.040641
946,-0.0067681,0.39182,0.10801,-0.048863,-0.82269,-0.4047,-0.043272
947,-0.014003,0.35992,0.13366,-0.022554,-0.73357,-0.40996,-0.041957
948,-0.020909,0.31881,0.1501,0.010662,-0.60827,-0.38793,-0.037682
949,-0.022883,0.26981,0.17016,0.043549,-0.48099,-0.33925,-0.029789
950,-0.018278,0.21259,0.19746,0.065583,-0.38069,-0.27216,-0.017621
951,-0.0077547,0.14813,0.22903,0.068214,-0.30933,-0.19093,-0.0054526
952,0.0030979,0.081368,0.26488,0.051113,-0.24947,-0.096878,0.002769
953,0.010662,0.015266,0.30401,0.023159,-0.16923,0.0090175,0.010004
954,0.014937,-0.05281,0.33657,-0.0024928,-0.038668,0.12379,0.019212
955,0.019212,-0.12286,0.34479,-0.016305,0.15109,0.23166,0.032696
956,0.021843,-0.18896,0.31059,-0.012688,0.3688,0.31454,0.045522
957,0.021514,-0.24618,0.23035,0.0057288,0.56316,0.35893,0.049797
958,0.017568,-0.28861,0.1205,0.028092,0.68977,0.36222,0.047495
959,0.014279,-0.31459,0.010004,0.048482,0.74042,0.34052,0.044864
960,0.010662,-0.32182,-0.069911,0.070187,0.74305,0.31782,0.048482
961,0.0086887,-0.31064,-0.099509,0.097483,0.73812,0.30796,0.053743
962,0.0070443,-0.284,-0.081421,0.13103,0.76344,0.31059,0.055059
963,0.0067154,-0.24881,-0.036037,0.1603,0.84927,0.32309,0.053743
964,0.010662,-0.21165,0.0090175,0.17838,1.0002,0.34052,0.05473
965,0.018884,-0.18008,0.036971,0.18365,1.189,0.35597,0.059663
966,0.032696,-0.15936,0.042562,0.1751,1.3551,0.35729,0.065583
967,0.050784,-0.14325,0.035327,0.15635,1.4169,0.33493,0.069858
968,0.071173,-0.12516,0.029736,0.13201,1.3196,0.28592,0.072818
969,0.086959,-0.10609,0.030394,0.10439,1.0667,0.21127,0.074462
970,0.090248,-0.087669,0.036314,0.077751,0.72003,0.11327,0.073147
971,0.080053,-0.074844,0.036642,0.06065,0.36123,0.0060577,0.069529
972,0.064267,-0.066951,0.02283,0.050784,0.057032,-0.090629,0.067885
973,0.052099,-0.062676,-0.0090702,0.044864,-0.16594,-0.16035,0.065912
974,0.048482,-0.055769,-0.048205,0.0373,-0.31656,-0.20409,0.063281
975,0.050126,-0.045246,-0.080763,0.027434,-0.4241,-0.2304,0.058348
976,0.05177,-0.037353,-0.093918,0.021843,-0.49645,-0.25342,0.053086
977,0.048482,-0.037353,-0.08175,0.022501,-0.52112,-0.27611,0.048153
978,0.040589,-0.048205,-0.048863,0.023817,-0.48428,-0.29058,0.044864
979,0.02875,-0.065307,-0.0057815,0.016253,-0.39121,-0.28861,0.046508
980,0.016581,-0.08471,0.036971,-0.00019077,-0.28006,-0.26361,0.055388
981,0.0077021,-0.10115,0.077422,-0.016305,-0.19389,-0.21691,0.065912
982,0.0017824,-0.10543,0.1205,-0.030118,-0.1587,-0.15443,0.071502
983,-0.0015062,-0.092603,0.17148,-0.039984,-0.17613,-0.078461,0.073476
984,0.00046697,-0.06432,0.23232,-0.044259,-0.23171,0.0086887,0.079066
985,0.0054,-0.031433,0.29382,-0.040641,-0.30078,0.099785,0.086959
986,0.010333,-0.0011774,0.34019,-0.034064,-0.35701,0.18167,0.08959
987,0.010004,0.021514,0.36091,-0.028473,-0.37411,0.24153,0.081039
988,0.0040845,0.03434,0.35005,-0.020909,-0.33432,0.26948,0.059992
989,-0.0047949,0.042233,0.29415,-0.0080836,-0.23533,0.26685,0.036314
990,-0.011043,0.05473,0.16654,0.013622,-0.085039,0.2435,0.01987
991,-0.011372,0.076106,-0.055112,0.039602,0.094852,0.207,0.021186
992,-0.0047949,0.10011,-0.35931,0.066898,0.27408,0.15865,0.035327
993,0.0037556,0.11985,-0.68654,0.090905,0.41287,0.10538,0.056703
994,0.0083598,0.13234,-0.94272,0.10406,0.48653,0.050784,0.074133
995,0.011977,0.13958,-1.0388,0.10406,0.48292,0.0037556,0.083013
996,0.016581,0.14616,-0.94338,0.097483,0.40793,-0.029789,0.082355
997,0.022172,0.15142,-0.70462,0.085644,0.28527,-0.048863,0.076764
998,0.024803,0.15536,-0.41917,0.0692,0.15043,-0.056098,0.067556
999,0.020857,0.15536,-0.17811,0.049468,0.026447,-0.057414,0.053415
1000,0.013951,0.15076,-0.023211,0.024803,-0.073857,-0.051165,0.037629
1001,0.0067154,0.13991,0.054072,-0.002164,-0.14062,-0.039984,0.01987
1002,0.0030979,0.12642,0.083013,-0.026829,-0.1735,-0.027816,0.00046697
1003,0.0057288,0.11162,0.089261,-0.041628,-0.17877,-0.010715,-0.012359
1004,0.010333,0.10274,0.085644,-0.044259,-0.16791,0.015924,-0.017621
1005,0.012635,0.10274,0.074133,-0.035708,-0.14752,0.057361,-0.014332
1006,0.010004,0.1113,0.05177,-0.021238,-0.11595,0.10768,-0.0034794
1007,0.0067154,0.12544,0.022172,-0.0074258,-0.068266,0.15602,0.010004
1008,0.0044134,0.13925,-0.0034794,-0.00019077,-0.0093991,0.18989,0.01987
1009,0.0037556,0.15043,-0.017621,0.0017824,0.05177,0.19417,0.021843
1010,0.0070443,0.15503,-0.022883,-0.0038083,0.10538,0.16457,0.017239
1011,0.010004,0.15043,-0.025185,-0.014332,0.14188,0.1113,0.0073732
1012,0.013293,0.13892,-0.024527,-0.024198,0.15832,0.045522,-0.007097
1013,0.015595,0.12248,-0.020581,-0.031104,0.15536,-0.030118,-0.026171
1014,0.015924,0.10735,-0.01499,-0.035708,0.13793,-0.10905,-0.045903
1015,0.015924,0.098469,-0.012688,-0.041957,0.11524,-0.18403,-0.06136
1016,0.018226,0.096167,-0.018278,-0.046232,0.096496,-0.24684,-0.064978
1017,0.020857,0.096496,-0.030775,-0.047548,0.081368,-0.28565,-0.054454
1018,0.022172,0.097483,-0.049521,-0.042615,0.065912,-0.29321,-0.036037
1019,0.02283,0.10077,-0.074515,-0.035708,0.050784,-0.27611,-0.016963
1020,0.022501,0.10209,-0.1051,-0.031762,0.032367,-0.24487,-0.0028217
1021,0.019541,0.098798,-0.14127,-0.031762,0.002769,-0.21132,0.0044134
1022,0.016581,0.090577,-0.17449,-0.036037,-0.056098,-0.17548,0.0057288
1023,0.016581,0.08367,-0.1814,-0.042944,-0.1518,-0.13897,0.0040845
1024,0.020857,0.080053,-0.12352,-0.045574,-0.27841,-0.10378,0.0021113
1025,0.029736,0.084986,0.023488,-0.035708,-0.41292,-0.071884,0.00079584
1026,0.039273,0.098141,0.23561,-0.010386,-0.52408,-0.042944,-0.0067681
1027,0.043549,0.11689,0.44674,0.024474,-0.58426,-0.018278,-0.014661
1028,0.042233,0.13892,0.59013,0.056374,-0.57735,-0.0054526,-0.019923
1029,0.039602,0.15898,0.63485,0.079395,-0.50566,-0.007097,-0.022883
1030,0.041247,0.17345,0.59045,0.088603,-0.39976,-0.021238,-0.028144
1031,0.043877,0.18134,0.49114,0.088932,-0.30374,-0.044917,-0.034064
1032,0.042891,0.18036,0.37307,0.08663,-0.24717,-0.068924,-0.040313
1033,0.038287,0.17082,0.26356,0.085972,-0.2373,-0.078132,-0.041299
1034,0.034669,0.15043,0.18266,0.088603,-0.25802,-0.063991,-0.034064
1035,0.036642,0.12313,0.13169,0.095181,-0.28992,-0.028144,-0.020581
1036,0.042562,0.092221,0.11064,0.098469,-0.31952,0.01691,-0.0038083
1037,0.045522,0.065254,0.1057,0.095181,-0.34846,0.059334,0.013951
1038,0.045851,0.047166,0.10702,0.085972,-0.39121,0.088932,0.026447
1039,0.044864,0.036642,0.10735,0.073804,-0.44646,0.10176,0.034998
1040,0.042233,0.032038,0.10242,0.060321,-0.49218,0.10176,0.04026
1041,0.033683,0.029736,0.09255,0.049468,-0.505,0.094852,0.042891
1042,0.01691,0.028092,0.080382,0.043877,-0.45633,0.08367,0.043549
1043,-0.0047949,0.026447,0.070516,0.042562,-0.32972,0.072818,0.043549
1044,-0.021238,0.021186,0.063281,0.044535,-0.12615,0.071502,0.044535
1045,-0.027487,0.01132,0.060979,0.049797,0.12346,0.083342,0.050126
1046,-0.02354,-0.0084125,0.062294,0.058348,0.3757,0.10669,0.058348
1047,-0.01499,-0.043601,0.062952,0.068871,0.59999,0.1307,0.067885
1048,-0.0087413,-0.096878,0.06065,0.076435,0.78679,0.14879,0.077093
1049,-0.0064392,-0.15344,0.05177,0.077751,0.93708,0.15734,0.082026
1050,-0.004466,-0.19488,0.033683,0.080711,1.0482,0.15668,0.080382
1051,-0.0031506,-0.20672,0.011977,0.09255,1.1143,0.14648,0.075778
1052,-0.00051963,-0.18633,-0.00051963,0.11491,1.1324,0.133,0.071502
1053,0.0093464,-0.14555,0.0047422,0.14451,1.0966,0.13201,0.068871
1054,0.023159,-0.10082,0.03434,0.17246,1.0157,0.15175,0.0692
1055,0.039602,-0.060045,0.078409,0.19121,0.91603,0.19055,0.074133
1056,0.054072,-0.027816,0.12017,0.19877,0.8256,0.23659,0.084328
1057,0.062294,-0.0074258,0.14188,0.19154,0.75292,0.26784,0.094523
1058,0.061307,0.0021113,0.13563,0.17049,0.6901,0.27047,0.10307
1059,0.052099,0.0047422,0.10472,0.13629,0.61578,0.23791,0.10439
1060,0.039273,0.0024402,0.064267,0.095839,0.52106,0.18134,0.093536
1061,0.027434,-0.0038083,0.02875,0.06065,0.41122,0.11689,0.074462
1062,0.017568,-0.011372,0.010333,0.036314,0.30007,0.056703,0.054401
1063,0.011648,-0.018607,0.010004,0.021514,0.20173,0.002769,0.039273
1064,0.0086887,-0.02354,0.026447,0.0083598,0.12182,-0.051165,0.029736
1065,0.0024402,-0.0265,0.050784,-0.002164,0.064267,-0.11168,0.023159
1066,-0.0064392,-0.027158,0.073147,-0.0090702,0.026119,-0.18107,0.020857
1067,-0.013017,-0.023211,0.084986,-0.010386,0.0001381,-0.25572,0.021186
1068,-0.013674,-0.014332,0.084657,-0.0057815,-0.030118,-0.32741,0.019541
1069,-0.0067681,-0.0028217,0.068214,0.0040845,-0.087998,-0.38102,0.015595
1070,0.0057288,0.010662,0.016581,0.012306,-0.19652,-0.39713,0.0096753
1071,0.015266,0.018555,-0.080763,0.017239,-0.36885,-0.36227,0.0070443
1072,0.019212,0.016581,-0.21198,0.015595,-0.58919,-0.26592,0.0063866
1073,0.01691,0.0057288,-0.34254,0.0021113,-0.81282,-0.10543,0.0054
1074,0.010991,-0.014003,-0.43298,-0.019265,-0.98087,0.10242,0.0057288
1075,0.0073732,-0.035708,-0.45896,-0.043272,-1.0365,0.31848,0.010333
1076,0.0090175,-0.052481,-0.42443,-0.062347,-0.93977,0.47765,0.017568
1077,0.012635,-0.057085,-0.35274,-0.067937,-0.69772,0.53685,0.021514
1078,0.015266,-0.050836,-0.27151,-0.060045,-0.3876,0.49574,0.019212
1079,0.016253,-0.036366,-0.1985,-0.04097,-0.1222,0.38689,0.015266
1080,0.015924,-0.024527,-0.13996,-0.014661,0.017239,0.25994,0.013622
1081,0.014608,-0.015976,-0.091287,0.0086887,0.014279,0.15536,0.013293
1082,0.017897,-0.007097,-0.048863,0.023488,-0.087012,0.091234,0.013622
1083,0.026447,0.0057288,-0.0080836,0.027105,-0.21889,0.062623,0.014608
1084,0.036642,0.021514,0.026776,0.02283,-0.31952,0.054401,0.013622
1085,0.044206,0.028421,0.049468,0.010991,-0.36359,0.052428,0.0067154
1086,0.050455,0.021514,0.056046,-0.0054526,-0.35274,0.049797,0.0001381
1087,0.057361,0.0037556,0.046837,-0.022554,-0.30275,0.055388,-0.00051963
1088,0.062623,-0.015648,0.030065,-0.036366,-0.23106,0.074133,-0.00051963
1089,0.063938,-0.028802,0.01987,-0.038339,-0.14555,0.11162,-0.0064392
1090,0.058348,-0.031433,0.024145,-0.0265,-0.05281,0.16687,-0.015976
1091,0.048482,-0.022225,0.044206,-0.0031506,0.045193,0.22179,-0.024198
1092,0.039602,-0.0097279,0.07512,0.019541,0.13958,0.25764,-0.02354
1093,0.03434,0.00079584,0.10932,0.030065,0.21456,0.26553,-0.010715
1094,0.034011,0.0083598,0.13793,0.025132,0.25238,0.2458,0.0083598
1095,0.034011,0.014937,0.15273,0.0083598,0.25008,0.20963,0.026447
1096,0.034011,0.023159,0.15076,-0.012359,0.22607,0.17246,0.038944
1097,0.031709,0.035656,0.13596,-0.034722,0.22179,0.14681,0.039602
1098,0.030723,0.047495,0.11064,-0.057085,0.26323,0.13333,0.033025
1099,0.030394,0.053086,0.084328,-0.076159,0.35268,0.12346,0.023817
1100,0.026776,0.048482,0.066898,-0.091945,0.46746,0.10965,0.013293
1101,0.019212,0.034669,0.063281,-0.10181,0.57072,0.09255,0.0050711
1102,0.011648,0.023488,0.07512,-0.10214,0.62564,0.074133,-0.0018351
1103,0.0073732,0.019212,0.099785,-0.089314,0.60591,0.049139,-0.0064392
1104,0.0093464,0.021843,0.12544,-0.068595,0.49771,0.020857,-0.0090702
1105,0.013622,0.027105,0.14056,-0.050507,0.32111,-0.0057815,-0.011372
1106,0.017239,0.033354,0.13464,-0.043272,0.11261,-0.025842,-0.011043
1107,0.019212,0.038944,0.10209,-0.050507,-0.083065,-0.038011,-0.011372
1108,0.021514,0.041247,0.046508,-0.068924,-0.23928,-0.051165,-0.011043
1109,0.026776,0.039273,-0.022554,-0.089314,-0.35405,-0.072213,-0.01203
1110,0.0373,0.031709,-0.093918,-0.10641,-0.44186,-0.1051,-0.015319
1111,0.048482,0.018226,-0.15509,-0.11891,-0.53131,-0.14423,-0.022554
1112,0.05473,0.0017824,-0.19356,-0.12023,-0.63786,-0.18304,-0.033735
1113,0.052428,-0.013345,-0.20146,-0.11332,-0.74244,-0.21823,-0.041299
1114,0.044864,-0.024198,-0.18205,-0.098851,-0.80263,-0.24355,-0.038997
1115,0.037629,-0.026171,-0.15015,-0.074515,-0.76514,-0.25276,-0.024856
1116,0.034011,-0.021238,-0.12089,-0.039655,-0.58853,-0.23829,-0.0061104
1117,0.03434,-0.0093991,-0.092274,0.0034268,-0.25835,-0.20113,0.013622
1118,0.036642,0.0034268,-0.059387,0.049797,0.18299,-0.15213,0.029407
1119,0.037958,0.014937,-0.018936,0.092221,0.65031,-0.10609,0.041575
1120,0.039273,0.023159,0.020199,0.12248,1.0292,-0.069911,0.047166
1121,0.042233,0.026776,0.047824,0.13464,1.2077,-0.04985,0.047495
1122,0.046508,0.02283,0.058676,0.12807,1.1331,-0.055112,0.046508
1123,0.050455,0.0096753,0.06065,0.10866,0.84434,-0.089643,0.044206
1124,0.053415,-0.012688,0.063938,0.081697,0.45365,-0.14687,0.039602
1125,0.053743,-0.035708,0.076764,0.058019,0.091892,-0.21297,0.036642
1126,0.052428,-0.056756,0.098798,0.045851,-0.1416,-0.27184,0.035327
1127,0.04618,-0.07287,0.12642,0.040589,-0.21428,-0.31689,0.033025
1128,0.036314,-0.078461,0.15109,0.034998,-0.16495,-0.3478,0.031381
1129,0.028421,-0.071555,0.16589,0.027105,-0.073528,-0.35931,0.030065
1130,0.021186,-0.05544,0.16457,0.017897,-0.002164,-0.3478,0.029078
1131,0.013622,-0.030775,0.14484,0.013622,0.028092,-0.30768,0.032696
1132,0.0073732,0.0050711,0.11228,0.017897,0.039602,-0.23665,0.042891
1133,0.0014536,0.050126,0.076764,0.028092,0.056374,-0.14325,0.056374
1134,-0.0047949,0.096825,0.044864,0.041247,0.090905,-0.043601,0.065254
1135,-0.010715,0.14352,0.02283,0.05473,0.13169,0.040918,0.063938
1136,-0.011043,0.19121,0.01132,0.067885,0.14912,0.089261,0.055059
1137,-0.0057815,0.23988,0.0093464,0.079395,0.12149,0.1011,0.041247
1138,-0.002164,0.28231,0.015266,0.089919,0.050455,0.088275,0.029736
1139,-0.0018351,0.30664,0.02579,0.096825,-0.049521,0.064267,0.020528
1140,-0.0024928,0.30335,0.033354,0.098469,-0.1541,0.045522,0.017568
1141,-0.0018351,0.26784,0.029078,0.091892,-0.22777,0.042562,0.021186
1142,0.0021113,0.20765,0.0044134,0.084328,-0.23237,0.058019,0.029736
1143,0.0093464,0.13728,-0.038339,0.079066,-0.13733,0.092221,0.04026
1144,0.014279,0.073147,-0.095891,0.082355,0.079724,0.14517,0.052099
1145,0.014608,0.029407,-0.16956,0.096167,0.40366,0.22081,0.063281
1146,0.012306,0.011648,-0.25375,0.11985,0.75916,0.30434,0.074791
1147,0.01132,0.014937,-0.32511,0.14912,1.0147,0.36979,0.081039
1148,0.013622,0.028092,-0.35175,0.17148,1.0634,0.38952,0.082026
1149,0.01987,0.039931,-0.31623,0.18069,0.87361,0.35071,0.076435
1150,0.025132,0.046508,-0.22481,0.17904,0.50988,0.26323,0.064596
1151,0.026119,0.044864,-0.10082,0.17904,0.096167,0.15076,0.052757
1152,0.023159,0.0373,0.023488,0.19351,-0.24191,0.04322,0.041247
1153,0.018884,0.027105,0.12215,0.22443,-0.42805,-0.033406,0.029078
1154,0.014608,0.020199,0.18595,0.26718,-0.4537,-0.070897,0.020528
1155,0.010662,0.01691,0.22574,0.30862,-0.36655,-0.080434,0.017568
1156,0.0090175,0.016581,0.25896,0.33624,-0.24421,-0.076817,0.019541
1157,0.0073732,0.015266,0.29151,0.3369,-0.14785,-0.072542,0.023817
1158,0.0073732,0.012635,0.32276,0.3096,-0.11102,-0.076159,0.023488
1159,0.010991,0.010662,0.34676,0.25896,-0.13108,-0.088985,0.020857
1160,0.018226,0.0054,0.36354,0.19483,-0.18238,-0.10115,0.014937
1161,0.023817,-0.0054526,0.37307,0.13136,-0.23467,-0.10674,0.010004
1162,0.024803,-0.020581,0.36979,0.07216,-0.27414,-0.10477,0.0070443
1163,0.021514,-0.035051,0.33756,0.018226,-0.30768,-0.11003,0.0086887
1164,0.012306,-0.048205,0.25665,-0.02946,-0.35405,-0.14555,0.012635
1165,0.00079584,-0.054454,0.11952,-0.075501,-0.43265,-0.21856,0.017239
1166,-0.0067681,-0.053467,-0.06432,-0.12121,-0.5494,-0.30834,0.021186
1167,-0.0067681,-0.048534,-0.27348,-0.15344,-0.6941,-0.3774,0.031381
1168,0.0034268,-0.041299,-0.48231,-0.1643,-0.84439,-0.38924,0.049139
1169,0.020528,-0.031433,-0.66417,-0.15739,-0.97693,-0.33202,0.065912
1170,0.036971,-0.021567,-0.77303,-0.13864,-1.0756,-0.22251,0.074791
1171,0.046837,-0.0077547,-0.75626,-0.11266,-1.1387,-0.097207,0.071173
1172,0.048482,0.0063866,-0.57966,-0.087012,-1.1696,0.00046697,0.054072
1173,0.041247,0.022172,-0.25539,-0.068595,-1.1713,0.040918,0.031381
1174,0.026776,0.036314,0.15372,-0.057743,-1.1446,0.020199,0.0054
1175,0.010991,0.046837,0.53817,-0.051494,-1.0897,-0.043272,-0.019594
1176,0.0017824,0.051441,0.79764,-0.045246,-0.99896,-0.11661,-0.038997
1177,0.0044134,0.048153,0.87624,-0.03538,-0.85623,-0.17087,-0.050836
1178,0.017897,0.039602,0.77692,-0.026171,-0.65069,-0.18567,-0.053467
1179,0.034669,0.031709,0.54639,-0.020252,-0.38003,-0.1564,-0.045574
1180,0.046837,0.023488,0.25468,-0.024856,-0.05281,-0.089972,-0.037024
1181,0.053415,0.0093464,-0.029131,-0.043601,0.32868,-0.0031506,-0.03242
1182,0.053086,-0.014661,-0.25375,-0.070568,0.75127,0.087946,-0.03242
1183,0.04618,-0.042286,-0.39089,-0.098522,1.1749,0.182,-0.032091
1184,0.035656,-0.062347,-0.43462,-0.11595,1.5494,0.28165,-0.025842
1185,0.022501,-0.070897,-0.39187,-0.1097,1.8375,0.38787,-0.014661
1186,0.01132,-0.069253,-0.2748,-0.077146,2.0286,0.50265,-0.0051238
1187,0.0090175,-0.055769,-0.11003,-0.025514,2.1296,0.63551,0.0001381
1188,0.01987,-0.03242,0.058348,0.030065,2.145,0.79369,0.0073732
1189,0.042233,-0.0051238,0.18069,0.076106,2.0759,0.95616,0.020528
1190,0.063938,0.021514,0.23232,0.10899,1.9224,1.0801,0.037629
1191,0.078409,0.039602,0.21752,0.13267,1.6806,1.1173,0.051113
1192,0.08367,0.04618,0.15405,0.14517,1.3551,1.0466,0.059005
1193,0.082355,0.040589,0.068543,0.14648,0.96405,0.88512,0.061636
1194,0.07512,0.027105,-0.0090702,0.13596,0.54803,0.67596,0.064596
1195,0.064925,0.013293,-0.046232,0.11426,0.17082,0.46549,0.070187
1196,0.054401,0.0057288,-0.010057,0.081697,-0.1176,0.28625,0.076435
1197,0.04618,0.01132,0.10143,0.043549,-0.30998,0.14024,0.081697
1198,0.038616,0.025132,0.24449,0.010333,-0.43397,0.01987,0.082355
1199,0.029407,0.042891,0.35433,-0.0093991,-0.5221,-0.080434,0.074791
1200,0.01987,0.061965,0.38491,-0.018278,-0.59314,-0.16035,0.059334
1201,0.0093464,0.071173,0.32506,-0.0265,-0.63458,-0.22053,0.039931
1202,0.002769,0.064925,0.18825,-0.04689,-0.62504,-0.26657,0.023817
1203,-0.00019077,0.049797,0.016253,-0.079119,-0.55269,-0.30341,0.01132
1204,-0.0028217,0.03434,-0.14259,-0.11266,-0.4343,-0.33333,-0.00051963
1205,-0.0064392,0.023817,-0.24651,-0.13733,-0.31196,-0.35175,-0.012359
1206,-0.014661,0.022172,-0.27512,-0.14785,-0.23467,-0.35701,-0.024527
1207,-0.027158,0.027434,-0.23138,-0.14325,-0.24289,-0.35405,-0.03242
1208,-0.038997,0.039602,-0.13141,-0.12845,-0.35997,-0.3432,-0.031433
1209,-0.045246,0.053415,-0.0057815,-0.11069,-0.5767,-0.32248,-0.019265
1210,-0.046232,0.066569,0.12313,-0.092274,-0.84966,-0.29223,0.0011247
1211,-0.041628,0.071502,0.24087,-0.069582,-1.1154,-0.26361,0.02283
1212,-0.036037,0.06624,0.34479,-0.038668,-1.3015,-0.23994,0.036314
1213,-0.031762,0.052757,0.4326,0.0093464,-1.3512,-0.21922,0.035985
1214,-0.033406,0.039602,0.50166,0.067556,-1.2436,-0.19422,0.025461
1215,-0.04097,0.029407,0.54606,0.12412,-0.99995,-0.16956,0.014608
1216,-0.048534,0.024803,0.55625,0.1672,-0.68522,-0.15015,0.0067154
1217,-0.050179,0.026447,0.52961,0.1922,-0.38793,-0.14259,0.0001381
1218,-0.043272,0.031381,0.46154,0.19417,-0.17285,-0.15147,-0.0074258
1219,-0.032749,0.036971,0.33262,0.18036,-0.066951,-0.17613,-0.015976
1220,-0.022883,0.042233,0.11952,0.15931,-0.077146,-0.20902,-0.016634
1221,-0.016963,0.051113,-0.18074,0.14188,-0.19554,-0.24191,-0.0093991
1222,-0.015648,0.06065,-0.52835,0.13103,-0.3968,-0.26493,0.00046697
1223,-0.015976,0.063938,-0.84374,0.12642,-0.61912,-0.27085,0.0096753
1224,-0.018278,0.05769,-1.0411,0.12116,-0.77007,-0.25177,0.01691
1225,-0.020581,0.045193,-1.072,0.11393,-0.77007,-0.21001,0.025132
1226,-0.021896,0.032696,-0.94963,0.10669,-0.60892,-0.1564,0.03434
1227,-0.02354,0.024474,-0.72995,0.094194,-0.33794,-0.10609,0.039602
1228,-0.022554,0.023817,-0.48034,0.075449,-0.034064,-0.073528,0.036971
1229,-0.016963,0.027434,-0.25868,0.049797,0.23626,-0.057743,0.031709
1230,-0.007097,0.031052,-0.097864,0.023159,0.44214,-0.048534,0.027763
1231,0.0060577,0.033025,-0.0028217,-0.0008485,0.57664,-0.034393,0.024145
1232,0.016253,0.035985,0.042891,-0.016634,0.64669,-0.01203,0.023817
1233,0.01987,0.037958,0.061965,-0.019594,0.65722,0.021514,0.028092
1234,0.016253,0.041247,0.070187,-0.010057,0.60788,0.064596,0.035985
1235,0.010333,0.043549,0.073476,0.0080309,0.50857,0.11886,0.043877
1236,0.0034268,0.047495,0.075449,0.026119,0.37998,0.18069,0.045522
1237,-0.0024928,0.050126,0.076435,0.04026,0.24778,0.23495,0.04322
1238,-0.0084125,0.045522,0.076106,0.04322,0.13991,0.27376,0.041247
1239,-0.010057,0.036314,0.070187,0.037629,0.1034,0.29711,0.046837
1240,-0.0061104,0.029078,0.057032,0.031052,0.17806,0.32276,0.062623
1241,0.0030979,0.029407,0.037958,0.028092,0.36288,0.36419,0.084657
1242,0.015595,0.034669,0.0096753,0.032038,0.61084,0.41944,0.10472
1243,0.030723,0.039602,-0.02946,0.044206,0.83842,0.47141,0.11721
1244,0.047495,0.04322,-0.077803,0.058676,0.96372,0.49607,0.12149
1245,0.062623,0.044864,-0.13536,0.067885,0.93412,0.47141,0.11853
1246,0.075449,0.045851,-0.20047,0.067227,0.75555,0.38689,0.1113
1247,0.087617,0.042562,-0.26986,0.055388,0.48094,0.2606,0.10176
1248,0.097812,0.034669,-0.34221,0.026447,0.18726,0.12478,0.089919
1249,0.10176,0.028092,-0.41884,-0.01203,-0.058071,0.011648,0.074462
1250,0.097483,0.022172,-0.50007,-0.050179,-0.22251,-0.055769,0.053415
1251,0.087288,0.017897,-0.57768,-0.07879,-0.30176,-0.07287,0.034998
1252,0.075778,0.016253,-0.64444,-0.097864,-0.3136,-0.050836,0.022501
1253,0.064925,0.016581,-0.68522,-0.11003,-0.29058,-0.011372,0.019541
1254,0.058348,0.017239,-0.67667,-0.11694,-0.26032,0.025132,0.023159
1255,0.057032,0.017897,-0.58557,-0.11891,-0.24289,0.046837,0.029407
1256,0.062294,0.023159,-0.38628,-0.11431,-0.23895,0.050455,0.041247
1257,0.073147,0.034669,-0.056098,-0.1051,-0.23336,0.042233,0.058676
1258,0.088603,0.05769,0.40596,-0.092931,-0.20047,0.026776,0.074462
1259,0.10274,0.087617,0.9384,-0.075173,-0.12187,0.0024402,0.082355
1260,0.10998,0.11426,1.4103,-0.049192,-0.00051963,-0.036366,0.076435
1261,0.11393,0.12905,1.6839,-0.027158,0.13629,-0.087998,0.059663
1262,0.1182,0.133,1.7024,-0.021896,0.256,-0.14555,0.042233
1263,0.11952,0.12807,1.5034,-0.036366,0.33591,-0.19258,0.029078
1264,0.1136,0.11985,1.1831,-0.059387,0.36715,-0.21659,0.022501
1265,0.10011,0.10965,0.85092,-0.077475,0.35762,-0.21461,0.021843
1266,0.088603,0.09551,0.5819,-0.080106,0.33229,-0.19981,0.027434
1267,0.08367,0.077093,0.40267,-0.06728,0.32276,-0.19356,0.034669
1268,0.086301,0.059992,0.29743,-0.045574,0.34775,-0.21527,0.039931
1269,0.091234,0.047495,0.23922,-0.025842,0.39774,-0.26559,0.04026
1270,0.09255,0.038616,0.20404,-0.012359,0.43819,-0.32676,0.035985
1271,0.084657,0.037629,0.17838,-0.0041372,0.43161,-0.37707,0.026776
1272,0.0692,0.0373,0.15701,0.0030979,0.36222,-0.39352,0.014937
1273,0.049797,0.038616,0.13464,0.0086887,0.24218,-0.36227,0.0037556
1274,0.033683,0.044206,0.11393,0.014279,0.097154,-0.2817,-0.0038083
1275,0.022501,0.058348,0.096825,0.01691,-0.044259,-0.16331,-0.010057
1276,0.01691,0.075778,0.07808,0.013622,-0.15213,-0.027816,-0.012688
1277,0.013293,0.088275,0.052099,0.0096753,-0.21691,0.10242,-0.014661
1278,0.0090175,0.08959,0.012635,0.015266,-0.24783,0.2093,-0.014661
1279,0.0050711,0.07808,-0.034393,0.029078,-0.26723,0.28658,-0.012688
1280,0.0030979,0.059334,-0.077146,0.049139,-0.30176,0.34084,-0.011701
1281,0.0014536,0.036971,-0.10773,0.064925,-0.35175,0.38162,-0.0093991
1282,-0.0011774,0.019541,-0.12878,0.074791,-0.39648,0.40695,-0.0061104
1283,-0.0087413,0.0060577,-0.14818,0.079724,-0.40305,0.41155,-0.0034794
1284,-0.018607,-0.0028217,-0.16693,0.083013,-0.35109,0.38689,-0.0077547
1285,-0.025514,-0.0067681,-0.18403,0.088932,-0.24881,0.32407,-0.01499
1286,-0.027816,-0.010715,-0.19916,0.1011,-0.11135,0.22574,-0.024198
1287,-0.023869,-0.018278,-0.21297,0.11985,0.046837,0.10834,-0.027158
1288,-0.016634,-0.02946,-0.22349,0.14155,0.20798,-0.004466,-0.022225
1289,-0.0093991,-0.04097,-0.23204,0.16457,0.35268,-0.097864,-0.0087413
1290,-0.0008485,-0.050507,-0.23862,0.18628,0.46614,-0.15706,0.0070443
1291,0.0063866,-0.057414,-0.23763,0.20173,0.53948,-0.17844,0.021843
1292,0.01132,-0.062676,-0.22744,0.20601,0.55954,-0.16495,0.038287
1293,0.013622,-0.069253,-0.20212,0.19976,0.5089,-0.14062,0.05177
1294,0.012306,-0.07583,-0.16561,0.18562,0.38853,-0.12187,0.059005
1295,0.0067154,-0.084381,-0.1245,0.16457,0.22607,-0.11529,0.057361
1296,0.0001381,-0.094247,-0.080763,0.13991,0.054401,-0.11661,0.048153
1297,-0.0041372,-0.10115,-0.036366,0.11426,-0.10937,-0.1199,0.036314
1298,-0.0051238,-0.097864,0.012635,0.090905,-0.25835,-0.12023,0.029736
1299,-0.0018351,-0.08471,0.063938,0.069529,-0.38003,-0.11924,0.024474
1300,0.0001381,-0.063333,0.11228,0.047824,-0.44613,-0.11036,0.019212
1301,0.0021113,-0.04097,0.14056,0.026447,-0.41785,-0.088327,0.017239
1302,0.0024402,-0.023211,0.14024,0.0050711,-0.26164,-0.04985,0.020199
1303,0.0030979,-0.0093991,0.11721,-0.0061104,0.0086887,-0.0011774,0.02579
1304,0.0037556,-0.0008485,0.083013,-0.0015062,0.32177,0.041247,0.030065
1305,0.0057288,-0.0034794,0.05177,0.017568,0.57467,0.061307,0.027763
1306,0.010991,-0.013674,0.028092,0.044206,0.6855,0.055717,0.024145
1307,0.016253,-0.0265,0.015266,0.070845,0.63946,0.033025,0.020528
1308,0.018884,-0.031433,0.0093464,0.09255,0.49048,0.0077021,0.015595
1309,0.017239,-0.024527,0.0047422,0.10669,0.31322,-0.0031506,0.010662
1310,0.010662,-0.011701,-0.0047949,0.11097,0.16063,0.0073732,0.0096753
1311,0.00079584,-0.0018351,-0.031433,0.10242,0.047824,0.036314,0.013951
1312,-0.0067681,0.0037556,-0.075173,0.087288,-0.040313,0.072818,0.018555
1313,-0.0084125,0.0060577,-0.12516,0.072818,-0.12911,0.10373,0.022172
1314,0.0001381,0.0086887,-0.17186,0.066898,-0.24257,0.11952,0.024803
1315,0.013622,0.0096753,-0.20738,0.071173,-0.37181,0.12412,0.023817
1316,0.024145,0.010004,-0.22974,0.079066,-0.4685,0.12478,0.018884
1317,0.026119,0.011977,-0.24092,0.081697,-0.45929,0.12708,0.0096753
1318,0.020528,0.019541,-0.24322,0.066569,-0.31196,0.13201,0.0011247
1319,0.013293,0.029407,-0.23369,0.031709,-0.069911,0.14155,-0.0061104
1320,0.0070443,0.039273,-0.21823,-0.011372,0.16918,0.15043,-0.014661
1321,0.00046697,0.047824,-0.20113,-0.047548,0.31782,0.14813,-0.025185
1322,0.0001381,0.053743,-0.18732,-0.064649,0.3369,0.12741,-0.032091
1323,0.0060577,0.055059,-0.18205,-0.062347,0.24745,0.094194,-0.031762
1324,0.014937,0.054401,-0.18929,-0.050836,0.1011,0.053086,-0.025185
1325,0.023159,0.052757,-0.20672,-0.036037,-0.054783,0.0080309,-0.015319
1326,0.026119,0.050455,-0.22086,-0.023869,-0.18962,-0.035708,-0.0057815
1327,0.020199,0.048153,-0.21231,-0.014003,-0.28696,-0.071226,0.0001381
1328,0.010333,0.050126,-0.1643,-0.0087413,-0.34583,-0.095562,0.0034268
1329,-0.0008485,0.059992,-0.079119,-0.011043,-0.37609,-0.10543,0.0034268
1330,-0.0090702,0.073804,0.023488,-0.019265,-0.39253,-0.10543,-0.0034794
1331,-0.014332,0.083999,0.11623,-0.028473,-0.41029,-0.098522,-0.012688
1332,-0.018278,0.087288,0.17641,-0.038668,-0.43298,-0.088985,-0.018607
1333,-0.022554,0.085972,0.19647,-0.044588,-0.4537,-0.080434,-0.020909
1334,-0.024198,0.082684,0.18299,-0.041957,-0.45765,-0.07583,-0.016963
1335,-0.021567,0.082684,0.15405,-0.032749,-0.43166,-0.071555,-0.0090702
1336,-0.015648,0.084328,0.12938,-0.021238,-0.37839,-0.068595,-0.0054526
1337,-0.007097,0.083999,0.12182,-0.013017,-0.31294,-0.062018,-0.0087413
1338,-0.0008485,0.080382,0.13596,-0.0054526,-0.2475,-0.045574,-0.014661
1339,0.002769,0.075449,0.16753,0.0083598,-0.17318,-0.01499,-0.014332
1340,0.0054,0.067885,0.20502,0.029407,-0.077146,0.030723,0.0001381
1341,0.010004,0.057361,0.23429,0.05769,0.042233,0.091892,0.027763
1342,0.014937,0.042233,0.24745,0.08663,0.17641,0.16753,0.055059
1343,0.017897,0.027763,0.24942,0.11064,0.30664,0.25468,0.070516
1344,0.01987,0.019541,0.2458,0.12938,0.41352,0.35005,0.069858
1345,0.023817,0.020857,0.24317,0.14484,0.48357,0.44838,0.058348
1346,0.029078,0.03434,0.23988,0.15701,0.51284,0.53225,0.041904
1347,0.032038,0.0692,0.22771,0.16194,0.49475,0.57697,0.027434
1348,0.031052,0.12971,0.19285,0.15273,0.42767,0.56349,0.01691
1349,0.030394,0.20173,0.11754,0.12807,0.31782,0.48588,0.011977
1350,0.032038,0.2629,-0.0061104,0.092221,0.18397,0.34972,0.011977
1351,0.037629,0.29316,-0.16035,0.050455,0.050126,0.18069,0.015595
1352,0.044206,0.28527,-0.3113,0.012306,-0.053467,0.018226,0.018884
1353,0.047166,0.24383,-0.43397,-0.020909,-0.10806,-0.10905,0.01987
1354,0.045522,0.18365,-0.51322,-0.048863,-0.10872,-0.19455,0.014608
1355,0.04026,0.12313,-0.55565,-0.067937,-0.072542,-0.24487,0.0060577
1356,0.032696,0.071831,-0.56782,-0.079119,-0.015976,-0.2646,-0.0008485
1357,0.021843,0.034011,-0.5517,-0.083394,0.049797,-0.26098,-0.0047949
1358,0.010662,0.0083598,-0.50204,-0.088656,0.12281,-0.23533,-0.0011774
1359,-0.0011774,-0.010715,-0.41391,-0.092274,0.19384,-0.19488,0.002769
1360,-0.010057,-0.023869,-0.29058,-0.092603,0.25074,-0.14193,0.0057288
1361,-0.016305,-0.027816,-0.13963,-0.085367,0.28691,-0.080106,0.0017824
1362,-0.018936,-0.02354,0.016253,-0.066622,0.30401,-0.018278,-0.0031506
1363,-0.01795,-0.01499,0.15372,-0.037353,0.31388,0.033354,-0.0054526
1364,-0.010386,-0.0090702,0.24942,-0.00051963,0.31782,0.071173,-0.00019077
1365,0.0011247,-0.0077547,0.29743,0.036314,0.29776,0.094852,0.010662
1366,0.013293,-0.01499,0.3027,0.065254,0.22475,0.098141,0.025132
1367,0.025461,-0.027158,0.27803,0.075778,0.081368,0.065254,0.038616
1368,0.035985,-0.047877,0.2389,0.068871,-0.11628,0.002769,0.04618
1369,0.04322,-0.078132,0.19647,0.050784,-0.32544,-0.053467,0.05177
1370,0.046508,-0.11365,0.1603,0.032038,-0.49481,-0.054783,0.059334
1371,0.04618,-0.1541,0.13103,0.018884,-0.59182,0.023817,0.06624
1372,0.044864,-0.19948,0.10176,0.0073732,-0.603,0.1695,0.071173
1373,0.045522,-0.2521,0.068871,-0.0031506,-0.53263,0.33887,0.071831
1374,0.045522,-0.30571,0.033683,-0.0061104,-0.407,0.48061,0.070187
1375,0.045522,-0.34945,0.0057288,-0.0028217,-0.26789,0.5556,0.067885
1376,0.038287,-0.3728,-0.0093991,0.00079584,-0.15081,0.5477,0.064267
1377,0.028092,-0.36984,-0.010715,-0.0031506,-0.058729,0.46976,0.058019
1378,0.015595,-0.3455,0.00046697,-0.013017,0.022501,0.34907,0.051113
1379,0.0034268,-0.31261,0.018555,-0.025842,0.11064,0.22179,0.038944
1380,-0.002164,-0.27874,0.036971,-0.037353,0.21028,0.11458,0.025132
1381,-0.0011774,-0.24585,0.053743,-0.047548,0.31421,0.04026,0.013622
1382,0.0030979,-0.20672,0.0692,-0.055112,0.41089,0.0054,0.0080309
1383,0.0037556,-0.16199,0.08367,-0.057414,0.49212,0.0083598,0.0090175
1384,-0.0061104,-0.11957,0.10143,-0.050179,0.53553,0.044206,0.014279
1385,-0.024198,-0.086683,0.12807,-0.036037,0.52337,0.10472,0.017239
1386,-0.040641,-0.065635,0.1603,-0.018607,0.45365,0.17312,0.015266
1387,-0.046561,-0.054454,0.18891,-0.0008485,0.34709,0.22771,0.012635
1388,-0.038668,-0.047548,0.20831,0.01691,0.24054,0.24153,0.013293
1389,-0.022883,-0.037024,0.21752,0.032367,0.16753,0.20239,0.018226
1390,-0.0077547,-0.024856,0.22278,0.044864,0.14221,0.11656,0.02579
1391,0.0024402,-0.0090702,0.2264,0.05473,0.16589,0.0044134,0.03434
1392,0.010004,0.0083598,0.23002,0.065254,0.22245,-0.11069,0.042562
1393,0.01691,0.031052,0.23758,0.078409,0.28625,-0.21099,0.050784
1394,0.021843,0.059992,0.25074,0.10274,0.33887,-0.28828,0.063938
1395,0.026447,0.094194,0.27047,0.13563,0.36748,-0.33432,0.080711
1396,0.029078,0.13333,0.29612,0.17279,0.36354,-0.34287,0.099456
1397,0.033025,0.16753,0.32637,0.21028,0.3244,-0.30637,0.11656
1398,0.038944,0.19318,0.34907,0.24251,0.28888,-0.21395,0.13136
1399,0.048482,0.21357,0.34512,0.26323,0.32473,-0.062347,0.14616
1400,0.061965,0.23594,0.30237,0.27441,0.45595,0.12313,0.16194
1401,0.077751,0.2629,0.231,0.27672,0.62499,0.29349,0.17608
1402,0.09255,0.28198,0.15207,0.26718,0.73943,0.39873,0.182
1403,0.1057,0.27441,0.085315,0.24745,0.74141,0.41846,0.17871
1404,0.11458,0.23659,0.029736,0.21916,0.62367,0.35959,0.16523
1405,0.1159,0.18233,-0.029131,0.18266,0.42306,0.24153,0.1432
1406,0.10702,0.13037,-0.11168,0.14221,0.18693,0.095839,0.11787
1407,0.091563,0.095839,-0.22842,0.10044,-0.043272,-0.047548,0.091234
1408,0.07808,0.085644,-0.36951,0.056703,-0.23698,-0.1666,0.064596
1409,0.066569,0.093208,-0.50862,0.013293,-0.3797,-0.25276,0.04026
1410,0.059663,0.10472,-0.61978,-0.025842,-0.4708,-0.31196,0.02283
1411,0.056374,0.11458,-0.68424,-0.053138,-0.51881,-0.34978,0.0077021
1412,0.053086,0.12215,-0.69969,-0.067609,-0.53493,-0.37773,-0.0067681
1413,0.05177,0.13201,-0.67207,-0.073199,-0.53296,-0.39746,-0.021238
1414,0.053743,0.15372,-0.61517,-0.074186,-0.52605,-0.40864,-0.038339
1415,0.063938,0.19022,-0.54677,-0.069253,-0.5152,-0.41062,-0.057743
1416,0.077751,0.23298,-0.47869,-0.058729,-0.49547,-0.40338,-0.07287
1417,0.088932,0.26685,-0.41128,-0.046232,-0.46751,-0.39154,-0.073857
1418,0.093536,0.28066,-0.32741,-0.039326,-0.43495,-0.37313,-0.061689
1419,0.094523,0.26915,-0.2054,-0.042615,-0.40503,-0.34846,-0.046232
1420,0.091563,0.23758,-0.023211,-0.053467,-0.39286,-0.32215,-0.039984
1421,0.084328,0.19812,0.21588,-0.064649,-0.39911,-0.30012,-0.044259
1422,0.071173,0.16095,0.48423,-0.071555,-0.41029,-0.28663,-0.050836
1423,0.050784,0.12807,0.72693,-0.071226,-0.41391,-0.28236,-0.05281
1424,0.030394,0.10242,0.88742,-0.066951,-0.40207,-0.27808,-0.045574
1425,0.015266,0.083013,0.92853,-0.06432,-0.36984,-0.26427,-0.031104
1426,0.0086887,0.072818,0.85092,-0.068924,-0.32676,-0.23796,-0.015976
1427,0.0070443,0.070187,0.68813,-0.084052,-0.27348,-0.20047,-0.0024928
1428,0.0083598,0.07216,0.49114,-0.10576,-0.21823,-0.15542,0.0050711
1429,0.010004,0.074133,0.30335,-0.12483,-0.17022,-0.10872,0.0086887
1430,0.012306,0.074462,0.15799,-0.13108,-0.14292,-0.066293,0.0083598
1431,0.012964,0.077751,0.061307,-0.12483,-0.14391,-0.031104,0.0030979
1432,0.0096753,0.084986,0.0017824,-0.10872,-0.1689,0.00046697,-0.0028217
1433,0.0060577,0.089919,-0.038339,-0.085696,-0.21099,0.034011,-0.0054526
1434,0.0021113,0.088932,-0.069911,-0.061031,-0.26756,0.072818,-0.0041372
1435,-0.00019077,0.084328,-0.094905,-0.040313,-0.33662,0.11787,0.0011247
1436,-0.00019077,0.076106,-0.11233,-0.025842,-0.41456,0.16786,0.0096753
1437,0.0014536,0.065583,-0.11825,-0.016305,-0.48955,0.21752,0.017897
1438,0.0037556,0.050126,-0.10707,-0.011043,-0.5517,0.25764,0.025132
1439,0.0024402,0.033354,-0.065964,-0.0097279,-0.58459,0.28165,0.027763
1440,-0.0028217,0.019212,0.020199,-0.0097279,-0.57702,0.28198,0.026447
1441,-0.012359,0.010004,0.1455,-0.0084125,-0.52671,0.25238,0.023159
1442,-0.020909,0.0030979,0.27737,-0.0087413,-0.44022,0.19417,0.018555
1443,-0.025842,-0.0041372,0.36913,-0.010386,-0.32544,0.11853,0.010004
1444,-0.025185,-0.011372,0.38952,-0.012359,-0.20244,0.043549,0.0034268
1445,-0.019923,-0.017292,0.33657,-0.0090702,-0.097536,-0.016963,0.0054
1446,-0.0097279,-0.017621,0.23265,0.0017824,-0.042944,-0.059387,0.015924
1447,-0.0015062,-0.012688,0.11294,0.012306,-0.059387,-0.093589,0.027434
1448,0.0044134,-0.0024928,0.012635,0.020857,-0.12615,-0.12483,0.032038
1449,0.0063866,0.0067154,-0.038668,0.025132,-0.19817,-0.15213,0.031052
1450,0.0040845,0.01132,-0.03242,0.022172,-0.23336,-0.17844,0.030394
1451,-0.0024928,0.010662,0.024145,0.013293,-0.2202,-0.20771,0.02875
1452,-0.01203,0.0086887,0.11557,0.0080309,-0.17613,-0.23994,0.022501
1453,-0.024527,0.01132,0.22212,0.0083598,-0.13536,-0.26986,0.0090175
1454,-0.038997,0.018226,0.33065,0.011977,-0.12812,-0.29551,-0.0064392
1455,-0.04985,0.029736,0.43556,0.015924,-0.16726,-0.31229,-0.020252
1456,-0.053138,0.045522,0.53521,0.021186,-0.23533,-0.31788,-0.030118
1457,-0.048205,0.062623,0.62268,0.031381,-0.30604,-0.30998,-0.034064
1458,-0.040641,0.077093,0.69076,0.047824,-0.34451,-0.28696,-0.029131
1459,-0.031433,0.085972,0.72496,0.067227,-0.32643,-0.25276,-0.017621
1460,-0.022225,0.085972,0.71279,0.080382,-0.24487,-0.21757,-0.00051963
1461,-0.014332,0.074133,0.64143,0.082026,-0.11365,-0.18765,0.018555
1462,-0.0074258,0.053743,0.50331,0.074133,0.037958,-0.16561,0.03434
1463,-0.0047949,0.028092,0.29776,0.066898,0.19055,-0.14391,0.043877
1464,-0.0047949,0.0037556,0.023817,0.065254,0.33657,-0.11102,0.048482
1465,-0.0031506,-0.013345,-0.31459,0.071173,0.4816,-0.04985,0.049797
1466,0.0034268,-0.019594,-0.69936,0.086959,0.63419,0.05473,0.052757
1467,0.013951,-0.018936,-1.0802,0.11294,0.81211,0.20897,0.062623
1468,0.01987,-0.014332,-1.3814,0.14583,1.0397,0.40201,0.081697
1469,0.021514,-0.01203,-1.537,0.18332,1.3304,0.59901,0.10669
1470,0.020528,-0.017621,-1.5212,0.21324,1.6517,0.75719,0.1307
1471,0.018226,-0.032091,-1.3564,0.23199,1.9276,0.84829,0.14944
1472,0.015924,-0.049521,-1.096,0.23725,2.0759,0.86309,0.15832
1473,0.014608,-0.065307,-0.80493,0.23429,2.0335,0.8108,0.15569
1474,0.011977,-0.073199,-0.53756,0.2264,1.7951,0.71279,0.14188
1475,0.0077021,-0.073857,-0.32643,0.21588,1.4162,0.59078,0.12116
1476,0.0030979,-0.069582,-0.1814,0.20042,0.97983,0.46318,0.097483
1477,-0.0031506,-0.065635,-0.095891,0.17575,0.5648,0.34808,0.075449
1478,-0.0090702,-0.06136,-0.057085,0.14616,0.21653,0.25731,0.055388
1479,-0.01795,-0.053796,-0.053796,0.11491,-0.054783,0.19417,0.032696
1480,-0.028144,-0.042615,-0.063333,0.087617,-0.25868,0.1478,0.0077021
1481,-0.034064,-0.030775,-0.065964,0.065583,-0.4047,0.1011,-0.013345
1482,-0.031433,-0.019265,-0.051165,0.048482,-0.50402,0.043877,-0.021567
1483,-0.020909,-0.011043,-0.016963,0.035985,-0.56486,-0.02354,-0.017621
1484,-0.0067681,-0.0064392,0.032696,0.032367,-0.59676,-0.096549,-0.010715
1485,0.0086887,-0.0064392,0.094523,0.032367,-0.60531,-0.16134,-0.0015062
1486,0.019541,-0.0077547,0.16457,0.031709,-0.58952,-0.20376,0.0083598
1487,0.024474,-0.0080836,0.23561,0.026776,-0.55104,-0.21626,0.017897
1488,0.020857,-0.0090702,0.2925,0.017568,-0.49218,-0.2008,0.02875
1489,0.010662,-0.013017,0.31782,0.0011247,-0.41456,-0.17219,0.036971
1490,0.00079584,-0.019265,0.31059,-0.021238,-0.31557,-0.14423,0.039931
1491,-0.0031506,-0.025185,0.28231,-0.042615,-0.18896,-0.12812,0.035327
1492,-0.0018351,-0.028144,0.2458,-0.058071,-0.02946,-0.12582,0.024145
1493,0.0017824,-0.026829,0.20864,-0.063662,0.15175,-0.1393,0.01132
1494,0.0093464,-0.018278,0.17279,-0.062018,0.32506,-0.16528,0.0034268
1495,0.018555,-0.0057815,0.12708,-0.057743,0.44806,-0.18929,0.0014536
1496,0.029407,0.0037556,0.066569,-0.059716,0.48028,-0.19981,0.0014536
1497,0.041247,0.0080309,-0.007097,-0.064978,0.39774,-0.18633,0.002769
1498,0.053415,0.0054,-0.091616,-0.069582,0.20864,-0.14654,0.0063866
1499,0.061307,-0.004466,-0.18797,-0.071884,-0.043601,-0.068595,0.0090175
1500,0.063281,-0.016963,-0.29584,-0.071884,-0.29387,0.062294,0.0060577
1501,0.061307,-0.02354,-0.40503,-0.06728,-0.48231,0.2412,-0.0018351
1502,0.058348,-0.023211,-0.49283,-0.0584,-0.579,0.42964,-0.0084125
1503,0.056374,-0.013017,-0.54249,-0.047548,-0.58755,0.57007,-0.013674
1504,0.055059,0.0050711,-0.54973,-0.038011,-0.52177,0.6194,-0.017292
1505,0.055717,0.026119,-0.52079,-0.028144,-0.38694,0.57631,-0.016963
1506,0.058019,0.043549,-0.45074,-0.015648,-0.20179,0.46647,-0.011043
1507,0.059992,0.05177,-0.32051,-0.00051963,-0.0024928,0.33427,-0.0024928
1508,0.060321,0.046837,-0.10806,0.013951,0.15635,0.22278,0.0014536
1509,0.059992,0.035985,0.19877,0.022501,0.21357,0.1524,0.0001381
1510,0.056703,0.02283,0.58223,0.023488,0.14155,0.12445,-0.0041372
1511,0.053086,0.0096753,0.96964,0.016581,-0.037024,0.12511,-0.011043
1512,0.051113,-0.0034794,1.2574,0.0080309,-0.25737,0.14287,-0.016634
1513,0.04881,-0.01203,1.3613,-0.00051963,-0.45304,0.1774,-0.018936
1514,0.044864,-0.016305,1.2613,-0.0074258,-0.58097,0.22903,-0.015648
1515,0.037958,-0.016963,1.0094,-0.01499,-0.62701,0.29447,-0.0074258
1516,0.02579,-0.013345,0.68879,-0.021567,-0.60596,0.35992,0.00046697
1517,0.010991,-0.0084125,0.37439,-0.024856,-0.54545,0.40169,0.0034268
1518,-0.00051963,-0.0038083,0.11721,-0.025185,-0.46488,0.40695,0.0011247
1519,-0.0038083,-0.0011774,-0.063004,-0.020581,-0.35274,0.3734,-0.0028217
1520,0.0030979,0.0044134,-0.1735,-0.014003,-0.18205,0.31355,-0.0024928
1521,0.01691,0.014608,-0.235,-0.0084125,0.056046,0.24186,0.0034268
1522,0.034011,0.026119,-0.27512,-0.004466,0.3175,0.17279,0.012306
1523,0.046837,0.038287,-0.3159,0.0017824,0.51909,0.11162,0.018555
1524,0.047495,0.047824,-0.35142,0.0093464,0.58618,0.059663,0.023159
1525,0.039931,0.056374,-0.33596,0.017568,0.50528,0.020199,0.027105
1526,0.027763,0.064267,-0.23106,0.027763,0.32309,-0.0067681,0.030065
1527,0.021514,0.073147,-0.052152,0.039931,0.11491,-0.025514,0.030394
1528,0.019212,0.083013,0.13629,0.053415,-0.051823,-0.038011,0.026119
1529,0.021186,0.089919,0.27014,0.060321,-0.13667,-0.044259,0.016581
1530,0.02283,0.085644,0.32045,0.060321,-0.14522,-0.045903,0.0050711
1531,0.020857,0.070516,0.29513,0.059005,-0.11924,-0.046232,-0.0093991
1532,0.015595,0.049468,0.22475,0.059992,-0.1028,-0.046561,-0.021238
1533,0.0090175,0.02875,0.14418,0.063938,-0.099509,-0.048534,-0.026171
1534,0.0044134,0.011648,0.076435,0.067556,-0.089643,-0.066622,-0.020581
1535,0.002769,0.002769,0.033354,0.070187,-0.057085,-0.11299,-0.0077547
1536,0.0037556,-0.0028217,0.014937,0.072818,-0.014661,-0.19916,0.0073732
1537,0.0070443,-0.0097279,0.013951,0.077422,0.01132,-0.32051,0.01987
1538,0.010991,-0.016305,0.019212,0.078409,-0.00019077,-0.46916,0.029736
1539,0.012306,-0.022225,0.024474,0.071173,-0.055112,-0.63326,0.032696
1540,0.0060577,-0.028802,0.029407,0.05177,-0.13832,-0.7829,0.030723
1541,-0.0038083,-0.03538,0.034669,0.025132,-0.21955,-0.87399,0.025461
1542,-0.012688,-0.043272,0.031381,-0.00019077,-0.2794,-0.86709,0.018555
1543,-0.019594,-0.051165,0.016253,-0.014332,-0.31294,-0.74902,0.010004
1544,-0.021896,-0.050179,-0.0061104,-0.013345,-0.3238,-0.53493,0.0024402
1545,-0.019923,-0.036366,-0.027816,0.0011247,-0.30637,-0.26723,-0.0067681
1546,-0.020581,-0.0057815,-0.041957,0.021514,-0.26131,0.0060577,-0.015319
1547,-0.026171,0.037629,-0.042286,0.043549,-0.18666,0.24482,-0.020909
1548,-0.034722,0.079066,-0.0265,0.064596,-0.088327,0.4303,-0.021238
1549,-0.041628,0.10702,-0.0018351,0.081039,0.017897,0.55527,-0.01499
1550,-0.044917,0.11557,0.019541,0.08663,0.11393,0.62564,-0.002164
1551,-0.045903,0.10998,0.030723,0.077093,0.18957,0.65162,0.012306
1552,-0.04689,0.097154,0.028421,0.055059,0.23528,0.64899,0.02579
1553,-0.048534,0.083342,0.017568,0.024474,0.25139,0.63156,0.031381
1554,-0.046232,0.072818,0.0054,-0.0057815,0.23462,0.61249,0.030723
1555,-0.043601,0.067885,-0.0051238,-0.027487,0.17871,0.59572,0.028421
1556,-0.039326,0.068543,-0.012688,-0.031762,0.081697,0.5819,0.033354
1557,-0.035051,0.073476,-0.01203,-0.013674,-0.031762,0.57368,0.04618
1558,-0.027158,0.080382,0.00079584,0.024474,-0.11266,0.56283,0.063281
1559,-0.012688,0.082684,0.022501,0.067556,-0.11661,0.53192,0.085972
1560,0.0083598,0.077751,0.046508,0.10274,-0.024856,0.47108,0.11097
1561,0.032038,0.065583,0.064596,0.12313,0.14944,0.38195,0.13432
1562,0.054072,0.04618,0.071173,0.12445,0.34512,0.27836,0.15339
1563,0.071831,0.023159,0.06361,0.10834,0.48193,0.17773,0.16293
1564,0.084328,-0.0047949,0.042891,0.083013,0.50659,0.092221,0.16227
1565,0.09255,-0.042944,0.010662,0.057361,0.41451,0.020199,0.15175
1566,0.10176,-0.088656,-0.028144,0.043549,0.24942,-0.043272,0.1353
1567,0.1113,-0.13437,-0.069582,0.04026,0.078409,-0.097864,0.11721
1568,0.1205,-0.16495,-0.10247,0.042233,-0.036037,-0.14358,0.10406
1569,0.12905,-0.16824,-0.12286,0.044864,-0.062018,-0.18238,0.094194
1570,0.13432,-0.14654,-0.13371,0.045193,-0.0074258,-0.20935,0.083999
1571,0.13169,-0.11135,-0.14226,0.042891,0.086959,-0.21494,0.069858
1572,0.12215,-0.072542,-0.14752,0.038616,0.16852,-0.1985,0.053086
1573,0.1113,-0.036695,-0.14555,0.035327,0.19713,-0.16495,0.039602
1574,0.10044,-0.0080836,-0.13634,0.034998,0.16918,-0.12319,0.033025
1575,0.087946,0.0090175,-0.11694,0.038944,0.11524,-0.081421,0.031709
1576,0.073476,0.012306,-0.088985,0.047495,0.10077,-0.038339,0.035327
1577,0.059663,0.0080309,-0.056098,0.056374,0.19055,0.0083598,0.043549
1578,0.044864,0.002769,-0.022883,0.064925,0.39741,0.058348,0.051441
1579,0.031052,0.002769,0.010004,0.079066,0.66182,0.11228,0.058019
1580,0.023159,0.014608,0.046837,0.10242,0.89959,0.17082,0.064267
1581,0.025461,0.039273,0.090905,0.1353,1.0683,0.22377,0.071173
1582,0.041247,0.069858,0.13333,0.16457,1.1719,0.256,0.077751
1583,0.06624,0.096825,0.16227,0.17871,1.2235,0.25633,0.079395
1584,0.09255,0.10965,0.16753,0.17049,1.2196,0.22179,0.069858
1585,0.10801,0.10538,0.14747,0.14418,1.1462,0.16424,0.050126
1586,0.1113,0.08959,0.10406,0.10866,1.0012,0.094852,0.02875
1587,0.10439,0.069858,0.050126,0.073476,0.81047,0.026119,0.013951
1588,0.087617,0.053086,-0.0024928,0.040589,0.61446,-0.034064,0.0050711
1589,0.067227,0.045522,-0.041957,0.014608,0.44542,-0.085367,0.00079584
1590,0.051441,0.048153,-0.065635,-0.0038083,0.3175,-0.13305,-0.0011774
1591,0.043877,0.061307,-0.07879,-0.013017,0.21883,-0.18173,0.0011247
1592,0.042233,0.081368,-0.086354,-0.018278,0.12445,-0.23138,0.0060577
1593,0.04322,0.097483,-0.088327,-0.0265,0.018884,-0.27184,0.010662
1594,0.043549,0.10406,-0.077475,-0.037353,-0.092931,-0.29946,0.012635
1595,0.043877,0.1011,-0.055112,-0.049521,-0.19159,-0.31492,0.010333
1596,0.045193,0.092879,-0.033078,-0.060373,-0.25835,-0.31919,0.0014536
1597,0.047495,0.084986,-0.021567,-0.071555,-0.29157,-0.31294,-0.013017
1598,0.04881,0.081697,-0.023211,-0.07879,-0.30242,-0.30505,-0.02946
1599,0.047495,0.081368,-0.034064,-0.083394,-0.30834,-0.30176,-0.047219
1600,0.042891,0.081368,-0.044588,-0.083394,-0.32051,-0.30472,-0.058729
1601,0.032038,0.081039,-0.04985,-0.079777,-0.33465,-0.309,-0.059387
1602,0.017897,0.076435,-0.046232,-0.068266,-0.33564,-0.30801,-0.048863
1603,0.00079584,0.066898,-0.036366,-0.052481,-0.30965,-0.30045,-0.03242
1604,-0.015319,0.052757,-0.02354,-0.034722,-0.25802,-0.28762,-0.017292
1605,-0.025514,0.035985,-0.011043,-0.017621,-0.1906,-0.26986,-0.0061104
1606,-0.026829,0.021843,0.00046697,-0.004466,-0.13733,-0.24684,-0.0008485
1607,-0.021896,0.014279,0.010333,-0.0008485,-0.13305,-0.22283,-0.0008485
1608,-0.016305,0.010662,0.017568,-0.0041372,-0.18732,-0.20212,-0.0038083
1609,-0.014003,0.010662,0.021514,-0.011372,-0.28203,-0.18797,-0.0051238
1610,-0.014661,0.013293,0.024803,-0.019923,-0.38464,-0.17877,-0.0054526
1611,-0.012359,0.021186,0.026447,-0.02946,-0.46883,-0.17416,-0.0077547
1612,-0.010386,0.035327,0.025132,-0.036695,-0.5129,-0.17318,-0.010386
1613,-0.0067681,0.050455,0.019541,-0.03538,-0.505,-0.17515,-0.014003
1614,-0.0064392,0.065912,0.010991,-0.024856,-0.44252,-0.17877,-0.018936
1615,-0.0090702,0.077422,0.0057288,-0.0067681,-0.34386,-0.18205,-0.02354
1616,-0.012688,0.080711,0.0060577,0.013622,-0.25473,-0.18403,-0.026829
1617,-0.01499,0.077751,0.011648,0.030723,-0.22086,-0.18896,-0.028802
1618,-0.012688,0.071831,0.019212,0.037629,-0.26164,-0.19883,-0.026171
1619,-0.010057,0.062952,0.019541,0.033683,-0.36096,-0.21297,-0.020252
1620,-0.0067681,0.055388,0.0077021,0.020199,-0.47277,-0.22908,-0.015648
1621,-0.0031506,0.049468,-0.010715,0.0021113,-0.55499,-0.2452,-0.013674
1622,-0.00051963,0.043549,-0.025514,-0.01499,-0.57867,-0.25276,-0.014332
1623,0.0001381,0.037958,-0.025185,-0.025185,-0.5448,-0.24618,-0.017621
1624,-0.002164,0.035985,-0.0080836,-0.0265,-0.47442,-0.23073,-0.019923
1625,-0.0051238,0.039931,0.020199,-0.018607,-0.3899,-0.21659,-0.019923
1626,-0.0057815,0.04881,0.050126,-0.002164,-0.3011,-0.21034,-0.017292
1627,-0.0054526,0.057361,0.075449,0.017239,-0.21099,-0.20672,-0.010057
1628,-0.0061104,0.05769,0.090905,0.030723,-0.10806,-0.19422,-0.00019077
1629,-0.0077547,0.049797,0.097483,0.036971,0.018555,-0.16068,0.0077021
1630,-0.0077547,0.039273,0.092879,0.042562,0.18003,-0.10346,0.010333
1631,-0.004466,0.032038,0.074791,0.055059,0.36321,-0.025514,0.0086887
1632,0.0014536,0.025132,0.042562,0.071831,0.51087,0.06065,0.0083598
1633,0.0047422,0.014279,0.0037556,0.085315,0.55855,0.14056,0.012306
1634,0.0030979,0.00046697,-0.029131,0.090905,0.47667,0.19812,0.017897
1635,-0.0031506,-0.01203,-0.04097,0.088275,0.29546,0.22443,0.020528
1636,-0.012359,-0.020252,-0.021567,0.082026,0.085972,0.21949,0.024474
1637,-0.025514,-0.020252,0.030394,0.074462,-0.089314,0.19253,0.029736
1638,-0.039326,-0.011701,0.10044,0.065912,-0.21067,0.15043,0.036642
1639,-0.048534,-0.00051963,0.16885,0.055388,-0.29814,0.10768,0.044206
1640,-0.048863,0.010333,0.21686,0.042562,-0.37017,0.080053,0.049468
1641,-0.043601,0.020857,0.23824,0.029078,-0.43956,0.079724,0.052099
1642,-0.036695,0.028421,0.22739,0.018226,-0.51224,0.095181,0.056046
1643,-0.029789,0.029407,0.18759,0.010991,-0.59248,0.10472,0.056703
1644,-0.021238,0.028092,0.12281,0.0083598,-0.6645,0.092879,0.053415
1645,-0.0093991,0.028421,0.043877,0.015924,-0.71383,0.05473,0.051113
1646,0.0040845,0.032696,-0.034393,0.031381,-0.73126,-0.0054526,0.056374
1647,0.016581,0.039931,-0.095891,0.050784,-0.71515,-0.072542,0.067885
1648,0.029407,0.048153,-0.13009,0.067885,-0.6599,-0.12352,0.079724
1649,0.04026,0.052757,-0.13272,0.076764,-0.56354,-0.13963,0.086301
1650,0.044206,0.05177,-0.11168,0.069858,-0.42936,-0.11825,0.084328
1651,0.042233,0.044206,-0.080106,0.046837,-0.27644,-0.074186,0.077093
1652,0.036971,0.039602,-0.051165,0.018226,-0.13404,-0.032091,0.068543
1653,0.030394,0.04026,-0.033078,-0.0041372,-0.023869,-0.013674,0.058348
1654,0.023159,0.043549,-0.029789,-0.013674,0.039931,-0.026171,0.045522
1655,0.012964,0.042233,-0.039984,-0.012688,0.044206,-0.063333,0.032367
1656,-0.0015062,0.033354,-0.061031,-0.0090702,-0.0090702,-0.10707,0.017897
1657,-0.014003,0.017897,-0.087012,-0.0077547,-0.10444,-0.14292,0.002769
1658,-0.018936,0.0001381,-0.11595,-0.0090702,-0.22875,-0.16364,-0.0093991
1659,-0.015648,-0.015976,-0.14391,-0.0097279,-0.37082,-0.16923,-0.015976
1660,-0.0067681,-0.028802,-0.16726,-0.0090702,-0.51092,-0.16397,-0.015976
1661,0.0021113,-0.040641,-0.18107,-0.0093991,-0.62043,-0.15279,-0.0087413
1662,0.0070443,-0.056427,-0.18633,-0.0093991,-0.65793,-0.13832,0.0050711
1663,0.010333,-0.079777,-0.18041,-0.011043,-0.58557,-0.1199,0.021186
1664,0.014608,-0.11036,-0.15969,-0.0084125,-0.38924,-0.10181,0.031052
1665,0.01987,-0.1416,-0.12483,0.0047422,-0.076159,-0.079448,0.031052
1666,0.027434,-0.16495,-0.076159,0.030723,0.32506,-0.040641,0.024474
1667,0.04026,-0.17252,-0.01795,0.065912,0.76673,0.021843,0.015924
1668,0.055388,-0.15673,0.04618,0.10538,1.1765,0.096825,0.011648
1669,0.070845,-0.11628,0.11195,0.1432,1.462,0.16753,0.017568
1670,0.081368,-0.057085,0.18134,0.16786,1.5517,0.22443,0.030065
1671,0.082684,0.013622,0.25534,0.17937,1.4278,0.26915,0.042562
1672,0.078737,0.085644,0.33657,0.18726,1.136,0.3073,0.052428
1673,0.073147,0.15602,0.42043,0.1968,0.77495,0.34446,0.056374
1674,0.070845,0.22607,0.49673,0.207,0.4691,0.38491,0.056046
1675,0.07216,0.29447,0.55066,0.21259,0.31322,0.43227,0.053415
1676,0.072818,0.35038,0.56645,0.20436,0.32243,0.48061,0.04881
1677,0.069529,0.38162,0.53817,0.17838,0.42767,0.52402,0.042562
1678,0.063281,0.37768,0.47667,0.13695,0.52764,0.55691,0.034669
1679,0.055717,0.33788,0.40136,0.087288,0.5431,0.56908,0.027434
1680,0.050126,0.27408,0.33394,0.036314,0.4543,0.55428,0.026119
1681,0.046508,0.20305,0.28461,-0.01203,0.29645,0.50791,0.029407
1682,0.038287,0.13662,0.25534,-0.055112,0.12412,0.42997,0.032367
1683,0.025461,0.081368,0.24416,-0.0903,-0.026171,0.33032,0.034669
1684,0.010333,0.041247,0.24712,-0.11102,-0.13864,0.22574,0.0373
1685,-0.0015062,0.013951,0.25304,-0.11529,-0.20968,0.13695,0.039931
1686,-0.0074258,-0.0038083,0.24284,-0.1074,-0.24388,0.075778,0.042562
1687,-0.004466,-0.015976,0.18726,-0.095562,-0.24914,0.045193,0.044206
1688,0.00046697,-0.028473,0.067556,-0.087012,-0.22974,0.039931,0.043877
1689,0.0057288,-0.036037,-0.10115,-0.082408,-0.19225,0.049139,0.038944
1690,0.01132,-0.033735,-0.27315,-0.075501,-0.14555,0.070516,0.036971
1691,0.01691,-0.021896,-0.40042,-0.06432,-0.091616,0.10702,0.041904
1692,0.021186,-0.0097279,-0.456,-0.052152,-0.030775,0.15832,0.056046
1693,0.025132,-0.0038083,-0.44416,-0.041957,0.032367,0.21127,0.071502
1694,0.028092,-0.0074258,-0.39385,-0.038011,0.086301,0.2458,0.080382
1695,0.029736,-0.020252,-0.34649,-0.040313,0.13169,0.24482,0.077093
1696,0.030065,-0.037024,-0.33103,-0.044588,0.17773,0.20502,0.062952
1697,0.028421,-0.048205,-0.36326,-0.047877,0.23528,0.13267,0.041575
1698,0.026447,-0.051165,-0.44482,-0.046561,0.31125,0.045522,0.021514
1699,0.026447,-0.04689,-0.56617,-0.036695,0.40234,-0.035051,0.0073732
1700,0.02579,-0.039326,-0.70989,-0.023211,0.50199,-0.091616,-0.00051963
1701,0.026776,-0.028802,-0.83913,-0.0077547,0.59078,-0.12187,-0.0038083
1702,0.028421,-0.018278,-0.91674,0.0070443,0.64373,-0.13733,-0.0047949
1703,0.029078,-0.011043,-0.90984,0.022172,0.64538,-0.15081,0.00079584
1704,0.026776,-0.013017,-0.79506,0.033025,0.59177,-0.17054,0.012635
1705,0.022172,-0.026829,-0.55992,0.034669,0.48226,-0.19718,0.027105
1706,0.01691,-0.045903,-0.22053,0.028421,0.32177,-0.22579,0.035327
1707,0.015266,-0.057743,0.17246,0.019212,0.12346,-0.2498,0.036971
1708,0.017568,-0.058071,0.54606,0.017568,-0.08471,-0.26427,0.031709
1709,0.022172,-0.045903,0.82823,0.028092,-0.2748,-0.26526,0.025132
1710,0.025461,-0.027487,0.96503,0.049139,-0.42311,-0.25802,0.017239
1711,0.023488,-0.0090702,0.94826,0.068871,-0.51553,-0.25342,0.0083598
1712,0.015924,0.0093464,0.81014,0.077422,-0.54973,-0.25506,-0.0011774
1713,0.0040845,0.025461,0.61084,0.072818,-0.52868,-0.26197,-0.010715
1714,-0.011701,0.036314,0.41287,0.061636,-0.44975,-0.27019,-0.019594
1715,-0.022554,0.041904,0.25633,0.048153,-0.29387,-0.27841,-0.025514
1716,-0.027158,0.042891,0.16063,0.036642,-0.059387,-0.28499,-0.028144
1717,-0.028802,0.038287,0.12116,0.03434,0.20996,-0.28861,-0.025514
1718,-0.027487,0.026447,0.12642,0.04322,0.42536,-0.28927,-0.022883
1719,-0.024527,0.010991,0.16063,0.059663,0.49015,-0.28598,-0.02354
1720,-0.02354,-0.0067681,0.20371,0.075449,0.37801,-0.28466,-0.024198
1721,-0.023869,-0.025842,0.24646,0.083999,0.15109,-0.28433,-0.024527
1722,-0.023211,-0.045903,0.28724,0.087288,-0.086683,-0.27973,-0.023211
1723,-0.016305,-0.060045,0.31914,0.086959,-0.25112,-0.26723,-0.018607
1724,-0.0034794,-0.065635,0.33032,0.082026,-0.31459,-0.24618,-0.012359
1725,0.0093464,-0.063004,0.31256,0.073147,-0.29716,-0.21823,-0.0051238
1726,0.017568,-0.060702,0.26225,0.061965,-0.24322,-0.18238,-0.00019077
1727,0.018884,-0.064649,0.18661,0.049468,-0.19916,-0.14226,0.0030979
1728,0.013951,-0.074515,0.10505,0.04026,-0.1906,-0.10543,0.0054
1729,0.0054,-0.085367,0.041575,0.039273,-0.21823,-0.079448,0.0080309
1730,-0.00019077,-0.087669,0.012306,0.052428,-0.25835,-0.065307,0.012306
1731,0.0017824,-0.077146,0.012306,0.072818,-0.28992,-0.05544,0.01987
1732,0.0093464,-0.052481,0.025461,0.093865,-0.3113,-0.042944,0.030394
1733,0.019541,-0.014003,0.033354,0.10932,-0.33531,-0.024856,0.037958
1734,0.027434,0.0373,0.026119,0.1113,-0.37707,-0.0054526,0.039273
1735,0.033025,0.08959,0.0080309,0.096496,-0.43397,0.0040845,0.03434
1736,0.036642,0.1307,-0.0084125,0.067556,-0.47705,-0.0011774,0.02875
1737,0.040918,0.14813,-0.018936,0.033354,-0.47212,-0.012359,0.022501
1738,0.046508,0.14122,-0.027487,0.0021113,-0.407,-0.023869,0.018555
1739,0.054072,0.11623,-0.051823,-0.020581,-0.29716,-0.036037,0.018555
1740,0.059663,0.086959,-0.10313,-0.032749,-0.16528,-0.038668,0.021843
1741,0.063938,0.061965,-0.18403,-0.038339,-0.038339,-0.020909,0.029736
1742,0.064925,0.04618,-0.28762,-0.038668,0.067227,0.02283,0.041247
1743,0.066898,0.037958,-0.39746,-0.035708,0.1432,0.093536,0.049139
1744,0.071502,0.035656,-0.49152,-0.03242,0.18332,0.18365,0.050784
1745,0.076764,0.0373,-0.5448,-0.030775,0.18562,0.28066,0.041904
1746,0.080382,0.038616,-0.53493,-0.027487,0.15207,0.36781,0.026776
1747,0.081697,0.035656,-0.456,-0.020581,0.10998,0.42569,0.011977
1748,0.078409,0.023159,-0.32281,-0.0093991,0.11886,0.44608,0.002769
1749,0.07216,0.0011247,-0.17383,0.0030979,0.23298,0.42799,0.0014536
1750,0.064267,-0.024856,-0.050179,0.015595,0.44312,0.37702,0.0037556
1751,0.057361,-0.053467,0.020857,0.021186,0.673,0.29579,0.0070443
1752,0.054072,-0.081421,0.038287,0.014279,0.81968,0.18496,0.0083598
1753,0.05473,-0.10576,0.021186,-0.007097,0.81343,0.038287,0.0086887
1754,0.057361,-0.12352,-0.0038083,-0.036037,0.65985,-0.13207,0.0080309
1755,0.057361,-0.12648,-0.019923,-0.060045,0.41977,-0.28894,0.0096753
1756,0.051113,-0.11562,-0.020909,-0.068266,0.17246,-0.38135,0.013622
1757,0.04322,-0.095233,-0.0080836,-0.057414,-0.016634,-0.37214,0.020528
1758,0.036314,-0.069582,0.011648,-0.025514,-0.11102,-0.25309,0.028092
1759,0.034011,-0.044259,0.030723,0.017568,-0.10707,-0.044917,0.036971
1760,0.036314,-0.021896,0.050455,0.059334,-0.031762,0.20502,0.049468
1761,0.04026,-0.0051238,0.071502,0.092221,0.068543,0.44444,0.064596
1762,0.043877,0.0021113,0.091234,0.11294,0.15043,0.63123,0.079066
1763,0.051441,0.0030979,0.10242,0.12083,0.19746,0.74535,0.090577
1764,0.059005,0.0054,0.10373,0.11721,0.22311,0.79238,0.097154
1765,0.061307,0.014279,0.1011,0.10702,0.25698,0.79041,0.098469
1766,0.057361,0.030723,0.095839,0.093536,0.3119,0.76245,0.092221
1767,0.04618,0.049468,0.084986,0.077093,0.36419,0.72134,0.079724
1768,0.031709,0.066569,0.064925,0.059663,0.37866,0.67596,0.062623
1769,0.017568,0.08367,0.036314,0.042891,0.33131,0.63091,0.047495
