,channel_1,channel_2,channel_3,channel_4,channel_5,channel_6,channel_7
0,0.012306,0.030723,0.02283,0.057032,0.0083598,0.032696,0.060979
1,0.016581,0.018226,0.015595,0.033683,-0.022554,0.0030979,0.055388
2,0.018884,0.0060577,0.0093464,0.019212,-0.057414,-0.021567,0.049468
3,0.018555,-0.0077547,0.0063866,0.017568,-0.092603,-0.044259,0.044206
4,0.016253,-0.022883,0.0063866,0.023488,-0.12549,-0.066293,0.041247
5,0.010333,-0.03242,0.0063866,0.028421,-0.15246,-0.090629,0.041575
6,-0.00019077,-0.031433,0.0060577,0.026776,-0.1712,-0.11858,0.04322
7,-0.0093991,-0.020909,0.0080309,0.017568,-0.17712,-0.14193,0.04322
8,-0.016305,-0.010386,0.0090175,0.0057288,-0.16989,-0.1564,0.038287
9,-0.019265,-0.0011774,0.0073732,0.0024402,-0.14917,-0.16068,0.02875
10,-0.020581,0.0017824,0.0054,0.010333,-0.1176,-0.16035,0.015924
11,-0.016963,-0.0018351,0.0037556,0.023488,-0.081092,-0.15772,0.0060577
12,-0.0090702,-0.0051238,0.0024402,0.040589,-0.047877,-0.1518,0.0044134
13,0.0040845,-0.0038083,0.0044134,0.061636,-0.021567,-0.13766,0.0077021
14,0.016253,0.0030979,0.010333,0.086301,0.0037556,-0.11595,0.019212
15,0.023159,0.011648,0.01987,0.10899,0.034011,-0.091287,0.034669
16,0.02283,0.019212,0.029078,0.12248,0.067227,-0.066951,0.049139
17,0.01691,0.02283,0.035327,0.12544,0.10373,-0.04393,0.061307
18,0.0083598,0.021514,0.039602,0.12083,0.13563,-0.025842,0.070845
19,0.0021113,0.020528,0.044206,0.11294,0.15701,-0.015648,0.075778
20,0.00079584,0.023159,0.048482,0.10603,0.16227,-0.0077547,0.077751
21,0.0011247,0.02875,0.047495,0.10176,0.15569,0.0001381,0.078409
22,0.0014536,0.030394,0.039602,0.10077,0.14648,0.0067154,0.077751
23,0.0030979,0.029407,0.027434,0.10044,0.13826,0.01132,0.076764
24,0.0090175,0.026119,0.014937,0.096825,0.12445,0.015595,0.07216
25,0.013951,0.023159,0.0060577,0.086301,0.10274,0.020528,0.063938
26,0.013293,0.022501,0.002769,0.069858,0.076435,0.033354,0.055059
27,0.0057288,0.020199,0.0080309,0.049139,0.053086,0.05473,0.049139
28,-0.004466,0.018226,0.017239,0.032367,0.033025,0.083342,0.047495
29,-0.0080836,0.019212,0.023488,0.025132,0.016581,0.11623,0.049797
30,-0.0051238,0.021186,0.024803,0.026776,0.0096753,0.1501,0.051113
31,0.0024402,0.020199,0.023159,0.030723,0.0093464,0.1843,0.050126
32,0.010004,0.017568,0.021514,0.029407,0.015266,0.22212,0.049468
33,0.014608,0.013293,0.018226,0.023159,0.019541,0.26257,0.048153
34,0.016581,0.0063866,0.014937,0.014608,0.013951,0.30007,0.047824
35,0.016253,-0.0024928,0.013622,0.01132,-0.0031506,0.32572,0.047495
36,0.012635,-0.010386,0.012635,0.011977,-0.031433,0.33098,0.047824
37,0.010991,-0.012688,0.012964,0.013622,-0.063333,0.30664,0.051113
38,0.010991,-0.0084125,0.014279,0.014608,-0.092274,0.25041,0.055717
39,0.011648,0.0024402,0.015924,0.013622,-0.10707,0.17115,0.058019
40,0.0093464,0.017568,0.021514,0.0070443,-0.10543,0.085972,0.059334
41,0.0073732,0.032367,0.028421,-0.0024928,-0.092931,0.014937,0.056703
42,0.010991,0.040918,0.029407,-0.012359,-0.075501,-0.026829,0.052099
43,0.017239,0.042891,0.024474,-0.018278,-0.056098,-0.039655,0.048482
44,0.021514,0.039602,0.01691,-0.019923,-0.042286,-0.034393,0.045851
45,0.024145,0.033354,0.010991,-0.021567,-0.035051,-0.020581,0.039931
46,0.027434,0.026119,0.0080309,-0.025185,-0.035051,-0.0097279,0.029078
47,0.026776,0.019212,0.0083598,-0.030775,-0.036366,-0.007097,0.020199
48,0.021186,0.011977,0.0057288,-0.038339,-0.038668,-0.012688,0.017239
49,0.012964,0.0063866,0.0011247,-0.045574,-0.039655,-0.023211,0.019212
50,0.0073732,0.0011247,-0.0015062,-0.050507,-0.038011,-0.033078,0.023817
51,0.010004,-0.0041372,-0.00051963,-0.052481,-0.031104,-0.038997,0.02579
52,0.020199,-0.0067681,0.0060577,-0.04985,-0.022883,-0.042944,0.020528
53,0.033025,-0.0041372,0.015266,-0.044917,-0.015976,-0.050507,0.011977
54,0.039931,0.0054,0.025132,-0.041957,-0.010386,-0.059716,0.0040845
55,0.039273,0.015266,0.034669,-0.037682,-0.0067681,-0.067609,-0.002164
56,0.032696,0.020857,0.039931,-0.033406,-0.0041372,-0.073857,-0.0057815
57,0.023817,0.023817,0.038616,-0.027487,-0.0018351,-0.077475,-0.0084125
58,0.01691,0.026776,0.033354,-0.021567,0.0014536,-0.074844,-0.010386
59,0.014608,0.034011,0.025461,-0.014661,0.01132,-0.062018,-0.012359
60,0.015924,0.041904,0.018226,-0.007097,0.025461,-0.039984,-0.012359
61,0.01987,0.047495,0.014937,0.0034268,0.041575,-0.018278,-0.0080836
62,0.025461,0.046837,0.015266,0.015266,0.05177,-0.0024928,-0.004466
63,0.029078,0.038944,0.021514,0.027105,0.05473,-0.00051963,-0.002164
64,0.029736,0.029078,0.028421,0.036642,0.053743,-0.0097279,0.0021113
65,0.032367,0.024474,0.033354,0.042891,0.047824,-0.023211,0.0070443
66,0.035327,0.029078,0.035327,0.047166,0.0373,-0.03538,0.010662
67,0.039273,0.041575,0.032367,0.046508,0.026447,-0.047219,0.012306
68,0.043877,0.054401,0.026119,0.042891,0.017239,-0.060373,0.0086887
69,0.046508,0.059334,0.018226,0.038944,0.01132,-0.075501,0.00079584
70,0.04322,0.056374,0.01132,0.039273,0.0070443,-0.089314,-0.010386
71,0.0373,0.05177,0.0086887,0.044535,0.0001381,-0.094905,-0.023869
72,0.029407,0.050784,0.0093464,0.050455,-0.0097279,-0.089314,-0.037024
73,0.022501,0.052099,0.01132,0.05177,-0.022225,-0.075173,-0.045903
74,0.017897,0.051113,0.012635,0.047824,-0.036366,-0.063991,-0.049192
75,0.018884,0.047166,0.012306,0.038944,-0.051494,-0.061689,-0.05281
76,0.020528,0.041247,0.013622,0.027434,-0.062676,-0.070568,-0.0584
77,0.015266,0.035985,0.015266,0.018555,-0.062018,-0.087341,-0.063991
78,0.0034268,0.033683,0.017239,0.017239,-0.049521,-0.10477,-0.061689
79,-0.010057,0.031381,0.017239,0.018884,-0.025185,-0.11694,-0.051823
80,-0.020909,0.028092,0.01691,0.02283,-0.0018351,-0.12154,-0.035708
81,-0.0265,0.023159,0.015266,0.026776,0.0093464,-0.11529,-0.021238
82,-0.024198,0.020857,0.013622,0.031052,0.0063866,-0.10444,-0.011372
83,-0.018278,0.024803,0.012964,0.037958,-0.002164,-0.094576,-0.0064392
84,-0.01499,0.035327,0.014937,0.049468,-0.0054526,-0.091945,-0.0018351
85,-0.01795,0.047824,0.015595,0.062294,0.0014536,-0.096549,0.0060577
86,-0.024856,0.056374,0.01691,0.07216,0.017568,-0.10181,0.014608
87,-0.030775,0.05473,0.018555,0.077422,0.034669,-0.1028,0.020528
88,-0.02946,0.039273,0.020199,0.079395,0.044864,-0.10017,0.021843
89,-0.020581,0.015924,0.01987,0.079066,0.043877,-0.090958,0.021843
90,-0.007097,-0.002164,0.019541,0.078737,0.038616,-0.072213,0.020528
91,0.0070443,-0.0080836,0.019212,0.080711,0.036642,-0.04689,0.02579
92,0.014279,-0.002164,0.019212,0.089261,0.0373,-0.027487,0.035985
93,0.015595,0.0083598,0.020857,0.098141,0.041247,-0.019923,0.047166
94,0.014937,0.017568,0.024803,0.097812,0.044206,-0.022883,0.055717
95,0.01691,0.020528,0.032367,0.087617,0.045851,-0.027487,0.059005
96,0.02283,0.018884,0.038616,0.070845,0.042562,-0.033078,0.055059
97,0.030065,0.010991,0.039931,0.056374,0.037629,-0.039326,0.049468
98,0.03434,0.00079584,0.033683,0.050126,0.033354,-0.048534,0.041247
99,0.036971,-0.0064392,0.026119,0.048153,0.027105,-0.059058,0.030065
100,0.037629,-0.007097,0.021843,0.045522,0.017897,-0.066293,0.021186
101,0.036314,-0.002164,0.023817,0.038287,0.0050711,-0.063333,0.017239
102,0.031381,0.0044134,0.029736,0.027105,-0.0087413,-0.048205,0.019212
103,0.025132,0.014608,0.033354,0.018226,-0.023869,-0.024527,0.024803
104,0.021843,0.02579,0.030723,0.014608,-0.040313,0.00079584,0.027763
105,0.024803,0.035327,0.023159,0.015266,-0.056098,0.020199,0.024803
106,0.030065,0.038616,0.017239,0.018555,-0.071226,0.029407,0.017239
107,0.032696,0.036971,0.013293,0.021843,-0.082079,0.029736,0.002769
108,0.033025,0.030065,0.010662,0.024474,-0.087669,0.032367,-0.012688
109,0.032367,0.020199,0.010333,0.023488,-0.087669,0.035656,-0.020252
110,0.031052,0.010662,0.010004,0.019212,-0.080763,0.040589,-0.01795
111,0.029078,0.0050711,0.0090175,0.011977,-0.067937,0.044206,-0.0097279
112,0.025132,0.0040845,0.0057288,0.0034268,-0.049192,0.047495,-0.0018351
113,0.020857,0.0073732,0.0030979,-0.00051963,-0.025842,0.051441,0.0017824
114,0.019541,0.0083598,0.0040845,0.0017824,0.0037556,0.053086,-0.0011774
115,0.023817,0.0067154,0.0086887,0.0067154,0.039931,0.050126,-0.0067681
116,0.032367,0.0067154,0.013293,0.011648,0.072489,0.042891,-0.010057
117,0.041575,0.0080309,0.016581,0.014279,0.092879,0.035656,-0.007097
118,0.047824,0.011977,0.017897,0.013293,0.096167,0.031381,0.00046697
119,0.047824,0.016581,0.017239,0.0050711,0.081697,0.031709,0.010662
120,0.041247,0.022501,0.014937,-0.007097,0.052099,0.033683,0.021186
121,0.03434,0.027763,0.0090175,-0.021896,0.014608,0.036642,0.031381
122,0.031381,0.026776,0.0021113,-0.036366,-0.018278,0.0373,0.033025
123,0.031709,0.023817,-0.0047949,-0.043601,-0.02946,0.036642,0.026119
124,0.031052,0.026119,-0.011372,-0.035051,-0.01203,0.037629,0.011977
125,0.02579,0.034998,-0.017292,-0.016305,0.029078,0.043549,-0.0018351
126,0.01987,0.045851,-0.019923,0.0047422,0.080382,0.053743,-0.011043
127,0.018884,0.05473,-0.013017,0.019541,0.12445,0.072489,-0.013674
128,0.024803,0.055717,0.0024402,0.02579,0.1524,0.097483,-0.010715
129,0.035327,0.052757,0.021843,0.027105,0.15668,0.12544,-0.0061104
130,0.045193,0.054401,0.035656,0.024474,0.14254,0.1501,-0.0028217
131,0.051113,0.06361,0.0373,0.021186,0.12379,0.16622,0.00046697
132,0.053743,0.076435,0.031381,0.023488,0.11393,0.17148,0.0047422
133,0.053086,0.085315,0.020857,0.032696,0.11787,0.16523,0.010333
134,0.048153,0.084657,0.013293,0.04618,0.13728,0.15273,0.018555
135,0.038287,0.077422,0.0073732,0.056046,0.16852,0.13925,0.02579
136,0.025132,0.065912,-0.00019077,0.058019,0.19285,0.12642,0.032038
137,0.013293,0.050784,-0.0054526,0.047824,0.2014,0.10998,0.034669
138,0.0030979,0.035985,-0.0067681,0.028421,0.19022,0.092879,0.035985
139,-0.0061104,0.027763,-0.0038083,0.0086887,0.1649,0.074133,0.035985
140,-0.007097,0.029078,0.0011247,-0.0024928,0.1353,0.054401,0.032038
141,-0.00019077,0.034669,0.0077021,-0.0047949,0.11195,0.04026,0.022501
142,0.011648,0.035985,0.011977,-0.0015062,0.093865,0.036314,0.015595
143,0.023159,0.030065,0.012306,-0.00051963,0.077751,0.040589,0.01691
144,0.030394,0.017239,0.0090175,-0.0011774,0.064596,0.052428,0.027105
145,0.029078,0.0034268,0.0034268,-0.0015062,0.05769,0.065254,0.042562
146,0.024474,-0.0041372,-0.0008485,-0.0011774,0.054072,0.072818,0.055059
147,0.019212,-0.0024928,0.0014536,-0.00051963,0.050455,0.069529,0.062294
148,0.020857,0.0060577,0.0080309,0.0021113,0.041247,0.058676,0.062294
149,0.028421,0.015266,0.013293,0.0073732,0.025461,0.042891,0.058676
150,0.035656,0.020857,0.014279,0.014937,0.0070443,0.032038,0.053743
151,0.038287,0.023817,0.0096753,0.02579,-0.010386,0.02875,0.049468
152,0.035656,0.024803,0.0034268,0.035985,-0.021238,0.029407,0.044206
153,0.029736,0.026119,0.00079584,0.045522,-0.023211,0.026119,0.039931
154,0.024145,0.026776,0.0047422,0.05177,-0.021567,0.014608,0.038287
155,0.018884,0.029736,0.013293,0.050784,-0.020909,-0.0008485,0.039273
156,0.011977,0.031052,0.022501,0.041904,-0.025185,-0.01203,0.042233
157,0.0034268,0.033354,0.027105,0.029736,-0.034064,-0.010057,0.046508
158,-0.0054526,0.038616,0.026447,0.018555,-0.046561,0.0014536,0.049139
159,-0.011372,0.049139,0.01691,0.011977,-0.058071,0.017239,0.051441
160,-0.014003,0.058348,0.0054,0.0086887,-0.065307,0.030065,0.053086
161,-0.015319,0.062623,-0.0038083,0.0096753,-0.069253,0.036971,0.054072
162,-0.015319,0.059663,-0.0064392,0.013951,-0.071555,0.036971,0.053415
163,-0.012688,0.048153,-0.0038083,0.01691,-0.073857,0.029736,0.056046
164,-0.013017,0.03434,0.002769,0.017568,-0.069253,0.021843,0.058348
165,-0.018278,0.023817,0.010333,0.01987,-0.055769,0.017897,0.060321
166,-0.02946,0.020199,0.013622,0.024474,-0.036695,0.019541,0.060979
167,-0.038997,0.017568,0.014937,0.032038,-0.020581,0.023159,0.059992
168,-0.041957,0.015595,0.0096753,0.042233,-0.011372,0.026447,0.058676
169,-0.038997,0.011648,0.0021113,0.052428,-0.012359,0.028092,0.056703
170,-0.031433,0.0093464,-0.004466,0.058676,-0.028473,0.030394,0.051113
171,-0.026171,0.0093464,-0.0057815,0.059992,-0.06136,0.030065,0.042233
172,-0.025185,0.010662,-0.00019077,0.056046,-0.11036,0.028092,0.032367
173,-0.027487,0.0077021,0.0083598,0.049139,-0.16693,0.028421,0.026119
174,-0.028802,0.0017824,0.012306,0.04322,-0.22119,0.033683,0.027105
175,-0.029789,-0.0034794,0.011977,0.041247,-0.25473,0.044206,0.036971
176,-0.028144,-0.0084125,0.010991,0.042233,-0.26032,0.054072,0.046508
177,-0.020581,-0.010057,0.010991,0.041247,-0.23698,0.062952,0.05177
178,-0.012359,-0.007097,0.014608,0.036971,-0.19554,0.069858,0.053743
179,-0.0061104,-0.0011774,0.01987,0.031052,-0.14983,0.066569,0.059992
180,0.0017824,0.0080309,0.02579,0.025461,-0.10477,0.054401,0.068871
181,0.011648,0.017239,0.029407,0.023159,-0.064649,0.035656,0.074133
182,0.020199,0.02283,0.029078,0.021514,-0.031433,0.012964,0.073476
183,0.025132,0.023488,0.027105,0.020199,-0.0054526,-0.0074258,0.064596
184,0.030723,0.018226,0.023159,0.018226,0.013622,-0.016634,0.049797
185,0.039273,0.0090175,0.01987,0.015595,0.029078,-0.016634,0.036314
186,0.04881,0.0021113,0.017897,0.010991,0.044864,-0.011701,0.029736
187,0.059334,0.0001381,0.01691,0.0083598,0.065254,-0.0061104,0.031709
188,0.065254,0.0021113,0.017897,0.0096753,0.092221,-0.004466,0.035656
189,0.06624,0.011648,0.021843,0.012964,0.12116,-0.0064392,0.038944
190,0.059334,0.029078,0.02875,0.013622,0.14221,-0.0097279,0.038944
191,0.050126,0.04618,0.033025,0.0083598,0.14879,-0.013674,0.034011
192,0.042891,0.056374,0.033683,-0.0018351,0.14254,-0.014661,0.027434
193,0.044206,0.059334,0.030065,-0.0084125,0.13267,-0.011043,0.01987
194,0.054072,0.056703,0.02283,-0.0097279,0.12149,-0.0041372,0.013293
195,0.064596,0.052428,0.015595,-0.0084125,0.10768,-0.0011774,0.002769
196,0.070845,0.044535,0.010333,-0.0051238,0.087288,-0.0090702,-0.0084125
197,0.073476,0.036642,0.0083598,-0.0034794,0.057361,-0.02354,-0.01499
198,0.07512,0.034669,0.01132,-0.0061104,0.02579,-0.036037,-0.013674
199,0.077093,0.036971,0.013293,-0.011701,-0.0008485,-0.043601,-0.0054526
200,0.076764,0.042562,0.015595,-0.018278,-0.014661,-0.045903,0.0080309
201,0.073804,0.04322,0.020528,-0.020252,-0.012359,-0.047548,0.018884
202,0.068871,0.038616,0.025132,-0.020581,0.0044134,-0.04689,0.022501
203,0.065912,0.031052,0.029078,-0.022883,0.021843,-0.042615,0.020857
204,0.0692,0.023817,0.031709,-0.027158,0.033354,-0.036366,0.014608
205,0.07512,0.016253,0.032367,-0.031433,0.035327,-0.027816,0.0054
206,0.080711,0.0070443,0.028421,-0.033406,0.026447,-0.01795,-0.0054526
207,0.084986,-0.0011774,0.024145,-0.033406,0.011977,-0.0074258,-0.01203
208,0.086301,-0.0047949,0.022172,-0.030447,0.0060577,0.0054,-0.016963
209,0.082684,-0.0038083,0.024474,-0.022554,0.013293,0.024145,-0.019265
210,0.079395,0.0014536,0.032696,-0.0090702,0.031381,0.048482,-0.020909
211,0.078737,0.0080309,0.040918,0.0063866,0.052757,0.073147,-0.02354
212,0.081039,0.010662,0.047824,0.024145,0.070187,0.086959,-0.026829
213,0.08367,0.011648,0.04881,0.039273,0.080711,0.085972,-0.029131
214,0.087946,0.0096753,0.045522,0.04881,0.080382,0.070187,-0.028802
215,0.09255,0.0044134,0.043877,0.050126,0.067885,0.044206,-0.026829
216,0.09551,-0.00019077,0.042562,0.043549,0.049468,0.020199,-0.024527
217,0.094852,-0.002164,0.044206,0.028421,0.030394,0.0021113,-0.020909
218,0.091892,0.0001381,0.040589,0.0096753,0.017568,-0.014003,-0.014332
219,0.088603,0.0057288,0.027105,-0.012688,0.01132,-0.027487,-0.0064392
220,0.087288,0.011977,0.0054,-0.032091,0.01132,-0.036037,-0.00051963
221,0.083013,0.01691,-0.013674,-0.044259,0.017568,-0.037353,0.0011247
222,0.072489,0.018555,-0.022883,-0.047219,0.02579,-0.0265,-0.0015062
223,0.055388,0.01691,-0.021567,-0.041628,0.03434,-0.0024928,-0.0047949
224,0.036314,0.01691,-0.012359,-0.028473,0.043877,0.028421,-0.0077547
225,0.017239,0.019541,-0.0031506,-0.015976,0.057032,0.059992,-0.010715
226,0.0073732,0.021186,0.0011247,-0.0074258,0.082684,0.094194,-0.0097279
227,0.0037556,0.021843,0.0001381,0.002769,0.11886,0.12708,-0.0080836
228,0.0063866,0.018226,-0.0038083,0.016253,0.15372,0.15142,-0.010057
229,0.01132,0.013622,-0.010057,0.028421,0.17181,0.15799,-0.014003
230,0.015924,0.010004,-0.015319,0.033354,0.1695,0.14024,-0.016963
231,0.01987,0.0083598,-0.018278,0.032696,0.1501,0.10209,-0.01499
232,0.021843,0.010991,-0.018607,0.032038,0.11689,0.054072,-0.0034794
233,0.023488,0.012635,-0.015976,0.033025,0.076764,0.013293,0.016581
234,0.02283,0.0096753,-0.01203,0.038944,0.04026,-0.010386,0.037629
235,0.014937,0.00079584,-0.0067681,0.047824,0.012306,-0.014332,0.05177
236,0.00046697,-0.011701,0.0014536,0.056374,-0.011043,-0.0074258,0.055717
237,-0.013674,-0.022883,0.0090175,0.060321,-0.03242,0.0014536,0.054401
238,-0.026829,-0.031762,0.013622,0.059663,-0.056098,0.0063866,0.049797
239,-0.035051,-0.040313,0.013951,0.052757,-0.078461,0.0063866,0.04322
240,-0.039655,-0.045903,0.017568,0.046508,-0.094905,0.0017824,0.036971
241,-0.041628,-0.047548,0.023488,0.043549,-0.1005,-0.01203,0.027434
242,-0.039326,-0.043601,0.026447,0.046508,-0.099838,-0.034722,0.020528
243,-0.03538,-0.034064,0.02283,0.055717,-0.10082,-0.062676,0.021843
244,-0.033735,-0.022883,0.015266,0.065583,-0.11003,-0.085367,0.032038
245,-0.039326,-0.011043,0.0070443,0.071502,-0.12516,-0.099838,0.043877
246,-0.045246,-0.0028217,0.0001381,0.070516,-0.13897,-0.10872,0.048482
247,-0.04689,-0.00051963,-0.0031506,0.063281,-0.15048,-0.11233,0.045522
248,-0.04393,-0.007097,-0.0064392,0.054072,-0.16035,-0.11003,0.04026
249,-0.038668,-0.016963,-0.0084125,0.046508,-0.16989,-0.10148,0.033683
250,-0.032749,-0.02354,-0.0077547,0.043877,-0.17416,-0.088656,0.024803
251,-0.029789,-0.022883,-0.0031506,0.046508,-0.17153,-0.073857,0.012964
252,-0.027158,-0.014003,0.0070443,0.053415,-0.16002,-0.061689,0.00046697
253,-0.026171,-0.0024928,0.015924,0.06361,-0.13996,-0.04985,-0.0054526
254,-0.028144,0.0086887,0.020528,0.070516,-0.11365,-0.038011,-0.0051238
255,-0.032749,0.018226,0.021843,0.069529,-0.082408,-0.02354,-0.00051963
256,-0.039326,0.025461,0.023159,0.063938,-0.04985,-0.011043,0.0001381
257,-0.044259,0.031052,0.023817,0.062623,-0.016305,-0.0057815,-0.00051963
258,-0.047877,0.038616,0.026447,0.0692,0.014937,-0.0084125,-0.0038083
259,-0.052481,0.049468,0.026447,0.08367,0.04026,-0.01499,-0.0047949
260,-0.061031,0.059992,0.026776,0.096825,0.059992,-0.020909,-0.002164
261,-0.070568,0.067885,0.026447,0.10373,0.07512,-0.024198,0.0030979
262,-0.076159,0.069529,0.028092,0.10373,0.088603,-0.02354,0.0086887
263,-0.075501,0.061636,0.034669,0.10176,0.094523,-0.023869,0.012306
264,-0.068266,0.047824,0.047166,0.096825,0.088275,-0.02946,0.010991
265,-0.05544,0.032367,0.06065,0.089261,0.071173,-0.035708,0.0060577
266,-0.037682,0.024803,0.065912,0.08367,0.050126,-0.041299,0.0001381
267,-0.018278,0.027763,0.064925,0.077751,0.028421,-0.039984,-0.002164
268,-0.0038083,0.036642,0.059334,0.074791,0.013622,-0.031762,-0.0015062
269,0.0014536,0.047166,0.050455,0.073147,0.0086887,-0.020252,0.0060577
270,-0.0018351,0.053743,0.039273,0.071502,0.0077021,-0.011701,0.018884
271,-0.0087413,0.055059,0.032367,0.070845,0.0077021,-0.0057815,0.033683
272,-0.013674,0.053415,0.03434,0.065912,0.0090175,0.0011247,0.042233
273,-0.013017,0.055059,0.039602,0.054072,0.0070443,0.012635,0.037629
274,-0.0061104,0.058676,0.041575,0.04026,-0.0008485,0.026776,0.023817
275,0.0047422,0.059334,0.040918,0.026776,-0.015976,0.044864,0.010004
276,0.014937,0.052099,0.04026,0.018884,-0.037024,0.059992,0.0011247
277,0.021843,0.042562,0.041904,0.017239,-0.056098,0.068871,0.00046697
278,0.022501,0.034998,0.042891,0.024145,-0.062018,0.070845,0.0093464
279,0.021186,0.030723,0.041247,0.034998,-0.05281,0.067885,0.026776
280,0.01987,0.030394,0.034998,0.045522,-0.032091,0.06065,0.044206
281,0.018226,0.031709,0.027434,0.046508,-0.0067681,0.055388,0.054072
282,0.015595,0.033683,0.020857,0.038287,0.019212,0.054401,0.057361
283,0.012964,0.035656,0.015595,0.027434,0.042233,0.055059,0.059005
284,0.01132,0.036642,0.010333,0.020199,0.06361,0.059334,0.058676
285,0.013951,0.034998,0.0024402,0.014608,0.089261,0.064267,0.059005
286,0.020199,0.030394,-0.0074258,0.011977,0.11787,0.070845,0.063281
287,0.026776,0.027434,-0.012359,0.011648,0.14221,0.077422,0.06624
288,0.034998,0.031709,-0.0093991,0.012635,0.15207,0.081697,0.064596
289,0.045522,0.04322,0.0024402,0.010662,0.14681,0.080711,0.059663
290,0.054401,0.056374,0.018555,0.010333,0.12511,0.076106,0.058676
291,0.061307,0.063938,0.031709,0.014608,0.092221,0.068543,0.061307
292,0.063938,0.065583,0.040918,0.024145,0.057361,0.06065,0.065912
293,0.061965,0.062952,0.045522,0.032367,0.029407,0.052428,0.070516
294,0.06065,0.059334,0.044535,0.036971,0.0096753,0.044864,0.072818
295,0.062952,0.059663,0.0373,0.034011,-0.0054526,0.034669,0.067227
296,0.065912,0.063938,0.02579,0.023488,-0.019923,0.020857,0.053086
297,0.070187,0.0692,0.012635,0.0077021,-0.02946,0.0093464,0.038287
298,0.075449,0.068543,0.0011247,-0.010386,-0.031433,0.0090175,0.029078
299,0.080711,0.061307,-0.0038083,-0.025514,-0.023869,0.020199,0.031709
300,0.078409,0.047824,-0.0015062,-0.035708,-0.0084125,0.032367,0.039602
301,0.066898,0.034998,0.0047422,-0.039655,0.010004,0.039931,0.047166
302,0.049468,0.02875,0.0096753,-0.036366,0.026447,0.037629,0.050126
303,0.031709,0.028092,0.010662,-0.027487,0.038944,0.02579,0.048482
304,0.01987,0.030723,0.0086887,-0.019265,0.044864,0.0086887,0.043877
305,0.020528,0.03434,0.0050711,-0.01499,0.049797,-0.0077547,0.042233
306,0.027763,0.039273,0.0011247,-0.012688,0.059005,-0.011372,0.042891
307,0.037629,0.043549,-0.002164,-0.010386,0.065912,-0.00019077,0.042562
308,0.047166,0.044535,-0.0028217,-0.0077547,0.062623,0.020199,0.036971
309,0.051441,0.040918,-0.0015062,-0.0057815,0.049468,0.039602,0.026447
310,0.04881,0.034011,0.0021113,-0.0080836,0.031381,0.048153,0.014937
311,0.039931,0.026776,0.0093464,-0.011043,0.014937,0.049139,0.0077021
312,0.027434,0.020528,0.016253,-0.0077547,0.0086887,0.049797,0.0086887
313,0.013622,0.012635,0.018555,0.0030979,0.01691,0.053743,0.019541
314,0.0024402,0.0037556,0.017897,0.021186,0.032038,0.059005,0.032367
315,-0.002164,-0.004466,0.012635,0.041575,0.043877,0.063938,0.039931
316,-0.00051963,-0.010057,0.0057288,0.053743,0.044535,0.064267,0.044206
317,0.0021113,-0.010715,0.0014536,0.050126,0.037629,0.061636,0.046508
318,0.0050711,-0.010057,0.0021113,0.036314,0.031709,0.055388,0.050784
319,0.0073732,-0.011043,0.0063866,0.020199,0.028421,0.043877,0.05769
320,0.0093464,-0.0080836,0.010991,0.013951,0.02875,0.027763,0.06361
321,0.010991,-0.0018351,0.017239,0.018555,0.029407,0.013293,0.062623
322,0.014608,0.0054,0.026447,0.030394,0.02579,0.0024402,0.055388
323,0.01987,0.0080309,0.034998,0.041575,0.015266,-0.0084125,0.046837
324,0.027105,0.0080309,0.041247,0.046837,-0.0018351,-0.022883,0.04026
325,0.034669,0.0030979,0.04026,0.04618,-0.021567,-0.037682,0.038287
326,0.042891,-0.0038083,0.035985,0.045193,-0.041299,-0.047219,0.042233
327,0.046508,-0.007097,0.031052,0.047166,-0.055769,-0.051165,0.051441
328,0.04322,-0.0028217,0.027105,0.052099,-0.058729,-0.047877,0.059334
329,0.032367,0.0080309,0.022172,0.058348,-0.046232,-0.040641,0.061965
330,0.013951,0.01987,0.014608,0.061307,-0.018278,-0.033735,0.059992
331,-0.0067681,0.029407,0.0077021,0.064267,0.013951,-0.024856,0.055717
332,-0.025842,0.033354,0.0030979,0.06361,0.038287,-0.012359,0.049139
333,-0.036366,0.030394,0.0040845,0.05769,0.051113,0.0047422,0.042233
334,-0.036366,0.026119,0.012306,0.050455,0.052099,0.018884,0.038616
335,-0.028473,0.024474,0.021843,0.047166,0.046508,0.022501,0.039273
336,-0.014661,0.027763,0.026776,0.047824,0.035656,0.017568,0.041575
337,-0.0008485,0.035985,0.025132,0.049139,0.021843,0.0096753,0.042562
338,0.0080309,0.04322,0.020857,0.05177,0.0093464,0.00079584,0.041247
339,0.0086887,0.047166,0.017568,0.053086,-0.00051963,-0.0067681,0.0373
340,0.0037556,0.044864,0.016581,0.052757,-0.0051238,-0.011043,0.030723
341,-0.0067681,0.040918,0.017239,0.050455,-0.0031506,-0.014003,0.014937
342,-0.014003,0.039602,0.017897,0.046508,0.0030979,-0.019265,-0.0090702
343,-0.013345,0.041904,0.018555,0.042891,0.013622,-0.026171,-0.029789
344,-0.0051238,0.046508,0.018555,0.037629,0.028092,-0.031104,-0.040313
345,0.0044134,0.052757,0.017897,0.032696,0.041575,-0.033406,-0.040641
346,0.012306,0.056046,0.013622,0.026119,0.04618,-0.032091,-0.033735
347,0.016253,0.05177,0.0070443,0.017568,0.041904,-0.031762,-0.025842
348,0.023159,0.039931,-0.00051963,0.010333,0.033354,-0.031104,-0.020581
349,0.032367,0.024474,-0.004466,0.0054,0.026119,-0.025514,-0.016634
350,0.042233,0.013622,-0.0024928,0.0034268,0.023159,-0.014003,-0.011372
351,0.047166,0.013293,0.0047422,0.0063866,0.027434,-0.0015062,-0.0087413
352,0.044535,0.021186,0.014279,0.010662,0.033354,0.0083598,-0.0061104
353,0.038944,0.031709,0.021843,0.011648,0.032367,0.012635,-0.00019077
354,0.032038,0.036971,0.024145,0.010333,0.024145,0.013293,0.0083598
355,0.024803,0.038287,0.024803,0.0093464,0.012964,0.013293,0.016581
356,0.01987,0.039273,0.025132,0.0096753,-0.0015062,0.010991,0.020528
357,0.019541,0.042891,0.025461,0.014279,-0.017621,0.0054,0.021186
358,0.023159,0.045522,0.024474,0.019541,-0.036366,-0.0064392,0.01691
359,0.025132,0.04618,0.021186,0.023159,-0.057085,-0.022883,0.0070443
360,0.023817,0.044535,0.01691,0.021514,-0.074844,-0.036695,-0.0080836
361,0.020528,0.042891,0.01132,0.013622,-0.084381,-0.041957,-0.019594
362,0.017568,0.044535,0.0070443,0.0021113,-0.078132,-0.033735,-0.024198
363,0.016581,0.049797,0.0021113,-0.0064392,-0.054454,-0.019594,-0.022554
364,0.016253,0.054072,-0.0028217,-0.0064392,-0.021896,-0.0077547,-0.01795
365,0.016253,0.054072,-0.0074258,-0.0028217,0.01132,-0.0090702,-0.0061104
366,0.017897,0.051441,-0.012359,0.0001381,0.032038,-0.021567,0.0057288
367,0.020199,0.051441,-0.017292,-0.002164,0.038616,-0.033406,0.010333
368,0.02283,0.054401,-0.021238,-0.0041372,0.034669,-0.03538,0.010004
369,0.027105,0.058348,-0.022225,-0.0038083,0.02283,-0.028144,0.0083598
370,0.035327,0.059005,-0.021567,-0.0008485,0.0090175,-0.020252,0.010991
371,0.047824,0.057361,-0.019265,0.00046697,-0.0015062,-0.010715,0.017239
372,0.06065,0.054401,-0.013674,-0.00051963,-0.0057815,-0.0008485,0.020199
373,0.07216,0.049797,-0.0057815,-0.0038083,-0.0018351,0.0090175,0.016253
374,0.075449,0.043549,0.00079584,-0.0080836,0.0063866,0.022172,0.0040845
375,0.07512,0.0373,0.0044134,-0.011043,0.013622,0.038287,-0.013674
376,0.072818,0.035985,0.0063866,-0.013345,0.020528,0.051441,-0.028473
377,0.0692,0.035985,0.0054,-0.013674,0.023488,0.058676,-0.033735
378,0.064925,0.034998,-0.0015062,-0.014661,0.023159,0.060979,-0.025185
379,0.059992,0.031381,-0.012359,-0.021238,0.020528,0.056046,-0.010057
380,0.053086,0.024803,-0.021567,-0.029131,0.017897,0.04881,0.0037556
381,0.046837,0.019212,-0.021896,-0.03242,0.017897,0.040589,0.0096753
382,0.047166,0.01987,-0.014332,-0.030118,0.02283,0.034011,0.0034268
383,0.052428,0.025132,-0.0028217,-0.02354,0.034998,0.029407,-0.018278
384,0.058019,0.031709,0.0070443,-0.015648,0.050784,0.025461,-0.045903
385,0.061965,0.036971,0.014279,-0.0077547,0.065912,0.020857,-0.065964
386,0.064596,0.0373,0.016253,-0.00051963,0.076764,0.018226,-0.073528
387,0.063281,0.034011,0.013293,0.0060577,0.080053,0.023488,-0.069582
388,0.059992,0.030065,0.010333,0.010333,0.075778,0.033354,-0.054783
389,0.055388,0.024474,0.010333,0.010662,0.063281,0.047166,-0.03538
390,0.047824,0.015924,0.012306,0.010991,0.047166,0.05769,-0.016305
391,0.034669,0.0057288,0.016253,0.01132,0.028092,0.059992,-0.004466
392,0.015924,0.00046697,0.01987,0.014608,0.0086887,0.056046,0.002769
393,-0.0034794,0.002769,0.023159,0.021514,-0.0061104,0.05177,0.0073732
394,-0.01795,0.010333,0.027434,0.028421,-0.012359,0.049797,0.0096753
395,-0.024198,0.015595,0.030065,0.035656,-0.0090702,0.055388,0.0073732
396,-0.024527,0.015595,0.029078,0.044206,0.00046697,0.068214,0.00079584
397,-0.023869,0.0093464,0.023159,0.052428,0.014937,0.081697,-0.0011774
398,-0.024527,-0.00019077,0.016253,0.058019,0.033354,0.091892,0.0030979
399,-0.027816,-0.0084125,0.010991,0.062294,0.049139,0.093536,0.010662
400,-0.032749,-0.013017,0.0070443,0.064267,0.052757,0.087946,0.011648
401,-0.037024,-0.013345,0.0047422,0.065912,0.049139,0.080711,0.010991
402,-0.037024,-0.007097,0.0060577,0.065254,0.044864,0.077751,0.015924
403,-0.033078,0.0030979,0.0093464,0.064267,0.044206,0.076435,0.026776
404,-0.027487,0.013622,0.013293,0.06624,0.038616,0.075449,0.039602
405,-0.025514,0.024474,0.016253,0.0692,0.026447,0.074133,0.051441
406,-0.027158,0.031709,0.015924,0.070187,0.010004,0.071173,0.059334
407,-0.027487,0.033025,0.013951,0.066569,-0.0047949,0.064596,0.061636
408,-0.022225,0.025461,0.012635,0.06065,-0.010715,0.054401,0.058348
409,-0.012359,0.01132,0.013293,0.057032,-0.0064392,0.044206,0.053415
410,0.00046697,-0.0054526,0.01691,0.059334,0.0054,0.033354,0.050455
411,0.013622,-0.018278,0.021843,0.061965,0.018884,0.022501,0.050126
412,0.023159,-0.022554,0.023817,0.06361,0.028421,0.013622,0.050126
413,0.026447,-0.016963,0.018884,0.064267,0.032038,0.0077021,0.052099
414,0.020857,-0.0064392,0.011977,0.066898,0.034011,0.0024402,0.059663
415,0.011977,0.0060577,0.0047422,0.066569,0.035656,0.0011247,0.070187
416,0.0067154,0.016253,0.0037556,0.064267,0.037629,0.0063866,0.07808
417,0.0057288,0.024145,0.011648,0.059663,0.044206,0.017568,0.076435
418,0.010004,0.027105,0.02579,0.053086,0.047824,0.029078,0.066569
419,0.016581,0.026447,0.038616,0.04618,0.046837,0.033025,0.055388
420,0.018555,0.02579,0.043877,0.043877,0.036971,0.02579,0.049468
421,0.015924,0.029407,0.040918,0.045522,0.024474,0.011977,0.052428
422,0.012635,0.032696,0.033025,0.046837,0.0057288,-0.0028217,0.062294
423,0.0070443,0.033683,0.023159,0.042233,-0.015319,-0.014332,0.074791
424,0.0021113,0.030394,0.013951,0.033683,-0.035708,-0.022225,0.08367
425,0.0017824,0.026776,0.0086887,0.028421,-0.051165,-0.024527,0.087288
426,0.0077021,0.024803,0.0073732,0.028421,-0.058729,-0.019594,0.085644
427,0.018555,0.02283,0.0096753,0.032367,-0.058071,-0.011701,0.081368
428,0.033354,0.018884,0.013293,0.031381,-0.051823,-0.0077547,0.075449
429,0.044864,0.014937,0.014279,0.024145,-0.039984,-0.0093991,0.068543
430,0.051113,0.011977,0.012306,0.010991,-0.028473,-0.013674,0.06065
431,0.051441,0.0080309,0.013951,0.0001381,-0.020252,-0.014661,0.05473
432,0.051441,0.0093464,0.020528,0.00079584,-0.015319,-0.0097279,0.050455
433,0.055059,0.018555,0.030723,0.012635,-0.012688,0.0044134,0.047824
434,0.061965,0.032696,0.040918,0.02875,-0.0090702,0.025132,0.050126
435,0.067227,0.04881,0.045851,0.04026,0.0021113,0.046508,0.058676
436,0.071173,0.063281,0.047495,0.043549,0.01987,0.06361,0.072489
437,0.074462,0.071173,0.045522,0.039931,0.035656,0.073147,0.082355
438,0.072489,0.071173,0.039602,0.032696,0.045851,0.071502,0.085644
439,0.063281,0.061307,0.033683,0.024474,0.045522,0.059334,0.080382
440,0.050126,0.044864,0.033683,0.015266,0.036642,0.045193,0.07512
441,0.040918,0.024145,0.035656,0.0073732,0.022501,0.036314,0.070516
442,0.040589,0.0054,0.038287,-0.0028217,0.013293,0.033354,0.06361
443,0.045851,-0.0024928,0.036971,-0.012688,0.017239,0.033683,0.056046
444,0.050455,-0.0011774,0.030723,-0.015648,0.032696,0.033683,0.05473
445,0.053086,0.0047422,0.023488,-0.0087413,0.051441,0.035327,0.058348
446,0.049468,0.012964,0.018555,0.0021113,0.064925,0.035327,0.059992
447,0.043549,0.015924,0.017568,0.010004,0.070187,0.034998,0.05473
448,0.0373,0.012964,0.022501,0.01132,0.06361,0.033683,0.044535
449,0.03434,0.0060577,0.030394,0.0057288,0.050126,0.029736,0.032367
450,0.03434,0.0034268,0.036642,-0.0038083,0.04026,0.021514,0.022501
451,0.038287,-0.00019077,0.034998,-0.010715,0.035985,0.0093464,0.019212
452,0.047166,-0.0034794,0.026447,-0.01203,0.026776,-0.0051238,0.017568
453,0.056374,-0.007097,0.017239,-0.01203,0.0086887,-0.01795,0.011977
454,0.061636,-0.010386,0.010004,-0.011043,-0.01499,-0.026829,0.0011247
455,0.061965,-0.012359,0.0047422,-0.011043,-0.038011,-0.029789,-0.0097279
456,0.06065,-0.012688,0.0044134,-0.012688,-0.054125,-0.031104,-0.018607
457,0.057032,-0.010057,0.0073732,-0.01499,-0.06136,-0.030775,-0.024856
458,0.052099,-0.0057815,0.012306,-0.017292,-0.058729,-0.029789,-0.028802
459,0.045851,-0.0061104,0.01691,-0.015648,-0.053796,-0.028802,-0.033735
460,0.036971,-0.012688,0.020857,-0.011701,-0.050179,-0.030447,-0.040641
461,0.025461,-0.021896,0.026776,-0.0077547,-0.04689,-0.036695,-0.049521
462,0.01691,-0.025842,0.033683,-0.0057815,-0.044588,-0.044588,-0.0584
463,0.012635,-0.024527,0.040589,-0.0067681,-0.046232,-0.050507,-0.068595
464,0.012306,-0.019594,0.044535,-0.010057,-0.047548,-0.048534,-0.076817
465,0.01132,-0.012688,0.043877,-0.013017,-0.041957,-0.038668,-0.081092
466,0.0096753,-0.007097,0.038944,-0.011372,-0.027487,-0.027816,-0.07879
467,0.0057288,-0.0067681,0.030394,-0.0057815,-0.0090702,-0.021567,-0.069911
468,0.0017824,-0.011701,0.021186,0.002769,0.0077021,-0.024198,-0.056427
469,0.0001381,-0.018278,0.013951,0.010991,0.015266,-0.034064,-0.047219
470,0.0017824,-0.018278,0.0096753,0.012306,0.013951,-0.04985,-0.044917
471,0.0040845,-0.011372,0.010991,0.010333,0.0040845,-0.066951,-0.045574
472,0.002769,-0.0024928,0.015924,0.0096753,-0.0074258,-0.081421,-0.047219
473,-0.0008485,0.0030979,0.021186,0.013622,-0.020909,-0.091945,-0.045574
474,-0.0064392,0.0047422,0.024145,0.020199,-0.033078,-0.096549,-0.040313
475,-0.012359,0.0011247,0.023817,0.023488,-0.041957,-0.096878,-0.032091
476,-0.015976,-0.0028217,0.018884,0.024145,-0.042615,-0.092931,-0.020909
477,-0.019594,-0.0041372,0.013293,0.027105,-0.033406,-0.085039,-0.0077547
478,-0.024198,-0.0015062,0.0083598,0.031381,-0.020909,-0.077475,0.002769
479,-0.030447,0.0050711,0.0063866,0.034011,-0.0097279,-0.069253,0.0090175
480,-0.039326,0.012635,0.0083598,0.03434,-0.0064392,-0.060702,0.0080309
481,-0.045246,0.019212,0.015266,0.030723,-0.010715,-0.051165,0.0047422
482,-0.041957,0.023159,0.020857,0.025132,-0.020909,-0.044588,-0.0008485
483,-0.030118,0.023817,0.024803,0.021514,-0.032091,-0.042615,-0.0051238
484,-0.014332,0.023159,0.024474,0.020528,-0.041957,-0.044917,-0.0047949
485,-0.002164,0.020199,0.020528,0.022501,-0.048534,-0.049521,-0.0008485
486,0.0037556,0.020199,0.012964,0.02875,-0.044588,-0.049192,0.0067154
487,0.0047422,0.027434,0.0060577,0.038944,-0.031433,-0.038668,0.021514
488,0.0077021,0.041904,0.0034268,0.055059,-0.0074258,-0.020252,0.039602
489,0.010991,0.056046,0.0073732,0.080382,0.027105,0.0047422,0.057032
490,0.015266,0.060979,0.018226,0.10768,0.065912,0.030065,0.072489
491,0.020199,0.055059,0.032038,0.12445,0.10274,0.051113,0.081697
492,0.024474,0.043877,0.041575,0.12248,0.12577,0.066569,0.081039
493,0.027763,0.031381,0.041247,0.10636,0.1284,0.068871,0.076106
494,0.030394,0.025132,0.033354,0.085644,0.11261,0.06065,0.0692
495,0.033025,0.023159,0.023488,0.0692,0.082026,0.047824,0.059334
496,0.035327,0.01987,0.01691,0.060321,0.045193,0.036314,0.048482
497,0.03434,0.017897,0.014937,0.057032,0.015266,0.030065,0.036642
498,0.028092,0.022172,0.015924,0.058019,-0.0024928,0.032367,0.031709
499,0.018884,0.032696,0.017568,0.064596,-0.0077547,0.045851,0.036971
500,0.01132,0.041575,0.017897,0.076764,-0.0067681,0.069529,0.048153
501,0.0067154,0.045193,0.016581,0.08663,-0.00051963,0.096167,0.064267
502,0.0063866,0.045193,0.017897,0.085315,0.010662,0.11491,0.078737
503,0.0067154,0.045851,0.021514,0.073476,0.019212,0.11623,0.086959
504,0.010333,0.044864,0.024474,0.058676,0.01987,0.10077,0.086301
505,0.014937,0.039602,0.026447,0.048153,0.01132,0.076106,0.078409
506,0.018555,0.029078,0.02875,0.042562,-0.0034794,0.05177,0.063281
507,0.017897,0.018555,0.029736,0.037629,-0.020252,0.032367,0.047824
508,0.012964,0.0096753,0.027763,0.032038,-0.035051,0.020528,0.04026
509,0.0054,0.0017824,0.01987,0.024803,-0.051494,0.012635,0.040589
510,-0.0038083,-0.004466,0.0090175,0.015924,-0.066951,0.0030979,0.047166
511,-0.013674,-0.0080836,-0.0018351,0.0060577,-0.077803,-0.0077547,0.058019
512,-0.020581,-0.011043,-0.0084125,0.00046697,-0.082079,-0.016963,0.071173
513,-0.020581,-0.013345,-0.010715,0.00079584,-0.079448,-0.022554,0.083013
514,-0.017292,-0.012688,-0.007097,0.0037556,-0.070897,-0.0265,0.085315
515,-0.015319,-0.0034794,0.00046697,0.0057288,-0.059716,-0.023211,0.079066
516,-0.01203,0.011977,0.010333,0.0077021,-0.044588,-0.0097279,0.070516
517,-0.0057815,0.028092,0.021843,0.0054,-0.021238,0.013622,0.064267
518,0.0040845,0.039602,0.033025,-0.0015062,0.0080309,0.042891,0.060321
519,0.014608,0.04618,0.036971,-0.0097279,0.0373,0.065912,0.059334
520,0.024474,0.051113,0.033683,-0.014332,0.064925,0.079724,0.061307
521,0.03434,0.058348,0.024803,-0.014332,0.080711,0.085315,0.059992
522,0.038616,0.064596,0.016253,-0.011043,0.081368,0.080382,0.052428
523,0.036314,0.067556,0.0086887,-0.0041372,0.071831,0.068543,0.039931
524,0.026776,0.063281,0.0040845,0.0017824,0.061965,0.057361,0.024145
525,0.012964,0.056374,0.002769,0.0047422,0.059992,0.05177,0.0034268
526,0.00046697,0.04881,0.0050711,-0.00019077,0.063281,0.051113,-0.01795
527,-0.0087413,0.041247,0.0080309,-0.0080836,0.068871,0.051113,-0.035051
528,-0.012359,0.035656,0.0080309,-0.01203,0.069858,0.044206,-0.04393
529,-0.010386,0.037629,0.0070443,-0.013674,0.065912,0.030723,-0.047877
530,-0.0051238,0.047824,0.0054,-0.01795,0.053415,0.013293,-0.051165
531,0.00046697,0.062623,0.0040845,-0.025514,0.036971,0.0011247,-0.059058
532,0.0017824,0.076106,0.0057288,-0.028802,0.018226,-0.0031506,-0.06728
533,-0.002164,0.08663,0.010991,-0.024198,0.0063866,-0.0031506,-0.075501
534,-0.0080836,0.093208,0.017568,-0.01499,0.0047422,-0.00019077,-0.080434
535,-0.011043,0.09255,0.01987,-0.0041372,0.015924,0.0044134,-0.082736
536,-0.010386,0.084986,0.014937,0.0060577,0.038616,0.011977,-0.083394
537,-0.004466,0.073147,0.0050711,0.015595,0.069858,0.020528,-0.080763
538,0.0034268,0.064925,-0.004466,0.023488,0.10472,0.030723,-0.078132
539,0.012635,0.065254,-0.0090702,0.02875,0.13267,0.038287,-0.071884
540,0.023817,0.073476,-0.0084125,0.030065,0.14254,0.0373,-0.059058
541,0.036314,0.085644,-0.0057815,0.028092,0.12971,0.027105,-0.041299
542,0.043877,0.095839,-0.00019077,0.023159,0.096496,0.013951,-0.0265
543,0.046837,0.1011,0.0067154,0.011977,0.05473,0.0047422,-0.018278
544,0.046837,0.10044,0.012964,-0.00051963,0.017568,0.0030979,-0.018278
545,0.045522,0.094194,0.015924,-0.011701,-0.007097,0.0070443,-0.018278
546,0.045193,0.086959,0.014937,-0.018936,-0.019594,0.013293,-0.010715
547,0.045851,0.079395,0.01132,-0.021567,-0.023211,0.019212,0.00046697
548,0.04881,0.072489,0.0054,-0.020252,-0.018936,0.020199,0.0093464
549,0.049468,0.06624,-0.00019077,-0.016963,-0.007097,0.017897,0.010333
550,0.050126,0.066569,-0.0024928,-0.014661,0.013622,0.014937,0.0067154
551,0.051441,0.073476,-0.00019077,-0.011372,0.038616,0.011648,0.0034268
552,0.054401,0.081697,0.0044134,-0.0041372,0.064267,0.0096753,0.0077021
553,0.053743,0.090905,0.010991,0.010662,0.085315,0.0093464,0.024145
554,0.049139,0.097483,0.016253,0.031381,0.10209,0.010991,0.046837
555,0.044864,0.1034,0.020199,0.056374,0.11491,0.012964,0.067885
556,0.040918,0.10669,0.026119,0.080711,0.12215,0.014608,0.081039
557,0.036642,0.10143,0.033354,0.1011,0.12116,0.012306,0.086301
558,0.033354,0.090248,0.035327,0.11458,0.11064,0.0070443,0.085315
559,0.029407,0.075778,0.031052,0.11754,0.093536,-0.0018351,0.082355
560,0.024803,0.060979,0.02283,0.10932,0.069858,-0.0087413,0.081697
561,0.016253,0.04881,0.012635,0.090905,0.046508,-0.011701,0.080711
562,0.0030979,0.041575,0.0077021,0.070187,0.025132,-0.010057,0.076764
563,-0.0084125,0.035985,0.010662,0.053743,0.0093464,-0.0034794,0.069529
564,-0.01203,0.029407,0.014937,0.040918,-0.0051238,0.0083598,0.06065
565,-0.007097,0.023159,0.017239,0.031709,-0.023211,0.026776,0.056046
566,0.00046697,0.017568,0.013951,0.024474,-0.04689,0.05177,0.058019
567,0.0070443,0.015924,0.0093464,0.020528,-0.078461,0.083013,0.065912
568,0.012306,0.013293,0.0050711,0.018226,-0.11595,0.11623,0.075449
569,0.014608,0.0063866,0.0001381,0.016581,-0.14851,0.15109,0.084328
570,0.017568,-0.00019077,-0.0067681,0.020528,-0.17416,0.18529,0.094194
571,0.021843,-0.0024928,-0.014332,0.028421,-0.1883,0.21324,0.10143
572,0.023817,-0.0011774,-0.016963,0.038944,-0.19554,0.23035,0.10603
573,0.024145,-0.0015062,-0.014332,0.049468,-0.19455,0.231,0.10834
574,0.026447,-0.0015062,-0.0087413,0.057032,-0.18337,0.21094,0.10702
575,0.033683,-0.0008485,-0.0041372,0.060321,-0.15575,0.17214,0.10274
576,0.038616,0.0037556,0.00079584,0.061965,-0.10378,0.12281,0.098141
577,0.039931,0.010991,0.0044134,0.067885,-0.021896,0.078409,0.094852
578,0.038287,0.018226,0.0070443,0.082355,0.089261,0.056374,0.095181
579,0.034669,0.023159,0.010662,0.10176,0.21555,0.062294,0.10077
580,0.031709,0.024803,0.016253,0.12083,0.32637,0.089261,0.10702
581,0.032038,0.01987,0.023817,0.1284,0.38721,0.11985,0.10965
582,0.033683,0.0077021,0.033025,0.12379,0.38426,0.13366,0.10274
583,0.03434,-0.0061104,0.041575,0.11064,0.32341,0.12511,0.088932
584,0.036314,-0.015648,0.043877,0.093865,0.23133,0.099785,0.074791
585,0.039602,-0.020581,0.039273,0.080711,0.14155,0.071831,0.062952
586,0.042233,-0.018278,0.031709,0.0692,0.076435,0.052757,0.054072
587,0.04322,-0.011701,0.026119,0.061636,0.04618,0.050126,0.044206
588,0.04618,-0.0051238,0.022172,0.058019,0.044206,0.060321,0.032038
589,0.050455,-0.0011774,0.015595,0.056046,0.058019,0.076764,0.022501
590,0.058676,-0.00019077,0.0083598,0.050126,0.070516,0.090248,0.013622
591,0.070845,-0.0041372,0.0044134,0.039273,0.073476,0.090905,0.0077021
592,0.081368,-0.0084125,0.0073732,0.027434,0.062952,0.075778,0.0047422
593,0.083342,-0.0093991,0.015266,0.015924,0.042562,0.04881,0.0047422
594,0.074791,-0.0093991,0.025461,0.0073732,0.016581,0.013293,0.0077021
595,0.059992,-0.0074258,0.034998,0.0030979,-0.0093991,-0.025185,0.0073732
596,0.04618,-0.0024928,0.037629,0.0077021,-0.034064,-0.061689,0.00079584
597,0.036642,0.00079584,0.034011,0.016581,-0.053796,-0.089972,-0.0074258
598,0.032367,-0.0018351,0.029407,0.023488,-0.067937,-0.11102,-0.016305
599,0.032367,-0.011043,0.024803,0.023817,-0.074515,-0.12384,-0.019923
600,0.035656,-0.022883,0.020199,0.0096753,-0.076159,-0.13108,-0.018607
601,0.039273,-0.027158,0.01691,-0.016634,-0.071555,-0.13864,-0.017292
602,0.042562,-0.022883,0.016581,-0.046232,-0.066622,-0.14785,-0.013674
603,0.046508,-0.014332,0.019541,-0.068266,-0.061689,-0.15805,-0.011701
604,0.051113,-0.0057815,0.020857,-0.078461,-0.050507,-0.16298,-0.013345
605,0.054072,-0.0028217,0.017239,-0.077475,-0.03538,-0.16002,-0.017621
606,0.054401,-0.0074258,0.0086887,-0.068266,-0.020252,-0.14818,-0.020909
607,0.052099,-0.014003,0.00079584,-0.057743,-0.014661,-0.13536,-0.024856
608,0.042233,-0.018936,-0.0054526,-0.046561,-0.02354,-0.12516,-0.026829
609,0.026447,-0.019265,-0.004466,-0.036366,-0.036366,-0.11628,-0.025185
610,0.0096753,-0.014003,-0.00019077,-0.02946,-0.041957,-0.10313,-0.022883
611,-0.0008485,-0.0084125,0.0044134,-0.02946,-0.035051,-0.084052,-0.019594
612,-0.0034794,-0.0047949,0.0063866,-0.036037,-0.016963,-0.054783,-0.015319
613,0.0001381,-0.0064392,0.0063866,-0.044259,0.0083598,-0.018607,-0.013017
614,0.0054,-0.01203,0.0073732,-0.049192,0.032038,0.017239,-0.012688
615,0.0073732,-0.018278,0.0090175,-0.049521,0.046508,0.039931,-0.014003
616,0.0040845,-0.022554,0.010991,-0.042615,0.046508,0.044864,-0.015976
617,-0.002164,-0.025185,0.0096753,-0.028144,0.033683,0.036314,-0.01795
618,-0.0077547,-0.026171,0.0096753,-0.010057,0.012635,0.018555,-0.018936
619,-0.0087413,-0.021567,0.011648,0.0040845,-0.010057,-0.0051238,-0.022554
620,-0.0064392,-0.011043,0.016581,0.0096753,-0.031104,-0.029789,-0.028144
621,-0.0034794,0.0040845,0.021186,0.010991,-0.047548,-0.05281,-0.032749
622,-0.0031506,0.017568,0.022172,0.0096753,-0.059716,-0.07287,-0.034064
623,-0.0031506,0.024145,0.021186,0.0034268,-0.07024,-0.091945,-0.030447
624,-0.0015062,0.025461,0.016581,-0.0054526,-0.079448,-0.10806,-0.022225
625,0.002769,0.024803,0.011648,-0.011701,-0.086025,-0.12056,-0.011372
626,0.0093464,0.024474,0.0083598,-0.01203,-0.089643,-0.12615,-0.0008485
627,0.014937,0.027105,0.010004,-0.0057815,-0.089643,-0.12056,0.0034268
628,0.018884,0.030065,0.014937,0.0057288,-0.088327,-0.10576,-0.0054526
629,0.018884,0.033025,0.022172,0.017897,-0.086025,-0.086354,-0.02354
630,0.012306,0.035327,0.025132,0.022501,-0.085696,-0.06728,-0.039326
631,-0.0034794,0.035327,0.020857,0.017239,-0.086354,-0.051494,-0.045574
632,-0.022883,0.031709,0.01132,0.0054,-0.086354,-0.04393,-0.038668
633,-0.039655,0.025132,0.0040845,-0.0051238,-0.077146,-0.044259,-0.024198
634,-0.047219,0.020528,0.0050711,-0.007097,-0.059058,-0.047877,-0.011043
635,-0.046561,0.017897,0.010333,0.002769,-0.034064,-0.050179,-0.0024928
636,-0.040641,0.01691,0.012964,0.022172,-0.0064392,-0.04985,0.00079584
637,-0.036695,0.015924,0.011648,0.037958,0.015266,-0.048534,0.0021113
638,-0.036695,0.013951,0.0060577,0.044864,0.019212,-0.045903,0.0047422
639,-0.042615,0.010333,0.002769,0.043877,0.0037556,-0.045903,0.0096753
640,-0.050179,0.0034268,0.0024402,0.037629,-0.023869,-0.045574,0.014608
641,-0.053467,-0.0064392,0.0021113,0.029407,-0.055112,-0.045246,0.012964
642,-0.048534,-0.012688,0.0017824,0.023817,-0.077146,-0.043601,0.0044134
643,-0.040641,-0.011043,0.0017824,0.023488,-0.082736,-0.044588,-0.0024928
644,-0.035708,-0.0041372,0.0030979,0.030394,-0.074186,-0.04689,-0.0011774
645,-0.03538,0.0017824,0.0030979,0.044864,-0.061689,-0.050836,0.0086887
646,-0.041957,0.0017824,0.0040845,0.061965,-0.05544,-0.053796,0.018884
647,-0.05544,-0.0038083,0.0060577,0.071502,-0.062018,-0.056427,0.024145
648,-0.069253,-0.013017,0.0073732,0.07216,-0.07583,-0.0584,0.020857
649,-0.075173,-0.021896,0.0080309,0.066569,-0.084381,-0.057085,0.015266
650,-0.069582,-0.023211,0.010662,0.062294,-0.083723,-0.050836,0.013293
651,-0.057085,-0.014003,0.017239,0.062623,-0.074844,-0.035708,0.017239
652,-0.042944,-0.00051963,0.02875,0.068214,-0.063991,-0.015648,0.023488
653,-0.027487,0.0086887,0.038616,0.082684,-0.054125,0.0034268,0.032696
654,-0.0087413,0.013293,0.045193,0.098469,-0.047219,0.015924,0.04618
655,0.012635,0.013622,0.04618,0.11162,-0.04689,0.019212,0.058348
656,0.031381,0.014279,0.04026,0.11754,-0.052481,0.014608,0.066569
657,0.042233,0.017897,0.032367,0.11689,-0.057085,0.0070443,0.0692
658,0.04618,0.022172,0.027763,0.11162,-0.051494,0.0054,0.065912
659,0.041575,0.021843,0.027763,0.10307,-0.026171,0.010662,0.05769
660,0.033683,0.016253,0.032367,0.094523,0.017568,0.014937,0.044864
661,0.027763,0.0060577,0.039602,0.090577,0.069858,0.014608,0.031709
662,0.027105,-0.00019077,0.047824,0.089261,0.11721,0.013622,0.023159
663,0.035327,0.0034268,0.053415,0.09255,0.15142,0.018884,0.024145
664,0.048153,0.015924,0.056046,0.095181,0.16457,0.030723,0.034011
665,0.059992,0.02579,0.052757,0.09255,0.15306,0.040918,0.051113
666,0.065912,0.028092,0.047495,0.080053,0.12478,0.04618,0.066569
667,0.064596,0.02579,0.041247,0.059334,0.091234,0.045522,0.073147
668,0.059334,0.023159,0.038287,0.036314,0.062952,0.04026,0.068214
669,0.055388,0.021186,0.036971,0.012964,0.046837,0.033025,0.058019
670,0.055388,0.020199,0.034669,-0.0051238,0.038944,0.028421,0.050126
671,0.061307,0.021843,0.030394,-0.01499,0.033025,0.02875,0.051113
672,0.067885,0.029078,0.024474,-0.016634,0.026447,0.034011,0.059992
673,0.070845,0.04026,0.01987,-0.0087413,0.020528,0.043549,0.071831
674,0.065254,0.054072,0.018884,0.0067154,0.018555,0.058348,0.080053
675,0.054072,0.063938,0.024474,0.024145,0.020528,0.073147,0.080711
676,0.042233,0.068871,0.030394,0.03434,0.024474,0.083342,0.076106
677,0.036642,0.067227,0.03434,0.036314,0.031709,0.088932,0.068543
678,0.0373,0.058348,0.033354,0.032038,0.041904,0.089919,0.060979
679,0.041247,0.047166,0.029407,0.026119,0.053415,0.08663,0.056046
680,0.044864,0.037629,0.022501,0.023817,0.06065,0.081697,0.052099
681,0.048482,0.035327,0.015595,0.025132,0.065912,0.077093,0.047495
682,0.054401,0.039602,0.01132,0.022501,0.070516,0.075449,0.04026
683,0.059663,0.04618,0.010662,0.015266,0.074791,0.073476,0.029078
684,0.062623,0.049468,0.014608,0.0067154,0.074462,0.069529,0.015595
685,0.064596,0.047824,0.019541,-0.0051238,0.062623,0.064596,0.0060577
686,0.066569,0.045193,0.021186,-0.018607,0.046508,0.061965,0.0001381
687,0.067227,0.044864,0.019212,-0.02946,0.029736,0.06065,-0.0011774
688,0.071173,0.047824,0.016581,-0.034722,0.018884,0.063281,0.00046697
689,0.07512,0.052099,0.012964,-0.036037,0.018555,0.0692,0.002769
690,0.07808,0.055717,0.010333,-0.033735,0.029078,0.07216,-0.0011774
691,0.081697,0.052757,0.0073732,-0.033735,0.041904,0.068543,-0.0064392
692,0.084328,0.045522,0.0050711,-0.03538,0.046837,0.061636,-0.0093991
693,0.081697,0.036971,0.0054,-0.040313,0.04322,0.056703,-0.0061104
694,0.077751,0.033354,0.0093464,-0.047548,0.037629,0.052757,0.0014536
695,0.073147,0.036642,0.012964,-0.054454,0.033025,0.046508,0.011977
696,0.071173,0.047495,0.015266,-0.059387,0.031709,0.038944,0.018884
697,0.071502,0.055717,0.015266,-0.057743,0.034669,0.037958,0.016581
698,0.067885,0.056703,0.013951,-0.045574,0.044206,0.04618,0.0063866
699,0.059005,0.053086,0.0096753,-0.026829,0.059992,0.061636,-0.0024928
700,0.050126,0.051113,0.0070443,-0.0057815,0.077093,0.079066,-0.0090702
701,0.04618,0.055059,0.0040845,0.0096753,0.086959,0.092221,-0.0080836
702,0.048482,0.064596,0.0014536,0.020199,0.085972,0.097483,0.00046697
703,0.052428,0.075449,-0.0011774,0.029736,0.075449,0.093536,0.013622
704,0.055717,0.080053,-0.0018351,0.036971,0.059005,0.085315,0.027763
705,0.057032,0.077093,0.0001381,0.038287,0.041247,0.07216,0.0373
706,0.058676,0.068871,0.0030979,0.034998,0.024803,0.057032,0.04026
707,0.055388,0.055388,0.0077021,0.030065,0.011648,0.043549,0.036971
708,0.044206,0.041247,0.010991,0.024474,-0.0028217,0.034669,0.028092
709,0.030065,0.027434,0.014608,0.016253,-0.029131,0.027434,0.018555
710,0.015924,0.022172,0.014937,0.0086887,-0.072542,0.023488,0.012964
711,0.0060577,0.023488,0.011977,0.0024402,-0.12056,0.021514,0.015924
712,0.0001381,0.030065,0.010991,-0.0047949,-0.16101,0.02283,0.02579
713,-0.0015062,0.039273,0.010333,-0.0087413,-0.1883,0.026776,0.039273
714,-0.00019077,0.046837,0.010662,-0.0077547,-0.20475,0.031052,0.051441
715,0.0011247,0.046508,0.015924,-0.00051963,-0.20409,0.035327,0.05769
716,-0.00019077,0.040589,0.022501,0.012306,-0.18238,0.041904,0.057361
717,-0.0038083,0.030394,0.024145,0.028092,-0.1393,0.042233,0.052757
718,-0.0054526,0.01691,0.019212,0.040589,-0.080106,0.032038,0.048482
719,-0.0064392,0.0047422,0.013951,0.045851,-0.013674,0.013622,0.043549
720,-0.0080836,-0.0028217,0.0093464,0.044206,0.04881,-0.0031506,0.041575
721,-0.014003,-0.0057815,0.0060577,0.0373,0.10307,-0.010715,0.039602
722,-0.021238,-0.0031506,-0.00019077,0.029736,0.14714,-0.0034794,0.036642
723,-0.030118,0.0017824,-0.0087413,0.027105,0.18759,0.016253,0.031052
724,-0.04097,0.0080309,-0.018607,0.030394,0.22607,0.042233,0.024803
725,-0.050179,0.010991,-0.02354,0.041247,0.2583,0.064925,0.020199
726,-0.052481,0.0086887,-0.020581,0.059005,0.28231,0.076106,0.018884
727,-0.046561,0.0047422,-0.011701,0.081697,0.30434,0.073476,0.021843
728,-0.036695,0.0030979,-0.0011774,0.099127,0.31881,0.06624,0.025461
729,-0.0265,0.0070443,0.0090175,0.10636,0.32374,0.058348,0.030394
730,-0.020252,0.012635,0.015266,0.10373,0.31355,0.050455,0.037958
731,-0.019923,0.015266,0.014937,0.093865,0.28987,0.045522,0.043877
732,-0.025185,0.013293,0.0083598,0.082026,0.2629,0.04322,0.044864
733,-0.034064,0.010004,-0.002164,0.073476,0.23626,0.043549,0.042891
734,-0.04393,0.0090175,-0.0077547,0.069529,0.2116,0.047166,0.04026
735,-0.051494,0.011977,-0.0041372,0.068871,0.18693,0.053415,0.041247
736,-0.053796,0.020857,0.0080309,0.067227,0.16194,0.061965,0.045522
737,-0.04985,0.026776,0.020528,0.061636,0.14221,0.072489,0.05177
738,-0.041299,0.024474,0.027105,0.05473,0.12807,0.088932,0.058676
739,-0.02946,0.015266,0.027105,0.050455,0.11754,0.11228,0.061307
740,-0.015976,0.0063866,0.025461,0.050126,0.10866,0.13333,0.055059
741,-0.002164,0.0050711,0.026447,0.054072,0.098798,0.14254,0.043877
742,0.0086887,0.012635,0.031709,0.062952,0.079395,0.13596,0.034011
743,0.01691,0.023159,0.038616,0.071173,0.050126,0.11327,0.029736
744,0.023817,0.034011,0.043549,0.078737,0.013293,0.079066,0.034011
745,0.030065,0.042562,0.042562,0.083342,-0.028802,0.043549,0.042233
746,0.034669,0.047166,0.0373,0.085972,-0.068266,0.014937,0.056374
747,0.042562,0.050126,0.031052,0.086959,-0.09622,-0.0015062,0.069529
748,0.050126,0.053743,0.024803,0.08663,-0.10937,-0.0077547,0.07216
749,0.055388,0.053086,0.017239,0.081039,-0.10905,-0.004466,0.062623
750,0.055717,0.044864,0.0057288,0.069529,-0.098522,0.0034268,0.047166
751,0.052757,0.031052,-0.0024928,0.053086,-0.088656,0.0096753,0.035327
752,0.050784,0.016253,-0.0047949,0.036971,-0.089643,0.013622,0.033354
753,0.049468,0.0063866,-0.00051963,0.025461,-0.099838,0.010662,0.041904
754,0.048482,0.0050711,0.0060577,0.018555,-0.10773,0.0073732,0.049797
755,0.046508,0.013293,0.013293,0.013293,-0.10543,0.0050711,0.049468
756,0.044535,0.024145,0.015266,0.0080309,-0.091616,0.0044134,0.039273
757,0.041247,0.029736,0.012306,0.00046697,-0.071884,0.0096753,0.023159
758,0.0373,0.028092,0.0057288,-0.0077547,-0.054125,0.01691,0.0040845
759,0.033683,0.020199,-0.00051963,-0.018607,-0.04393,0.020857,-0.012359
760,0.03434,0.011977,-0.0024928,-0.028144,-0.04393,0.018555,-0.0265
761,0.036642,0.0070443,-0.00051963,-0.035708,-0.051823,0.015595,-0.036695
762,0.039273,0.0040845,0.0034268,-0.042286,-0.062676,0.010662,-0.042286
763,0.038287,0.0014536,0.0077021,-0.047877,-0.074186,0.0017824,-0.045903
764,0.032696,0.0017824,0.010662,-0.04985,-0.079448,-0.0084125,-0.046232
765,0.024474,0.0073732,0.014608,-0.048863,-0.077475,-0.014003,-0.042286
766,0.018555,0.013293,0.017897,-0.045574,-0.067609,-0.013345,-0.034722
767,0.018884,0.017897,0.018884,-0.038668,-0.054783,-0.0064392,-0.025842
768,0.029078,0.019212,0.018226,-0.029789,-0.045246,0.0017824,-0.021896
769,0.042233,0.019541,0.018884,-0.019594,-0.042944,0.0057288,-0.025185
770,0.053743,0.01987,0.020528,-0.0087413,-0.047548,-0.00019077,-0.031762
771,0.057361,0.021514,0.022172,0.0011247,-0.05544,-0.01499,-0.03538
772,0.052757,0.02579,0.01987,0.0057288,-0.064649,-0.038668,-0.029131
773,0.043877,0.032696,0.014279,0.0021113,-0.074844,-0.064978,-0.016634
774,0.033683,0.039273,0.012306,-0.0097279,-0.085367,-0.084381,-0.0024928
775,0.02579,0.044535,0.015266,-0.023211,-0.094247,-0.098851,0.0080309
776,0.017568,0.045193,0.020528,-0.031762,-0.095233,-0.1051,0.0073732
777,0.010004,0.040589,0.025132,-0.03242,-0.087341,-0.1028,-0.002164
778,0.0050711,0.039273,0.02875,-0.028802,-0.073857,-0.095562,-0.013674
779,0.0024402,0.044206,0.031052,-0.02354,-0.061031,-0.087998,-0.020581
780,0.0014536,0.054072,0.030394,-0.018936,-0.056427,-0.082079,-0.021896
781,0.00079584,0.064267,0.026776,-0.014332,-0.066951,-0.079119,-0.018936
782,-0.00019077,0.071173,0.021514,-0.0090702,-0.087669,-0.07879,-0.01203
783,0.002769,0.075449,0.014937,-0.0077547,-0.11036,-0.082408,-0.0041372
784,0.0093464,0.076106,0.0096753,-0.013674,-0.12812,-0.088985,0.0014536
785,0.013293,0.071831,0.0030979,-0.023869,-0.13437,-0.095233,0.0060577
786,0.013293,0.064267,-0.0015062,-0.031762,-0.13272,-0.09622,0.0090175
787,0.010662,0.055388,-0.0034794,-0.027487,-0.12417,-0.091945,0.012635
788,0.0090175,0.050784,-0.002164,-0.010386,-0.11168,-0.079777,0.018884
789,0.01132,0.051113,0.0017824,0.011977,-0.095562,-0.061689,0.025461
790,0.014608,0.053415,0.0063866,0.030394,-0.073857,-0.037682,0.026119
791,0.016581,0.05177,0.0080309,0.042562,-0.046232,-0.011043,0.016581
792,0.016253,0.045522,0.0077021,0.048482,-0.011372,0.013293,0.0034268
793,0.013951,0.036971,0.0073732,0.050455,0.029407,0.028421,-0.0067681
794,0.0096753,0.02875,0.01132,0.052099,0.075778,0.035985,-0.010057
795,0.00046697,0.023817,0.021186,0.054072,0.11557,0.038287,-0.0097279
796,-0.0067681,0.021186,0.034669,0.056046,0.14056,0.0373,-0.0090702
797,-0.010057,0.021186,0.04322,0.056046,0.14287,0.032038,-0.007097
798,-0.0067681,0.026776,0.041904,0.055388,0.12412,0.022172,-0.0064392
799,0.00079584,0.038616,0.03434,0.055059,0.091234,0.0083598,-0.0057815
800,0.010004,0.051441,0.01987,0.059005,0.050455,-0.010715,-0.0034794
801,0.019212,0.058019,0.0073732,0.062952,0.0037556,-0.029789,-0.0008485
802,0.025132,0.053743,0.0030979,0.064925,-0.038011,-0.04393,-0.00051963
803,0.02579,0.040918,0.0083598,0.062952,-0.065307,-0.046561,-0.0024928
804,0.019212,0.02579,0.018226,0.057032,-0.074844,-0.035051,-0.0041372
805,0.0077021,0.015595,0.024803,0.051113,-0.07024,-0.015319,-0.0041372
806,-0.0008485,0.011977,0.026447,0.04618,-0.059058,-0.00051963,-0.002164
807,-0.0054526,0.013622,0.023159,0.04618,-0.045903,0.00079584,0.00046697
808,-0.0061104,0.016253,0.017239,0.04881,-0.031433,-0.0093991,0.0057288
809,-0.0067681,0.016253,0.0096753,0.054401,-0.017621,-0.019265,0.010991
810,-0.0061104,0.015924,0.0063866,0.059992,-0.0080836,-0.020909,0.013622
811,-0.0031506,0.017239,0.010662,0.063281,-0.0008485,-0.015648,0.016253
812,0.0014536,0.020199,0.017239,0.062294,0.0080309,-0.0034794,0.021843
813,0.0034268,0.021186,0.022172,0.054401,0.020528,0.0060577,0.024803
814,-0.00019077,0.020528,0.023159,0.039931,0.036314,0.0077021,0.025132
815,-0.0054526,0.022172,0.019541,0.026447,0.053743,0.0034268,0.026119
816,-0.0077547,0.024803,0.013293,0.017897,0.071502,-0.0054526,0.033025
817,-0.0074258,0.026776,0.0047422,0.020199,0.081039,-0.015976,0.043549
818,-0.0011774,0.023817,-0.0031506,0.029078,0.079724,-0.020909,0.053086
819,0.0096753,0.014937,-0.0061104,0.0373,0.071173,-0.011372,0.059334
820,0.020528,0.0077021,-0.0031506,0.044206,0.059663,0.0093464,0.05473
821,0.031052,0.0060577,0.0057288,0.049797,0.053743,0.034669,0.044535
822,0.039273,0.0050711,0.017897,0.054072,0.053415,0.059005,0.032696
823,0.04618,0.0037556,0.029407,0.058348,0.056046,0.075449,0.027434
824,0.049139,0.0030979,0.036642,0.059992,0.058019,0.081039,0.030065
825,0.049468,0.0044134,0.036971,0.058019,0.056374,0.07808,0.039931
826,0.048482,0.0080309,0.035327,0.052428,0.051441,0.070187,0.053415
827,0.048153,0.015924,0.03434,0.046508,0.044206,0.061307,0.062623
828,0.047495,0.021186,0.037629,0.044206,0.038616,0.052099,0.060321
829,0.044535,0.018226,0.041575,0.042562,0.036642,0.045522,0.052757
830,0.040589,0.0021113,0.043877,0.041575,0.038616,0.04026,0.043877
831,0.037958,-0.019594,0.043549,0.043549,0.046508,0.035656,0.037629
832,0.039273,-0.030447,0.041575,0.047824,0.055388,0.027763,0.032367
833,0.046508,-0.027158,0.0373,0.052757,0.061636,0.017897,0.026776
834,0.05769,-0.014661,0.028421,0.053415,0.065254,0.013293,0.025132
835,0.066898,-0.0028217,0.01691,0.052757,0.069529,0.020528,0.028092
836,0.071502,0.0047422,0.0044134,0.048482,0.071502,0.035327,0.036971
837,0.067556,0.0070443,-0.0008485,0.040589,0.062952,0.042562,0.046508
838,0.059005,0.0050711,0.0037556,0.029736,0.036314,0.038616,0.052428
839,0.047824,0.0030979,0.013951,0.018226,-0.007097,0.025461,0.056046
840,0.04026,0.0034268,0.027434,0.0083598,-0.054783,0.0080309,0.054401
841,0.037629,0.0057288,0.038944,0.0021113,-0.089314,-0.0097279,0.04881
842,0.038944,0.0083598,0.046837,0.0011247,-0.098193,-0.021896,0.039931
843,0.043877,0.011648,0.050455,0.0047422,-0.087669,-0.02946,0.02875
844,0.048153,0.017239,0.048482,0.0080309,-0.060373,-0.03242,0.017568
845,0.050126,0.020857,0.041575,0.0060577,-0.027816,-0.031433,0.0086887
846,0.047824,0.020857,0.031709,0.002769,0.00046697,-0.024198,0.0063866
847,0.041247,0.019541,0.023488,0.0017824,0.017897,-0.014661,0.010004
848,0.034011,0.017239,0.018555,0.0060577,0.02875,-0.0077547,0.016253
849,0.026776,0.014608,0.01691,0.013622,0.03434,-0.0057815,0.020199
850,0.01987,0.010991,0.015595,0.023488,0.04026,-0.0074258,0.018884
851,0.015924,0.0037556,0.013293,0.030723,0.047824,-0.010386,0.013293
852,0.012964,-0.0061104,0.0080309,0.029078,0.057361,-0.012688,0.0057288
853,0.010991,-0.013674,0.0037556,0.021186,0.065254,-0.014332,0.0001381
854,0.0073732,-0.015648,0.0030979,0.012306,0.067227,-0.018278,0.0011247
855,0.0034268,-0.010057,0.0063866,0.0037556,0.062623,-0.027487,0.0070443
856,0.0001381,-0.004466,0.013293,-0.0034794,0.056046,-0.041299,0.015595
857,-0.002164,-0.0051238,0.019541,-0.011701,0.049468,-0.054783,0.026776
858,-0.0038083,-0.013345,0.022172,-0.01499,0.041575,-0.064978,0.039602
859,-0.0038083,-0.022554,0.019212,-0.011372,0.029078,-0.067609,0.050455
860,-0.0008485,-0.025842,0.013293,-0.0018351,0.013622,-0.064649,0.061636
861,0.0073732,-0.018278,0.0096753,0.0077021,0.0001381,-0.059058,0.067227
862,0.01987,-0.0041372,0.0090175,0.013622,-0.0084125,-0.054125,0.065912
863,0.032367,0.010991,0.010333,0.014608,-0.0097279,-0.04689,0.061307
864,0.039273,0.022501,0.01132,0.013293,-0.0077547,-0.036037,0.056703
865,0.039273,0.029736,0.010004,0.014279,-0.0047949,-0.022225,0.055388
866,0.034998,0.034011,0.0073732,0.017239,-0.0061104,-0.0084125,0.056046
867,0.02579,0.036971,0.0030979,0.017239,-0.0041372,0.0047422,0.059663
868,0.014937,0.039273,-0.0011774,0.012635,0.0040845,0.016581,0.059005
869,0.0040845,0.038616,-0.0047949,0.0067154,0.018884,0.030065,0.051113
870,-0.0034794,0.035656,-0.0097279,0.0001381,0.034669,0.046837,0.042233
871,-0.0061104,0.027763,-0.011701,-0.007097,0.045522,0.060979,0.032367
872,-0.0074258,0.017568,-0.0074258,-0.01499,0.050455,0.068543,0.025132
873,-0.0077547,0.0096753,0.0044134,-0.022225,0.050784,0.075778,0.024474
874,-0.0051238,0.0060577,0.017568,-0.027487,0.048482,0.082684,0.026776
875,0.00079584,0.0044134,0.026447,-0.026829,0.04881,0.087288,0.030065
876,0.0080309,0.0044134,0.027434,-0.016963,0.052428,0.091563,0.028421
877,0.012635,0.0060577,0.02283,0.0011247,0.057361,0.1011,0.022501
878,0.013622,0.0093464,0.016253,0.018555,0.05769,0.11195,0.019212
879,0.010333,0.0093464,0.0057288,0.033354,0.053743,0.1182,0.020199
880,0.0080309,0.0047422,-0.0038083,0.042233,0.049468,0.11656,0.020857
881,0.0083598,-0.00051963,-0.0090702,0.048482,0.045193,0.10866,0.022172
882,0.0057288,-0.0041372,-0.0087413,0.050784,0.044206,0.10242,0.024145
883,0.0037556,-0.0061104,-0.0008485,0.04881,0.045522,0.096167,0.030065
884,0.0030979,-0.0051238,0.0096753,0.042562,0.048482,0.089261,0.038287
885,0.002769,-0.0011774,0.019212,0.035985,0.051113,0.085644,0.04881
886,-0.0011774,0.0044134,0.024145,0.036971,0.056374,0.088603,0.059992
887,-0.007097,0.010662,0.023159,0.047495,0.068871,0.099785,0.063938
888,-0.010386,0.015266,0.017568,0.063281,0.089261,0.1159,0.062294
889,-0.011372,0.01987,0.010991,0.076435,0.11294,0.12971,0.058019
890,-0.0090702,0.02283,0.0050711,0.083999,0.12905,0.13432,0.055388
891,-0.0031506,0.028092,-0.0011774,0.08367,0.13333,0.12741,0.05769
892,0.002769,0.03434,-0.0054526,0.079066,0.12741,0.1136,0.064267
893,0.0044134,0.038944,-0.0057815,0.073147,0.11623,0.10143,0.068214
894,0.00079584,0.038944,-0.0011774,0.06361,0.10176,0.093536,0.06624
895,-0.0034794,0.035656,0.0086887,0.052428,0.083342,0.086959,0.058019
896,-0.0047949,0.031052,0.018884,0.035327,0.057361,0.07808,0.046837
897,-0.0015062,0.027434,0.024145,0.016581,0.027105,0.062952,0.032696
898,0.0070443,0.026447,0.024803,0.0060577,0.0030979,0.043549,0.019541
899,0.014937,0.028092,0.019212,0.0080309,-0.011701,0.029078,0.0063866
900,0.017897,0.031709,0.0090175,0.020199,-0.013674,0.026119,-0.0034794
901,0.013951,0.033354,0.00079584,0.035985,-0.0061104,0.033683,-0.0057815
902,0.0063866,0.032038,-0.0015062,0.048153,0.0080309,0.045522,-0.0011774
903,0.0011247,0.030394,0.0011247,0.05473,0.021186,0.057032,0.0060577
904,-0.00019077,0.032696,0.0054,0.058676,0.027434,0.066569,0.01132
905,-0.00051963,0.038944,0.0083598,0.058676,0.028092,0.071173,0.01132
906,0.0001381,0.045193,0.0086887,0.057032,0.023488,0.067885,0.0083598
907,-0.0008485,0.050126,0.0063866,0.054401,0.018226,0.060979,0.0050711
908,-0.0008485,0.051113,0.0044134,0.051113,0.016253,0.053743,0.0034268
909,0.0011247,0.049139,0.0040845,0.044206,0.013293,0.04618,0.0030979
910,0.0034268,0.047824,0.0067154,0.032038,0.0093464,0.035656,0.002769
911,0.002769,0.048153,0.012306,0.021186,0.0001381,0.023817,0.0044134
912,0.0037556,0.050784,0.018555,0.013622,-0.013017,0.015266,0.0011247
913,0.0096753,0.054072,0.021843,0.0096753,-0.030118,0.010991,-0.011043
914,0.019212,0.056374,0.020528,0.0090175,-0.046561,0.0054,-0.027487
915,0.023159,0.05769,0.018555,0.0073732,-0.060702,-0.0067681,-0.038668
916,0.020857,0.056703,0.017897,0.0011247,-0.069253,-0.025185,-0.038011
917,0.014937,0.05473,0.015595,-0.011043,-0.071226,-0.044588,-0.028802
918,0.0080309,0.052428,0.011648,-0.025842,-0.070897,-0.058071,-0.019923
919,0.0037556,0.052099,0.0080309,-0.036037,-0.07024,-0.062018,-0.016305
920,0.0044134,0.054401,0.0073732,-0.038668,-0.066293,-0.054783,-0.01203
921,0.0096753,0.057361,0.010991,-0.035051,-0.060373,-0.044917,-0.0054526
922,0.016253,0.058019,0.015266,-0.025842,-0.055769,-0.036037,0.0011247
923,0.023159,0.05177,0.018226,-0.017621,-0.056427,-0.028802,0.0067154
924,0.028421,0.045522,0.019212,-0.015976,-0.057743,-0.025185,0.0077021
925,0.035327,0.042233,0.021514,-0.020581,-0.055112,-0.027158,0.0086887
926,0.040589,0.04026,0.028421,-0.024856,-0.045246,-0.033406,0.012635
927,0.046837,0.038944,0.036642,-0.027816,-0.029789,-0.038668,0.020857
928,0.051441,0.038616,0.04322,-0.023869,-0.017621,-0.039984,0.030723
929,0.052757,0.045193,0.045851,-0.014332,-0.011701,-0.039326,0.039602
930,0.051113,0.056703,0.044864,-0.0028217,-0.012688,-0.038011,0.044206
931,0.049468,0.064596,0.038616,0.0063866,-0.019923,-0.037353,0.043549
932,0.050455,0.061965,0.030723,0.012635,-0.03242,-0.04097,0.0373
933,0.059005,0.051441,0.024474,0.014937,-0.04393,-0.045246,0.031052
934,0.070516,0.040918,0.022172,0.012306,-0.050507,-0.04985,0.028421
935,0.079724,0.037629,0.023817,0.0047422,-0.054125,-0.053467,0.030394
936,0.084657,0.043877,0.029407,-0.0067681,-0.056098,-0.054454,0.031709
937,0.083342,0.055388,0.035327,-0.020581,-0.056098,-0.04985,0.031709
938,0.07512,0.065583,0.038287,-0.028144,-0.051165,-0.041957,0.032367
939,0.062952,0.068543,0.036971,-0.027816,-0.043272,-0.029789,0.033354
940,0.053086,0.06624,0.031381,-0.019923,-0.031104,-0.017621,0.03434
941,0.046508,0.063281,0.021514,-0.0077547,-0.019594,-0.010057,0.036642
942,0.041904,0.062623,0.01132,0.0083598,-0.012688,-0.0080836,0.038287
943,0.039931,0.062952,0.0030979,0.021186,-0.011043,-0.0080836,0.036642
944,0.041247,0.061965,-0.0015062,0.026776,-0.010057,-0.0051238,0.026776
945,0.043549,0.059005,-0.0008485,0.025461,-0.0090702,0.0014536,0.012635
946,0.044206,0.053415,0.0054,0.020857,-0.0054526,0.013293,0.0001381
947,0.044206,0.044864,0.014279,0.018555,0.0017824,0.031709,-0.0038083
948,0.042233,0.035985,0.022172,0.021843,0.018884,0.053415,-0.00019077
949,0.03434,0.030065,0.025132,0.026447,0.044206,0.07808,0.0070443
950,0.021186,0.027434,0.023488,0.029736,0.07216,0.10143,0.014937
951,0.0083598,0.029078,0.016253,0.030723,0.094523,0.11656,0.022501
952,0.00079584,0.032367,0.01132,0.031052,0.10307,0.11853,0.02283
953,-0.0008485,0.036971,0.010991,0.027763,0.098798,0.10472,0.017239
954,0.002769,0.041247,0.016581,0.022172,0.086959,0.075778,0.010004
955,0.0093464,0.043549,0.021843,0.017897,0.076106,0.042233,0.0063866
956,0.017239,0.044206,0.023488,0.017897,0.06624,0.015595,0.0060577
957,0.01987,0.04026,0.024803,0.02283,0.059334,0.0014536,0.0073732
958,0.014937,0.035327,0.026447,0.029078,0.058676,0.0014536,0.0093464
959,0.0073732,0.026776,0.027434,0.034669,0.06361,0.0090175,0.012306
960,0.0017824,0.015924,0.027105,0.037629,0.072489,0.020528,0.014937
961,-0.0038083,0.0054,0.02579,0.04026,0.079395,0.031381,0.018226
962,-0.0077547,-0.0024928,0.024145,0.04322,0.083999,0.039931,0.022501
963,-0.0077547,-0.0051238,0.026119,0.05177,0.084657,0.048482,0.026447
964,-0.0018351,-0.0041372,0.030065,0.066898,0.080053,0.058019,0.027763
965,0.0067154,-0.0008485,0.032038,0.081697,0.067227,0.064925,0.027105
966,0.013293,0.0057288,0.031381,0.090905,0.05177,0.066569,0.022501
967,0.014937,0.013622,0.029736,0.097483,0.039273,0.059334,0.016581
968,0.014608,0.020857,0.026776,0.10472,0.029736,0.041575,0.0077021
969,0.012306,0.024803,0.023817,0.10702,0.021186,0.014279,-0.0047949
970,0.010662,0.027434,0.01691,0.10044,0.0093464,-0.018278,-0.015319
971,0.0093464,0.028092,0.0090175,0.08663,-0.0067681,-0.04985,-0.021896
972,0.010991,0.025461,0.0030979,0.070845,-0.027816,-0.073857,-0.02354
973,0.013293,0.020199,0.002769,0.057032,-0.049192,-0.091616,-0.022225
974,0.015266,0.014279,0.0080309,0.047824,-0.065307,-0.1028,-0.017292
975,0.018555,0.0070443,0.015595,0.046508,-0.073528,-0.10773,-0.011372
976,0.020199,0.0017824,0.026447,0.053743,-0.076488,-0.11497,-0.0067681
977,0.019541,-0.0028217,0.038616,0.065583,-0.076159,-0.12352,-0.00051963
978,0.015924,-0.0054526,0.048153,0.077093,-0.072542,-0.13272,0.0070443
979,0.010004,-0.0054526,0.049468,0.082355,-0.068924,-0.14292,0.010991
980,0.0021113,-0.0031506,0.043877,0.077751,-0.06728,-0.15015,0.0096753
981,-0.0031506,0.0001381,0.035656,0.065254,-0.070568,-0.15542,0.0050711
982,-0.0008485,0.002769,0.029078,0.046837,-0.074515,-0.15903,0.00046697
983,0.0070443,0.002769,0.024474,0.026447,-0.076159,-0.15311,-0.0015062
984,0.015266,-0.0064392,0.023817,0.011648,-0.073528,-0.13207,0.0001381
985,0.020199,-0.022225,0.025461,0.0050711,-0.067937,-0.1051,0.0054
986,0.021514,-0.034393,0.026119,0.0067154,-0.06136,-0.08175,0.013951
987,0.022172,-0.034064,0.026447,0.011648,-0.05281,-0.065307,0.021514
988,0.02283,-0.018278,0.02579,0.017239,-0.04097,-0.060045,0.024474
989,0.024145,0.0060577,0.022172,0.024474,-0.024856,-0.064649,0.026447
990,0.023159,0.028421,0.016253,0.033683,-0.0051238,-0.077803,0.029736
991,0.01691,0.041904,0.010004,0.040589,0.017239,-0.091287,0.036314
992,0.010333,0.044864,0.0047422,0.047495,0.037958,-0.098193,0.043877
993,0.0044134,0.038944,0.0011247,0.052428,0.051441,-0.097864,0.046837
994,-0.0008485,0.028421,0.00046697,0.053743,0.055717,-0.087998,0.045522
995,-0.0024928,0.019212,0.0057288,0.049139,0.049468,-0.06728,0.04322
996,-0.004466,0.018884,0.013622,0.037958,0.036642,-0.044259,0.04322
997,-0.0064392,0.026447,0.017568,0.023817,0.02283,-0.022883,0.043877
998,-0.0061104,0.036314,0.011648,0.010004,0.0086887,-0.0067681,0.041904
999,-0.0051238,0.044535,-0.0028217,0.0011247,-0.0047949,0.010991,0.035985
1000,-0.0064392,0.049468,-0.018607,-0.0034794,-0.022554,0.037958,0.029407
1001,-0.0061104,0.050455,-0.030447,-0.0015062,-0.040313,0.077093,0.026447
1002,-0.0024928,0.05177,-0.033406,0.0047422,-0.049521,0.12905,0.026447
1003,0.0021113,0.050784,-0.029789,0.013951,-0.041957,0.18463,0.029078
1004,0.0077021,0.046837,-0.023211,0.02283,-0.016634,0.2389,0.031381
1005,0.014279,0.042233,-0.016634,0.029078,0.01987,0.28691,0.032696
1006,0.021186,0.038616,-0.013345,0.030065,0.053086,0.32605,0.032696
1007,0.032038,0.038287,-0.014332,0.021843,0.077093,0.35203,0.03434
1008,0.043877,0.039602,-0.016963,0.0086887,0.085315,0.35795,0.044206
1009,0.055717,0.041904,-0.019594,-0.002164,0.081039,0.33953,0.059663
1010,0.068214,0.041575,-0.022554,-0.0084125,0.071502,0.29513,0.073476
1011,0.079066,0.037629,-0.026171,-0.01203,0.062623,0.23429,0.082026
1012,0.083342,0.028092,-0.028802,-0.016634,0.059005,0.16753,0.081697
1013,0.081368,0.015595,-0.028144,-0.020909,0.058348,0.10735,0.07216
1014,0.07808,0.0021113,-0.020581,-0.021567,0.056374,0.061307,0.058676
1015,0.075449,-0.0097279,-0.0093991,-0.01795,0.04881,0.034998,0.043877
1016,0.073147,-0.016305,0.0034268,-0.010386,0.036971,0.027434,0.033025
1017,0.065912,-0.01499,0.013622,-0.0011774,0.021843,0.02875,0.024474
1018,0.055717,-0.011372,0.016253,0.0086887,0.0073732,0.032367,0.017568
1019,0.047824,-0.0084125,0.014608,0.01691,-0.0008485,0.030723,0.013622
1020,0.041575,-0.0090702,0.0086887,0.025132,0.0017824,0.024145,0.010662
1021,0.038944,-0.0077547,0.0050711,0.033354,0.019212,0.014937,0.010333
1022,0.037958,-0.0015062,0.0060577,0.04026,0.048482,0.0057288,0.014608
1023,0.034998,0.0063866,0.010662,0.043549,0.081368,-0.002164,0.022501
1024,0.030723,0.014608,0.017568,0.046837,0.10932,-0.0090702,0.031381
1025,0.024145,0.017239,0.023159,0.056046,0.1205,-0.011043,0.041904
1026,0.017568,0.015924,0.024474,0.0692,0.11228,-0.0093991,0.048482
1027,0.010991,0.011648,0.020199,0.079395,0.085644,-0.011372,0.047495
1028,0.0054,0.0067154,0.014608,0.083342,0.053415,-0.01795,0.040589
1029,0.0047422,0.0050711,0.012964,0.083342,0.025132,-0.025842,0.036314
1030,0.0067154,0.0067154,0.017897,0.081039,0.0057288,-0.027816,0.039273
1031,0.0096753,0.010333,0.027763,0.080382,-0.0028217,-0.022883,0.046508
1032,0.013951,0.014937,0.039931,0.081039,-0.0031506,-0.013674,0.053415
1033,0.018884,0.023817,0.047495,0.080053,0.0037556,-0.0051238,0.056374
1034,0.020528,0.036314,0.051113,0.072818,0.013951,0.00046697,0.058019
1035,0.01691,0.047824,0.052428,0.059005,0.021514,-0.0011774,0.056374
1036,0.010991,0.055717,0.049468,0.04618,0.019541,-0.010386,0.04881
1037,0.0034268,0.060979,0.04618,0.039273,0.0086887,-0.020909,0.034998
1038,-0.0018351,0.063281,0.045522,0.038616,-0.0067681,-0.028144,0.020857
1039,-0.0031506,0.063281,0.049139,0.039273,-0.019923,-0.027158,0.014937
1040,0.0001381,0.059663,0.053415,0.037958,-0.0265,-0.019923,0.018884
1041,0.0070443,0.053086,0.054072,0.036314,-0.031433,-0.011372,0.027105
1042,0.015595,0.042233,0.049468,0.038616,-0.041628,-0.0087413,0.033025
1043,0.01987,0.02579,0.040589,0.043549,-0.051494,-0.013017,0.031381
1044,0.016581,0.010004,0.027434,0.045522,-0.05544,-0.023869,0.025132
1045,0.0037556,-0.004466,0.014937,0.043549,-0.052481,-0.036366,0.017239
1046,-0.013017,-0.014003,0.0060577,0.036314,-0.04689,-0.046232,0.0096753
1047,-0.029131,-0.015319,0.0030979,0.025132,-0.039326,-0.04985,0.0067154
1048,-0.041299,-0.007097,0.0040845,0.014279,-0.026171,-0.047219,0.010991
1049,-0.047548,0.0073732,0.0063866,0.0093464,-0.0057815,-0.041957,0.015924
1050,-0.047877,0.01987,0.0060577,0.010662,0.018884,-0.036695,0.015266
1051,-0.044588,0.028421,0.0037556,0.016253,0.041904,-0.033406,0.011977
1052,-0.038668,0.032696,-0.00051963,0.01987,0.061636,-0.035051,0.013951
1053,-0.030118,0.033354,-0.0064392,0.023159,0.07512,-0.038668,0.021514
1054,-0.022225,0.029078,-0.0093991,0.026447,0.080053,-0.040313,0.027763
1055,-0.014003,0.018226,-0.0084125,0.02579,0.075778,-0.041957,0.028092
1056,-0.0061104,0.0057288,-0.0061104,0.01987,0.062952,-0.048205,0.021843
1057,-0.00019077,-0.0051238,-0.0054526,0.010004,0.04322,-0.063004,0.011977
1058,0.0011247,-0.013017,-0.0057815,0.0040845,0.020528,-0.082736,-0.0008485
1059,0.0011247,-0.016305,-0.0041372,0.0014536,-0.0018351,-0.095562,-0.010057
1060,-0.0011774,-0.018278,-0.0024928,0.0011247,-0.019923,-0.091616,-0.011043
1061,-0.0051238,-0.022883,-0.0018351,-0.00051963,-0.031433,-0.073199,-0.0061104
1062,-0.010057,-0.031433,-0.0015062,-0.007097,-0.035051,-0.051494,0.0001381
1063,-0.013017,-0.036695,-0.0015062,-0.021896,-0.034393,-0.03242,0.0047422
1064,-0.016634,-0.038339,-0.0034794,-0.038011,-0.032091,-0.017292,0.0057288
1065,-0.021896,-0.036037,-0.0064392,-0.051165,-0.028802,-0.0074258,0.002769
1066,-0.027158,-0.028802,-0.007097,-0.056427,-0.022225,0.0017824,-0.0008485
1067,-0.028144,-0.017292,-0.0041372,-0.05544,-0.013674,0.01132,-0.0038083
1068,-0.026829,-0.0041372,0.0014536,-0.045246,-0.0038083,0.017239,-0.010057
1069,-0.020909,0.0057288,0.0067154,-0.025185,0.0096753,0.015266,-0.017621
1070,-0.010057,0.0040845,0.0090175,0.002769,0.02875,0.0093464,-0.024527
1071,0.0047422,-0.0028217,0.0086887,0.032038,0.045522,0.0044134,-0.028473
1072,0.020528,-0.0090702,0.010662,0.053086,0.053086,0.0014536,-0.028802
1073,0.036642,-0.011372,0.015266,0.061307,0.052099,0.0014536,-0.0265
1074,0.046508,-0.0057815,0.020199,0.057361,0.045851,0.002769,-0.023211
1075,0.050126,0.0073732,0.021186,0.043877,0.042891,0.0034268,-0.018278
1076,0.049468,0.024803,0.021514,0.024803,0.041904,0.0017824,-0.012688
1077,0.044535,0.038287,0.020528,0.0054,0.041575,0.002769,-0.0077547
1078,0.038287,0.044535,0.019212,-0.0087413,0.041575,0.01132,-0.0067681
1079,0.033354,0.040918,0.018226,-0.014661,0.046837,0.033354,-0.0054526
1080,0.034669,0.031381,0.019212,-0.011372,0.059334,0.063281,-0.0011774
1081,0.041904,0.019541,0.024145,-0.0015062,0.079395,0.089919,0.0044134
1082,0.050455,0.0080309,0.030394,0.0090175,0.10077,0.10242,0.01132
1083,0.059992,0.0040845,0.033354,0.015266,0.11491,0.098798,0.016253
1084,0.068214,0.010662,0.035327,0.013951,0.11327,0.081697,0.019541
1085,0.07808,0.023488,0.0373,0.0063866,0.093865,0.058676,0.019541
1086,0.083342,0.039602,0.039273,-0.0041372,0.060321,0.037958,0.019212
1087,0.083013,0.05177,0.039273,-0.010057,0.024474,0.027105,0.020857
1088,0.080382,0.056046,0.040918,-0.0077547,-0.0031506,0.02579,0.021186
1089,0.077422,0.052757,0.039273,0.0014536,-0.018278,0.029736,0.017239
1090,0.07808,0.046508,0.034998,0.012635,-0.020909,0.031381,0.012635
1091,0.079066,0.042562,0.025461,0.021186,-0.012359,0.028092,0.0096753
1092,0.076106,0.042562,0.015595,0.023817,0.0024402,0.018555,0.0067154
1093,0.069858,0.044864,0.0090175,0.018555,0.017239,0.0057288,0.0073732
1094,0.064267,0.046508,0.0057288,0.0057288,0.023817,-0.0061104,0.011648
1095,0.064925,0.046837,0.0034268,-0.007097,0.024474,-0.014003,0.020199
1096,0.069529,0.045851,0.0034268,-0.015648,0.020199,-0.014332,0.029407
1097,0.072818,0.043549,0.0070443,-0.020581,0.013622,-0.0064392,0.036642
1098,0.071173,0.0373,0.015595,-0.027158,0.0034268,0.0057288,0.04026
1099,0.06361,0.027763,0.024145,-0.035708,-0.0097279,0.01691,0.040918
1100,0.05473,0.014608,0.030394,-0.042286,-0.019594,0.021843,0.041575
1101,0.047495,0.0030979,0.034998,-0.04097,-0.022554,0.022501,0.041247
1102,0.040918,-0.0038083,0.037629,-0.037353,-0.018278,0.020857,0.040589
1103,0.035985,-0.00051963,0.039931,-0.034393,-0.014661,0.01987,0.042233
1104,0.034011,0.012306,0.040589,-0.029789,-0.016963,0.024803,0.049139
1105,0.034998,0.030065,0.039931,-0.020909,-0.02354,0.036971,0.054072
1106,0.036642,0.045193,0.035656,-0.0041372,-0.029789,0.049797,0.047495
1107,0.038287,0.05473,0.02875,0.014937,-0.029789,0.056374,0.034011
1108,0.039602,0.05473,0.02283,0.026447,-0.023869,0.04881,0.01691
1109,0.039273,0.045522,0.020857,0.030723,-0.012359,0.031052,0.0040845
1110,0.036971,0.034011,0.020528,0.032038,0.0021113,0.010004,-0.0018351
1111,0.032038,0.024803,0.023159,0.030723,0.011977,-0.007097,-0.0024928
1112,0.023488,0.021843,0.02875,0.026776,0.011977,-0.014003,-0.00019077
1113,0.013622,0.027105,0.03434,0.024474,0.0024402,-0.0084125,0.00079584
1114,0.0040845,0.035656,0.036971,0.029736,-0.010386,0.0024402,-0.0018351
1115,-0.0015062,0.039602,0.036971,0.039931,-0.023211,0.010991,-0.004466
1116,-0.0031506,0.038944,0.033025,0.047495,-0.033406,0.016253,-0.00051963
1117,-0.00019077,0.032696,0.024474,0.050126,-0.038011,0.018226,0.0086887
1118,0.0054,0.025132,0.015924,0.050455,-0.037682,0.018226,0.02283
1119,0.0080309,0.020528,0.0093464,0.050784,-0.033078,0.013622,0.037629
1120,0.0083598,0.019541,0.0093464,0.053415,-0.027158,0.0044134,0.050784
1121,0.0050711,0.019541,0.015924,0.059992,-0.019923,-0.004466,0.056703
1122,0.0017824,0.023159,0.023488,0.073147,-0.013674,-0.007097,0.052428
1123,-0.0028217,0.032696,0.026776,0.088603,-0.011372,-0.0008485,0.040589
1124,-0.0080836,0.046837,0.026119,0.10176,-0.015976,0.012635,0.031709
1125,-0.013674,0.062623,0.025132,0.10834,-0.024856,0.028421,0.029407
1126,-0.016634,0.072489,0.021514,0.10801,-0.026829,0.043877,0.031381
1127,-0.012688,0.069858,0.018226,0.098141,-0.013674,0.057361,0.036971
1128,-0.0041372,0.057032,0.018226,0.086959,0.013293,0.076106,0.044864
1129,0.0054,0.04026,0.020528,0.082684,0.049139,0.098798,0.056703
1130,0.012306,0.02875,0.02579,0.085972,0.084657,0.12346,0.070187
1131,0.017568,0.024803,0.032367,0.094194,0.11162,0.13826,0.081368
1132,0.016581,0.028421,0.035985,0.10143,0.12511,0.1376,0.086959
1133,0.0090175,0.036642,0.034998,0.1057,0.11985,0.12412,0.08367
1134,-0.0015062,0.045193,0.027434,0.10209,0.098141,0.1034,0.073804
1135,-0.012688,0.049468,0.017239,0.090248,0.065912,0.080382,0.059663
1136,-0.020581,0.046508,0.0077021,0.071502,0.026447,0.062952,0.045851
1137,-0.022554,0.036971,0.0017824,0.046508,-0.017292,0.05473,0.034669
1138,-0.020909,0.027763,0.00046697,0.018884,-0.060373,0.056703,0.030723
1139,-0.018936,0.025461,0.0030979,-0.0008485,-0.095891,0.064267,0.0373
1140,-0.020252,0.032038,0.0070443,-0.0054526,-0.12121,0.068543,0.048153
1141,-0.022225,0.040918,0.0086887,0.0057288,-0.13503,0.067227,0.058676
1142,-0.024198,0.047166,0.0093464,0.026776,-0.14193,0.058348,0.06361
1143,-0.023211,0.051441,0.01132,0.046837,-0.14226,0.042891,0.057032
1144,-0.019594,0.050784,0.013951,0.056046,-0.13305,0.028092,0.042562
1145,-0.01795,0.045193,0.018555,0.050784,-0.11365,0.01987,0.031709
1146,-0.015648,0.033025,0.023488,0.037958,-0.086025,0.021514,0.029736
1147,-0.013674,0.019541,0.026119,0.028421,-0.057085,0.02875,0.033025
1148,-0.012688,0.0086887,0.028421,0.030065,-0.032749,0.035656,0.035656
1149,-0.0093991,0.0060577,0.029078,0.038616,-0.014332,0.038287,0.035327
1150,-0.0034794,0.014279,0.02875,0.04881,0.0017824,0.037958,0.030723
1151,0.0047422,0.028092,0.025132,0.055059,0.017239,0.034998,0.025461
1152,0.010991,0.041575,0.017568,0.052428,0.031709,0.027105,0.021843
1153,0.017239,0.049139,0.012306,0.039931,0.044535,0.012964,0.021186
1154,0.021843,0.049797,0.013293,0.024474,0.052099,-0.0064392,0.021514
1155,0.026776,0.044864,0.017239,0.0086887,0.053415,-0.026171,0.01691
1156,0.030723,0.035656,0.020199,-0.0090702,0.051441,-0.039326,0.0077021
1157,0.030065,0.024145,0.021186,-0.0265,0.046508,-0.049192,-0.0015062
1158,0.028421,0.013293,0.017239,-0.041957,0.042891,-0.061031,-0.010715
1159,0.031709,0.0054,0.010991,-0.052481,0.040589,-0.076817,-0.01499
1160,0.040918,-0.0008485,0.0063866,-0.058071,0.035656,-0.097207,-0.014003
1161,0.052757,-0.00019077,0.0047422,-0.06136,0.026776,-0.11562,-0.0093991
1162,0.064596,0.0063866,0.0060577,-0.06728,0.017239,-0.12352,-0.0041372
1163,0.072818,0.013951,0.0057288,-0.075501,0.014937,-0.11497,0.0011247
1164,0.071831,0.018555,0.0067154,-0.07879,0.022172,-0.089314,0.0050711
1165,0.062294,0.023488,0.0070443,-0.072542,0.038616,-0.046561,0.0060577
1166,0.048482,0.029407,0.0080309,-0.057085,0.064267,0.010662,0.0037556
1167,0.034669,0.032038,0.0080309,-0.03242,0.094852,0.071831,0.0067154
1168,0.02579,0.029078,0.010333,-0.0008485,0.12675,0.12675,0.018226
1169,0.025132,0.021514,0.012964,0.031709,0.15536,0.17115,0.035327
1170,0.03434,0.016253,0.015924,0.056046,0.17575,0.20272,0.051113
1171,0.049468,0.018555,0.019541,0.068871,0.18792,0.21061,0.059663
1172,0.063938,0.026447,0.02579,0.069858,0.19549,0.1945,0.059334
1173,0.07216,0.034669,0.031052,0.067556,0.20469,0.15997,0.053743
1174,0.072818,0.039273,0.032038,0.067556,0.21094,0.11787,0.047166
1175,0.067227,0.0373,0.026776,0.072818,0.207,0.076435,0.037958
1176,0.06065,0.032696,0.017897,0.077751,0.18397,0.036971,0.026776
1177,0.058019,0.029078,0.012635,0.073476,0.13629,0.002769,0.017239
1178,0.059005,0.026776,0.01132,0.062294,0.071173,-0.024856,0.012306
1179,0.058676,0.025132,0.013293,0.045851,0.0044134,-0.044259,0.011977
1180,0.057361,0.020199,0.014279,0.029078,-0.047548,-0.054125,0.013622
1181,0.054401,0.014937,0.012635,0.012635,-0.074844,-0.055112,0.017239
1182,0.049797,0.010333,0.0083598,0.0011247,-0.076159,-0.051494,0.023159
1183,0.04322,0.0083598,0.0011247,-0.0015062,-0.061689,-0.050507,0.02579
1184,0.038616,0.012635,-0.0067681,0.0037556,-0.047548,-0.055769,0.023817
1185,0.036642,0.02283,-0.011372,0.012306,-0.042944,-0.060045,0.017568
1186,0.034998,0.031381,-0.011701,0.017897,-0.048863,-0.056427,0.010662
1187,0.029736,0.034998,-0.0080836,0.016581,-0.058729,-0.044259,0.002769
1188,0.020528,0.033025,-0.0038083,0.0063866,-0.068924,-0.027816,-0.0061104
1189,0.010004,0.029407,-0.00051963,-0.0028217,-0.076817,-0.014003,-0.017292
1190,0.0011247,0.027434,0.0047422,-0.004466,-0.07879,-0.0090702,-0.024527
1191,-0.0015062,0.023817,0.0083598,0.0040845,-0.075501,-0.016305,-0.022883
1192,-0.0015062,0.021514,0.010333,0.01987,-0.065635,-0.031433,-0.018278
1193,0.0017824,0.021843,0.0090175,0.037629,-0.044588,-0.044917,-0.013674
1194,0.0057288,0.025132,0.0060577,0.055388,-0.0093991,-0.047548,-0.0080836
1195,0.0073732,0.028421,0.0034268,0.070187,0.034669,-0.04097,0.0034268
1196,0.0090175,0.031052,0.0030979,0.080382,0.072489,-0.028144,0.017239
1197,0.0086887,0.036642,0.0057288,0.083342,0.093208,-0.016963,0.027105
1198,0.0054,0.041247,0.0090175,0.075778,0.093865,-0.007097,0.031709
1199,-0.00019077,0.045851,0.011977,0.061636,0.073147,0.0011247,0.031709
1200,-0.0080836,0.047495,0.012306,0.049468,0.034669,0.0040845,0.032038
1201,-0.015648,0.045522,0.013951,0.041575,-0.0080836,0.0017824,0.030394
1202,-0.022883,0.040589,0.015924,0.0373,-0.042286,0.0011247,0.026776
1203,-0.031104,0.035327,0.017239,0.033683,-0.062347,0.0050711,0.018555
1204,-0.037024,0.031381,0.017568,0.031381,-0.07024,0.012306,0.0093464
1205,-0.038668,0.02875,0.015924,0.032696,-0.071884,0.017897,-0.0024928
1206,-0.03538,0.024474,0.014937,0.036314,-0.077475,0.014937,-0.01499
1207,-0.028473,0.015924,0.015266,0.036314,-0.092603,0.0034268,-0.020909
1208,-0.024527,0.0044134,0.013622,0.030065,-0.11201,-0.012359,-0.020252
1209,-0.0265,-0.0047949,0.010333,0.021514,-0.13009,-0.028802,-0.015319
1210,-0.032091,-0.011701,0.0080309,0.017239,-0.1416,-0.042615,-0.011701
1211,-0.035708,-0.012359,0.0073732,0.023159,-0.14851,-0.052481,-0.0061104
1212,-0.033735,-0.007097,0.011648,0.032696,-0.16134,-0.058729,-0.0008485
1213,-0.027487,0.00079584,0.01691,0.042233,-0.18666,-0.065307,0.0080309
1214,-0.023211,0.0090175,0.020528,0.049139,-0.22053,-0.071884,0.018884
1215,-0.020909,0.017239,0.017568,0.050455,-0.24684,-0.073857,0.029078
1216,-0.022225,0.022172,0.013293,0.044864,-0.2452,-0.066622,0.037629
1217,-0.02354,0.021186,0.01132,0.038616,-0.20508,-0.049192,0.042562
1218,-0.021896,0.015266,0.015924,0.038616,-0.1324,-0.021238,0.046508
1219,-0.020909,0.0040845,0.023159,0.04618,-0.038997,0.0077021,0.049139
1220,-0.023869,-0.0067681,0.029078,0.059992,0.05769,0.033025,0.053086
1221,-0.029131,-0.011701,0.029078,0.071173,0.13793,0.05177,0.058019
1222,-0.028144,-0.0074258,0.02579,0.079724,0.1843,0.066898,0.064267
1223,-0.020252,0.0024402,0.02283,0.082355,0.19351,0.076764,0.07512
1224,-0.0064392,0.014279,0.018555,0.080053,0.18167,0.081368,0.085644
1225,0.010662,0.026119,0.016253,0.078409,0.16556,0.078737,0.087288
1226,0.023817,0.037629,0.018884,0.080382,0.15175,0.065912,0.080382
1227,0.031381,0.04881,0.023817,0.07808,0.14122,0.041247,0.0692
1228,0.033354,0.058348,0.027763,0.0692,0.13432,0.013293,0.061307
1229,0.033025,0.061636,0.029078,0.052099,0.13234,-0.014003,0.053086
1230,0.028421,0.064596,0.028092,0.031052,0.13399,-0.037024,0.048153
1231,0.026119,0.066569,0.023159,0.0086887,0.13432,-0.04985,0.041575
1232,0.026776,0.066898,0.014608,-0.0087413,0.12807,-0.047877,0.032696
1233,0.028421,0.064925,0.0030979,-0.019594,0.11721,-0.031104,0.018884
1234,0.031052,0.06065,-0.0047949,-0.025514,0.10472,-0.0080836,0.0001381
1235,0.033354,0.052757,-0.0064392,-0.031104,0.095839,0.012306,-0.020252
1236,0.036314,0.041575,-0.0077547,-0.037024,0.095181,0.026447,-0.034722
1237,0.039273,0.027105,-0.0093991,-0.041299,0.10274,0.034669,-0.039655
1238,0.042562,0.015266,-0.011372,-0.042286,0.11491,0.044206,-0.037682
1239,0.046837,0.013622,-0.012688,-0.035708,0.12873,0.058348,-0.030775
1240,0.050126,0.022501,-0.012688,-0.02354,0.13695,0.079724,-0.021238
1241,0.053743,0.035985,-0.015319,-0.011701,0.13958,0.10669,-0.013017
1242,0.057361,0.045851,-0.015319,-0.00051963,0.13826,0.13267,-0.004466
1243,0.060979,0.050455,-0.012688,0.0077021,0.13629,0.14418,0.0034268
1244,0.067885,0.051113,-0.0038083,0.012306,0.12577,0.13629,0.010991
1245,0.077751,0.049797,0.0083598,0.010991,0.10011,0.1136,0.01132
1246,0.087288,0.045193,0.01987,0.0050711,0.058676,0.081697,0.002769
1247,0.088603,0.037629,0.028092,-0.0041372,0.0086887,0.04618,-0.0097279
1248,0.083342,0.031709,0.029736,-0.012688,-0.032091,0.014608,-0.018278
1249,0.075449,0.030394,0.027434,-0.016305,-0.05281,-0.010715,-0.016634
1250,0.071831,0.032038,0.024803,-0.0093991,-0.054125,-0.027158,-0.0077547
1251,0.069858,0.032038,0.025461,0.0040845,-0.042944,-0.036695,0.0054
1252,0.067556,0.029078,0.027763,0.013951,-0.030447,-0.043272,0.017239
1253,0.061965,0.02579,0.026776,0.010991,-0.020909,-0.044259,0.02283
1254,0.05473,0.026119,0.022501,-0.0018351,-0.012688,-0.045903,0.01987
1255,0.049139,0.033025,0.015924,-0.014661,-0.0038083,-0.050179,0.013951
1256,0.043877,0.042233,0.0090175,-0.020909,0.0044134,-0.059387,0.0096753
1257,0.038616,0.047495,0.0054,-0.018607,0.010004,-0.072542,0.0093464
1258,0.033354,0.04322,0.0057288,-0.010715,0.010004,-0.083394,0.0083598
1259,0.031709,0.031052,0.0093464,-0.0031506,0.0024402,-0.092274,0.0040845
1260,0.036314,0.017239,0.014937,0.00046697,-0.010057,-0.10247,-0.0034794
1261,0.039602,0.0093464,0.01987,-0.0011774,-0.017621,-0.11497,-0.0067681
1262,0.041575,0.0080309,0.022172,-0.0038083,-0.016305,-0.1222,-0.0051238
1263,0.041575,0.01132,0.020199,-0.0061104,-0.010057,-0.12253,-0.002164
1264,0.038287,0.014937,0.015266,-0.0087413,-0.0064392,-0.11595,-0.0031506
1265,0.031709,0.018884,0.0077021,-0.0093991,-0.0097279,-0.10543,-0.0061104
1266,0.023159,0.02579,0.00079584,-0.0080836,-0.017621,-0.090958,-0.0057815
1267,0.012635,0.029736,-0.0008485,-0.0074258,-0.022883,-0.071226,-0.0024928
1268,0.0017824,0.029407,0.0054,-0.0047949,-0.021567,-0.044588,0.002769
1269,-0.0047949,0.02579,0.015595,-0.00051963,-0.015319,-0.0093991,0.0096753
1270,-0.0057815,0.01987,0.026447,0.0047422,-0.0077547,0.033683,0.015924
1271,-0.002164,0.015266,0.032367,0.0070443,-0.0015062,0.084986,0.021186
1272,0.0034268,0.013951,0.03434,0.0073732,0.00046697,0.14155,0.02579
1273,0.010662,0.013293,0.036642,0.0047422,-0.0041372,0.19943,0.031381
1274,0.016253,0.011648,0.039931,0.00046697,-0.013674,0.25468,0.038944
1275,0.020199,0.0063866,0.039273,-0.0031506,-0.02354,0.29743,0.04618
1276,0.020857,-0.004466,0.033025,-0.0031506,-0.02946,0.31223,0.046837
1277,0.017897,-0.016305,0.02283,0.00079584,-0.033735,0.28987,0.04026
1278,0.012964,-0.023211,0.012306,0.0054,-0.034722,0.23791,0.032367
1279,0.0060577,-0.027158,0.0060577,0.012306,-0.031433,0.16753,0.02579
1280,-0.002164,-0.030775,0.0057288,0.015924,-0.025514,0.091892,0.023159
1281,-0.010386,-0.03242,0.01132,0.017568,-0.018936,0.029736,0.024803
1282,-0.018936,-0.029789,0.018555,0.017568,-0.013017,-0.0074258,0.029078
1283,-0.027158,-0.024856,0.02283,0.019541,-0.010715,-0.019265,0.033354
1284,-0.033735,-0.017292,0.023488,0.025132,-0.013345,-0.014661,0.0373
1285,-0.035708,-0.011701,0.016253,0.031709,-0.019594,-0.0051238,0.04026
1286,-0.033735,-0.014332,0.0086887,0.038287,-0.027158,0.0011247,0.042233
1287,-0.030775,-0.020909,0.0024402,0.044206,-0.035051,0.0014536,0.041247
1288,-0.027158,-0.025514,-0.0008485,0.04881,-0.039326,-0.0038083,0.034998
1289,-0.021896,-0.02354,0.0014536,0.052428,-0.037024,-0.0084125,0.026447
1290,-0.014332,-0.018278,0.0063866,0.055388,-0.03242,-0.0087413,0.023159
1291,-0.004466,-0.015319,0.012306,0.058676,-0.02946,-0.0067681,0.024803
1292,0.0034268,-0.013017,0.016253,0.061307,-0.024527,-0.0087413,0.028092
1293,0.0090175,-0.0093991,0.018884,0.066898,-0.01499,-0.018936,0.031709
1294,0.010333,-0.0051238,0.018226,0.071831,-0.0015062,-0.036366,0.034669
1295,0.0090175,0.0011247,0.018884,0.071831,0.0073732,-0.051823,0.035327
1296,0.0070443,0.0093464,0.020528,0.067227,0.0077021,-0.058729,0.030394
1297,0.0050711,0.01691,0.024474,0.060979,0.00079584,-0.059387,0.024803
1298,0.00079584,0.022501,0.027434,0.057032,-0.0077547,-0.05544,0.023817
1299,-0.002164,0.024145,0.027763,0.055388,-0.010057,-0.053467,0.026776
1300,-0.0034794,0.024145,0.023817,0.053086,-0.0047949,-0.056427,0.029407
1301,-0.0008485,0.022172,0.019541,0.04881,0.00046697,-0.063333,0.025461
1302,0.0054,0.017239,0.016253,0.042891,0.0030979,-0.069582,0.01691
1303,0.012306,0.014608,0.015595,0.036971,0.0017824,-0.06728,0.010333
1304,0.015266,0.018226,0.018226,0.03434,0.0001381,-0.057414,0.0086887
1305,0.013951,0.022501,0.023488,0.034011,0.0017824,-0.039655,0.014279
1306,0.010662,0.020857,0.02875,0.034669,0.017897,-0.0087413,0.024474
1307,0.0054,0.011648,0.029078,0.038944,0.05177,0.030065,0.033025
1308,0.00079584,0.00046697,0.025132,0.047824,0.10044,0.070845,0.035985
1309,-0.00051963,-0.0087413,0.018555,0.05769,0.15076,0.1057,0.037958
1310,0.002769,-0.010057,0.011648,0.065583,0.18825,0.12478,0.043549
1311,0.0060577,-0.0031506,0.0073732,0.070187,0.1991,0.11853,0.051113
1312,0.0077021,0.011648,0.0063866,0.074133,0.18003,0.093208,0.057032
1313,0.01132,0.026447,0.0054,0.074133,0.13432,0.057032,0.055717
1314,0.018884,0.038287,0.0037556,0.070187,0.072489,0.018555,0.049139
1315,0.030723,0.045522,0.00079584,0.061307,0.0086887,-0.012688,0.039602
1316,0.042891,0.048482,-0.0011774,0.050126,-0.046232,-0.030775,0.02875
1317,0.050126,0.043877,-0.002164,0.041247,-0.083394,-0.034393,0.023159
1318,0.050784,0.033354,-0.0008485,0.039602,-0.10148,-0.028144,0.022501
1319,0.04618,0.018884,-0.00019077,0.043549,-0.10247,-0.019923,0.025132
1320,0.041904,0.0096753,0.0017824,0.050126,-0.091616,-0.015976,0.027763
1321,0.041904,0.0093464,0.0054,0.05473,-0.072542,-0.018278,0.027763
1322,0.046508,0.016581,0.011977,0.051441,-0.046561,-0.023211,0.026447
1323,0.051441,0.02875,0.021843,0.038616,-0.016305,-0.024198,0.029407
1324,0.052428,0.04026,0.031709,0.019212,0.014608,-0.016305,0.037958
1325,0.04881,0.047166,0.038616,0.00079584,0.033354,-0.004466,0.042233
1326,0.042891,0.048482,0.041575,-0.010386,0.038287,0.0037556,0.038616
1327,0.04026,0.042562,0.039273,-0.014003,0.035656,0.0057288,0.027105
1328,0.040918,0.034998,0.032038,-0.0090702,0.032038,0.002769,0.010991
1329,0.042233,0.027434,0.026447,-0.0041372,0.032696,-0.0018351,-0.0011774
1330,0.040918,0.020199,0.025461,-0.00051963,0.037958,-0.0011774,-0.0064392
1331,0.037629,0.015266,0.025132,-0.00051963,0.042891,0.0021113,-0.004466
1332,0.035327,0.016253,0.02283,-0.0031506,0.04618,0.0050711,-0.00019077
1333,0.034669,0.020199,0.018226,-0.0077547,0.046837,0.0044134,0.0030979
1334,0.033025,0.026119,0.015595,-0.010715,0.044206,0.0014536,0.002769
1335,0.029736,0.035656,0.015595,-0.0097279,0.037958,0.00046697,0.0011247
1336,0.026447,0.044864,0.015924,-0.0064392,0.030394,0.0060577,0.00046697
1337,0.023817,0.048153,0.014279,0.0017824,0.018884,0.018555,0.0073732
1338,0.02579,0.043877,0.012964,0.013293,-0.0015062,0.035327,0.014937
1339,0.031381,0.038616,0.014279,0.023817,-0.024527,0.047495,0.018555
1340,0.036971,0.036314,0.020199,0.029078,-0.042944,0.052757,0.021186
1341,0.039931,0.036314,0.027105,0.025461,-0.053467,0.049139,0.023488
1342,0.038944,0.042233,0.032038,0.018555,-0.06136,0.038616,0.027434
1343,0.039602,0.051441,0.034669,0.013293,-0.069582,0.024145,0.030394
1344,0.04322,0.05473,0.031381,0.011977,-0.073857,0.013622,0.029407
1345,0.048153,0.048482,0.022501,0.010662,-0.070568,0.011648,0.025132
1346,0.052099,0.039273,0.011977,0.010662,-0.060045,0.010333,0.023817
1347,0.055059,0.032696,0.0063866,0.012306,-0.048205,0.0044134,0.028421
1348,0.058676,0.031709,0.0090175,0.018555,-0.042615,-0.010057,0.038944
1349,0.059334,0.035327,0.018555,0.024474,-0.044588,-0.02946,0.050126
1350,0.052428,0.041247,0.029078,0.02579,-0.049192,-0.045246,0.059005
1351,0.038616,0.047824,0.037629,0.023817,-0.049192,-0.050836,0.06624
1352,0.024145,0.056046,0.042233,0.021843,-0.04689,-0.044588,0.073476
1353,0.014608,0.059663,0.045522,0.023817,-0.045246,-0.030775,0.079066
1354,0.011648,0.051113,0.049797,0.028092,-0.041957,-0.014661,0.076435
1355,0.014608,0.031381,0.052099,0.033354,-0.03242,0.0014536,0.06624
1356,0.020199,0.0077021,0.04881,0.038287,-0.01499,0.021186,0.052757
1357,0.025461,-0.010386,0.037629,0.043549,0.0054,0.046508,0.041904
1358,0.029078,-0.016963,0.024803,0.047495,0.023817,0.073147,0.036314
1359,0.032038,-0.011372,0.013951,0.050784,0.035656,0.093536,0.038287
1360,0.033683,0.0001381,0.0070443,0.052428,0.041575,0.10636,0.04322
1361,0.034669,0.0096753,0.0054,0.051441,0.046837,0.10801,0.050126
1362,0.031381,0.014937,0.0060577,0.047824,0.05177,0.10307,0.057032
1363,0.024145,0.020528,0.0054,0.04618,0.057032,0.093865,0.06361
1364,0.01987,0.030065,0.0021113,0.048482,0.063281,0.08367,0.067556
1365,0.018884,0.042562,-0.0018351,0.054072,0.069858,0.076764,0.068543
1366,0.021514,0.053086,-0.002164,0.059663,0.077422,0.07512,0.065254
1367,0.023488,0.055388,0.002769,0.064267,0.081039,0.076106,0.060321
1368,0.020199,0.05177,0.014608,0.066569,0.079395,0.078737,0.055059
1369,0.010333,0.04618,0.030394,0.067556,0.07512,0.079395,0.052428
1370,-0.002164,0.039602,0.042562,0.068871,0.071831,0.074791,0.055388
1371,-0.0090702,0.035327,0.047495,0.07216,0.065583,0.066569,0.062623
1372,-0.0080836,0.030394,0.047166,0.076435,0.056374,0.056703,0.067227
1373,-0.0024928,0.028092,0.045522,0.078409,0.042233,0.04618,0.064596
1374,0.0040845,0.02875,0.041247,0.074791,0.025132,0.035656,0.059663
1375,0.0067154,0.030723,0.037629,0.067556,0.010333,0.029407,0.05769
1376,0.0080309,0.031381,0.034998,0.060321,0.0034268,0.026447,0.058676
1377,0.010004,0.028421,0.032367,0.055059,-0.0018351,0.02283,0.05769
1378,0.014608,0.024474,0.028092,0.050455,-0.013017,0.013293,0.049797
1379,0.018555,0.022172,0.022172,0.045522,-0.032749,-0.0018351,0.037629
1380,0.018226,0.018884,0.01691,0.041904,-0.053467,-0.01795,0.026447
1381,0.014608,0.015924,0.014937,0.043549,-0.069253,-0.025185,0.021514
1382,0.0054,0.01691,0.015924,0.05177,-0.07583,-0.022225,0.024803
1383,-0.0057815,0.021843,0.017239,0.059334,-0.073857,-0.016305,0.032367
1384,-0.010057,0.024803,0.017897,0.063281,-0.061031,-0.012359,0.036971
1385,-0.0011774,0.024803,0.015266,0.062623,-0.043601,-0.011372,0.036314
1386,0.01691,0.024803,0.010991,0.05769,-0.023211,-0.013674,0.031709
1387,0.035327,0.028421,0.0034268,0.050126,0.0011247,-0.019594,0.026119
1388,0.047495,0.034011,-0.0011774,0.043877,0.028092,-0.023869,0.017568
1389,0.049797,0.037958,0.0011247,0.04026,0.056046,-0.022554,0.0060577
1390,0.047166,0.038944,0.0073732,0.038616,0.084328,-0.017621,-0.0041372
1391,0.042233,0.036971,0.012306,0.035985,0.10801,-0.0090702,-0.007097
1392,0.038287,0.036971,0.014937,0.032367,0.12248,0.0034268,-0.0038083
1393,0.035327,0.042233,0.013951,0.024803,0.12774,0.01987,0.0030979
1394,0.029736,0.049797,0.0080309,0.015266,0.12281,0.035327,0.0077021
1395,0.020857,0.055059,-0.0031506,0.0054,0.10965,0.045851,0.0054
1396,0.012635,0.055717,-0.011701,0.00079584,0.091892,0.046837,-0.0087413
1397,0.0080309,0.049797,-0.01499,-0.00051963,0.071831,0.036971,-0.02354
1398,0.0067154,0.042562,-0.014003,-0.0064392,0.052757,0.019541,-0.034064
1399,0.0086887,0.038287,-0.011372,-0.016963,0.037629,-0.00051963,-0.034722
1400,0.013293,0.033354,-0.0087413,-0.0265,0.030394,-0.020581,-0.030118
1401,0.017897,0.027105,-0.0084125,-0.032749,0.028092,-0.037682,-0.028802
1402,0.019212,0.019212,-0.0084125,-0.035708,0.031052,-0.043272,-0.033406
1403,0.015924,0.012306,-0.0084125,-0.03538,0.03434,-0.037353,-0.041628
1404,0.0090175,0.0083598,-0.007097,-0.03538,0.034011,-0.02354,-0.051165
1405,0.0017824,0.0070443,-0.0038083,-0.036037,0.026776,-0.011372,-0.058729
1406,-0.0041372,0.0083598,-0.0034794,-0.036695,0.018555,-0.0047949,-0.061689
1407,-0.0067681,0.010991,-0.0051238,-0.039326,0.012964,-0.0024928,-0.062018
1408,-0.0061104,0.016253,-0.0061104,-0.041957,0.011977,-0.0024928,-0.061689
1409,-0.0015062,0.024145,-0.0074258,-0.045903,0.010991,-0.0011774,-0.058729
1410,0.0060577,0.032038,-0.0051238,-0.046232,0.0073732,0.0021113,-0.053467
1411,0.013622,0.035985,0.0014536,-0.040641,0.0030979,0.010333,-0.047548
1412,0.020528,0.03434,0.0086887,-0.03242,-0.0008485,0.021514,-0.042944
1413,0.025461,0.028421,0.015266,-0.024856,-0.0041372,0.029736,-0.038997
1414,0.031381,0.022172,0.01987,-0.02354,-0.007097,0.031709,-0.039655
1415,0.036971,0.018884,0.021186,-0.026829,-0.010386,0.029078,-0.043272
1416,0.039931,0.021843,0.016253,-0.034064,-0.014003,0.027763,-0.043272
1417,0.039931,0.027434,0.0080309,-0.047548,-0.014332,0.027434,-0.038997
1418,0.036971,0.033683,0.0021113,-0.06136,-0.013017,0.025132,-0.033735
1419,0.033683,0.04026,0.0017824,-0.07024,-0.013017,0.017239,-0.026171
1420,0.032696,0.048482,0.0050711,-0.067937,-0.014661,0.0054,-0.016963
1421,0.032367,0.057032,0.0083598,-0.056098,-0.015648,-0.0041372,-0.007097
1422,0.030394,0.056703,0.014279,-0.041299,-0.015648,-0.0074258,0.00079584
1423,0.025461,0.045522,0.02283,-0.02946,-0.012359,-0.0038083,0.0057288
1424,0.021843,0.030394,0.028092,-0.021238,-0.0038083,0.0011247,0.0037556
1425,0.021186,0.023488,0.029078,-0.012359,0.0083598,0.0077021,-0.0028217
1426,0.021186,0.029078,0.027434,0.0024402,0.01987,0.015924,-0.0077547
1427,0.022501,0.044206,0.024474,0.018226,0.027434,0.024803,-0.0051238
1428,0.022501,0.058019,0.022172,0.035327,0.034011,0.035985,0.0054
1429,0.02283,0.064925,0.018555,0.050455,0.04026,0.049468,0.017897
1430,0.024145,0.06624,0.011977,0.056703,0.045522,0.060979,0.028092
1431,0.025461,0.066898,0.0047422,0.055717,0.051113,0.067227,0.036971
1432,0.027105,0.070187,-0.00019077,0.052428,0.056046,0.064925,0.045522
1433,0.028092,0.069529,0.00046697,0.052099,0.060979,0.056703,0.050784
1434,0.023817,0.061307,0.002769,0.053415,0.065583,0.043877,0.048482
1435,0.011977,0.047824,0.0054,0.056703,0.067885,0.032696,0.038616
1436,-0.0024928,0.035327,0.0080309,0.063938,0.070516,0.030065,0.027105
1437,-0.01499,0.024145,0.010333,0.073147,0.072489,0.035656,0.01691
1438,-0.022883,0.018884,0.012964,0.076435,0.070187,0.047166,0.010662
1439,-0.024856,0.018884,0.017568,0.068871,0.061307,0.058676,0.010004
1440,-0.02354,0.023488,0.024145,0.053743,0.050126,0.064267,0.01132
1441,-0.023869,0.02875,0.028421,0.041904,0.035327,0.062623,0.01132
1442,-0.028473,0.029407,0.027105,0.037629,0.021186,0.054401,0.011977
1443,-0.033078,0.027763,0.026119,0.039602,0.010662,0.041247,0.013293
1444,-0.036366,0.025132,0.025461,0.04322,0.0017824,0.029407,0.012306
1445,-0.037353,0.022172,0.023159,0.04322,-0.0074258,0.022172,0.01132
1446,-0.038668,0.020199,0.017897,0.043549,-0.016305,0.021843,0.014279
1447,-0.04097,0.018555,0.014279,0.049797,-0.022225,0.031381,0.01987
1448,-0.044588,0.020199,0.013951,0.055059,-0.018936,0.04618,0.028092
1449,-0.048534,0.024145,0.016581,0.056046,-0.0097279,0.058019,0.038287
1450,-0.049192,0.02875,0.017897,0.052428,-0.0015062,0.059992,0.047495
1451,-0.047219,0.027763,0.015595,0.04618,0.00079584,0.053086,0.052757
1452,-0.041628,0.020857,0.013622,0.039931,-0.0008485,0.043877,0.052428
1453,-0.031104,0.012964,0.011977,0.0373,-0.0064392,0.033683,0.050784
1454,-0.021896,0.0080309,0.010662,0.039931,-0.013345,0.026119,0.04881
1455,-0.016634,0.0047422,0.012306,0.048153,-0.018278,0.024145,0.047495
1456,-0.014661,0.0024402,0.018555,0.057032,-0.016634,0.02283,0.046508
1457,-0.012688,-0.002164,0.02579,0.059992,-0.0090702,0.013951,0.049139
1458,-0.0077547,-0.0067681,0.030394,0.053086,-0.0031506,0.0001381,0.055059
1459,0.002769,-0.011372,0.033683,0.04026,-0.0047949,-0.014332,0.060979
1460,0.014279,-0.015976,0.034998,0.029407,-0.014003,-0.0265,0.063938
1461,0.023817,-0.014332,0.033354,0.02875,-0.024527,-0.034722,0.061965
1462,0.030065,-0.007097,0.029407,0.037629,-0.028802,-0.037024,0.058676
1463,0.030394,0.0057288,0.027105,0.045522,-0.024856,-0.034722,0.057032
1464,0.027434,0.018884,0.02579,0.045851,-0.01795,-0.027816,0.058676
1465,0.026447,0.032696,0.025132,0.037629,-0.012359,-0.018936,0.06065
1466,0.027763,0.042562,0.024803,0.029407,-0.0084125,-0.010386,0.060979
1467,0.031381,0.045522,0.027105,0.023817,-0.004466,-0.010057,0.060979
1468,0.035985,0.036314,0.031709,0.020199,0.0040845,-0.015648,0.058676
1469,0.040918,0.018555,0.035656,0.021514,0.01132,-0.02354,0.048153
1470,0.044206,0.0001381,0.036642,0.027434,0.016253,-0.02946,0.031381
1471,0.045522,-0.0097279,0.03434,0.034998,0.017239,-0.031104,0.016253
1472,0.043877,-0.010715,0.030394,0.035656,0.017897,-0.026171,0.012635
1473,0.041247,-0.004466,0.030394,0.030394,0.019212,-0.022225,0.017897
1474,0.042233,0.0063866,0.032696,0.020857,0.017568,-0.02354,0.026776
1475,0.04881,0.014608,0.032696,0.010991,0.016253,-0.029131,0.035985
1476,0.056374,0.019212,0.029078,0.0037556,0.014608,-0.034393,0.042891
1477,0.063281,0.015924,0.023817,-0.0034794,0.012306,-0.041628,0.045851
1478,0.066569,0.0063866,0.019212,-0.0090702,0.0070443,-0.053138,0.044206
1479,0.063938,-0.0015062,0.012964,-0.013017,-0.0067681,-0.063333,0.040589
1480,0.056046,-0.0041372,0.0063866,-0.011043,-0.028473,-0.063333,0.036642
1481,0.044206,-0.0008485,0.0021113,-0.0031506,-0.048205,-0.056098,0.034011
1482,0.0373,0.0057288,0.0014536,0.0070443,-0.053467,-0.045246,0.034011
1483,0.038287,0.0080309,0.0030979,0.013293,-0.042944,-0.037024,0.037629
1484,0.04618,0.0024402,0.0057288,0.011648,-0.023869,-0.033406,0.043877
1485,0.056703,-0.0090702,0.0077021,0.0063866,-0.0015062,-0.02946,0.049797
1486,0.064596,-0.019923,0.0073732,0.0011247,0.023817,-0.01795,0.050455
1487,0.067556,-0.025842,0.0050711,0.0021113,0.046837,0.0014536,0.049139
1488,0.06624,-0.025842,0.0034268,0.0054,0.059334,0.021514,0.047495
1489,0.063938,-0.020581,0.0037556,0.010004,0.058019,0.033025,0.048482
1490,0.060321,-0.012359,0.0073732,0.013293,0.043877,0.032696,0.047495
1491,0.056046,-0.0015062,0.014608,0.018884,0.022501,0.025132,0.042891
1492,0.049797,0.012306,0.020857,0.028092,0.0001381,0.014279,0.037958
1493,0.045193,0.025461,0.024803,0.038944,-0.01795,0.0014536,0.037958
1494,0.044206,0.033683,0.026119,0.047824,-0.027487,-0.010386,0.040918
1495,0.050455,0.032038,0.028092,0.051113,-0.027158,-0.01795,0.045851
1496,0.059334,0.022501,0.027105,0.047824,-0.01795,-0.022883,0.049797
1497,0.064267,0.013293,0.024145,0.039602,-0.0051238,-0.028473,0.046508
1498,0.059663,0.0083598,0.018555,0.025132,0.0086887,-0.037353,0.037958
1499,0.04881,0.011977,0.011977,0.0083598,0.01987,-0.050836,0.026447
1500,0.035985,0.019541,0.0024402,-0.0064392,0.025461,-0.063333,0.017897
1501,0.024803,0.028092,-0.0061104,-0.01203,0.023817,-0.070897,0.016253
1502,0.01691,0.035327,-0.012688,-0.0064392,0.017239,-0.072542,0.022172
1503,0.013293,0.038616,-0.016634,0.0070443,0.010004,-0.068924,0.034669
1504,0.014608,0.038616,-0.014661,0.021843,0.0070443,-0.061031,0.048153
1505,0.016253,0.039602,-0.0077547,0.032038,0.0037556,-0.051494,0.053743
1506,0.017239,0.042891,0.0044134,0.036971,0.0024402,-0.043272,0.046508
1507,0.017239,0.047495,0.015924,0.039931,0.0034268,-0.038668,0.033683
1508,0.016581,0.04881,0.022172,0.045522,0.0096753,-0.035708,0.022172
1509,0.013622,0.047824,0.017897,0.052428,0.01987,-0.034064,0.015595
1510,0.0073732,0.044206,0.0047422,0.058676,0.030394,-0.029131,0.014937
1511,0.00046697,0.040589,-0.007097,0.059992,0.03434,-0.019923,0.020528
1512,-0.004466,0.033025,-0.010715,0.056703,0.027434,-0.010386,0.029736
1513,-0.0018351,0.018884,-0.0061104,0.048153,0.0073732,-0.0093991,0.036314
1514,0.0057288,0.0014536,0.0044134,0.037958,-0.025185,-0.019265,0.033683
1515,0.01132,-0.013674,0.015266,0.024803,-0.060702,-0.038668,0.021186
1516,0.0086887,-0.021238,0.018555,0.0083598,-0.088656,-0.058071,0.002769
1517,-0.0018351,-0.019594,0.013293,-0.0087413,-0.099509,-0.067609,-0.013017
1518,-0.01499,-0.011043,0.0037556,-0.022554,-0.0903,-0.063004,-0.020581
1519,-0.025514,0.0017824,-0.0061104,-0.025185,-0.062676,-0.045246,-0.020252
1520,-0.029789,0.018555,-0.011372,-0.015648,-0.019265,-0.018936,-0.014003
1521,-0.033078,0.035327,-0.0097279,0.00079584,0.032038,0.013293,-0.0077547
1522,-0.032091,0.044535,-0.004466,0.01691,0.078409,0.047824,-0.0047949
1523,-0.026829,0.044206,0.0024402,0.030394,0.11623,0.080711,-0.0047949
1524,-0.018936,0.04026,0.01132,0.041575,0.14287,0.10834,-0.0038083
1525,-0.010386,0.036971,0.016253,0.055717,0.15865,0.13037,0.0037556
1526,-0.0034794,0.036642,0.017568,0.073476,0.16753,0.15109,0.015266
1527,0.0001381,0.0373,0.014937,0.092879,0.1774,0.1695,0.027763
1528,0.0037556,0.037629,0.015595,0.1113,0.18661,0.17904,0.038944
1529,0.0037556,0.038944,0.02283,0.12807,0.18825,0.1774,0.047495
1530,0.0050711,0.041904,0.035656,0.13925,0.17838,0.16753,0.050455
1531,0.0073732,0.045193,0.047495,0.14122,0.15569,0.15536,0.047495
1532,0.010662,0.04618,0.052099,0.13629,0.12346,0.14714,0.040918
1533,0.014937,0.04618,0.047495,0.12741,0.090577,0.1432,0.035327
1534,0.020857,0.047166,0.035985,0.11426,0.062623,0.13793,0.03434
1535,0.029736,0.049139,0.026776,0.099785,0.041575,0.12708,0.0373
1536,0.0373,0.052099,0.023488,0.088275,0.023159,0.11064,0.042233
1537,0.040589,0.054072,0.026119,0.079066,0.0083598,0.090905,0.044535
1538,0.039931,0.053086,0.031381,0.067556,-0.010715,0.070187,0.043877
1539,0.036642,0.049139,0.035656,0.054401,-0.036037,0.048482,0.038616
1540,0.030065,0.043549,0.037958,0.04026,-0.064978,0.02875,0.029407
1541,0.020857,0.036314,0.038616,0.032038,-0.089972,0.014937,0.019212
1542,0.013293,0.031052,0.039602,0.031709,-0.10905,0.0080309,0.014279
1543,0.0083598,0.030065,0.041904,0.035327,-0.12089,0.0070443,0.013622
1544,0.0070443,0.034669,0.045193,0.041247,-0.12615,0.0096753,0.014937
1545,0.0096753,0.04322,0.048153,0.045522,-0.12713,0.014608,0.015924
1546,0.013951,0.053415,0.049468,0.044206,-0.1268,0.015595,0.018555
1547,0.020528,0.060979,0.049797,0.038287,-0.1268,0.0083598,0.025132
1548,0.026447,0.065583,0.04618,0.029736,-0.12516,-0.0047949,0.030723
1549,0.031381,0.06361,0.039931,0.018884,-0.11562,-0.019265,0.03434
1550,0.033683,0.057032,0.035656,0.014937,-0.098193,-0.029131,0.034998
1551,0.030394,0.050455,0.032696,0.017239,-0.069911,-0.035708,0.029078
1552,0.021186,0.04618,0.032038,0.022501,-0.038997,-0.038011,0.012964
1553,0.010004,0.048153,0.034011,0.023488,-0.014003,-0.037024,-0.0064392
1554,0.002769,0.047824,0.034011,0.01691,-0.0054526,-0.036366,-0.019923
1555,0.0017824,0.043549,0.031381,0.0067154,-0.01203,-0.035708,-0.020909
1556,0.0080309,0.038287,0.024803,-0.0051238,-0.023869,-0.034064,-0.014003
1557,0.018555,0.035656,0.015595,-0.015319,-0.027158,-0.028473,-0.004466
1558,0.026776,0.033354,0.0057288,-0.019594,-0.017292,-0.022554,0.0024402
1559,0.027105,0.031709,-0.0008485,-0.022225,-0.0028217,-0.01795,0.0054
1560,0.024145,0.026119,-0.0011774,-0.024198,0.0063866,-0.013674,0.0060577
1561,0.023488,0.017897,0.002769,-0.025514,0.01132,-0.012359,0.0054
1562,0.02579,0.0086887,0.0030979,-0.028144,0.01691,-0.0084125,0.0021113
1563,0.026447,0.0021113,0.0001381,-0.030775,0.02579,-0.0011774,-0.0034794
1564,0.02875,-0.0031506,-0.0038083,-0.03242,0.036642,0.010991,-0.0084125
1565,0.034998,-0.0093991,-0.0015062,-0.031762,0.05177,0.026119,-0.010715
1566,0.041575,-0.015648,0.0034268,-0.028144,0.070845,0.042562,-0.0097279
1567,0.045522,-0.022225,0.0050711,-0.022883,0.090905,0.055059,-0.0054526
1568,0.049139,-0.025842,0.0044134,-0.017292,0.10801,0.059005,-0.0031506
1569,0.054401,-0.031104,0.0054,-0.014661,0.11458,0.052757,-0.0041372
1570,0.059334,-0.036366,0.0050711,-0.01795,0.10176,0.041904,-0.0047949
1571,0.063281,-0.038011,0.0021113,-0.024198,0.070845,0.034669,-0.0051238
1572,0.06361,-0.038997,-0.0008485,-0.030775,0.033683,0.029736,-0.004466
1573,0.061965,-0.037024,-0.0034794,-0.037353,0.0047422,0.026119,-0.0057815
1574,0.06065,-0.033406,-0.0061104,-0.043601,-0.0080836,0.025132,-0.010057
1575,0.055388,-0.033078,-0.0087413,-0.048205,-0.007097,0.031052,-0.010715
1576,0.041247,-0.031762,-0.011701,-0.045574,0.0014536,0.042562,-0.0047949
1577,0.02283,-0.0265,-0.013345,-0.038668,0.010991,0.055388,0.0060577
1578,0.0070443,-0.019265,-0.011372,-0.029789,0.018555,0.066569,0.017239
1579,0.0001381,-0.010386,-0.004466,-0.023211,0.021843,0.072489,0.024803
1580,0.0011247,-0.0034794,0.002769,-0.018936,0.023159,0.068214,0.028092
1581,0.0083598,0.002769,0.0080309,-0.014332,0.024803,0.056374,0.027763
1582,0.019212,0.0080309,0.011977,-0.011043,0.024803,0.040589,0.02283
1583,0.031381,0.013951,0.010991,-0.012688,0.021843,0.025461,0.014608
1584,0.041575,0.01691,0.0060577,-0.017621,0.013293,0.010004,0.0080309
1585,0.045851,0.017897,-0.00019077,-0.024527,-0.0047949,-0.0067681,0.0040845
1586,0.046508,0.016581,-0.0024928,-0.030447,-0.030118,-0.023211,0.0063866
1587,0.045193,0.012306,0.0014536,-0.030447,-0.059716,-0.038668,0.013951
1588,0.044864,0.0063866,0.0083598,-0.021896,-0.08471,-0.047877,0.023817
1589,0.045522,0.0001381,0.012306,-0.0064392,-0.094905,-0.041628,0.033354
1590,0.047495,-0.004466,0.012306,0.0093464,-0.089314,-0.021238,0.036314
1591,0.051441,-0.007097,0.013951,0.019541,-0.074844,0.0040845,0.031381
1592,0.05473,-0.0041372,0.018226,0.02283,-0.060373,0.024474,0.025132
1593,0.057032,0.002769,0.023817,0.021843,-0.050507,0.039931,0.025132
1594,0.057032,0.010991,0.030065,0.021843,-0.047219,0.052757,0.033683
1595,0.056046,0.020857,0.034669,0.025132,-0.048534,0.059663,0.047166
1596,0.053415,0.03434,0.03434,0.034669,-0.049521,0.060979,0.059663
1597,0.04881,0.048482,0.029736,0.047495,-0.04689,0.056374,0.066898
1598,0.043549,0.058676,0.023159,0.055388,-0.037024,0.046508,0.066569
1599,0.036642,0.065254,0.018226,0.052757,-0.022554,0.029736,0.05769
1600,0.030065,0.065912,0.016253,0.041247,-0.0057815,0.0080309,0.042233
1601,0.02283,0.062623,0.010991,0.029736,0.0050711,-0.013345,0.031381
1602,0.014608,0.056374,0.0030979,0.021843,0.0083598,-0.031104,0.032367
1603,0.0034268,0.049797,-0.0031506,0.020528,0.012306,-0.038668,0.044535
1604,-0.0064392,0.043877,-0.0057815,0.025461,0.021186,-0.030775,0.059663
1605,-0.011372,0.036971,-0.0031506,0.032038,0.031381,-0.011372,0.070187
1606,-0.015319,0.031709,0.0030979,0.035985,0.042233,0.0083598,0.068871
1607,-0.020909,0.032038,0.0093464,0.0373,0.052757,0.020199,0.05769
1608,-0.026171,0.0373,0.0096753,0.039602,0.060321,0.026119,0.044535
1609,-0.027158,0.044864,0.0060577,0.042562,0.062952,0.032367,0.033683
1610,-0.022554,0.049139,0.0011247,0.043877,0.065912,0.043877,0.027105
1611,-0.016963,0.047166,-0.0011774,0.04322,0.068214,0.065254,0.028092
1612,-0.012359,0.04322,0.0014536,0.041247,0.076764,0.090577,0.034669
1613,-0.012688,0.0373,0.0093464,0.042233,0.089919,0.10965,0.039273
1614,-0.016305,0.032696,0.01987,0.047824,0.099456,0.1182,0.036971
1615,-0.021238,0.032696,0.029078,0.057361,0.10011,0.11689,0.031709
1616,-0.024198,0.037958,0.036314,0.068871,0.09551,0.11064,0.030723
1617,-0.023211,0.048153,0.040589,0.077751,0.091234,0.10406,0.034669
1618,-0.019923,0.058676,0.044864,0.079724,0.085972,0.096825,0.037958
1619,-0.014661,0.06624,0.04881,0.076435,0.079395,0.082684,0.035327
1620,-0.010057,0.067556,0.050126,0.070516,0.069529,0.059334,0.027105
1621,-0.0067681,0.063938,0.049139,0.062623,0.058019,0.032367,0.013293
1622,-0.0090702,0.058019,0.04618,0.054401,0.048482,0.010662,-0.00019077
1623,-0.016963,0.051441,0.042891,0.052757,0.039273,0.002769,-0.0080836
1624,-0.026829,0.04881,0.042233,0.05769,0.032367,0.0044134,-0.0087413
1625,-0.031433,0.049797,0.045522,0.071173,0.02875,0.0070443,-0.0028217
1626,-0.028473,0.052099,0.047824,0.085972,0.029407,0.0054,0.0077021
1627,-0.019594,0.05177,0.042233,0.099127,0.031052,-0.002164,0.017897
1628,-0.0084125,0.047495,0.034011,0.10505,0.031709,-0.014332,0.027763
1629,0.0054,0.038944,0.028421,0.10307,0.024803,-0.0265,0.033025
1630,0.014608,0.029407,0.027434,0.093865,0.0093464,-0.034393,0.032367
1631,0.016581,0.024145,0.027763,0.080053,-0.0067681,-0.037353,0.026776
1632,0.015924,0.02579,0.027105,0.06065,-0.014661,-0.036037,0.017568
1633,0.017239,0.033354,0.023159,0.039273,-0.013345,-0.035051,0.0096753
1634,0.018884,0.040918,0.015595,0.021514,-0.004466,-0.036695,0.0047422
1635,0.018555,0.04322,0.0070443,0.01132,0.0057288,-0.038668,-0.00019077
1636,0.013951,0.035656,-0.00051963,0.010333,0.013293,-0.037353,-0.0093991
1637,0.0090175,0.022501,-0.0038083,0.013951,0.011977,-0.031762,-0.021896
1638,0.010004,0.010991,-0.0054526,0.013951,-0.00051963,-0.023869,-0.034722
1639,0.014608,0.0073732,-0.0057815,0.010991,-0.013017,-0.021896,-0.042944
1640,0.018555,0.013293,-0.0038083,0.0090175,-0.015319,-0.026829,-0.046232
1641,0.016253,0.024803,-0.00019077,0.010004,-0.010386,-0.038011,-0.045903
1642,0.0070443,0.03434,0.0047422,0.011648,-0.0041372,-0.050836,-0.046561
1643,-0.0054526,0.036971,0.01132,0.0086887,0.0014536,-0.064649,-0.049521
1644,-0.015319,0.034669,0.017239,0.0030979,0.00046697,-0.075501,-0.050836
1645,-0.019265,0.032038,0.019541,-0.0074258,-0.004466,-0.075173,-0.047877
1646,-0.016963,0.029078,0.018555,-0.016634,-0.010386,-0.063004,-0.04097
1647,-0.0077547,0.024145,0.016581,-0.021896,-0.015319,-0.04689,-0.033406
1648,0.0014536,0.019212,0.012635,-0.021567,-0.018936,-0.035051,-0.024198
1649,0.0054,0.016253,0.010004,-0.01795,-0.019265,-0.03242,-0.012359
1650,0.0034268,0.016253,0.0073732,-0.012359,-0.017292,-0.036366,-0.002164
1651,0.0011247,0.017897,0.0024402,-0.010057,-0.016305,-0.040313,-0.0008485
1652,0.0014536,0.019212,-0.0051238,-0.015976,-0.018936,-0.040641,-0.0087413
1653,0.0011247,0.017568,-0.011701,-0.0265,-0.022225,-0.039984,-0.025185
1654,0.00079584,0.010662,-0.013017,-0.036695,-0.022883,-0.041299,-0.04393
1655,0.00079584,-0.0011774,-0.0093991,-0.037682,-0.018936,-0.041628,-0.061031
1656,0.0063866,-0.012359,-0.0054526,-0.030447,-0.010057,-0.040641,-0.073199
1657,0.015924,-0.015319,-0.0051238,-0.019923,0.0030979,-0.036366,-0.077803
1658,0.027434,-0.0061104,-0.0061104,-0.011043,0.017568,-0.033406,-0.072542
1659,0.036971,0.010004,-0.0041372,-0.0067681,0.028092,-0.03242,-0.063662
1660,0.039273,0.025461,0.0030979,-0.0054526,0.034669,-0.031104,-0.053796
1661,0.034669,0.031381,0.013622,-0.0018351,0.034011,-0.028473,-0.040641
1662,0.027105,0.024145,0.023488,0.0083598,0.027763,-0.023211,-0.027816
1663,0.023159,0.0090175,0.028092,0.024803,0.023817,-0.014661,-0.015648
1664,0.025461,-0.0038083,0.028092,0.045193,0.024145,-0.0015062,-0.0061104
1665,0.033683,-0.0077547,0.026776,0.059992,0.026776,0.010333,0.00079584
1666,0.044864,-0.0054526,0.025461,0.063938,0.030065,0.015266,0.0070443
1667,0.053743,0.0011247,0.027105,0.059663,0.031052,0.017897,0.012306
1668,0.057361,0.0077021,0.029078,0.049468,0.030394,0.01691,0.018226
1669,0.055059,0.014937,0.030065,0.035656,0.030065,0.013951,0.026447
1670,0.049139,0.023488,0.028092,0.023817,0.033354,0.01132,0.039931
1671,0.043549,0.032038,0.022501,0.019212,0.037629,0.0070443,0.055717
1672,0.042562,0.037629,0.017568,0.023159,0.039602,0.0024402,0.0692
1673,0.046837,0.038287,0.014608,0.028421,0.031052,-0.002164,0.076435
1674,0.053086,0.039602,0.015924,0.033354,0.015924,-0.0064392,0.074791
1675,0.060321,0.044864,0.021843,0.036971,-0.0018351,-0.010386,0.068543
1676,0.063938,0.048482,0.027105,0.040589,-0.01499,-0.011372,0.064596
1677,0.061636,0.050784,0.029407,0.044206,-0.019594,-0.011701,0.0692
1678,0.052757,0.052757,0.028092,0.047495,-0.01499,-0.011372,0.082355
1679,0.042233,0.054401,0.024145,0.047495,-0.0061104,-0.0097279,0.10011
1680,0.038287,0.05473,0.019212,0.047166,0.0021113,-0.0077547,0.11886
1681,0.044864,0.049797,0.014279,0.046837,0.0073732,-0.0041372,0.13267
1682,0.05769,0.04322,0.0093464,0.049139,0.0083598,0.0044134,0.1353
1683,0.066898,0.038287,0.0050711,0.05177,0.0070443,0.017897,0.13004
1684,0.074462,0.0373,0.0024402,0.055717,0.0083598,0.030394,0.12412
1685,0.078409,0.04026,0.0054,0.059663,0.01691,0.036314,0.12017
1686,0.076764,0.040918,0.0096753,0.064267,0.027763,0.03434,0.11557
1687,0.069858,0.035327,0.01132,0.069858,0.03434,0.030394,0.10636
1688,0.058348,0.024474,0.012306,0.076764,0.032038,0.023817,0.097154
1689,0.046508,0.010333,0.014608,0.080711,0.024803,0.012964,0.094194
1690,0.037629,-0.0041372,0.014937,0.078737,0.018555,0.0047422,0.098798
1691,0.033025,-0.014661,0.014937,0.072818,0.015595,0.0054,0.10669
1692,0.030723,-0.01795,0.017897,0.066569,0.013951,0.01987,0.11294
1693,0.027434,-0.013017,0.021514,0.062623,0.011977,0.041904,0.11656
1694,0.023159,-0.0080836,0.024474,0.059005,0.0086887,0.060321,0.11886
1695,0.018226,-0.0051238,0.025461,0.052757,0.0057288,0.068543,0.11689
1696,0.014279,-0.0034794,0.021843,0.041904,0.0060577,0.069858,0.10702
1697,0.010662,-0.0051238,0.013622,0.032696,0.012306,0.067556,0.093208
1698,0.010004,-0.007097,0.0054,0.029407,0.023817,0.065583,0.077093
1699,0.012306,-0.0051238,0.0037556,0.033354,0.038944,0.067556,0.065912
1700,0.018555,0.0037556,0.0044134,0.040589,0.058019,0.077422,0.062294
1701,0.021843,0.015924,0.0080309,0.049468,0.083342,0.10011,0.06361
1702,0.023817,0.023817,0.012306,0.058019,0.11458,0.1307,0.067227
1703,0.026447,0.027763,0.013293,0.063281,0.14155,0.15931,0.070516
1704,0.030065,0.028421,0.01132,0.064596,0.15405,0.17542,0.07216
1705,0.030394,0.02875,0.010991,0.06361,0.14977,0.17049,0.072818
1706,0.028421,0.028092,0.015595,0.059992,0.12938,0.13892,0.069529
1707,0.025132,0.026119,0.021186,0.053086,0.10176,0.088275,0.061636
1708,0.021186,0.026447,0.026447,0.041904,0.069529,0.03434,0.051441
1709,0.015924,0.030394,0.026776,0.027105,0.038944,-0.0087413,0.042233
1710,0.013951,0.037629,0.018884,0.012306,0.015266,-0.037024,0.036314
1711,0.019212,0.044535,0.0090175,0.0054,-0.00051963,-0.051823,0.03434
1712,0.028421,0.050455,0.00079584,0.0067154,-0.0041372,-0.059058,0.036314
1713,0.038287,0.052757,0.0001381,0.011977,-0.0047949,-0.065964,0.036314
1714,0.041904,0.050784,0.0060577,0.013622,-0.0093991,-0.071555,0.032038
1715,0.037629,0.041575,0.015266,0.0080309,-0.022225,-0.076159,0.026119
1716,0.026447,0.027105,0.020857,-0.0031506,-0.04393,-0.081092,0.024474
1717,0.011648,0.015924,0.018884,-0.015319,-0.067609,-0.085039,0.025461
1718,0.0021113,0.0060577,0.0077021,-0.021238,-0.086025,-0.090629,0.02283
1719,0.0011247,-0.002164,-0.0051238,-0.021238,-0.098851,-0.10017,0.016253
