,channel_1,channel_2,channel_3,channel_4,channel_5,channel_6,channel_7
0,-0.012892,-0.2029,-0.12463,-0.29742,-0.085324,-0.042124,-0.050244
1,-0.033679,-0.10189,-0.09994,-0.2854,-0.045372,-0.22921,-0.07493
2,-0.050244,0.003024,-0.07493,-0.27209,-0.02426,-0.53551,-0.096692
3,-0.059664,0.10664,-0.051219,-0.25162,-0.029132,-0.89702,-0.11456
4,-0.067134,0.20635,-0.029457,-0.21947,-0.057715,-1.215,-0.1334
5,-0.073631,0.29113,-0.0083442,-0.18374,-0.09994,-1.405,-0.15581
6,-0.076879,0.35219,0.010819,-0.15191,-0.13469,-1.4443,-0.18407
7,-0.077528,0.38142,0.028359,-0.13177,-0.13762,-1.3745,-0.21167
8,-0.076229,0.37428,0.048172,-0.12235,-0.094093,-1.2624,-0.22597
9,-0.072656,0.3353,0.06961,-0.11196,-0.0099683,-1.1608,-0.21947
10,-0.067784,0.27034,0.0865,-0.090196,0.090072,-1.089,-0.19608
11,-0.063886,0.18492,0.091372,-0.05804,0.1716,-1.0386,-0.17075
12,-0.06551,0.089098,0.083251,-0.029782,0.20765,-0.98439,-0.15678
13,-0.070707,-0.0034721,0.067986,-0.021012,0.19628,-0.89312,-0.1662
14,-0.078178,-0.079152,0.056942,-0.035628,0.14659,-0.75118,-0.19348
15,-0.08305,-0.13177,0.058566,-0.063237,0.076755,-0.56701,-0.23084
16,-0.079152,-0.1623,0.06961,-0.087272,-0.0037969,-0.35134,-0.26137
17,-0.069083,-0.17789,0.079679,-0.10319,-0.11001,-0.11651,-0.27274
18,-0.060638,-0.19056,0.075131,-0.10838,-0.25292,0.12093,-0.26072
19,-0.058365,-0.2068,0.053694,-0.10124,-0.40266,0.34342,-0.22434
20,-0.059664,-0.22077,0.025761,-0.072331,-0.50205,0.53214,-0.16588
21,-0.062262,-0.22077,0.0069217,-0.013866,-0.49978,0.67538,-0.088572
22,-0.063561,-0.19901,0.0059473,0.082277,-0.38512,0.7582,0.0010752
23,-0.05804,-0.15646,0.024461,0.22129,-0.19219,0.77574,0.090397
24,-0.041799,-0.10481,0.051096,0.39604,0.024786,0.73904,0.16673
25,-0.017439,-0.060638,0.070909,0.57923,0.21317,0.677,0.22422
26,0.015367,-0.04115,0.073182,0.72442,0.3405,0.60911,0.26677
27,0.046548,-0.04992,0.054344,0.78354,0.40838,0.53798,0.29827
28,0.06896,-0.07428,0.017965,0.73904,0.43534,0.45516,0.32783
29,0.080653,-0.098641,-0.029782,0.61399,0.44054,0.35739,0.35219
30,0.080978,-0.10481,-0.072006,0.461,0.42885,0.26449,0.36811
31,0.074806,-0.083375,-0.096042,0.32848,0.40351,0.20993,0.37233
32,0.067336,-0.038551,-0.097991,0.23851,0.36843,0.21382,0.36486
33,0.064088,0.019914,-0.0824,0.18492,0.32751,0.27391,0.34277
34,0.066686,0.080328,-0.05739,0.15763,0.27586,0.36259,0.31062
35,0.075781,0.1349,-0.030431,0.15861,0.2109,0.43729,0.27586
36,0.089423,0.17907,-0.0099683,0.20083,0.13457,0.45743,0.24306
37,0.10631,0.21415,0.0023744,0.28463,0.05207,0.40871,0.2083
38,0.1232,0.23721,0.0062721,0.3772,-0.034978,0.29957,0.16738
39,0.1323,0.24078,0.0049729,0.42722,-0.11651,0.15601,0.1206
40,0.13035,0.21025,0.0020496,0.39604,-0.18634,0.012119,0.072208
41,0.11801,0.14139,-0.00054884,0.28788,-0.24188,-0.10546,0.02706
42,0.097868,0.051096,-0.0011985,0.13717,-0.27664,-0.17335,-0.010293
43,0.077405,-0.03173,0.0017248,-0.013866,-0.29125,-0.18342,-0.03238
44,0.066037,-0.083375,0.012443,-0.13567,-0.288,-0.15223,-0.037577
45,0.065387,-0.090521,0.029333,-0.21785,-0.27566,-0.11066,-0.029457
46,0.070259,-0.054467,0.049147,-0.26397,-0.26332,-0.086948,-0.01549
47,0.074482,0.0069217,0.066037,-0.28638,-0.2591,-0.10059,-0.00087364
48,0.076431,0.073832,0.074806,-0.2971,-0.26137,-0.15256,0.01017
49,0.07773,0.12937,0.082927,-0.30522,-0.25162,-0.23636,0.018615
50,0.080328,0.16608,0.091696,-0.31399,-0.21492,-0.34809,0.022188
51,0.081952,0.17907,0.10306,-0.32601,-0.14866,-0.48873,0.024786
52,0.081627,0.1742,0.11768,-0.34192,-0.065835,-0.64984,0.029333
53,0.082927,0.1625,0.13879,-0.35589,0.021213,-0.81582,0.036154
54,0.085525,0.15373,0.1625,-0.35686,0.10826,-0.93372,0.0433
55,0.089748,0.15633,0.18719,-0.34225,0.19011,-0.91358,0.050771
56,0.099492,0.17485,0.21025,-0.31821,0.2567,-0.66413,0.062139
57,0.10761,0.20181,0.22714,-0.2932,0.28301,-0.18212,0.075781
58,0.10534,0.22065,0.23071,-0.27469,0.24566,0.40286,0.08585
59,0.087149,0.21837,0.21935,-0.27111,0.13717,0.86182,0.084551
60,0.061165,0.19011,0.19596,-0.27761,-0.029132,1.0125,0.065387
61,0.037129,0.14042,0.16575,-0.2906,-0.21914,0.82446,0.033556
62,0.020888,0.079029,0.13035,-0.29905,-0.37927,0.44054,0.003024
63,0.012443,0.024786,0.093321,-0.29547,-0.46502,0.087149,-0.016789
64,0.009845,-0.0099683,0.058566,-0.27793,-0.4608,-0.053168,-0.029782
65,0.0072465,-0.022961,0.030957,-0.24805,-0.38155,0.075456,-0.047321
66,0.0017248,-0.019063,0.010495,-0.21232,-0.27176,0.39409,-0.0824
67,-0.0054209,-0.013541,-0.008669,-0.17692,-0.17172,0.75625,-0.12592
68,-0.011267,-0.021012,-0.028807,-0.14411,-0.10351,1.0398,-0.15288
69,-0.012567,-0.042449,-0.048296,-0.10806,-0.069408,1.2003,-0.14346
70,-0.0041217,-0.067459,-0.063886,-0.049595,-0.058689,1.2548,-0.088896
71,0.011469,-0.086298,-0.072981,0.052395,-0.056091,1.247,0.0026992
72,0.028684,-0.093119,-0.079152,0.19434,-0.052843,1.2188,0.10696
73,0.037129,-0.088896,-0.086948,0.33693,-0.048296,1.1986,0.19206
74,0.031607,-0.082076,-0.099615,0.42917,-0.043099,1.1951,0.23721
75,0.012443,-0.078178,-0.11391,0.43762,-0.034329,1.198,0.23754
76,-0.01614,-0.077528,-0.12527,0.36259,-0.015165,1.1973,0.2109
77,-0.048945,-0.078178,-0.1295,0.23234,0.0088706,1.1973,0.1781
78,-0.079477,-0.071032,-0.12138,0.087799,0.03453,1.2201,0.15211
79,-0.10449,-0.050569,-0.10091,-0.030106,0.064737,1.2886,0.13522
80,-0.12008,-0.020362,-0.067459,-0.098965,0.10631,1.4192,0.12125
81,-0.12268,0.014068,-0.024909,-0.11975,0.15991,1.6147,0.11411
82,-0.11326,0.046548,0.01829,-0.10676,0.2174,1.8385,0.12028
83,-0.094418,0.071558,0.054344,-0.080127,0.26807,2.0285,0.14334
84,-0.073955,0.090072,0.079679,-0.054467,0.30899,2.1292,0.18232
85,-0.058689,0.10209,0.096244,-0.033679,0.34342,2.124,0.23851
86,-0.048296,0.10696,0.10371,-0.018088,0.37688,2.0217,0.30217
87,-0.043748,0.098842,0.10501,-0.0060706,0.41228,1.8502,0.36031
88,-0.044723,0.074806,0.10112,0.0046481,0.44509,1.6391,0.39442
89,-0.053168,0.036479,0.089098,0.012768,0.4675,1.3961,0.40091
90,-0.067134,-0.0089938,0.064413,0.012768,0.47984,1.1135,0.38662
91,-0.086948,-0.051219,0.029658,0.0023744,0.48731,0.79198,0.35836
92,-0.10709,-0.078503,-0.0054209,-0.015165,0.48991,0.46328,0.31744
93,-0.12398,-0.084674,-0.029457,-0.034004,0.47822,0.15536,0.26319
94,-0.1334,-0.071032,-0.038876,-0.049595,0.44898,-0.14541,0.19921
95,-0.13242,-0.046996,-0.032705,-0.062262,0.41423,-0.48126,0.13587
96,-0.11845,-0.025234,-0.01614,-0.067459,0.38565,-0.86454,0.082277
97,-0.098641,-0.012892,0.00075039,-0.067134,0.35544,-1.229,0.041676
98,-0.079477,-0.012892,0.0091954,-0.063237,0.31354,-1.4966,0.0088706
99,-0.06681,-0.020687,0.0056225,-0.06551,0.25475,-1.6525,-0.019063
100,-0.05739,-0.026209,-0.0047713,-0.07493,0.19174,-1.7516,-0.039851
101,-0.046347,-0.023285,-0.01484,-0.090521,0.13555,-1.8698,-0.047321
102,-0.029782,-0.013216,-0.021012,-0.10676,0.090722,-2.0452,-0.043748
103,-0.0076946,-0.0015233,-0.022961,-0.11845,0.056617,-2.2391,-0.036927
104,0.014392,0.0056225,-0.022961,-0.12657,0.032906,-2.3421,-0.036927
105,0.02641,0.0062721,-0.02361,-0.1308,0.020239,-2.2606,-0.049595
106,0.020888,0.0014,-0.025559,-0.13177,0.016016,-2.0066,-0.084999
107,0.0062721,-0.0076946,-0.029782,-0.12917,0.011144,-1.6986,-0.14704
108,-0.0089938,-0.021012,-0.040825,-0.12592,-0.00022403,-1.4761,-0.22791
109,-0.015815,-0.035628,-0.054792,-0.1243,-0.023935,-1.4063,-0.30684
110,-0.0096434,-0.049595,-0.066485,-0.12398,-0.05739,-1.4599,-0.36466
111,0.012768,-0.058365,-0.076554,-0.1295,-0.094743,-1.5473,-0.39292
112,0.050121,-0.060638,-0.089221,-0.13924,-0.12527,-1.5853,-0.38804
113,0.092021,-0.049595,-0.10319,-0.14866,-0.14281,-1.5356,-0.35946
114,0.1297,-0.023935,-0.11488,-0.15548,-0.14249,-1.3949,-0.32243
115,0.15244,0.0085458,-0.11813,-0.1675,-0.1295,-1.1676,-0.29223
116,0.15731,0.043625,-0.10871,-0.18601,-0.11391,-0.86129,-0.27176
117,0.15146,0.077405,-0.086623,-0.20972,-0.10286,-0.51927,-0.25065
118,0.14302,0.10989,-0.060963,-0.23571,-0.10124,-0.21687,-0.22142
119,0.13587,0.13392,-0.038876,-0.26169,-0.11423,-0.011267,-0.18309
120,0.13165,0.14334,-0.025234,-0.28411,-0.13827,0.093645,-0.14379
121,0.13132,0.13002,-0.021661,-0.2971,-0.16133,0.13879,-0.11715
122,0.13132,0.096244,-0.020037,-0.29612,-0.1727,0.18881,-0.10774
123,0.12905,0.05272,-0.01549,-0.28346,-0.17075,0.29535,-0.11196
124,0.12385,0.014392,-0.0031473,-0.26169,-0.15841,0.46652,-0.12495
125,0.11346,-0.0076946,0.01017,-0.23441,-0.14184,0.65881,-0.14087
126,0.099817,-0.010618,0.01829,-0.20128,-0.11618,0.8079,-0.15678
127,0.082277,0.003024,0.022512,-0.16068,-0.057065,0.88293,-0.1675
128,0.066686,0.029009,0.024461,-0.10903,0.078379,0.89884,-0.16263
129,0.062464,0.06019,0.029658,-0.037252,0.31257,0.89689,-0.13762
130,0.074482,0.086175,0.038428,0.065712,0.61756,0.90664,-0.098641
131,0.096893,0.10404,0.051096,0.21512,0.93425,0.94074,-0.056741
132,0.11963,0.11313,0.065387,0.42495,1.1964,1.0012,-0.029782
133,0.1323,0.11151,0.078379,0.70169,1.3497,1.0798,-0.030106
134,0.12905,0.10371,0.091372,1.0122,1.3711,1.1632,-0.054142
135,0.11541,0.096244,0.099492,1.2863,1.2685,1.2204,-0.089871
136,0.098517,0.091696,0.095594,1.4416,1.0288,1.2042,-0.12333
137,0.079679,0.087799,0.078055,1.4263,0.57209,1.0681,-0.15126
138,0.053369,0.075456,0.047198,1.2555,-0.16458,0.80238,-0.17335
139,0.016016,0.050446,0.0072465,1.0002,-1.0607,0.44996,-0.19089
140,-0.027833,0.015692,-0.033354,0.73774,-1.85,0.086175,-0.20485
141,-0.070707,-0.022636,-0.067459,0.51849,-2.2856,-0.20843,-0.20485
142,-0.10091,-0.055116,-0.084674,0.35576,-2.2706,-0.37668,-0.17562
143,-0.10903,-0.072006,-0.078827,0.24306,-1.8825,-0.40071,-0.11488
144,-0.095393,-0.071682,-0.048945,0.15503,-1.315,-0.31918,-0.035303
145,-0.069408,-0.060963,-0.008669,0.080978,-0.77197,-0.22467,0.042326
146,-0.046022,-0.046347,0.024137,0.017965,-0.38415,-0.21557,0.098842
147,-0.034654,-0.029132,0.035505,-0.036278,-0.18536,-0.34225,0.11638
148,-0.034329,-0.016464,0.022512,-0.084999,-0.13762,-0.5839,0.083901
149,-0.037577,-0.01614,-0.0037969,-0.12722,-0.16588,-0.86421,0.013093
150,-0.035628,-0.027183,-0.026533,-0.15418,-0.19998,-1.0848,-0.065186
151,-0.026209,-0.039526,-0.033354,-0.16458,-0.19998,-1.1728,-0.11651
152,-0.0080194,-0.047646,-0.021986,-0.15808,-0.16393,-1.1179,-0.12755
153,0.016016,-0.044398,0.0010752,-0.13794,-0.1204,-0.97107,-0.10514
154,0.037454,-0.028807,0.025111,-0.10838,-0.095717,-0.80607,-0.064861
155,0.047523,-0.0067202,0.0433,-0.076229,-0.092145,-0.66868,-0.020687
156,0.046223,0.011794,0.055318,-0.044723,-0.10059,-0.56636,0.01764
157,0.039078,0.022512,0.066686,-0.012242,-0.09929,-0.47119,0.044275
158,0.032906,0.028359,0.079029,0.021538,-0.076554,-0.34484,0.055643
159,0.029009,0.036479,0.089098,0.056617,-0.034329,-0.16945,0.06084
160,0.028034,0.050121,0.092996,0.092021,0.015692,0.03583,0.066037
161,0.027709,0.074157,0.092021,0.1349,0.063438,0.2109,0.073507
162,0.033881,0.10956,0.092671,0.19726,0.10534,0.3051,0.083901
163,0.046223,0.15081,0.10079,0.28496,0.14886,0.31614,0.10047
164,0.065387,0.18622,0.11476,0.38435,0.20733,0.2921,0.11833
165,0.0852,0.20473,0.13035,0.461,0.2986,0.28203,0.1349
166,0.099492,0.20473,0.14269,0.48504,0.41456,0.27489,0.14951
167,0.10436,0.19239,0.14659,0.44021,0.53473,0.2148,0.15698
168,0.099817,0.17225,0.14204,0.33303,0.62373,0.053694,0.15341
169,0.09462,0.14659,0.12937,0.18751,0.65686,-0.20972,0.14237
170,0.093645,0.11833,0.10956,0.040702,0.62958,-0.52609,0.12613
171,0.090722,0.090072,0.082927,-0.078503,0.55682,-0.82231,0.10989
172,0.079354,0.062139,0.05207,-0.16295,0.45516,-1.0432,0.097543
173,0.053694,0.03453,0.018615,-0.22239,0.32913,-1.1608,0.092996
174,0.013093,0.0036737,-0.0073698,-0.27274,0.17225,-1.164,0.10079
175,-0.031406,-0.029782,-0.022311,-0.32308,-0.019712,-1.0568,0.12158
176,-0.064861,-0.055116,-0.025559,-0.3731,-0.22337,-0.87168,0.15406
177,-0.078503,-0.067459,-0.018738,-0.41565,-0.38447,-0.66608,0.19304
178,-0.074605,-0.06681,-0.0073698,-0.44131,-0.46405,-0.50075,0.22292
179,-0.059014,-0.059664,0.0059473,-0.44131,-0.45463,-0.4163,0.23104
180,-0.037577,-0.04927,0.01829,-0.4137,-0.3783,-0.41728,0.22
181,-0.016464,-0.038876,0.028034,-0.35914,-0.27696,-0.47184,0.19628
182,-0.0063954,-0.029457,0.033881,-0.26884,-0.18309,-0.52706,0.16705
183,-0.01484,-0.02361,0.035505,-0.1217,-0.10806,-0.53486,0.13327
184,-0.039851,-0.021012,0.03518,0.10924,-0.040825,-0.46632,0.096893
185,-0.067459,-0.020362,0.036804,0.41001,0.032906,-0.31789,0.062139
186,-0.084999,-0.016464,0.039727,0.70851,0.11671,-0.09929,0.044275
187,-0.084674,-0.010943,0.044924,0.91119,0.20895,0.17777,0.056617
188,-0.073306,-0.0067202,0.048822,0.95081,0.29827,0.49218,0.10177
189,-0.057715,-0.0060706,0.046548,0.82641,0.36648,0.80595,0.16965
190,-0.045372,-0.010293,0.032582,0.59352,0.39572,1.0827,0.24533
191,-0.034978,-0.020037,0.0078962,0.33173,0.37428,1.3049,0.31062
192,-0.026533,-0.035303,-0.019712,0.10371,0.30574,1.4621,0.34505
193,-0.022636,-0.056416,-0.045372,-0.064211,0.20505,1.5381,0.34115
194,-0.021337,-0.077853,-0.062912,-0.17302,0.092021,1.5251,0.30412
195,-0.018088,-0.095393,-0.070707,-0.23603,-0.01549,1.4517,0.2502
196,-0.011267,-0.10709,-0.072331,-0.27079,-0.088896,1.3822,0.20181
197,-0.0047713,-0.11098,-0.072981,-0.29255,-0.11098,1.3792,0.1742
198,0.0017248,-0.10936,-0.074605,-0.31074,-0.085648,1.4546,0.169
199,0.010495,-0.10254,-0.074605,-0.32731,-0.039526,1.5433,0.17582
200,0.022512,-0.094743,-0.07428,-0.33997,0.0052977,1.5559,0.18102
201,0.039727,-0.090196,-0.072331,-0.34842,0.036479,1.4358,0.17257
202,0.057917,-0.089221,-0.071357,-0.35069,0.052395,1.1795,0.14302
203,0.06831,-0.088896,-0.072006,-0.35134,0.050121,0.83226,0.098193
204,0.067986,-0.085648,-0.069083,-0.35394,0.035505,0.46295,0.055643
205,0.055968,-0.075255,-0.059339,-0.36401,0.0049729,0.1284,0.028359
206,0.036479,-0.061288,-0.04927,-0.38512,-0.038876,-0.13794,0.014068
207,0.012119,-0.04992,-0.046671,-0.41955,-0.090845,-0.33088,-0.0015233
208,-0.013216,-0.043423,-0.053817,-0.46145,-0.14476,-0.45625,-0.029782
209,-0.039526,-0.037577,-0.065835,-0.49848,-0.19251,-0.51764,-0.068109
210,-0.066485,-0.031406,-0.083375,-0.52251,-0.22239,-0.52641,-0.11163
211,-0.088896,-0.030431,-0.10416,-0.53713,-0.21362,-0.50465,-0.15321
212,-0.10416,-0.037902,-0.1217,-0.54752,-0.14314,-0.48841,-0.18699
213,-0.10709,-0.047321,-0.1308,-0.55337,-0.013216,-0.51017,-0.21427
214,-0.096692,-0.052193,-0.13242,-0.55402,0.14237,-0.58001,-0.23214
215,-0.076879,-0.043748,-0.12917,-0.54525,0.28333,-0.67582,-0.23474
216,-0.054142,-0.020687,-0.123,-0.52414,0.3785,-0.76742,-0.2133
217,-0.03238,0.0046481,-0.11748,-0.49166,0.41975,-0.834,-0.17302
218,-0.011917,0.025436,-0.11488,-0.45528,0.41163,-0.86714,-0.1269
219,0.0056225,0.0433,-0.11553,-0.4241,0.35349,-0.87201,-0.084349
220,0.016991,0.059865,-0.11748,-0.40039,0.21188,-0.87233,-0.053492
221,0.025436,0.070259,-0.1178,-0.37765,-0.059339,-0.88955,-0.037577
222,0.03453,0.072533,-0.11651,-0.34257,-0.44586,-0.92852,-0.036927
223,0.040377,0.067986,-0.11033,-0.27858,-0.83985,-0.97789,-0.049595
224,0.042326,0.061165,-0.096692,-0.16945,-1.1189,-1.0146,-0.075579
225,0.039727,0.05207,-0.074605,-0.019063,-1.2286,-1.0165,-0.11131
226,0.028684,0.048822,-0.04862,0.14984,-1.1923,-0.95971,-0.14964
227,0.0095202,0.061165,-0.02361,0.32101,-1.0601,-0.81387,-0.18049
228,-0.013866,0.087149,0.0023744,0.49608,-0.87493,-0.57026,-0.18731
229,-0.032705,0.11768,0.036479,0.70169,-0.66413,-0.26851,-0.16295
230,-0.041799,0.14464,0.078379,0.94854,-0.44521,0.020564,-0.11163
231,-0.038227,0.16315,0.12125,1.1973,-0.23084,0.23429,-0.048945
232,-0.021337,0.16608,0.15503,1.3646,-0.03173,0.35349,0.008221
233,0.0065969,0.15114,0.17485,1.3773,0.15146,0.39734,0.050771
234,0.042326,0.12255,0.1781,1.2207,0.31841,0.41066,0.080328
235,0.081627,0.090072,0.16965,0.94984,0.46263,0.4269,0.10274
236,0.11378,0.057917,0.15666,0.64744,0.56462,0.44444,0.12093
237,0.13327,0.028684,0.13977,0.38662,0.59872,0.44314,0.1258
238,0.13555,0.0039985,0.12158,0.2044,0.5487,0.39702,0.11118
239,0.12353,-0.01484,0.10112,0.10436,0.42332,0.2999,0.078379
240,0.099492,-0.030106,0.075781,0.062789,0.25345,0.17355,0.038753
241,0.065387,-0.046671,0.049147,0.046873,0.091047,0.064413,-0.00054884
242,0.026735,-0.067459,0.021538,0.028684,-0.0073698,0.016016,-0.030106
243,-0.008669,-0.09117,0.0014,-0.0034721,-0.0011985,0.051745,-0.046022
244,-0.028807,-0.10806,-0.0054209,-0.043423,0.11443,0.16348,-0.038227
245,-0.030431,-0.11131,-0.00054884,-0.078178,0.2986,0.32198,-0.0067202
246,-0.022311,-0.09994,0.016991,-0.099615,0.49088,0.49803,0.032582
247,-0.013541,-0.075904,0.041676,-0.10709,0.62536,0.66466,0.065387
248,-0.0096434,-0.046996,0.062464,-0.11163,0.64225,0.80238,0.07708
249,-0.019712,-0.025559,0.063763,-0.1295,0.49673,0.90599,0.065712
250,-0.042449,-0.025884,0.038428,-0.17075,0.2044,0.98264,0.03453
251,-0.077203,-0.053492,-0.0083442,-0.22597,-0.14801,1.0398,-0.0073698
252,-0.11196,-0.096042,-0.059014,-0.26787,-0.42994,1.0876,-0.04115
253,-0.13599,-0.13112,-0.098965,-0.27306,-0.55597,1.1327,-0.050569
254,-0.14281,-0.13567,-0.12008,-0.23636,-0.51407,1.1642,-0.03238
255,-0.1308,-0.09994,-0.11878,-0.17107,-0.34874,1.1574,0.0062721
256,-0.10481,-0.031406,-0.098965,-0.10221,-0.13502,1.0863,0.047523
257,-0.074605,0.054019,-0.065186,-0.04992,0.056942,0.94237,0.074157
258,-0.052518,0.13944,-0.02361,-0.019063,0.18784,0.73417,0.076755
259,-0.046022,0.20635,0.017965,-0.0018481,0.25053,0.48764,0.048172
260,-0.050894,0.25215,0.055318,0.012768,0.25702,0.22584,-0.012892
261,-0.055441,0.27716,0.084876,0.027385,0.22617,-0.036602,-0.09182
262,-0.051868,0.27911,0.10599,0.03518,0.17777,-0.29028,-0.16523
263,-0.041799,0.26384,0.1245,0.042001,0.12515,-0.53096,-0.21785
264,-0.036278,0.22844,0.13684,0.064737,0.078704,-0.76255,-0.2461
265,-0.042124,0.17095,0.14172,0.11573,0.048172,-0.97854,-0.25682
266,-0.059989,0.099817,0.13652,0.18167,0.034855,-1.165,-0.26267
267,-0.079152,0.039402,0.12613,0.22,0.033556,-1.3085,-0.26916
268,-0.087272,0.0091954,0.11703,0.18784,0.037778,-1.4063,-0.27436
269,-0.080127,0.014392,0.11216,0.078704,0.042651,-1.4498,-0.27046
270,-0.05739,0.036804,0.11021,-0.073631,0.048172,-1.4018,-0.24286
271,-0.023935,0.048497,0.10664,-0.21167,0.053044,-1.2407,-0.18634
272,0.0085458,0.030633,0.10144,-0.29288,0.053044,-1.0097,-0.11228
273,0.032906,-0.020687,0.092996,-0.30847,0.045899,-0.80899,-0.045697
274,0.049472,-0.094093,0.079679,-0.27241,0.033231,-0.72844,-0.0057458
275,0.060515,-0.1675,0.066362,-0.21167,0.015042,-0.79243,0.0017248
276,0.067986,-0.21395,0.059216,-0.1636,-0.0054209,-0.95581,-0.019712
277,0.070584,-0.20875,0.060515,-0.16263,-0.024585,-1.1312,-0.055441
278,0.06831,-0.14736,0.06896,-0.21265,-0.035628,-1.2348,-0.090521
279,0.065712,-0.041799,0.079354,-0.29547,-0.0405,-1.2205,-0.11001
280,0.059216,0.084551,0.085525,-0.3796,-0.040825,-1.0951,-0.11131
281,0.049472,0.2109,0.084551,-0.43969,-0.036927,-0.8902,-0.097666
282,0.039727,0.31516,0.074806,-0.46178,-0.026209,-0.6323,-0.072331
283,0.033881,0.38435,0.054019,-0.44326,-0.0076946,-0.34874,-0.038551
284,0.03453,0.4191,0.022512,-0.38934,0.011144,-0.065186,0.0039985
285,0.042001,0.42495,-0.012567,-0.31074,0.021538,0.19434,0.051096
286,0.053369,0.41001,-0.043423,-0.21849,0.024461,0.40741,0.095269
287,0.065712,0.3824,-0.06681,-0.12592,0.025761,0.56624,0.12483
288,0.073182,0.35122,-0.079477,-0.040825,0.037778,0.6731,0.13944
289,0.070584,0.32036,-0.080776,0.037454,0.072208,0.72864,0.14496
290,0.062789,0.28885,-0.076229,0.11898,0.14172,0.73157,0.14951
291,0.062789,0.25053,-0.069733,0.21155,0.26092,0.67765,0.15828
292,0.079354,0.20181,-0.060313,0.31094,0.43469,0.56332,0.17874
293,0.11021,0.14107,-0.049595,0.39864,0.639,0.39767,0.20928
294,0.14334,0.06831,-0.042449,0.45061,0.83096,0.20376,0.23883
295,0.16705,-0.010293,-0.043423,0.44704,0.97095,0.024461,0.25767
296,0.18134,-0.081426,-0.053168,0.39344,1.033,-0.10059,0.26612
297,0.18979,-0.13437,-0.070058,0.30964,1.0125,-0.13697,0.27294
298,0.19758,-0.16425,-0.092469,0.22487,0.92645,-0.044073,0.29113
299,0.20278,-0.17172,-0.1178,0.16056,0.79036,0.20505,0.32004
300,0.20246,-0.15905,-0.13794,0.12223,0.60164,0.59612,0.35512
301,0.19888,-0.12982,-0.14216,0.10047,0.30347,1.0817,0.39117
302,0.19271,-0.09117,-0.1334,0.080978,-0.13957,1.5965,0.41748
303,0.18362,-0.04992,-0.1204,0.056617,-0.67452,2.0581,0.42235
304,0.16413,-0.007045,-0.10806,0.02641,-1.153,2.3884,0.39702
305,0.13652,0.038753,-0.09929,-0.0076946,-1.4196,2.5368,0.34959
306,0.10599,0.092346,-0.087922,-0.037252,-1.3995,2.4949,0.30217
307,0.080653,0.14529,-0.068109,-0.059339,-1.1335,2.3186,0.27132
308,0.068635,0.18134,-0.036278,-0.073306,-0.74663,2.0912,0.25637
309,0.071234,0.19206,0.0078962,-0.086948,-0.37635,1.885,0.2515
310,0.083251,0.17712,0.055643,-0.10676,-0.11683,1.7258,0.24533
311,0.098517,0.14074,0.097543,-0.12755,0.010819,1.5881,0.22779
312,0.10794,0.082927,0.1232,-0.13502,0.037778,1.4302,0.19823
313,0.10826,0.0023744,0.1297,-0.12203,0.021863,1.2275,0.15633
314,0.097868,-0.093444,0.11898,-0.094418,0.0065969,0.98362,0.10144
315,0.070909,-0.18699,0.095269,-0.06616,0.010495,0.7254,0.038103
316,0.032906,-0.2539,0.066037,-0.042449,0.032582,0.48114,-0.022311
317,-0.0050961,-0.27696,0.043625,-0.012892,0.057917,0.26709,-0.071357
318,-0.034978,-0.25227,0.033881,0.038753,0.072533,0.071883,-0.10579
319,-0.059339,-0.18504,0.034855,0.13262,0.071234,-0.13145,-0.12625
320,-0.075255,-0.097991,0.041676,0.28593,0.06019,-0.35199,-0.13729
321,-0.080451,-0.020037,0.053044,0.50518,0.048172,-0.57059,-0.14411
322,-0.072006,0.028684,0.06896,0.75983,0.039078,-0.75313,-0.15191
323,-0.049595,0.045574,0.087149,0.98167,0.042001,-0.87136,-0.15711
324,-0.018413,0.042651,0.10631,1.1012,0.059541,-0.91488,-0.15386
325,0.010819,0.03453,0.12223,1.0853,0.080653,-0.89377,-0.13827
326,0.029658,0.032906,0.13132,0.94919,0.094295,-0.83173,-0.11358
327,0.039078,0.042651,0.13132,0.74294,0.10144,-0.75118,-0.087272
328,0.040052,0.059541,0.12125,0.52629,0.10794,-0.67063,-0.071032
329,0.029009,0.074482,0.10014,0.34635,0.11086,-0.60209,-0.074605
330,0.0020496,0.074806,0.072858,0.22259,0.10242,-0.55824,-0.10189
331,-0.034978,0.05207,0.042001,0.14529,0.079029,-0.54363,-0.14087
332,-0.074605,0.003024,0.016016,0.089748,0.042326,-0.55467,-0.17302
333,-0.11228,-0.066485,0.00042559,0.032257,-0.00054884,-0.57773,-0.18796
334,-0.14087,-0.14509,-0.0050961,-0.043099,-0.037577,-0.60502,-0.18439
335,-0.15548,-0.2159,-0.0024977,-0.13242,-0.060638,-0.6297,-0.17659
336,-0.15613,-0.26722,0.0017248,-0.22012,-0.06616,-0.64951,-0.17984
337,-0.14769,-0.29288,0.00075039,-0.28735,-0.057715,-0.66575,-0.20388
338,-0.13242,-0.29742,-0.008669,-0.32341,-0.040175,-0.67745,-0.2474
339,-0.1191,-0.29158,-0.026858,-0.33997,-0.01549,-0.6781,-0.29905
340,-0.11456,-0.28411,-0.052518,-0.35102,0.01829,-0.66673,-0.3429
341,-0.11586,-0.28281,-0.077528,-0.36823,0.067661,-0.64562,-0.35979
342,-0.11618,-0.28865,-0.09182,-0.39292,0.1232,-0.6271,-0.34647
343,-0.10968,-0.2971,-0.089871,-0.42247,0.16348,-0.62938,-0.30814
344,-0.098316,-0.30197,-0.078503,-0.45853,0.15828,-0.66121,-0.25552
345,-0.086948,-0.29742,-0.068434,-0.50368,0.095269,-0.71383,-0.19803
346,-0.076229,-0.28151,-0.067134,-0.55597,-0.011267,-0.76027,-0.14216
347,-0.064536,-0.25422,-0.077528,-0.60599,-0.12365,-0.78041,-0.090845
348,-0.04927,-0.2159,-0.093119,-0.63652,-0.20453,-0.77749,-0.047971
349,-0.030756,-0.16977,-0.10286,-0.63035,-0.22532,-0.78074,-0.014191
350,-0.0050961,-0.11813,-0.098641,-0.58228,-0.18277,-0.81387,0.011469
351,0.023162,-0.065835,-0.0837,-0.50205,-0.09994,-0.87623,0.027385
352,0.046873,-0.021986,-0.069733,-0.40526,-0.0083442,-0.93697,0.035505
353,0.05272,0.0078962,-0.06551,-0.29385,0.06896,-0.95516,0.039402
354,0.036154,0.023812,-0.069733,-0.14801,0.12353,-0.91781,0.038753
355,0.0075714,0.02706,-0.071032,0.068635,0.15568,-0.85479,0.037129
356,-0.021012,0.024137,-0.060963,0.35966,0.16121,-0.81192,0.03518
357,-0.042449,0.02641,-0.035303,0.66401,0.1323,-0.79795,0.038103
358,-0.054142,0.044599,-0.0011985,0.88228,0.059865,-0.74923,0.054668
359,-0.05739,0.080978,0.030308,0.93847,-0.058365,-0.55954,0.088124
360,-0.054142,0.12743,0.050121,0.82544,-0.19836,-0.15841,0.13197
361,-0.045697,0.16933,0.058891,0.60262,-0.31691,0.42982,0.18589
362,-0.036602,0.19401,0.064088,0.36096,-0.37343,1.0486,0.24176
363,-0.031406,0.18719,0.070909,0.17387,-0.36271,1.4854,0.28366
364,-0.030431,0.14529,0.074482,0.070259,-0.32666,1.5995,0.30282
365,-0.027833,0.076106,0.071883,0.038753,-0.32763,1.3893,0.30022
366,-0.01614,-0.00087364,0.059541,0.054344,-0.39259,0.98492,0.28333
367,0.0017248,-0.061937,0.042326,0.087474,-0.48581,0.56039,0.26255
368,0.018615,-0.092145,0.028359,0.11995,-0.54103,0.2567,0.25313
369,0.030308,-0.084674,0.023487,0.14756,-0.52057,0.131,0.25865
370,0.03453,-0.049595,0.028684,0.16803,-0.43482,0.16608,0.27229
371,0.033881,0.0052977,0.040052,0.17712,-0.32666,0.31029,0.28398
372,0.031932,0.070909,0.05272,0.16835,-0.23831,0.50323,0.29048
373,0.031932,0.13684,0.061814,0.13912,-0.19348,0.70461,0.29178
374,0.032257,0.19141,0.071883,0.088773,-0.17984,0.8813,0.2908
375,0.033881,0.22844,0.081303,0.024137,-0.1649,0.99953,0.28268
376,0.039402,0.24825,0.088124,-0.049595,-0.13177,1.0291,0.26514
377,0.050771,0.258,0.086824,-0.11488,-0.081426,0.94919,0.23786
378,0.066686,0.26839,0.080978,-0.15938,-0.015815,0.75138,0.20246
379,0.079679,0.28528,0.078055,-0.18049,0.056292,0.44801,0.15796
380,0.080978,0.30737,0.07708,-0.18374,0.11541,0.069285,0.10696
381,0.069285,0.32523,0.06896,-0.18277,0.15438,-0.33283,0.052395
382,0.047523,0.32166,0.049147,-0.18374,0.18622,-0.70603,-0.0034721
383,0.022837,0.28463,0.019264,-0.18894,0.23786,-1.0097,-0.057065
384,0.0065969,0.21675,-0.012242,-0.19381,0.31646,-1.214,-0.10579
385,0.00075039,0.13652,-0.038551,-0.19543,0.40676,-1.2962,-0.14834
386,0.003024,0.063438,-0.055116,-0.19024,0.48439,-1.2553,-0.18407
387,0.012443,0.014068,-0.061937,-0.18017,0.52694,-1.1062,-0.21525
388,0.028359,-0.0073698,-0.061613,-0.16588,0.52012,-0.8785,-0.24091
389,0.048822,-0.0047713,-0.059339,-0.14736,0.46912,-0.61476,-0.26104
390,0.072208,0.021863,-0.058365,-0.12625,0.39572,-0.36758,-0.28021
391,0.089423,0.064413,-0.055116,-0.10579,0.31192,-0.18114,-0.30359
392,0.091696,0.11508,-0.048296,-0.089221,0.19628,-0.076229,-0.33218
393,0.076755,0.16185,-0.043423,-0.076879,0.018615,-0.044723,-0.36141
394,0.048172,0.19271,-0.044398,-0.071032,-0.19024,-0.063237,-0.39032
395,0.011144,0.20083,-0.050894,-0.069083,-0.34095,-0.097666,-0.41176
396,-0.029457,0.18654,-0.05804,-0.062912,-0.35426,-0.11618,-0.41663
397,-0.064536,0.15503,-0.05739,-0.047971,-0.22856,-0.10416,-0.39129
398,-0.086298,0.11021,-0.04992,-0.029132,-0.039851,-0.063561,-0.3338
399,-0.093769,0.059865,-0.039201,-0.012242,0.092021,-0.0011985,-0.25357
400,-0.089221,0.0075714,-0.030106,-0.00054884,0.047523,0.07773,-0.161
401,-0.077853,-0.046671,-0.025559,0.00010078,-0.22889,0.16998,-0.062587
402,-0.06551,-0.10124,-0.027183,-0.012567,-0.65211,0.27391,0.028359
403,-0.056091,-0.15158,-0.036602,-0.031081,-1.0507,0.39019,0.10501
404,-0.051219,-0.19154,-0.051219,-0.044723,-1.2744,0.51232,0.16608
405,-0.04862,-0.21427,-0.063886,-0.043099,-1.266,0.61788,0.21285
406,-0.043748,-0.22434,-0.067134,-0.025884,-1.0614,0.6835,0.24825
407,-0.028157,-0.22207,-0.055441,-0.0037969,-0.7528,0.70396,0.27781
408,-0.00022403,-0.20972,-0.028482,0.0095202,-0.43644,0.70656,0.30152
409,0.034855,-0.19154,0.0062721,0.014068,-0.18147,0.73709,0.31257
410,0.06896,-0.17692,0.044275,0.024461,-0.016464,0.8407,0.30152
411,0.092671,-0.1688,0.07773,0.059216,0.065387,1.0229,0.26579
412,0.099817,-0.16458,0.096893,0.1206,0.093645,1.2334,0.21512
413,0.091372,-0.16003,0.094295,0.18979,0.099492,1.3695,0.17225
414,0.076431,-0.15321,0.072858,0.24143,0.10664,1.324,0.14496
415,0.070259,-0.14509,0.042651,0.24988,0.12418,1.0405,0.12385
416,0.073182,-0.13729,0.011469,0.20798,0.14464,0.56754,0.096569
417,0.083251,-0.1334,-0.015165,0.1323,0.16803,0.031932,0.056292
418,0.095594,-0.13275,-0.032055,0.049147,0.19661,-0.42637,-0.0011985
419,0.10079,-0.1321,-0.035628,-0.013541,0.23721,-0.71707,-0.069733
420,0.096569,-0.1256,-0.029782,-0.040825,0.2947,-0.82881,-0.13372
421,0.0865,-0.11196,-0.020687,-0.03173,0.36291,-0.80932,-0.17887
422,0.072858,-0.083375,-0.007045,-0.0015233,0.43242,-0.74566,-0.20128
423,0.059541,-0.039526,0.01017,0.033881,0.49511,-0.7174,-0.20972
424,0.047847,0.016666,0.031932,0.062464,0.54448,-0.74826,-0.21395
425,0.042001,0.079679,0.059865,0.073507,0.57404,-0.81874,-0.21882
426,0.047198,0.14594,0.092996,0.064737,0.58086,-0.90579,-0.22921
427,0.056617,0.21058,0.12093,0.038753,0.56137,-1.0198,-0.24253
428,0.063113,0.25735,0.13652,0.0014,0.52207,-1.1828,-0.2526
429,0.061814,0.27489,0.13652,-0.04115,0.47432,-1.391,-0.25325
430,0.055968,0.26222,0.12385,-0.079152,0.4269,-1.623,-0.23571
431,0.053044,0.23169,0.10534,-0.10026,0.38825,-1.8409,-0.18894
432,0.061165,0.19856,0.092671,-0.10026,0.36194,-1.9991,-0.11033
433,0.082602,0.17582,0.092996,-0.080127,0.34537,-2.0524,-0.0099683
434,0.11086,0.16478,0.10599,-0.044723,0.32621,-1.9695,0.092996
435,0.13587,0.16088,0.12255,0.0046481,0.2973,-1.7457,0.18362
436,0.14951,0.16056,0.1336,0.067661,0.25118,-1.419,0.25475
437,0.14756,0.15926,0.13912,0.13717,0.19109,-1.0705,0.29665
438,0.13262,0.15698,0.13814,0.19888,0.1284,-0.77846,0.3051
439,0.10696,0.15568,0.12937,0.23754,0.072533,-0.5852,0.28203
440,0.072858,0.15991,0.11346,0.23461,0.032582,-0.48386,0.23656
441,0.03453,0.16738,0.10014,0.18914,0.0085458,-0.44001,0.18524
442,-0.0021729,0.17615,0.09462,0.11313,-0.0050961,-0.40169,0.14594
443,-0.030106,0.18167,0.092671,0.02641,-0.013541,-0.31074,0.12645
444,-0.044723,0.18102,0.089098,-0.050894,-0.021012,-0.14509,0.12385
445,-0.04862,0.17257,0.077405,-0.11033,-0.030106,0.057917,0.13002
446,-0.045697,0.15568,0.057917,-0.15223,-0.041475,0.23169,0.13652
447,-0.035628,0.13327,0.039402,-0.18309,-0.047971,0.32328,0.1349
448,-0.020687,0.10859,0.030633,-0.20843,-0.043748,0.32134,0.12645
449,-0.0060706,0.085525,0.032257,-0.23116,-0.020687,0.25897,0.11541
450,0.0026992,0.065712,0.03518,-0.25,0.023812,0.18881,0.10859
451,0.0033489,0.051745,0.03583,-0.26007,0.083251,0.15601,0.10339
452,-0.0050961,0.037129,0.033881,-0.2578,0.13684,0.1664,0.089423
453,-0.022636,0.019264,0.029333,-0.24188,0.1677,0.21058,0.06084
454,-0.039526,-0.0015233,0.026085,-0.21687,0.17615,0.30347,0.022188
455,-0.048945,-0.025234,0.024786,-0.18731,0.17095,0.49153,-0.018413
456,-0.046996,-0.047646,0.028684,-0.15288,0.16998,0.78711,-0.047646
457,-0.034004,-0.065186,0.035505,-0.10903,0.18589,1.136,-0.057065
458,-0.013866,-0.072331,0.040702,-0.054467,0.21415,1.4455,-0.050569
459,0.0085458,-0.069733,0.0433,0.014717,0.24338,1.6306,-0.042774
460,0.027385,-0.059989,0.044924,0.10599,0.26417,1.6443,-0.0405
461,0.038753,-0.042124,0.049472,0.23169,0.27586,1.476,-0.042449
462,0.0433,-0.01614,0.060515,0.40319,0.28821,1.1525,-0.050894
463,0.042651,0.013093,0.076431,0.59547,0.30152,0.73222,-0.070707
464,0.038428,0.041676,0.094295,0.74618,0.31322,0.29697,-0.097341
465,0.033231,0.070584,0.10891,0.79555,0.31906,-0.068109,-0.11878
466,0.031932,0.099817,0.11378,0.71922,0.31711,-0.28995,-0.1243
467,0.038753,0.12515,0.10534,0.54155,0.31744,-0.32925,-0.11001
468,0.049147,0.13814,0.08585,0.31646,0.33823,-0.19803,-0.081101
469,0.054993,0.13197,0.065062,0.099817,0.39117,0.029658,-0.045697
470,0.050121,0.10989,0.050771,-0.064211,0.4571,0.26677,-0.0080194
471,0.033231,0.081303,0.043625,-0.15581,0.49836,0.47854,0.029333
472,0.009845,0.054993,0.041676,-0.17854,0.47659,0.70071,0.065712
473,-0.0083442,0.035505,0.042651,-0.14476,0.36681,0.97322,0.098842
474,-0.011592,0.025111,0.046223,-0.062262,0.1768,1.2857,0.1258
475,-0.0037969,0.01764,0.047523,0.071234,-0.059664,1.5978,0.14496
476,0.0020496,0.0075714,0.042001,0.24176,-0.2893,1.8564,0.15438
477,-0.0015233,-0.0093186,0.030957,0.4165,-0.46957,2.0285,0.15861
478,-0.014191,-0.030431,0.017965,0.55195,-0.58065,2.1091,0.16543
479,-0.031406,-0.04992,0.0049729,0.60847,-0.61963,2.124,0.17712
480,-0.047971,-0.067459,-0.0057458,0.57371,-0.59657,2.1126,0.19563
481,-0.056091,-0.08305,-0.014516,0.46652,-0.53161,2.0857,0.21545
482,-0.054792,-0.092794,-0.021337,0.32588,-0.44813,2.0214,0.22617
483,-0.048296,-0.097341,-0.03303,0.19174,-0.36466,1.8996,0.22065
484,-0.039526,-0.09994,-0.051868,0.089423,-0.2893,1.7424,0.19921
485,-0.031406,-0.10221,-0.073955,0.024137,-0.22759,1.5952,0.16803
486,-0.028807,-0.10709,-0.095393,-0.015815,-0.18634,1.4802,0.1362
487,-0.035953,-0.11196,-0.11293,-0.047321,-0.17724,1.3675,0.10859
488,-0.051219,-0.11456,-0.12625,-0.079477,-0.20453,1.1941,0.087799
489,-0.072656,-0.11293,-0.13567,-0.11098,-0.2578,0.9258,0.06896
490,-0.097341,-0.10481,-0.14216,-0.13567,-0.31561,0.57891,0.050446
491,-0.11618,-0.094093,-0.15093,-0.15451,-0.35459,0.21025,0.031932
492,-0.12333,-0.088896,-0.16425,-0.17075,-0.36531,-0.123,0.011794
493,-0.11878,-0.091495,-0.17789,-0.18764,-0.35914,-0.38187,-0.010618
494,-0.10611,-0.10026,-0.18796,-0.20843,-0.34809,-0.56117,-0.036927
495,-0.097017,-0.11196,-0.19413,-0.23279,-0.34744,-0.67582,-0.068758
496,-0.095393,-0.12073,-0.19511,-0.26299,-0.35784,-0.74988,-0.10286
497,-0.09929,-0.11878,-0.18926,-0.29872,-0.37148,-0.80315,-0.13015
498,-0.10514,-0.10546,-0.18212,-0.33672,-0.36953,-0.8418,-0.14834
499,-0.10968,-0.076554,-0.17335,-0.37375,-0.33672,-0.85966,-0.15321
500,-0.10741,-0.030106,-0.16523,-0.40591,-0.28021,-0.8483,-0.14801
501,-0.097991,0.029983,-0.15548,-0.42929,-0.21979,-0.81354,-0.14022
502,-0.082725,0.091047,-0.14087,-0.44294,-0.16977,-0.78301,-0.13534
503,-0.067784,0.14074,-0.11683,-0.44683,-0.13177,-0.78561,-0.13275
504,-0.056741,0.17355,-0.081101,-0.44651,-0.09929,-0.83011,-0.13372
505,-0.046671,0.19271,-0.035628,-0.44586,-0.062262,-0.89377,-0.13794
506,-0.035303,0.20246,0.0069217,-0.44424,-0.012567,-0.94639,-0.14509
507,-0.021012,0.20668,0.039078,-0.43677,0.053369,-0.96198,-0.14899
508,-0.0024977,0.20116,0.054019,-0.42507,0.13035,-0.9256,-0.13957
509,0.016666,0.18232,0.056292,-0.41208,0.20895,-0.81614,-0.11131
510,0.031932,0.15309,0.048822,-0.40299,0.28821,-0.61151,-0.060638
511,0.042326,0.1206,0.036154,-0.39811,0.36876,-0.31399,0.0091954
512,0.054668,0.092671,0.021538,-0.39357,0.44736,0.033881,0.089748
513,0.074806,0.077405,0.011469,-0.3835,0.50258,0.34797,0.16933
514,0.099817,0.074806,0.011469,-0.36661,0.49316,0.54285,0.23883
515,0.12288,0.079679,0.021538,-0.34452,0.38175,0.55747,0.29275
516,0.13782,0.084551,0.035505,-0.32958,0.1729,0.38337,0.31971
517,0.13717,0.079029,0.042326,-0.33023,-0.07493,0.06084,0.32004
518,0.12548,0.055968,0.029333,-0.34777,-0.28281,-0.33445,0.29145
519,0.10696,0.016666,-0.0037969,-0.36596,-0.38707,-0.70928,0.23104
520,0.080978,-0.033679,-0.048945,-0.35881,-0.36985,-0.98277,0.14626
521,0.051096,-0.084999,-0.094093,-0.30229,-0.25552,-1.1062,0.059541
522,0.023162,-0.1295,-0.12592,-0.18049,-0.097991,-1.0835,-0.0044465
523,0.0091954,-0.15905,-0.13859,0.0059473,0.049796,-0.96133,-0.03173
524,0.0091954,-0.1727,-0.13112,0.24663,0.15568,-0.79698,-0.017114
525,0.017965,-0.174,-0.10774,0.52629,0.21188,-0.62808,0.031607
526,0.029333,-0.1662,-0.07428,0.83161,0.22779,-0.4647,0.092996
527,0.038103,-0.15223,-0.038227,1.1356,0.20051,-0.31334,0.14854
528,0.047847,-0.13177,-0.0054209,1.4065,0.11183,-0.18569,0.18687
529,0.065712,-0.10514,0.021213,1.6199,-0.038876,-0.092469,0.20181
530,0.087799,-0.072331,0.044924,1.7469,-0.20972,-0.034654,0.19499
531,0.10729,-0.03303,0.06961,1.7547,-0.34225,-0.011592,0.1729
532,0.11508,0.0062721,0.095269,1.6193,-0.39649,-0.021012,0.13782
533,0.10956,0.039727,0.11963,1.3468,-0.36758,-0.055441,0.095919
534,0.095269,0.067011,0.13879,0.98394,-0.27631,-0.079152,0.050771
535,0.079354,0.092021,0.15114,0.59807,-0.15256,-0.043099,0.0088706
536,0.066037,0.11151,0.15438,0.2528,-0.027508,0.076106,-0.02361
537,0.057267,0.11768,0.14821,-0.010618,0.077405,0.25443,-0.047321
538,0.049796,0.11054,0.13457,-0.18991,0.1664,0.41033,-0.070058
539,0.039402,0.094295,0.11671,-0.30847,0.26222,0.4636,-0.10579
540,0.025111,0.077405,0.091047,-0.38772,0.37201,0.3785,-0.16003
541,0.010819,0.067011,0.057592,-0.44066,0.47562,0.17452,-0.22369
542,-0.00087364,0.066037,0.017965,-0.47217,0.5435,-0.086623,-0.27923
543,-0.012567,0.066037,-0.02361,-0.47899,0.5578,-0.33315,-0.31789
544,-0.027183,0.062139,-0.058689,-0.45106,0.51525,-0.51439,-0.34322
545,-0.042449,0.052395,-0.081426,-0.37375,0.43859,-0.60664,-0.36011
546,-0.053492,0.038428,-0.088247,-0.23116,0.33985,-0.61768,-0.36791
547,-0.055766,0.024461,-0.077203,-0.0099683,0.19271,-0.58163,-0.36271
548,-0.051219,0.0069217,-0.04992,0.27164,-0.059339,-0.53811,-0.339
549,-0.047321,-0.01549,-0.012892,0.55097,-0.42702,-0.51992,-0.29742
550,-0.048296,-0.035303,0.027709,0.74099,-0.82751,-0.53551,-0.24383
551,-0.047646,-0.043099,0.064737,0.78029,-1.1393,-0.57059,-0.18374
552,-0.039851,-0.036278,0.091696,0.65978,-1.2767,-0.60242,-0.12073
553,-0.028807,-0.020362,0.10177,0.42235,-1.2244,-0.61996,-0.068109
554,-0.017439,-0.0021729,0.089423,0.14432,-1.0282,-0.62418,-0.039851
555,-0.010943,0.0078962,0.058566,-0.10481,-0.76255,-0.6349,-0.038551
556,-0.0080194,0.003024,0.014068,-0.27858,-0.49166,-0.67777,-0.05804
557,-0.010293,-0.021986,-0.039201,-0.36985,-0.25292,-0.7619,-0.08305
558,-0.016789,-0.06551,-0.095717,-0.39844,-0.068109,-0.86454,-0.10221
559,-0.028807,-0.12235,-0.14964,-0.39422,0.058891,-0.94184,-0.10579
560,-0.044073,-0.19933,-0.19803,-0.38642,0.13457,-0.95029,-0.088572
561,-0.058365,-0.30879,-0.23376,-0.38285,0.17842,-0.86843,-0.050569
562,-0.065835,-0.44489,-0.25325,-0.38122,0.20603,-0.71545,-0.0021729
563,-0.06551,-0.57838,-0.2578,-0.37375,0.20116,-0.54655,0.044924
564,-0.059014,-0.67193,-0.2513,-0.36141,0.12093,-0.41533,0.07773
565,-0.054467,-0.69369,-0.23441,-0.34939,-0.055441,-0.34322,0.089423
566,-0.056416,-0.63912,-0.2133,-0.3403,-0.28573,-0.31301,0.082602
567,-0.061613,-0.52998,-0.19316,-0.33153,-0.47412,-0.288,0.067011
568,-0.070382,-0.39746,-0.17789,-0.31918,-0.53323,-0.23831,0.048172
569,-0.080127,-0.26104,-0.16458,-0.30132,-0.42702,-0.15061,0.03453
570,-0.090196,-0.13307,-0.14476,-0.27728,-0.19121,-0.035303,0.033231
571,-0.097017,-0.017764,-0.11423,-0.2513,0.080003,0.076431,0.042326
572,-0.095393,0.079354,-0.079477,-0.22921,0.28496,0.15244,0.054019
573,-0.082725,0.16283,-0.043099,-0.22142,0.36129,0.17225,0.060515
574,-0.061288,0.23786,-0.0080194,-0.23214,0.29438,0.13652,0.058566
575,-0.038551,0.30542,0.022512,-0.2591,0.11963,0.070259,0.050121
576,-0.02361,0.36486,0.048172,-0.29515,-0.10286,0.0033489,0.036804
577,-0.021661,0.42462,0.072208,-0.32731,-0.29645,-0.034978,0.026085
578,-0.027508,0.48536,0.099492,-0.34095,-0.39422,-0.031406,0.020239
579,-0.031081,0.53961,0.12872,-0.33023,-0.37278,0.0095202,0.016666
580,-0.023935,0.56949,0.15666,-0.30035,-0.24578,0.079679,0.017316
581,-0.0067202,0.56429,0.17874,-0.25975,-0.05739,0.16965,0.024461
582,0.017965,0.52272,0.19499,-0.21849,0.14042,0.27002,0.036479
583,0.050446,0.45938,0.20863,-0.18536,0.30997,0.36421,0.05207
584,0.086824,0.39182,0.22324,-0.16003,0.43112,0.43924,0.068635
585,0.11703,0.33075,0.23591,-0.13729,0.49868,0.48536,0.078704
586,0.131,0.27586,0.24598,-0.10774,0.51784,0.5081,0.080003
587,0.131,0.22065,0.24923,-0.070058,0.50453,0.5146,0.072208
588,0.12255,0.16348,0.24241,-0.026209,0.47984,0.50907,0.064737
589,0.11638,0.11021,0.22162,0.01829,0.46035,0.49413,0.065387
590,0.12028,0.065387,0.19499,0.06084,0.45028,0.46393,0.076755
591,0.13197,0.03518,0.17095,0.098193,0.44769,0.42495,0.088773
592,0.14399,0.019264,0.15016,0.13002,0.44541,0.39474,0.095594
593,0.15341,0.020239,0.12937,0.15698,0.43632,0.38695,0.097868
594,0.15536,0.042651,0.10761,0.18622,0.42008,0.40384,0.10079
595,0.15601,0.089423,0.087799,0.22877,0.40124,0.43599,0.10794
596,0.15861,0.15763,0.080003,0.30574,0.38727,0.48861,0.11931
597,0.16965,0.23526,0.091047,0.42722,0.38435,0.57858,0.1349
598,0.18687,0.30022,0.11963,0.57274,0.39312,0.69844,0.15503
599,0.20181,0.33368,0.15373,0.69941,0.40481,0.80952,0.17874
600,0.20863,0.32198,0.17712,0.76665,0.40546,0.86864,0.20051
601,0.20765,0.27554,0.17972,0.753,0.38467,0.85045,0.21675
602,0.20181,0.21058,0.15958,0.66726,0.34602,0.75755,0.22519
603,0.19304,0.14789,0.12613,0.53928,0.29957,0.62081,0.22389
604,0.18264,0.097218,0.092021,0.40254,0.25865,0.47789,0.2096
605,0.16868,0.057917,0.058566,0.27749,0.22877,0.36064,0.1781
606,0.14561,0.021538,0.026735,0.1716,0.20765,0.28171,0.13197
607,0.11248,-0.022311,-0.0041217,0.084226,0.19304,0.23883,0.078379
608,0.080328,-0.077528,-0.034004,0.015042,0.18427,0.22065,0.025761
609,0.056942,-0.13794,-0.060963,-0.033354,0.18037,0.2109,-0.021661
610,0.048822,-0.19154,-0.078503,-0.056091,0.16998,0.19823,-0.059664
611,0.058891,-0.22856,-0.088896,-0.057065,0.14919,0.17452,-0.09182
612,0.079679,-0.24545,-0.095393,-0.055116,0.11638,0.13457,-0.12268
613,0.093321,-0.23896,-0.098965,-0.067459,0.078379,0.078055,-0.15646
614,0.088124,-0.21232,-0.097017,-0.09929,0.047523,0.0088706,-0.19673
615,0.061165,-0.16977,-0.087922,-0.14152,0.028684,-0.060313,-0.23571
616,0.018615,-0.11586,-0.070707,-0.18309,0.021863,-0.12138,-0.26299
617,-0.022636,-0.061937,-0.048945,-0.22077,0.025436,-0.18244,-0.27891
618,-0.053817,-0.020362,-0.025884,-0.25195,0.03583,-0.26397,-0.2919
619,-0.069083,-0.0041217,-0.0060706,-0.27014,0.054019,-0.38025,-0.30554
620,-0.074605,-0.012567,0.0075714,-0.27241,0.07773,-0.52381,-0.31821
621,-0.083375,-0.038551,0.012119,-0.2578,0.10599,-0.66251,-0.32081
622,-0.096042,-0.069733,0.011794,-0.22434,0.13912,-0.74696,-0.30132
623,-0.10546,-0.090521,0.016016,-0.16912,0.17939,-0.74046,-0.25617
624,-0.10774,-0.094743,0.026085,-0.096692,0.22065,-0.64659,-0.18959
625,-0.10838,-0.084999,0.03453,-0.019388,0.24078,-0.52024,-0.11326
626,-0.11131,-0.077528,0.034855,0.054668,0.21805,-0.42735,-0.044723
627,-0.11683,-0.08305,0.027709,0.12353,0.14821,-0.40883,0.0062721
628,-0.1217,-0.09994,0.022512,0.18167,0.045899,-0.46307,0.033556
629,-0.12268,-0.11423,0.025111,0.21805,-0.058365,-0.55012,0.044924
630,-0.11845,-0.11683,0.034206,0.22812,-0.1308,-0.61281,0.053044
631,-0.10968,-0.10611,0.046548,0.21837,-0.15126,-0.61184,0.070909
632,-0.095393,-0.078178,0.058891,0.20311,-0.1178,-0.53258,0.10306
633,-0.072656,-0.034654,0.070584,0.18946,-0.048945,-0.37603,0.14756
634,-0.043099,0.0088706,0.081952,0.17939,0.028034,-0.15386,0.19791
635,-0.01484,0.034855,0.092996,0.16608,0.090397,0.11151,0.24436
636,0.0052977,0.032906,0.097868,0.14724,0.11703,0.39052,0.27132
637,0.014717,0.0039985,0.095594,0.12548,0.09462,0.65686,0.27326
638,0.017316,-0.042449,0.087474,0.10664,0.029658,0.89722,0.258
639,0.017965,-0.092145,0.081303,0.096244,-0.058365,1.1048,0.24501
640,0.023812,-0.1295,0.084226,0.099492,-0.14444,1.2626,0.24501
641,0.036154,-0.14769,0.097218,0.11638,-0.21297,1.3539,0.25897
642,0.056617,-0.15418,0.11378,0.14107,-0.2565,1.377,0.27326
643,0.080653,-0.15613,0.12905,0.15763,-0.27728,1.351,0.27879
644,0.095269,-0.15711,0.1362,0.14951,-0.28151,1.301,0.27294
645,0.09462,-0.15126,0.13392,0.10371,-0.27696,1.2386,0.25962
646,0.080978,-0.13469,0.12353,0.020239,-0.26851,1.1473,0.24013
647,0.061489,-0.10774,0.10826,-0.094743,-0.26202,0.98817,0.21058
648,0.040377,-0.072656,0.09397,-0.23019,-0.26299,0.73059,0.1703
649,0.015367,-0.029132,0.079679,-0.37018,-0.27826,0.38045,0.11963
650,-0.0089938,0.023162,0.067336,-0.49036,-0.31171,-0.013866,0.061165
651,-0.024585,0.080003,0.059216,-0.56799,-0.35914,-0.38837,0.0020496
652,-0.025559,0.13002,0.056617,-0.59625,-0.40981,-0.69661,-0.047971
653,-0.019063,0.15991,0.057917,-0.5826,-0.45236,-0.92235,-0.084349
654,-0.018088,0.1677,0.06084,-0.54038,-0.48256,-1.0672,-0.10514
655,-0.030431,0.15536,0.061814,-0.47996,-0.50108,-1.1487,-0.11033
656,-0.050569,0.13035,0.057592,-0.41143,-0.50562,-1.1825,-0.095717
657,-0.073955,0.093645,0.047523,-0.33997,-0.49523,-1.1815,-0.069733
658,-0.095717,0.057917,0.036154,-0.26559,-0.46502,-1.1513,-0.045372
659,-0.10579,0.038753,0.029658,-0.17594,-0.41143,-1.0935,-0.03303
660,-0.097991,0.046873,0.034206,-0.047646,-0.33965,-1.0165,-0.036927
661,-0.080451,0.0852,0.05207,0.13555,-0.26137,-0.92593,-0.052518
662,-0.068758,0.14432,0.075456,0.35317,-0.18894,-0.82848,-0.081426
663,-0.067784,0.20993,0.092021,0.55195,-0.1269,-0.7174,-0.12333
664,-0.072656,0.26774,0.09397,0.66466,-0.068758,-0.58683,-0.17205
665,-0.076229,0.30574,0.0852,0.64809,-0.0044465,-0.42994,-0.21492
666,-0.071682,0.31257,0.069934,0.51037,0.063113,-0.24903,-0.23571
667,-0.062587,0.28528,0.051096,0.30217,0.12775,-0.057715,-0.22467
668,-0.054792,0.23396,0.029658,0.087149,0.18557,0.12125,-0.18309
669,-0.053168,0.17225,0.011144,-0.079477,0.23136,0.2554,-0.12755
670,-0.056741,0.11833,-0.0041217,-0.174,0.25735,0.32751,-0.073955
671,-0.060638,0.080978,-0.017114,-0.20063,0.26027,0.35219,-0.034978
672,-0.060638,0.057917,-0.023935,-0.18049,0.24078,0.35219,-0.012892
673,-0.057065,0.044275,-0.026858,-0.14281,0.20311,0.3392,0.0026992
674,-0.051219,0.031282,-0.028807,-0.10579,0.1664,0.32751,0.023487
675,-0.046347,0.013418,-0.033354,-0.074605,0.16315,0.34537,0.055318
676,-0.043099,-0.013866,-0.040175,-0.052193,0.2083,0.4191,0.097868
677,-0.041799,-0.055441,-0.052518,-0.039851,0.29795,0.54415,0.13912
678,-0.041475,-0.10871,-0.071357,-0.043423,0.40254,0.68025,0.1703
679,-0.042449,-0.16945,-0.096367,-0.058689,0.48341,0.77347,0.18589
680,-0.042449,-0.22986,-0.12625,-0.0824,0.51849,0.7962,0.18914
681,-0.04115,-0.27793,-0.15451,-0.10871,0.51167,0.75593,0.18394
682,-0.037577,-0.30294,-0.17562,-0.13632,0.48114,0.68187,0.1742
683,-0.03173,-0.30554,-0.18601,-0.15905,0.41456,0.60035,0.1625
684,-0.026533,-0.29612,-0.19056,-0.17465,0.2476,0.52564,0.15309
685,-0.022636,-0.27891,-0.19543,-0.18114,-0.060313,0.45613,0.14659
686,-0.020687,-0.2539,-0.19771,-0.17692,-0.44554,0.3876,0.13944
687,-0.021012,-0.22077,-0.19283,-0.15386,-0.77651,0.32231,0.13002
688,-0.020687,-0.17887,-0.17757,-0.10449,-0.94476,0.27911,0.11931
689,-0.019063,-0.12885,-0.15386,-0.02426,-0.92203,0.28918,0.11054
690,-0.013216,-0.075255,-0.12657,0.10144,-0.75053,0.37136,0.10371
691,0.00075039,-0.026209,-0.097341,0.29438,-0.50757,0.50875,0.099492
692,0.019589,0.015042,-0.069083,0.55357,-0.26787,0.64614,0.10112
693,0.044599,0.04395,-0.04992,0.82479,-0.097341,0.72605,0.11378
694,0.069934,0.054019,-0.04927,1.0161,-0.053817,0.71305,0.13035
695,0.089748,0.050446,-0.066485,1.0577,-0.15711,0.60944,0.14367
696,0.099167,0.042975,-0.096042,0.94334,-0.35849,0.44769,0.14107
697,0.099492,0.046873,-0.12527,0.72247,-0.56247,0.27002,0.10924
698,0.095919,0.066362,-0.14411,0.46847,-0.6794,0.11281,0.049147
699,0.092996,0.10177,-0.14834,0.24728,-0.66998,-0.0076946,-0.021012
700,0.090722,0.14237,-0.13892,0.096244,-0.55467,-0.10221,-0.077528
701,0.089098,0.17745,-0.12398,0.019914,-0.39454,-0.18569,-0.10481
702,0.085525,0.19693,-0.11261,0.00075039,-0.2552,-0.27534,-0.10124
703,0.075456,0.19628,-0.10838,0.009845,-0.16977,-0.38285,-0.081751
704,0.060515,0.17225,-0.11358,0.015692,-0.14022,-0.51212,-0.070707
705,0.046223,0.13262,-0.12592,-0.0063954,-0.14346,-0.64692,-0.077853
706,0.032257,0.0865,-0.14281,-0.061288,-0.13794,-0.75962,-0.09994
707,0.019589,0.042975,-0.15386,-0.13437,-0.095717,-0.81906,-0.12203
708,0.012443,0.010819,-0.15581,-0.2068,-0.014191,-0.80867,-0.13177
709,0.013743,-0.0034721,-0.14834,-0.25682,0.0865,-0.72487,-0.11878
710,0.025111,0.00075039,-0.13469,-0.27404,0.18232,-0.55727,-0.081751
711,0.049147,0.019264,-0.11163,-0.25422,0.2619,-0.30587,-0.029457
712,0.079029,0.048497,-0.076879,-0.19836,0.32686,-0.015165,0.023812
713,0.10761,0.077405,-0.037252,-0.10838,0.37915,0.23006,0.062789
714,0.12872,0.098193,-0.0011985,0.0033489,0.40416,0.37136,0.07773
715,0.13782,0.10534,0.027385,0.11151,0.37785,0.40351,0.073507
716,0.13457,0.098842,0.051745,0.18524,0.29145,0.36876,0.064737
717,0.11833,0.07773,0.072208,0.20895,0.16056,0.31516,0.063113
718,0.095269,0.05272,0.091372,0.18654,0.015692,0.27229,0.073507
719,0.074157,0.035505,0.10664,0.1258,-0.10903,0.23461,0.098842
720,0.061165,0.028684,0.11638,0.040052,-0.18699,0.17745,0.13977
721,0.052395,0.024461,0.11443,-0.052843,-0.20615,0.094295,0.19141
722,0.039402,0.016341,0.098193,-0.1308,-0.16977,0.015367,0.24111
723,0.02641,0.0069217,0.072858,-0.1753,-0.089221,-0.01614,0.28041
724,0.016991,0.0056225,0.049147,-0.18601,0.011469,0.067011,0.30704
725,0.01764,0.016991,0.041027,-0.17302,0.10859,0.30412,0.32263
726,0.026085,0.039402,0.053369,-0.15061,0.19304,0.60847,0.32848
727,0.038428,0.06896,0.079679,-0.12982,0.26547,0.79945,0.32134
728,0.057592,0.098517,0.10664,-0.11456,0.32913,0.74943,0.2947
729,0.081303,0.1206,0.12483,-0.098316,0.38532,0.46458,0.24825
730,0.10761,0.1349,0.13067,-0.07428,0.43632,0.049796,0.19596
731,0.1323,0.14594,0.1245,-0.042774,0.47789,-0.37635,0.14756
732,0.15211,0.15796,0.10956,-0.012567,0.50128,-0.74533,0.10534
733,0.16413,0.16803,0.088773,0.0069217,0.49771,-1.0383,0.059216
734,0.1664,0.17322,0.062464,0.011469,0.46977,-1.2459,0.0026992
735,0.14984,0.1716,0.032257,0.0010752,0.4256,-1.3472,-0.064211
736,0.11898,0.16056,0.0017248,-0.022636,0.37363,-1.3319,-0.13859
737,0.07773,0.13944,-0.022961,-0.048296,0.31646,-1.216,-0.21979
738,0.033556,0.11021,-0.038876,-0.057715,0.26384,-1.0503,-0.30165
739,-0.0083442,0.079029,-0.040175,-0.037252,0.22454,-0.89994,-0.38155
740,-0.044073,0.058891,-0.030431,0.01017,0.20343,-0.81517,-0.45528
741,-0.072006,0.055318,-0.014516,0.063763,0.19921,-0.80737,-0.52057
742,-0.095068,0.062464,0.0023744,0.093321,0.2044,-0.84927,-0.57189
743,-0.11943,0.070259,0.012443,0.079354,0.20505,-0.90286,-0.59852
744,-0.14444,0.070259,0.012768,0.021213,0.19076,-0.93664,-0.59397
745,-0.16685,0.06084,0.0088706,-0.062262,0.15763,-0.93599,-0.54915
746,-0.17659,0.048172,0.0010752,-0.15061,0.1206,-0.89572,-0.46697
747,-0.16685,0.042651,-0.010293,-0.22044,0.10047,-0.80834,-0.35654
748,-0.13697,0.040377,-0.022311,-0.2565,0.11541,-0.65244,-0.23409
749,-0.094093,0.037454,-0.029782,-0.26007,0.18524,-0.41598,-0.12105
750,-0.04992,0.037778,-0.035953,-0.23798,0.32686,-0.13762,-0.035303
751,-0.01484,0.050121,-0.042449,-0.19901,0.52954,0.084551,0.0072465
752,0.0039985,0.074482,-0.045047,-0.15029,0.75203,0.14756,0.009845
753,0.0078962,0.10436,-0.041475,-0.092145,0.95211,0.011144,-0.014516
754,0.00042559,0.13132,-0.029782,-0.017439,1.1048,-0.27631,-0.045697
755,-0.0063954,0.15146,-0.010293,0.079679,1.1967,-0.59982,-0.058365
756,-0.00022403,0.16445,0.013418,0.20798,1.222,-0.82166,-0.038551
757,0.01829,0.17192,0.037129,0.35999,1.1756,-0.84342,0.00075039
758,0.045249,0.17387,0.055643,0.50648,1.0492,-0.64692,0.049472
759,0.067011,0.1651,0.06896,0.60814,0.81439,-0.30067,0.091372
760,0.07708,0.14237,0.073182,0.6286,0.41715,0.09462,0.11378
761,0.076431,0.10859,0.06831,0.56169,-0.14054,0.44639,0.11671
762,0.066037,0.069285,0.054993,0.42755,-0.77002,0.70006,0.10177
763,0.05142,0.028034,0.034206,0.26287,-1.3576,0.8511,0.07708
764,0.038753,-0.0076946,0.009845,0.10047,-1.8243,0.91931,0.056292
765,0.032906,-0.033679,-0.0099683,-0.034004,-2.1215,0.91833,0.048172
766,0.033881,-0.04992,-0.020037,-0.1308,-2.2138,0.86539,0.059541
767,0.037778,-0.062262,-0.022636,-0.18439,-2.0813,0.78419,0.084876
768,0.042326,-0.079802,-0.021337,-0.19771,-1.747,0.70428,0.11378
769,0.047523,-0.10124,-0.019712,-0.18179,-1.2871,0.64972,0.13165
770,0.051096,-0.12365,-0.021986,-0.15223,-0.80867,0.63445,0.13067
771,0.050446,-0.14314,-0.030431,-0.12625,-0.40786,0.64939,0.10794
772,0.044275,-0.16003,-0.041799,-0.11521,-0.13957,0.66401,0.068635
773,0.031282,-0.17952,-0.053492,-0.11586,-0.0037969,0.64192,0.021538
774,0.014392,-0.20453,-0.060313,-0.12138,0.038103,0.56754,-0.021337
775,-0.0024977,-0.23474,-0.056416,-0.12333,0.028034,0.45873,-0.055766
776,-0.018088,-0.26494,-0.045047,-0.11975,-0.0028225,0.35447,-0.081426
777,-0.034004,-0.29482,-0.037577,-0.1178,-0.034654,0.29633,-0.10546
778,-0.04927,-0.32113,-0.043748,-0.123,-0.050569,0.31516,-0.1321
779,-0.059014,-0.339,-0.06616,-0.14087,-0.041475,0.4152,-0.15646
780,-0.059339,-0.34679,-0.095393,-0.17757,-0.0083442,0.55877,-0.17042
781,-0.050894,-0.33932,-0.11845,-0.23474,0.032582,0.6783,-0.16912
782,-0.038227,-0.31366,-0.1282,-0.30554,0.058566,0.70851,-0.15061
783,-0.026209,-0.26916,-0.12008,-0.3783,0.050446,0.62406,-0.11488
784,-0.012892,-0.20908,-0.097666,-0.44131,0.0069217,0.44216,-0.068758
785,0.0046481,-0.13859,-0.062912,-0.48386,-0.059014,0.2083,-0.022636
786,0.024786,-0.067134,-0.020687,-0.50075,-0.12527,-0.028807,0.016016
787,0.040377,-0.0028225,0.024461,-0.48776,-0.17887,-0.23409,0.042001
788,0.042651,0.048172,0.06961,-0.44651,-0.21362,-0.38739,0.05142
789,0.034206,0.082927,0.11183,-0.37343,-0.23246,-0.49133,0.041027
790,0.021538,0.10436,0.15146,-0.26559,-0.23863,-0.55792,0.015042
791,0.0088706,0.11768,0.18362,-0.11228,-0.23019,-0.59722,-0.018088
792,0.00010078,0.12515,0.2109,0.11541,-0.20063,-0.60631,-0.043748
793,-0.00054884,0.13295,0.24046,0.45223,-0.14281,-0.57611,-0.054142
794,0.008221,0.14691,0.27651,0.89527,-0.053168,-0.49815,-0.045372
795,0.023812,0.1638,0.31841,1.3633,0.059541,-0.36985,-0.018413
796,0.04395,0.18004,0.35869,1.7144,0.17907,-0.20096,0.024786
797,0.062139,0.18946,0.3889,1.8278,0.28821,-0.010943,0.076431
798,0.078379,0.18687,0.40481,1.6742,0.3811,0.18102,0.12483
799,0.085525,0.16608,0.40384,1.3383,0.45873,0.36226,0.16218
800,0.074157,0.12678,0.38532,0.96316,0.52337,0.52596,0.18751
801,0.040702,0.077405,0.34862,0.66628,0.57404,0.66823,0.20343
802,-0.0067202,0.031932,0.29568,0.48179,0.60392,0.7988,0.21155
803,-0.054467,-0.00087364,0.23494,0.3746,0.60717,0.92483,0.22194
804,-0.086298,-0.024909,0.17647,0.28496,0.58573,1.0206,0.24306
805,-0.094418,-0.048945,0.12613,0.17095,0.55455,1.0457,0.27359
806,-0.08305,-0.080451,0.084876,0.027385,0.53214,0.97972,0.31062
807,-0.059339,-0.11683,0.054019,-0.11813,0.53311,0.83973,0.34764
808,-0.032705,-0.14411,0.036154,-0.23603,0.55617,0.65946,0.3785
809,-0.0093186,-0.15223,0.028684,-0.30977,0.5841,0.46393,0.39961
810,0.0072465,-0.13502,0.027709,-0.34452,0.58898,0.26677,0.41033
811,0.011794,-0.093444,0.031932,-0.35199,0.54935,0.070584,0.40189
812,0.0023744,-0.038227,0.038753,-0.35199,0.46165,-0.12527,0.37168
813,-0.014516,0.016016,0.046548,-0.35556,0.33173,-0.31594,0.31906
814,-0.034004,0.056617,0.050121,-0.36791,0.17907,-0.48744,0.25118
815,-0.050894,0.081952,0.042326,-0.38057,0.038428,-0.61736,0.18264
816,-0.062262,0.09462,0.023162,-0.38252,-0.059339,-0.69109,0.12775
817,-0.064861,0.099167,-0.0034721,-0.37018,-0.087597,-0.69531,0.094295
818,-0.05739,0.098193,-0.027183,-0.34842,-0.025884,-0.62158,0.081303
819,-0.038876,0.096569,-0.0405,-0.32276,0.12775,-0.45723,0.078055
820,-0.01549,0.10339,-0.040825,-0.30294,0.3405,-0.21102,0.072858
821,0.0046481,0.131,-0.028807,-0.2906,0.5448,0.063763,0.064088
822,0.018615,0.1742,-0.0057458,-0.28216,0.67927,0.28528,0.05207
823,0.022837,0.21317,0.019914,-0.27534,0.70981,0.385,0.037778
824,0.016991,0.23006,0.0433,-0.26916,0.63965,0.34667,0.022837
825,0.0062721,0.22227,0.066037,-0.26364,0.50323,0.20733,0.0091954
826,-0.0060706,0.19953,0.087799,-0.25845,0.31581,0.033231,-0.0011985
827,-0.01484,0.17647,0.10631,-0.25812,0.041676,-0.12105,-0.015165
828,-0.021337,0.16185,0.11151,-0.26657,-0.35394,-0.23603,-0.035628
829,-0.027508,0.15049,0.093645,-0.28605,-0.82134,-0.30424,-0.063886
830,-0.03238,0.13555,0.055643,-0.30749,-1.2176,-0.30879,-0.089221
831,-0.030106,0.11703,0.0091954,-0.32146,-1.3849,-0.22661,-0.10124
832,-0.015815,0.10112,-0.026858,-0.31821,-1.2481,-0.071682,-0.090521
833,0.011144,0.094295,-0.044723,-0.2906,-0.84277,0.092996,-0.058689
834,0.0433,0.099817,-0.047321,-0.23668,-0.28573,0.21188,-0.018738
835,0.06896,0.10859,-0.043748,-0.16523,0.27944,0.27814,0.020564
836,0.083576,0.10989,-0.039851,-0.089546,0.72345,0.32166,0.047847
837,0.087149,0.097218,-0.033354,-0.022636,0.98069,0.35934,0.052395
838,0.082927,0.075131,-0.024585,0.024461,1.0489,0.37006,0.031607
839,0.06896,0.048822,-0.011917,0.054668,0.9664,0.32296,-0.015165
840,0.041027,0.024786,0.0014,0.074157,0.73352,0.2057,-0.074605
841,0.0017248,-0.00087364,0.009845,0.086824,0.30185,0.038753,-0.13404
842,-0.037252,-0.034329,0.0052977,0.089748,-0.33737,-0.1282,-0.18082
843,-0.065835,-0.075904,-0.012567,0.087474,-1.0403,-0.2474,-0.20713
844,-0.078827,-0.11651,-0.042774,0.087149,-1.5814,-0.29872,-0.212
845,-0.073306,-0.14769,-0.077853,0.097543,-1.7919,-0.2932,-0.2068
846,-0.054792,-0.1675,-0.10871,0.12158,-1.6694,-0.26722,-0.20453
847,-0.030756,-0.17887,-0.13437,0.15503,-1.3589,-0.26137,-0.21265
848,-0.011917,-0.18764,-0.15353,0.18914,-1.0481,-0.30067,-0.22954
849,-0.00087364,-0.19868,-0.1649,0.21155,-0.83855,-0.38512,-0.24253
850,0.0026992,-0.20745,-0.16588,0.2122,-0.72487,-0.49198,-0.24318
851,0.00075039,-0.20518,-0.16003,0.19044,-0.64464,-0.5917,-0.23311
852,-0.0037969,-0.18569,-0.14866,0.14984,-0.54623,-0.66316,-0.21849
853,-0.0041217,-0.15548,-0.13242,0.095919,-0.4163,-0.70083,-0.20323
854,0.0039985,-0.12235,-0.11715,0.02706,-0.27339,-0.71318,-0.19186
855,0.018615,-0.097017,-0.10806,-0.052843,-0.14671,-0.70506,-0.18829
856,0.036154,-0.088247,-0.10579,-0.13859,-0.061613,-0.67842,-0.18829
857,0.049796,-0.096367,-0.10871,-0.22434,-0.021012,-0.6323,-0.18666
858,0.053369,-0.11456,-0.11586,-0.29775,-0.0011985,-0.55597,-0.18374
859,0.045574,-0.12755,-0.12527,-0.35556,0.020888,-0.42994,-0.18082
860,0.03518,-0.1282,-0.13664,-0.40461,0.05272,-0.23798,-0.17659
861,0.026085,-0.11326,-0.15029,-0.45041,0.094295,0.026085,-0.16295
862,0.01764,-0.084024,-0.15873,-0.49393,0.14042,0.32263,-0.14054
863,0.0085458,-0.044723,-0.15938,-0.52641,0.18524,0.57761,-0.11651
864,-0.0028225,0.0072465,-0.15321,-0.54363,0.22259,0.71533,-0.10059
865,-0.01484,0.066037,-0.14281,-0.5446,0.2476,0.70656,-0.096042
866,-0.021012,0.12028,-0.12657,-0.53063,0.25962,0.58183,-0.091495
867,-0.01484,0.15991,-0.10546,-0.50238,0.2606,0.40611,-0.069083
868,0.0026992,0.18232,-0.08305,-0.45495,0.258,0.24241,-0.028482
869,0.023487,0.18946,-0.061288,-0.3861,0.26027,0.12937,0.02706
870,0.045899,0.18329,-0.037252,-0.29677,0.26904,0.072858,0.086175
871,0.064088,0.15698,-0.014516,-0.19219,0.27456,0.055643,0.14074
872,0.080978,0.098517,0.0036737,-0.086298,0.26255,0.053694,0.18427
873,0.093321,0.0033489,0.012768,0.0065969,0.23104,0.055318,0.21285
874,0.10047,-0.10741,0.008221,0.078379,0.18946,0.057592,0.22552
875,0.10436,-0.20388,-0.0076946,0.13132,0.15114,0.066686,0.22552
876,0.10891,-0.25975,-0.031406,0.18037,0.12385,0.093645,0.21577
877,0.10924,-0.27111,-0.052193,0.25962,0.11508,0.14854,0.20083
878,0.10436,-0.2435,-0.061288,0.41261,0.13067,0.23364,0.19206
879,0.089098,-0.18374,-0.052843,0.64777,0.16998,0.3379,0.19499
880,0.061489,-0.10449,-0.027183,0.91086,0.23104,0.44996,0.2187
881,0.032257,-0.024585,0.0049729,1.1028,0.30055,0.55357,0.26352
882,0.011144,0.044275,0.031607,1.1405,0.36096,0.6338,0.31906
883,0.0049729,0.10014,0.046548,1.0064,0.39702,0.6796,0.36778
884,0.014392,0.14529,0.050121,0.75203,0.39799,0.68025,0.39539
885,0.030308,0.17939,0.045899,0.461,0.36746,0.62633,0.39702
886,0.043625,0.20213,0.037454,0.2083,0.31711,0.51719,0.37655
887,0.05207,0.20895,0.022837,0.039402,0.26092,0.36583,0.34245
888,0.054344,0.20343,0.0046481,-0.0405,0.20895,0.18751,0.30087
889,0.05142,0.18979,-0.018088,-0.050569,0.16608,-0.0028225,0.2567
890,0.044275,0.16998,-0.043748,-0.0063954,0.13035,-0.18569,0.21025
891,0.032257,0.14496,-0.067459,0.093321,0.099492,-0.34517,0.15796
892,0.020239,0.11671,-0.079802,0.25118,0.071558,-0.47834,0.099817
893,0.013743,0.0865,-0.078827,0.44963,0.041676,-0.5917,0.037778
894,0.015367,0.065712,-0.062587,0.64387,0.012443,-0.68427,-0.019388
895,0.022837,0.065387,-0.034329,0.78419,-0.01484,-0.75475,-0.063237
896,0.033881,0.073182,-0.0050961,0.83421,-0.034004,-0.8025,-0.089871
897,0.042001,0.072858,0.014068,0.79133,-0.041475,-0.82816,-0.096367
898,0.042975,0.053044,0.01894,0.67765,-0.030106,-0.83725,-0.086623
899,0.03518,0.016666,0.011144,0.52726,0.0069217,-0.83725,-0.067459
900,0.020239,-0.026533,-0.0057458,0.36973,0.067986,-0.83336,-0.044723
901,0.0039985,-0.062262,-0.022961,0.23234,0.14302,-0.82069,-0.022636
902,-0.0093186,-0.073955,-0.027508,0.12807,0.21512,-0.77814,-0.0067202
903,-0.018738,-0.047321,-0.011592,0.056617,0.26157,-0.68557,-0.0060706
904,-0.025234,0.015042,0.021863,-0.00022403,0.25767,-0.54135,-0.019388
905,-0.028157,0.099817,0.067011,-0.059989,0.18394,-0.3796,-0.046022
906,-0.029782,0.18297,0.11573,-0.1308,0.028684,-0.26267,-0.084999
907,-0.035628,0.24436,0.15633,-0.2107,-0.2016,-0.23636,-0.1334
908,-0.050244,0.27489,0.17712,-0.28605,-0.4634,-0.30165,-0.18147
909,-0.071682,0.27359,0.17907,-0.34127,-0.68719,-0.41208,-0.22174
910,-0.088896,0.2528,0.16608,-0.36563,-0.81127,-0.50433,-0.24805
911,-0.096042,0.22714,0.15114,-0.35849,-0.80867,-0.53648,-0.25422
912,-0.087922,0.20668,0.14529,-0.33185,-0.68719,-0.49815,-0.23571
913,-0.064536,0.20051,0.15179,-0.2958,-0.48581,-0.4124,-0.19316
914,-0.036278,0.207,0.15958,-0.25422,-0.25325,-0.31171,-0.13762
915,-0.010293,0.2135,0.15861,-0.21297,-0.046671,-0.22142,-0.079802
916,0.0091954,0.20993,0.14594,-0.18114,0.092996,-0.14964,-0.030106
917,0.022512,0.19791,0.12223,-0.1636,0.15373,-0.095068,0.0033489
918,0.029333,0.18004,0.093645,-0.15516,0.15179,-0.054792,0.015042
919,0.033231,0.16185,0.070259,-0.14931,0.12158,-0.025559,0.0056225
920,0.030633,0.14302,0.057592,-0.14152,0.083251,-0.017114,-0.020362
921,0.019589,0.12028,0.049147,-0.13404,0.044924,-0.042774,-0.055766
922,0.0017248,0.088773,0.032906,-0.12917,0.012768,-0.10579,-0.094743
923,-0.016464,0.048822,0.0052977,-0.12495,-0.0083442,-0.19446,-0.13697
924,-0.028482,0.0052977,-0.02361,-0.11683,-0.011917,-0.29255,-0.18309
925,-0.034329,-0.034978,-0.045372,-0.10026,0.0010752,-0.38252,-0.23344
926,-0.040825,-0.064536,-0.055766,-0.079802,0.025436,-0.45171,-0.27891
927,-0.050244,-0.077203,-0.055766,-0.060638,0.044275,-0.49328,-0.30522
928,-0.056741,-0.076879,-0.050569,-0.050244,0.047847,-0.50725,-0.30587
929,-0.055116,-0.069408,-0.046671,-0.045372,0.041676,-0.48711,-0.27761
930,-0.043748,-0.061937,-0.045047,-0.047321,0.033881,-0.41338,-0.22661
931,-0.023285,-0.060638,-0.044398,-0.051219,0.033881,-0.2526,-0.16523
932,0.0026992,-0.061288,-0.042124,-0.04927,0.047198,0.033881,-0.10286
933,0.032257,-0.060638,-0.033354,-0.040825,0.071558,0.45288,-0.044398
934,0.060515,-0.055766,-0.021337,-0.028482,0.10339,0.93944,0.0075714
935,0.0865,-0.046996,-0.0073698,-0.017764,0.14042,1.3708,0.051096
936,0.10794,-0.037252,0.0023744,-0.013216,0.18167,1.6375,0.090397
937,0.11411,-0.031406,0.0056225,-0.018088,0.22292,1.719,0.12483
938,0.10599,-0.036602,-0.0015233,-0.033679,0.25345,1.6881,0.15471
939,0.0865,-0.060963,-0.016789,-0.05804,0.2619,1.6482,0.17647
940,0.063763,-0.10644,-0.03173,-0.084024,0.2515,1.6625,0.19011
941,0.043625,-0.1649,-0.038876,-0.10611,0.22941,1.7144,0.20083
942,0.02641,-0.21622,-0.038551,-0.11943,0.19921,1.7216,0.20765
943,0.012443,-0.25033,-0.03173,-0.11748,0.16121,1.5995,0.20765
944,0.00075039,-0.27209,-0.022961,-0.10124,0.11606,1.3302,0.19921
945,-0.0057458,-0.29677,-0.016464,-0.071682,0.070259,0.96608,0.18816
946,-0.0080194,-0.3312,-0.010293,-0.038876,0.025761,0.58605,0.18134
947,-0.0050961,-0.36076,-0.0044465,-0.0096434,-0.012567,0.26319,0.18264
948,-0.00054884,-0.36303,0.0014,0.013093,-0.039526,0.039078,0.18719
949,0.0010752,-0.32276,0.0085458,0.024461,-0.055116,-0.080451,0.18394
950,-0.0031473,-0.24221,0.016016,0.023162,-0.063561,-0.11488,0.1638
951,-0.0096434,-0.13599,0.023812,0.010495,-0.068434,-0.090196,0.12743
952,-0.019063,-0.026209,0.031607,-0.010293,-0.068109,-0.025884,0.082602
953,-0.030431,0.067011,0.03518,-0.035628,-0.060313,0.070259,0.040377
954,-0.038876,0.13684,0.03518,-0.055766,-0.039851,0.19921,0.0072465
955,-0.042449,0.18362,0.038428,-0.065186,-0.011267,0.35024,-0.011592
956,-0.045047,0.20895,0.048822,-0.065186,0.016991,0.48959,-0.020362
957,-0.047646,0.21317,0.063438,-0.057715,0.032582,0.56884,-0.024585
958,-0.050244,0.20051,0.076106,-0.047321,0.02706,0.54675,-0.022636
959,-0.049595,0.18199,0.082277,-0.037902,0.0020496,0.40903,-0.010943
960,-0.044723,0.17322,0.079029,-0.033679,-0.030106,0.17355,0.0088706
961,-0.035953,0.1768,0.072208,-0.034329,-0.061288,-0.11163,0.029333
962,-0.029782,0.18589,0.067011,-0.039201,-0.0824,-0.38837,0.046873
963,-0.029132,0.18102,0.06019,-0.045047,-0.084349,-0.5917,0.059216
964,-0.03173,0.14951,0.041676,-0.043099,-0.064211,-0.66478,0.071234
965,-0.032705,0.093645,0.01017,-0.026858,-0.025234,-0.57351,0.088124
966,-0.028482,0.021863,-0.02426,0.00042559,0.028359,-0.34387,0.11346
967,-0.019388,-0.051544,-0.056741,0.032257,0.079029,-0.067459,0.14139
968,-0.010943,-0.10968,-0.081101,0.061814,0.10242,0.14691,0.16445
969,-0.010943,-0.14639,-0.096042,0.081952,0.084551,0.22292,0.1716
970,-0.021661,-0.16393,-0.10644,0.092021,0.030957,0.14984,0.15828
971,-0.038876,-0.17237,-0.11293,0.093645,-0.044073,-0.029457,0.13002
972,-0.053492,-0.18212,-0.11586,0.080978,-0.12527,-0.26169,0.099817
973,-0.05739,-0.19966,-0.1178,0.046548,-0.19316,-0.49783,0.076106
974,-0.048296,-0.21752,-0.11878,-0.0037969,-0.22921,-0.7122,0.061165
975,-0.03173,-0.22661,-0.11391,-0.056091,-0.21395,-0.89312,0.054668
976,-0.010293,-0.21979,-0.099615,-0.10026,-0.13307,-1.0312,0.052395
977,0.013743,-0.19868,-0.077528,-0.12657,0.0049729,-1.1107,0.048172
978,0.034206,-0.1675,-0.052518,-0.13112,0.16998,-1.1166,0.045574
979,0.045899,-0.13729,-0.03173,-0.11748,0.32198,-1.0425,0.046548
980,0.048822,-0.11066,-0.020362,-0.088896,0.42852,-0.88338,0.056617
981,0.050446,-0.085324,-0.013866,-0.055441,0.47724,-0.63327,0.078704
982,0.057267,-0.058365,-0.008669,-0.027833,0.47529,-0.30229,0.10826
983,0.074157,-0.026858,0.003024,-0.011917,0.42625,0.055318,0.13425
984,0.092346,0.016016,0.026085,-0.0037969,0.29535,0.3431,0.13847
985,0.10469,0.076431,0.056617,0.00042559,0.029983,0.47432,0.10534
986,0.10436,0.14594,0.083901,0.016341,-0.34712,0.41033,0.033231
987,0.095594,0.20993,0.10371,0.070909,-0.71935,0.1781,-0.059014
988,0.086175,0.25378,0.11736,0.19044,-0.96003,-0.13275,-0.14249
989,0.080978,0.26742,0.12645,0.36778,-1.0013,-0.41825,-0.19413
990,0.081303,0.2489,0.12872,0.55097,-0.85544,-0.60209,-0.20096
991,0.088124,0.20928,0.12223,0.67473,-0.59819,-0.64659,-0.17042
992,0.096893,0.16608,0.10631,0.70298,-0.31724,-0.56312,-0.11878
993,0.10242,0.13652,0.0852,0.6416,-0.081426,-0.39649,-0.068109
994,0.098517,0.12418,0.067661,0.53538,0.076106,-0.19836,-0.036278
995,0.087799,0.12483,0.061489,0.42917,0.15991,-0.011592,-0.027508
996,0.076755,0.1323,0.066686,0.34764,0.18914,0.13522,-0.033679
997,0.075781,0.14074,0.078704,0.28691,0.18687,0.23266,-0.039201
998,0.082927,0.14724,0.093321,0.23104,0.17257,0.31646,-0.03303
999,0.092021,0.14984,0.10794,0.16121,0.15991,0.44184,-0.01549
1000,0.099817,0.14139,0.11736,0.075781,0.16056,0.64614,0.010495
1001,0.10371,0.11898,0.12028,-0.019063,0.18362,0.9284,0.040702
1002,0.10274,0.089098,0.11833,-0.11586,0.22649,1.2418,0.078055
1003,0.097543,0.063763,0.11476,-0.20388,0.27716,1.516,0.12548
1004,0.089423,0.05272,0.10956,-0.27631,0.32913,1.7024,0.17582
1005,0.084551,0.055643,0.10631,-0.33023,0.36973,1.7908,0.22227
1006,0.090072,0.067336,0.10534,-0.36238,0.39572,1.8051,0.25962
1007,0.10306,0.081952,0.10339,-0.3705,0.40221,1.7774,0.28236
1008,0.11541,0.092021,0.099492,-0.35102,0.37915,1.719,0.28138
1009,0.11703,0.090397,0.088773,-0.301,0.29795,1.6176,0.258
1010,0.095269,0.076755,0.074482,-0.20388,0.14756,1.4614,0.22649
1011,0.05142,0.055968,0.056942,-0.033354,-0.046022,1.2415,0.19434
1012,0.00010078,0.038428,0.039402,0.21707,-0.22759,0.96186,0.16413
1013,-0.043423,0.034206,0.024137,0.49803,-0.34679,0.63867,0.13035
1014,-0.069083,0.050121,0.013093,0.72117,-0.38025,0.29015,0.095594
1015,-0.072331,0.088124,0.010495,0.8105,-0.3403,-0.065835,0.061814
1016,-0.059989,0.14886,0.018615,0.74846,-0.26007,-0.41078,0.032582
1017,-0.038551,0.22129,0.037454,0.5932,-0.1688,-0.72779,0.0085458
1018,-0.019712,0.28138,0.059865,0.44216,-0.084674,-1.0049,-0.01549
1019,-0.011592,0.30639,0.074482,0.36681,-0.016464,-1.2277,-0.043423
1020,-0.015165,0.28821,0.080653,0.37136,0.031932,-1.379,-0.072656
1021,-0.027833,0.23396,0.077405,0.40481,0.057267,-1.4531,-0.097017
1022,-0.044073,0.16121,0.066686,0.40546,0.061814,-1.4648,-0.1191
1023,-0.059014,0.088448,0.050446,0.34407,0.048822,-1.442,-0.14249
1024,-0.069083,0.031282,0.033231,0.22844,0.022512,-1.4047,-0.16133
1025,-0.075579,-0.008669,0.017965,0.092346,-0.013216,-1.3388,-0.1636
1026,-0.078178,-0.044073,0.0039985,-0.027833,-0.055116,-1.1988,-0.13924
1027,-0.073955,-0.08305,-0.012892,-0.11456,-0.09929,-0.98277,-0.081426
1028,-0.057715,-0.12333,-0.031081,-0.16588,-0.14314,-0.74598,0.0062721
1029,-0.030756,-0.15905,-0.045372,-0.18991,-0.18017,-0.52869,0.10566
1030,-0.00054884,-0.17822,-0.052518,-0.20031,-0.20583,-0.31659,0.20278
1031,0.02706,-0.17367,-0.053817,-0.21037,-0.21622,-0.074605,0.28106
1032,0.048497,-0.15386,-0.055116,-0.22661,-0.212,0.20246,0.31971
1033,0.058241,-0.13469,-0.067459,-0.2448,-0.19608,0.48017,0.31516
1034,0.055318,-0.12463,-0.088572,-0.25422,-0.17107,0.70916,0.27099
1035,0.046873,-0.12495,-0.11683,-0.25292,-0.14152,0.85629,0.19076
1036,0.040052,-0.13015,-0.14314,-0.24383,-0.11131,0.90794,0.079679
1037,0.033556,-0.13437,-0.15938,-0.23636,-0.084999,0.87058,-0.043099
1038,0.021213,-0.13989,-0.16782,-0.23798,-0.056741,0.78029,-0.14899
1039,0.0033489,-0.14834,-0.17497,-0.24805,-0.021986,0.68382,-0.21525
1040,-0.015165,-0.15905,-0.18147,-0.26104,0.020239,0.61756,-0.24091
1041,-0.028157,-0.17335,-0.18017,-0.26624,0.071558,0.5841,-0.23961
1042,-0.030756,-0.18634,-0.1623,-0.2513,0.13002,0.53863,-0.22434
1043,-0.026533,-0.19056,-0.13177,-0.21557,0.19141,0.4217,-0.20193
1044,-0.020362,-0.18114,-0.097017,-0.17367,0.24858,0.18329,-0.18179
1045,-0.018088,-0.16523,-0.067784,-0.14119,0.29145,-0.19186,-0.16847
1046,-0.025884,-0.14996,-0.047321,-0.1256,0.30899,-0.67907,-0.16555
1047,-0.036602,-0.14152,-0.034978,-0.12885,0.30607,-1.2186,-0.16847
1048,-0.047646,-0.13892,-0.028807,-0.14671,0.296,-1.7285,-0.17984
1049,-0.055441,-0.13599,-0.026209,-0.17367,0.28626,-2.1407,-0.20778
1050,-0.064211,-0.12787,-0.024585,-0.20355,0.27781,-2.408,-0.25455
1051,-0.077853,-0.11228,-0.022636,-0.22532,0.25572,-2.5055,-0.31269
1052,-0.092469,-0.088896,-0.016789,-0.23798,0.22162,-2.4226,-0.36401
1053,-0.097991,-0.054792,-0.0073698,-0.24318,0.18427,-2.169,-0.3861
1054,-0.087597,-0.0089938,0.009845,-0.25227,0.16738,-1.7805,-0.36303
1055,-0.061937,0.0433,0.033231,-0.27469,0.18557,-1.3271,-0.30392
1056,-0.031081,0.091372,0.057917,-0.31594,0.23754,-0.90059,-0.22856
1057,-0.0011985,0.12353,0.079354,-0.37148,0.29892,-0.58553,-0.16263
1058,0.022188,0.13392,0.095594,-0.44001,0.33693,-0.4254,-0.1217
1059,0.038103,0.1232,0.10436,-0.52122,0.32816,-0.40688,-0.10546
1060,0.044599,0.10144,0.10339,-0.60534,0.27034,-0.48289,-0.10449
1061,0.046223,0.082927,0.094945,-0.68232,0.17712,-0.60242,-0.11001
1062,0.047523,0.076431,0.082277,-0.73721,0.062139,-0.72065,-0.11683
1063,0.045574,0.079679,0.070259,-0.76417,-0.061288,-0.80477,-0.12268
1064,0.039727,0.088124,0.059865,-0.76255,-0.17952,-0.82621,-0.12495
1065,0.029333,0.098517,0.054019,-0.72942,-0.27858,-0.76482,-0.1204
1066,0.021213,0.11638,0.051096,-0.66023,-0.34355,-0.60989,-0.10449
1067,0.01829,0.14074,0.048497,-0.55272,-0.37343,-0.36044,-0.071032
1068,0.020888,0.16413,0.045574,-0.40786,-0.3822,-0.024909,-0.027833
1069,0.02641,0.17712,0.041351,-0.21232,-0.3796,0.36259,0.019914
1070,0.032906,0.17647,0.0433,0.053694,-0.37213,0.72994,0.066362
1071,0.037129,0.16705,0.055318,0.38305,-0.35719,0.99564,0.10956
1072,0.039727,0.15926,0.078055,0.71955,-0.32795,1.1093,0.15049
1073,0.039402,0.16153,0.10924,0.969,-0.27761,1.1122,0.18622
1074,0.031932,0.17907,0.13847,1.0492,-0.2029,1.0957,0.21155
1075,0.017965,0.20928,0.15893,0.93782,-0.10579,1.1152,0.22097
1076,0.003024,0.24468,0.16315,0.67732,-0.00022403,1.1571,0.21447
1077,-0.0034721,0.27391,0.15081,0.36129,0.093321,1.1652,0.19466
1078,0.00042559,0.28885,0.13002,0.0865,0.15698,1.0876,0.17127
1079,0.014392,0.28788,0.11021,-0.0824,0.17517,0.91119,0.15406
1080,0.032582,0.27229,0.098517,-0.12365,0.14626,0.66466,0.14269
1081,0.046548,0.24955,0.095919,-0.040825,0.0865,0.39507,0.12807
1082,0.052395,0.22519,0.097868,0.15016,0.024137,0.14821,0.10664
1083,0.053044,0.20278,0.098842,0.42755,-0.011917,-0.049595,0.084551
1084,0.06084,0.18589,0.092671,0.74391,-0.0089938,-0.20063,0.06896
1085,0.082277,0.17095,0.083576,1.0301,0.029333,-0.32146,0.061489
1086,0.11021,0.15536,0.06831,1.2165,0.087149,-0.41565,0.056942
1087,0.13262,0.13782,0.046548,1.2597,0.14074,-0.47639,0.049796
1088,0.14139,0.11638,0.020564,1.1697,0.17582,-0.49685,0.037454
1089,0.1349,0.091696,-0.007045,0.99239,0.18622,-0.48224,0.020564
1090,0.11541,0.061165,-0.032055,0.79036,0.18037,-0.46307,-0.0047713
1091,0.088448,0.027385,-0.050894,0.61691,0.16608,-0.48256,-0.038227
1092,0.062464,-0.0067202,-0.060963,0.49901,0.12872,-0.56571,-0.071357
1093,0.042326,-0.039201,-0.062912,0.43047,0.041676,-0.70343,-0.094743
1094,0.031932,-0.067134,-0.057065,0.38305,-0.10254,-0.8496,-0.10579
1095,0.025111,-0.085648,-0.043748,0.32946,-0.26527,-0.94509,-0.10319
1096,0.017965,-0.093769,-0.021337,0.25702,-0.38642,-0.95353,-0.084999
1097,0.011144,-0.095717,0.0059473,0.16445,-0.42994,-0.87168,-0.056741
1098,0.0033489,-0.097341,0.030633,0.06084,-0.40201,-0.72877,-0.030756
1099,-0.011592,-0.10611,0.041351,-0.042124,-0.33543,-0.55857,-0.018413
1100,-0.029457,-0.1243,0.031932,-0.13275,-0.26494,-0.37538,-0.020037
1101,-0.043099,-0.14606,0.0049729,-0.20128,-0.21037,-0.1662,-0.028482
1102,-0.041799,-0.16653,-0.029132,-0.24448,-0.1753,0.10144,-0.034654
1103,-0.029457,-0.17984,-0.056416,-0.26332,-0.14834,0.45321,-0.038551
1104,-0.016464,-0.17984,-0.072331,-0.26689,-0.11391,0.86311,-0.046347
1105,-0.0099683,-0.1714,-0.078827,-0.26039,-0.062262,1.2545,-0.056741
1106,-0.012892,-0.1649,-0.079152,-0.25065,0.00042559,1.554,-0.059014
1107,-0.026533,-0.16782,-0.08305,-0.24448,0.058566,1.7268,-0.046022
1108,-0.047321,-0.18244,-0.094093,-0.24221,0.10177,1.7742,-0.011592
1109,-0.070058,-0.20485,-0.11228,-0.23896,0.12807,1.7268,0.041351
1110,-0.083375,-0.22921,-0.1295,-0.23116,0.14334,1.6401,0.10696
1111,-0.082076,-0.2435,-0.14152,-0.21785,0.15861,1.5676,0.17452
1112,-0.069083,-0.24253,-0.14801,-0.19803,0.18004,1.5403,0.24046
1113,-0.050894,-0.22272,-0.14671,-0.17497,0.21382,1.5504,0.29957
1114,-0.036278,-0.19446,-0.13827,-0.15223,0.2502,1.5679,0.34667
1115,-0.033679,-0.16458,-0.123,-0.13762,0.27359,1.5624,0.37265
1116,-0.043099,-0.14152,-0.10286,-0.12982,0.26872,1.5325,0.37883
1117,-0.059014,-0.12787,-0.084349,-0.12365,0.22714,1.4981,0.37038
1118,-0.073955,-0.1204,-0.069408,-0.12073,0.15893,1.4601,0.36226
1119,-0.080127,-0.11845,-0.058689,-0.12463,0.078055,1.3922,0.35966
1120,-0.075255,-0.11553,-0.048945,-0.13599,0.0033489,1.2707,0.35576
1121,-0.065186,-0.10676,-0.042124,-0.15191,-0.051544,1.085,0.3431
1122,-0.050569,-0.089871,-0.037252,-0.16912,-0.088896,0.84687,0.31614
1123,-0.030756,-0.067784,-0.03173,-0.18244,-0.12268,0.5867,0.27229
1124,-0.0063954,-0.045372,-0.027508,-0.19089,-0.15808,0.34602,0.21415
1125,0.01894,-0.019712,-0.024585,-0.19478,-0.19154,0.17355,0.14756
1126,0.036804,0.010495,-0.022961,-0.19803,-0.2146,0.09462,0.084876
1127,0.040702,0.041351,-0.024909,-0.2068,-0.22304,0.098193,0.036804
1128,0.032582,0.071234,-0.027508,-0.21914,-0.21427,0.14074,0.011144
1129,0.021538,0.097868,-0.024909,-0.22629,-0.18991,0.17874,0.0075714
1130,0.016666,0.11606,-0.017764,-0.22077,-0.15581,0.19888,0.023162
1131,0.021213,0.12743,-0.0076946,-0.20096,-0.12333,0.20376,0.052395
1132,0.029983,0.13197,0.0020496,-0.16588,-0.10221,0.20765,0.089098
1133,0.036804,0.13165,0.014717,-0.11618,-0.090521,0.22682,0.12418
1134,0.036804,0.1271,0.030633,-0.065835,-0.084999,0.27651,0.14496
1135,0.029333,0.11931,0.048497,-0.034654,-0.079152,0.34829,0.14984
1136,0.016666,0.10989,0.061814,-0.038227,-0.070058,0.42105,0.13977
1137,0.00042559,0.10436,0.065712,-0.083375,-0.056416,0.4675,0.11313
1138,-0.018738,0.10404,0.062789,-0.15905,-0.044723,0.45938,0.072208
1139,-0.038227,0.10664,0.056617,-0.2539,-0.047646,0.37265,0.023487
1140,-0.052843,0.10859,0.049472,-0.35361,-0.072331,0.20051,-0.027833
1141,-0.059989,0.11021,0.041027,-0.44099,-0.11001,-0.034004,-0.071032
1142,-0.059989,0.11021,0.033881,-0.5027,-0.15158,-0.2932,-0.10156
1143,-0.058365,0.10729,0.030308,-0.52771,-0.18471,-0.53778,-0.11651
1144,-0.05804,0.096893,0.030633,-0.5105,-0.19868,-0.73072,-0.11813
1145,-0.054467,0.080978,0.030633,-0.45398,-0.18212,-0.83173,-0.10514
1146,-0.0405,0.066037,0.026735,-0.36953,-0.12852,-0.78626,-0.077528
1147,-0.01614,0.060515,0.01764,-0.27306,-0.041475,-0.56117,-0.038227
1148,0.011794,0.060515,0.0036737,-0.18309,0.061165,-0.18601,0.0049729
1149,0.031607,0.059865,-0.015815,-0.11228,0.15601,0.24436,0.039727
1150,0.036479,0.055643,-0.040825,-0.062587,0.22324,0.59093,0.055968
1151,0.030308,0.045574,-0.067459,-0.02361,0.2541,0.74781,0.051096
1152,0.019264,0.031607,-0.084024,0.016666,0.25053,0.67473,0.029333
1153,0.012768,0.020239,-0.0837,0.063113,0.22812,0.39149,-0.0037969
1154,0.013418,0.01829,-0.067134,0.11606,0.20765,-0.035628,-0.041475
1155,0.021213,0.02706,-0.043748,0.17387,0.19986,-0.51569,-0.082076
1156,0.033556,0.039402,-0.021012,0.23689,0.20895,-0.98212,-0.12495
1157,0.051096,0.047523,-0.0054209,0.30802,0.23851,-1.4044,-0.17302
1158,0.066686,0.047847,-0.00087364,0.38013,0.28593,-1.7717,-0.22954
1159,0.072208,0.046548,-0.0054209,0.44216,0.3379,-2.0813,-0.29417
1160,0.067011,0.051096,-0.011592,0.49511,0.3759,-2.3255,-0.35816
1161,0.058891,0.066037,-0.0093186,0.5539,0.38727,-2.4808,-0.40948
1162,0.056292,0.091372,0.0078962,0.64062,0.37428,-2.525,-0.43384
1163,0.063113,0.12905,0.037454,0.75268,0.34537,-2.447,-0.4202
1164,0.077405,0.17322,0.073507,0.85824,0.30964,-2.2573,-0.37018
1165,0.093645,0.21935,0.10696,0.91216,0.27716,-1.9812,-0.29385
1166,0.10826,0.2567,0.1349,0.88715,0.25345,-1.6489,-0.20908
1167,0.12093,0.27651,0.15601,0.78841,0.23786,-1.2858,-0.12852
1168,0.12645,0.27651,0.16738,0.64452,0.21902,-0.92495,-0.060963
1169,0.11963,0.26255,0.1703,0.49153,0.19109,-0.60079,-0.0096434
1170,0.10079,0.23396,0.16543,0.35836,0.15016,-0.33543,0.026085
1171,0.071883,0.18881,0.15763,0.258,0.10501,-0.14087,0.048497
1172,0.036479,0.131,0.14529,0.19011,0.064088,-0.0034721,0.060515
1173,0.0069217,0.071883,0.12613,0.14009,0.034206,0.10761,0.063763
1174,-0.007045,0.022188,0.10079,0.087149,0.016666,0.22032,0.065387
1175,-0.0015233,-0.020362,0.073832,0.01764,0.009845,0.34764,0.06961
1176,0.016666,-0.067134,0.054668,-0.064211,0.0033489,0.48894,0.078055
1177,0.038103,-0.12755,0.048172,-0.13924,-0.0080194,0.64907,0.089423
1178,0.054993,-0.19966,0.052395,-0.18829,-0.01614,0.84168,0.10631
1179,0.064737,-0.26754,0.064088,-0.21037,0.011794,1.0668,0.12872
1180,0.067011,-0.30847,0.075131,-0.21785,0.10859,1.2772,0.15698
1181,0.068635,-0.30944,0.07773,-0.22077,0.26644,1.3968,0.18492
1182,0.073182,-0.27144,0.070909,-0.22142,0.43339,1.3682,0.19888
1183,0.079029,-0.20972,0.056942,-0.22239,0.54968,1.1798,0.19336
1184,0.07708,-0.14476,0.037454,-0.22564,0.5854,0.87643,0.16608
1185,0.061165,-0.090196,0.013743,-0.23051,0.54188,0.53831,0.1245
1186,0.035505,-0.048945,-0.0093186,-0.23149,0.45451,0.2528,0.080653
1187,0.012119,-0.017439,-0.028807,-0.21979,0.34115,0.081952,0.047523
1188,-0.0041217,0.0056225,-0.044398,-0.18666,0.1768,0.047523,0.023162
1189,-0.012892,0.016666,-0.057715,-0.13664,-0.079802,0.11248,0.0010752
1190,-0.017439,0.019914,-0.062262,-0.076229,-0.41598,0.18264,-0.020037
1191,-0.020687,0.024786,-0.060313,-0.017114,-0.74014,0.1651,-0.039201
1192,-0.025884,0.033231,-0.05804,0.032257,-0.95094,0.025436,-0.054467
1193,-0.031081,0.039078,-0.05804,0.062789,-0.99998,-0.21492,-0.068758
1194,-0.037902,0.031932,-0.061613,0.06896,-0.90384,-0.49393,-0.082076
1195,-0.043748,0.0049729,-0.070058,0.056942,-0.71577,-0.74988,-0.096042
1196,-0.04927,-0.034329,-0.083375,0.041676,-0.5001,-0.94379,-0.11456
1197,-0.056416,-0.073306,-0.097666,0.044275,-0.31561,-1.0695,-0.13794
1198,-0.062587,-0.10091,-0.10741,0.072208,-0.19998,-1.1377,-0.16263
1199,-0.067459,-0.11293,-0.10903,0.11443,-0.15678,-1.1669,-0.18634
1200,-0.071682,-0.10644,-0.10676,0.15114,-0.1688,-1.1695,-0.20518
1201,-0.078503,-0.085324,-0.10059,0.16608,-0.20908,-1.1539,-0.21785
1202,-0.090196,-0.052518,-0.093119,0.15309,-0.25455,-1.1156,-0.22467
1203,-0.10838,-0.012892,-0.084999,0.11703,-0.28995,-1.0445,-0.21752
1204,-0.12333,0.029983,-0.075255,0.072208,-0.30522,-0.93242,-0.18829
1205,-0.1269,0.067661,-0.063886,0.037129,-0.29353,-0.77619,-0.13859
1206,-0.11683,0.090397,-0.048296,0.019264,-0.24188,-0.57513,-0.076554
1207,-0.097017,0.099817,-0.027183,0.016991,-0.14379,-0.33283,-0.017439
1208,-0.077203,0.10729,0.00042559,0.023487,-0.0018481,-0.07493,0.022837
1209,-0.064211,0.12645,0.033231,0.032257,0.16121,0.16803,0.041676
1210,-0.055766,0.16348,0.070584,0.042975,0.30964,0.38045,0.044599
1211,-0.046671,0.21188,0.11118,0.061165,0.41845,0.56819,0.042001
1212,-0.032055,0.2489,0.14399,0.092996,0.48634,0.73969,0.046548
1213,-0.014191,0.25572,0.15926,0.13847,0.50842,0.88747,0.067661
1214,0.003024,0.22454,0.15633,0.18914,0.47075,0.969,0.099167
1215,0.015042,0.16218,0.13684,0.23396,0.34472,0.94139,0.12418
1216,0.01764,0.083901,0.10859,0.25605,0.10761,0.80205,0.1323
1217,0.011469,0.0085458,0.077405,0.24825,-0.21427,0.59125,0.12028
1218,0.0023744,-0.048296,0.045899,0.2148,-0.53778,0.37558,0.094945
1219,-0.0034721,-0.075255,0.026085,0.16965,-0.7632,0.2148,0.06961
1220,-0.0021729,-0.06681,0.02706,0.1232,-0.83693,0.1323,0.058891
1221,0.0072465,-0.022961,0.047523,0.084551,-0.76612,0.12678,0.066362
1222,0.023162,0.038753,0.079029,0.055968,-0.59982,0.1716,0.088448
1223,0.039727,0.092996,0.10306,0.027709,-0.40461,0.24338,0.12288
1224,0.056617,0.11931,0.10534,-0.0083442,-0.23279,0.33628,0.16348
1225,0.07708,0.10664,0.084226,-0.060638,-0.11618,0.47107,0.20473
1226,0.099492,0.06084,0.048172,-0.13275,-0.058689,0.66985,0.2463
1227,0.12418,-0.0024977,0.0036737,-0.22174,-0.038876,0.9336,0.28431
1228,0.14854,-0.062262,-0.043748,-0.32048,-0.031406,1.2123,0.31322
1229,0.16185,-0.10254,-0.088572,-0.41858,-0.027508,1.4224,0.32426
1230,0.15926,-0.1191,-0.1269,-0.51082,-0.025234,1.5014,0.31451
1231,0.14691,-0.11456,-0.15093,-0.59137,-0.024909,1.4413,0.28691
1232,0.13165,-0.092145,-0.15938,-0.66121,-0.028482,1.2841,0.2502
1233,0.11995,-0.057715,-0.15288,-0.72227,-0.034654,1.0937,0.21382
1234,0.11054,-0.0093186,-0.13404,-0.77716,-0.043099,0.9271,0.18102
1235,0.10306,0.053369,-0.10514,-0.82556,-0.050244,0.8027,0.14886
1236,0.10177,0.12353,-0.071682,-0.86064,-0.056416,0.71143,0.11443
1237,0.10761,0.18492,-0.038876,-0.87363,-0.055116,0.626,0.071883
1238,0.11768,0.22324,-0.013541,-0.85512,-0.044073,0.52402,0.021863
1239,0.12158,0.22747,0.00075039,-0.78723,-0.026533,0.3863,-0.029457
1240,0.11313,0.19661,0.0056225,-0.65439,-0.0057458,0.2083,-0.080451
1241,0.09397,0.13522,0.0078962,-0.43157,0.011794,0.0026992,-0.12657
1242,0.069285,0.055318,0.012119,-0.10416,0.027385,-0.2055,-0.1623
1243,0.048497,-0.025234,0.022188,0.2999,0.044599,-0.38447,-0.17984
1244,0.036804,-0.088572,0.042001,0.7202,0.074157,-0.50205,-0.17497
1245,0.033881,-0.12073,0.06896,1.1025,0.12905,-0.53681,-0.14834
1246,0.03453,-0.12235,0.090722,1.3981,0.22097,-0.49718,-0.11001
1247,0.03583,-0.10026,0.098517,1.5605,0.35349,-0.41598,-0.07493
1248,0.038103,-0.063561,0.09462,1.5537,0.51005,-0.3312,-0.056091
1249,0.036479,-0.021012,0.086175,1.3913,0.66076,-0.27274,-0.056416
1250,0.034855,0.015692,0.081627,1.145,0.77217,-0.2565,-0.062912
1251,0.034855,0.039727,0.083901,0.91184,0.82901,-0.27241,-0.063237
1252,0.031282,0.045899,0.087799,0.75008,0.83161,-0.28898,-0.052843
1253,0.025761,0.040052,0.086175,0.65102,0.80043,-0.27826,-0.03303
1254,0.01764,0.027709,0.078055,0.56689,0.74391,-0.23084,-0.0047713
1255,0.0085458,0.012119,0.065062,0.45126,0.63153,-0.1623,0.021213
1256,0.00042559,-0.0034721,0.05142,0.29503,0.41228,-0.097666,0.033881
1257,-0.0099683,-0.022961,0.038103,0.12515,0.10144,-0.056091,0.031282
1258,-0.020687,-0.04927,0.028359,-0.017764,-0.2094,-0.041799,0.020564
1259,-0.025234,-0.086298,0.023812,-0.11228,-0.41143,-0.045047,0.015042
1260,-0.021661,-0.1308,0.02641,-0.16068,-0.45398,-0.059989,0.024786
1261,-0.01549,-0.16912,0.03453,-0.17789,-0.35784,-0.077528,0.044275
1262,-0.012567,-0.19446,0.04395,-0.18179,-0.19381,-0.10449,0.058891
1263,-0.021661,-0.20778,0.048172,-0.18407,-0.04927,-0.15223,0.052395
1264,-0.045697,-0.21914,0.042001,-0.19478,0.0017248,-0.22337,0.01829
1265,-0.081426,-0.23441,0.024137,-0.2146,-0.081101,-0.31074,-0.036278
1266,-0.1178,-0.25292,-0.0031473,-0.24221,-0.27501,-0.39389,-0.094418
1267,-0.14769,-0.27176,-0.034004,-0.27209,-0.49523,-0.45788,-0.14541
1268,-0.16815,-0.28508,-0.062912,-0.29742,-0.64627,-0.4988,-0.18601
1269,-0.18147,-0.28833,-0.084349,-0.31236,-0.68005,-0.51504,-0.2133
1270,-0.18601,-0.27761,-0.10124,-0.31854,-0.60891,-0.50562,-0.22402
1271,-0.18439,-0.25227,-0.11358,-0.31399,-0.47607,-0.47574,-0.2107
1272,-0.17984,-0.21265,-0.11845,-0.2997,-0.32763,-0.43449,-0.16977
1273,-0.17042,-0.15841,-0.11163,-0.28021,-0.20063,-0.40136,-0.10838
1274,-0.15548,-0.093769,-0.090521,-0.26364,-0.11683,-0.40363,-0.043099
1275,-0.13599,-0.034004,-0.063561,-0.2539,-0.085324,-0.45008,0.0033489
1276,-0.11391,0.0078962,-0.036927,-0.25227,-0.10189,-0.52544,0.019264
1277,-0.090845,0.031282,-0.015165,-0.25682,-0.14541,-0.59105,0.0078962
1278,-0.071032,0.04395,0.0072465,-0.25812,-0.18407,-0.59137,-0.0096434
1279,-0.051544,0.055968,0.03518,-0.24643,-0.18699,-0.49815,-0.012567
1280,-0.029782,0.07708,0.067986,-0.22597,-0.13437,-0.3286,-0.0028225
1281,-0.0083442,0.11183,0.10047,-0.2068,-0.030431,-0.13177,0.016341
1282,0.0095202,0.15373,0.1206,-0.19543,0.099492,0.042001,0.044599
1283,0.022188,0.19206,0.12645,-0.19381,0.22422,0.15796,0.084876
1284,0.032257,0.21837,0.11898,-0.19511,0.31289,0.18946,0.13262
1285,0.038103,0.22909,0.10404,-0.19316,0.3379,0.12645,0.17387
1286,0.037454,0.22227,0.084876,-0.19219,0.27294,0.0017248,0.19466
1287,0.028359,0.19888,0.063113,-0.19608,0.12093,-0.088247,0.19011
1288,0.019264,0.16413,0.039078,-0.20096,-0.067784,-0.035628,0.16998
1289,0.018615,0.12872,0.012768,-0.20193,-0.22239,0.17712,0.14496
1290,0.028034,0.10631,-0.011592,-0.19348,-0.28898,0.44411,0.12028
1291,0.037778,0.093645,-0.029782,-0.16815,-0.25,0.61366,0.093321
1292,0.039727,0.087799,-0.038227,-0.1243,-0.13275,0.58378,0.06019
1293,0.030633,0.081952,-0.037902,-0.073306,0.0091954,0.34115,0.019264
1294,0.016341,0.076106,-0.036602,-0.031406,0.12872,-0.057715,-0.028157
1295,0.0017248,0.069934,-0.039851,0.0043233,0.19856,-0.50822,-0.071357
1296,-0.010293,0.054344,-0.046347,0.054668,0.22877,-0.86843,-0.094418
1297,-0.014191,0.021213,-0.046347,0.14756,0.25215,-1.0191,-0.086298
1298,-0.0063954,-0.02361,-0.032705,0.29957,0.29405,-0.95061,-0.050569
1299,0.012443,-0.062912,-0.0031473,0.48796,0.36421,-0.75703,-0.00022403
1300,0.040702,-0.077528,0.038753,0.66336,0.45483,-0.54947,0.050771
1301,0.074482,-0.057715,0.084551,0.77672,0.54578,-0.36336,0.096569
1302,0.10534,-0.007045,0.12223,0.8014,0.61594,-0.14964,0.13295
1303,0.1271,0.064088,0.14302,0.74813,0.64972,0.1362,0.1625
1304,0.14074,0.14139,0.14919,0.64387,0.64127,0.45581,0.18654
1305,0.14951,0.21317,0.14399,0.5146,0.59612,0.70851,0.20538
1306,0.15958,0.26644,0.131,0.38467,0.53343,0.80757,0.22162
1307,0.17062,0.29795,0.11573,0.26579,0.48439,0.74099,0.23591
1308,0.17322,0.31451,0.10436,0.16803,0.46847,0.57598,0.24793
1309,0.1638,0.32783,0.098517,0.09462,0.48569,0.41845,0.2554
1310,0.14626,0.34017,0.096569,0.045574,0.52142,0.34894,0.25897
1311,0.13067,0.34797,0.094945,0.020564,0.55422,0.37688,0.26255
1312,0.12158,0.35122,0.089748,0.017965,0.55292,0.43924,0.27164
1313,0.11606,0.34992,0.084551,0.026085,0.48796,0.45158,0.27976
1314,0.11378,0.3392,0.080328,0.027385,0.33693,0.36583,0.28041
1315,0.10924,0.31322,0.075456,0.0095202,0.099492,0.18979,0.26742
1316,0.10274,0.26969,0.062139,-0.032705,-0.19998,-0.029782,0.24046
1317,0.091047,0.20635,0.037778,-0.086948,-0.504,-0.23668,0.20213
1318,0.073832,0.12937,0.0023744,-0.13567,-0.73689,-0.3848,0.15893
1319,0.05272,0.053044,-0.039851,-0.16718,-0.83888,-0.45755,0.10794
1320,0.027709,-0.013541,-0.085324,-0.17432,-0.79048,-0.46307,0.048822
1321,-0.0031473,-0.06616,-0.1269,-0.15613,-0.6323,-0.42832,-0.020687
1322,-0.039851,-0.097991,-0.15743,-0.11878,-0.43709,-0.38642,-0.094743
1323,-0.077853,-0.11163,-0.1753,-0.079152,-0.27079,-0.35589,-0.1662
1324,-0.10709,-0.10611,-0.17984,-0.058689,-0.1649,-0.33543,-0.22337
1325,-0.1191,-0.083375,-0.17237,-0.064536,-0.12105,-0.30522,-0.2565
1326,-0.11293,-0.046347,-0.15126,-0.087922,-0.12105,-0.24675,-0.25617
1327,-0.09182,-0.0037969,-0.123,-0.11358,-0.13859,-0.14444,-0.22759
1328,-0.063237,0.033881,-0.094418,-0.12527,-0.14606,0.010495,-0.18764
1329,-0.035303,0.06084,-0.069083,-0.11456,-0.1282,0.21025,-0.15451
1330,-0.01549,0.085525,-0.047321,-0.085973,-0.089546,0.41943,-0.13502
1331,-0.0076946,0.11638,-0.029132,-0.054467,-0.043748,0.59352,-0.1334
1332,-0.012567,0.14789,-0.01484,-0.042124,-0.0044465,0.70266,-0.15386
1333,-0.029132,0.16185,-0.0047713,-0.05739,0.022512,0.75138,-0.19381
1334,-0.056091,0.14626,0.0039985,-0.10091,0.045249,0.7686,-0.24123
1335,-0.090521,0.10014,0.014068,-0.15905,0.06961,0.78613,-0.28151
1336,-0.12592,0.03453,0.026735,-0.21687,0.098193,0.82933,-0.2971
1337,-0.15321,-0.034654,0.040052,-0.2578,0.13262,0.90307,-0.28053
1338,-0.15905,-0.096042,0.05207,-0.26916,0.17127,0.99758,-0.22986
1339,-0.14152,-0.14411,0.06084,-0.24383,0.20798,1.0944,-0.15418
1340,-0.10319,-0.17854,0.064413,-0.18309,0.23591,1.186,-0.06616
1341,-0.054792,-0.20031,0.067011,-0.095717,0.25183,1.2737,0.014068
1342,-0.0099683,-0.2068,0.071234,0.0033489,0.25507,1.3419,0.07708
1343,0.022512,-0.19966,0.079029,0.098193,0.24436,1.3542,0.12028
1344,0.036804,-0.18504,0.089098,0.17517,0.21675,1.2643,0.14789
1345,0.035505,-0.17042,0.096244,0.21707,0.17225,1.045,0.16478
1346,0.024461,-0.15548,0.098517,0.21382,0.11346,0.71175,0.17517
1347,0.016016,-0.13567,0.096244,0.169,0.046548,0.31094,0.17972
1348,0.018615,-0.10319,0.095269,0.10144,-0.028807,-0.097991,0.1703
1349,0.033231,-0.065186,0.10047,0.044275,-0.1178,-0.46697,0.14042
1350,0.051096,-0.034329,0.10566,0.030633,-0.22304,-0.76807,0.095919
1351,0.059541,-0.028157,0.10339,0.066686,-0.34257,-0.98309,0.047523
1352,0.050446,-0.053817,0.083901,0.11833,-0.46015,-1.1098,0.0017248
1353,0.029009,-0.10384,0.048822,0.13944,-0.55207,-1.1604,-0.037902
1354,0.0078962,-0.15581,0.011794,0.099167,-0.59754,-1.1484,-0.069083
1355,-0.0018481,-0.18861,-0.01549,0.0036737,-0.59105,-1.0789,-0.086623
1356,-0.0018481,-0.18959,-0.024909,-0.11748,-0.5407,-0.9636,-0.084999
1357,0.0059473,-0.16165,-0.021661,-0.22921,-0.46502,-0.81776,-0.070058
1358,0.014068,-0.12203,-0.015815,-0.30847,-0.38967,-0.67128,-0.055116
1359,0.015692,-0.085973,-0.008669,-0.34809,-0.33315,-0.55694,-0.049595
1360,0.009845,-0.062262,-0.0018481,-0.34679,-0.2984,-0.49426,-0.054792
1361,0.00042559,-0.047646,0.0033489,-0.31496,-0.27988,-0.47672,-0.062587
1362,-0.0076946,-0.035628,0.0059473,-0.25877,-0.26884,-0.47412,-0.061288
1363,-0.0099683,-0.013866,0.0069217,-0.17205,-0.2591,-0.46243,-0.042124
1364,-0.0089938,0.015367,0.008221,-0.05739,-0.24578,-0.43904,-0.0054209
1365,-0.0057458,0.048172,0.0095202,0.061489,-0.22402,-0.40623,0.040377
1366,0.0020496,0.080653,0.014392,0.14919,-0.19478,-0.36044,0.084876
1367,0.020564,0.10924,0.020239,0.17712,-0.15353,-0.2971,0.12483
1368,0.05142,0.13457,0.024786,0.14561,-0.096042,-0.21687,0.15373
1369,0.087474,0.15666,0.026735,0.076431,-0.019712,-0.13924,0.1664
1370,0.11833,0.17387,0.022188,-0.0031473,0.071883,-0.088247,0.15861
1371,0.13555,0.18134,0.0088706,-0.065186,0.16868,-0.079152,0.13132
1372,0.1362,0.17712,-0.014191,-0.10059,0.26287,-0.10611,0.087149
1373,0.12255,0.16121,-0.045372,-0.10903,0.34472,-0.15483,0.037778
1374,0.10306,0.13782,-0.075255,-0.098641,0.40838,-0.20908,-0.0063954
1375,0.082927,0.11443,-0.093769,-0.076879,0.44963,-0.26494,-0.035953
1376,0.062139,0.095594,-0.09929,-0.050569,0.47237,-0.33218,-0.051219
1377,0.046548,0.082277,-0.095393,-0.019063,0.48829,-0.42085,-0.061288
1378,0.040052,0.072533,-0.082076,0.018615,0.50095,-0.53096,-0.075579
1379,0.0433,0.061165,-0.063886,0.062464,0.49965,-0.65536,-0.097017
1380,0.05272,0.044924,-0.051544,0.10501,0.44898,-0.78269,-0.12398
1381,0.061165,0.023487,-0.051219,0.13749,0.33823,-0.89572,-0.14801
1382,0.062464,-0.0018481,-0.059014,0.15633,0.19174,-0.97562,-0.16295
1383,0.063113,-0.023285,-0.070058,0.1664,0.05272,-1.0107,-0.16393
1384,0.066686,-0.034329,-0.079152,0.17452,-0.057715,-0.99966,-0.15223
1385,0.070259,-0.029457,-0.080451,0.17939,-0.13924,-0.94996,-0.13859
1386,0.063438,-0.011592,-0.071032,0.17615,-0.19706,-0.85837,-0.1256
1387,0.043625,0.0065969,-0.056416,0.15568,-0.23441,-0.707,-0.11358
1388,0.014068,0.016016,-0.044398,0.11281,-0.25162,-0.50205,-0.09994
1389,-0.013216,0.012768,-0.040175,0.057267,-0.2526,-0.27826,-0.086298
1390,-0.034004,-0.0037969,-0.046022,0.0069217,-0.24578,-0.092145,-0.072006
1391,-0.045372,-0.024909,-0.056091,-0.024909,-0.23798,-0.0047713,-0.05804
1392,-0.047971,-0.041799,-0.061613,-0.036602,-0.23798,-0.065835,-0.051219
1393,-0.044723,-0.047971,-0.053817,-0.030431,-0.24513,-0.26722,-0.055766
1394,-0.036602,-0.040825,-0.032705,-0.008669,-0.25098,-0.53486,-0.067134
1395,-0.020037,-0.030106,-0.0057458,0.025436,-0.24448,-0.75832,-0.073955
1396,0.0052977,-0.021661,0.01829,0.067661,-0.22142,-0.83855,-0.067784
1397,0.034855,-0.014516,0.03453,0.10989,-0.18082,-0.71642,-0.045372
1398,0.062464,-0.0047713,0.04395,0.13814,-0.13404,-0.38934,-0.017114
1399,0.079679,0.0056225,0.05207,0.14561,-0.093119,0.077405,0.010819
1400,0.079679,0.010495,0.062139,0.13522,-0.063886,0.56332,0.039402
1401,0.065062,0.0043233,0.072858,0.11638,-0.042124,0.93879,0.070909
1402,0.047847,-0.010943,0.080653,0.099492,-0.021986,1.1197,0.10242
1403,0.041676,-0.027833,0.081952,0.091696,-0.0050961,1.1057,0.12937
1404,0.053044,-0.035303,0.080328,0.10079,-0.00087364,0.97972,0.14269
1405,0.075781,-0.03173,0.07708,0.11671,-0.016464,0.85564,0.13879
1406,0.098193,-0.025234,0.073507,0.1271,-0.047971,0.83031,0.12548
1407,0.10729,-0.019712,0.067336,0.12548,-0.085648,0.95341,0.11508
1408,0.098842,-0.016789,0.059865,0.10956,-0.1191,1.2292,0.11541
1409,0.078704,-0.01614,0.052395,0.089098,-0.13989,1.6323,0.13132
1410,0.058891,-0.012567,0.042975,0.075781,-0.14119,2.1049,0.16315
1411,0.047523,-0.0015233,0.03453,0.078704,-0.12333,2.5615,0.21058
1412,0.046223,0.014717,0.030957,0.090072,-0.091495,2.8886,0.26709
1413,0.054344,0.028684,0.032906,0.10144,-0.051868,2.9841,0.31809
1414,0.065712,0.030633,0.034855,0.10696,-0.016464,2.8016,0.34829
1415,0.073507,0.014717,0.029009,0.10924,0.009845,2.3861,0.34505
1416,0.072858,-0.017439,0.011144,0.10859,0.028684,1.859,0.31192
1417,0.061814,-0.059664,-0.014191,0.10501,0.042651,1.3532,0.26449
1418,0.040377,-0.10449,-0.042449,0.095919,0.05142,0.96121,0.22227
1419,0.014068,-0.14346,-0.069733,0.078379,0.053694,0.71078,0.19239
1420,-0.015165,-0.1714,-0.093119,0.048172,0.046873,0.56786,0.1768
1421,-0.046996,-0.18439,-0.11358,0.0052977,0.025761,0.46815,0.16315
1422,-0.077203,-0.18049,-0.12592,-0.048296,0.0026992,0.35966,0.13814
1423,-0.10351,-0.15905,-0.12657,-0.10676,0.0023744,0.23071,0.096244
1424,-0.12333,-0.12463,-0.11878,-0.16133,0.054993,0.10209,0.044924
1425,-0.13664,-0.084024,-0.11196,-0.20193,0.18102,0.0039985,-0.0041217
1426,-0.14606,-0.045697,-0.10449,-0.22694,0.38565,-0.052193,-0.044073
1427,-0.15029,-0.012892,-0.092469,-0.23668,0.65296,-0.080451,-0.07493
1428,-0.15191,0.014717,-0.072981,-0.23409,0.94919,-0.10903,-0.097991
1429,-0.14964,0.040702,-0.04862,-0.21752,1.2165,-0.16003,-0.11131
1430,-0.13794,0.068635,-0.022311,-0.19121,1.3984,-0.24091,-0.11228
1431,-0.11228,0.092671,0.0043233,-0.16295,1.4556,-0.34582,-0.10059
1432,-0.073631,0.10989,0.029983,-0.13957,1.3825,-0.45495,-0.081751
1433,-0.032705,0.11736,0.051096,-0.1256,1.1827,-0.55207,-0.068758
1434,-0.0067202,0.11216,0.062464,-0.1256,0.84493,-0.63782,-0.072981
1435,-0.0024977,0.092996,0.058891,-0.14736,0.35739,-0.72292,-0.10124
1436,-0.019712,0.062139,0.039727,-0.19056,-0.24773,-0.81582,-0.14606
1437,-0.043748,0.02641,0.011144,-0.25455,-0.8785,-0.90871,-0.19056
1438,-0.062262,-0.0073698,-0.021337,-0.32211,-1.4115,-0.9766,-0.22109
1439,-0.069083,-0.036927,-0.051219,-0.37798,-1.7366,-0.97887,-0.23376
1440,-0.065835,-0.057715,-0.072656,-0.40266,-1.7896,-0.8902,-0.22986
1441,-0.056091,-0.067134,-0.084349,-0.3848,-1.5833,-0.72519,-0.21102
1442,-0.042449,-0.064211,-0.084349,-0.31756,-1.2069,-0.51764,-0.17789
1443,-0.030431,-0.048296,-0.072981,-0.18601,-0.78301,-0.28898,-0.13275
1444,-0.018738,-0.024909,-0.056416,0.021538,-0.41565,-0.068109,-0.082076
1445,-0.0063954,-0.0028225,-0.036602,0.28658,-0.16068,0.09462,-0.037902
1446,0.00075039,0.01017,-0.017114,0.53733,-0.025559,0.15114,-0.012892
1447,-0.00054884,0.012768,-0.0047713,0.68999,0.015367,0.078379,-0.0054209
1448,-0.0076946,0.011144,-0.00054884,0.69324,0.0062721,-0.095717,-0.0041217
1449,-0.021012,0.011794,0.00042559,0.57111,-0.014516,-0.30554,-0.0034721
1450,-0.035953,0.011144,0.00010078,0.40384,-0.021661,-0.47607,-0.00054884
1451,-0.049595,0.0095202,-0.0021729,0.28561,-0.0044465,-0.55142,0.0046481
1452,-0.061613,0.0091954,-0.0018481,0.29308,0.045249,-0.5092,0.012119
1453,-0.072656,0.013418,0.0056225,0.44184,0.13262,-0.35979,0.021863
1454,-0.079477,0.025111,0.023812,0.66823,0.25443,-0.14379,0.036154
1455,-0.079477,0.046548,0.052395,0.86799,0.39572,0.077405,0.054668
1456,-0.068758,0.076755,0.089423,0.95568,0.53928,0.24793,0.081627
1457,-0.04992,0.10956,0.1258,0.90209,0.66726,0.33725,0.11638
1458,-0.029782,0.13814,0.15016,0.74261,0.76437,0.35122,0.15861
1459,-0.012242,0.15861,0.15893,0.54058,0.82674,0.33433,0.2044
1460,0.0014,0.1716,0.15633,0.35609,0.84395,0.32751,0.2489
1461,0.013418,0.18199,0.14756,0.22032,0.80238,0.32946,0.28723
1462,0.024461,0.19044,0.13912,0.12418,0.67895,0.29048,0.31094
1463,0.029333,0.19466,0.13425,0.045574,0.4571,0.15276,0.30899
1464,0.023812,0.18946,0.13132,-0.027508,0.16608,-0.10676,0.27716
1465,0.013418,0.18102,0.12937,-0.091495,-0.10579,-0.46275,0.22194
1466,0.0078962,0.17517,0.12678,-0.13372,-0.25715,-0.84505,0.15796
1467,0.011794,0.1742,0.12678,-0.13989,-0.23993,-1.1721,0.10566
1468,0.026735,0.17842,0.13684,-0.10579,-0.075579,-1.3787,0.076106
1469,0.049796,0.18654,0.15861,-0.050569,0.16185,-1.4424,0.062789
1470,0.07773,0.19986,0.18492,-0.0047713,0.39052,-1.4001,0.050446
1471,0.10924,0.21577,0.20408,0.00010078,0.5461,-1.3261,0.023487
1472,0.13977,0.22617,0.2083,-0.047646,0.57891,-1.2897,-0.024585
1473,0.16056,0.22065,0.19531,-0.13859,0.43112,-1.3235,-0.090196
1474,0.16315,0.19466,0.1664,-0.24026,0.073182,-1.4125,-0.16328
1475,0.15179,0.15244,0.1258,-0.32373,-0.41338,-1.5213,-0.23376
1476,0.13457,0.10664,0.083576,-0.37343,-0.86616,-1.6171,-0.29385
1477,0.11898,0.071234,0.045574,-0.3835,-1.1468,-1.6879,-0.3429
1478,0.10729,0.05142,0.017316,-0.36563,-1.2053,-1.7337,-0.38187
1479,0.097543,0.044275,-0.00054884,-0.3351,-1.0841,-1.7665,-0.41143
1480,0.089423,0.045249,-0.011267,-0.30294,-0.87006,-1.7854,-0.42442
1481,0.083251,0.046548,-0.017764,-0.28053,-0.64529,-1.7779,-0.4176
1482,0.080978,0.046223,-0.021012,-0.27241,-0.45788,-1.723,-0.39129
1483,0.082602,0.039402,-0.023285,-0.27664,-0.301,-1.597,-0.34452
1484,0.087149,0.026735,-0.026209,-0.28053,-0.13112,-1.3651,-0.27404
1485,0.092021,0.012768,-0.025559,-0.27339,0.083576,-0.99349,-0.18049
1486,0.091696,0.0020496,-0.02361,-0.25422,0.32621,-0.5001,-0.079802
1487,0.082277,-0.0093186,-0.02361,-0.22661,0.5461,0.024461,0.011144
1488,0.065387,-0.029132,-0.028807,-0.19706,0.68902,0.45451,0.081952
1489,0.049796,-0.055116,-0.036927,-0.17075,0.72052,0.70721,0.13002
1490,0.04395,-0.076229,-0.049595,-0.15483,0.64939,0.77769,0.15893
1491,0.048822,-0.086623,-0.065186,-0.15093,0.50063,0.72637,0.17192
1492,0.057267,-0.089221,-0.08305,-0.15548,0.28203,0.6338,0.1651
1493,0.057267,-0.093769,-0.09994,-0.16815,-0.025234,0.56397,0.14432
1494,0.040377,-0.10286,-0.11715,-0.19283,-0.41825,0.5461,0.12288
1495,0.0085458,-0.11748,-0.1334,-0.23214,-0.81906,0.58151,0.10501
1496,-0.027508,-0.13567,-0.14671,-0.28183,-1.1072,0.64127,0.089423
1497,-0.058689,-0.14704,-0.15808,-0.3312,-1.1991,0.69551,0.076106
1498,-0.072006,-0.14119,-0.1649,-0.37148,-1.0932,0.73092,0.067661
1499,-0.06551,-0.1178,-0.1597,-0.39194,-0.85609,0.74683,0.06831
1500,-0.04862,-0.0837,-0.13892,-0.3757,-0.58423,0.74229,0.072858
1501,-0.031081,-0.050569,-0.10709,-0.30977,-0.35946,0.72085,0.071558
1502,-0.01549,-0.024585,-0.075255,-0.20323,-0.22434,0.68772,0.053369
1503,-0.00087364,-0.007045,-0.054142,-0.086948,-0.1727,0.64874,0.014392
1504,0.012443,0.0020496,-0.051219,0.0052977,-0.16328,0.60684,-0.034004
1505,0.025111,-0.00022403,-0.06681,0.060515,-0.15126,0.57339,-0.076879
1506,0.038103,-0.021337,-0.090521,0.089748,-0.10741,0.56299,-0.10091
1507,0.050771,-0.060313,-0.10968,0.12353,-0.024909,0.5906,-0.10416
1508,0.058891,-0.11131,-0.11423,0.20181,0.078379,0.64777,-0.097341
1509,0.056292,-0.16165,-0.10221,0.35479,0.1781,0.69811,-0.086623
1510,0.04395,-0.19543,-0.076229,0.57988,0.25702,0.70201,-0.070058
1511,0.025761,-0.19998,-0.044723,0.84395,0.31386,0.6783,-0.042124
1512,0.012443,-0.16718,-0.012242,1.0892,0.35544,0.73417,-0.0041217
1513,0.0085458,-0.10189,0.01764,1.2454,0.38792,0.98297,0.039727
1514,0.012443,-0.022636,0.046873,1.2584,0.41163,1.4078,0.0852
1515,0.021863,0.053369,0.071558,1.122,0.43339,1.8642,0.13457
1516,0.031607,0.11573,0.090722,0.87935,0.46068,2.19,0.19466
1517,0.040377,0.15926,0.10469,0.59905,0.49673,2.3095,0.26255
1518,0.050446,0.18329,0.11411,0.35317,0.53246,2.2478,0.32816
1519,0.062139,0.19174,0.11703,0.18134,0.55585,2.0808,0.37785
1520,0.072533,0.19044,0.11541,0.085525,0.55715,1.8859,0.40026
1521,0.072533,0.18199,0.10826,0.036804,0.53343,1.717,0.39019
1522,0.061489,0.16868,0.097543,0.0056225,0.48439,1.6128,0.35544
1523,0.037778,0.15633,0.079354,-0.023285,0.41748,1.5975,0.31419
1524,0.0056225,0.14464,0.055318,-0.050894,0.35349,1.6758,0.28561
1525,-0.026533,0.12743,0.033556,-0.07493,0.31127,1.8206,0.27716
1526,-0.044723,0.10177,0.023162,-0.093119,0.30542,1.9619,0.28463
1527,-0.044723,0.072208,0.024786,-0.10319,0.33952,2.0214,0.29827
1528,-0.033354,0.040377,0.032906,-0.10936,0.40643,1.936,0.30607
1529,-0.025884,0.0095202,0.039078,-0.11358,0.48147,1.6897,0.29665
1530,-0.029132,-0.017439,0.038428,-0.10903,0.53961,1.3136,0.26287
1531,-0.042774,-0.034978,0.030957,-0.088572,0.55325,0.86734,0.21058
1532,-0.058689,-0.045697,0.020239,-0.05804,0.5042,0.42332,0.14691
1533,-0.07428,-0.049595,0.0072465,-0.025559,0.39279,0.053369,0.081303
1534,-0.087272,-0.046996,-0.0024977,-0.0063954,0.23624,-0.19673,0.016016
1535,-0.091495,-0.040175,-0.007045,-0.012892,0.054668,-0.3338,-0.042124
1536,-0.086298,-0.034329,-0.010618,-0.043099,-0.14866,-0.41078,-0.086948
1537,-0.07493,-0.032055,-0.013541,-0.086948,-0.37505,-0.49198,-0.11261
1538,-0.065186,-0.03173,-0.014191,-0.13437,-0.59332,-0.62288,-0.12235
1539,-0.057065,-0.027833,-0.010618,-0.17302,-0.73429,-0.80899,-0.11813
1540,-0.050244,-0.015815,-0.0024977,-0.18894,-0.73429,-1.0208,-0.10903
1541,-0.044398,0.0017248,0.0075714,-0.16815,-0.56864,-1.2144,-0.10806
1542,-0.038227,0.021863,0.019914,-0.091495,-0.27793,-1.3612,-0.12138
1543,-0.035628,0.039727,0.037129,0.057267,0.06084,-1.4554,-0.14801
1544,-0.034004,0.045899,0.06084,0.25767,0.36356,-1.5099,-0.17562
1545,-0.030756,0.026735,0.087149,0.45093,0.58216,-1.5434,-0.19576
1546,-0.024909,-0.029132,0.10566,0.56559,0.70428,-1.5765,-0.21005
1547,-0.01614,-0.11715,0.10989,0.5565,0.72832,-1.6369,-0.22402
1548,-0.0031473,-0.2159,0.095594,0.42885,0.65231,-1.747,-0.24123
1549,0.014717,-0.30067,0.067661,0.23429,0.44346,-1.913,-0.26494
1550,0.031607,-0.35621,0.030308,0.031932,0.057917,-2.1128,-0.29385
1551,0.042651,-0.3757,-0.013541,-0.12917,-0.49133,-2.2999,-0.32406
1552,0.047523,-0.35751,-0.056091,-0.23246,-1.0802,-2.4174,-0.34062
1553,0.048822,-0.30132,-0.087272,-0.27858,-1.5375,-2.4187,-0.33478
1554,0.05142,-0.21557,-0.10124,-0.28118,-1.723,-2.2882,-0.30359
1555,0.054344,-0.11163,-0.10254,-0.26462,-1.6096,-2.0478,-0.25162
1556,0.057917,-0.0044465,-0.098641,-0.24708,-1.2832,-1.7474,-0.18796
1557,0.060515,0.095594,-0.092794,-0.23409,-0.88045,-1.4352,-0.12852
1558,0.064413,0.17907,-0.082076,-0.22337,-0.52446,-1.15,-0.079477
1559,0.072533,0.24436,-0.059014,-0.21655,-0.28053,-0.91066,-0.043423
1560,0.08585,0.2973,-0.021012,-0.21102,-0.14574,-0.71513,-0.013541
1561,0.10014,0.3405,0.022188,-0.20518,-0.079802,-0.55889,0.011794
1562,0.11248,0.37883,0.062789,-0.19901,-0.039526,-0.43319,0.029009
1563,0.12288,0.41553,0.09397,-0.19576,-0.0021729,-0.32666,0.036154
1564,0.13197,0.45093,0.10924,-0.19901,0.040052,-0.23116,0.033881
1565,0.13652,0.47692,0.10924,-0.21037,0.080653,-0.13989,0.031282
1566,0.1349,0.47692,0.097218,-0.22824,0.11281,-0.053817,0.038103
1567,0.12515,0.43729,0.076106,-0.25065,0.13002,0.019264,0.053369
1568,0.10306,0.35869,0.045899,-0.27436,0.13457,0.076106,0.067661
1569,0.069285,0.26125,0.0072465,-0.29905,0.12743,0.12353,0.076106
1570,0.029009,0.1703,-0.030106,-0.31626,0.1206,0.17387,0.083251
1571,-0.0089938,0.10729,-0.052518,-0.31074,0.12807,0.23851,0.096569
1572,-0.039201,0.07773,-0.055116,-0.27761,0.16056,0.32653,0.12093
1573,-0.055116,0.074157,-0.039201,-0.21395,0.21805,0.43242,0.14821
1574,-0.051544,0.082277,-0.0093186,-0.12852,0.29373,0.53961,0.1729
1575,-0.034329,0.091696,0.030308,-0.035953,0.37201,0.62958,0.18557
1576,-0.015815,0.092346,0.067661,0.047847,0.43404,0.68382,0.1781
1577,-0.008669,0.084551,0.093645,0.10729,0.46425,0.68934,0.15211
1578,-0.020362,0.069934,0.10306,0.13067,0.46425,0.64842,0.11638
1579,-0.046347,0.055643,0.096893,0.11476,0.43957,0.57533,0.084551
1580,-0.076229,0.050121,0.083251,0.069285,0.40156,0.5003,0.073507
1581,-0.093769,0.05272,0.069285,0.014392,0.36356,0.45808,0.092996
1582,-0.092469,0.055643,0.058891,-0.025234,0.3314,0.45646,0.1362
1583,-0.07493,0.050121,0.055318,-0.034329,0.30704,0.48536,0.18687
1584,-0.049595,0.032906,0.057917,-0.015815,0.28788,0.52077,0.23071
1585,-0.023935,0.009845,0.062139,0.0088706,0.26255,0.54675,0.26027
1586,-0.0028225,-0.010618,0.065712,0.014717,0.22357,0.55162,0.27359
1587,0.012119,-0.024909,0.067011,-0.0073698,0.16608,0.52661,0.27294
1588,0.022188,-0.034329,0.064088,-0.052518,0.09397,0.46425,0.26092
1589,0.025436,-0.048945,0.054019,-0.11261,0.014717,0.37071,0.23721
1590,0.020239,-0.075579,0.032906,-0.17562,-0.056416,0.25865,0.2044
1591,0.0069217,-0.11391,0.0046481,-0.23116,-0.11131,0.14204,0.16445
1592,-0.014516,-0.15678,-0.021661,-0.26851,-0.14639,0.034206,0.11606
1593,-0.036602,-0.19121,-0.033679,-0.28281,-0.15905,-0.04862,0.061165
1594,-0.057065,-0.2094,-0.029132,-0.27501,-0.14249,-0.080776,0.0065969
1595,-0.077853,-0.20745,-0.011592,-0.24578,-0.094093,-0.030431,-0.042449
1596,-0.098316,-0.18861,0.012768,-0.19933,-0.018413,0.11151,-0.085648
1597,-0.11391,-0.161,0.040052,-0.14444,0.064737,0.30802,-0.11748
1598,-0.12105,-0.13112,0.06019,-0.089546,0.12937,0.49056,-0.13632
1599,-0.11586,-0.10416,0.070259,-0.043099,0.15731,0.59255,-0.14119
1600,-0.09994,-0.080451,0.06831,-0.011592,0.14951,0.58508,-0.13567
1601,-0.080776,-0.059664,0.056617,0.0049729,0.11151,0.48504,-0.1243
1602,-0.068434,-0.041799,0.036154,0.0091954,0.044599,0.3457,-0.11586
1603,-0.067134,-0.024909,0.012443,0.01017,-0.061613,0.22877,-0.11326
1604,-0.074605,-0.0083442,-0.0080194,0.012443,-0.21232,0.16705,-0.11813
1605,-0.082076,0.011144,-0.022961,0.018615,-0.37603,0.15828,-0.12592
1606,-0.084674,0.032906,-0.029457,0.025111,-0.49588,0.1677,-0.12852
1607,-0.079477,0.05272,-0.027183,0.028034,-0.52934,0.15536,-0.1217
1608,-0.073955,0.063438,-0.019388,0.027709,-0.47119,0.097868,-0.10838
1609,-0.073306,0.055968,-0.0067202,0.024137,-0.35134,-0.00022403,-0.096692
1610,-0.078503,0.032906,0.011469,0.010495,-0.2107,-0.12138,-0.086623
1611,-0.082076,0.0017248,0.030308,-0.012892,-0.077528,-0.25162,-0.070382
1612,-0.076554,-0.029782,0.041027,-0.038551,0.024461,-0.39259,-0.041799
1613,-0.059989,-0.059664,0.039402,-0.060638,0.089098,-0.54265,-0.0041217
1614,-0.03173,-0.09117,0.024786,-0.073306,0.1232,-0.67712,0.039727
1615,0.0033489,-0.12625,0.0036737,-0.071357,0.13132,-0.75962,0.089098
1616,0.041676,-0.16198,-0.018413,-0.053492,0.11995,-0.77164,0.13814
1617,0.075456,-0.19251,-0.034329,-0.013866,0.10144,-0.72,0.18102
1618,0.10404,-0.21102,-0.042449,0.053694,0.091047,-0.61541,0.21415
1619,0.12255,-0.21622,-0.042124,0.15536,0.10274,-0.45983,0.23169
1620,0.12905,-0.20972,-0.03303,0.31062,0.13587,-0.23571,0.22974
1621,0.12515,-0.19154,-0.019063,0.53701,0.18037,0.078704,0.21577
1622,0.11281,-0.16718,-0.0021729,0.81179,0.22487,0.47822,0.19921
1623,0.097218,-0.14281,0.017316,1.0599,0.2606,0.931,0.18362
1624,0.08585,-0.11813,0.03453,1.1889,0.28268,1.3766,0.16315
1625,0.078055,-0.092794,0.044275,1.1512,0.29113,1.7297,0.13587
1626,0.069285,-0.06616,0.049472,0.96445,0.28821,1.9002,0.10794
1627,0.054993,-0.045047,0.05272,0.69584,0.27554,1.8366,0.080653
1628,0.037129,-0.041799,0.05142,0.41943,0.25962,1.5569,0.05207
1629,0.024137,-0.055766,0.047198,0.18816,0.2463,1.1447,0.020888
1630,0.021213,-0.079152,0.042975,0.023487,0.24436,0.71663,-0.013541
1631,0.026085,-0.09994,0.043625,-0.078827,0.26287,0.37753,-0.050569
1632,0.032582,-0.10871,0.050446,-0.13372,0.30737,0.17842,-0.087922
1633,0.03518,-0.10059,0.061165,-0.15581,0.37298,0.11183,-0.12755
1634,0.034206,-0.074605,0.07708,-0.15418,0.43762,0.1284,-0.16977
1635,0.027385,-0.037252,0.095594,-0.14119,0.46555,0.16056,-0.2172
1636,0.016016,0.0033489,0.11313,-0.13112,0.40968,0.14659,-0.26916
1637,0.0026992,0.039727,0.12223,-0.13729,0.2489,0.053694,-0.31269
1638,-0.010293,0.075781,0.11573,-0.1623,-0.0054209,-0.11293,-0.3325
1639,-0.018738,0.11411,0.092021,-0.2042,-0.31106,-0.31626,-0.31886
1640,-0.021012,0.15211,0.055318,-0.25357,-0.61086,-0.49978,-0.27306
1641,-0.017114,0.18492,0.015367,-0.2997,-0.83368,-0.60631,-0.20843
1642,-0.012567,0.20895,-0.020037,-0.3325,-0.92333,-0.60339,-0.14606
1643,-0.010293,0.22292,-0.045372,-0.34842,-0.86876,-0.5014,-0.098965
1644,-0.0063954,0.22357,-0.063561,-0.35426,-0.71123,-0.36271,-0.069733
1645,0.0039985,0.2135,-0.076229,-0.34679,-0.51439,-0.26267,-0.050244
1646,0.019589,0.19174,-0.090196,-0.32893,-0.33055,-0.23474,-0.036278
1647,0.042326,0.16575,-0.10449,-0.2984,-0.19413,-0.26072,-0.027183
1648,0.06896,0.14074,-0.11293,-0.25617,-0.11715,-0.2919,-0.021012
1649,0.094945,0.11638,-0.11488,-0.19901,-0.087272,-0.2984,-0.01614
1650,0.11054,0.089098,-0.11066,-0.11878,-0.085324,-0.28508,-0.019063
1651,0.11411,0.064088,-0.10156,-0.010618,-0.090521,-0.28248,-0.034654
1652,0.10534,0.044275,-0.09182,0.10566,-0.094418,-0.30132,-0.065835
1653,0.086175,0.023812,-0.088896,0.19758,-0.091495,-0.33153,-0.10903
1654,0.058891,-0.0028225,-0.097341,0.23039,-0.089546,-0.35361,-0.15158
1655,0.029009,-0.03173,-0.11391,0.19336,-0.09182,-0.34614,-0.18049
1656,-0.0031473,-0.054467,-0.1256,0.098517,-0.10091,-0.30002,-0.18894
1657,-0.026858,-0.062262,-0.12235,-0.02426,-0.11131,-0.21687,-0.17952
1658,-0.033354,-0.050894,-0.10254,-0.14379,-0.11813,-0.10416,-0.15873
1659,-0.024585,-0.02426,-0.069408,-0.23538,-0.12138,0.03518,-0.13404
1660,-0.0099683,0.009845,-0.032705,-0.2906,-0.11878,0.19174,-0.10838
1661,0.011469,0.043625,-0.0024977,-0.31204,-0.11066,0.347,-0.084674
1662,0.039078,0.06896,0.019264,-0.30782,-0.10124,0.46035,-0.059989
1663,0.067661,0.082277,0.036479,-0.28768,-0.092145,0.48634,-0.024585
1664,0.095919,0.092671,0.054668,-0.25877,-0.084674,0.40156,0.022512
1665,0.12028,0.10631,0.076106,-0.22499,-0.077853,0.22974,0.07708
1666,0.13425,0.1232,0.10014,-0.18049,-0.067459,0.026735,0.1271
1667,0.13392,0.14074,0.12288,-0.11943,-0.052518,-0.15841,0.15828
1668,0.12288,0.15471,0.13814,-0.031406,-0.038551,-0.2919,0.16575
1669,0.10534,0.15796,0.14626,0.10209,-0.03173,-0.35849,0.15081
1670,0.084876,0.15211,0.14724,0.30412,-0.035628,-0.36531,0.13002
1671,0.066362,0.14399,0.14302,0.56137,-0.048296,-0.3338,0.11281
1672,0.054993,0.14269,0.13717,0.81342,-0.061937,-0.288,0.10599
1673,0.054668,0.15114,0.1297,0.97257,-0.063237,-0.23766,0.11118
1674,0.066362,0.16218,0.1219,0.97972,-0.041799,-0.18699,0.12255
1675,0.084226,0.16738,0.11313,0.8368,0.0023744,-0.13567,0.1336
1676,0.10047,0.15958,0.10274,0.59807,0.062464,-0.098965,0.13587
1677,0.10469,0.14074,0.0865,0.33498,0.13684,-0.11098,0.12515
1678,0.09462,0.12028,0.067661,0.11086,0.21902,-0.20193,0.10144
1679,0.075131,0.10794,0.045899,-0.040175,0.29048,-0.38577,0.072533
1680,0.055643,0.10371,0.020239,-0.11553,0.3314,-0.63197,0.046873
1681,0.040702,0.10014,-0.011917,-0.1321,0.32946,-0.88338,0.026085
1682,0.030633,0.088124,-0.044723,-0.11423,0.28268,-1.0909,0.0065969
1683,0.02706,0.065712,-0.070707,-0.080127,0.20148,-1.2296,-0.012892
1684,0.030308,0.038753,-0.089871,-0.038876,0.11281,-1.3017,-0.027833
1685,0.037454,0.015367,-0.10514,0.0033489,0.037129,-1.3209,-0.032705
1686,0.048172,0.00042559,-0.1191,0.044599,-0.011592,-1.3017,-0.016464
1687,0.064737,-0.0057458,-0.13242,0.07708,-0.028482,-1.2602,0.020239
1688,0.081627,-0.010293,-0.14476,0.09397,-0.015815,-1.2163,0.067336
1689,0.092346,-0.018413,-0.15516,0.090072,0.023487,-1.1861,0.11508
1690,0.09462,-0.030431,-0.16718,0.065712,0.0852,-1.1513,0.15406
1691,0.087474,-0.042449,-0.18536,0.023162,0.14821,-1.0412,0.17387
1692,0.073507,-0.053492,-0.20453,-0.024585,0.18849,-0.79308,0.17257
1693,0.055643,-0.063561,-0.21687,-0.062912,0.19239,-0.4137,0.15179
1694,0.03518,-0.07493,-0.2159,-0.085324,0.1625,0.016341,0.1219
1695,0.014717,-0.087922,-0.2042,-0.09182,0.11248,0.39182,0.098842
1696,-0.0018481,-0.098641,-0.18699,-0.090521,0.063113,0.64679,0.098193
1697,-0.012567,-0.10384,-0.16815,-0.086298,0.029009,0.77574,0.11866
1698,-0.018738,-0.098965,-0.14834,-0.078827,0.014068,0.81927,0.15276
1699,-0.025559,-0.086298,-0.12527,-0.071682,0.013418,0.83551,0.19271
1700,-0.03173,-0.068109,-0.093769,-0.066485,0.021213,0.87903,0.22747
1701,-0.032055,-0.048296,-0.05804,-0.067459,0.032257,0.97615,0.25085
1702,-0.023285,-0.035628,-0.027833,-0.076879,0.045899,1.1093,0.26417
1703,-0.0076946,-0.039526,-0.0050961,-0.092794,0.057592,1.2409,0.27196
1704,0.0069217,-0.056091,0.013743,-0.11098,0.061165,1.3331,0.27456
1705,0.016341,-0.077203,0.029333,-0.1308,0.053694,1.3698,0.27424
1706,0.01764,-0.091495,0.042975,-0.15678,0.038753,1.3594,0.26742
1707,0.012119,-0.091495,0.05207,-0.18731,0.021863,1.3208,0.25735
1708,0.0052977,-0.076229,0.054993,-0.20972,0.015367,1.2759,0.25313
1709,0.0017248,-0.04862,0.056942,-0.21557,0.029333,1.2506,0.258
1710,0.0059473,-0.0096434,0.064088,-0.19868,0.064413,1.273,0.26742
1711,0.014068,0.036804,0.081627,-0.14769,0.11086,1.3497,0.27554
1712,0.025111,0.087799,0.10761,-0.053817,0.15698,1.4338,0.27749
1713,0.033556,0.13522,0.13425,0.070909,0.19466,1.4442,0.27229
1714,0.03583,0.1716,0.15503,0.19271,0.21772,1.31,0.2606
1715,0.033231,0.19239,0.16868,0.27554,0.22584,1.0073,0.24176
1716,0.02706,0.20311,0.17615,0.30542,0.22097,0.56364,0.2161
1717,0.022188,0.21058,0.1755,0.28723,0.20343,0.044924,0.18492
1718,0.019914,0.21252,0.16575,0.23754,0.17095,-0.44196,0.14334
1719,0.013743,0.19953,0.14724,0.17517,0.13035,-0.79308,0.084226
1720,0.00075039,0.1625,0.1258,0.1206,0.094945,-0.96003,0.014068
1721,-0.020362,0.10436,0.10534,0.095594,0.073182,-0.96685,-0.055766
1722,-0.047971,0.034855,0.094945,0.12418,0.063113,-0.89864,-0.11521
1723,-0.073631,-0.028807,0.097218,0.23364,0.056942,-0.84927,-0.1688
1724,-0.093119,-0.073306,0.10729,0.42365,0.049472,-0.87331,-0.21525
1725,-0.10676,-0.090196,0.11703,0.66498,0.041676,-0.96912,-0.25682
1726,-0.11618,-0.087272,0.11443,0.90339,0.03518,-1.0835,-0.28605
1727,-0.12203,-0.071682,0.096244,1.0713,0.02706,-1.1513,-0.29612
1728,-0.12333,-0.042774,0.06896,1.1093,0.011794,-1.1211,-0.28768
1729,-0.11586,-0.0063954,0.0433,0.99401,-0.012892,-0.97692,-0.26819
1730,-0.10416,0.024786,0.024137,0.76015,-0.030756,-0.73526,-0.24935
1731,-0.089546,0.040052,0.013743,0.47822,-0.014516,-0.44001,-0.23279
1732,-0.070058,0.040702,0.0056225,0.22065,0.065712,-0.14476,-0.22174
1733,-0.04862,0.03583,0.0023744,0.027709,0.21123,0.10112,-0.21622
1734,-0.027508,0.038428,0.0069217,-0.095393,0.39214,0.27684,-0.21232
1735,-0.012567,0.056617,0.024461,-0.16328,0.55617,0.38045,-0.20583
1736,-0.0083442,0.084226,0.05272,-0.19511,0.65556,0.40968,-0.19543
1737,-0.011592,0.10891,0.078055,-0.2081,0.67115,0.36259,-0.17984
1738,-0.018738,0.11866,0.083576,-0.22109,0.61334,0.24176,-0.1636
1739,-0.027183,0.10794,0.064737,-0.2487,0.50193,0.06831,-0.16165
1740,-0.035303,0.080003,0.02706,-0.288,0.31549,-0.11943,-0.18179
1741,-0.042124,0.039402,-0.021337,-0.33478,-0.00022403,-0.27014,-0.21752
1742,-0.040175,-0.0024977,-0.067459,-0.3796,-0.43579,-0.32763,-0.25065
1743,-0.026858,-0.034654,-0.10059,-0.415,-0.88208,-0.24513,-0.25845
1744,-0.0024977,-0.051544,-0.11521,-0.43904,-1.202,-0.0099683,-0.23149
1745,0.020564,-0.04927,-0.10936,-0.44424,-1.3118,0.32361,-0.17205
1746,0.033231,-0.026533,-0.086948,-0.43059,-1.2189,0.66173,-0.097666
1747,0.037129,0.013093,-0.056416,-0.40201,-0.99121,0.91021,-0.023285
1748,0.039402,0.056292,-0.028157,-0.36661,-0.72292,1.0151,0.041351
1749,0.047523,0.091047,-0.011592,-0.33705,-0.49328,0.96998,0.092021
1750,0.060515,0.10924,-0.0073698,-0.31918,-0.3416,0.80822,0.12775
1751,0.074482,0.10501,-0.014191,-0.31269,-0.27176,0.58313,0.14919
1752,0.085525,0.074806,-0.028482,-0.31139,-0.2539,0.33758,0.16185
1753,0.0865,0.022837,-0.043748,-0.31236,-0.2513,0.10794,0.16445
1754,0.072208,-0.047646,-0.061613,-0.31854,-0.24058,-0.086298,0.15341
1755,0.0433,-0.12657,-0.079477,-0.33283,-0.22012,-0.24221,0.12678
1756,0.0095202,-0.20518,-0.098641,-0.35004,-0.19836,-0.35361,0.089423
1757,-0.024585,-0.27826,-0.1204,-0.35881,-0.18342,-0.40818,0.054993
1758,-0.055116,-0.339,-0.14184,-0.34777,-0.17627,-0.40331,0.033231
1759,-0.078503,-0.38155,-0.16133,-0.31854,-0.17367,-0.35069,0.024461
1760,-0.093119,-0.40071,-0.18374,-0.28768,-0.17302,-0.27209,0.021213
1761,-0.10416,-0.40071,-0.21037,-0.28053,-0.1714,-0.19511,0.013418
1762,-0.11943,-0.38545,-0.23474,-0.31301,-0.16068,-0.14054,-0.0050961
1763,-0.14281,-0.35491,-0.24643,-0.37992,-0.12365,-0.11098,-0.032055
1764,-0.16685,-0.30619,-0.23668,-0.46372,-0.044398,-0.095717,-0.059989
1765,-0.18374,-0.2461,-0.20648,-0.53908,0.073182,-0.095068,-0.079152
1766,-0.18699,-0.18277,-0.16328,-0.58942,0.21675,-0.11423,-0.090845
1767,-0.17984,-0.12787,-0.1204,-0.60437,0.35317,-0.14801,-0.10286
1768,-0.1636,-0.084999,-0.084999,-0.58488,0.45353,-0.18342,-0.1178
1769,-0.14022,-0.04992,-0.053817,-0.53616,0.49218,-0.21135,-0.13697
1770,-0.11261,-0.014191,-0.023935,-0.46502,0.4597,-0.23603,-0.16198
1771,-0.086298,0.023812,0.0085458,-0.3705,0.35999,-0.28898,-0.19836
1772,-0.068434,0.058241,0.042651,-0.2591,0.18394,-0.4176,-0.24838
1773,-0.065186,0.080978,0.06896,-0.1269,-0.096692,-0.64724,-0.30717
1774,-0.077203,0.089098,0.083576,0.046223,-0.48159,-0.95353,-0.35946
1775,-0.096042,0.0865,0.093321,0.29762,-0.89442,-1.2644,-0.39324
1776,-0.11163,0.077405,0.10534,0.63997,-1.2062,-1.5028,-0.40363
1777,-0.11423,0.06896,0.1271,1.0187,-1.3056,-1.621,-0.39746
1778,-0.10481,0.062139,0.15471,1.3269,-1.1712,-1.5928,-0.38252
1779,-0.089546,0.059216,0.1781,1.4552,-0.86714,-1.3852,-0.35621
1780,-0.074605,0.064413,0.18751,1.3617,-0.50043,-0.9766,-0.31431
1781,-0.062262,0.080978,0.17874,1.0872,-0.1623,-0.41728,-0.25033
1782,-0.053492,0.10469,0.15731,0.73189,0.09397,0.17225,-0.16782
1783,-0.042124,0.12937,0.13522,0.39961,0.26709,0.69454,-0.073631
1784,-0.022636,0.15309,0.12028,0.16218,0.38207,1.1379,0.026735
1785,0.003024,0.1703,0.11671,0.038753,0.46912,1.5121,0.12548
1786,0.029009,0.1781,0.1232,0.0078962,0.53636,1.7911,0.20993
1787,0.05207,0.17745,0.13652,0.027709,0.5932,1.9028,0.26774
1788,0.06831,0.17095,0.14854,0.057917,0.65166,1.7888,0.28885
1789,0.080978,0.16445,0.15146,0.080978,0.7267,1.4848,0.28073
1790,0.095269,0.16056,0.14626,0.095269,0.81407,1.12,0.26157
1791,0.11086,0.15568,0.13684,0.10989,0.89332,0.83258,0.2541
1792,0.12385,0.14821,0.12385,0.13067,0.9375,0.6692,0.27099
1793,0.13002,0.13717,0.11281,0.16738,0.93685,0.56949,0.31451
1794,0.13197,0.12905,0.10631,0.22357,0.90664,0.44866,0.36778
1795,0.13295,0.13067,0.10664,0.29503,0.86441,0.27619,0.41423
1796,0.13425,0.14042,0.11183,0.35804,0.79133,0.080003,0.44249
1797,0.13262,0.15081,0.11768,0.39214,0.62211,-0.090521,0.44736
1798,0.1245,0.15179,0.1206,0.3876,0.296,-0.19966,0.42722
1799,0.11736,0.14302,0.11801,0.35154,-0.14379,-0.24253,0.38402
1800,0.11638,0.13425,0.11703,0.29762,-0.54785,-0.23311,0.33075
1801,0.12678,0.13035,0.12158,0.23916,-0.77651,-0.19056,0.27846
1802,0.14139,0.13262,0.13067,0.18362,-0.77651,-0.13307,0.22974
1803,0.15503,0.13749,0.13587,0.131,-0.59202,-0.076229,0.18394
1804,0.16218,0.14042,0.13067,0.079029,-0.31529,-0.029457,0.13814
1805,0.15893,0.14172,0.11054,0.028034,-0.043099,0.0078962,0.090397
1806,0.15114,0.14139,0.080978,-0.021661,0.15926,0.045574,0.046873
1807,0.14302,0.13132,0.051096,-0.063561,0.26514,0.097218,0.016991
1808,0.14204,0.10891,0.031282,-0.09929,0.28756,0.16608,0.009845
1809,0.15016,0.080003,0.022512,-0.13372,0.25345,0.23948,0.01894
1810,0.16608,0.05207,0.020564,-0.17659,0.18557,0.29633,0.032906
1811,0.18134,0.032906,0.017316,-0.23246,0.10014,0.32004,0.04395
