,channel_1,channel_2,channel_3,channel_4,channel_5,channel_6,channel_7
0,-0.019388,-0.12008,-0.09182,-0.50335,-0.32633,-1.061,-0.17822
1,-0.025559,-0.14379,-0.10774,-0.59105,-0.31204,-1.1403,-0.17594
2,-0.028807,-0.16165,-0.11878,-0.66218,-0.32438,-1.1669,-0.1727
3,-0.030106,-0.17042,-0.1282,-0.7161,-0.35621,-1.138,-0.17724
4,-0.033354,-0.16588,-0.13664,-0.75053,-0.39584,-1.0734,-0.19154
5,-0.036927,-0.14314,-0.14216,-0.7606,-0.42929,-1.0175,-0.2068
6,-0.042449,-0.10514,-0.14281,-0.73884,-0.44911,-1.0178,-0.20972
7,-0.047321,-0.055766,-0.13307,-0.67582,-0.44651,-1.0896,-0.19446
8,-0.046022,-0.0063954,-0.11228,-0.56052,-0.42215,-1.2163,-0.1623
9,-0.031081,0.028034,-0.084024,-0.39097,-0.38025,-1.344,-0.11228
10,-0.011267,0.038753,-0.056091,-0.18147,-0.33088,-1.4154,-0.04862
11,0.0052977,0.027709,-0.034654,0.047198,-0.28443,-1.3943,0.020888
12,0.015367,0.0065969,-0.019388,0.28853,-0.2435,-1.2705,0.088448
13,0.019264,-0.007045,-0.0021729,0.57046,-0.21297,-1.0507,0.14984
14,0.022512,0.0023744,0.01894,0.92223,-0.18536,-0.7606,0.2057
15,0.030957,0.041351,0.041351,1.3162,-0.15548,-0.44748,0.26027
16,0.042326,0.09462,0.064737,1.6472,-0.12235,-0.1649,0.30997
17,0.053044,0.14139,0.080653,1.8015,-0.085324,0.053369,0.35609
18,0.060515,0.16673,0.0852,1.7278,-0.042124,0.207,0.39604
19,0.062139,0.16608,0.076755,1.4614,0.0072465,0.31744,0.42722
20,0.062139,0.14984,0.059865,1.0934,0.058566,0.39961,0.45321
21,0.062789,0.12872,0.040702,0.72605,0.10924,0.4649,0.47724
22,0.063113,0.10047,0.023162,0.43339,0.15958,0.53896,0.5016
23,0.062139,0.057267,0.0088706,0.24273,0.21577,0.64809,0.52889
24,0.062464,-0.0041217,-0.0018481,0.13814,0.28496,0.81894,0.56169
25,0.065062,-0.079802,-0.0063954,0.082277,0.36518,1.0902,0.59807
26,0.065062,-0.15581,-0.0021729,0.046548,0.44379,1.4968,0.63477
27,0.062789,-0.21752,0.010819,0.01764,0.51492,2.0409,0.66433
28,0.062464,-0.25585,0.028359,-0.0041217,0.57696,2.6684,0.68122
29,0.066362,-0.27241,0.044599,-0.014516,0.62828,3.2553,0.68187
30,0.076755,-0.27371,0.055968,-0.015815,0.66206,3.6188,0.66141
31,0.089098,-0.26332,0.062464,-0.020687,0.67408,3.6009,0.61334
32,0.10209,-0.24026,0.066362,-0.043423,0.66433,3.1796,0.53636
33,0.11898,-0.21102,0.069285,-0.084349,0.63965,2.4894,0.43827
34,0.13977,-0.18374,0.070584,-0.1217,0.60294,1.731,0.33368
35,0.15926,-0.15905,0.072208,-0.12333,0.53766,1.0642,0.22812
36,0.16608,-0.13502,0.075456,-0.063561,0.42073,0.56137,0.12288
37,0.15276,-0.10968,0.079354,0.064088,0.25313,0.22194,0.019589
38,0.12125,-0.085324,0.081952,0.25215,0.082602,0.010495,-0.077528
39,0.082602,-0.06551,0.080978,0.47984,-0.032705,-0.11715,-0.16685
40,0.042651,-0.046347,0.07773,0.68902,-0.067134,-0.20193,-0.2474
41,0.0065969,-0.027183,0.075456,0.80465,-0.034004,-0.27793,-0.31756
42,-0.021661,-0.017439,0.077405,0.77704,0.03453,-0.36758,-0.37148
43,-0.037577,-0.03173,0.078379,0.61009,0.11248,-0.47769,-0.40623
44,-0.038551,-0.071357,0.075781,0.36161,0.19986,-0.59202,-0.41533
45,-0.027508,-0.11975,0.066037,0.10826,0.30867,-0.68557,-0.39227
46,-0.013216,-0.15191,0.051745,-0.092145,0.44054,-0.74501,-0.34679
47,0.00010078,-0.15451,0.038103,-0.22304,0.58053,-0.77554,-0.29905
48,0.0091954,-0.123,0.028684,-0.29515,0.69909,-0.79568,-0.26202
49,0.01017,-0.060963,0.024461,-0.33218,0.766,-0.82296,-0.24123
50,0.0052977,0.019914,0.023162,-0.35264,0.76372,-0.86778,-0.23831
51,-0.0037969,0.10664,0.027385,-0.36401,0.69259,-0.923,-0.24773
52,-0.013216,0.18394,0.039727,-0.36531,0.55195,-0.97302,-0.25845
53,-0.01614,0.24176,0.055643,-0.36076,0.30997,-1.0039,-0.26104
54,-0.011592,0.27911,0.06896,-0.35816,-0.068109,-1.0165,-0.25033
55,-0.00022403,0.30932,0.073507,-0.36173,-0.53486,-1.0214,-0.23181
56,0.0095202,0.34635,0.071234,-0.36563,-0.9727,-1.0214,-0.2107
57,0.012119,0.39312,0.066686,-0.36368,-1.2696,-1.0084,-0.18666
58,0.0036737,0.43534,0.065712,-0.35296,-1.3768,-0.95646,-0.15873
59,-0.010293,0.45678,0.072533,-0.33218,-1.3105,-0.8496,-0.13112
60,-0.02361,0.44963,0.090072,-0.30392,-1.1302,-0.68914,-0.10709
61,-0.034978,0.41585,0.11313,-0.26234,-0.90059,-0.48516,-0.090845
62,-0.041799,0.35999,0.13067,-0.19738,-0.66608,-0.23993,-0.078178
63,-0.047646,0.28333,0.13652,-0.10611,-0.45463,0.027709,-0.062912
64,-0.054467,0.18687,0.1297,-0.021661,-0.28508,0.26092,-0.0405
65,-0.061288,0.078055,0.11476,0.0072465,-0.16718,0.38695,-0.010618
66,-0.06551,-0.029457,0.096893,-0.053817,-0.094418,0.35706,0.021863
67,-0.061288,-0.12073,0.075131,-0.19771,-0.046347,0.17127,0.046548
68,-0.046671,-0.18634,0.051745,-0.377,0.0010752,-0.11813,0.050121
69,-0.02426,-0.22337,0.024786,-0.5433,0.048822,-0.43514,0.022512
70,-0.0044465,-0.23571,-0.0093186,-0.65991,0.080328,-0.71253,-0.032055
71,0.0052977,-0.22694,-0.049595,-0.71513,0.079679,-0.91033,-0.10091
72,0.0033489,-0.2055,-0.088896,-0.70668,0.044924,-1.0159,-0.1688
73,-0.011267,-0.18114,-0.11651,-0.64009,-0.012567,-1.0367,-0.22564
74,-0.034654,-0.16198,-0.12495,-0.52804,-0.071357,-0.98926,-0.26169
75,-0.059014,-0.15158,-0.11423,-0.3861,-0.10871,-0.89929,-0.27339
76,-0.070382,-0.14736,-0.084024,-0.21817,-0.11748,-0.79438,-0.26332
77,-0.061288,-0.14411,-0.045372,-0.018413,-0.10709,-0.69401,-0.23863
78,-0.035303,-0.13827,-0.0073698,0.21642,-0.092469,-0.60664,-0.20875
79,-0.0011985,-0.13307,0.016341,0.45256,-0.094418,-0.53648,-0.17919
80,0.028359,-0.13047,0.01764,0.63088,-0.12365,-0.48484,-0.15548
81,0.042975,-0.13112,-0.0018481,0.68869,-0.174,-0.44943,-0.13827
82,0.040052,-0.13112,-0.030756,0.60944,-0.22759,-0.42994,-0.12885
83,0.027385,-0.1204,-0.05739,0.42852,-0.26137,-0.42377,-0.12787
84,0.014068,-0.097991,-0.078503,0.21772,-0.26137,-0.41825,-0.13697
85,0.0095202,-0.068434,-0.093119,0.042326,-0.23149,-0.39616,-0.15029
86,0.015042,-0.037577,-0.10156,-0.06551,-0.18439,-0.34095,-0.16685
87,0.024137,-0.011917,-0.10286,-0.10676,-0.13599,-0.25195,-0.18569
88,0.025761,0.0023744,-0.10091,-0.11456,-0.10156,-0.14184,-0.20648
89,0.011144,0.008221,-0.10254,-0.11845,-0.084674,-0.034004,-0.22564
90,-0.011917,0.0085458,-0.11131,-0.13242,-0.072331,0.044599,-0.23474
91,-0.031081,0.011144,-0.11813,-0.15321,-0.047971,0.08585,-0.22109
92,-0.038876,0.021538,-0.11618,-0.1662,-0.0063954,0.094295,-0.18277
93,-0.04115,0.042975,-0.10221,-0.16588,0.049472,0.080003,-0.12852
94,-0.041799,0.069934,-0.0837,-0.15158,0.10599,0.055643,-0.072981
95,-0.044073,0.092346,-0.067784,-0.1295,0.14074,0.036479,-0.027183
96,-0.049595,0.10469,-0.058689,-0.10903,0.13684,0.030308,0.0023744
97,-0.058365,0.10989,-0.054792,-0.094743,0.094295,0.034855,0.016666
98,-0.06551,0.11151,-0.050244,-0.089871,0.029333,0.045899,0.024786
99,-0.070707,0.10794,-0.040175,-0.097017,-0.031081,0.06019,0.03453
100,-0.072656,0.096244,-0.02361,-0.11748,-0.068109,0.079029,0.049472
101,-0.068758,0.072858,-0.0050961,-0.15093,-0.077528,0.11086,0.067661
102,-0.057065,0.038753,0.0091954,-0.19608,-0.06616,0.1664,0.083901
103,-0.042449,-0.00087364,0.016666,-0.2474,-0.042124,0.25085,0.10274
104,-0.024909,-0.036602,0.023487,-0.29515,-0.019712,0.35122,0.13457
105,-0.0015233,-0.059989,0.038753,-0.33283,-0.0063954,0.43794,0.17745
106,0.028034,-0.061613,0.064413,-0.35426,-0.0054209,0.49024,0.22227
107,0.054668,-0.036602,0.097868,-0.35654,-0.010293,0.51135,0.26157
108,0.079029,0.009845,0.131,-0.3429,-0.012567,0.53928,0.2999
109,0.10112,0.067986,0.15146,-0.32763,-0.0076946,0.60684,0.34375
110,0.12548,0.12483,0.15796,-0.32731,-0.0028225,0.7189,0.39604
111,0.14886,0.17192,0.15568,-0.34549,0.0010752,0.85922,0.45451
112,0.16575,0.20895,0.14821,-0.37278,-0.00022403,0.99758,0.5016
113,0.16965,0.23591,0.13782,-0.39324,-0.00054884,1.0872,0.51914
114,0.15503,0.25572,0.1284,-0.39681,0.029333,1.0752,0.5029
115,0.11963,0.27749,0.12223,-0.3809,0.13392,0.93197,0.45808
116,0.075781,0.30315,0.11671,-0.35069,0.33628,0.67083,0.39409
117,0.036479,0.32556,0.10794,-0.31236,0.61041,0.34829,0.32361
118,0.01017,0.33368,0.09397,-0.27014,0.893,0.053369,0.2554
119,0.0023744,0.32004,0.072208,-0.21979,1.1129,-0.13112,0.19726
120,0.012119,0.28301,0.048497,-0.15581,1.2214,-0.1753,0.15666
121,0.036154,0.23559,0.028359,-0.072656,1.2178,-0.11261,0.13555
122,0.064737,0.18849,0.013743,0.043625,1.1324,-0.021337,0.12678
123,0.089748,0.14432,-0.0034721,0.21447,0.96575,0.022837,0.12125
124,0.10209,0.095594,-0.028157,0.44769,0.66173,-0.018738,0.10794
125,0.09462,0.040377,-0.061613,0.70623,0.15536,-0.14834,0.078704
126,0.06831,-0.021012,-0.097341,0.90924,-0.51764,-0.33867,0.027385
127,0.028684,-0.082076,-0.12722,0.97452,-1.1812,-0.54817,-0.036602
128,-0.019388,-0.12982,-0.14314,0.87871,-1.6269,-0.72714,-0.09929
129,-0.068434,-0.15451,-0.14281,0.67213,-1.7301,-0.83238,-0.14411
130,-0.10579,-0.15191,-0.1295,0.44314,-1.5028,-0.84732,-0.1623
131,-0.12073,-0.12755,-0.10871,0.2619,-1.0675,-0.78269,-0.15646
132,-0.11293,-0.09182,-0.084024,0.15796,-0.5813,-0.6664,-0.13632
133,-0.09117,-0.05804,-0.060638,0.1232,-0.16393,-0.53226,-0.11358
134,-0.06551,-0.039526,-0.043748,0.13392,0.12418,-0.40656,-0.096367
135,-0.046996,-0.035628,-0.035628,0.16478,0.28041,-0.30457,-0.088572
136,-0.035628,-0.040175,-0.035628,0.19791,0.33335,-0.22044,-0.086298
137,-0.021986,-0.046996,-0.040825,0.22324,0.32101,-0.13729,-0.080776
138,-0.0028225,-0.051219,-0.046996,0.24241,0.28431,-0.028807,-0.063886
139,0.021863,-0.048945,-0.049595,0.25443,0.26255,0.12483,-0.037252
140,0.049472,-0.042124,-0.042774,0.2593,0.27489,0.32134,-0.008669
141,0.074806,-0.032055,-0.02426,0.2541,0.31614,0.51525,0.01764
142,0.090072,-0.018088,-0.00087364,0.23916,0.34992,0.62633,0.041027
143,0.091696,-0.0037969,0.019914,0.2187,0.33043,0.58605,0.059865
144,0.083251,0.0078962,0.031932,0.19986,0.23429,0.39702,0.079679
145,0.06896,0.015042,0.036479,0.18816,0.071234,0.14529,0.099492
146,0.053694,0.017316,0.035505,0.18524,-0.11261,-0.060638,0.11995
147,0.041027,0.01764,0.034855,0.19856,-0.26137,-0.14444,0.14302
148,0.033231,0.020888,0.038428,0.23526,-0.34387,-0.093444,0.16673
149,0.029658,0.032906,0.045574,0.28528,-0.35849,0.053044,0.18687
150,0.025436,0.049147,0.05272,0.3314,-0.32925,0.24306,0.19076
151,0.016991,0.065387,0.055643,0.35674,-0.27371,0.43112,0.16868
152,0.0036737,0.083251,0.055643,0.35154,-0.20648,0.58475,0.12385
153,-0.0093186,0.10599,0.057592,0.32069,-0.14379,0.68902,0.071558
154,-0.016789,0.13879,0.064737,0.27586,-0.089221,0.74618,0.028359
155,-0.017764,0.18134,0.078379,0.23234,-0.045372,0.77574,0.0033489
156,-0.013541,0.22779,0.095269,0.20148,-0.0044465,0.79231,0.00010078
157,-0.0067202,0.26514,0.10989,0.18459,0.048172,0.79783,0.010819
158,0.0014,0.27749,0.11606,0.16738,0.12775,0.77477,0.02641
159,0.0039985,0.25443,0.10794,0.13912,0.23429,0.71403,0.039727
160,-0.0015233,0.19823,0.082277,0.09462,0.35219,0.63315,0.051096
161,-0.011267,0.11378,0.046873,0.026085,0.46133,0.54935,0.065062
162,-0.017114,0.0052977,0.014392,-0.076229,0.54155,0.4597,0.083251
163,-0.017439,-0.11618,-0.010943,-0.21914,0.57663,0.37688,0.10112
164,-0.011917,-0.23246,-0.026209,-0.39422,0.57079,0.36973,0.11508
165,-0.0044465,-0.32211,-0.030431,-0.55889,0.54026,0.51849,0.13165
166,0.0059473,-0.36011,-0.016789,-0.64042,0.5016,0.81082,0.15438
167,0.016666,-0.33348,0.011794,-0.5826,0.45808,1.1217,0.17712
168,0.021863,-0.24805,0.042975,-0.38642,0.40708,1.2912,0.18654
169,0.017316,-0.13112,0.067661,-0.11878,0.34602,1.2259,0.1755
170,0.0043233,-0.01549,0.082602,0.13717,0.28138,0.95114,0.14724
171,-0.010293,0.073507,0.092996,0.32881,0.22714,0.5958,0.11443
172,-0.018088,0.12093,0.10144,0.44411,0.19434,0.30412,0.085525
173,-0.014191,0.12645,0.11216,0.50518,0.18329,0.15309,0.068635
174,-0.0011985,0.10274,0.11866,0.53636,0.18199,0.13425,0.065387
175,0.013418,0.065712,0.11151,0.55162,0.17712,0.17842,0.075131
176,0.025761,0.024786,0.092671,0.55909,0.16056,0.21772,0.096569
177,0.034206,-0.011917,0.071234,0.56104,0.1362,0.22909,0.1297
178,0.040702,-0.035953,0.054344,0.55325,0.11703,0.23429,0.16965
179,0.050121,-0.045697,0.044599,0.52402,0.11638,0.25735,0.20376
180,0.061814,-0.04862,0.037778,0.4662,0.13067,0.28788,0.21967
181,0.071558,-0.055766,0.034206,0.37948,0.14496,0.28073,0.21025
182,0.074482,-0.070058,0.028359,0.27424,0.14139,0.20408,0.17485
183,0.071558,-0.090521,0.013418,0.15991,0.11054,0.074157,0.12418
184,0.065062,-0.11131,-0.013866,0.051745,0.054993,-0.032055,0.071558
185,0.057917,-0.12625,-0.047971,-0.039201,-0.010618,-0.012567,0.029658
186,0.053694,-0.13177,-0.083375,-0.11261,-0.075904,0.18167,0.0014
187,0.053694,-0.12917,-0.11293,-0.17172,-0.14216,0.48731,-0.016464
188,0.055968,-0.12235,-0.12657,-0.21947,-0.20908,0.76697,-0.026209
189,0.054993,-0.1178,-0.12885,-0.25292,-0.27306,0.8839,-0.034329
190,0.047198,-0.12138,-0.12787,-0.26657,-0.32016,0.77087,-0.045697
191,0.033881,-0.13307,-0.12885,-0.26397,-0.34225,0.44996,-0.064211
192,0.019264,-0.14574,-0.12722,-0.24708,-0.34095,0.010495,-0.093769
193,0.008221,-0.14801,-0.11715,-0.22239,-0.31854,-0.43709,-0.1334
194,-0.00054884,-0.13664,-0.095393,-0.19478,-0.2867,-0.81614,-0.17724
195,-0.0073698,-0.11131,-0.068758,-0.17659,-0.25942,-1.0981,-0.22077
196,-0.015815,-0.072981,-0.050569,-0.17497,-0.24448,-1.2969,-0.26462
197,-0.026533,-0.02361,-0.045372,-0.18764,-0.24545,-1.444,-0.30554
198,-0.038876,0.026085,-0.045372,-0.20778,-0.26072,-1.5658,-0.34452
199,-0.051219,0.058891,-0.044723,-0.22889,-0.28605,-1.6821,-0.38252
200,-0.062262,0.065387,-0.04115,-0.2474,-0.31171,-1.8006,-0.41923
201,-0.068434,0.047847,-0.035303,-0.25682,-0.33218,-1.9133,-0.45171
202,-0.071032,0.01894,-0.027833,-0.2526,-0.34225,-2.0118,-0.4699
203,-0.070382,-0.0083442,-0.019063,-0.23116,-0.34257,-2.0832,-0.46697
204,-0.067459,-0.025559,-0.0096434,-0.18601,-0.3364,-2.1167,-0.44294
205,-0.062912,-0.026858,-0.0021729,-0.11033,-0.32438,-2.0978,-0.40526
206,-0.061937,-0.021012,0.0043233,0.00075039,-0.31106,-2.0215,-0.36206
207,-0.065186,-0.018413,0.0049729,0.13067,-0.29677,-1.8948,-0.31918
208,-0.072656,-0.021012,-0.0021729,0.24825,-0.27988,-1.7243,-0.27923
209,-0.075255,-0.02426,-0.019063,0.31386,-0.25845,-1.5193,-0.24773
210,-0.06551,-0.015815,-0.038551,0.30639,-0.23766,-1.2868,-0.22597
211,-0.04115,-0.00087364,-0.055116,0.22682,-0.21817,-1.0432,-0.21297
212,-0.011592,0.0075714,-0.073955,0.10664,-0.19868,-0.81679,-0.20875
213,0.013743,0.0023744,-0.092794,-0.014516,-0.17367,-0.64009,-0.2081
214,0.028684,-0.017114,-0.10124,-0.10416,-0.14444,-0.52154,-0.20355
215,0.036804,-0.042449,-0.092469,-0.15386,-0.11391,-0.43482,-0.19089
216,0.042326,-0.067784,-0.071032,-0.17659,-0.079152,-0.3299,-0.1675
217,0.045249,-0.089221,-0.045372,-0.18861,-0.034329,-0.15776,-0.13145
218,0.049147,-0.098641,-0.02426,-0.20063,0.020888,0.12158,-0.08305
219,0.057917,-0.089546,-0.011267,-0.21395,0.0865,0.52596,-0.023285
220,0.071558,-0.067459,-0.0057458,-0.22824,0.15893,1.0418,0.042001
221,0.090722,-0.041475,-0.0024977,-0.24058,0.23201,1.6254,0.10371
222,0.10859,-0.021337,0.0033489,-0.25585,0.2986,2.1887,0.15828
223,0.11606,-0.0099683,0.009845,-0.27144,0.35609,2.6239,0.20181
224,0.11118,-0.0080194,0.012443,-0.28573,0.39961,2.8422,0.23721
225,0.09397,-0.0083442,0.014717,-0.29677,0.4256,2.8012,0.26644
226,0.073832,-0.0021729,0.015367,-0.29807,0.43145,2.5154,0.28366
227,0.057917,0.019264,0.019264,-0.28476,0.42235,2.0516,0.28268
228,0.05142,0.055968,0.030308,-0.25162,0.40643,1.5088,0.26579
229,0.054668,0.092346,0.047847,-0.19381,0.38435,1.0073,0.23851
230,0.062789,0.11151,0.067661,-0.11553,0.35057,0.64289,0.2148
231,0.067986,0.10599,0.083576,-0.028157,0.3038,0.43372,0.19499
232,0.067661,0.081952,0.097868,0.055318,0.24598,0.33108,0.17777
233,0.062464,0.056292,0.11151,0.13392,0.18459,0.25507,0.15698
234,0.055318,0.040052,0.1258,0.23006,0.12775,0.13652,0.131
235,0.054344,0.038753,0.14009,0.37038,0.081303,-0.053168,0.10144
236,0.062789,0.056942,0.15211,0.56819,0.040052,-0.29612,0.06831
237,0.078379,0.091047,0.15991,0.80887,0.0039985,-0.55012,0.032906
238,0.096244,0.12905,0.1651,1.0489,-0.02426,-0.76904,0.0062721
239,0.11313,0.16185,0.16738,1.211,-0.046671,-0.92203,-0.0037969
240,0.12613,0.18946,0.16218,1.2237,-0.073631,-1.0094,0.00075039
241,0.1284,0.21545,0.15373,1.0612,-0.11098,-1.0565,0.0056225
242,0.11151,0.24143,0.14334,0.7608,-0.15386,-1.0877,-0.0037969
243,0.074806,0.26904,0.13067,0.40026,-0.18699,-1.1166,-0.028807
244,0.031932,0.29665,0.11833,0.066037,-0.19966,-1.1393,-0.061613
245,-0.0015233,0.31614,0.10566,-0.18342,-0.18699,-1.14,-0.090196
246,-0.015815,0.32036,0.092671,-0.33705,-0.15808,-1.1039,-0.10384
247,-0.015815,0.30867,0.07773,-0.4176,-0.13404,-1.0286,-0.099615
248,-0.010618,0.28366,0.06019,-0.45593,-0.13372,-0.92268,-0.080776
249,-0.0093186,0.2515,0.038753,-0.47542,-0.16003,-0.79763,-0.05739
250,-0.018088,0.21188,0.013093,-0.48679,-0.20583,-0.66446,-0.042124
251,-0.035628,0.1677,-0.015165,-0.49588,-0.2539,-0.53356,-0.039526
252,-0.051868,0.12028,-0.043423,-0.5001,-0.28313,-0.41013,-0.053492
253,-0.060963,0.072858,-0.071357,-0.49426,-0.27858,-0.29937,-0.073631
254,-0.064211,0.028684,-0.098641,-0.47769,-0.24708,-0.20388,-0.087272
255,-0.072656,-0.007045,-0.1217,-0.44359,-0.20745,-0.12592,-0.089871
256,-0.089546,-0.032055,-0.13632,-0.39519,-0.17984,-0.071682,-0.081101
257,-0.11098,-0.045697,-0.14704,-0.3416,-0.17432,-0.051219,-0.065835
258,-0.13145,-0.052518,-0.15711,-0.29482,-0.18601,-0.07493,-0.051544
259,-0.14639,-0.065835,-0.16912,-0.26072,-0.2042,-0.15418,-0.045697
260,-0.15548,-0.091495,-0.18407,-0.23668,-0.2172,-0.28281,-0.050569
261,-0.15613,-0.12203,-0.20258,-0.21785,-0.22109,-0.43612,-0.060638
262,-0.14216,-0.13794,-0.21525,-0.19283,-0.212,-0.57741,-0.063886
263,-0.11261,-0.13275,-0.21297,-0.15451,-0.19478,-0.6703,-0.051868
264,-0.072981,-0.10611,-0.18601,-0.099615,-0.17432,-0.66933,-0.026858
265,-0.031406,-0.070058,-0.14119,-0.031406,-0.15711,-0.52934,0.0039985
266,0.0023744,-0.041475,-0.087272,0.042001,-0.14346,-0.2526,0.033231
267,0.01894,-0.024909,-0.032705,0.10696,-0.13112,0.069934,0.063763
268,0.020239,-0.020362,0.019264,0.1638,-0.11326,0.32783,0.090072
269,0.014717,-0.017764,0.06961,0.22324,-0.078178,0.47205,0.11118
270,0.013093,-0.013541,0.11898,0.30542,-0.016464,0.52596,0.13197
271,0.019589,-0.007045,0.16965,0.40741,0.078379,0.54545,0.15893
272,0.038753,-0.00087364,0.21902,0.49933,0.19271,0.58216,0.19466
273,0.067661,0.0069217,0.25702,0.5448,0.31289,0.67148,0.23786
274,0.10209,0.016666,0.27229,0.51979,0.42138,0.82511,0.28593
275,0.13262,0.025436,0.25865,0.4282,0.50615,1.019,0.33303
276,0.15114,0.031282,0.22065,0.29697,0.56299,1.1977,0.37103
277,0.15568,0.032257,0.17387,0.15861,0.58963,1.2945,0.39279
278,0.14951,0.029658,0.131,0.042651,0.57891,1.2694,0.39669
279,0.13749,0.032582,0.10242,-0.038551,0.52369,1.1213,0.38402
280,0.12255,0.044275,0.086824,-0.082725,0.43015,0.8826,0.36259
281,0.10761,0.065062,0.080003,-0.092469,0.31289,0.61171,0.33823
282,0.096893,0.089423,0.081303,-0.066485,0.19466,0.3746,0.32004
283,0.09397,0.11606,0.090072,0.0023744,0.098193,0.2109,0.32004
284,0.10047,0.14204,0.10566,0.11898,0.041027,0.13197,0.33952
285,0.10989,0.16348,0.12515,0.26644,0.032906,0.11476,0.35966
286,0.11216,0.17452,0.14561,0.40254,0.057267,0.12125,0.35447
287,0.096893,0.1768,0.15796,0.47042,0.076106,0.1258,0.31322
288,0.061814,0.17127,0.15666,0.43534,0.06084,0.13035,0.24046
289,0.011144,0.15666,0.14009,0.30834,0.00075039,0.14367,0.15211
290,-0.041799,0.1323,0.11378,0.1349,-0.086948,0.14821,0.073832
291,-0.084024,0.10079,0.0852,-0.027508,-0.1701,0.11833,0.015692
292,-0.11131,0.069934,0.059865,-0.13307,-0.21947,0.05272,-0.018738
293,-0.12657,0.042975,0.040052,-0.16588,-0.22109,-0.01549,-0.034978
294,-0.13567,0.021863,0.028684,-0.14314,-0.17692,-0.050569,-0.043423
295,-0.14476,0.0049729,0.028034,-0.10351,-0.10709,-0.034978,-0.04927
296,-0.15516,-0.0073698,0.033881,-0.080451,-0.043099,0.046873,-0.054467
297,-0.16588,-0.014191,0.033881,-0.087922,0.0010752,0.20765,-0.051219
298,-0.1701,-0.020362,0.020564,-0.123,0.017316,0.43957,-0.035628
299,-0.16068,-0.029132,-0.0044465,-0.174,0.0085458,0.70623,-0.0073698
300,-0.13534,-0.039851,-0.035953,-0.23474,-0.019388,0.94464,0.025761
301,-0.096367,-0.047321,-0.069408,-0.30002,-0.056416,1.1002,0.057917
302,-0.046671,-0.043748,-0.09929,-0.35881,-0.088247,1.147,0.087149
303,0.003024,-0.026533,-0.12268,-0.39876,-0.10189,1.0941,0.10794
304,0.044924,0.0010752,-0.13664,-0.4137,-0.098965,0.97485,0.11703
305,0.074806,0.035505,-0.13664,-0.40558,-0.08305,0.82998,0.11281
306,0.093321,0.067986,-0.12235,-0.38512,-0.057715,0.69032,0.095269
307,0.10112,0.093321,-0.096367,-0.36628,-0.027183,0.55812,0.067011
308,0.10079,0.11118,-0.068109,-0.35037,0.015042,0.4217,0.033881
309,0.099817,0.1219,-0.04862,-0.33153,0.081303,0.27716,0.0036737
310,0.10436,0.12678,-0.041475,-0.30554,0.17485,0.12548,-0.023285
311,0.10729,0.12613,-0.043099,-0.27371,0.28398,-0.02361,-0.047646
312,0.10112,0.11866,-0.04992,-0.24156,0.38662,-0.15126,-0.077853
313,0.07708,0.10436,-0.059339,-0.21622,0.44834,-0.25162,-0.11748
314,0.03518,0.081303,-0.075255,-0.20485,0.44346,-0.33413,-0.1597
315,-0.015815,0.049147,-0.097991,-0.2068,0.36746,-0.40883,-0.19933
316,-0.060313,0.015692,-0.11943,-0.2159,0.24858,-0.46437,-0.22369
317,-0.0824,-0.0093186,-0.12722,-0.22434,0.12807,-0.4556,-0.21785
318,-0.077853,-0.020362,-0.11748,-0.22304,0.041027,-0.31496,-0.17562
319,-0.050244,-0.022636,-0.094418,-0.21005,0.0056225,0.0026992,-0.10611
320,-0.0099683,-0.03173,-0.067459,-0.18309,0.014717,0.44054,-0.029132
321,0.026735,-0.055116,-0.044398,-0.14346,0.037454,0.83648,0.028359
322,0.05142,-0.088896,-0.021986,-0.097991,0.045249,1.0008,0.042001
323,0.066686,-0.13307,0.0036737,-0.052518,0.022512,0.84265,0.012119
324,0.069285,-0.18277,0.030633,-0.012242,-0.030106,0.4165,-0.045047
325,0.06084,-0.22629,0.053044,0.029333,-0.09994,-0.11066,-0.11196
326,0.046548,-0.25585,0.066037,0.081303,-0.16718,-0.55597,-0.17367
327,0.029009,-0.27469,0.067661,0.15763,-0.20875,-0.81874,-0.21622
328,0.0075714,-0.29515,0.058891,0.28658,-0.20453,-0.90449,-0.23733
329,-0.020362,-0.32081,0.04395,0.48406,-0.14671,-0.88727,-0.24286
330,-0.052193,-0.33672,0.026085,0.7202,-0.035953,-0.84765,-0.24026
331,-0.0824,-0.31756,0.009845,0.91151,0.11671,-0.82848,-0.23376
332,-0.10254,-0.24675,-0.0015233,0.97972,0.29697,-0.82946,-0.22304
333,-0.11001,-0.1217,-0.0050961,0.89722,0.48212,-0.83011,-0.20096
334,-0.10709,0.042651,-0.00054884,0.70233,0.64744,-0.80282,-0.1675
335,-0.096367,0.21642,0.0095202,0.46555,0.76989,-0.73721,-0.1243
336,-0.080776,0.36973,0.023162,0.25475,0.83648,-0.64627,-0.072006
337,-0.064211,0.47724,0.036154,0.10956,0.8485,-0.54752,-0.01614
338,-0.046347,0.52726,0.044599,0.040052,0.81472,-0.44131,0.045899
339,-0.026209,0.52239,0.047198,0.036804,0.72962,-0.2971,0.11021
340,-0.0057458,0.47919,0.042975,0.072858,0.56202,-0.084024,0.16933
341,0.014392,0.4152,0.032582,0.11638,0.2515,0.17322,0.21935
342,0.030633,0.3457,0.016341,0.14042,-0.22174,0.40579,0.2593
343,0.040377,0.27814,0.003024,0.14107,-0.76904,0.55942,0.28885
344,0.044924,0.20863,-0.00087364,0.12743,-1.2296,0.63088,0.31257
345,0.049796,0.12125,-0.0041217,0.11118,-1.4761,0.67797,0.334
346,0.06084,0.0072465,-0.015165,0.099817,-1.4739,0.77314,0.35187
347,0.078379,-0.12268,-0.03173,0.096569,-1.278,0.93879,0.36324
348,0.096893,-0.24415,-0.045047,0.10339,-0.99576,1.1298,0.35999
349,0.11216,-0.33932,-0.050569,0.11346,-0.72942,1.2584,0.33465
350,0.11606,-0.40493,-0.050894,0.11963,-0.54103,1.2363,0.28236
351,0.10566,-0.44001,-0.048945,0.11346,-0.44034,1.0336,0.20798
352,0.086824,-0.44976,-0.046996,0.092021,-0.39681,0.69292,0.12515
353,0.067661,-0.44359,-0.046347,0.061165,-0.37245,0.29243,0.051096
354,0.055643,-0.42994,-0.04992,0.025761,-0.34257,-0.086298,-0.0044465
355,0.051096,-0.40526,-0.058689,-0.013541,-0.2997,-0.39292,-0.04927
356,0.048172,-0.36401,-0.070707,-0.054792,-0.24935,-0.61508,-0.090196
357,0.041351,-0.30944,-0.079477,-0.094743,-0.2029,-0.76385,-0.12625
358,0.034855,-0.24773,-0.083375,-0.1295,-0.16945,-0.86096,-0.15288
359,0.03518,-0.18634,-0.081751,-0.15158,-0.15418,-0.93112,-0.1753
360,0.042001,-0.1321,-0.079477,-0.16068,-0.15678,-0.98894,-0.19836
361,0.049147,-0.088572,-0.081101,-0.16263,-0.17042,-1.0419,-0.22467
362,0.051745,-0.051544,-0.09182,-0.1623,-0.18407,-1.0951,-0.25292
363,0.05142,-0.01549,-0.10676,-0.15613,-0.18601,-1.1526,-0.28281
364,0.046873,0.020239,-0.11553,-0.14444,-0.16977,-1.2199,-0.31431
365,0.039078,0.05142,-0.10936,-0.12885,-0.13404,-1.3043,-0.3442
366,0.030633,0.074157,-0.089546,-0.11813,-0.089871,-1.4118,-0.37408
367,0.023487,0.086175,-0.060963,-0.11618,-0.055116,-1.5317,-0.40006
368,0.022837,0.093321,-0.027183,-0.12073,-0.0405,-1.6457,-0.41078
369,0.032582,0.099167,0.0095202,-0.12755,-0.045372,-1.7298,-0.40786
370,0.048497,0.10599,0.048497,-0.13047,-0.06616,-1.7548,-0.39519
371,0.06084,0.11801,0.082927,-0.12787,-0.094743,-1.7025,-0.37927
372,0.067011,0.13912,0.10469,-0.11813,-0.1191,-1.5703,-0.36109
373,0.062464,0.16803,0.11346,-0.10579,-0.1321,-1.3716,-0.34095
374,0.046873,0.19726,0.11248,-0.097991,-0.12787,-1.1341,-0.31561
375,0.028359,0.21577,0.10924,-0.094743,-0.10774,-0.88792,-0.28313
376,0.016016,0.21837,0.10924,-0.09117,-0.080776,-0.66088,-0.23863
377,0.012119,0.2057,0.10989,-0.090521,-0.05804,-0.47347,-0.18796
378,0.009845,0.18524,0.11216,-0.095393,-0.044398,-0.339,-0.13859
379,0.0020496,0.16153,0.11378,-0.10676,-0.034654,-0.26104,-0.095068
380,-0.013541,0.1349,0.11346,-0.12463,-0.024585,-0.21232,-0.058689
381,-0.036602,0.10566,0.10729,-0.14281,-0.0093186,-0.12722,-0.026858
382,-0.066485,0.073507,0.097868,-0.15158,0.016016,0.055968,-0.0044465
383,-0.094743,0.038103,0.0865,-0.14899,0.050771,0.34894,0.0065969
384,-0.12138,0.0017248,0.072858,-0.13567,0.089423,0.68155,0.012119
385,-0.13957,-0.024585,0.06019,-0.10903,0.12418,0.93652,0.019589
386,-0.14639,-0.035628,0.054668,-0.06616,0.14594,1.0171,0.031932
387,-0.14346,-0.029457,0.061814,-0.0028225,0.14951,0.91184,0.044924
388,-0.13729,-0.012567,0.0852,0.076106,0.1362,0.68544,0.055643
389,-0.13275,0.0088706,0.11995,0.15471,0.11638,0.43177,0.066686
390,-0.13177,0.032257,0.15503,0.22,0.10079,0.22844,0.082602
391,-0.12657,0.055643,0.18167,0.26449,0.095594,0.11151,0.10014
392,-0.11293,0.06896,0.19369,0.28496,0.099492,0.077405,0.11151
393,-0.089546,0.063113,0.19174,0.28008,0.11313,0.10924,0.11151
394,-0.062912,0.032582,0.17777,0.2541,0.13555,0.20116,0.10112
395,-0.0405,-0.019712,0.14984,0.20798,0.16315,0.36746,0.086824
396,-0.027183,-0.082725,0.11378,0.14691,0.18751,0.60911,0.074482
397,-0.019063,-0.14541,0.071558,0.082277,0.20668,0.88293,0.069285
398,-0.0073698,-0.19348,0.029009,0.028684,0.22,1.1161,0.06961
399,0.016341,-0.21817,-0.011592,-0.0021729,0.22682,1.2532,0.078704
400,0.055968,-0.21914,-0.050569,-0.0089938,0.22714,1.2808,0.095269
401,0.10436,-0.20388,-0.088896,-0.0011985,0.22259,1.2172,0.12125
402,0.15244,-0.17919,-0.1308,0.014717,0.21123,1.0726,0.15309
403,0.19336,-0.14964,-0.174,0.03583,0.19791,0.8459,0.18881
404,0.22097,-0.11975,-0.21297,0.059541,0.18492,0.55552,0.22
405,0.22844,-0.087922,-0.23993,0.078055,0.16738,0.24663,0.23331
406,0.2148,-0.052518,-0.24415,0.088124,0.14561,-0.025559,0.22454
407,0.18719,-0.012242,-0.22304,0.095594,0.12678,-0.21557,0.19921
408,0.15698,0.031607,-0.18309,0.11963,0.12028,-0.30424,0.16608
409,0.12515,0.075456,-0.13859,0.1768,0.12905,-0.29905,0.13262
410,0.092346,0.10566,-0.10124,0.26027,0.14919,-0.23246,0.10274
411,0.060515,0.10924,-0.077203,0.334,0.17745,-0.14022,0.077405
412,0.032906,0.078704,-0.06681,0.35576,0.20213,-0.022311,0.061489
413,0.014392,0.025761,-0.066485,0.3025,0.22584,0.14886,0.064413
414,0.0059473,-0.028807,-0.067784,0.18687,0.25248,0.36389,0.090072
415,0.0088706,-0.061288,-0.063886,0.045249,0.28106,0.56397,0.13944
416,0.01764,-0.053168,-0.054142,-0.083375,0.30769,0.6731,0.19499
417,0.025111,-0.00054884,-0.038876,-0.18082,0.32816,0.6403,0.23754
418,0.031282,0.079679,-0.016789,-0.24383,0.347,0.5003,0.2619
419,0.038753,0.16348,0.015042,-0.27988,0.385,0.37201,0.27879
420,0.046223,0.22747,0.055318,-0.30132,0.4688,0.38987,0.29405
421,0.051096,0.26514,0.097868,-0.31691,0.6273,0.59677,0.30964
422,0.053044,0.27684,0.13717,-0.33185,0.86409,0.90826,0.32393
423,0.051745,0.27359,0.16218,-0.34517,1.1444,1.1772,0.33952
424,0.05272,0.26677,0.16965,-0.33802,1.4101,1.2984,0.35609
425,0.057917,0.2619,0.16965,-0.27728,1.6089,1.2558,0.36876
426,0.067661,0.2606,0.1742,-0.14379,1.7063,1.1132,0.37201
427,0.080978,0.26352,0.18492,0.03583,1.7021,0.95374,0.36356
428,0.095919,0.26644,0.19953,0.21707,1.6202,0.82186,0.34764
429,0.10891,0.26612,0.21447,0.37428,1.4728,0.72052,0.32361
430,0.11638,0.25865,0.22877,0.52142,1.2396,0.62503,0.2947
431,0.11931,0.24923,0.24306,0.68869,0.88715,0.51232,0.26027
432,0.11443,0.24208,0.25507,0.87968,0.43307,0.39117,0.21415
433,0.094295,0.22065,0.2541,1.0453,-0.041799,0.3038,0.14854
434,0.056617,0.16543,0.23461,1.1178,-0.43352,0.258,0.06961
435,0.011469,0.081303,0.19791,1.0573,-0.67907,0.19466,-0.0089938
436,-0.026533,-0.0031473,0.15438,0.87871,-0.78301,0.056292,-0.068109
437,-0.048945,-0.056741,0.11378,0.63802,-0.80282,-0.14964,-0.093119
438,-0.056741,-0.06616,0.080003,0.40579,-0.80575,-0.3403,-0.086623
439,-0.054792,-0.039526,0.054344,0.23039,-0.82718,-0.40721,-0.062587
440,-0.04927,0.0023744,0.037454,0.1336,-0.87038,-0.27988,-0.039526
441,-0.039526,0.044275,0.030308,0.10631,-0.91748,0.03453,-0.025884
442,-0.026209,0.079354,0.028359,0.11866,-0.94314,0.43469,-0.021012
443,-0.010943,0.10729,0.026735,0.1349,-0.92463,0.7647,-0.022636
444,0.011144,0.12645,0.023162,0.13165,-0.85479,0.90631,-0.029782
445,0.035505,0.13555,0.016991,0.10112,-0.74858,0.8446,-0.038227
446,0.053694,0.13457,0.0059473,0.049472,-0.63392,0.64582,-0.045697
447,0.058241,0.12483,-0.0076946,-0.0099683,-0.53875,0.40124,-0.059664
448,0.045899,0.10826,-0.022961,-0.067784,-0.47282,0.1664,-0.0824
449,0.019914,0.098517,-0.03238,-0.12105,-0.43352,-0.051868,-0.11293
450,-0.011267,0.11021,-0.034978,-0.16198,-0.40916,-0.26332,-0.14346
451,-0.046671,0.14659,-0.029132,-0.18342,-0.39292,-0.46405,-0.16458
452,-0.077853,0.18297,-0.019712,-0.18536,-0.37733,-0.65081,-0.17205
453,-0.10384,0.19109,-0.0093186,-0.18017,-0.35816,-0.81484,-0.17205
454,-0.12333,0.14756,-0.0021729,-0.18374,-0.33023,-0.94184,-0.17237
455,-0.13664,0.043625,-0.0067202,-0.2042,-0.30002,-1.0139,-0.17854
456,-0.14541,-0.10449,-0.026533,-0.24123,-0.27469,-1.0123,-0.18277
457,-0.14801,-0.26072,-0.056416,-0.2867,-0.26397,-0.92463,-0.17562
458,-0.14541,-0.38545,-0.090196,-0.33088,-0.27858,-0.76287,-0.15256
459,-0.13892,-0.45008,-0.1204,-0.36238,-0.3351,-0.56506,-0.11456
460,-0.13047,-0.44878,-0.14022,-0.38382,-0.46145,-0.38707,-0.07493
461,-0.1217,-0.39746,-0.15158,-0.40591,-0.66608,-0.27631,-0.046022
462,-0.11586,-0.31691,-0.15581,-0.43871,-0.90839,-0.25227,-0.035303
463,-0.11293,-0.22726,-0.15451,-0.48029,-1.1003,-0.30067,-0.042774
464,-0.10806,-0.14411,-0.14931,-0.51342,-1.1614,-0.39032,-0.059664
465,-0.098316,-0.075579,-0.14022,-0.52024,-1.0711,-0.48744,-0.07428
466,-0.084674,-0.021012,-0.1269,-0.49393,-0.86681,-0.56929,-0.083375
467,-0.068109,0.028034,-0.10741,-0.43936,-0.62158,-0.62938,-0.088572
468,-0.046996,0.079679,-0.081751,-0.36823,-0.40461,-0.67128,-0.09929
469,-0.027508,0.13587,-0.053492,-0.29742,-0.2565,-0.70181,-0.11456
470,-0.018088,0.18784,-0.033679,-0.23928,-0.17562,-0.72747,-0.12852
471,-0.021012,0.22357,-0.027833,-0.19901,-0.13307,-0.74761,-0.1308
472,-0.02426,0.22747,-0.030106,-0.17367,-0.10351,-0.7554,-0.11488
473,-0.016789,0.19174,-0.038227,-0.15776,-0.07493,-0.73624,-0.081426
474,0.0039985,0.11833,-0.051219,-0.14834,-0.053168,-0.6768,-0.036602
475,0.025111,0.021863,-0.071032,-0.15451,-0.050894,-0.58585,0.009845
476,0.039078,-0.073955,-0.092469,-0.17627,-0.064536,-0.49263,0.044599
477,0.040702,-0.15126,-0.11131,-0.21232,-0.080451,-0.428,0.058891
478,0.03583,-0.20128,-0.12917,-0.2591,-0.092469,-0.40461,0.048822
479,0.029658,-0.22629,-0.14704,-0.30457,-0.10286,-0.40558,0.016991
480,0.019264,-0.23051,-0.15905,-0.3416,-0.11748,-0.40428,-0.027508
481,0.0088706,-0.22174,-0.16165,-0.3705,-0.13957,-0.37538,-0.069408
482,0.0043233,-0.2029,-0.15321,-0.39779,-0.16165,-0.30847,-0.095393
483,0.0085458,-0.17302,-0.13242,-0.42215,-0.17075,-0.20128,-0.098316
484,0.020888,-0.12657,-0.10221,-0.44164,-0.14704,-0.064211,-0.079477
485,0.0433,-0.06681,-0.06616,-0.44521,-0.077853,0.077405,-0.048296
486,0.06831,0.0039985,-0.027833,-0.41728,0.038103,0.19206,-0.019388
487,0.087799,0.083251,0.0065969,-0.34517,0.18622,0.25475,0.0014
488,0.098193,0.16153,0.036154,-0.22629,0.33205,0.24695,0.010819
489,0.099492,0.23039,0.059216,-0.063237,0.43697,0.16608,0.0085458
490,0.090072,0.28268,0.079354,0.13522,0.48341,0.033881,-0.0024977
491,0.074482,0.31192,0.099492,0.35252,0.47919,-0.12787,-0.019712
492,0.054668,0.32263,0.11963,0.55909,0.44866,-0.30002,-0.043748
493,0.03583,0.32263,0.14496,0.71143,0.41585,-0.47412,-0.072006
494,0.020239,0.31874,0.1703,0.77931,0.39442,-0.64367,-0.10124
495,0.0072465,0.30997,0.19076,0.77964,0.38954,-0.80087,-0.13047
496,-0.0011985,0.3012,0.2096,0.78159,0.40319,-0.93729,-0.15386
497,-0.0028225,0.29957,0.23429,0.86864,0.44086,-1.0487,-0.16588
498,0.0026992,0.30899,0.26937,1.0512,0.50388,-1.1309,-0.16295
499,0.014068,0.31874,0.30964,1.2409,0.57761,-1.178,-0.14087
500,0.026735,0.31386,0.33952,1.3224,0.63575,-1.1919,-0.10351
501,0.03583,0.27976,0.34797,1.2373,0.65264,-1.1809,-0.061613
502,0.036479,0.20635,0.33303,1.0099,0.61724,-1.1546,-0.023935
503,0.022837,0.097868,0.29892,0.73482,0.53603,-1.1208,-0.00087364
504,0.00010078,-0.030106,0.2489,0.5094,0.43145,-1.0828,0.0033489
505,-0.020037,-0.15483,0.19271,0.37883,0.32231,-1.0396,-0.0063954
506,-0.034329,-0.25715,0.1349,0.31841,0.21967,-0.9766,-0.021012
507,-0.04115,-0.32536,0.073832,0.26937,0.12385,-0.85739,-0.029132
508,-0.044073,-0.35914,0.010495,0.18134,0.04395,-0.631,-0.022311
509,-0.045372,-0.36758,-0.047971,0.042326,-0.013866,-0.26299,0.0056225
510,-0.0405,-0.36011,-0.097991,-0.12657,-0.039851,0.23039,0.053369
511,-0.026533,-0.34484,-0.14022,-0.28703,-0.031406,0.76567,0.10729
512,-0.0015233,-0.32568,-0.17627,-0.40883,0.00075039,1.2318,0.14984
513,0.029333,-0.30067,-0.20713,-0.48126,0.032257,1.539,0.1677
514,0.055643,-0.27014,-0.23344,-0.51245,0.039727,1.6592,0.15958
515,0.071558,-0.23896,-0.25552,-0.52316,0.01017,1.6154,0.13035
516,0.074157,-0.21785,-0.27923,-0.53096,-0.046347,1.4669,0.08585
517,0.064413,-0.21525,-0.30067,-0.54005,-0.11098,1.275,0.037778
518,0.048497,-0.22629,-0.31236,-0.55045,-0.16782,1.0915,0.00010078
519,0.03453,-0.24286,-0.30457,-0.56019,-0.19771,0.96153,-0.013541
520,0.033231,-0.25357,-0.27534,-0.56019,-0.19056,0.90859,-0.00022403
521,0.045574,-0.24773,-0.22824,-0.54623,-0.15223,0.93165,0.028684
522,0.061814,-0.22239,-0.17854,-0.51959,-0.098316,1.0086,0.054344
523,0.06961,-0.18569,-0.14281,-0.49231,-0.0405,1.1083,0.062789
524,0.062139,-0.14541,-0.13177,-0.47022,0.016016,1.2061,0.050771
525,0.046548,-0.10286,-0.14022,-0.44813,0.078704,1.2893,0.028359
526,0.031932,-0.061937,-0.15093,-0.42052,0.15861,1.3497,0.003024
527,0.024461,-0.02426,-0.14769,-0.38057,0.25702,1.3796,-0.018738
528,0.023162,0.0072465,-0.12073,-0.32828,0.35901,1.361,-0.034978
529,0.022837,0.033231,-0.078503,-0.26559,0.44249,1.2795,-0.047321
530,0.014717,0.053694,-0.035628,-0.19089,0.48829,1.1347,-0.057715
531,-0.0024977,0.065062,-0.0018481,-0.10351,0.49348,0.94691,-0.067784
532,-0.021986,0.069285,0.026735,-0.0076946,0.46652,0.74618,-0.07428
533,-0.031081,0.067011,0.053369,0.081303,0.42495,0.56137,-0.070382
534,-0.018738,0.065387,0.080328,0.15049,0.38467,0.40676,-0.04992
535,0.0095202,0.071234,0.10566,0.19563,0.36226,0.27944,-0.017439
536,0.036804,0.0865,0.12937,0.22065,0.35836,0.15406,0.015042
537,0.045249,0.10274,0.14919,0.23039,0.35901,-0.0041217,0.034855
538,0.029333,0.11021,0.16185,0.22357,0.34277,-0.21102,0.047523
539,0.0020496,0.10989,0.169,0.19986,0.29535,-0.43806,0.059865
540,-0.016789,0.11606,0.17257,0.1703,0.22032,-0.61931,0.083576
541,-0.01484,0.13457,0.17972,0.15893,0.14074,-0.71285,0.12807
542,0.0062721,0.16608,0.19499,0.19174,0.07773,-0.72682,0.19531
543,0.039402,0.19888,0.21772,0.26319,0.030308,-0.70441,0.27521
544,0.071558,0.22194,0.23721,0.33693,-0.01549,-0.69434,0.35252
545,0.096569,0.21837,0.23948,0.36616,-0.072656,-0.72325,0.41585
546,0.10826,0.17939,0.22065,0.32328,-0.14964,-0.77229,0.46003
547,0.10242,0.10989,0.18589,0.2148,-0.24383,-0.78886,0.48179
548,0.082277,0.029333,0.14529,0.07773,-0.33997,-0.7161,0.47984
549,0.059865,-0.043099,0.10599,-0.045697,-0.42215,-0.5105,0.45938
550,0.044924,-0.095068,0.074157,-0.1256,-0.47379,-0.17594,0.42397
551,0.038103,-0.1204,0.05142,-0.15743,-0.48094,0.2187,0.3837
552,0.039402,-0.12138,0.037454,-0.15288,-0.44489,0.57956,0.34797
553,0.042001,-0.10124,0.029333,-0.13112,-0.38804,0.83908,0.32069
554,0.042651,-0.064861,0.025436,-0.10936,-0.33737,0.98817,0.30152
555,0.040052,-0.021661,0.021538,-0.095717,-0.30132,1.0612,0.28366
556,0.038753,0.024461,0.018615,-0.089871,-0.26592,1.109,0.26222
557,0.039078,0.072208,0.018615,-0.081426,-0.20193,1.1626,0.23786
558,0.049472,0.12743,0.025761,-0.063561,-0.092794,1.2087,0.20993
559,0.067336,0.18914,0.042651,-0.039201,0.054668,1.2061,0.17485
560,0.0852,0.25053,0.06961,-0.011592,0.20928,1.1064,0.1297
561,0.093645,0.29827,0.10371,0.016341,0.33498,0.88455,0.075781
562,0.087474,0.32361,0.13132,0.041351,0.40351,0.55552,0.015042
563,0.062789,0.32004,0.13555,0.057267,0.40351,0.1651,-0.04992
564,0.024461,0.27976,0.10924,0.06084,0.34732,-0.22629,-0.11878
565,-0.020687,0.20148,0.056617,0.044924,0.25995,-0.55759,-0.18894
566,-0.071682,0.098193,-0.010293,0.013743,0.17062,-0.77976,-0.2526
567,-0.1178,-0.0057458,-0.075255,-0.018413,0.0865,-0.87038,-0.2997
568,-0.14996,-0.086298,-0.12787,-0.038876,-0.0076946,-0.84927,-0.31951
569,-0.15743,-0.12755,-0.15841,-0.043748,-0.12852,-0.77684,-0.30327
570,-0.14184,-0.12787,-0.1675,-0.037902,-0.26494,-0.70668,-0.26267
571,-0.10903,-0.096692,-0.15743,-0.027508,-0.38057,-0.66933,-0.21622
572,-0.066485,-0.052193,-0.13924,-0.021661,-0.44586,-0.68817,-0.17562
573,-0.031081,-0.0096434,-0.1204,-0.026209,-0.46178,-0.79081,-0.14541
574,-0.01484,0.021863,-0.10676,-0.044073,-0.44456,-0.99381,-0.13015
575,-0.01484,0.044599,-0.10091,-0.069733,-0.4137,-1.2715,-0.13047
576,-0.019712,0.060515,-0.097991,-0.09182,-0.38025,-1.5375,-0.13632
577,-0.018413,0.072858,-0.092794,-0.10351,-0.34614,-1.6834,-0.14152
578,-0.0057458,0.079679,-0.086298,-0.10286,-0.30879,-1.6301,-0.14216
579,0.013743,0.0852,-0.077853,-0.098641,-0.26397,-1.3602,-0.1321
580,0.034206,0.088448,-0.072656,-0.097017,-0.21102,-0.9191,-0.10254
581,0.054993,0.087474,-0.076879,-0.10351,-0.15418,-0.3744,-0.047321
582,0.074157,0.081303,-0.086623,-0.11228,-0.097991,0.22584,0.036479
583,0.091372,0.075456,-0.097341,-0.11456,-0.038876,0.87416,0.14009
584,0.10761,0.075781,-0.098965,-0.10676,0.021863,1.554,0.24338
585,0.11638,0.085525,-0.08305,-0.086623,0.072208,2.1675,0.32198
586,0.11151,0.10599,-0.047971,-0.055441,0.096244,2.5443,0.35187
587,0.094945,0.131,-0.0047713,-0.022311,0.089098,2.5381,0.32621
588,0.075131,0.15601,0.03453,0.014392,0.060515,2.1282,0.2593
589,0.06019,0.18037,0.062139,0.055643,0.030633,1.4536,0.17874
590,0.052395,0.19888,0.075456,0.097218,0.017316,0.73157,0.10534
591,0.043625,0.20505,0.078704,0.12418,0.020888,0.16121,0.050121
592,0.029333,0.19823,0.073507,0.12548,0.019264,-0.16912,0.0065969
593,0.009845,0.18492,0.061814,0.10534,-0.0080194,-0.27956,-0.032705
594,-0.0083442,0.16835,0.049472,0.076431,-0.059664,-0.25422,-0.070382
595,-0.018738,0.14529,0.041676,0.06019,-0.11715,-0.19219,-0.10514
596,-0.017439,0.11801,0.040702,0.087149,-0.16263,-0.16523,-0.12852
597,-0.0050961,0.093645,0.051745,0.17615,-0.18796,-0.19608,-0.12787
598,0.013743,0.07708,0.070584,0.32686,-0.19089,-0.23474,-0.097017
599,0.038103,0.06961,0.093321,0.5159,-0.16847,-0.18374,-0.039851
600,0.065712,0.074157,0.11801,0.70688,-0.13145,0.031932,0.029009
601,0.092021,0.089423,0.14464,0.86376,-0.09117,0.41131,0.092671
602,0.10859,0.10534,0.17355,0.95893,-0.05804,0.85369,0.13717
603,0.10859,0.10761,0.20181,0.9781,-0.032705,1.2133,0.15276
604,0.087149,0.090722,0.22259,0.9245,-0.013866,1.3653,0.13847
605,0.048497,0.056292,0.23006,0.81439,0.00042559,1.262,0.10469
606,0.0046481,0.011144,0.22097,0.67213,0.014717,0.94334,0.06019
607,-0.035628,-0.030756,0.20246,0.52207,0.034206,0.49381,0.0072465
608,-0.067784,-0.057715,0.18037,0.38922,0.059541,-0.00054884,-0.054792
609,-0.087922,-0.071032,0.15763,0.28983,0.090722,-0.44878,-0.12235
610,-0.098965,-0.081101,0.13067,0.22292,0.11801,-0.74631,-0.18601
611,-0.10254,-0.098641,0.097218,0.1651,0.12905,-0.84602,-0.23376
612,-0.096367,-0.12722,0.059216,0.096569,0.11378,-0.78853,-0.25455
613,-0.086948,-0.16263,0.022188,0.0085458,0.07773,-0.6729,-0.24708
614,-0.079152,-0.19543,-0.0073698,-0.091495,0.035505,-0.59625,-0.22077
615,-0.072006,-0.22402,-0.022961,-0.18926,0.0010752,-0.62288,-0.19283
616,-0.062587,-0.24286,-0.025234,-0.26754,-0.017114,-0.75832,-0.17659
617,-0.052843,-0.25195,-0.017439,-0.31464,-0.014516,-0.93957,-0.17497
618,-0.041475,-0.2565,-0.0089938,-0.32828,0.008221,-1.0757,-0.18244
619,-0.025884,-0.25975,-0.0099683,-0.30944,0.04395,-1.1026,-0.18926
620,-0.0076946,-0.26299,-0.023285,-0.26819,0.078704,-1.0055,-0.18471
621,0.012768,-0.26364,-0.046671,-0.22142,0.10047,-0.82588,-0.17205
622,0.033881,-0.2565,-0.07428,-0.18861,0.10209,-0.62515,-0.15743
623,0.047523,-0.23766,-0.096367,-0.18277,0.084226,-0.45398,-0.14639
624,0.048172,-0.20518,-0.11293,-0.2068,0.049796,-0.33737,-0.14671
625,0.033556,-0.1675,-0.12203,-0.25065,0.0026992,-0.28086,-0.16198
626,0.008221,-0.13567,-0.12105,-0.2932,-0.044073,-0.26851,-0.18439
627,-0.013216,-0.11715,-0.10579,-0.31301,-0.076879,-0.27988,-0.19933
628,-0.023935,-0.12203,-0.079152,-0.29547,-0.092145,-0.2971,-0.19738
629,-0.027833,-0.14899,-0.050894,-0.22986,-0.087272,-0.31171,-0.17887
630,-0.031081,-0.18569,-0.024909,-0.10676,-0.062912,-0.32925,-0.15061
631,-0.036927,-0.2133,-0.0031473,0.081303,-0.021661,-0.36953,-0.123
632,-0.047646,-0.22532,0.0091954,0.32523,0.031282,-0.44261,-0.10936
633,-0.063886,-0.21947,0.0091954,0.58443,0.090397,-0.5446,-0.11488
634,-0.079802,-0.19673,-0.0073698,0.77672,0.14496,-0.65634,-0.13015
635,-0.086298,-0.15581,-0.036602,0.82901,0.18102,-0.75605,-0.14509
636,-0.078827,-0.09182,-0.071032,0.71857,0.19076,-0.83498,-0.15158
637,-0.059014,-0.0073698,-0.097991,0.48569,0.1703,-0.8915,-0.14834
638,-0.027833,0.0865,-0.11358,0.20895,0.12288,-0.9282,-0.13502
639,0.0072465,0.17582,-0.1217,-0.037902,0.064413,-0.94509,-0.11456
640,0.038428,0.2554,-0.12333,-0.22044,0.02706,-0.94996,-0.089221
641,0.056617,0.31711,-0.11878,-0.3416,0.044275,-0.94444,-0.063237
642,0.06084,0.35349,-0.11423,-0.428,0.1323,-0.92398,-0.035953
643,0.058241,0.36713,-0.11651,-0.51212,0.27099,-0.88857,-0.0083442
644,0.06084,0.36031,-0.12463,-0.60664,0.41033,-0.8418,0.019264
645,0.072533,0.3353,-0.13534,-0.70343,0.49965,-0.79178,0.044275
646,0.08585,0.2908,-0.14444,-0.7947,0.51297,-0.73851,0.062139
647,0.091372,0.22747,-0.15223,-0.86584,0.45613,-0.68135,0.070259
648,0.084226,0.15244,-0.15646,-0.90676,0.34894,-0.61379,0.071558
649,0.068635,0.07708,-0.15711,-0.91781,0.17485,-0.53551,0.073507
650,0.050446,0.012119,-0.15516,-0.90806,-0.11098,-0.44911,0.079679
651,0.034855,-0.032055,-0.14899,-0.8902,-0.50627,-0.35524,0.09462
652,0.027709,-0.047646,-0.13437,-0.86649,-0.91196,-0.24026,0.11931
653,0.028034,-0.03303,-0.10481,-0.8366,-1.1952,-0.062912,0.14399
654,0.029983,0.0020496,-0.061613,-0.79633,-1.2725,0.22194,0.15861
655,0.025111,0.044924,-0.013541,-0.73656,-1.1432,0.60879,0.16218
656,0.0075714,0.078704,0.029658,-0.63717,-0.87298,1.0288,0.15698
657,-0.013541,0.10014,0.064737,-0.48159,-0.55435,1.3987,0.15146
658,-0.026533,0.11476,0.092671,-0.25747,-0.25747,1.668,0.15276
659,-0.022311,0.12743,0.11443,0.037129,-0.016464,1.8236,0.16348
660,-0.023935,0.13035,0.12937,0.34927,0.11866,1.8703,0.17095
661,-0.079152,0.10404,0.13717,0.59287,0.083251,1.8245,0.15049
662,-0.174,0.057917,0.14302,0.80173,-0.052518,1.7086,0.10274
663,-0.22597,0.024786,0.15893,1.0973,-0.096042,1.5546,0.048497
664,-0.18829,0.024461,0.18849,1.4712,0.049796,1.3945,0.0088706
665,-0.0824,0.049796,0.21837,1.7723,0.32653,1.2454,-0.0060706
666,0.038428,0.084551,0.23624,1.8561,0.61821,1.0967,0.0033489
667,0.13392,0.11671,0.23689,1.682,0.8381,0.92613,0.025761
668,0.18524,0.13749,0.22194,1.3169,0.95374,0.71565,0.053694
669,0.19661,0.14594,0.20213,0.8917,0.97063,0.46328,0.075781
670,0.18687,0.15081,0.18784,0.52694,0.91313,0.18557,0.084551
671,0.17257,0.16153,0.18362,0.29145,0.81179,-0.09117,0.0852
672,0.15861,0.18264,0.18329,0.18816,0.69714,-0.33185,0.082927
673,0.14399,0.20733,0.17777,0.17972,0.58605,-0.5066,0.082927
674,0.13262,0.22097,0.1625,0.21188,0.48147,-0.58975,0.092671
675,0.12385,0.21512,0.13847,0.23526,0.3824,-0.56929,0.11638
676,0.11995,0.19434,0.11118,0.23981,0.28691,-0.4569,0.14691
677,0.11346,0.16965,0.089423,0.25832,0.19758,-0.27599,0.18264
678,0.099817,0.14724,0.078704,0.33043,0.10501,-0.060963,0.2187
679,0.042326,0.11443,0.073182,0.39084,-0.067784,0.15471,0.24241
680,-0.070707,0.063763,0.064413,0.36421,-0.34614,0.34862,0.24338
681,-0.16977,0.01894,0.055318,0.30704,-0.58163,0.50777,0.23526
682,-0.17562,0.0078962,0.05272,0.30315,-0.61768,0.6325,0.22909
683,-0.0837,0.030633,0.058566,0.32686,-0.44781,0.72962,0.23331
684,0.055643,0.061165,0.064737,0.30022,-0.17594,0.80952,0.24695
685,0.18037,0.074806,0.062789,0.1729,0.067986,0.86994,0.25637
686,0.25118,0.06019,0.049796,-0.039526,0.19953,0.89624,0.25475
687,0.25637,0.022188,0.032257,-0.27436,0.20895,0.87481,0.23981
688,0.21642,-0.020687,0.01764,-0.46697,0.14399,0.80985,0.20928
689,0.16056,-0.055116,0.0069217,-0.58325,0.067011,0.70656,0.17127
690,0.10729,-0.078178,0.0039985,-0.63035,0.017965,0.57826,0.13555
691,0.072208,-0.087272,0.0036737,-0.64237,0.0039985,0.44866,0.11021
692,0.056617,-0.0837,-0.0018481,-0.65731,0.013418,0.34375,0.093645
693,0.056292,-0.078827,-0.018413,-0.69336,0.036154,0.28301,0.080653
694,0.062464,-0.084999,-0.042124,-0.74078,0.066037,0.27944,0.065387
695,0.068635,-0.10286,-0.064861,-0.76547,0.10014,0.31127,0.049147
696,0.074482,-0.12333,-0.077203,-0.74208,0.14237,0.32361,0.041027
697,0.061814,-0.14606,-0.080127,-0.72325,0.13814,0.26709,0.045574
698,-0.0034721,-0.18277,-0.079802,-0.80542,0.0033489,0.13977,0.054993
699,-0.097017,-0.22337,-0.075579,-0.94119,-0.20778,-0.044398,0.061165
700,-0.13599,-0.22824,-0.059339,-0.94509,-0.30619,-0.28768,0.059865
701,-0.082076,-0.17919,-0.030756,-0.73591,-0.19446,-0.59235,0.048822
702,0.032257,-0.096692,0.00075039,-0.37798,0.062139,-0.95061,0.02641
703,0.14951,-0.013866,0.029333,0.0023744,0.32913,-1.343,-0.011917
704,0.22519,0.045574,0.050771,0.29795,0.49251,-1.7386,-0.062587
705,0.24273,0.068635,0.06019,0.45483,0.51265,-2.0956,-0.12463
706,0.21058,0.057592,0.057267,0.48114,0.41423,-2.3557,-0.18894
707,0.15114,0.023162,0.042975,0.41975,0.26287,-2.4811,-0.24253
708,0.084876,-0.016789,0.020888,0.32523,0.13197,-2.4571,-0.28151
709,0.028034,-0.049595,-0.0080194,0.23559,0.06896,-2.2914,-0.30619
710,-0.012567,-0.071357,-0.037252,0.16543,0.069285,-2.0053,-0.31659
711,-0.032705,-0.080776,-0.061613,0.11606,0.097218,-1.6282,-0.31301
712,-0.037252,-0.080127,-0.080451,0.083251,0.11346,-1.1936,-0.29255
713,-0.034654,-0.072981,-0.092145,0.06084,0.092996,-0.73884,-0.2513
714,-0.03173,-0.060638,-0.096042,0.040052,0.037454,-0.31042,-0.19446
715,-0.042449,-0.051544,-0.092794,-0.0060706,-0.055441,0.062139,-0.13437
716,-0.10871,-0.06681,-0.095068,-0.1623,-0.2591,0.40026,-0.089871
717,-0.24318,-0.11163,-0.10741,-0.43547,-0.59397,0.74683,-0.064211
718,-0.36596,-0.15158,-0.11521,-0.65504,-0.91618,1.0921,-0.042774
719,-0.38837,-0.15158,-0.10741,-0.65796,-1.0584,1.3526,-0.008669
720,-0.30912,-0.10968,-0.08305,-0.45073,-0.98764,1.4286,0.03453
721,-0.17822,-0.047646,-0.050894,-0.15613,-0.78301,1.2863,0.071234
722,-0.063886,0.0078962,-0.017764,0.090722,-0.55207,0.98329,0.081627
723,-0.0034721,0.038428,0.0049729,0.21545,-0.36985,0.6325,0.057592
724,-0.00022403,0.042001,0.018615,0.22292,-0.24935,0.32653,0.012119
725,-0.034004,0.028684,0.026735,0.1638,-0.16945,0.10761,-0.031406
726,-0.078178,0.016016,0.03453,0.091047,-0.10156,-0.03303,-0.054792
727,-0.10774,0.017316,0.046873,0.039727,-0.03238,-0.12333,-0.052518
728,-0.10806,0.03583,0.062464,0.022188,0.03518,-0.18179,-0.026209
729,-0.082076,0.06019,0.072533,0.031282,0.090397,-0.20388,0.015367
730,-0.045047,0.080978,0.074806,0.053044,0.11541,-0.16068,0.057267
731,-0.017439,0.087149,0.06961,0.074157,0.10599,-0.044723,0.091047
732,-0.0057458,0.064413,0.062139,0.080978,0.070909,0.10599,0.10924
733,-0.0041217,0.010495,0.053369,0.071883,0.028034,0.21577,0.10859
734,-0.00054884,-0.058689,0.038753,0.055318,-0.013541,0.22,0.091696
735,0.010495,-0.11845,0.018615,0.040377,-0.052843,0.10209,0.068635
736,0.029983,-0.14671,-0.0054209,0.034206,-0.087597,-0.095393,0.053694
737,0.057267,-0.13567,-0.031081,0.033231,-0.098965,-0.2958,0.051745
738,0.085525,-0.094418,-0.056741,0.030957,-0.047971,-0.42735,0.062139
739,0.10826,-0.039526,-0.081101,0.025761,0.091696,-0.47672,0.0852
740,0.1232,0.012443,-0.10254,0.014068,0.30087,-0.47574,0.11671
741,0.1336,0.056942,-0.11878,-0.007045,0.51687,-0.43547,0.15179
742,0.14139,0.086824,-0.12625,-0.036278,0.67635,-0.33023,0.18004
743,0.14464,0.09462,-0.1269,-0.061288,0.73871,-0.14411,0.20278
744,0.13912,0.081952,-0.12073,-0.076879,0.70623,0.098517,0.22422
745,0.12515,0.057592,-0.10741,-0.082725,0.61983,0.34732,0.24273
746,0.10989,0.028359,-0.09117,-0.084024,0.51719,0.54091,0.25475
747,0.099167,0.0039985,-0.078503,-0.080451,0.38467,0.62243,0.25443
748,0.092671,-0.0044465,-0.071032,-0.068758,0.17355,0.56104,0.23883
749,0.083251,0.0069217,-0.065835,-0.044723,-0.11521,0.36324,0.20635
750,0.067661,0.031282,-0.059989,-0.0067202,-0.39487,0.081303,0.15601
751,0.042975,0.059865,-0.054792,0.038103,-0.55987,-0.18861,0.09462
752,0.012443,0.07708,-0.04992,0.078704,-0.5511,-0.33218,0.033231
753,-0.018738,0.072858,-0.046347,0.10696,-0.40071,-0.26689,-0.01549
754,-0.043748,0.047523,-0.043423,0.11931,-0.21297,-0.011917,-0.049595
755,-0.056416,0.014068,-0.036927,0.12125,-0.10903,0.32458,-0.071682
756,-0.056091,-0.0099683,-0.021661,0.12288,-0.15353,0.60554,-0.081751
757,-0.043748,-0.017114,0.0010752,0.131,-0.32438,0.73936,-0.079802
758,-0.034654,-0.008669,0.027385,0.14561,-0.54395,0.71793,-0.072006
759,-0.039851,0.0010752,0.048172,0.16998,-0.72162,0.61041,-0.062912
760,-0.061937,-0.0047713,0.055318,0.20603,-0.79795,0.51492,-0.055441
761,-0.095068,-0.03238,0.047847,0.24858,-0.76125,0.49673,-0.052518
762,-0.1282,-0.062262,0.029009,0.28756,-0.63782,0.56007,-0.051868
763,-0.15126,-0.072656,0.008221,0.31679,-0.47509,0.66368,-0.047646
764,-0.15873,-0.05739,-0.0031473,0.32718,-0.31204,0.75235,-0.034978
765,-0.14606,-0.021012,-0.00022403,0.30769,-0.16945,0.79913,-0.01484
766,-0.11553,0.024137,0.0026992,0.25572,-0.051544,0.804,0.0095202
767,-0.074605,0.067661,-0.0041217,0.18004,0.039078,0.78289,0.037454
768,-0.038227,0.10274,-0.023285,0.10177,0.11411,0.74651,0.067336
769,-0.011917,0.12937,-0.04862,0.042651,0.18622,0.70298,0.095269
770,0.003024,0.15114,-0.069408,0.0088706,0.25702,0.6705,0.11963
771,0.0046481,0.17322,-0.078827,-0.0024977,0.32751,0.68739,0.14107
772,-0.0037969,0.19596,-0.076229,-0.0034721,0.39961,0.80367,0.15731
773,-0.011592,0.21447,-0.058365,0.0023744,0.47984,1.0388,0.16868
774,-0.0089938,0.22162,-0.026858,0.022512,0.56364,1.3653,0.18654
775,0.008221,0.21123,0.012119,0.066362,0.63315,1.7329,0.21707
776,0.03583,0.18946,0.048822,0.12645,0.65946,2.0503,0.25215
777,0.062789,0.16413,0.076106,0.17745,0.62373,2.1828,0.27294
778,0.075131,0.14789,0.091696,0.19434,0.53051,2.0263,0.26644
779,0.069285,0.14951,0.095269,0.16478,0.39767,1.5809,0.22909
780,0.053369,0.17062,0.091047,0.096893,0.25053,0.95828,0.1664
781,0.035505,0.20246,0.0865,0.0088706,0.11216,0.31386,0.092346
782,0.021213,0.23266,0.087474,-0.084674,-0.011917,-0.22012,0.015692
783,0.014717,0.25637,0.093321,-0.16912,-0.12625,-0.58618,-0.055766
784,0.014068,0.26547,0.10339,-0.23571,-0.23766,-0.80445,-0.11553
785,0.020564,0.24371,0.10924,-0.28053,-0.33802,-0.93437,-0.16035
786,0.029009,0.18524,0.10696,-0.30554,-0.39909,-1.0321,-0.19413
787,0.033231,0.10631,0.10177,-0.31724,-0.39097,-1.1335,-0.22434
788,0.036804,0.044924,0.10794,-0.32178,-0.30035,-1.2543,-0.25682
789,0.041027,0.022512,0.1349,-0.31756,-0.14184,-1.4027,-0.29353
790,0.041676,0.040052,0.17874,-0.2867,0.050121,-1.5632,-0.33315
791,0.032906,0.073182,0.23071,-0.20323,0.23818,-1.6999,-0.36563
792,0.015692,0.091372,0.28561,-0.035628,0.38987,-1.7724,-0.38057
793,-0.0021729,0.070259,0.33985,0.24306,0.48504,-1.7558,-0.37245
794,-0.014516,0.0078962,0.38337,0.62308,0.50842,-1.6558,-0.34582
795,-0.016464,-0.086298,0.40481,1.0294,0.4584,-1.4934,-0.30749
796,-0.008669,-0.19868,0.39539,1.3614,0.34862,-1.3008,-0.26202
797,0.0023744,-0.30717,0.35576,1.5361,0.20603,-1.1101,-0.21655
798,0.0088706,-0.39259,0.2921,1.5351,0.058566,-0.94931,-0.18049
799,0.0072465,-0.44359,0.2148,1.4107,-0.072006,-0.82978,-0.15646
800,-0.0024977,-0.45495,0.13749,1.261,-0.16945,-0.74891,-0.14281
801,-0.021986,-0.43871,0.071234,1.1753,-0.22597,-0.69466,-0.14054
802,-0.046022,-0.40656,0.018615,1.1707,-0.24188,-0.65601,-0.14931
803,-0.072331,-0.36531,-0.021661,1.1818,-0.23311,-0.6271,-0.16588
804,-0.093444,-0.32178,-0.054792,1.1148,-0.22044,-0.60274,-0.18342
805,-0.10254,-0.28053,-0.081101,0.91671,-0.2107,-0.56864,-0.19089
806,-0.096042,-0.23993,-0.10124,0.60392,-0.20063,-0.51115,-0.18147
807,-0.075579,-0.19576,-0.11456,0.24793,-0.17367,-0.42377,-0.15516
808,-0.045372,-0.14704,-0.1256,-0.069733,-0.12073,-0.31821,-0.1256
809,-0.014516,-0.097341,-0.13729,-0.29612,-0.047971,-0.20615,-0.10481
810,0.009845,-0.049595,-0.14834,-0.42897,0.028684,-0.097991,-0.092145
811,0.02641,-0.0073698,-0.15905,-0.49523,0.095594,-0.00054884,-0.079477
812,0.037778,0.029983,-0.16588,-0.53161,0.14269,0.081952,-0.063886
813,0.046873,0.064413,-0.16945,-0.56084,0.1638,0.14367,-0.045697
814,0.053044,0.092996,-0.17042,-0.58748,0.15698,0.18004,-0.023935
815,0.05272,0.11118,-0.1727,-0.60567,0.13555,0.19499,-0.00087364
816,0.045574,0.11931,-0.17627,-0.62223,0.12353,0.19434,0.023162
817,0.031932,0.12093,-0.17887,-0.64562,0.13132,0.1742,0.050121
818,0.016666,0.12255,-0.17724,-0.6794,0.16348,0.13002,0.083576
819,0.0078962,0.13132,-0.16588,-0.72097,0.22194,0.064088,0.12255
820,0.0069217,0.14626,-0.14541,-0.76385,0.30315,-0.021986,0.15373
821,0.0088706,0.15958,-0.11878,-0.79828,0.39539,-0.12365,0.1664
822,0.0085458,0.16673,-0.089871,-0.81776,0.47464,-0.22661,0.15828
823,0.0052977,0.1664,-0.060638,-0.82329,0.5159,-0.30684,0.14204
824,-0.00022403,0.16056,-0.036278,-0.81159,0.49998,-0.34127,0.1336
825,-0.0024977,0.15114,-0.017439,-0.78983,0.40806,-0.32633,0.14204
826,0.003024,0.14042,-0.0060706,-0.77262,0.21577,-0.25682,0.1677
827,0.009845,0.1284,-0.007045,-0.77489,-0.089871,-0.09117,0.20246
828,0.010495,0.11378,-0.025559,-0.79145,-0.48679,0.22065,0.23526
829,0.0056225,0.095919,-0.05739,-0.80087,-0.89897,0.65816,0.26319
830,0.0010752,0.07708,-0.090845,-0.77814,-1.216,1.1337,0.28398
831,0.0010752,0.066362,-0.11098,-0.7096,-1.3478,1.5744,0.2973
832,0.0043233,0.069934,-0.10806,-0.59235,-1.2777,1.9528,0.30087
833,0.011794,0.082277,-0.082076,-0.42735,-1.0578,2.2487,0.29308
834,0.022837,0.10047,-0.039526,-0.22142,-0.77034,2.4215,0.27261
835,0.034206,0.1219,0.01017,0.020888,-0.49263,2.4238,0.24111
836,0.039727,0.14529,0.061489,0.28398,-0.27404,2.2345,0.20083
837,0.038428,0.16543,0.10989,0.52856,-0.13404,1.8739,0.15438
838,0.034855,0.18362,0.14951,0.70493,-0.060313,1.4104,0.10371
839,0.030633,0.20765,0.17712,0.78549,-0.02426,0.93879,0.05207
840,0.025436,0.24306,0.19206,0.77769,0.010819,0.54383,0.0085458
841,0.022837,0.28561,0.19531,0.70039,0.071234,0.26839,-0.015815
842,0.031282,0.32653,0.18946,0.57371,0.15081,0.099492,-0.019388
843,0.051745,0.35706,0.1768,0.40871,0.22032,-0.015815,-0.013216
844,0.075131,0.37525,0.16023,0.22194,0.25345,-0.14509,-0.012567
845,0.092021,0.38337,0.14432,0.038428,0.25475,-0.33088,-0.022311
846,0.10209,0.3837,0.13002,-0.11618,0.24208,-0.58098,-0.041799
847,0.10599,0.37558,0.11833,-0.21622,0.23136,-0.86031,-0.063561
848,0.10794,0.35739,0.11183,-0.25195,0.23299,-1.1263,-0.078503
849,0.11443,0.32913,0.11183,-0.22856,0.25637,-1.3478,-0.084024
850,0.12288,0.296,0.11606,-0.16393,0.30672,-1.4995,-0.082725
851,0.13327,0.25735,0.1206,-0.080127,0.37428,-1.5645,-0.078827
852,0.13879,0.20798,0.1219,0.0056225,0.44054,-1.5411,-0.073631
853,0.14107,0.14269,0.11703,0.078704,0.48991,-1.4583,-0.069733
854,0.13555,0.066037,0.10566,0.14107,0.5094,-1.3784,-0.069083
855,0.1206,-0.013866,0.088448,0.19401,0.49153,-1.3712,-0.075255
856,0.097868,-0.084999,0.070909,0.22844,0.43859,-1.4567,-0.085648
857,0.071234,-0.14184,0.054993,0.24111,0.36811,-1.5947,-0.094743
858,0.043625,-0.18601,0.039402,0.23169,0.2999,-1.7275,-0.096042
859,0.023162,-0.22532,0.020239,0.20668,0.24695,-1.8052,-0.085973
860,0.018615,-0.26299,0.0010752,0.17127,0.20863,-1.7886,-0.063237
861,0.028684,-0.30067,-0.014191,0.12483,0.17907,-1.6678,-0.029782
862,0.039727,-0.34127,-0.028807,0.059541,0.13912,-1.4602,0.0052977
863,0.03453,-0.38057,-0.046996,-0.033679,0.067986,-1.2036,0.032257
864,0.008221,-0.41533,-0.07493,-0.14964,-0.043099,-0.9308,0.041351
865,-0.026858,-0.44489,-0.11326,-0.26234,-0.17822,-0.64432,0.031282
866,-0.056741,-0.47022,-0.1597,-0.34192,-0.29515,-0.32081,0.012768
867,-0.077528,-0.48711,-0.20713,-0.36856,-0.35556,0.065712,0.0014
868,-0.084674,-0.48808,-0.24318,-0.34452,-0.34679,0.50388,0.0056225
869,-0.076554,-0.46795,-0.26202,-0.27923,-0.27761,0.93197,0.026735
870,-0.057715,-0.42345,-0.26299,-0.19608,-0.17789,1.2681,0.054993
871,-0.034978,-0.35849,-0.24968,-0.11651,-0.084349,1.4526,0.078379
872,-0.011267,-0.28216,-0.22921,-0.057065,-0.030756,1.4682,0.0865
873,0.0091954,-0.20225,-0.2068,-0.023935,-0.031081,1.3461,0.075456
874,0.022837,-0.12852,-0.18666,-0.013866,-0.080451,1.1545,0.047847
875,0.029009,-0.06681,-0.17594,-0.017764,-0.16133,0.97128,0.0095202
876,0.027385,-0.022636,-0.17107,-0.022311,-0.24773,0.85467,-0.029132
877,0.019914,0.0059473,-0.16393,-0.0083442,-0.31561,0.82706,-0.060638
878,0.0085458,0.021538,-0.14801,0.046223,-0.35004,0.87513,-0.080776
879,-0.0057458,0.02641,-0.1191,0.14334,-0.34972,0.95666,-0.087922
880,-0.019712,0.024786,-0.077528,0.2476,-0.31431,1.006,-0.082725
881,-0.028157,0.020888,-0.032705,0.31516,-0.23733,0.96186,-0.070382
882,-0.033679,0.020239,0.0088706,0.32296,-0.11098,0.79848,-0.052518
883,-0.035303,0.023162,0.039402,0.27749,0.059865,0.53733,-0.02426
884,-0.036602,0.029333,0.055968,0.19986,0.25215,0.23624,0.019589
885,-0.035303,0.040052,0.061489,0.11151,0.43047,-0.031081,0.076755
886,-0.03173,0.057917,0.055318,0.016991,0.56104,-0.17952,0.13652
887,-0.02426,0.079679,0.042651,-0.090196,0.62763,-0.16133,0.19011
888,-0.010293,0.099817,0.029983,-0.21557,0.64712,-0.0018481,0.23851
889,0.0091954,0.11346,0.024137,-0.36141,0.64744,0.22519,0.28463
890,0.034855,0.11963,0.027385,-0.52122,0.62698,0.48179,0.32783
891,0.061814,0.11931,0.040052,-0.68264,0.53084,0.82544,0.3746
892,0.088773,0.11801,0.06019,-0.82231,0.32101,1.3065,0.423
893,0.11443,0.12288,0.088448,-0.90351,0.044924,1.8106,0.46847
894,0.14139,0.13879,0.12028,-0.89442,-0.19738,2.0987,0.50485
895,0.169,0.16673,0.15276,-0.78041,-0.3364,2.0084,0.52174
896,0.19499,0.19986,0.18557,-0.56117,-0.37115,1.5839,0.51427
897,0.2135,0.22584,0.2174,-0.25747,-0.35751,1.0252,0.48536
898,0.21577,0.24013,0.24663,0.10664,-0.36206,0.53376,0.43534
899,0.19888,0.23916,0.26677,0.52174,-0.4202,0.20083,0.36648
900,0.1664,0.22844,0.27456,0.95763,-0.52576,-0.0031473,0.28918
901,0.12418,0.21252,0.26872,1.3276,-0.62775,-0.1623,0.21285
902,0.076755,0.19011,0.24663,1.5192,-0.66933,-0.33997,0.13977
903,0.029009,0.15991,0.20928,1.4721,-0.62093,-0.53486,0.067661
904,-0.01484,0.1206,0.16218,1.2142,-0.49556,-0.70571,-0.0050961
905,-0.04862,0.076755,0.11378,0.8459,-0.33543,-0.81224,-0.074605
906,-0.070707,0.037454,0.071558,0.48374,-0.19641,-0.85122,-0.13664
907,-0.080127,0.009845,0.039078,0.2096,-0.10838,-0.8496,-0.18666
908,-0.076229,0.00042559,0.017965,0.05207,-0.080127,-0.83498,-0.22694
909,-0.063886,0.012443,0.010495,-0.0089938,-0.093444,-0.82686,-0.26137
910,-0.050244,0.041351,0.016016,-0.016789,-0.11943,-0.83855,-0.2906
911,-0.044398,0.074482,0.036479,-0.010618,-0.13827,-0.87038,-0.31691
912,-0.044723,0.097868,0.063113,-0.0076946,-0.13827,-0.90611,-0.34062
913,-0.04927,0.099492,0.084551,-0.013866,-0.12105,-0.9256,-0.36173
914,-0.053492,0.074482,0.092996,-0.022961,-0.089546,-0.91521,-0.37765
915,-0.058689,0.032582,0.089098,-0.027833,-0.050244,-0.87818,-0.38707
916,-0.067459,-0.0093186,0.077405,-0.021986,0.0014,-0.82621,-0.38545
917,-0.075255,-0.032705,0.066362,-0.0024977,0.065387,-0.76742,-0.3718
918,-0.080127,-0.035303,0.06019,0.021863,0.1297,-0.70376,-0.34809
919,-0.080127,-0.017764,0.064737,0.040702,0.1716,-0.62905,-0.31886
920,-0.07493,0.010819,0.076106,0.046223,0.17745,-0.53096,-0.28248
921,-0.067459,0.039727,0.086175,0.03453,0.15568,-0.39584,-0.23766
922,-0.064861,0.059216,0.084226,0.0072465,0.13132,-0.22467,-0.18212
923,-0.068758,0.065712,0.06961,-0.028482,0.1284,-0.038876,-0.1217
924,-0.077528,0.059541,0.044924,-0.069733,0.15341,0.12223,-0.064211
925,-0.086623,0.040377,0.014392,-0.11098,0.18914,0.2122,-0.018738
926,-0.095068,0.012443,-0.018413,-0.14574,0.21805,0.18622,0.013743
927,-0.098641,-0.020687,-0.049595,-0.16815,0.22519,0.021863,0.038428
928,-0.097666,-0.053168,-0.077853,-0.17789,0.20311,-0.22434,0.063438
929,-0.094418,-0.075904,-0.10384,-0.17497,0.16413,-0.39454,0.088773
930,-0.090845,-0.0837,-0.123,-0.16393,0.12223,-0.33867,0.11671
931,-0.084999,-0.081426,-0.13567,-0.14671,0.090397,-0.045372,0.15244
932,-0.071357,-0.075579,-0.14314,-0.12852,0.079029,0.34667,0.19921
933,-0.051544,-0.068109,-0.14379,-0.11423,0.092346,0.66076,0.24241
934,-0.030431,-0.060963,-0.14281,-0.10741,0.12353,0.80497,0.26027
935,-0.012567,-0.052843,-0.13794,-0.10903,0.15958,0.80432,0.24533
936,-0.0028225,-0.044723,-0.13145,-0.11715,0.18362,0.74391,0.20993
937,-0.00054884,-0.041475,-0.12722,-0.1269,0.18199,0.69324,0.16965
938,-0.0041217,-0.045372,-0.12755,-0.13242,0.14334,0.66953,0.13457
939,-0.0041217,-0.057065,-0.13307,-0.13469,0.067661,0.64842,0.10696
940,0.0036737,-0.071682,-0.14152,-0.13404,-0.027833,0.59937,0.082927
941,0.018615,-0.084674,-0.14931,-0.13632,-0.12203,0.50972,0.055968
942,0.033881,-0.09929,-0.15483,-0.14346,-0.19219,0.39344,0.022837
943,0.036479,-0.11423,-0.15451,-0.15191,-0.22856,0.27651,-0.017439
944,0.022188,-0.12463,-0.14704,-0.15711,-0.23181,0.17777,-0.061288
945,-0.0044465,-0.12885,-0.13404,-0.15418,-0.20843,0.10306,-0.10871
946,-0.033679,-0.12625,-0.1204,-0.14119,-0.16653,0.041351,-0.15516
947,-0.053168,-0.11391,-0.10514,-0.11715,-0.11975,-0.015165,-0.19673
948,-0.05804,-0.089871,-0.090196,-0.086298,-0.078178,-0.070707,-0.22759
949,-0.055116,-0.058689,-0.072331,-0.053817,-0.047971,-0.13534,-0.24415
950,-0.053492,-0.030106,-0.052518,-0.018738,-0.027833,-0.212,-0.24286
951,-0.053492,-0.0093186,-0.031081,0.018615,-0.0099683,-0.30457,-0.22759
952,-0.051544,0.0078962,-0.0096434,0.058891,0.008221,-0.41208,-0.20745
953,-0.045047,0.020888,0.0078962,0.096893,0.023487,-0.54525,-0.18861
954,-0.035628,0.033881,0.021538,0.13295,0.032906,-0.7135,-0.17432
955,-0.024909,0.045574,0.032257,0.1638,0.039078,-0.91651,-0.16523
956,-0.011917,0.056617,0.045249,0.18037,0.053694,-1.1351,-0.15776
957,0.0043233,0.065062,0.064413,0.17874,0.0865,-1.3134,-0.15288
958,0.025436,0.069934,0.087149,0.16023,0.13749,-1.3907,-0.14996
959,0.047847,0.06084,0.10794,0.13197,0.19369,-1.3475,-0.15061
960,0.067011,0.028684,0.11833,0.10047,0.23916,-1.2221,-0.15483
961,0.080328,-0.027833,0.11378,0.075456,0.25995,-1.0779,-0.16003
962,0.08585,-0.098965,0.094295,0.069285,0.2567,-0.96198,-0.16198
963,0.082927,-0.16555,0.067336,0.090722,0.23948,-0.88727,-0.15743
964,0.080653,-0.21785,0.040702,0.14529,0.23039,-0.82426,-0.14411
965,0.081303,-0.25585,0.01894,0.22194,0.23396,-0.72844,-0.11943
966,0.082277,-0.27858,0.0033489,0.29633,0.23169,-0.57059,-0.087272
967,0.079029,-0.28086,-0.0076946,0.34602,0.20733,-0.34517,-0.04992
968,0.068635,-0.26169,-0.016789,0.36551,0.15796,-0.078503,-0.015165
969,0.050771,-0.22304,-0.025884,0.36226,0.095594,0.18881,0.011794
970,0.028359,-0.16685,-0.03303,0.34959,0.037129,0.42105,0.033881
971,0.008221,-0.093119,-0.036927,0.34797,-0.0054209,0.60164,0.057267
972,-0.00054884,-0.0021729,-0.029457,0.37948,-0.028807,0.72864,0.084551
973,0.0072465,0.10371,-0.0080194,0.46717,-0.03238,0.8105,0.12093
974,0.036804,0.21837,0.028034,0.63705,-0.01614,0.86376,0.17062
975,0.083576,0.33433,0.075781,0.87546,0.009845,0.90144,0.23234
976,0.13814,0.44444,0.12483,1.1165,0.03453,0.92938,0.2973
977,0.18427,0.54058,0.16413,1.2617,0.045899,0.94789,0.35219
978,0.20863,0.60911,0.18329,1.2399,0.038753,0.96478,0.38857
979,0.207,0.64062,0.17907,1.046,0.013743,1.0028,0.40156
980,0.17712,0.62828,0.14886,0.73611,-0.018738,1.0856,0.39279
981,0.1297,0.57793,0.099817,0.39312,-0.048945,1.1951,0.36259
982,0.078055,0.50258,0.045249,0.092996,-0.068758,1.2795,0.31354
983,0.033881,0.41813,-0.0011985,-0.12398,-0.075579,1.288,0.25345
984,0.0014,0.33465,-0.032705,-0.25812,-0.066485,1.2084,0.19401
985,-0.016789,0.25995,-0.047971,-0.3377,-0.038876,1.07,0.14432
986,-0.020687,0.19011,-0.051219,-0.39129,0.012768,0.91801,0.10664
987,-0.012242,0.12645,-0.043423,-0.44001,0.088124,0.79003,0.082277
988,0.0010752,0.080003,-0.023935,-0.49166,0.18492,0.71273,0.065387
989,0.014392,0.055968,0.0033489,-0.5394,0.29535,0.69974,0.055643
990,0.019589,0.045249,0.031282,-0.56539,0.40221,0.74976,0.053694
991,0.015367,0.033231,0.056942,-0.5459,0.48309,0.81959,0.056617
992,0.0043233,0.015042,0.080978,-0.45788,0.51752,0.82316,0.06019
993,-0.0041217,-0.0083442,0.10112,-0.29645,0.49511,0.69097,0.055318
994,-0.0083442,-0.031406,0.11606,-0.09117,0.4191,0.40481,0.029009
995,-0.008669,-0.048296,0.12093,0.098842,0.30834,0.0069217,-0.021661
996,-0.0031473,-0.056091,0.10956,0.20863,0.18427,-0.41435,-0.084674
997,0.0039985,-0.054792,0.07708,0.20213,0.067986,-0.77392,-0.14379
998,0.012443,-0.050244,0.027385,0.084876,-0.021986,-1.0058,-0.18634
999,0.020239,-0.051544,-0.031406,-0.094743,-0.061613,-1.0799,-0.2055
1000,0.027385,-0.061613,-0.0837,-0.27728,-0.043748,-1.0107,-0.2029
1001,0.034206,-0.081101,-0.1191,-0.4241,0.0078962,-0.85025,-0.18374
1002,0.038103,-0.10579,-0.1308,-0.50985,0.068635,-0.66088,-0.15386
1003,0.041676,-0.12527,-0.11715,-0.52771,0.11931,-0.4975,-0.1217
1004,0.044275,-0.1282,-0.083375,-0.48776,0.14659,-0.38415,-0.088247
1005,0.049472,-0.10871,-0.038551,-0.4163,0.14302,-0.32438,-0.053492
1006,0.057592,-0.065835,0.0036737,-0.33835,0.10729,-0.31009,-0.021661
1007,0.06831,-0.0024977,0.037454,-0.27079,0.057267,-0.32276,0.0023744
1008,0.074482,0.072533,0.058891,-0.22369,0.0085458,-0.3429,0.017965
1009,0.075131,0.13977,0.070909,-0.20388,-0.028482,-0.35946,0.031282
1010,0.066037,0.17745,0.069285,-0.20648,-0.059014,-0.37895,0.046873
1011,0.042975,0.17095,0.047847,-0.22109,-0.089871,-0.40948,0.060515
1012,0.0072465,0.12125,0.0078962,-0.23831,-0.1269,-0.46015,0.071234
1013,-0.03303,0.046223,-0.037902,-0.25065,-0.16198,-0.53258,0.071883
1014,-0.064861,-0.033354,-0.076879,-0.25065,-0.19024,-0.61281,0.062139
1015,-0.081751,-0.11066,-0.097991,-0.23961,-0.2172,-0.66803,0.049147
1016,-0.080776,-0.18764,-0.10156,-0.21785,-0.24415,-0.66316,0.038103
1017,-0.064536,-0.25487,-0.089546,-0.19186,-0.26624,-0.58715,0.027385
1018,-0.040825,-0.30229,-0.065835,-0.1662,-0.27534,-0.46145,0.013093
1019,-0.020687,-0.32016,-0.034978,-0.14346,-0.27501,-0.33575,-0.00087364
1020,-0.007045,-0.2971,-0.0041217,-0.12398,-0.27436,-0.26007,-0.012242
1021,0.0020496,-0.22661,0.023812,-0.10449,-0.28183,-0.25162,-0.016789
1022,0.0062721,-0.12008,0.049147,-0.088572,-0.2997,-0.29385,-0.017114
1023,0.0075714,-0.012242,0.074482,-0.080127,-0.32243,-0.35784,-0.014191
1024,0.008221,0.066037,0.10274,-0.085324,-0.34322,-0.41046,-0.0089938
1025,0.014068,0.10566,0.12872,-0.097991,-0.35459,-0.43319,0.0010752
1026,0.026085,0.11411,0.14107,-0.11196,-0.35296,-0.41955,0.020564
1027,0.042651,0.10306,0.13067,-0.1282,-0.33575,-0.37343,0.045899
1028,0.055643,0.075781,0.098517,-0.14834,-0.31042,-0.30229,0.065062
1029,0.06084,0.032906,0.052395,-0.1662,-0.28898,-0.21395,0.066686
1030,0.057917,-0.025234,0.0049729,-0.17367,-0.27988,-0.11326,0.05207
1031,0.054344,-0.0837,-0.03173,-0.16425,-0.28378,0.0033489,0.027709
1032,0.054019,-0.12527,-0.058689,-0.13567,-0.29775,0.14626,0.0033489
1033,0.056292,-0.13827,-0.076879,-0.090521,-0.31042,0.31809,-0.012567
1034,0.059541,-0.12885,-0.084674,-0.039201,-0.31106,0.49641,-0.016464
1035,0.06084,-0.11293,-0.092145,0.0033489,-0.30067,0.64127,-0.0093186
1036,0.05142,-0.10286,-0.10644,0.029009,-0.28378,0.71435,-0.00087364
1037,0.036154,-0.10254,-0.12755,0.039078,-0.26169,0.71143,0.0056225
1038,0.026735,-0.10059,-0.14541,0.044599,-0.23116,0.66368,0.011794
1039,0.029333,-0.080127,-0.14769,0.054344,-0.18894,0.61659,0.024461
1040,0.037778,-0.034978,-0.1321,0.071558,-0.14216,0.61431,0.046873
1041,0.042651,0.030633,-0.10774,0.089423,-0.10286,0.68674,0.07773
1042,0.038753,0.096244,-0.08305,0.096893,-0.072981,0.82284,0.10956
1043,0.028359,0.13002,-0.070707,0.088448,-0.053817,0.95471,0.13587
1044,0.015692,0.10891,-0.071357,0.06961,-0.046022,0.99499,0.14984
1045,0.00010078,0.034206,-0.077528,0.052395,-0.053492,0.89072,0.14432
1046,-0.017764,-0.066485,-0.081101,0.047198,-0.063886,0.65134,0.12418
1047,-0.032705,-0.15873,-0.077528,0.055318,-0.035953,0.34212,0.10014
1048,-0.04862,-0.22597,-0.071032,0.072208,0.060515,0.046548,0.080003
1049,-0.069408,-0.26332,-0.066485,0.089748,0.22032,-0.16588,0.067986
1050,-0.094743,-0.27469,-0.066485,0.10242,0.39831,-0.26202,0.065062
1051,-0.12105,-0.26722,-0.06681,0.11346,0.54383,-0.23831,0.070259
1052,-0.14411,-0.2474,-0.060313,0.12872,0.626,-0.11293,0.0852
1053,-0.16295,-0.21914,-0.04115,0.15309,0.64744,0.10306,0.11183
1054,-0.17659,-0.18764,-0.011267,0.18622,0.6273,0.40254,0.14496
1055,-0.18179,-0.161,0.028034,0.22487,0.56884,0.74878,0.1768
1056,-0.17919,-0.14314,0.069285,0.26255,0.43859,1.0551,0.19726
1057,-0.17465,-0.13404,0.10371,0.29145,0.20181,1.2191,0.19856
1058,-0.17497,-0.12592,0.12548,0.31192,-0.12463,1.1818,0.18427
1059,-0.17659,-0.10676,0.14107,0.3327,-0.44359,0.94464,0.16056
1060,-0.16977,-0.067459,0.15731,0.36486,-0.63945,0.56397,0.13262
1061,-0.14671,-0.0041217,0.17745,0.41131,-0.65309,0.1284,0.10761
1062,-0.10774,0.072533,0.19823,0.46133,-0.50465,-0.27501,0.091696
1063,-0.060963,0.14334,0.21447,0.49706,-0.26722,-0.5839,0.079679
1064,-0.021012,0.19141,0.22129,0.5107,-0.016789,-0.7606,0.063113
1065,0.0043233,0.2109,0.21285,0.49868,0.20408,-0.7934,0.039402
1066,0.014392,0.20603,0.18459,0.46425,0.37655,-0.70376,0.011794
1067,0.012119,0.18459,0.13977,0.41293,0.49056,-0.53193,-0.013866
1068,0.0078962,0.16088,0.090397,0.35706,0.53961,-0.32048,-0.028807
1069,0.011144,0.14659,0.053369,0.31646,0.52531,-0.10709,-0.033354
1070,0.024786,0.14886,0.040702,0.31127,0.46393,0.096244,-0.02361
1071,0.051096,0.1677,0.054668,0.34992,0.3733,0.30217,0.0026992
1072,0.0852,0.19271,0.082602,0.41553,0.27781,0.51427,0.038428
1073,0.11736,0.21642,0.11183,0.46068,0.19434,0.70558,0.064737
1074,0.14172,0.23786,0.12905,0.43924,0.12125,0.82804,0.071234
1075,0.15861,0.25572,0.13165,0.33498,0.042651,0.8459,0.053369
1076,0.16835,0.26937,0.11963,0.16803,-0.05804,0.75495,0.01764
1077,0.16803,0.27781,0.10306,-0.02361,-0.17659,0.58313,-0.032055
1078,0.15731,0.28398,0.092021,-0.20388,-0.2958,0.37883,-0.087272
1079,0.13684,0.28431,0.087474,-0.34355,-0.41955,0.18492,-0.14249
1080,0.10989,0.27456,0.082927,-0.43352,-0.55175,0.030957,-0.19121
1081,0.083251,0.25085,0.074482,-0.48906,-0.67128,-0.066485,-0.22694
1082,0.062464,0.21642,0.059541,-0.52771,-0.73916,-0.10709,-0.23863
1083,0.053694,0.18557,0.044599,-0.555,-0.72357,-0.11098,-0.22499
1084,0.057592,0.17127,0.037778,-0.56799,-0.62061,-0.10741,-0.19154
1085,0.074482,0.18069,0.046223,-0.56117,-0.45106,-0.1243,-0.14671
1086,0.098842,0.2083,0.063113,-0.53713,-0.2474,-0.16165,-0.097341
1087,0.1219,0.23851,0.079029,-0.49978,-0.043423,-0.20745,-0.048945
1088,0.13684,0.2528,0.088448,-0.45333,0.13912,-0.25812,-0.0037969
1089,0.13814,0.24111,0.091696,-0.39974,0.29405,-0.33445,0.02641
1090,0.12613,0.20603,0.088124,-0.3325,0.4256,-0.46307,0.03583
1091,0.10599,0.15796,0.079354,-0.23863,0.53668,-0.65049,0.027385
1092,0.086824,0.11216,0.06961,-0.095717,0.61951,-0.87688,0.0078962
1093,0.074482,0.07773,0.063438,0.11801,0.64647,-1.1039,-0.012567
1094,0.067011,0.055968,0.068635,0.3876,0.60717,-1.2842,-0.026533
1095,0.057592,0.042651,0.086824,0.64549,0.51135,-1.3891,-0.03173
1096,0.043625,0.032257,0.10826,0.80692,0.38402,-1.417,-0.039851
1097,0.025761,0.018615,0.12093,0.82966,0.24793,-1.3898,-0.062587
1098,0.009845,0.00075039,0.11703,0.72507,0.11476,-1.3345,-0.099615
1099,-0.00022403,-0.022636,0.098517,0.53636,-0.030756,-1.2783,-0.13697
1100,-0.0047713,-0.042774,0.071558,0.31224,-0.20355,-1.2322,-0.15841
1101,-0.0083442,-0.055116,0.042975,0.092346,-0.3796,-1.1916,-0.15938
1102,-0.01484,-0.060963,0.019589,-0.087922,-0.50595,-1.1504,-0.14476
1103,-0.025884,-0.063561,0.0023744,-0.21005,-0.5407,-1.0958,-0.12398
1104,-0.038551,-0.063561,-0.0093186,-0.28313,-0.48516,-1.0068,-0.10449
1105,-0.046996,-0.061288,-0.022961,-0.32893,-0.3731,-0.86778,-0.085648
1106,-0.045697,-0.059014,-0.039851,-0.35979,-0.24838,-0.69141,-0.063886
1107,-0.037252,-0.059664,-0.059989,-0.37538,-0.14346,-0.52674,-0.04115
1108,-0.025884,-0.066485,-0.079152,-0.37213,-0.072981,-0.44359,-0.027833
1109,-0.013866,-0.079477,-0.093769,-0.35004,-0.030756,-0.48484,-0.029457
1110,0.0010752,-0.093444,-0.10156,-0.31659,-0.0089938,-0.64692,-0.048296
1111,0.015692,-0.10286,-0.10968,-0.28573,-0.0037969,-0.8902,-0.076879
1112,0.028034,-0.10968,-0.12235,-0.26462,-0.013216,-1.1565,-0.10286
1113,0.031932,-0.11618,-0.14314,-0.25065,-0.027508,-1.3794,-0.11586
1114,0.023812,-0.123,-0.16847,-0.23701,-0.034978,-1.5015,-0.11098
1115,0.0062721,-0.13242,-0.18926,-0.20972,-0.024585,-1.4995,-0.092469
1116,-0.020362,-0.14216,-0.19803,-0.1662,0.0091954,-1.3758,-0.064536
1117,-0.043423,-0.14606,-0.19381,-0.11033,0.070584,-1.1211,-0.023285
1118,-0.054142,-0.13372,-0.17659,-0.062912,0.15926,-0.72422,0.037454
1119,-0.048296,-0.10254,-0.14996,-0.04115,0.26255,-0.19836,0.11768
1120,-0.034654,-0.060963,-0.1191,-0.046996,0.35641,0.41228,0.20278
1121,-0.019388,-0.020362,-0.090845,-0.06551,0.42397,1.0382,0.27586
1122,-0.0080194,0.0088706,-0.069083,-0.080451,0.46133,1.5783,0.32458
1123,0.003024,0.019914,-0.051219,-0.074605,0.47529,1.9363,0.34342
1124,0.01829,0.014068,-0.03303,-0.032055,0.46977,2.0561,0.33465
1125,0.034206,0.0023744,-0.0099683,0.050121,0.44574,1.9386,0.30445
1126,0.039402,-0.0031473,0.016016,0.16088,0.41033,1.643,0.26255
1127,0.028684,0.0036737,0.042975,0.28041,0.37006,1.2698,0.22454
1128,0.009845,0.020564,0.06896,0.39799,0.32913,0.91606,0.19791
1129,-0.0028225,0.0433,0.09397,0.5055,0.29048,0.64712,0.18589
1130,0.003024,0.063113,0.11508,0.5958,0.24923,0.48244,0.18362
1131,0.022188,0.07708,0.1323,0.66596,0.20408,0.40806,0.18427
1132,0.045249,0.081303,0.14432,0.70948,0.16445,0.39409,0.17939
1133,0.061489,0.078055,0.15341,0.70688,0.13035,0.41748,0.16673
1134,0.065712,0.072858,0.15406,0.63997,0.095594,0.46458,0.14302
1135,0.058891,0.068635,0.14204,0.50583,0.047198,0.52109,0.10274
1136,0.042975,0.067986,0.11898,0.32751,-0.019388,0.56267,0.050121
1137,0.02641,0.078055,0.093321,0.13555,-0.10156,0.56592,-0.0060706
1138,0.010819,0.10534,0.073507,-0.034978,-0.18731,0.53798,-0.055116
1139,-0.0041217,0.13749,0.063113,-0.15905,-0.26754,0.51427,-0.093444
1140,-0.019063,0.14529,0.055643,-0.23344,-0.33185,0.53863,-0.11845
1141,-0.029132,0.11054,0.041027,-0.26787,-0.3744,0.62828,-0.13794
1142,-0.032055,0.037778,0.01764,-0.26949,-0.39584,0.74781,-0.15711
1143,-0.022961,-0.048945,-0.0076946,-0.24026,-0.39909,0.83193,-0.174
1144,-0.0063954,-0.1178,-0.031081,-0.18796,-0.38934,0.82511,-0.18147
1145,0.0075714,-0.15613,-0.046671,-0.13112,-0.36368,0.7254,-0.174
1146,0.015367,-0.16653,-0.055441,-0.091495,-0.31431,0.58638,-0.15321
1147,0.016991,-0.16003,-0.056416,-0.079802,-0.24545,0.48114,-0.12495
1148,0.018615,-0.14476,-0.051544,-0.095068,-0.1714,0.44963,-0.097017
1149,0.022188,-0.123,-0.043423,-0.13145,-0.10059,0.48569,-0.073631
1150,0.028034,-0.095717,-0.036278,-0.18764,-0.03303,0.55162,-0.05804
1151,0.038753,-0.059014,-0.034004,-0.25552,0.037129,0.60619,-0.048945
1152,0.054019,-0.015815,-0.036927,-0.31918,0.10144,0.62568,-0.047971
1153,0.070909,0.025761,-0.043423,-0.35719,0.14464,0.60229,-0.053168
1154,0.083576,0.056617,-0.051868,-0.35654,0.16413,0.53993,-0.060963
1155,0.090397,0.078055,-0.061288,-0.31042,0.16835,0.45093,-0.069733
1156,0.086824,0.093321,-0.071357,-0.21557,0.1638,0.34862,-0.073306
1157,0.074806,0.10047,-0.080776,-0.072006,0.15341,0.25507,-0.072656
1158,0.058241,0.09462,-0.090196,0.11313,0.13555,0.19499,-0.069733
1159,0.044924,0.066037,-0.09994,0.30185,0.10826,0.19174,-0.064861
1160,0.039402,0.013093,-0.11163,0.43404,0.072533,0.25183,-0.050569
1161,0.035505,-0.058365,-0.12268,0.4584,0.031607,0.35414,-0.026533
1162,0.032257,-0.13372,-0.13729,0.35739,-0.010293,0.47757,0.0078962
1163,0.031607,-0.19836,-0.15223,0.15373,-0.041799,0.64452,0.048172
1164,0.03518,-0.24188,-0.16782,-0.097017,-0.057065,0.90404,0.092346
1165,0.041351,-0.25325,-0.18147,-0.33835,-0.061288,1.2159,0.13814
1166,0.050771,-0.23149,-0.19121,-0.52674,-0.049595,1.4494,0.18069
1167,0.061165,-0.17822,-0.19446,-0.64269,-0.01614,1.4689,0.2083
1168,0.070584,-0.10319,-0.18634,-0.68947,0.04395,1.2464,0.21675
1169,0.078055,-0.02361,-0.1675,-0.68329,0.1232,0.86766,0.21317
1170,0.082277,0.047523,-0.13502,-0.64464,0.19888,0.4701,0.20798
1171,0.082277,0.10436,-0.093769,-0.58065,0.23721,0.16673,0.20798
1172,0.07773,0.14464,-0.050894,-0.48549,0.22097,-0.008669,0.20928
1173,0.069285,0.16933,-0.013866,-0.34744,0.14919,-0.095393,0.20376
1174,0.056942,0.18394,0.013093,-0.1636,0.041676,-0.1675,0.18362
1175,0.037778,0.19174,0.029333,0.056942,-0.068434,-0.28476,0.14561
1176,0.0088706,0.19791,0.036804,0.28008,-0.15451,-0.47607,0.096244
1177,-0.025234,0.20051,0.042651,0.45386,-0.20713,-0.73461,0.043625
1178,-0.054792,0.19921,0.051745,0.54123,-0.22337,-1.0149,0.003024
1179,-0.070382,0.19758,0.064413,0.53766,-0.19901,-1.2316,-0.016789
1180,-0.068434,0.19693,0.078704,0.4714,-0.12398,-1.3066,-0.0093186
1181,-0.051219,0.19726,0.092021,0.39019,0.0069217,-1.2342,0.022512
1182,-0.025884,0.19466,0.10274,0.3327,0.17322,-1.0955,0.067336
1183,0.0014,0.18199,0.10729,0.30445,0.33108,-0.98731,0.10599
1184,0.026735,0.15991,0.10404,0.28983,0.43892,-0.93989,0.12483
1185,0.044599,0.1349,0.096893,0.27424,0.47984,-0.91683,0.11443
1186,0.042975,0.10794,0.088773,0.25313,0.45873,-0.87428,0.071558
1187,0.020888,0.076755,0.082927,0.23266,0.39669,-0.81809,0.0033489
1188,-0.012892,0.036804,0.084551,0.22,0.29697,-0.78658,-0.072656
1189,-0.050244,-0.007045,0.092021,0.21382,0.12223,-0.81419,-0.13989
1190,-0.0824,-0.045372,0.095919,0.2083,-0.14509,-0.89669,-0.19283
1191,-0.10774,-0.077528,0.087149,0.19661,-0.43774,-0.99641,-0.23279
1192,-0.12852,-0.10806,0.064413,0.17257,-0.63912,-1.0571,-0.26559
1193,-0.14801,-0.13827,0.032906,0.1349,-0.65958,-1.0373,-0.29223
1194,-0.16425,-0.16425,0.0069217,0.082927,-0.49556,-0.91131,-0.30229
1195,-0.17465,-0.18114,-0.0060706,0.023487,-0.22791,-0.68232,-0.28833
1196,-0.17724,-0.19543,-0.008669,-0.030431,0.016666,-0.39292,-0.25292
1197,-0.17724,-0.2133,-0.012567,-0.065186,0.11476,-0.123,-0.20875
1198,-0.17692,-0.23441,-0.019388,-0.076229,-0.0047713,0.04395,-0.16425
1199,-0.18212,-0.25552,-0.030106,-0.064536,-0.30944,0.065062,-0.12722
1200,-0.18991,-0.26916,-0.041475,-0.040175,-0.6703,-0.039526,-0.09929
1201,-0.18991,-0.26462,-0.048296,-0.0060706,-0.93372,-0.20225,-0.07493
1202,-0.17465,-0.23214,-0.042774,0.03583,-1.0097,-0.34874,-0.050894
1203,-0.14671,-0.17335,-0.021986,0.076431,-0.89279,-0.44099,-0.027508
1204,-0.11943,-0.098641,0.0085458,0.11054,-0.63912,-0.47802,-0.0080194
1205,-0.098965,-0.022636,0.0433,0.1362,-0.32958,-0.47022,0.0075714
1206,-0.085648,0.042001,0.070909,0.15341,-0.037252,-0.41923,0.023487
1207,-0.079802,0.089098,0.0865,0.15861,0.18816,-0.32828,0.044924
1208,-0.075904,0.12125,0.092996,0.14496,0.33173,-0.2055,0.069934
1209,-0.072331,0.14691,0.09397,0.11183,0.39994,-0.071357,0.092996
1210,-0.065835,0.17485,0.097868,0.065712,0.40936,0.045899,0.11346
1211,-0.053817,0.21447,0.10859,0.016016,0.3772,0.13035,0.13165
1212,-0.037252,0.26157,0.1297,-0.023285,0.32393,0.18881,0.14919
1213,-0.01549,0.3038,0.15211,-0.045372,0.27294,0.24501,0.16803
1214,0.012768,0.33173,0.16998,-0.04862,0.23689,0.33205,0.18459
1215,0.049472,0.3379,0.17907,-0.038227,0.21805,0.48894,0.19434
1216,0.091696,0.32621,0.18004,-0.027508,0.21967,0.74943,0.19239
1217,0.12678,0.3012,0.17485,-0.024909,0.23981,1.1106,0.18069
1218,0.14594,0.27002,0.1703,-0.028482,0.27132,1.5221,0.15893
1219,0.14886,0.23916,0.16705,-0.03238,0.30737,1.907,0.13717
1220,0.14724,0.2161,0.1703,-0.025884,0.34537,2.1581,0.12255
1221,0.14691,0.19758,0.17907,0.0020496,0.37558,2.161,0.11703
1222,0.14789,0.17257,0.18362,0.055318,0.39019,1.8483,0.11443
1223,0.14367,0.12775,0.17842,0.12548,0.37785,1.2594,0.10696
1224,0.12937,0.063438,0.16543,0.19336,0.32848,0.52629,0.090072
1225,0.10371,-0.0011985,0.14594,0.23721,0.24403,-0.16555,0.067661
1226,0.073832,-0.048296,0.11638,0.24371,0.13522,-0.64789,0.044275
1227,0.0433,-0.069733,0.077405,0.21545,0.023162,-0.8405,0.024137
1228,0.016666,-0.072656,0.033556,0.16283,-0.065835,-0.74728,0.0026992
1229,-0.0060706,-0.072981,-0.0080194,0.098193,-0.12008,-0.44489,-0.016789
1230,-0.025884,-0.080451,-0.039201,0.038103,-0.13729,-0.05739,-0.029132
1231,-0.044073,-0.096042,-0.060963,-0.0093186,-0.1321,0.30217,-0.028807
1232,-0.055116,-0.11488,-0.075255,-0.042124,-0.1191,0.588,-0.012242
1233,-0.053817,-0.1334,-0.091495,-0.068434,-0.10709,0.81277,0.016016
1234,-0.040175,-0.15646,-0.1191,-0.096692,-0.096367,0.99239,0.047523
1235,-0.015815,-0.18342,-0.16425,-0.13567,-0.09182,1.122,0.073832
1236,0.015042,-0.20745,-0.22564,-0.19089,-0.087922,1.1772,0.095269
1237,0.043625,-0.21232,-0.28573,-0.26234,-0.078827,1.1392,0.11476
1238,0.065387,-0.19121,-0.3286,-0.34484,-0.053817,1.0138,0.1336
1239,0.081952,-0.14574,-0.34452,-0.42345,-0.019712,0.82251,0.14659
1240,0.092021,-0.09182,-0.33543,-0.48354,0.014392,0.58346,0.15309
1241,0.094295,-0.051219,-0.31074,-0.51569,0.043625,0.29568,0.15309
1242,0.088124,-0.03303,-0.2854,-0.51309,0.059216,-0.030106,0.14626
1243,0.080328,-0.035628,-0.26332,-0.47509,0.054993,-0.3416,0.13522
1244,0.07708,-0.047321,-0.24545,-0.40526,0.030633,-0.59332,0.12093
1245,0.080003,-0.055116,-0.22174,-0.31171,-0.0031473,-0.78918,0.10242
1246,0.083901,-0.051544,-0.18926,-0.20485,-0.026209,-0.974,0.080328
1247,0.087149,-0.03238,-0.15288,-0.08305,-0.022961,-1.176,0.046873
1248,0.088773,0.0026992,-0.11488,0.072208,0.0065969,-1.3898,0.0023744
1249,0.0865,0.046873,-0.07428,0.28041,0.053044,-1.5843,-0.045372
1250,0.082927,0.092021,-0.031406,0.51979,0.10112,-1.7256,-0.088572
1251,0.073507,0.12515,0.0069217,0.72345,0.1349,-1.7902,-0.13015
1252,0.054993,0.14172,0.032582,0.81277,0.14464,-1.7707,-0.16945
1253,0.03453,0.14204,0.044275,0.74976,0.1258,-1.6876,-0.19738
1254,0.020564,0.13425,0.045249,0.55844,0.085525,-1.5716,-0.2068
1255,0.015367,0.12678,0.046548,0.31289,0.03518,-1.4443,-0.19673
1256,0.016341,0.12743,0.059541,0.099167,-0.014191,-1.3111,-0.17237
1257,0.016666,0.13555,0.088773,-0.019712,-0.052843,-1.1647,-0.14087
1258,0.015042,0.14432,0.13262,-0.025559,-0.080451,-1.0039,-0.11261
1259,0.0085458,0.14691,0.18459,0.055318,-0.10741,-0.8353,-0.088247
1260,0.0023744,0.13457,0.23364,0.1755,-0.14509,-0.67355,-0.065835
1261,0.00075039,0.11118,0.27229,0.29762,-0.19154,-0.54298,-0.042124
1262,0.0049729,0.0852,0.29795,0.40124,-0.23831,-0.46405,-0.018088
1263,0.011794,0.063763,0.31062,0.47367,-0.27469,-0.44131,-0.0021729
1264,0.01764,0.050771,0.30639,0.50485,-0.29385,-0.45658,0.0017248
1265,0.019589,0.042326,0.28821,0.49348,-0.2893,-0.47217,-0.0050961
1266,0.017316,0.031607,0.26319,0.44931,-0.26202,-0.45138,-0.019063
1267,0.014068,0.014717,0.23461,0.38305,-0.21914,-0.38155,-0.037252
1268,0.014392,-0.007045,0.20473,0.30639,-0.16977,-0.27956,-0.05739
1269,0.020888,-0.038227,0.17355,0.22422,-0.11651,-0.17205,-0.076554
1270,0.028684,-0.072006,0.14269,0.14756,-0.051868,-0.069083,-0.092145
1271,0.035505,-0.09929,0.11866,0.087799,0.03453,0.030957,-0.10319
1272,0.039402,-0.11066,0.10177,0.058891,0.14172,0.1336,-0.10741
1273,0.043625,-0.10254,0.09462,0.056942,0.2567,0.23689,-0.10676
1274,0.049796,-0.083375,0.095269,0.065062,0.35641,0.33563,-0.10286
1275,0.055643,-0.067134,0.09462,0.062139,0.42203,0.42495,-0.092794
1276,0.054993,-0.061937,0.081627,0.03518,0.44509,0.49706,-0.077528
1277,0.050446,-0.067134,0.05142,-0.014516,0.42852,0.55617,-0.060313
1278,0.047198,-0.0837,0.010495,-0.077528,0.38078,0.61009,-0.042449
1279,0.048822,-0.11618,-0.025559,-0.14152,0.30639,0.66173,-0.02426
1280,0.053369,-0.1649,-0.041475,-0.19478,0.21772,0.71143,-0.010943
1281,0.05272,-0.22272,-0.038551,-0.23571,0.12028,0.76177,-0.0024977
1282,0.050446,-0.26916,-0.025559,-0.2578,0.023812,0.80985,0.0039985
1283,0.047847,-0.28573,-0.0083442,-0.25455,-0.059339,0.84817,0.014392
1284,0.044275,-0.26299,0.0078962,-0.21525,-0.12105,0.87318,0.031607
1285,0.038428,-0.2029,0.01829,-0.14931,-0.15841,0.87546,0.054668
1286,0.029983,-0.1204,0.019264,-0.075904,-0.17822,0.84655,0.079029
1287,0.021538,-0.029782,0.014392,-0.021986,-0.18601,0.78159,0.10729
1288,0.014392,0.056617,0.014068,0.003024,-0.17854,0.6822,0.13684
1289,0.010495,0.13327,0.018615,0.015042,-0.15158,0.56007,0.16413
1290,0.011794,0.19888,0.024786,0.040052,-0.10286,0.43632,0.18557
1291,0.013418,0.24566,0.029333,0.088448,-0.03173,0.33205,0.19499
1292,0.012768,0.26774,0.029658,0.14074,0.051096,0.25865,0.18719
1293,0.0075714,0.27034,0.023162,0.1664,0.13197,0.20928,0.16478
1294,-0.0028225,0.25897,0.0085458,0.14626,0.19466,0.15763,0.13197
1295,-0.013866,0.24403,-0.011917,0.088773,0.23169,0.081952,0.092346
1296,-0.023935,0.23591,-0.029782,0.016666,0.24143,-0.028482,0.053694
1297,-0.027183,0.24143,-0.039851,-0.053817,0.22714,-0.16295,0.019914
1298,-0.021661,0.258,-0.034654,-0.12138,0.19823,-0.29515,-0.0060706
1299,-0.015165,0.27781,-0.014516,-0.19348,0.15958,-0.40688,-0.022961
1300,-0.011592,0.29373,0.010819,-0.26949,0.12158,-0.49198,-0.034654
1301,-0.013866,0.30152,0.03453,-0.3364,0.083901,-0.55467,-0.047321
1302,-0.017439,0.2986,0.050771,-0.37473,0.045899,-0.59722,-0.062912
1303,-0.019712,0.28756,0.056292,-0.37538,0.011469,-0.61508,-0.081426
1304,-0.019388,0.27326,0.050121,-0.34355,-0.021661,-0.60696,-0.10124
1305,-0.019063,0.2567,0.039727,-0.29353,-0.059664,-0.57741,-0.11813
1306,-0.015165,0.23624,0.027385,-0.24188,-0.11261,-0.53323,-0.12787
1307,-0.0034721,0.21155,0.012768,-0.21037,-0.18212,-0.47802,-0.12722
1308,0.01764,0.18297,-0.007045,-0.20875,-0.25812,-0.40396,-0.11358
1309,0.040702,0.15114,-0.036927,-0.23376,-0.30977,-0.29288,-0.090196
1310,0.056942,0.10534,-0.079152,-0.27664,-0.31139,-0.13534,-0.059664
1311,0.058891,0.042651,-0.12625,-0.33478,-0.25877,0.066037,-0.030756
1312,0.048497,-0.027183,-0.1688,-0.41565,-0.17627,0.28918,-0.013541
1313,0.027709,-0.087922,-0.20031,-0.51992,-0.10059,0.50875,-0.0067202
1314,0.0023744,-0.12885,-0.21622,-0.63392,-0.060313,0.70721,-0.0031473
1315,-0.019388,-0.14541,-0.21135,-0.73331,-0.067134,0.87676,0.0062721
1316,-0.034329,-0.13859,-0.18017,-0.78821,-0.11715,1.0106,0.025761
1317,-0.036278,-0.11975,-0.13145,-0.78398,-0.18731,1.0976,0.054019
1318,-0.023935,-0.10774,-0.081101,-0.72032,-0.25195,1.1291,0.088773
1319,0.00010078,-0.11683,-0.0405,-0.6271,-0.30229,1.1132,0.11995
1320,0.030308,-0.14509,-0.018413,-0.5433,-0.33965,1.0677,0.13912
1321,0.056942,-0.17367,-0.017114,-0.4962,-0.36303,1.0015,0.14821
1322,0.070584,-0.17952,-0.026533,-0.48971,-0.36531,0.91216,0.15309
1323,0.065387,-0.15093,-0.038876,-0.4975,-0.34387,0.79101,0.15861
1324,0.041027,-0.10156,-0.052518,-0.47444,-0.2997,0.64484,0.16933
1325,0.0075714,-0.059664,-0.066485,-0.37733,-0.23279,0.49316,0.17874
1326,-0.019388,-0.048945,-0.078503,-0.17887,-0.15029,0.35641,0.18232
1327,-0.031406,-0.076879,-0.084999,0.14432,-0.068109,0.24566,0.18297
1328,-0.030106,-0.1334,-0.084349,0.58443,-0.0011985,0.16315,0.18102
1329,-0.024585,-0.19641,-0.079152,1.0651,0.042975,0.098517,0.17062
1330,-0.022311,-0.24578,-0.068758,1.4647,0.067336,0.038753,0.15211
1331,-0.02426,-0.26884,-0.054467,1.6725,0.079029,-0.030431,0.12937
1332,-0.032705,-0.25617,-0.041799,1.6501,0.082927,-0.10968,0.11021
1333,-0.037902,-0.19966,-0.027183,1.4611,0.089748,-0.18244,0.095269
1334,-0.03303,-0.10806,-0.0076946,1.25,0.10956,-0.22532,0.081303
1335,-0.020037,0.00075039,0.020564,1.1506,0.14432,-0.24513,0.062464
1336,-0.0057458,0.094295,0.054019,1.2038,0.18362,-0.29158,0.039078
1337,0.0056225,0.14886,0.085525,1.3289,0.2096,-0.4267,0.010495
1338,0.0091954,0.15828,0.11216,1.3919,0.20473,-0.69336,-0.027833
1339,0.0026992,0.13749,0.12807,1.2925,0.16478,-1.0896,-0.081101
1340,-0.007045,0.10989,0.13522,1.019,0.098193,-1.5535,-0.15158
1341,-0.011592,0.095594,0.13749,0.64387,0.019914,-1.9751,-0.23181
1342,-0.0031473,0.099817,0.13749,0.26742,-0.047321,-2.23,-0.30359
1343,0.016991,0.11216,0.13392,-0.026209,-0.075579,-2.2252,-0.34387
1344,0.041027,0.11898,0.1245,-0.20648,-0.048945,-1.95,-0.33997
1345,0.05142,0.10956,0.11118,-0.28703,0.024786,-1.4781,-0.29223
1346,0.039402,0.084226,0.096569,-0.30814,0.12385,-0.91813,-0.2159
1347,0.011144,0.054019,0.083251,-0.30522,0.22357,-0.37245,-0.12917
1348,-0.019388,0.036479,0.070259,-0.30814,0.30185,0.075456,-0.047646
1349,-0.042449,0.038753,0.058891,-0.33413,0.34602,0.35706,0.024461
1350,-0.055116,0.056292,0.05142,-0.39129,0.36226,0.43209,0.090722
1351,-0.056741,0.080003,0.047198,-0.48094,0.35576,0.30769,0.15536
1352,-0.045372,0.10436,0.047198,-0.5943,0.32069,0.065387,0.22259
1353,-0.015165,0.1284,0.051745,-0.71577,0.23786,-0.16977,0.29762
1354,0.029009,0.14854,0.057917,-0.81614,0.098842,-0.29807,0.36876
1355,0.074157,0.15796,0.06084,-0.86941,-0.073955,-0.2552,0.42203
1356,0.099817,0.14821,0.051745,-0.86486,-0.24026,0.0091954,0.43794
1357,0.10339,0.11476,0.027385,-0.81354,-0.36433,0.4584,0.41423
1358,0.084876,0.065712,-0.0096434,-0.73656,-0.42962,0.93879,0.36194
1359,0.054668,0.014392,-0.045372,-0.65341,-0.43449,1.2711,0.3051
1360,0.02706,-0.027183,-0.072656,-0.58001,-0.39681,1.3497,0.26092
1361,0.012443,-0.056091,-0.086298,-0.52609,-0.33737,1.183,0.22584
1362,0.0078962,-0.071682,-0.093444,-0.48679,-0.27534,0.88065,0.19109
1363,0.0046481,-0.078827,-0.09929,-0.44554,-0.22012,0.5906,0.14886
1364,0.0014,-0.087597,-0.10644,-0.38025,-0.17432,0.44184,0.096893
1365,0.0023744,-0.097341,-0.11228,-0.28605,-0.13762,0.48374,0.044599
1366,0.0085458,-0.10286,-0.11326,-0.16718,-0.10936,0.66726,0.0059473
1367,0.01894,-0.094743,-0.10838,-0.027833,-0.088247,0.88585,-0.010943
1368,0.033556,-0.07493,-0.094093,0.14691,-0.071357,1.0492,-0.007045
1369,0.05272,-0.04927,-0.071682,0.3746,-0.058689,1.1213,0.0091954
1370,0.074157,-0.026533,-0.043748,0.62536,-0.050569,1.1103,0.02706
1371,0.096569,-0.011267,-0.018413,0.82186,-0.052193,1.0265,0.031607
1372,0.10729,-0.0028225,0.00010078,0.88585,-0.064211,0.86441,0.012768
1373,0.099167,0.00010078,0.008221,0.78451,-0.079802,0.62438,-0.028157
1374,0.076106,0.0020496,0.011469,0.55292,-0.092145,0.34147,-0.082076
1375,0.046873,0.0046481,0.015042,0.26969,-0.095393,0.071558,-0.13567
1376,0.022512,0.010495,0.021863,0.012119,-0.085648,-0.14281,-0.174
1377,0.012768,0.019914,0.029009,-0.16458,-0.060963,-0.2971,-0.19413
1378,0.011794,0.029983,0.033881,-0.24448,-0.026858,-0.41598,-0.19641
1379,0.012443,0.037454,0.036804,-0.24448,0.009845,-0.52154,-0.18439
1380,0.012443,0.040377,0.03518,-0.19511,0.044599,-0.60339,-0.16458
1381,0.011144,0.039727,0.028684,-0.13145,0.084226,-0.62938,-0.13469
1382,0.011144,0.037454,0.016991,-0.076229,0.13067,-0.57481,-0.086948
1383,0.012443,0.033556,0.008221,-0.04115,0.1755,-0.44554,-0.023935
1384,0.012768,0.021538,0.0020496,-0.027508,0.21025,-0.27599,0.03518
1385,0.0085458,0.0017248,-0.0021729,-0.020687,0.22227,-0.11975,0.073507
1386,-0.0028225,-0.024909,-0.0060706,-0.0024977,0.2096,-0.011592,0.071883
1387,-0.02361,-0.055766,-0.012567,0.038103,0.18264,0.054019,0.031282
1388,-0.049595,-0.086623,-0.018738,0.10209,0.15471,0.12418,-0.026858
1389,-0.073955,-0.11196,-0.025884,0.17452,0.13392,0.258,-0.0824
1390,-0.090196,-0.12625,-0.03173,0.23624,0.12483,0.48731,-0.11521
1391,-0.095393,-0.12333,-0.03238,0.26612,0.12743,0.78256,-0.11878
1392,-0.087922,-0.10514,-0.022961,0.25345,0.14237,1.0625,-0.097341
1393,-0.067459,-0.078503,-0.0011985,0.20246,0.1638,1.2298,-0.06551
1394,-0.039526,-0.04862,0.029658,0.12937,0.18622,1.2113,-0.034654
1395,-0.012892,-0.022311,0.057917,0.059541,0.20863,1.0005,-0.011917
1396,0.011144,-0.0044465,0.075781,0.012443,0.23234,0.65914,0.0014
1397,0.030308,0.0023744,0.082277,-0.0076946,0.25767,0.27781,0.00010078
1398,0.046223,-0.00087364,0.083251,-0.0028225,0.29015,-0.055116,-0.012567
1399,0.055968,-0.0028225,0.087474,0.024137,0.34342,-0.27826,-0.025884
1400,0.054993,0.0059473,0.099167,0.072208,0.44898,-0.3757,-0.035628
1401,0.042975,0.028034,0.11703,0.13327,0.63218,-0.37603,-0.039201
1402,0.022188,0.055643,0.13717,0.20051,0.87286,-0.3325,-0.039201
1403,-0.0011985,0.083251,0.15666,0.26677,1.1106,-0.28021,-0.04115
1404,-0.018738,0.10761,0.17257,0.31874,1.2785,-0.2094,-0.042449
1405,-0.029457,0.1284,0.18492,0.34147,1.3344,-0.075904,-0.044073
1406,-0.034004,0.13944,0.19434,0.32816,1.2711,0.15244,-0.04115
1407,-0.035628,0.13749,0.19953,0.28333,1.1187,0.46587,-0.032055
1408,-0.034654,0.12288,0.20148,0.22097,0.91963,0.80725,-0.013216
1409,-0.028482,0.098842,0.20311,0.15471,0.68155,1.0889,0.011144
1410,-0.020362,0.070259,0.20473,0.096893,0.36908,1.2217,0.030633
1411,-0.014516,0.0433,0.20408,0.061165,-0.043099,1.1502,0.029658
1412,-0.014516,0.026735,0.19726,0.054344,-0.49913,0.87871,0.0023744
1413,-0.021661,0.023812,0.18264,0.066362,-0.8811,0.46393,-0.044723
1414,-0.027833,0.03518,0.16023,0.078379,-1.0942,-0.010943,-0.095717
1415,-0.024585,0.054668,0.13652,0.081627,-1.1182,-0.46243,-0.13664
1416,-0.0089938,0.076106,0.11768,0.081627,-0.99868,-0.83465,-0.16068
1417,0.015367,0.09462,0.10696,0.093321,-0.82036,-1.1042,-0.16977
1418,0.042975,0.10599,0.099167,0.12418,-0.66056,-1.2647,-0.16945
1419,0.069285,0.10826,0.08585,0.16283,-0.55694,-1.3111,-0.1623
1420,0.087799,0.10144,0.060515,0.17972,-0.5066,-1.2439,-0.14931
1421,0.092996,0.087474,0.01764,0.14919,-0.49101,-1.0783,-0.1334
1422,0.087474,0.071234,-0.036927,0.070584,-0.48971,-0.85999,-0.11683
1423,0.078055,0.055318,-0.095068,-0.030756,-0.48744,-0.6362,-0.099615
1424,0.074157,0.040052,-0.14671,-0.1269,-0.48256,-0.44846,-0.075255
1425,0.075781,0.023162,-0.18439,-0.2016,-0.47249,-0.31983,-0.044073
1426,0.076755,0.0017248,-0.21005,-0.25162,-0.4621,-0.25877,-0.011267
1427,0.073832,-0.027833,-0.22077,-0.27566,-0.44878,-0.25098,0.015042
1428,0.062789,-0.064536,-0.21265,-0.27826,-0.42832,-0.26039,0.035505
1429,0.039078,-0.10026,-0.18829,-0.26364,-0.39357,-0.2565,0.054344
1430,0.01017,-0.1321,-0.15905,-0.24221,-0.34549,-0.22077,0.06831
1431,-0.013216,-0.16295,-0.13697,-0.21882,-0.2958,-0.15288,0.078055
1432,-0.023935,-0.19446,-0.13047,-0.19641,-0.24903,-0.064861,0.085525
1433,-0.025559,-0.22791,-0.13372,-0.16133,-0.20453,0.01764,0.090072
1434,-0.026209,-0.25585,-0.13892,-0.097991,-0.15158,0.064413,0.090072
1435,-0.028157,-0.26592,-0.13794,-0.0096434,-0.0837,0.058241,0.084551
1436,-0.029457,-0.24773,-0.12722,0.082602,-0.0063954,-0.0021729,0.079354
1437,-0.023935,-0.20485,-0.11163,0.15536,0.067661,-0.10156,0.077405
1438,-0.013216,-0.14866,-0.098965,0.19693,0.12678,-0.21979,0.080328
1439,-0.0060706,-0.094418,-0.098316,0.2109,0.17257,-0.34712,0.085525
1440,-0.0041217,-0.053168,-0.10838,0.20538,0.20993,-0.47867,0.090072
1441,-0.0044465,-0.025559,-0.12398,0.18751,0.24436,-0.59852,0.089748
1442,0.0023744,0.00042559,-0.13599,0.16348,0.27489,-0.68167,0.091372
1443,0.021538,0.028034,-0.13567,0.14204,0.2908,-0.69564,0.10014
1444,0.048172,0.055968,-0.12138,0.13002,0.27294,-0.62028,0.11638
1445,0.069285,0.080978,-0.098316,0.12613,0.2161,-0.48029,0.12807
1446,0.075131,0.10696,-0.073631,0.12418,0.14009,-0.35426,0.1245
1447,0.066037,0.13587,-0.04992,0.11638,0.06831,-0.33055,0.098193
1448,0.045574,0.16673,-0.028482,0.10209,0.015692,-0.44034,0.05272
1449,0.020239,0.19304,-0.0076946,0.088124,-0.013216,-0.62613,-0.0018481
1450,-0.0018481,0.20733,0.012443,0.076431,-0.01484,-0.7645,-0.054142
1451,-0.019388,0.20928,0.028684,0.06831,0.0017248,-0.75962,-0.093119
1452,-0.027183,0.19953,0.04395,0.063763,0.027385,-0.62613,-0.11878
1453,-0.029457,0.18264,0.054344,0.06019,0.048172,-0.4608,-0.13404
1454,-0.055441,0.14984,0.052395,-0.0054209,0.0020496,-0.35167,-0.14671
1455,-0.1295,0.098517,0.035505,-0.18861,-0.14996,-0.30749,-0.16165
1456,-0.18926,0.058891,0.019914,-0.38252,-0.27339,-0.28411,-0.16588
1457,-0.18017,0.05142,0.016341,-0.47347,-0.25682,-0.2591,-0.15288
1458,-0.10936,0.072208,0.020888,-0.43612,-0.11261,-0.27046,-0.12787
1459,-0.020037,0.10306,0.025761,-0.31789,0.06961,-0.37635,-0.10026
1460,0.048497,0.12743,0.025111,-0.18601,0.19823,-0.59397,-0.080776
1461,0.081952,0.13587,0.016016,-0.091495,0.22227,-0.87461,-0.077853
1462,0.083901,0.1297,0.0014,-0.055116,0.15179,-1.1299,-0.092145
1463,0.066037,0.11443,-0.013541,-0.068109,0.034206,-1.2725,-0.10903
1464,0.041027,0.097543,-0.022961,-0.10676,-0.076554,-1.2569,-0.11293
1465,0.016991,0.080978,-0.025234,-0.15288,-0.14931,-1.0737,-0.092145
1466,0.00042559,0.066037,-0.02426,-0.19348,-0.17659,-0.73461,-0.043423
1467,-0.0060706,0.054668,-0.027833,-0.21849,-0.16555,-0.2539,0.031282
1468,0.0017248,0.047198,-0.040175,-0.21849,-0.1204,0.33205,0.12483
1469,0.021863,0.045574,-0.056091,-0.19316,-0.045047,0.93912,0.22389
1470,0.046223,0.048172,-0.070058,-0.14834,0.05207,1.4468,0.31192
1471,0.067336,0.050446,-0.07428,-0.09117,0.15438,1.7586,0.3759
1472,0.083251,0.046548,-0.06616,-0.023935,0.24533,1.869,0.41618
1473,0.092346,0.033881,-0.048296,0.047523,0.30802,1.8369,0.44054
1474,0.093321,0.0088706,-0.030431,0.11086,0.33693,1.7255,0.45353
1475,0.082602,-0.026858,-0.022961,0.14951,0.33725,1.5498,0.45483
1476,0.058891,-0.063886,-0.029457,0.15796,0.31192,1.2932,0.44119
1477,0.026735,-0.09182,-0.043099,0.14334,0.26677,0.94886,0.41163
1478,-0.0028225,-0.098316,-0.053492,0.11476,0.20668,0.54545,0.36746
1479,-0.017439,-0.080127,-0.056416,0.080003,0.13912,0.13814,0.31419
1480,-0.011917,-0.042449,-0.04927,0.045249,0.072208,-0.21167,0.25735
1481,0.0075714,0.0026992,-0.03303,0.01764,0.01829,-0.45723,0.20538
1482,0.031607,0.041027,-0.0096434,-0.0015233,-0.014516,-0.56539,0.16185
1483,0.053694,0.057267,0.01829,-0.010943,-0.034004,-0.51732,0.1336
1484,0.070584,0.047847,0.051096,-0.019388,-0.048296,-0.28865,0.11541
1485,0.082277,0.019914,0.083576,-0.038876,-0.061288,0.10859,0.10079
1486,0.088448,-0.01484,0.10989,-0.076229,-0.071682,0.54675,0.082277
1487,0.090072,-0.041799,0.1245,-0.1321,-0.079477,0.83323,0.053044
1488,0.090397,-0.052193,0.13132,-0.19706,-0.092469,0.83648,0.011794
1489,0.091047,-0.042449,0.13392,-0.25877,-0.11196,0.56559,-0.034329
1490,0.092996,-0.01549,0.13717,-0.30489,-0.1334,0.14334,-0.078503
1491,0.092996,0.023487,0.14204,-0.32471,-0.14769,-0.26949,-0.11293
1492,0.093321,0.066362,0.14886,-0.31464,-0.14671,-0.55824,-0.13112
1493,0.098517,0.10891,0.15471,-0.29255,-0.12852,-0.6755,-0.12917
1494,0.10794,0.15309,0.15796,-0.27858,-0.09994,-0.63587,-0.11098
1495,0.1206,0.19563,0.15309,-0.28735,-0.072331,-0.49685,-0.084024
1496,0.12743,0.23039,0.14074,-0.31042,-0.058689,-0.33023,-0.058689
1497,0.1284,0.25053,0.1284,-0.32698,-0.056741,-0.19154,-0.0405
1498,0.1284,0.2593,0.12548,-0.31399,-0.050244,-0.10774,-0.034329
1499,0.1297,0.26027,0.1323,-0.25,-0.0050961,-0.079152,-0.046996
1500,0.13002,0.2541,0.14724,-0.11618,0.10501,-0.0824,-0.079477
1501,0.12548,0.23689,0.16413,0.10306,0.28463,-0.089221,-0.12138
1502,0.11378,0.20116,0.17225,0.37818,0.50648,-0.076229,-0.15711
1503,0.092671,0.14399,0.16283,0.63153,0.72962,-0.027183,-0.17887
1504,0.065387,0.072208,0.13457,0.78159,0.90599,0.058891,-0.18504
1505,0.039078,0.0039985,0.095919,0.79978,1.0028,0.17322,-0.18049
1506,0.01829,-0.041799,0.056942,0.72605,1.0099,0.30055,-0.1714
1507,0.00010078,-0.061937,0.025436,0.64322,0.92873,0.43469,-0.15905
1508,-0.017439,-0.064861,0.0026992,0.61951,0.72929,0.56949,-0.14152
1509,-0.034004,-0.062587,-0.011917,0.6705,0.37006,0.68804,-0.11683
1510,-0.048945,-0.057065,-0.018738,0.7634,-0.1256,0.76242,-0.089546
1511,-0.057715,-0.049595,-0.013541,0.85922,-0.62418,0.77639,-0.063237
1512,-0.058689,-0.044073,0.0020496,0.92938,-0.98212,0.73287,-0.038551
1513,-0.060313,-0.038876,0.022512,0.94659,-1.1387,0.65329,-0.021661
1514,-0.071682,-0.033354,0.037778,0.8865,-1.1328,0.5552,-0.017439
1515,-0.093769,-0.027508,0.040052,0.73936,-1.0383,0.44444,-0.027508
1516,-0.11975,-0.025234,0.031282,0.51979,-0.91391,0.32556,-0.051544
1517,-0.14476,-0.030431,0.014068,0.26872,-0.79308,0.20603,-0.08305
1518,-0.1675,-0.046347,-0.0063954,0.031607,-0.68622,0.10112,-0.11293
1519,-0.18504,-0.07428,-0.024585,-0.15873,-0.58488,0.021213,-0.12722
1520,-0.18926,-0.10286,-0.034978,-0.2867,-0.47477,-0.029457,-0.11196
1521,-0.174,-0.12138,-0.034978,-0.35621,-0.35004,-0.047971,-0.059989
1522,-0.14152,-0.1217,-0.021012,-0.38999,-0.21427,-0.037902,0.020239
1523,-0.10286,-0.10838,0.0020496,-0.41046,-0.079802,-0.0028225,0.10696
1524,-0.069083,-0.088896,0.026735,-0.43124,0.038428,0.047847,0.1781
1525,-0.042124,-0.073955,0.04395,-0.45788,0.13392,0.096893,0.22259
1526,-0.020687,-0.066485,0.055318,-0.48711,0.20928,0.1284,0.23948
1527,-0.0099683,-0.06551,0.056617,-0.51504,0.26579,0.13587,0.23071
1528,-0.015815,-0.069408,0.045249,-0.54168,0.3038,0.11768,0.20473
1529,-0.034978,-0.073306,0.021863,-0.56506,0.32881,0.067336,0.17062
1530,-0.059339,-0.076229,-0.0076946,-0.57968,0.35024,-0.010943,0.13392
1531,-0.073955,-0.077853,-0.036927,-0.57708,0.37525,-0.073631,0.097543
1532,-0.077203,-0.079477,-0.059014,-0.55564,0.40481,-0.057715,0.069934
1533,-0.069083,-0.082076,-0.070058,-0.51115,0.43015,0.062789,0.059865
1534,-0.054467,-0.084024,-0.067784,-0.44326,0.43274,0.24241,0.069934
1535,-0.036927,-0.0824,-0.051868,-0.36109,0.37785,0.3811,0.093645
1536,-0.019388,-0.075255,-0.028807,-0.28476,0.23948,0.3811,0.11313
1537,-0.0083442,-0.063886,-0.0044465,-0.22239,0.0095202,0.19336,0.10956
1538,-0.012892,-0.050894,0.017965,-0.15581,-0.2867,-0.14866,0.075131
1539,-0.03303,-0.038227,0.040377,-0.043099,-0.59137,-0.53063,0.01764
1540,-0.059339,-0.028157,0.062464,0.13652,-0.82783,-0.81647,-0.046022
1541,-0.077203,-0.018088,0.089098,0.35187,-0.93924,-0.92398,-0.098641
1542,-0.079477,-0.0037969,0.11703,0.54155,-0.91553,-0.86356,-0.1269
1543,-0.065835,0.014392,0.13847,0.64192,-0.78886,-0.70733,-0.13112
1544,-0.046022,0.032906,0.14529,0.62568,-0.61476,-0.54363,-0.12787
1545,-0.027183,0.042651,0.1297,0.5068,-0.45008,-0.43189,-0.13145
1546,-0.015165,0.042001,0.092346,0.32783,-0.3377,-0.38317,-0.14769
1547,-0.013866,0.035505,0.042001,0.14139,-0.2906,-0.3718,-0.17367
1548,-0.02361,0.027385,-0.0083442,-0.0050961,-0.28378,-0.36693,-0.19803
1549,-0.037577,0.020564,-0.052843,-0.084349,-0.27761,-0.34517,-0.20713
1550,-0.045697,0.019589,-0.084674,-0.089221,-0.23928,-0.29385,-0.19186
1551,-0.039526,0.023487,-0.097341,-0.030756,-0.1675,-0.2081,-0.14769
1552,-0.019063,0.026735,-0.094743,0.058891,-0.085648,-0.10384,-0.080451
1553,0.0049729,0.02706,-0.082725,0.14399,-0.016789,-0.019388,-0.010293
1554,0.021538,0.023812,-0.068758,0.19531,0.032582,0.0069217,0.043625
1555,0.028684,0.022188,-0.056416,0.207,0.065062,-0.034654,0.072208
1556,0.026085,0.02706,-0.049595,0.18622,0.0852,-0.11715,0.07708
1557,0.016991,0.041027,-0.045372,0.14951,0.10177,-0.19089,0.067011
1558,0.01017,0.058241,-0.043099,0.11508,0.13392,-0.20745,0.055318
1559,0.0088706,0.07708,-0.039851,0.093645,0.20343,-0.16068,0.05272
1560,0.012443,0.091696,-0.037252,0.097543,0.30704,-0.081751,0.062464
1561,0.01829,0.097218,-0.03303,0.13262,0.4178,-0.0083442,0.084226
1562,0.028359,0.094945,-0.02426,0.20116,0.50128,0.059541,0.10826
1563,0.040702,0.087474,-0.010943,0.28983,0.54253,0.15633,0.12807
1564,0.054668,0.083576,0.0049729,0.37753,0.53961,0.31809,0.1362
1565,0.068635,0.090397,0.021863,0.44054,0.49868,0.52337,0.13392
1566,0.079029,0.11281,0.045899,0.46198,0.42982,0.71013,0.12385
1567,0.079679,0.14724,0.076755,0.43112,0.34472,0.8079,0.10664
1568,0.066362,0.18232,0.10436,0.34472,0.25995,0.79198,0.076431
1569,0.041027,0.2057,0.12288,0.2148,0.19369,0.69811,0.033231
1570,0.015042,0.21058,0.1362,0.074482,0.16283,0.60035,-0.012892
1571,-0.0054209,0.19628,0.15276,-0.027833,0.18134,0.56137,-0.047321
1572,-0.014516,0.16283,0.17615,-0.050569,0.24143,0.59515,-0.06616
1573,-0.013216,0.11606,0.20278,0.0046481,0.32231,0.66238,-0.075904
1574,-0.007045,0.06831,0.21805,0.0865,0.40643,0.70688,-0.08305
1575,-0.0041217,0.022837,0.2122,0.13522,0.48536,0.69421,-0.087272
1576,-0.0054209,-0.014516,0.18037,0.12028,0.54968,0.6273,-0.089871
1577,-0.008669,-0.036602,0.1349,0.047198,0.59287,0.53181,-0.092145
1578,-0.011592,-0.046022,0.08585,-0.052518,0.60684,0.43794,-0.094418
1579,-0.0096434,-0.045372,0.041027,-0.14769,0.5854,0.36194,-0.094743
1580,0.0020496,-0.034329,0.00010078,-0.212,0.53214,0.29665,-0.090845
1581,0.023162,-0.017114,-0.036278,-0.22661,0.46035,0.21252,-0.079802
1582,0.048172,0.0039985,-0.065835,-0.18829,0.38305,0.088773,-0.061288
1583,0.076755,0.025111,-0.089871,-0.11878,0.30282,-0.077528,-0.0405
1584,0.10859,0.041676,-0.11261,-0.050569,0.22097,-0.26722,-0.022311
1585,0.14172,0.05142,-0.13307,-0.0093186,0.14009,-0.44066,-0.010618
1586,0.1703,0.046548,-0.14704,-0.0080194,0.071558,-0.55824,-0.00054884
1587,0.18394,0.019589,-0.15191,-0.038876,0.03518,-0.59332,0.013418
1588,0.17712,-0.03173,-0.15451,-0.086948,0.040702,-0.55467,0.034855
1589,0.15601,-0.10579,-0.16295,-0.13892,0.080003,-0.48646,0.06019
1590,0.12548,-0.19186,-0.18179,-0.18504,0.13002,-0.4241,0.0852
1591,0.089098,-0.28118,-0.20972,-0.22142,0.1729,-0.38512,0.10826
1592,0.052395,-0.35816,-0.24415,-0.25065,0.19661,-0.36563,0.13392
1593,0.021213,-0.41013,-0.27761,-0.27274,0.19758,-0.35199,0.16673
1594,0.0017248,-0.42832,-0.30165,-0.29028,0.18232,-0.32308,0.20635
1595,-0.007045,-0.41111,-0.31139,-0.30944,0.15763,-0.25,0.24403
1596,-0.0083442,-0.36206,-0.30035,-0.32795,0.12937,-0.11098,0.26709
1597,-0.0037969,-0.29223,-0.27501,-0.34127,0.10436,0.10599,0.27424
1598,-0.00022403,-0.22304,-0.24156,-0.34387,0.086824,0.39604,0.26904
1599,0.00075039,-0.17367,-0.20258,-0.32893,0.07708,0.72312,0.25832
1600,0.0026992,-0.14541,-0.161,-0.29937,0.072208,1.0255,0.24793
1601,0.0049729,-0.12657,-0.11488,-0.2578,0.063763,1.2428,0.24046
1602,0.0095202,-0.10351,-0.063237,-0.20615,0.050771,1.3386,0.23136
1603,0.009845,-0.070058,-0.0099683,-0.14509,0.030308,1.3062,0.21025
1604,0.0091954,-0.027833,0.0433,-0.077203,-0.0031473,1.1629,0.17127
1605,0.0085458,0.01764,0.094945,-0.015815,-0.050894,0.94172,0.1206
1606,0.011469,0.066037,0.14107,0.024786,-0.11618,0.68252,0.072533
1607,0.020564,0.11866,0.17387,0.029658,-0.19154,0.41488,0.036479
1608,0.03518,0.17192,0.18524,-0.0089938,-0.26754,0.15796,0.0075714
1609,0.049147,0.21805,0.17712,-0.082725,-0.33218,-0.088247,-0.020037
1610,0.057267,0.2489,0.15276,-0.17042,-0.38025,-0.32601,-0.050569
1611,0.065062,0.26125,0.11703,-0.2487,-0.41468,-0.55889,-0.085973
1612,0.074806,0.26027,0.075131,-0.29742,-0.43839,-0.78106,-0.12982
1613,0.088448,0.25443,0.036479,-0.30132,-0.45041,-0.97367,-0.18049
1614,0.10436,0.25865,0.013743,-0.25812,-0.44651,-1.1133,-0.22856
1615,0.12158,0.27846,0.012768,-0.17562,-0.42312,-1.1835,-0.25975
1616,0.13555,0.30152,0.031932,-0.071032,-0.38122,-1.1916,-0.26527
1617,0.13717,0.30347,0.063113,0.028359,-0.32893,-1.1663,-0.25422
1618,0.1206,0.26677,0.090072,0.10274,-0.27793,-1.151,-0.24253
1619,0.086175,0.19726,0.10177,0.14821,-0.23928,-1.1682,-0.24156
1620,0.042975,0.11866,0.10014,0.17095,-0.21752,-1.2131,-0.25195
1621,0.0088706,0.054668,0.091372,0.17939,-0.21037,-1.2663,-0.26169
1622,-0.0047713,0.014392,0.079029,0.18329,-0.21265,-1.2995,-0.2565
1623,-0.00054884,-0.010943,0.062789,0.18622,-0.22077,-1.2985,-0.23116
1624,0.012768,-0.036927,0.041351,0.18654,-0.23214,-1.2647,-0.19511
1625,0.023162,-0.070382,0.013743,0.18362,-0.2435,-1.2069,-0.1636
1626,0.024137,-0.10741,-0.018088,0.17712,-0.25422,-1.1325,-0.14639
1627,0.014717,-0.13502,-0.048945,0.16283,-0.26299,-1.0399,-0.13762
1628,0.0026992,-0.14346,-0.072006,0.13847,-0.26429,-0.92203,-0.12203
1629,-0.0063954,-0.12787,-0.084999,0.11151,-0.26039,-0.77262,-0.082725
1630,-0.0089938,-0.089871,-0.087272,0.0852,-0.2513,-0.60047,-0.021337
1631,-0.0080194,-0.038551,-0.077528,0.063438,-0.23766,-0.41598,0.047847
1632,-0.0037969,0.011144,-0.057715,0.042651,-0.21979,-0.23279,0.10794
1633,0.0017248,0.047847,-0.03173,0.01829,-0.20031,-0.067459,0.14659
1634,0.008221,0.064413,-0.0093186,-0.011592,-0.18114,0.073182,0.16478
1635,0.011469,0.063113,0.0078962,-0.041799,-0.16165,0.22194,0.17387
1636,0.014392,0.052395,0.023812,-0.061937,-0.13502,0.45191,0.18784
1637,0.019914,0.044924,0.041351,-0.060638,-0.088247,0.82901,0.21577
1638,0.029658,0.050446,0.061165,-0.034329,-0.023935,1.3286,0.25313
1639,0.042001,0.073182,0.085525,0.015692,0.039727,1.8119,0.29178
1640,0.056292,0.10794,0.11346,0.0865,0.081627,2.0951,0.31646
1641,0.071234,0.14204,0.1349,0.16965,0.089098,2.0652,0.31159
1642,0.079029,0.16283,0.14042,0.24338,0.063113,1.7437,0.27261
1643,0.076106,0.17062,0.12418,0.28658,0.015367,1.2623,0.20863
1644,0.062789,0.1729,0.093321,0.28983,-0.041475,0.77737,0.13912
1645,0.04395,0.1703,0.058241,0.25345,-0.097017,0.39831,0.079029
1646,0.025761,0.16478,0.030633,0.19401,-0.14054,0.15503,0.034206
1647,0.013743,0.15666,0.017316,0.1336,-0.16328,0.01017,0.0026992
1648,0.008221,0.15179,0.016991,0.087149,-0.16847,-0.10156,-0.018738
1649,0.0033489,0.14659,0.025436,0.065062,-0.16718,-0.22921,-0.028807
1650,-0.00054884,0.13944,0.037778,0.066686,-0.16718,-0.38285,-0.026858
1651,-0.0024977,0.13197,0.048497,0.082277,-0.16782,-0.54103,-0.014191
1652,-0.0060706,0.12678,0.050771,0.10371,-0.16425,-0.67258,0.003024
1653,-0.010293,0.12385,0.046873,0.12418,-0.15158,-0.75703,0.020888
1654,-0.019063,0.11866,0.040052,0.13782,-0.13145,-0.77781,0.03453
1655,-0.032055,0.10826,0.03453,0.13652,-0.10124,-0.71642,0.039078
1656,-0.04992,0.09462,0.031282,0.1258,-0.059989,-0.56441,0.040702
1657,-0.065186,0.079354,0.03453,0.11671,-0.011917,-0.33023,0.054344
1658,-0.068109,0.066362,0.043625,0.11606,0.031932,-0.061288,0.087474
1659,-0.055766,0.059541,0.057592,0.12645,0.065387,0.16153,0.1362
1660,-0.036927,0.059216,0.070584,0.14561,0.080978,0.26839,0.18264
1661,-0.025884,0.061814,0.079354,0.1651,0.074157,0.23299,0.20863
1662,-0.030106,0.05207,0.086824,0.17842,0.051745,0.082602,0.19888
1663,-0.051219,0.012768,0.094295,0.17745,0.031932,-0.1191,0.15373
1664,-0.081751,-0.055116,0.10079,0.16835,0.032257,-0.31009,0.083576
1665,-0.10903,-0.13307,0.10339,0.16965,0.058891,-0.45625,0.01017
1666,-0.11683,-0.19251,0.10404,0.18979,0.10371,-0.5485,-0.053817
1667,-0.10351,-0.21395,0.10631,0.21675,0.15698,-0.60047,-0.096692
1668,-0.075579,-0.19089,0.10761,0.22519,0.207,-0.6297,-0.11651
1669,-0.045047,-0.13307,0.10826,0.19628,0.24436,-0.63815,-0.11845
1670,-0.014516,-0.057715,0.10599,0.12385,0.26255,-0.60014,-0.10936
1671,0.015367,0.016341,0.098193,0.01764,0.2593,-0.4634,-0.094743
1672,0.038428,0.072208,0.081627,-0.10286,0.23883,-0.18861,-0.08305
1673,0.046223,0.099167,0.055643,-0.22077,0.2109,0.20603,-0.07428
1674,0.03518,0.094945,0.020888,-0.32276,0.18946,0.64777,-0.062912
1675,0.011794,0.070909,-0.019063,-0.40201,0.18069,1.0388,-0.040175
1676,-0.011267,0.041676,-0.054142,-0.45593,0.18524,1.274,-0.010293
1677,-0.022636,0.028034,-0.079477,-0.47704,0.20538,1.2919,0.022837
1678,-0.018738,0.0433,-0.090196,-0.4582,0.24013,1.1074,0.054668
1679,-0.0041217,0.092346,-0.085973,-0.38869,0.28853,0.82024,0.081627
1680,0.014717,0.16153,-0.067784,-0.25812,0.34375,0.57663,0.10339
1681,0.036479,0.22454,-0.035303,-0.052193,0.39799,0.48536,0.12385
1682,0.055318,0.25702,0.0052977,0.24793,0.44476,0.55227,0.14237
1683,0.067011,0.24728,0.048822,0.6312,0.48017,0.69714,0.15406
1684,0.072208,0.19434,0.082277,1.0307,0.51297,0.82154,0.15796
1685,0.072533,0.10859,0.10112,1.3377,0.55617,0.86799,0.15536
1686,0.069285,0.012119,0.10242,1.4523,0.60782,0.82836,0.14139
1687,0.062139,-0.068758,0.083901,1.3282,0.63737,0.73157,0.11313
1688,0.049472,-0.12235,0.050771,1.0025,0.62341,0.61464,0.072858
1689,0.034206,-0.14574,0.011469,0.57371,0.56072,0.5159,0.025436
1690,0.016341,-0.14541,-0.022636,0.15081,0.46523,0.46263,-0.016789
1691,-0.00022403,-0.13404,-0.047646,-0.18926,0.36421,0.45288,-0.044723
1692,-0.011267,-0.12625,-0.062912,-0.4241,0.28593,0.4623,-0.054792
1693,-0.015165,-0.123,-0.071032,-0.56214,0.24338,0.46425,-0.058689
1694,-0.010943,-0.11521,-0.073306,-0.62515,0.23689,0.44476,-0.064861
1695,-0.0044465,-0.091495,-0.07493,-0.63717,0.24825,0.40026,-0.076554
1696,-0.0034721,-0.049595,-0.079802,-0.62515,0.25702,0.34212,-0.087272
1697,-0.0067202,-0.0021729,-0.087597,-0.60502,0.24988,0.28821,-0.088896
1698,-0.0096434,0.03518,-0.094418,-0.5826,0.22389,0.25637,-0.079477
1699,-0.007045,0.047847,-0.098316,-0.56117,0.17874,0.23883,-0.06551
1700,0.0010752,0.028684,-0.10351,-0.54655,0.097218,0.20603,-0.052193
1701,0.0078962,-0.020362,-0.11586,-0.54233,-0.05739,0.12093,-0.046022
1702,0.0046481,-0.082076,-0.13502,-0.55077,-0.31236,-0.043423,-0.04927
1703,-0.0093186,-0.13372,-0.161,-0.57059,-0.63587,-0.27826,-0.066485
1704,-0.029132,-0.16198,-0.18764,-0.59462,-0.93534,-0.53648,-0.094093
1705,-0.051219,-0.1649,-0.21167,-0.60956,-1.1016,-0.75897,-0.1204
1706,-0.069733,-0.14606,-0.23019,-0.60177,-1.0792,-0.91098,-0.13567
1707,-0.079477,-0.11391,-0.23019,-0.55727,-0.89215,-1.0003,-0.13697
1708,-0.081751,-0.07493,-0.20453,-0.45853,-0.61833,-1.0604,-0.12657
1709,-0.078178,-0.037577,-0.16035,-0.29288,-0.35979,-1.1111,-0.10741
1710,-0.070707,-0.0080194,-0.10709,-0.073306,-0.19316,-1.1484,-0.086298
1711,-0.061613,0.014392,-0.054467,0.16153,-0.14152,-1.1569,-0.072006
1712,-0.04862,0.030308,-0.010943,0.36941,-0.18407,-1.1283,-0.066485
1713,-0.031406,0.036154,0.022188,0.53149,-0.27631,-1.0536,-0.069083
1714,-0.015165,0.02641,0.048497,0.66953,-0.36693,-0.91358,-0.072331
1715,-0.0031473,0.0017248,0.073182,0.82186,-0.4202,-0.68297,-0.064861
1716,0.0046481,-0.032055,0.10047,0.98687,-0.42052,-0.35751,-0.043423
1717,0.011794,-0.058689,0.1245,1.1087,-0.377,0.030308,-0.012567
1718,0.019264,-0.069408,0.13522,1.1165,-0.31204,0.41683,0.016666
1719,0.020888,-0.070058,0.1271,0.97517,-0.24188,0.72345,0.03583
1720,0.014392,-0.068758,0.10436,0.70883,-0.17757,0.89722,0.042975
1721,-0.0021729,-0.069733,0.077405,0.39409,-0.12527,0.95016,0.042975
1722,-0.025559,-0.069083,0.063113,0.11768,-0.09117,0.95211,0.042975
1723,-0.050244,-0.063561,0.070909,-0.056416,-0.075255,0.96835,0.040702
1724,-0.070382,-0.04862,0.097218,-0.1256,-0.081426,1.0154,0.029009
1725,-0.088247,-0.025559,0.12743,-0.11293,-0.11066,1.0525,0.0014
1726,-0.10481,0.0023744,0.14821,-0.053168,-0.15386,1.0167,-0.037577
1727,-0.11618,0.032257,0.15309,0.021538,-0.20096,0.86506,-0.075255
1728,-0.11586,0.056292,0.14464,0.087474,-0.24188,0.59028,-0.10449
1729,-0.10514,0.073832,0.12807,0.131,-0.27209,0.22292,-0.12138
1730,-0.089221,0.078055,0.11183,0.14529,-0.28898,-0.1623,-0.12365
1731,-0.070382,0.063113,0.10306,0.12255,-0.29158,-0.45138,-0.10871
1732,-0.050244,0.033231,0.10436,0.065712,-0.27793,-0.57513,-0.077203
1733,-0.029782,-0.00087364,0.11346,-0.011917,-0.23831,-0.56734,-0.036278
1734,-0.011917,-0.019712,0.12905,-0.089221,-0.16555,-0.52641,0.0010752
1735,0.0043233,-0.011267,0.14724,-0.13827,-0.052843,-0.52381,0.024461
1736,0.02706,0.026735,0.16348,-0.13112,0.087149,-0.55337,0.038428
1737,0.059865,0.081952,0.1729,-0.064211,0.23039,-0.56701,0.050446
1738,0.09462,0.13652,0.17095,0.031607,0.33985,-0.53323,0.069285
1739,0.12353,0.17745,0.16121,0.10404,0.38954,-0.46665,0.091696
1740,0.14334,0.2083,0.14854,0.11801,0.36194,-0.41176,0.10729
1741,0.14886,0.24111,0.1349,0.064413,0.2567,-0.42215,0.10696
1742,0.13977,0.28106,0.11963,-0.034329,0.088773,-0.52186,0.091696
1743,0.12158,0.31809,0.099817,-0.14834,-0.12235,-0.69239,0.067011
1744,0.10339,0.334,0.072858,-0.2513,-0.35946,-0.88825,0.041351
1745,0.092346,0.31224,0.042975,-0.3325,-0.59105,-1.0581,0.022512
1746,0.085525,0.2515,0.013418,-0.39324,-0.75735,-1.1458,0.012768
1747,0.07773,0.16056,-0.011917,-0.43124,-0.78723,-1.1055,0.011144
1748,0.064413,0.053369,-0.029132,-0.44326,-0.62223,-0.91845,0.017316
1749,0.050446,-0.047971,-0.035953,-0.42572,-0.2591,-0.60696,0.03518
1750,0.045249,-0.12625,-0.033679,-0.37895,0.24176,-0.24123,0.064737
1751,0.05272,-0.1727,-0.026858,-0.31139,0.77996,0.081303,0.10047
1752,0.069934,-0.18601,-0.018088,-0.23798,1.2526,0.29795,0.13067
1753,0.091047,-0.1675,-0.0041217,-0.17335,1.5842,0.39864,0.14984
1754,0.11054,-0.12625,0.014068,-0.12365,1.7492,0.41748,0.15536
1755,0.12515,-0.077853,0.023162,-0.091495,1.7544,0.39864,0.15179
1756,0.13457,-0.045047,0.012443,-0.072331,1.6047,0.37688,0.14432
1757,0.13652,-0.037902,-0.020687,-0.052518,1.2798,0.36421,0.13717
1758,0.13392,-0.055766,-0.068434,-0.019063,0.75333,0.35447,0.13197
1759,0.12645,-0.086298,-0.11651,0.038103,0.045899,0.34375,0.1297
1760,0.12288,-0.11326,-0.15191,0.11541,-0.71448,0.33205,0.12743
1761,0.11995,-0.12917,-0.1675,0.19499,-1.3336,0.31581,0.11638
1762,0.11541,-0.13957,-0.1714,0.26125,-1.6671,0.29178,0.091372
1763,0.10566,-0.15288,-0.18017,0.30022,-1.6934,0.25637,0.054668
1764,0.094295,-0.17237,-0.20258,0.3051,-1.5008,0.20538,0.010495
1765,0.082602,-0.19186,-0.23603,0.27489,-1.2056,0.13457,-0.030431
1766,0.070909,-0.20031,-0.27046,0.21512,-0.89734,0.045249,-0.060313
1767,0.060515,-0.18764,-0.2932,0.13522,-0.61931,-0.06681,-0.077203
1768,0.05272,-0.1701,-0.29125,0.046873,-0.38934,-0.20355,-0.086298
1769,0.044924,-0.17107,-0.26624,-0.036278,-0.20908,-0.36238,-0.092145
1770,0.031282,-0.19901,-0.22564,-0.09994,-0.066485,-0.53096,-0.097666
1771,0.012768,-0.23246,-0.18212,-0.13664,0.05207,-0.69109,-0.10546
1772,-0.0099683,-0.23928,-0.13924,-0.14704,0.15016,-0.82004,-0.11878
1773,-0.034329,-0.20193,-0.097991,-0.14022,0.22747,-0.90774,-0.14119
1774,-0.053817,-0.12755,-0.061937,-0.13307,0.28756,-0.96133,-0.17335
1775,-0.067134,-0.034654,-0.029782,-0.14152,0.32686,-0.98699,-0.20843
1776,-0.077203,0.055318,-0.0047713,-0.17107,0.35057,-0.98049,-0.23376
1777,-0.084999,0.12905,0.016666,-0.21655,0.36876,-0.93632,-0.23928
1778,-0.092469,0.18654,0.038428,-0.26364,0.3889,-0.85577,-0.21849
1779,-0.097341,0.23559,0.061814,-0.2945,0.40806,-0.74631,-0.1753
1780,-0.098641,0.27391,0.086175,-0.29742,0.42073,-0.62873,-0.11943
1781,-0.094418,0.2908,0.10696,-0.27371,0.4243,-0.52739,-0.063237
1782,-0.078827,0.28821,0.12093,-0.23279,0.41878,-0.44813,-0.012892
1783,-0.051544,0.27326,0.12775,-0.19024,0.40449,-0.3783,0.024137
1784,-0.016789,0.25215,0.12905,-0.15808,0.38272,-0.28476,0.05272
1785,0.017965,0.23526,0.12353,-0.14541,0.36096,-0.12787,0.080328
1786,0.044924,0.22909,0.11411,-0.15191,0.34407,0.14626,0.11476
1787,0.053369,0.23396,0.097218,-0.16977,0.33433,0.5919,0.15471
1788,0.0433,0.24403,0.080328,-0.19251,0.32946,1.2126,0.19109
1789,0.021863,0.25215,0.066686,-0.21395,0.32848,1.9262,0.22097
1790,0.0065969,0.24566,0.061489,-0.22272,0.334,2.6099,0.24923
1791,0.0075714,0.21902,0.065387,-0.20355,0.35252,3.1436,0.28106
1792,0.029333,0.17939,0.070259,-0.13859,0.38565,3.4233,0.31614
1793,0.06831,0.13782,0.070909,-0.027183,0.43145,3.3937,0.35154
1794,0.11118,0.10631,0.067661,0.10306,0.47854,3.0861,0.38532
1795,0.14789,0.093321,0.06896,0.21577,0.51232,2.5992,0.41683
1796,0.16998,0.097543,0.079679,0.28593,0.51752,2.05,0.44086
1797,0.17225,0.11313,0.10306,0.31874,0.48796,1.5208,0.44346
1798,0.15309,0.13684,0.13814,0.33823,0.42885,1.0362,0.4178
1799,0.12093,0.16803,0.17517,0.35057,0.35804,0.5906,0.36713
1800,0.087799,0.20505,0.20408,0.34667,0.28528,0.18329,0.29957
1801,0.067011,0.24501,0.22,0.31711,0.2187,-0.17952,0.22974
1802,0.061489,0.28723,0.22227,0.25865,0.15958,-0.48873,0.16705
1803,0.066037,0.33108,0.2161,0.1768,0.11054,-0.74403,0.11898
1804,0.067986,0.36518,0.20993,0.085525,0.069285,-0.96295,0.081303
1805,0.047198,0.37071,0.20473,0.00042559,0.030957,-1.1764,0.042975
1806,-0.0011985,0.32751,0.18849,-0.06616,-0.0067202,-1.4001,-0.0047713
1807,-0.063561,0.22454,0.15633,-0.10838,-0.047971,-1.622,-0.072656
1808,-0.11651,0.075131,0.10826,-0.12008,-0.085973,-1.8042,-0.15808
1809,-0.14574,-0.086948,0.05142,-0.10384,-0.10546,-1.9094,-0.24578
1810,-0.14736,-0.22077,-0.0050961,-0.070382,-0.092794,-1.9228,-0.31366
1811,-0.13112,-0.30359,-0.047321,-0.034329,-0.04927,-1.8432,-0.34939
1812,-0.11196,-0.33543,-0.069408,-0.0080194,0.0036737,-1.6831,-0.35167
1813,-0.098641,-0.33185,-0.07493,0.0062721,0.035505,-1.4573,-0.33218
1814,-0.095068,-0.30847,-0.070058,0.010819,0.023162,-1.177,-0.2997
