,channel_1,channel_2,channel_3,channel_4,channel_5,channel_6,channel_7
0,0.0023744,-0.029132,0.036154,0.41391,0.24728,-0.34322,0.05272
1,-0.00087364,-0.0837,0.0065969,0.14724,0.131,-0.33867,0.013418
2,-0.0054209,-0.1191,-0.018738,-0.069733,0.05142,-0.25455,-0.020037
3,-0.010943,-0.12333,-0.040175,-0.20615,0.021538,-0.0083442,-0.042124
4,-0.014191,-0.095393,-0.057715,-0.2539,0.033881,0.39019,-0.047971
5,-0.012567,-0.042774,-0.068109,-0.22921,0.065712,0.8027,-0.037252
6,-0.0037969,0.025761,-0.064536,-0.16847,0.0852,1.0538,-0.01484
7,0.0075714,0.093645,-0.043099,-0.10903,0.073832,1.0375,0.010819
8,0.022837,0.14432,-0.010618,-0.075579,0.03583,0.7634,0.03453
9,0.046223,0.16835,0.023487,-0.072656,-0.0037969,0.34375,0.054019
10,0.07708,0.1703,0.053694,-0.090845,-0.014191,-0.057715,0.067011
11,0.10599,0.16315,0.07708,-0.11001,0.016016,-0.2971,0.074806
12,0.12483,0.15926,0.099167,-0.10709,0.071883,-0.32925,0.081952
13,0.13295,0.1651,0.12418,-0.065186,0.12775,-0.21785,0.091372
14,0.13555,0.17777,0.15373,0.01764,0.16348,-0.086298,0.10664
15,0.13327,0.18979,0.18394,0.11736,0.16445,-0.048945,0.12775
16,0.1271,0.19499,0.20311,0.19856,0.12905,-0.16523,0.15698
17,0.12158,0.19076,0.20798,0.23039,0.061814,-0.42345,0.18946
18,0.11671,0.17745,0.19628,0.19856,-0.027833,-0.75995,0.21123
19,0.11183,0.15244,0.16835,0.11183,-0.1256,-1.0838,0.21252
20,0.10469,0.11801,0.13035,-0.0034721,-0.212,-1.3056,0.19921
21,0.098517,0.078055,0.0865,-0.11651,-0.27339,-1.3716,0.18004
22,0.092021,0.037454,0.048172,-0.21037,-0.30554,-1.2952,0.16575
23,0.084226,0.0036737,0.024786,-0.27956,-0.31724,-1.1461,0.15731
24,0.078055,-0.018088,0.018615,-0.32925,-0.32146,-1.0123,0.14919
25,0.076106,-0.025559,0.020564,-0.35849,-0.32568,-0.95646,0.13295
26,0.079679,-0.022636,0.019589,-0.36401,-0.32925,-0.99024,0.10242
27,0.086175,-0.010943,0.0062721,-0.34809,-0.32211,-1.0779,0.059216
28,0.092671,0.0039985,-0.022636,-0.32081,-0.30002,-1.1588,0.011144
29,0.090072,0.015367,-0.065835,-0.29872,-0.26494,-1.177,-0.034654
30,0.076755,0.018615,-0.11066,-0.29158,-0.22337,-1.0997,-0.07428
31,0.055643,0.020239,-0.14314,-0.30359,-0.17789,-0.923,-0.097341
32,0.033231,0.029009,-0.15808,-0.33023,-0.1334,-0.68557,-0.10351
33,0.013743,0.042975,-0.15743,-0.36206,-0.098316,-0.44813,-0.097991
34,-0.0083442,0.047198,-0.15093,-0.39389,-0.084349,-0.24708,-0.090196
35,-0.040825,0.026085,-0.14899,-0.42085,-0.097666,-0.086948,-0.086948
36,-0.079477,-0.020362,-0.15418,-0.44359,-0.1321,0.044599,-0.088247
37,-0.11618,-0.079152,-0.1623,-0.45983,-0.1727,0.15796,-0.094093
38,-0.14541,-0.1334,-0.16523,-0.47055,-0.20128,0.2567,-0.10514
39,-0.16295,-0.1688,-0.1623,-0.47152,-0.20388,0.3353,-0.11358
40,-0.16782,-0.17919,-0.15483,-0.46372,-0.17659,0.3876,-0.11326
41,-0.16458,-0.1597,-0.14152,-0.44716,-0.12722,0.40903,-0.10709
42,-0.15938,-0.11228,-0.12138,-0.42377,-0.07428,0.40481,-0.097666
43,-0.15061,-0.050894,-0.097341,-0.39876,-0.030106,0.38272,-0.085324
44,-0.13827,0.0039985,-0.071682,-0.37375,-0.0067202,0.3444,-0.074605
45,-0.12333,0.038428,-0.041799,-0.34744,-0.0024977,0.28626,-0.072981
46,-0.10384,0.05142,-0.0057458,-0.31789,-0.0044465,0.20538,-0.0824
47,-0.080451,0.054993,0.036479,-0.27988,0.003024,0.097868,-0.10254
48,-0.061937,0.054668,0.071883,-0.23084,0.044275,-0.036927,-0.1295
49,-0.053492,0.05142,0.092021,-0.16945,0.14432,-0.18342,-0.15483
50,-0.05739,0.038753,0.092021,-0.097666,0.29178,-0.32276,-0.17757
51,-0.068434,0.01829,0.07708,-0.015815,0.44574,-0.44131,-0.19608
52,-0.079802,-0.0021729,0.062139,0.081303,0.56137,-0.52869,-0.20875
53,-0.082725,-0.0096434,0.060515,0.20083,0.61269,-0.57286,-0.21849
54,-0.073631,-0.0037969,0.075781,0.34732,0.5919,-0.57643,-0.22304
55,-0.05804,0.0026992,0.094295,0.51849,0.51849,-0.55305,-0.21785
56,-0.043748,-0.0080194,0.10209,0.68934,0.41748,-0.51699,-0.20485
57,-0.034654,-0.039201,0.090397,0.81634,0.28885,-0.48744,-0.18601
58,-0.034004,-0.079802,0.065387,0.8511,0.095594,-0.5001,-0.16068
59,-0.035953,-0.12268,0.030633,0.78159,-0.19901,-0.59625,-0.13145
60,-0.036602,-0.1636,-0.0041217,0.63283,-0.57124,-0.77814,-0.09994
61,-0.030431,-0.19803,-0.033354,0.44996,-0.91975,-0.97465,-0.068109
62,-0.014191,-0.22239,-0.055116,0.27781,-1.1273,-1.0614,-0.031081
63,0.008221,-0.22889,-0.06681,0.14399,-1.1345,-0.93989,0.016666
64,0.030957,-0.21362,-0.069083,0.054019,-0.96393,-0.60274,0.078055
65,0.051096,-0.17724,-0.062587,0.0039985,-0.70018,-0.14509,0.15179
66,0.062139,-0.1282,-0.054142,-0.021337,-0.43871,0.29113,0.23136
67,0.065062,-0.077528,-0.04927,-0.039851,-0.2448,0.58995,0.30282
68,0.062139,-0.035953,-0.048945,-0.059014,-0.13957,0.71468,0.34732
69,0.056942,-0.008669,-0.052193,-0.081101,-0.10644,0.70136,0.35089
70,0.056292,0.010495,-0.05804,-0.10254,-0.10579,0.62925,0.31451
71,0.063113,0.026735,-0.060313,-0.12398,-0.10709,0.56981,0.24858
72,0.067011,0.041676,-0.055441,-0.14087,-0.095068,0.55487,0.16998
73,0.067336,0.051096,-0.042449,-0.14509,-0.066485,0.57761,0.095269
74,0.065062,0.048822,-0.028482,-0.1334,-0.034329,0.61399,0.041351
75,0.060515,0.031607,-0.021986,-0.11326,-0.0044465,0.64387,0.024786
76,0.053044,-0.00022403,-0.025234,-0.09994,0.019589,0.65459,0.041027
77,0.044924,-0.036278,-0.037902,-0.10481,0.03518,0.6416,0.074806
78,0.039078,-0.059989,-0.057065,-0.13307,0.046548,0.61334,0.10761
79,0.030957,-0.067134,-0.07428,-0.17724,0.054993,0.58346,0.1245
80,0.020239,-0.059339,-0.084674,-0.22044,0.058241,0.56884,0.11931
81,0.0095202,-0.042774,-0.087597,-0.25357,0.055968,0.56267,0.10047
82,0.0017248,-0.023285,-0.08305,-0.27761,0.048822,0.53961,0.07708
83,0.00042559,-0.0044465,-0.073306,-0.301,0.031607,0.47724,0.054344
84,0.0085458,0.011144,-0.060963,-0.3286,0.009845,0.38435,0.033556
85,0.01829,0.021863,-0.042124,-0.35946,-0.0050961,0.29373,0.0095202
86,0.022188,0.026735,-0.019388,-0.38674,-0.0060706,0.24501,-0.019712
87,0.01764,0.024461,-0.00087364,-0.40201,0.012768,0.27196,-0.048296
88,0.0095202,0.023162,0.012443,-0.39616,0.053044,0.37168,-0.069733
89,0.0046481,0.02641,0.027709,-0.35296,0.10469,0.50128,-0.07428
90,0.0046481,0.036479,0.050121,-0.26754,0.15763,0.61009,-0.058365
91,0.0039985,0.050771,0.075456,-0.15256,0.20148,0.68512,-0.022636
92,0.0023744,0.067336,0.096893,-0.029132,0.23104,0.77087,0.027385
93,0.0020496,0.078379,0.11411,0.082602,0.2502,0.9375,0.0865
94,0.0033489,0.079679,0.1284,0.17192,0.26125,1.2149,0.14561
95,0.0043233,0.072533,0.13749,0.23981,0.26255,1.5332,0.19531
96,0.003024,0.061814,0.14042,0.2895,0.2528,1.7307,0.22552
97,0.00010078,0.05142,0.14074,0.32198,0.22552,1.6638,0.23006
98,-0.0021729,0.04395,0.14107,0.33563,0.18167,1.3169,0.20798
99,-0.0047713,0.044599,0.13944,0.33108,0.12678,0.81732,0.1638
100,-0.010293,0.048497,0.13522,0.31874,0.067011,0.36064,0.10696
101,-0.022636,0.046548,0.12288,0.31192,0.013418,0.092021,0.041351
102,-0.039851,0.034855,0.10436,0.31809,-0.021337,0.048172,-0.02426
103,-0.054142,0.015692,0.0852,0.35024,-0.02426,0.17387,-0.078178
104,-0.055441,0.0014,0.074157,0.4243,0.017316,0.3785,-0.11358
105,-0.039526,-0.0015233,0.073507,0.54091,0.10761,0.5906,-0.13015
106,-0.0099683,0.0091954,0.083901,0.66336,0.22844,0.76827,-0.13145
107,0.020239,0.029009,0.10047,0.73449,0.35641,0.88195,-0.12138
108,0.041676,0.051096,0.11606,0.71403,0.46977,0.91476,-0.10514
109,0.054993,0.065387,0.1258,0.59482,0.53896,0.86994,-0.088247
110,0.062464,0.06896,0.1232,0.40286,0.55195,0.77444,-0.078827
111,0.061489,0.063438,0.10631,0.18589,0.51622,0.66173,-0.0837
112,0.050771,0.055318,0.080003,-0.0041217,0.45548,0.5474,-0.10156
113,0.029658,0.049147,0.050121,-0.13307,0.39442,0.43015,-0.11845
114,0.0014,0.044275,0.020239,-0.19348,0.34927,0.3025,-0.12268
115,-0.024909,0.042326,-0.0067202,-0.19771,0.32296,0.15861,-0.10806
116,-0.043423,0.037778,-0.027833,-0.16003,0.30867,-0.00022403,-0.084674
117,-0.046671,0.023162,-0.046996,-0.092145,0.29633,-0.16847,-0.062912
118,-0.034654,-0.0015233,-0.064861,0.0052977,0.28268,-0.33153,-0.04862
119,-0.014516,-0.032055,-0.075579,0.15146,0.27391,-0.4686,-0.040825
120,0.0056225,-0.055766,-0.075904,0.35057,0.26839,-0.56896,-0.038551
121,0.017965,-0.065186,-0.06551,0.5578,0.26157,-0.63717,-0.036927
122,0.019264,-0.061613,-0.046996,0.70169,0.24955,-0.68622,-0.03303
123,0.008221,-0.04927,-0.030106,0.7241,0.23299,-0.74111,-0.031081
124,-0.0054209,-0.034654,-0.022636,0.62081,0.21252,-0.82913,-0.034978
125,-0.013541,-0.019712,-0.025234,0.43599,0.19141,-0.95841,-0.04115
126,-0.012567,-0.0028225,-0.03238,0.23429,0.17322,-1.1042,-0.042449
127,-0.0034721,0.013743,-0.037252,0.067661,0.16673,-1.2059,-0.03238
128,0.016341,0.024786,-0.034329,-0.034978,0.17907,-1.1994,-0.0041217
129,0.042975,0.030633,-0.022636,-0.074605,0.21382,-1.0727,0.038103
130,0.069934,0.036154,-0.0073698,-0.072331,0.25053,-0.88273,0.090072
131,0.092346,0.044275,0.0088706,-0.052518,0.2554,-0.71707,0.14107
132,0.10989,0.056292,0.026735,-0.027183,0.2083,-0.63587,0.18102
133,0.11931,0.074157,0.043625,0.0026992,0.11508,-0.64269,0.19888
134,0.11995,0.092346,0.057592,0.036154,-0.0041217,-0.69759,0.19271
135,0.11183,0.10501,0.062789,0.06961,-0.13015,-0.75443,0.16218
136,0.094295,0.11021,0.058566,0.097543,-0.25098,-0.77132,0.11216
137,0.063763,0.10761,0.048172,0.11346,-0.36141,-0.72714,0.05207
138,0.025436,0.10209,0.031607,0.11151,-0.45008,-0.62158,-0.0018481
139,-0.0060706,0.092021,0.014068,0.099167,-0.49815,-0.45301,-0.037902
140,-0.022961,0.080978,0.00075039,0.090722,-0.49101,-0.21557,-0.051544
141,-0.020362,0.073507,-0.0037969,0.097868,-0.43124,0.085525,-0.043099
142,-0.00054884,0.065712,0.0010752,0.12255,-0.3338,0.44541,-0.018738
143,0.022188,0.05142,0.0088706,0.15146,-0.2172,0.86506,0.010819
144,0.036479,0.031282,0.011144,0.16868,-0.096692,1.2997,0.033231
145,0.037778,0.014717,0.00042559,0.15666,0.0052977,1.6349,0.041351
146,0.028359,0.0059473,-0.022961,0.11216,0.061814,1.743,0.032257
147,0.011469,0.0036737,-0.049595,0.044275,0.062139,1.578,0.012443
148,-0.0076946,0.0052977,-0.06616,-0.028157,0.019914,1.2146,-0.0080194
149,-0.024909,0.009845,-0.061613,-0.090845,-0.0405,0.81277,-0.019063
150,-0.034004,0.023162,-0.036927,-0.13762,-0.09182,0.52044,-0.020687
151,-0.031081,0.045899,-0.0031473,-0.16945,-0.11813,0.38695,-0.021661
152,-0.019063,0.075456,0.027709,-0.19381,-0.11943,0.35479,-0.029782
153,-0.0054209,0.10339,0.049472,-0.22207,-0.10644,0.31744,-0.04862
154,0.0056225,0.1232,0.060515,-0.25715,-0.086623,0.19011,-0.078178
155,0.0088706,0.13067,0.064413,-0.29742,-0.054142,-0.042774,-0.11651
156,0.0085458,0.12548,0.061814,-0.339,-0.0021729,-0.34549,-0.16068
157,0.0043233,0.10599,0.048172,-0.37408,0.066362,-0.65666,-0.20778
158,-0.0031473,0.073832,0.020564,-0.40234,0.13392,-0.92235,-0.2552
159,-0.01484,0.040052,-0.018413,-0.42345,0.18654,-1.114,-0.29385
160,-0.02426,0.012443,-0.052843,-0.43482,0.22129,-1.2309,-0.31236
161,-0.026858,-0.0060706,-0.071357,-0.43287,0.23559,-1.2988,-0.30587
162,-0.025884,-0.01549,-0.071357,-0.4163,0.22292,-1.3498,-0.28508
163,-0.025884,-0.017439,-0.056741,-0.38869,0.17257,-1.4066,-0.26267
164,-0.02426,-0.011917,-0.035628,-0.35459,0.063763,-1.4697,-0.2461
165,-0.017114,0.0039985,-0.011267,-0.31691,-0.123,-1.521,-0.24058
166,-0.0057458,0.033231,0.014717,-0.28281,-0.37245,-1.5216,-0.24513
167,0.01017,0.072208,0.040702,-0.25098,-0.62645,-1.4414,-0.24903
168,0.027385,0.11378,0.060515,-0.21492,-0.796,-1.2933,-0.24058
169,0.048822,0.14724,0.069285,-0.16425,-0.82394,-1.1319,-0.21037
170,0.073507,0.16315,0.068635,-0.097341,-0.70895,-0.99706,-0.15743
171,0.098193,0.15796,0.061814,-0.021337,-0.504,-0.88208,-0.098641
172,0.11833,0.13132,0.050121,0.048172,-0.2854,-0.74631,-0.052843
173,0.12678,0.089748,0.03583,0.10014,-0.11228,-0.56279,-0.022311
174,0.11898,0.042001,0.016991,0.13717,-0.015165,-0.34095,-0.0050961
175,0.092346,-0.0063954,-0.0057458,0.17874,0.009845,-0.11845,0.0039985
176,0.054344,-0.051544,-0.022961,0.24793,-0.0076946,0.066686,0.010819
177,0.017316,-0.092469,-0.027183,0.34245,-0.028807,0.19369,0.022837
178,-0.015815,-0.12073,-0.017439,0.42917,-0.010293,0.26774,0.041351
179,-0.040175,-0.13534,-0.0021729,0.46035,0.069285,0.30412,0.064088
180,-0.054792,-0.13924,0.0056225,0.41456,0.19076,0.32588,0.090722
181,-0.061937,-0.13827,-0.0015233,0.3038,0.31354,0.35576,0.12158
182,-0.064211,-0.14281,-0.018738,0.15893,0.39734,0.40449,0.15926
183,-0.063561,-0.15711,-0.04115,0.014717,0.42625,0.46717,0.2057
184,-0.058365,-0.17497,-0.061613,-0.092469,0.40319,0.52889,0.2554
185,-0.04927,-0.18959,-0.073631,-0.14834,0.34342,0.57046,0.3025
186,-0.040175,-0.18991,-0.073955,-0.15873,0.24468,0.57274,0.3392
187,-0.031406,-0.17237,-0.062912,-0.14509,0.057917,0.52694,0.36713
188,-0.029782,-0.14119,-0.047321,-0.12755,-0.25162,0.44249,0.39312
189,-0.035303,-0.10806,-0.033679,-0.12073,-0.63587,0.3457,0.42365
190,-0.038227,-0.080127,-0.029457,-0.12885,-0.97562,0.25962,0.45418
191,-0.036602,-0.061613,-0.034978,-0.15029,-1.165,0.19011,0.4701
192,-0.029457,-0.048945,-0.044723,-0.18049,-1.166,0.12288,0.45808
193,-0.020687,-0.035953,-0.050894,-0.2133,-1.011,0.031932,0.41358
194,-0.010943,-0.01484,-0.050244,-0.23961,-0.77424,-0.092794,0.347
195,0.0046481,0.016016,-0.040825,-0.2513,-0.52934,-0.23896,0.27781
196,0.025436,0.050446,-0.025234,-0.24578,-0.33185,-0.37408,0.22714
197,0.05207,0.082602,-0.0057458,-0.22142,-0.20193,-0.46762,0.20051
198,0.079354,0.10274,0.010819,-0.18439,-0.13469,-0.5079,0.18329
199,0.10014,0.10664,0.021213,-0.14736,-0.11098,-0.50173,0.15991
200,0.10599,0.092671,0.017965,-0.12073,-0.10903,-0.47152,0.12255
201,0.092671,0.058241,0.00010078,-0.10903,-0.10871,-0.44456,0.073832
202,0.066037,0.012768,-0.025559,-0.10546,-0.10221,-0.44716,0.01894
203,0.037454,-0.027833,-0.046671,-0.098965,-0.088572,-0.49101,-0.034329
204,0.019914,-0.048296,-0.055766,-0.085324,-0.070707,-0.56149,-0.078503
205,0.020564,-0.048945,-0.055116,-0.067784,-0.048945,-0.63522,-0.10514
206,0.030957,-0.040175,-0.048945,-0.050569,-0.028157,-0.69369,-0.11131
207,0.040702,-0.037577,-0.039851,-0.038551,-0.010293,-0.72357,-0.10254
208,0.044599,-0.044073,-0.027833,-0.030106,-0.00087364,-0.72422,-0.089871
209,0.045899,-0.056416,-0.010943,-0.025884,-0.00054884,-0.69824,-0.088247
210,0.047523,-0.069408,0.0095202,-0.027183,-0.010618,-0.64724,-0.10156
211,0.049147,-0.080451,0.032906,-0.042124,-0.029782,-0.57481,-0.12852
212,0.044599,-0.087597,0.05142,-0.073306,-0.05804,-0.49068,-0.15873
213,0.027385,-0.090521,0.062789,-0.11456,-0.087922,-0.40851,-0.18504
214,0.00010078,-0.083375,0.06896,-0.14996,-0.11001,-0.33283,-0.19771
215,-0.025234,-0.062912,0.06831,-0.16685,-0.11553,-0.27306,-0.19738
216,-0.034329,-0.030106,0.063438,-0.15548,-0.10026,-0.24415,-0.18699
217,-0.023935,0.0088706,0.061165,-0.10968,-0.06551,-0.25715,-0.17205
218,0.0017248,0.046873,0.063763,-0.032055,-0.017439,-0.31074,-0.15353
219,0.030957,0.07708,0.069285,0.060515,0.039402,-0.37375,-0.13112
220,0.05142,0.098193,0.07708,0.14756,0.095594,-0.38999,-0.10871
221,0.058241,0.11183,0.086175,0.21123,0.14561,-0.31334,-0.087272
222,0.054668,0.11476,0.093645,0.24663,0.19174,-0.13794,-0.063237
223,0.041351,0.10566,0.093645,0.25702,0.23396,0.099817,-0.03303
224,0.026735,0.091047,0.084551,0.2528,0.27879,0.35154,0.0065969
225,0.017316,0.076755,0.065387,0.25767,0.33303,0.59547,0.051096
226,0.016016,0.066686,0.042001,0.29145,0.39896,0.84428,0.096893
227,0.020888,0.065387,0.019914,0.35349,0.46555,1.1252,0.14237
228,0.024137,0.075456,0.0069217,0.41261,0.51654,1.4263,0.18524
229,0.020239,0.094945,0.00042559,0.42625,0.54318,1.6927,0.21902
230,0.0085458,0.11606,-0.0018481,0.36616,0.53896,1.8544,0.24078
231,-0.0063954,0.12937,-0.00022403,0.23006,0.50323,1.8586,0.24988
232,-0.021337,0.13197,0.0017248,0.048497,0.44151,1.6901,0.24436
233,-0.03303,0.12613,-0.0024977,-0.13275,0.36648,1.3909,0.22357
234,-0.0405,0.11703,-0.012242,-0.27241,0.28885,1.0489,0.18687
235,-0.042124,0.10826,-0.020362,-0.34972,0.21772,0.7621,0.14496
236,-0.039201,0.10534,-0.019063,-0.35751,0.16121,0.61041,0.10891
237,-0.03303,0.11638,-0.0080194,-0.29482,0.12125,0.61236,0.087474
238,-0.02361,0.14139,0.01017,-0.15905,0.092671,0.71663,0.077405
239,-0.0096434,0.1742,0.033556,0.05142,0.071883,0.82933,0.073832
240,0.014717,0.20668,0.059216,0.32588,0.06084,0.87611,0.072858
241,0.051096,0.23591,0.091372,0.62308,0.071883,0.83193,0.073507
242,0.083576,0.26222,0.1284,0.87253,0.11703,0.7215,0.071558
243,0.096569,0.28366,0.16348,1.008,0.19531,0.58898,0.055643
244,0.080003,0.29243,0.18719,1.0054,0.29827,0.46717,0.01894
245,0.037778,0.28073,0.19401,0.90274,0.40351,0.37168,-0.037902
246,-0.01614,0.23948,0.18914,0.77054,0.48601,0.30282,-0.10611
247,-0.063561,0.16445,0.17874,0.6731,0.52239,0.258,-0.16458
248,-0.09117,0.06831,0.16705,0.64225,0.50713,0.23461,-0.19543
249,-0.090845,-0.030106,0.15991,0.64842,0.44996,0.22779,-0.19348
250,-0.068434,-0.11358,0.15926,0.62665,0.37428,0.23591,-0.16328
251,-0.033679,-0.16815,0.16121,0.52239,0.29892,0.24793,-0.11261
252,0.0056225,-0.18374,0.15828,0.33173,0.24078,0.2502,-0.054142
253,0.04395,-0.16198,0.15016,0.10209,0.20181,0.22617,-0.007045
254,0.074806,-0.11423,0.13522,-0.10059,0.1781,0.16218,0.015692
255,0.090397,-0.059339,0.11703,-0.23766,0.16218,0.055318,0.015692
256,0.089098,-0.0099683,0.098517,-0.29807,0.15796,-0.073306,0.011144
257,0.074157,0.028359,0.082277,-0.2893,0.17127,-0.18374,0.013418
258,0.046548,0.055318,0.06831,-0.22856,0.20635,-0.23084,0.028359
259,0.013418,0.069934,0.055318,-0.14379,0.25735,-0.17497,0.058891
260,-0.016789,0.071234,0.039727,-0.071682,0.30542,-0.017439,0.10794
261,-0.036927,0.058891,0.023487,-0.043099,0.32523,0.19109,0.16738
262,-0.043099,0.044275,0.0075714,-0.070707,0.30152,0.37201,0.22422
263,-0.041475,0.039078,-0.010293,-0.14769,0.22812,0.45678,0.26092
264,-0.038227,0.050121,-0.035953,-0.25033,0.11021,0.40254,0.26579
265,-0.035953,0.076106,-0.068758,-0.35167,-0.030106,0.21188,0.23883
266,-0.036278,0.10891,-0.10319,-0.4228,-0.16328,-0.069083,0.18849
267,-0.033679,0.13912,-0.13307,-0.44521,-0.2578,-0.36044,0.1297
268,-0.026533,0.15471,-0.15483,-0.41078,-0.29937,-0.57643,0.072533
269,-0.01549,0.15244,-0.16945,-0.31821,-0.29417,-0.65439,0.028684
270,-0.0037969,0.13165,-0.1753,-0.16263,-0.24903,-0.59625,0.0020496
271,0.0052977,0.097218,-0.17335,0.057917,-0.16945,-0.47152,-0.010293
272,0.014717,0.056617,-0.1623,0.31484,-0.055766,-0.37538,-0.017764
273,0.022512,0.020564,-0.14281,0.53343,0.082277,-0.37473,-0.028482
274,0.021863,-0.0050961,-0.12268,0.6351,0.23331,-0.47055,-0.045047
275,0.014068,-0.018738,-0.10611,0.58378,0.37623,-0.60372,-0.061937
276,0.0010752,-0.022961,-0.090521,0.40254,0.49511,-0.66835,-0.069733
277,-0.012892,-0.018738,-0.075255,0.15731,0.58475,-0.5524,-0.057715
278,-0.021986,-0.010943,-0.057065,-0.074605,0.65069,-0.20096,-0.024585
279,-0.026209,-0.0031473,-0.034329,-0.23863,0.69356,0.34212,0.024461
280,-0.026533,0.0065969,-0.0060706,-0.31983,0.69227,0.94951,0.083576
281,-0.026533,0.017316,0.022512,-0.33218,0.61918,1.4741,0.13684
282,-0.025234,0.017965,0.045249,-0.30327,0.4636,1.8083,0.16348
283,-0.024585,0.0014,0.053694,-0.2578,0.23916,1.908,0.15179
284,-0.026533,-0.0405,0.042975,-0.20908,-0.029457,1.7986,0.10924
285,-0.029457,-0.097341,0.012443,-0.1636,-0.29482,1.5524,0.054668
286,-0.031081,-0.15158,-0.027833,-0.12917,-0.49653,1.2555,0.0052977
287,-0.029782,-0.18926,-0.068434,-0.11326,-0.59657,0.98394,-0.024909
288,-0.025559,-0.212,-0.10189,-0.11813,-0.5878,0.80855,-0.029132
289,-0.019388,-0.22109,-0.1269,-0.13859,-0.4988,0.79361,-0.0073698
290,-0.013541,-0.21427,-0.13989,-0.16458,-0.37083,0.96283,0.044275
291,-0.0044465,-0.18861,-0.13827,-0.18277,-0.24903,1.2571,0.11703
292,0.008221,-0.15061,-0.1204,-0.19186,-0.16912,1.5384,0.19141
293,0.025436,-0.10449,-0.089871,-0.19673,-0.14996,1.6725,0.25053
294,0.044924,-0.058365,-0.054467,-0.19771,-0.19348,1.5806,0.28333
295,0.061814,-0.020362,-0.019388,-0.18764,-0.27793,1.2753,0.28788
296,0.071558,0.012443,0.011469,-0.15158,-0.3809,0.84493,0.26839
297,0.078055,0.05142,0.037454,-0.071357,-0.48126,0.40481,0.23754
298,0.083251,0.096569,0.054019,0.057267,-0.56376,0.042975,0.20538
299,0.08585,0.13587,0.063438,0.21123,-0.61671,-0.20355,0.18199
300,0.08585,0.15373,0.065712,0.33758,-0.63327,-0.34809,0.16348
301,0.082927,0.14009,0.064413,0.38337,-0.62191,-0.43969,0.14074
302,0.077405,0.099167,0.059865,0.33075,-0.59462,-0.53713,0.10924
303,0.073507,0.040702,0.05142,0.19369,-0.55987,-0.67387,0.06896
304,0.07708,-0.021661,0.039727,0.014068,-0.52251,-0.83953,0.028034
305,0.083901,-0.074605,0.031282,-0.15905,-0.48159,-0.99316,-0.016789
306,0.088773,-0.11098,0.02706,-0.28833,-0.43352,-1.1039,-0.066485
307,0.091372,-0.12722,0.032582,-0.36401,-0.37213,-1.1692,-0.11521
308,0.095269,-0.12592,0.051745,-0.39064,-0.29872,-1.2118,-0.15581
309,0.098842,-0.11683,0.08585,-0.37538,-0.22434,-1.2653,-0.19056
310,0.098193,-0.10676,0.12645,-0.32633,-0.16198,-1.3599,-0.21882
311,0.090397,-0.097666,0.15406,-0.25033,-0.11845,-1.5044,-0.24773
312,0.071558,-0.089871,0.15471,-0.14769,-0.096692,-1.6889,-0.28476
313,0.046548,-0.0837,0.1284,-0.017764,-0.091495,-1.8942,-0.33088
314,0.023812,-0.077853,0.0852,0.13847,-0.095393,-2.1118,-0.3809
315,0.012768,-0.069733,0.042651,0.30542,-0.10286,-2.3437,-0.43384
316,0.011794,-0.056741,0.013418,0.44898,-0.10774,-2.5863,-0.48776
317,0.01764,-0.035953,0.0033489,0.5422,-0.10514,-2.814,-0.53778
318,0.029658,-0.0089938,0.0062721,0.57533,-0.097991,-2.9839,-0.57578
319,0.03583,0.021863,0.018615,0.56039,-0.09182,-3.0437,-0.593
320,0.033556,0.050771,0.034855,0.51492,-0.087272,-2.956,-0.58553
321,0.025111,0.068635,0.051745,0.45093,-0.081101,-2.7153,-0.55532
322,0.016016,0.067336,0.057267,0.37071,-0.073306,-2.334,-0.50627
323,0.011144,0.045899,0.05207,0.27911,-0.06681,-1.8201,-0.44424
324,0.015367,0.013743,0.038753,0.17517,-0.061937,-1.1929,-0.37408
325,0.02641,-0.01549,0.025111,0.062789,-0.058689,-0.51407,-0.30587
326,0.043625,-0.030756,0.018615,-0.06616,-0.054142,0.10339,-0.2448
327,0.061165,-0.030756,0.019914,-0.21265,-0.04992,0.53343,-0.19608
328,0.07773,-0.01549,0.026085,-0.36141,-0.047971,0.72052,-0.1623
329,0.089098,0.009845,0.030633,-0.48451,-0.054467,0.70039,-0.13827
330,0.092346,0.036479,0.027385,-0.55954,-0.074605,0.57111,-0.11845
331,0.088448,0.057267,0.015042,-0.57903,-0.10384,0.43697,-0.095068
332,0.078379,0.069934,-0.00087364,-0.55662,-0.12755,0.36616,-0.068758
333,0.067986,0.075456,-0.014516,-0.52186,-0.13275,0.3798,-0.0405
334,0.061165,0.079029,-0.028157,-0.4962,-0.12073,0.46068,-0.007045
335,0.057917,0.0852,-0.045372,-0.48776,-0.10026,0.56721,0.031932
336,0.057592,0.095594,-0.064861,-0.49361,-0.0824,0.65199,0.073832
337,0.053369,0.11021,-0.078503,-0.4988,-0.068434,0.68317,0.11216
338,0.037129,0.1284,-0.084024,-0.48744,-0.061613,0.66173,0.14204
339,0.009845,0.14659,-0.084674,-0.45463,-0.063561,0.61399,0.15861
340,-0.023935,0.15309,-0.087922,-0.40558,-0.072006,0.56689,0.15958
341,-0.060638,0.14334,-0.10124,-0.35232,-0.079802,0.53928,0.14529
342,-0.093769,0.11378,-0.12105,-0.30684,-0.083375,0.53441,0.12678
343,-0.11878,0.063763,-0.14444,-0.26949,-0.076554,0.55682,0.11833
344,-0.13177,0.003024,-0.16523,-0.23831,-0.061288,0.60782,0.12775
345,-0.13729,-0.054142,-0.18179,-0.21037,-0.035628,0.67667,0.14821
346,-0.14054,-0.10026,-0.18991,-0.18114,-0.0089938,0.73449,0.16608
347,-0.14152,-0.13372,-0.18407,-0.14769,0.014392,0.75593,0.16868
348,-0.14314,-0.15841,-0.1636,-0.11423,0.029009,0.72864,0.15796
349,-0.14184,-0.16977,-0.1321,-0.087272,0.033231,0.66433,0.14172
350,-0.13437,-0.16588,-0.093769,-0.064536,0.028684,0.55877,0.13262
351,-0.1217,-0.15223,-0.059664,-0.043423,0.020888,0.37006,0.14237
352,-0.10774,-0.1334,-0.035628,-0.021337,0.011144,0.054993,0.17062
353,-0.094743,-0.11163,-0.020687,0.0046481,-0.0015233,-0.34874,0.21188
354,-0.084674,-0.089546,-0.0099683,0.036154,-0.011267,-0.71383,0.24988
355,-0.07428,-0.065835,-0.0031473,0.071883,-0.0034721,-0.87558,0.27294
356,-0.061288,-0.043423,0.0023744,0.10989,0.034206,-0.76644,0.28138
357,-0.04115,-0.025234,0.008221,0.14626,0.091372,-0.48808,0.27521
358,-0.017439,-0.01549,0.013418,0.18102,0.14561,-0.22694,0.25313
359,0.0033489,-0.01614,0.01764,0.20765,0.17842,-0.096367,0.21188
360,0.014717,-0.026858,0.019589,0.22065,0.18394,-0.080776,0.15536
361,0.013743,-0.046022,0.016991,0.21642,0.16705,-0.094093,0.097543
362,0.0010752,-0.067459,0.0078962,0.20083,0.13782,-0.067134,0.045899
363,-0.017439,-0.088247,-0.0067202,0.18297,0.10436,0.01894,0.0059473
364,-0.034654,-0.09994,-0.022961,0.1677,0.074482,0.14691,-0.015165
365,-0.043748,-0.097341,-0.034329,0.15536,0.054668,0.28983,-0.020687
366,-0.04115,-0.079477,-0.036278,0.14626,0.049472,0.41845,-0.017439
367,-0.031081,-0.046996,-0.028157,0.14074,0.070909,0.51265,-0.0073698
368,-0.018738,-0.0050961,-0.010943,0.14042,0.14042,0.5578,0.0069217
369,-0.0054209,0.037454,0.0095202,0.15049,0.27164,0.5526,0.024137
370,0.010819,0.072858,0.028034,0.16933,0.44898,0.50258,0.050771
371,0.033881,0.096569,0.042975,0.19011,0.6325,0.42203,0.089098
372,0.06019,0.10729,0.050446,0.2057,0.77672,0.32134,0.13197
373,0.082602,0.10664,0.051096,0.21577,0.85207,0.2083,0.1677
374,0.097868,0.094295,0.0433,0.22259,0.8524,0.10306,0.18687
375,0.10112,0.074482,0.029983,0.23006,0.7949,0.030633,0.18199
376,0.090722,0.048497,0.015042,0.23624,0.68967,-0.0015233,0.15211
377,0.061814,0.018615,-0.0031473,0.23299,0.5094,-0.016789,0.10696
378,0.016991,-0.011267,-0.024585,0.21642,0.2135,-0.040825,0.058241
379,-0.033354,-0.034654,-0.044398,0.18134,-0.18699,-0.077528,0.017316
380,-0.073955,-0.043748,-0.056741,0.12515,-0.59527,-0.11163,-0.0067202
381,-0.091495,-0.032055,-0.056416,0.054019,-0.87526,-0.1282,-0.010293
382,-0.080776,0.0017248,-0.039851,-0.020037,-0.94022,-0.123,0.00010078
383,-0.051219,0.047523,-0.010293,-0.081426,-0.80607,-0.10838,0.015367
384,-0.020362,0.091696,0.023812,-0.11196,-0.55564,-0.10059,0.024137
385,0.0036737,0.1284,0.056617,-0.09994,-0.28476,-0.11326,0.021213
386,0.020564,0.15373,0.082602,-0.046347,-0.061613,-0.16068,0.011144
387,0.036154,0.1677,0.10112,0.033881,0.085525,-0.24123,-0.00087364
388,0.051745,0.17192,0.11346,0.12288,0.15698,-0.33218,-0.010618
389,0.063438,0.16965,0.12353,0.20993,0.17452,-0.39227,-0.0093186
390,0.067336,0.16413,0.13392,0.30217,0.16315,-0.39811,0.010819
391,0.066362,0.15958,0.14691,0.41423,0.14399,-0.36011,0.049472
392,0.058241,0.15698,0.1638,0.54805,0.1271,-0.31724,0.096569
393,0.047523,0.15861,0.18167,0.6757,0.11671,-0.29417,0.13879
394,0.038103,0.16283,0.19369,0.74521,0.10924,-0.29905,0.15893
395,0.03453,0.16868,0.19369,0.715,0.090722,-0.31724,0.15373
396,0.036154,0.1729,0.18102,0.58313,0.058241,-0.30294,0.12807
397,0.039402,0.16933,0.15763,0.39507,0.029009,-0.18991,0.091372
398,0.043625,0.15991,0.1323,0.2148,0.025761,0.070909,0.056292
399,0.050121,0.14529,0.11086,0.087474,0.062464,0.45873,0.039078
400,0.054993,0.12807,0.09397,0.023162,0.131,0.87058,0.051745
401,0.06084,0.10664,0.079354,0.008221,0.20928,1.1824,0.094295
402,0.069285,0.076106,0.062464,0.016016,0.27911,1.3182,0.15406
403,0.078055,0.040702,0.0433,0.024137,0.32751,1.2837,0.21577
404,0.084551,0.0065969,0.025111,0.019589,0.35349,1.1574,0.26482
405,0.086824,-0.021661,0.010819,-0.0011985,0.35771,1.0424,0.28788
406,0.086824,-0.0405,-0.00022403,-0.039526,0.34959,0.99953,0.28203
407,0.091047,-0.046347,-0.0063954,-0.087597,0.33368,1.0193,0.2554
408,0.097543,-0.037902,-0.010943,-0.1334,0.31776,1.0473,0.21805
409,0.10404,-0.016464,-0.012892,-0.16555,0.30477,1.0288,0.17842
410,0.10729,0.013418,-0.010943,-0.18082,0.29957,0.94334,0.14172
411,0.10696,0.048822,-0.0073698,-0.18244,0.2999,0.80822,0.10794
412,0.10534,0.088124,-0.00054884,-0.17984,0.30087,0.65849,0.074482
413,0.10339,0.12353,0.013743,-0.17724,0.29503,0.52239,0.037129
414,0.10079,0.14432,0.03518,-0.17757,0.27489,0.40643,0.00075039
415,0.092346,0.14691,0.053369,-0.18017,0.23331,0.30964,-0.028807
416,0.079354,0.12905,0.062139,-0.17205,0.17842,0.22162,-0.046347
417,0.062139,0.098193,0.064737,-0.13762,0.1297,0.13067,-0.057065
418,0.042001,0.064088,0.065387,-0.068758,0.096893,0.023162,-0.076554
419,0.022188,0.038428,0.06961,0.026735,0.07708,-0.098965,-0.10903
420,0.0039985,0.029009,0.082602,0.15016,0.061489,-0.22239,-0.14541
421,-0.0050961,0.038753,0.10436,0.31094,0.041676,-0.32243,-0.17172
422,-0.0044465,0.064413,0.1258,0.48666,0.020564,-0.38512,-0.17757
423,0.0020496,0.094295,0.13587,0.62341,-0.0034721,-0.41403,-0.16133
424,0.012768,0.11801,0.13392,0.66953,-0.034978,-0.41046,-0.12722
425,0.020239,0.12613,0.1206,0.61853,-0.074605,-0.35556,-0.090196
426,0.01764,0.11541,0.096893,0.51849,-0.11553,-0.212,-0.060313
427,0.0046481,0.092996,0.073507,0.45646,-0.14704,0.028684,-0.034329
428,-0.011267,0.072208,0.063763,0.50583,-0.161,0.31386,-0.012892
429,-0.020037,0.063763,0.070259,0.66206,-0.16393,0.54058,0.0052977
430,-0.01614,0.071883,0.083576,0.84233,-0.1662,0.61431,0.022188
431,-0.0031473,0.087799,0.095594,0.94756,-0.17952,0.5055,0.036804
432,0.0085458,0.10177,0.098193,0.91541,-0.20096,0.26384,0.045249
433,0.013743,0.11086,0.092346,0.75463,-0.22629,-0.023285,0.0433
434,0.009845,0.11606,0.082602,0.51784,-0.2487,-0.27144,0.03518
435,0.00075039,0.11703,0.076755,0.27229,-0.26104,-0.4228,0.029009
436,-0.010293,0.10891,0.078379,0.072858,-0.25845,-0.45366,0.030308
437,-0.019712,0.092021,0.083576,-0.056741,-0.24545,-0.36433,0.037778
438,-0.03173,0.064088,0.084551,-0.11943,-0.23181,-0.17692,0.047523
439,-0.051544,0.027709,0.078379,-0.13567,-0.22077,0.086175,0.053044
440,-0.077528,-0.01484,0.063438,-0.12657,-0.20583,0.40611,0.052395
441,-0.10579,-0.062912,0.040702,-0.11651,-0.17724,0.766,0.047847
442,-0.13015,-0.11423,0.011144,-0.1243,-0.1308,1.1282,0.041027
443,-0.14574,-0.16263,-0.018738,-0.15841,-0.065835,1.4273,0.03518
444,-0.15256,-0.19608,-0.045697,-0.21622,0.0072465,1.5978,0.03518
445,-0.15126,-0.2133,-0.064211,-0.28183,0.067011,1.5949,0.045899
446,-0.14476,-0.21947,-0.072006,-0.33867,0.092996,1.4107,0.067661
447,-0.13567,-0.22207,-0.072331,-0.37473,0.076106,1.0807,0.089748
448,-0.12592,-0.22337,-0.071682,-0.38869,0.020888,0.66628,0.10112
449,-0.11683,-0.22499,-0.077853,-0.39162,-0.056741,0.24046,0.095269
450,-0.10806,-0.22499,-0.09182,-0.39584,-0.13762,-0.1295,0.072858
451,-0.095068,-0.22077,-0.10774,-0.40916,-0.19251,-0.40558,0.041027
452,-0.076229,-0.21297,-0.12268,-0.42929,-0.19251,-0.5852,0.0062721
453,-0.052193,-0.19868,-0.12787,-0.45008,-0.12333,-0.68167,-0.025559
454,-0.027833,-0.17302,-0.12008,-0.466,-0.0011985,-0.71902,-0.053817
455,-0.011267,-0.13242,-0.10514,-0.47737,0.13522,-0.71707,-0.078503
456,-0.008669,-0.079477,-0.087597,-0.48224,0.24143,-0.69044,-0.098641
457,-0.01549,-0.023285,-0.072331,-0.48224,0.2921,-0.63295,-0.11228
458,-0.020362,0.027385,-0.05804,-0.47899,0.29308,-0.53908,-0.12105
459,-0.011917,0.067336,-0.047971,-0.47055,0.26839,-0.42052,-0.1256
460,0.010495,0.092346,-0.039201,-0.4569,0.22357,-0.30359,-0.13307
461,0.03518,0.10274,-0.032705,-0.44034,0.11443,-0.21979,-0.14964
462,0.056292,0.10144,-0.03238,-0.428,-0.12138,-0.20128,-0.17594
463,0.06961,0.087149,-0.041475,-0.42702,-0.4686,-0.26234,-0.20388
464,0.075781,0.06831,-0.060313,-0.43287,-0.81906,-0.38674,-0.22564
465,0.079354,0.05207,-0.085973,-0.43579,-1.0464,-0.53875,-0.23603
466,0.080003,0.042651,-0.10709,-0.42929,-1.0747,-0.68199,-0.23506
467,0.080003,0.037454,-0.11845,-0.41728,-0.90579,-0.80087,-0.22824
468,0.079029,0.029009,-0.11683,-0.40234,-0.61021,-0.89864,-0.22434
469,0.07773,0.013743,-0.10319,-0.38772,-0.28248,-0.98407,-0.22954
470,0.072858,-0.0057458,-0.082076,-0.3796,-0.0031473,-1.0601,-0.23961
471,0.065712,-0.026209,-0.060638,-0.37895,0.17745,-1.1267,-0.24838
472,0.058566,-0.045047,-0.040825,-0.37992,0.24598,-1.1809,-0.25455
473,0.05142,-0.058689,-0.027508,-0.37375,0.22552,-1.2144,-0.2565
474,0.0433,-0.064861,-0.021337,-0.34647,0.15698,-1.2205,-0.25715
475,0.039078,-0.059014,-0.020687,-0.2867,0.086824,-1.1942,-0.26657
476,0.042326,-0.042124,-0.024585,-0.19511,0.045574,-1.1429,-0.28118
477,0.056292,-0.01614,-0.026209,-0.07493,0.044924,-1.0802,-0.28768
478,0.073507,0.011794,-0.020687,0.073182,0.078055,-1.0312,-0.28053
479,0.083251,0.034206,-0.010618,0.23136,0.12255,-1.024,-0.25845
480,0.079679,0.043625,-0.0031473,0.36453,0.16185,-1.0666,-0.23051
481,0.063438,0.037454,-0.0089938,0.44054,0.18881,-1.1283,-0.20453
482,0.038428,0.019589,-0.030431,0.45061,0.19921,-1.1481,-0.18212
483,0.013093,0.0026992,-0.061288,0.41585,0.19466,-1.076,-0.1649
484,0.0023744,-0.0047713,-0.094093,0.36583,0.17777,-0.91651,-0.15158
485,0.014717,0.0043233,-0.11748,0.31971,0.14951,-0.72357,-0.13859
486,0.041027,0.027709,-0.12463,0.28008,0.10599,-0.57578,-0.12073
487,0.066362,0.058566,-0.11456,0.23948,0.049796,-0.53128,-0.093444
488,0.079029,0.08585,-0.091495,0.19109,-0.01614,-0.58845,-0.061613
489,0.075781,0.10112,-0.064536,0.1271,-0.087597,-0.69791,-0.03238
490,0.064088,0.10047,-0.042449,0.053044,-0.15191,-0.78983,-0.0076946
491,0.053044,0.09462,-0.025559,-0.016789,-0.19868,-0.80315,0.016341
492,0.048172,0.092021,-0.013216,-0.065835,-0.22012,-0.70278,0.048497
493,0.048172,0.091372,-0.0031473,-0.085973,-0.21557,-0.49328,0.09397
494,0.049147,0.089098,0.0056225,-0.083375,-0.19154,-0.2133,0.14951
495,0.048822,0.082277,0.016666,-0.069733,-0.15646,0.086175,0.20246
496,0.048172,0.075456,0.029333,-0.057065,-0.11715,0.36129,0.23786
497,0.045249,0.071883,0.038103,-0.051868,-0.077528,0.59222,0.25378
498,0.042651,0.073507,0.042001,-0.054142,-0.043423,0.77379,0.2554
499,0.046873,0.074482,0.040377,-0.064536,-0.019063,0.90989,0.2502
500,0.059216,0.073507,0.03583,-0.079152,0.0059473,1.006,0.24533
501,0.074806,0.066362,0.037129,-0.090196,0.041676,1.0681,0.2463
502,0.08585,0.055318,0.051745,-0.092145,0.091372,1.098,0.25248
503,0.091696,0.044275,0.079354,-0.085648,0.14789,1.0992,0.2606
504,0.091696,0.037778,0.11508,-0.073631,0.20311,1.0713,0.26644
505,0.08585,0.039078,0.14951,-0.054467,0.24858,1.0135,0.26482
506,0.072858,0.046223,0.17127,-0.026533,0.27196,0.92418,0.24923
507,0.051096,0.055318,0.16965,0.0062721,0.26579,0.80173,0.2174
508,0.024137,0.057917,0.14302,0.044924,0.23624,0.64777,0.17647
509,-0.0024977,0.044924,0.098842,0.091047,0.19726,0.47757,0.13555
510,-0.029457,0.013743,0.053044,0.14594,0.1638,0.31549,0.10306
511,-0.056741,-0.030431,0.017316,0.20246,0.14367,0.19304,0.078055
512,-0.080776,-0.079802,-0.0024977,0.24858,0.13717,0.13035,0.057917
513,-0.097017,-0.12105,-0.0047713,0.27456,0.13392,0.11443,0.044924
514,-0.10351,-0.14184,0.0075714,0.27814,0.13035,0.10534,0.049796
515,-0.093119,-0.13762,0.028359,0.26255,0.12483,0.069285,0.069934
516,-0.06681,-0.11651,0.049796,0.23364,0.11476,-0.0044465,0.10112
517,-0.036278,-0.085973,0.064413,0.19466,0.095919,-0.095393,0.13197
518,-0.014191,-0.053817,0.06831,0.15536,0.066362,-0.17724,0.15179
519,-0.007045,-0.028807,0.064088,0.12028,0.028359,-0.23181,0.15438
520,-0.0073698,-0.013541,0.057917,0.092346,-0.013866,-0.25292,0.13327
521,-0.013216,-0.0067202,0.053044,0.072208,-0.059014,-0.24026,0.098193
522,-0.025234,-0.0011985,0.047523,0.058566,-0.10579,-0.18926,0.066362
523,-0.049595,0.0056225,0.039078,0.048497,-0.15061,-0.10221,0.049472
524,-0.078503,0.013418,0.028034,0.040702,-0.18796,0.022837,0.055968
525,-0.094093,0.024461,0.016341,0.034855,-0.21362,0.18134,0.085525
526,-0.089221,0.042651,0.0046481,0.035505,-0.22434,0.38207,0.1323
527,-0.069408,0.064413,-0.0044465,0.043625,-0.22077,0.63607,0.18297
528,-0.047321,0.082602,-0.010618,0.050121,-0.20615,0.92515,0.22552
529,-0.034654,0.088124,-0.013216,0.048822,-0.18926,1.1977,0.2489
530,-0.035303,0.068635,-0.017764,0.037454,-0.17692,1.4016,0.24955
531,-0.045047,0.023162,-0.023935,0.015692,-0.17367,1.5066,0.23299
532,-0.054792,-0.03303,-0.029457,-0.008669,-0.17497,1.5014,0.21155
533,-0.05804,-0.0837,-0.032055,-0.028482,-0.1753,1.4033,0.20018
534,-0.051219,-0.11131,-0.028482,-0.037252,-0.17172,1.2496,0.20343
535,-0.032705,-0.11033,-0.018088,-0.034004,-0.16815,1.0798,0.22032
536,-0.0076946,-0.079477,-0.0037969,-0.016464,-0.16523,0.91671,0.24728
537,0.01764,-0.030106,0.0085458,0.01017,-0.15905,0.7647,0.28171
538,0.038428,0.025761,0.015042,0.038103,-0.14087,0.62958,0.31549
539,0.051745,0.066686,0.014068,0.067336,-0.11715,0.5094,0.3366
540,0.056292,0.080978,0.009845,0.10112,-0.097666,0.38857,0.33303
541,0.053044,0.071234,0.0069217,0.14107,-0.082076,0.24403,0.30055
542,0.049147,0.050446,0.008221,0.18622,-0.06551,0.064737,0.24241
543,0.048822,0.032906,0.013418,0.23786,-0.046022,-0.13567,0.17257
544,0.055318,0.031607,0.025436,0.30672,-0.02426,-0.32211,0.10859
545,0.071558,0.054019,0.041676,0.40156,-0.0054209,-0.45333,0.061814
546,0.092996,0.099167,0.057267,0.50615,0.011144,-0.51309,0.032257
547,0.10956,0.15373,0.071234,0.57663,0.02641,-0.51829,0.009845
548,0.11411,0.19758,0.078704,0.56949,0.038428,-0.50725,-0.021986
549,0.10339,0.21317,0.071883,0.4714,0.041676,-0.51277,-0.072981
550,0.080003,0.19141,0.041027,0.30347,0.031282,-0.54168,-0.14509
551,0.054993,0.13295,-0.010293,0.10761,0.014392,-0.57903,-0.22499
552,0.034855,0.05207,-0.070707,-0.071032,-0.00087364,-0.60534,-0.2945
553,0.024786,-0.029782,-0.12625,-0.2042,-0.0067202,-0.60209,-0.33965
554,0.019914,-0.095068,-0.16588,-0.28411,-0.0028225,-0.55824,-0.36303
555,0.01829,-0.1295,-0.18894,-0.32211,0.0069217,-0.47444,-0.37473
556,0.021863,-0.1321,-0.19868,-0.33315,0.020888,-0.36238,-0.38415
557,0.029333,-0.10936,-0.19673,-0.3312,0.038103,-0.23993,-0.39584
558,0.033556,-0.080127,-0.18147,-0.31724,0.060515,-0.11943,-0.4124
559,0.029333,-0.049595,-0.15126,-0.28963,0.087149,-0.010293,-0.42767
560,0.024786,-0.017764,-0.10968,-0.25487,0.11476,0.079679,-0.42929
561,0.026735,0.014392,-0.062587,-0.22597,0.13879,0.14139,-0.40851
562,0.033231,0.042975,-0.019388,-0.21005,0.15276,0.17257,-0.36563
563,0.036479,0.064413,0.016666,-0.20778,0.15309,0.17322,-0.30554
564,0.029333,0.079029,0.042651,-0.21785,0.13912,0.14919,-0.24383
565,0.01017,0.086824,0.054668,-0.23733,0.11378,0.10631,-0.19381
566,-0.016464,0.086175,0.057592,-0.25845,0.080328,0.061489,-0.16003
567,-0.039851,0.081627,0.06019,-0.27209,0.051745,0.037778,-0.1308
568,-0.052193,0.080328,0.067011,-0.27176,0.040052,0.058566,-0.094418
569,-0.04862,0.084876,0.081627,-0.2513,0.053369,0.11931,-0.044723
570,-0.03303,0.095269,0.10079,-0.20323,0.087149,0.18622,0.013418
571,-0.010293,0.11248,0.11801,-0.12527,0.1284,0.24046,0.076106
572,0.014068,0.13295,0.13002,-0.023285,0.1638,0.28593,0.13749
573,0.038428,0.15438,0.13717,0.096244,0.19141,0.32361,0.19336
574,0.058891,0.17582,0.14009,0.22552,0.2122,0.32816,0.24436
575,0.076431,0.19726,0.14107,0.36518,0.22812,0.26157,0.28691
576,0.089098,0.21058,0.13555,0.50615,0.23948,0.11378,0.31419
577,0.091047,0.21155,0.12353,0.62503,0.24825,-0.07493,0.32231
578,0.081303,0.19531,0.10209,0.69162,0.24663,-0.24123,0.30704
579,0.062789,0.16088,0.070909,0.68155,0.22227,-0.35296,0.26449
580,0.046223,0.11346,0.032906,0.5971,0.17322,-0.41955,0.19758
581,0.033556,0.062789,-0.0031473,0.46295,0.11118,-0.47022,0.11801
582,0.022837,0.01894,-0.027833,0.31874,0.047523,-0.52706,0.044924
583,0.011794,-0.011592,-0.042124,0.19693,-0.0073698,-0.58001,-0.0080194
584,-0.0041217,-0.026858,-0.049595,0.10696,-0.052518,-0.60209,-0.041475
585,-0.027833,-0.026209,-0.054467,0.038103,-0.088247,-0.57383,-0.061613
586,-0.056416,-0.015165,-0.059339,-0.027508,-0.11358,-0.48516,-0.076554
587,-0.086298,-0.0034721,-0.066485,-0.10156,-0.13145,-0.34452,-0.089546
588,-0.11391,0.0010752,-0.075579,-0.18536,-0.14249,-0.17302,-0.097991
589,-0.13307,-0.0037969,-0.082725,-0.27176,-0.14346,0.0026992,-0.096042
590,-0.13534,-0.019712,-0.080776,-0.34874,-0.12755,0.1638,-0.083375
591,-0.11586,-0.038876,-0.067134,-0.41046,-0.090196,0.30087,-0.06551
592,-0.078827,-0.054142,-0.047971,-0.45723,-0.036278,0.40903,-0.043099
593,-0.034004,-0.068758,-0.032705,-0.49101,0.01764,0.49056,-0.018738
594,0.0046481,-0.085973,-0.029457,-0.52446,0.058566,0.53993,0.0065969
595,0.030308,-0.10546,-0.036602,-0.56214,0.081303,0.54903,0.028034
596,0.038103,-0.1269,-0.050244,-0.59787,0.088448,0.52044,0.039078
597,0.028684,-0.14931,-0.065835,-0.62256,0.087149,0.46295,0.040377
598,0.0056225,-0.17432,-0.077528,-0.63003,0.085525,0.38435,0.037129
599,-0.025559,-0.19316,-0.082725,-0.61508,0.090072,0.2947,0.030308
600,-0.056416,-0.20096,-0.082725,-0.58163,0.10469,0.19758,0.021863
601,-0.080127,-0.19706,-0.073631,-0.53648,0.12807,0.098193,0.013743
602,-0.087922,-0.18536,-0.052843,-0.48419,0.15211,-0.0024977,0.0026992
603,-0.079152,-0.17075,-0.024585,-0.41858,0.16998,-0.099615,-0.011267
604,-0.059339,-0.15678,0.0052977,-0.32276,0.18297,-0.18926,-0.020037
605,-0.03173,-0.13762,0.034855,-0.17757,0.19109,-0.27111,-0.020687
606,-0.0044465,-0.11163,0.063763,0.025111,0.20278,-0.34517,-0.012892
607,0.016016,-0.079477,0.092996,0.28756,0.22584,-0.40104,-0.00054884
608,0.02641,-0.049595,0.1271,0.61529,0.26255,-0.4241,0.009845
609,0.030633,-0.029782,0.16705,1.0038,0.30834,-0.40493,0.018615
610,0.030633,-0.02361,0.20538,1.3945,0.35219,-0.33672,0.028359
611,0.029658,-0.026209,0.23429,1.6768,0.38305,-0.2029,0.041027
612,0.030957,-0.02426,0.2489,1.756,0.40156,0.0078962,0.055968
613,0.035505,-0.0099683,0.24598,1.6027,0.40903,0.26352,0.070259
614,0.046223,0.019589,0.22812,1.2727,0.41456,0.49478,0.080978
615,0.062139,0.055643,0.20083,0.87546,0.42625,0.64225,0.087149
616,0.082602,0.086824,0.1703,0.52304,0.44119,0.67927,0.088773
617,0.10112,0.10404,0.13977,0.28528,0.45581,0.62113,0.087149
618,0.11541,0.10794,0.11411,0.17939,0.47075,0.5146,0.083576
619,0.1245,0.10989,0.10144,0.18946,0.48179,0.4243,0.084551
620,0.1336,0.11281,0.10339,0.29925,0.48439,0.40676,0.09397
621,0.14367,0.11054,0.12353,0.51232,0.47302,0.48406,0.10794
622,0.14951,0.10274,0.16348,0.82511,0.44249,0.62276,0.11768
623,0.14626,0.09462,0.2096,1.1798,0.3785,0.74196,0.11898
624,0.13457,0.089748,0.24858,1.466,0.26125,0.77184,0.11378
625,0.11703,0.093645,0.27099,1.5718,0.084551,0.68772,0.10631
626,0.094945,0.10209,0.27099,1.4575,-0.11943,0.51752,0.10014
627,0.072208,0.11216,0.2541,1.161,-0.29677,0.31971,0.096569
628,0.048822,0.1206,0.22909,0.77509,-0.40396,0.15438,0.094945
629,0.023487,0.12613,0.20311,0.41163,-0.44229,0.074157,0.093321
630,-0.0089938,0.12743,0.18102,0.15698,-0.43839,0.095919,0.092996
631,-0.045697,0.11638,0.16283,0.033881,-0.42897,0.18427,0.091696
632,-0.081101,0.090072,0.14951,0.0078962,-0.43936,0.258,0.087149
633,-0.11196,0.053044,0.13782,0.026735,-0.46437,0.24078,0.076755
634,-0.13697,0.0088706,0.1245,0.048172,-0.48549,0.11054,0.058566
635,-0.15093,-0.03238,0.10404,0.046873,-0.48289,-0.10741,0.026085
636,-0.14834,-0.063561,0.078379,0.010495,-0.43936,-0.36173,-0.025234
637,-0.1334,-0.078827,0.052395,-0.068758,-0.35459,-0.60989,-0.086298
638,-0.11391,-0.080776,0.024786,-0.18342,-0.24156,-0.82459,-0.14152
639,-0.094743,-0.071357,-0.0031473,-0.31918,-0.12787,-0.98504,-0.17497
640,-0.079477,-0.054467,-0.029457,-0.46502,-0.037902,-1.0831,-0.18179
641,-0.068434,-0.032055,-0.04862,-0.61216,0.015692,-1.1237,-0.16523
642,-0.059339,-0.0089938,-0.064861,-0.7502,0.03453,-1.1133,-0.13404
643,-0.048296,0.0069217,-0.078178,-0.85966,0.021213,-1.063,-0.099615
644,-0.029782,0.015367,-0.090845,-0.92268,-0.023935,-0.98504,-0.073631
645,-0.0093186,0.026735,-0.10189,-0.93145,-0.10481,-0.91196,-0.064536
646,0.0069217,0.045249,-0.11001,-0.89637,-0.23896,-0.88435,-0.076554
647,0.017965,0.069285,-0.12235,-0.847,-0.44878,-0.9256,-0.10156
648,0.022837,0.087474,-0.14541,-0.80705,-0.72227,-1.025,-0.12755
649,0.023162,0.088124,-0.17659,-0.78658,-0.99543,-1.1383,-0.14216
650,0.021213,0.075131,-0.21005,-0.77781,-1.1793,-1.2098,-0.13989
651,0.019589,0.054019,-0.23961,-0.77197,-1.2166,-1.2007,-0.1204
652,0.021863,0.037778,-0.26072,-0.75735,-1.1059,-1.1215,-0.087922
653,0.029333,0.02641,-0.27209,-0.73624,-0.8915,-1.0084,-0.053817
654,0.037454,0.019264,-0.27371,-0.7122,-0.63847,-0.89572,-0.031406
655,0.041351,0.019914,-0.26267,-0.68557,-0.40201,-0.77944,-0.027833
656,0.033881,0.038103,-0.23766,-0.65731,-0.20875,-0.64464,-0.030431
657,0.017965,0.084551,-0.20388,-0.6232,-0.06551,-0.49328,-0.023285
658,0.0036737,0.15763,-0.17042,-0.58293,0.030633,-0.35199,0.0017248
659,-0.0018481,0.22877,-0.14249,-0.53778,0.083901,-0.25487,0.044924
660,0.0039985,0.26449,-0.12398,-0.49458,0.10112,-0.22044,0.095594
661,0.016666,0.24338,-0.11586,-0.45853,0.096893,-0.24318,0.14237
662,0.031282,0.16835,-0.11456,-0.43482,0.090397,-0.29417,0.17939
663,0.042326,0.062789,-0.11586,-0.4163,0.095919,-0.32048,0.20213
664,0.045574,-0.044073,-0.11943,-0.39584,0.11216,-0.27956,0.21025
665,0.044275,-0.13177,-0.12073,-0.36856,0.12483,-0.15581,0.20798
666,0.042975,-0.18991,-0.11878,-0.33737,0.12807,0.031282,0.20083
667,0.041351,-0.22304,-0.11293,-0.30424,0.1271,0.22065,0.19044
668,0.038103,-0.24091,-0.10351,-0.27111,0.13197,0.34667,0.17355
669,0.030633,-0.25422,-0.094743,-0.23733,0.14172,0.37493,0.14886
670,0.021213,-0.26819,-0.09117,-0.19836,0.14432,0.32101,0.11833
671,0.013418,-0.28411,-0.097017,-0.14996,0.1206,0.23851,0.092996
672,0.01017,-0.2984,-0.11033,-0.090521,0.056617,0.20051,0.078704
673,0.014392,-0.30424,-0.12657,-0.03173,-0.04862,0.27424,0.07708
674,0.02706,-0.30165,-0.13957,0.012443,-0.18082,0.4675,0.084876
675,0.048497,-0.29288,-0.14639,0.032906,-0.31171,0.7254,0.095594
676,0.074806,-0.27696,-0.14606,0.028359,-0.41078,0.9664,0.099492
677,0.10047,-0.2487,-0.13957,0.0046481,-0.45755,1.1106,0.087474
678,0.11963,-0.20485,-0.13307,-0.022636,-0.44618,1.1113,0.06019
679,0.13262,-0.15353,-0.13177,-0.04115,-0.3835,0.98492,0.024461
680,0.14172,-0.10449,-0.13697,-0.047321,-0.28735,0.81277,-0.0093186
681,0.14724,-0.067134,-0.14541,-0.040825,-0.17789,0.65719,-0.034329
682,0.14659,-0.046022,-0.14769,-0.03238,-0.073631,0.51102,-0.043099
683,0.13684,-0.040825,-0.14054,-0.029782,0.0091954,0.35609,-0.035953
684,0.11768,-0.053492,-0.1269,-0.034004,0.065062,0.22129,-0.017439
685,0.093645,-0.073306,-0.10481,-0.041475,0.095269,0.16575,0.0072465
686,0.072208,-0.087922,-0.075904,-0.048296,0.11151,0.20603,0.031932
687,0.060515,-0.083375,-0.045372,-0.04927,0.12125,0.29568,0.040377
688,0.058891,-0.053168,-0.021661,-0.041799,0.12775,0.35609,0.020564
689,0.064088,-0.0018481,-0.0047713,-0.028482,0.12385,0.32361,-0.032055
690,0.064088,0.06084,0.0078962,-0.013216,0.10859,0.17615,-0.10806
691,0.055968,0.12125,0.019264,0.0033489,0.089748,-0.054792,-0.18601
692,0.037129,0.17322,0.031607,0.013093,0.074157,-0.30879,-0.24935
693,0.01017,0.21577,0.046548,0.0069217,0.064737,-0.52511,-0.29158
694,-0.019063,0.2476,0.065387,-0.015165,0.060515,-0.65569,-0.31366
695,-0.046347,0.26319,0.086175,-0.035953,0.065712,-0.67452,-0.31496
696,-0.063237,0.25767,0.10501,-0.037577,0.091047,-0.58228,-0.2919
697,-0.06551,0.23559,0.12028,-0.0099683,0.13814,-0.40071,-0.2435
698,-0.056091,0.207,0.13457,0.044599,0.20343,-0.15613,-0.17205
699,-0.037902,0.18427,0.14789,0.11151,0.27521,0.14074,-0.082076
700,-0.018738,0.18134,0.16056,0.17907,0.34277,0.48309,0.017965
701,-0.0015233,0.20473,0.169,0.23818,0.40449,0.8498,0.11573
702,0.011794,0.2502,0.17777,0.27911,0.4597,1.186,0.19986
703,0.019264,0.2973,0.19109,0.29048,0.49803,1.3994,0.25605
704,0.017965,0.32913,0.2109,0.26514,0.51395,1.4127,0.27716
705,0.0095202,0.33433,0.22941,0.2096,0.5055,1.2146,0.26644
706,-0.00054884,0.31581,0.23883,0.14789,0.47919,0.88488,0.22779
707,-0.0060706,0.28788,0.23266,0.10989,0.45061,0.57079,0.17582
708,-0.0080194,0.26417,0.21382,0.10534,0.42852,0.40254,0.131
709,-0.0096434,0.25248,0.18719,0.1219,0.4152,0.41228,0.10436
710,-0.0099683,0.24923,0.15893,0.13457,0.40611,0.52466,0.097868
711,-0.0093186,0.24858,0.1323,0.1206,0.39214,0.62828,0.10306
712,-0.0099683,0.24695,0.10794,0.079029,0.37006,0.65426,0.11346
713,-0.01484,0.2463,0.086175,0.022837,0.3392,0.60164,0.1245
714,-0.027508,0.24403,0.062139,-0.034978,0.2986,0.51395,0.13392
715,-0.044398,0.23721,0.032582,-0.085324,0.24858,0.44249,0.13847
716,-0.062262,0.22617,0.00010078,-0.12365,0.19758,0.4152,0.13522
717,-0.076879,0.20798,-0.027833,-0.15353,0.15763,0.41943,0.11833
718,-0.085324,0.18264,-0.038551,-0.174,0.12807,0.4152,0.084876
719,-0.086948,0.14724,-0.026858,-0.18082,0.081952,0.35804,0.037454
720,-0.076554,0.10826,0.0026992,-0.17854,-0.011917,0.22324,-0.017439
721,-0.058365,0.071883,0.039078,-0.17854,-0.14476,0.011794,-0.072331
722,-0.043099,0.044275,0.069285,-0.19478,-0.25715,-0.25487,-0.12105
723,-0.040825,0.026735,0.086175,-0.22921,-0.28346,-0.54298,-0.15938
724,-0.051544,0.016341,0.090722,-0.2513,-0.2055,-0.81971,-0.18666
725,-0.067134,0.012119,0.089098,-0.21395,-0.060963,-1.0623,-0.20485
726,-0.079477,0.01017,0.090397,-0.076879,0.086175,-1.2618,-0.2159
727,-0.0837,0.011144,0.10047,0.16023,0.19044,-1.419,-0.21687
728,-0.078827,0.016341,0.11768,0.45158,0.24111,-1.5161,-0.20778
729,-0.068758,0.024461,0.14074,0.74196,0.25183,-1.4969,-0.18309
730,-0.056091,0.038103,0.16933,1.0051,0.25248,-1.2904,-0.14216
731,-0.043099,0.057592,0.19823,1.2272,0.27164,-0.89215,-0.092145
732,-0.032055,0.076431,0.22259,1.3799,0.31516,-0.39844,-0.0405
733,-0.025559,0.083901,0.23331,1.4176,0.36129,0.03453,0.0020496
734,-0.020037,0.074157,0.22389,1.3113,0.40221,0.28528,0.025111
735,-0.014516,0.05142,0.19563,1.0846,0.45321,0.33238,0.026085
736,-0.0063954,0.018615,0.15731,0.80108,0.52921,0.24176,0.0072465
737,0.0039985,-0.018738,0.11768,0.52661,0.61951,0.10599,-0.024909
738,0.013093,-0.056416,0.07708,0.31516,0.69259,-0.00054884,-0.05804
739,0.020564,-0.090521,0.036804,0.18622,0.7124,-0.035953,-0.081101
740,0.028684,-0.12138,-0.00054884,0.13035,0.65654,0.0072465,-0.090196
741,0.031932,-0.14639,-0.035953,0.11671,0.53636,0.11963,-0.088572
742,0.028359,-0.17042,-0.070058,0.11801,0.38825,0.28658,-0.073955
743,0.020564,-0.19413,-0.10059,0.11443,0.23526,0.48861,-0.049595
744,0.017316,-0.22304,-0.12852,0.096569,0.047198,0.7111,-0.01614
745,0.023162,-0.25845,-0.15158,0.065062,-0.22369,0.94432,0.025436
746,0.037129,-0.29677,-0.16782,0.033556,-0.58488,1.1727,0.067661
747,0.05142,-0.31983,-0.17497,0.019589,-0.95743,1.362,0.10436
748,0.057592,-0.31789,-0.16945,0.029983,-1.2192,1.4523,0.13652
749,0.056292,-0.29093,-0.14704,0.057267,-1.2865,1.3987,0.17062
750,0.05142,-0.2461,-0.10903,0.087474,-1.1617,1.1957,0.20603
751,0.045899,-0.19316,-0.062912,0.11118,-0.91033,0.87513,0.23559
752,0.042651,-0.14931,-0.015815,0.11573,-0.62873,0.49543,0.24825
753,0.039727,-0.12333,0.025436,0.096569,-0.39909,0.12483,0.23851
754,0.034855,-0.11391,0.05272,0.060515,-0.25845,-0.17335,0.2096
755,0.029009,-0.11228,0.070259,0.014392,-0.19998,-0.36498,0.16738
756,0.021213,-0.11066,0.082927,-0.036927,-0.19641,-0.46145,0.12028
757,0.014068,-0.10774,0.089748,-0.089871,-0.21167,-0.5092,0.072533
758,0.009845,-0.10254,0.087799,-0.14216,-0.22434,-0.55694,0.031607
759,0.012768,-0.097017,0.075131,-0.19056,-0.21947,-0.60891,0.009845
760,0.023487,-0.088572,0.05207,-0.23506,-0.19283,-0.63295,0.015042
761,0.039727,-0.070707,0.021213,-0.27241,-0.14346,-0.57059,0.04395
762,0.058566,-0.042774,-0.008669,-0.2984,-0.084024,-0.3796,0.090072
763,0.080003,-0.012567,-0.033679,-0.30489,-0.024585,-0.08305,0.13879
764,0.10112,0.013418,-0.050894,-0.28086,0.024461,0.21707,0.17712
765,0.11995,0.029658,-0.061937,-0.21687,0.058891,0.39019,0.19986
766,0.13327,0.032257,-0.071357,-0.10449,0.077405,0.34537,0.20343
767,0.13717,0.020564,-0.080776,0.058891,0.091696,0.070909,0.19044
768,0.12743,-0.0018481,-0.090196,0.2606,0.12807,-0.35621,0.16803
769,0.10501,-0.028807,-0.095717,0.46263,0.20376,-0.80997,0.14399
770,0.074482,-0.052843,-0.094093,0.61106,0.31354,-1.1764,0.11573
771,0.042975,-0.064211,-0.0837,0.65231,0.42755,-1.4021,0.07773
772,0.019589,-0.063886,-0.068109,0.57858,0.5094,-1.4956,0.02641
773,0.0075714,-0.052518,-0.055441,0.42268,0.53408,-1.5031,-0.034329
774,0.0020496,-0.036278,-0.04927,0.24793,0.50225,-1.4736,-0.10189
775,-0.0031473,-0.022961,-0.045372,0.12255,0.42722,-1.4414,-0.16718
776,-0.008669,-0.014191,-0.038551,0.077405,0.30867,-1.4203,-0.22142
777,-0.010618,-0.0054209,-0.027183,0.093645,0.10436,-1.4086,-0.2578
778,-0.0096434,0.0026992,-0.015165,0.11931,-0.21687,-1.3998,-0.27436
779,-0.007045,0.008221,-0.0089938,0.11248,-0.60014,-1.3829,-0.27761
780,-0.0024977,0.012768,-0.0099683,0.063763,-0.92593,-1.3384,-0.26722
781,0.0052977,0.020564,-0.011917,-0.0018481,-1.0854,-1.2491,-0.23636
782,0.012443,0.031932,-0.0083442,-0.045047,-1.0403,-1.1094,-0.18829
783,0.017965,0.045249,0.0095202,-0.031406,-0.82686,-0.92885,-0.13534
784,0.022837,0.057267,0.039727,0.06961,-0.52998,-0.72909,-0.09182
785,0.030633,0.070909,0.077405,0.27716,-0.23928,-0.52544,-0.062587
786,0.041676,0.087149,0.11573,0.55974,-0.019712,-0.32113,-0.046022
787,0.056292,0.10631,0.14886,0.83388,0.10631,-0.12235,-0.031081
788,0.071234,0.13262,0.1755,1.0018,0.15958,0.067986,-0.0063954
789,0.082927,0.1625,0.19239,1.0041,0.17127,0.24338,0.029333
790,0.087149,0.19174,0.19466,0.85045,0.16868,0.38825,0.065387
791,0.079354,0.21285,0.1768,0.60619,0.16835,0.49381,0.091047
792,0.059541,0.22292,0.14367,0.35414,0.16998,0.56332,0.10404
793,0.03518,0.22357,0.10501,0.14984,0.169,0.60522,0.10599
794,0.015692,0.2174,0.070909,-0.0015233,0.16121,0.62893,0.10534
795,0.0065969,0.20798,0.042975,-0.1191,0.14107,0.63965,0.10696
796,0.0085458,0.19466,0.022512,-0.2133,0.099492,0.63932,0.11411
797,0.015042,0.17517,0.0085458,-0.28638,0.044275,0.62081,0.12385
798,0.023812,0.14626,-0.0063954,-0.34549,-0.015815,0.57826,0.12743
799,0.027385,0.11086,-0.021661,-0.39422,-0.073955,0.5081,0.11671
800,0.022512,0.078704,-0.037902,-0.43644,-0.12885,0.42527,0.091696
801,0.0091954,0.050446,-0.047321,-0.47412,-0.17659,0.34959,0.056617
802,-0.0093186,0.026085,-0.04992,-0.50562,-0.2107,0.30152,0.021863
803,-0.02361,0.0072465,-0.046022,-0.52641,-0.22694,0.28626,-0.0060706
804,-0.029457,-0.00054884,-0.0405,-0.53453,-0.22402,0.28918,-0.020362
805,-0.028482,0.0017248,-0.033679,-0.53226,-0.21135,0.29957,-0.021012
806,-0.020037,0.011469,-0.016464,-0.52804,-0.19966,0.31094,-0.016789
807,-0.0080194,0.02641,0.009845,-0.52479,-0.18991,0.31711,-0.019388
808,0.0033489,0.04395,0.040377,-0.51894,-0.18439,0.31451,-0.033354
809,0.01017,0.057917,0.064088,-0.50822,-0.18114,0.29762,-0.05739
810,0.010819,0.064413,0.073507,-0.49653,-0.17627,0.27164,-0.08305
811,0.0056225,0.063763,0.068635,-0.48906,-0.16588,0.24793,-0.099615
812,-0.0060706,0.06019,0.054344,-0.48873,-0.14379,0.2463,-0.10514
813,-0.028157,0.057592,0.036479,-0.4975,-0.10709,0.29113,-0.10026
814,-0.056416,0.052395,0.021863,-0.51017,-0.053492,0.38532,-0.088247
815,-0.080451,0.044599,0.015692,-0.51797,0.008221,0.51102,-0.069733
816,-0.091495,0.032582,0.014068,-0.52089,0.059216,0.64257,-0.044073
817,-0.086948,0.01894,0.011469,-0.51894,0.088124,0.76177,-0.015815
818,-0.070058,0.0065969,0.0020496,-0.51699,0.094295,0.85175,0.0049729
819,-0.045047,-0.0031473,-0.010618,-0.51862,0.084876,0.90859,0.0072465
820,-0.019388,-0.012242,-0.027508,-0.52706,0.071234,0.93587,-0.011592
821,0.00010078,-0.019388,-0.048296,-0.53973,0.06084,0.94724,-0.042449
822,0.009845,-0.023285,-0.068109,-0.5485,0.054993,0.94691,-0.066485
823,0.012443,-0.025234,-0.082725,-0.54817,0.05272,0.95016,-0.068758
824,0.012119,-0.026209,-0.09182,-0.54233,0.045249,0.99011,-0.044723
825,0.009845,-0.028482,-0.091495,-0.53616,0.028359,1.1126,0.0014
826,0.0033489,-0.034978,-0.083375,-0.52836,0.0091954,1.3188,0.061489
827,-0.0060706,-0.044723,-0.068434,-0.51537,-0.0018481,1.5553,0.11866
828,-0.021337,-0.055766,-0.050894,-0.49133,-0.0021729,1.7281,0.16023
829,-0.040175,-0.061288,-0.03303,-0.45625,0.00042559,1.7615,0.18167
830,-0.060638,-0.058689,-0.021012,-0.41273,0.0014,1.6323,0.18102
831,-0.079802,-0.052518,-0.011917,-0.36531,-0.0031473,1.3744,0.16153
832,-0.094743,-0.055441,-0.0089938,-0.31626,-0.0093186,1.0509,0.1245
833,-0.10546,-0.070707,-0.016464,-0.25877,-0.018413,0.72377,0.075131
834,-0.11261,-0.095393,-0.031406,-0.17692,-0.025884,0.43502,0.020239
835,-0.11196,-0.11683,-0.043099,-0.054142,-0.024909,0.20668,-0.029132
836,-0.10416,-0.1191,-0.044723,0.10631,-0.010618,0.038753,-0.067459
837,-0.089221,-0.091495,-0.037577,0.27326,0.015367,-0.092469,-0.089546
838,-0.072006,-0.038227,-0.030106,0.40026,0.045899,-0.2133,-0.097017
839,-0.052843,0.022837,-0.028482,0.45061,0.067986,-0.34355,-0.093769
840,-0.031406,0.072858,-0.033679,0.42203,0.075781,-0.48744,-0.084674
841,-0.0067202,0.10436,-0.040825,0.33758,0.074482,-0.63425,-0.066485
842,0.023162,0.11476,-0.048945,0.23559,0.076431,-0.76742,-0.037577
843,0.051745,0.11086,-0.057065,0.15633,0.089423,-0.87526,-0.0096434
844,0.074482,0.10144,-0.062262,0.1245,0.11118,-0.94899,0.0072465
845,0.089423,0.092346,-0.059339,0.13652,0.13814,-0.98439,0.0091954
846,0.092996,0.087474,-0.041475,0.1638,0.17095,-0.98147,-0.0031473
847,0.083576,0.087474,-0.008669,0.17582,0.20928,-0.96035,-0.031081
848,0.064088,0.087149,0.029009,0.15958,0.24728,-0.9714,-0.077528
849,0.039402,0.081952,0.056617,0.11768,0.27456,-1.0718,-0.13372
850,0.013743,0.065062,0.065387,0.056617,0.27976,-1.2949,-0.19089
851,-0.011592,0.040052,0.056292,-0.013216,0.25897,-1.6145,-0.23928
852,-0.032055,0.0075714,0.03583,-0.080127,0.21902,-1.952,-0.26884
853,-0.046022,-0.028157,0.01017,-0.13275,0.16933,-2.2151,-0.27404
854,-0.052843,-0.063237,-0.01484,-0.16198,0.1245,-2.3382,-0.26072
855,-0.053817,-0.093444,-0.037902,-0.1675,0.089423,-2.3119,-0.24026
856,-0.050894,-0.11748,-0.059989,-0.16133,0.062789,-2.1803,-0.2159
857,-0.043748,-0.13307,-0.076229,-0.14509,0.038753,-2.0036,-0.18244
858,-0.027833,-0.1334,-0.081751,-0.11423,0.011144,-1.8266,-0.13729
859,-0.0018481,-0.12138,-0.076879,-0.06616,-0.022961,-1.6567,-0.077853
860,0.032582,-0.10416,-0.067459,-0.00087364,-0.054792,-1.4706,-0.0083442
861,0.067661,-0.090196,-0.05804,0.07708,-0.078178,-1.2475,0.064737
862,0.09462,-0.084349,-0.050569,0.169,-0.08305,-0.974,0.12937
863,0.11151,-0.084349,-0.044723,0.28983,-0.066485,-0.64724,0.1768
864,0.11768,-0.084024,-0.034654,0.4662,-0.026209,-0.26624,0.20051
865,0.11346,-0.076229,-0.017764,0.70266,0.036804,0.15991,0.20798
866,0.099167,-0.060963,0.0010752,0.94854,0.10924,0.59872,0.21837
867,0.078704,-0.038876,0.01764,1.1171,0.17355,1.0148,0.24208
868,0.055968,-0.012892,0.030633,1.1408,0.22487,1.3874,0.28138
869,0.036804,0.015367,0.043625,1.0122,0.26319,1.6962,0.32751
870,0.023487,0.045249,0.055318,0.78029,0.28983,1.9135,0.37038
871,0.015367,0.072858,0.06961,0.52174,0.29827,2.0168,0.40449
872,0.014068,0.098193,0.0865,0.30347,0.28366,2.0051,0.4256
873,0.016666,0.12223,0.10112,0.16283,0.25572,1.8898,0.43145
874,0.01829,0.14172,0.11086,0.10794,0.22877,1.6875,0.41878
875,0.015692,0.16023,0.11573,0.11898,0.2174,1.4075,0.39344
876,0.010819,0.17485,0.1206,0.16056,0.22584,1.0677,0.35966
877,0.0072465,0.1755,0.12515,0.20376,0.23526,0.69941,0.32523
878,0.0085458,0.16218,0.12807,0.23364,0.23331,0.34635,0.29178
879,0.014392,0.14367,0.13035,0.24728,0.22617,0.063438,0.26644
880,0.023812,0.1284,0.13165,0.24923,0.22617,-0.093119,0.25897
881,0.032257,0.11703,0.13132,0.24695,0.23721,-0.084349,0.26872
882,0.042975,0.11183,0.1271,0.24598,0.2502,0.087149,0.28593
883,0.055643,0.10664,0.11995,0.24695,0.25345,0.36778,0.29827
884,0.067986,0.097868,0.11638,0.2463,0.24436,0.68902,0.29113
885,0.07708,0.084226,0.11833,0.24143,0.22194,0.98459,0.2606
886,0.082602,0.072208,0.1232,0.22877,0.18881,1.2068,0.20928
887,0.086824,0.064088,0.1284,0.21382,0.15114,1.3279,0.14984
888,0.093645,0.058566,0.13165,0.20083,0.11086,1.3344,0.09397
889,0.10112,0.05272,0.13067,0.18914,0.073832,1.2363,0.049796
890,0.10729,0.047523,0.12483,0.17257,0.046223,1.0661,0.016016
891,0.11216,0.045899,0.11183,0.14756,0.03453,0.87448,-0.010293
892,0.11443,0.043625,0.090072,0.11054,0.038428,0.70006,-0.02426
893,0.11378,0.040052,0.061165,0.064088,0.047198,0.55617,-0.025559
894,0.11248,0.032582,0.03518,0.014717,0.050446,0.43859,-0.020362
895,0.11346,0.019914,0.016341,-0.032055,0.039078,0.34829,-0.019063
896,0.11573,0.0052977,0.0062721,-0.072006,0.012443,0.29178,-0.029457
897,0.11378,-0.0083442,0.00010078,-0.098965,-0.023935,0.27749,-0.052843
898,0.10891,-0.015815,-0.0024977,-0.11358,-0.058365,0.29892,-0.085973
899,0.10047,-0.014516,-0.0050961,-0.12203,-0.086948,0.32426,-0.11586
900,0.090072,-0.007045,-0.011592,-0.13112,-0.11098,0.30542,-0.12982
901,0.07708,0.0065969,-0.021012,-0.14541,-0.12722,0.20343,-0.12463
902,0.06084,0.021538,-0.034004,-0.16977,-0.13567,0.0091954,-0.10676
903,0.041676,0.033881,-0.053492,-0.2094,-0.14606,-0.24838,-0.085324
904,0.021538,0.038753,-0.080127,-0.27306,-0.16425,-0.50108,-0.068758
905,0.0056225,0.031932,-0.11163,-0.35946,-0.19543,-0.64821,-0.059664
906,-0.0044465,0.016991,-0.14639,-0.45723,-0.23993,-0.62548,-0.050894
907,-0.0089938,-0.0024977,-0.17465,-0.54363,-0.28898,-0.48679,-0.038227
908,-0.0076946,-0.022311,-0.19121,-0.60274,-0.33088,-0.36856,-0.024585
909,-0.0021729,-0.036927,-0.19673,-0.62515,-0.35784,-0.38869,-0.018413
910,0.0020496,-0.041799,-0.19608,-0.61931,-0.37148,-0.56279,-0.018088
911,0.0020496,-0.036602,-0.19121,-0.59527,-0.3757,-0.80802,-0.017114
912,-0.00022403,-0.027833,-0.18666,-0.55889,-0.37408,-0.98699,-0.0073698
913,0.003024,-0.020687,-0.18244,-0.51374,-0.36466,-0.99413,0.015692
914,0.014392,-0.016464,-0.17919,-0.45853,-0.34614,-0.83336,0.046548
915,0.029658,-0.016789,-0.17497,-0.38739,-0.31821,-0.61898,0.069285
916,0.040377,-0.019063,-0.16847,-0.29905,-0.28151,-0.48581,0.070584
917,0.044924,-0.021661,-0.15711,-0.19966,-0.24383,-0.5001,0.050121
918,0.042326,-0.023935,-0.13892,-0.093769,-0.2094,-0.63132,0.0078962
919,0.033556,-0.023285,-0.11878,0.023162,-0.18017,-0.79048,-0.044723
920,0.024461,-0.018088,-0.09994,0.15796,-0.15938,-0.88435,-0.091495
921,0.016991,-0.011592,-0.084349,0.29925,-0.14639,-0.87103,-0.11878
922,0.013093,-0.0047713,-0.075255,0.41131,-0.14671,-0.76904,-0.1295
923,0.012119,-0.0037969,-0.073955,0.46263,-0.16198,-0.63425,-0.13372
924,0.012768,-0.0099683,-0.079802,0.43892,-0.18601,-0.51342,-0.14054
925,0.011794,-0.021986,-0.085324,0.35252,-0.20063,-0.42312,-0.14866
926,0.012119,-0.034978,-0.083375,0.23039,-0.19413,-0.35524,-0.15483
927,0.017316,-0.048945,-0.071032,0.10859,-0.16718,-0.28508,-0.15029
928,0.028684,-0.063886,-0.050894,0.018615,-0.13632,-0.18699,-0.12885
929,0.037454,-0.075579,-0.028482,-0.02426,-0.11553,-0.053492,-0.095068
930,0.03453,-0.081101,-0.0096434,-0.029782,-0.11098,0.092346,-0.063886
931,0.009845,-0.088247,0.0033489,-0.021012,-0.11813,0.21188,-0.051544
932,-0.033679,-0.09929,0.015692,-0.016464,-0.12787,0.26579,-0.067134
933,-0.084349,-0.10546,0.035505,-0.018413,-0.12203,0.22552,-0.10546
934,-0.12917,-0.097017,0.06831,-0.0083442,-0.087597,0.095269,-0.14801
935,-0.1597,-0.069408,0.11118,0.041676,-0.02361,-0.086623,-0.18374
936,-0.17075,-0.026533,0.15828,0.14432,0.058241,-0.26039,-0.20518
937,-0.16165,0.01829,0.19661,0.28171,0.13684,-0.36596,-0.21232
938,-0.14119,0.051096,0.21642,0.40514,0.19856,-0.36856,-0.20583
939,-0.11975,0.067986,0.21837,0.47822,0.24078,-0.25682,-0.18926
940,-0.10546,0.074482,0.21025,0.49771,0.26742,-0.061613,-0.16198
941,-0.09994,0.073832,0.20181,0.49543,0.27846,0.14561,-0.12527
942,-0.098316,0.071883,0.19888,0.5107,0.27099,0.2908,-0.084674
943,-0.097017,0.070259,0.19856,0.55942,0.24208,0.33563,-0.048945
944,-0.088247,0.072208,0.19758,0.60814,0.19271,0.2921,-0.027508
945,-0.069733,0.080003,0.18914,0.60197,0.13749,0.20376,-0.017764
946,-0.046996,0.09462,0.16965,0.49641,0.089423,0.11118,-0.0080194
947,-0.026533,0.11151,0.14074,0.29048,0.057267,0.030633,0.0085458
948,-0.0096434,0.12645,0.11281,0.029658,0.042651,-0.018738,0.027385
949,0.00042559,0.1336,0.095269,-0.21525,0.037778,-0.012242,0.03453
950,0.003024,0.12775,0.092996,-0.3757,0.030308,0.063763,0.022188
951,0.0052977,0.11151,0.10274,-0.41468,0.014392,0.20083,-0.0063954
952,0.01017,0.089423,0.11963,-0.34972,-0.0096434,0.35609,-0.0405
953,0.014717,0.070584,0.13392,-0.22954,-0.036927,0.47497,-0.072331
954,0.013743,0.061814,0.13684,-0.11391,-0.063237,0.51135,-0.091495
955,0.0026992,0.064413,0.12645,-0.04862,-0.086298,0.44963,-0.097991
956,-0.01614,0.078704,0.10696,-0.045697,-0.10514,0.31354,-0.10189
957,-0.038227,0.10047,0.084226,-0.09117,-0.11683,0.14919,-0.10968
958,-0.061613,0.1245,0.06084,-0.15646,-0.11943,-0.0073698,-0.12268
959,-0.081101,0.14367,0.040052,-0.2146,-0.10968,-0.14671,-0.14022
960,-0.095393,0.15373,0.021863,-0.2552,-0.09117,-0.29158,-0.16263
961,-0.10481,0.15114,0.0049729,-0.28053,-0.068109,-0.47867,-0.18114
962,-0.10449,0.13814,-0.0089938,-0.29612,-0.044723,-0.72162,-0.18731
963,-0.096042,0.12385,-0.019063,-0.31269,-0.021337,-0.99641,-0.17692
964,-0.083375,0.11443,-0.020037,-0.33153,-0.0011985,-1.2478,-0.15191
965,-0.067784,0.11346,-0.0093186,-0.35102,0.013418,-1.4027,-0.11813
966,-0.046022,0.11736,0.009845,-0.36466,0.021213,-1.3969,-0.084674
967,-0.021012,0.11411,0.032906,-0.36921,0.014392,-1.214,-0.054467
968,0.0033489,0.098842,0.053694,-0.36206,-0.028807,-0.91098,-0.029132
969,0.021863,0.068635,0.067986,-0.33802,-0.123,-0.59137,-0.013866
970,0.030308,0.025761,0.069934,-0.2945,-0.2539,-0.35589,-0.0096434
971,0.030633,-0.024909,0.057917,-0.23084,-0.37992,-0.24513,-0.010943
972,0.033556,-0.078178,0.031932,-0.14509,-0.44911,-0.23051,-0.0073698
973,0.046548,-0.123,-0.0021729,-0.030431,-0.43449,-0.24545,0.009845
974,0.071558,-0.14574,-0.029782,0.12385,-0.34582,-0.23149,0.042975
975,0.10209,-0.14476,-0.04115,0.32946,-0.22239,-0.16718,0.080978
976,0.12872,-0.13242,-0.038876,0.58118,-0.10644,-0.050244,0.10566
977,0.14204,-0.12235,-0.028807,0.83778,-0.022961,0.13035,0.10631
978,0.14139,-0.11845,-0.017764,1.0369,0.030308,0.38272,0.087149
979,0.1284,-0.11618,-0.014191,1.123,0.066686,0.6835,0.064413
980,0.10924,-0.10611,-0.019712,1.0752,0.10209,0.98264,0.05207
981,0.09397,-0.086623,-0.032055,0.91963,0.14594,1.2168,0.057267
982,0.084551,-0.061937,-0.045372,0.7111,0.19986,1.35,0.079354
983,0.081303,-0.041475,-0.05739,0.51102,0.2567,1.3731,0.10859
984,0.075781,-0.032055,-0.063561,0.37038,0.3051,1.2912,0.13912
985,0.063763,-0.029782,-0.065835,0.30964,0.3353,1.1129,0.1625
986,0.041027,-0.027508,-0.066485,0.31646,0.34082,0.85922,0.17582
987,0.014392,-0.020037,-0.071032,0.35154,0.32328,0.57956,0.17615
988,-0.0044465,-0.0021729,-0.077853,0.36421,0.28885,0.33498,0.16121
989,-0.010618,0.026085,-0.08305,0.31809,0.24598,0.16835,0.13522
990,-0.0076946,0.058566,-0.084349,0.20668,0.21123,0.087149,0.11346
991,-0.00022403,0.087474,-0.081751,0.049147,0.20018,0.067986,0.10859
992,0.0075714,0.10664,-0.080776,-0.12268,0.22324,0.074806,0.11898
993,0.0085458,0.11443,-0.082725,-0.28248,0.27326,0.088773,0.1323
994,-0.00022403,0.11183,-0.085973,-0.4124,0.334,0.10989,0.14237
995,-0.01549,0.099492,-0.086623,-0.5092,0.39247,0.15666,0.14561
996,-0.028807,0.074482,-0.084999,-0.57513,0.44346,0.23591,0.14529
997,-0.033679,0.040377,-0.079477,-0.61638,0.48536,0.32978,0.14367
998,-0.030431,0.0062721,-0.070058,-0.6375,0.5081,0.40319,0.14204
999,-0.026533,-0.017114,-0.060313,-0.6388,0.49283,0.41456,0.13717
1000,-0.024585,-0.024585,-0.049595,-0.61314,0.41196,0.34602,0.1258
1001,-0.029457,-0.019712,-0.040825,-0.55142,0.24501,0.20473,0.10566
1002,-0.037902,-0.011592,-0.031406,-0.44748,0.019264,0.019264,0.07773
1003,-0.041475,-0.0031473,-0.019063,-0.29255,-0.18959,-0.17172,0.049147
1004,-0.037902,0.010495,0.0043233,-0.068758,-0.30197,-0.33705,0.024137
1005,-0.029457,0.032582,0.040377,0.22844,-0.27664,-0.46372,0.0072465
1006,-0.014516,0.062789,0.087799,0.55195,-0.13275,-0.55012,-0.0028225
1007,0.010819,0.097543,0.14074,0.8053,0.066686,-0.59852,-0.010293
1008,0.042651,0.1297,0.18394,0.89949,0.25053,-0.61833,-0.016789
1009,0.070584,0.15081,0.2083,0.80887,0.36551,-0.60534,-0.022961
1010,0.091047,0.16056,0.21188,0.57988,0.39767,-0.52576,-0.02361
1011,0.10696,0.1651,0.20051,0.29925,0.36226,-0.3429,-0.014191
1012,0.1232,0.16575,0.18232,0.050771,0.2921,-0.057065,0.0075714
1013,0.13879,0.15926,0.16348,-0.11586,0.2122,0.27651,0.042001
1014,0.15438,0.14204,0.14107,-0.19056,0.14172,0.56364,0.081303
1015,0.16543,0.11606,0.11313,-0.19966,0.084226,0.71143,0.11411
1016,0.16445,0.0865,0.082927,-0.17854,0.029009,0.67603,0.13067
1017,0.14561,0.054993,0.05142,-0.16035,-0.034978,0.48504,0.13002
1018,0.11216,0.014068,0.024137,-0.16068,-0.10936,0.21512,0.11248
1019,0.075456,-0.042124,0.003024,-0.18179,-0.18699,-0.054142,0.084876
1020,0.04395,-0.11066,-0.0099683,-0.212,-0.26299,-0.27339,0.050121
1021,0.020888,-0.17692,-0.019388,-0.23831,-0.33575,-0.42182,0.008221
1022,0.0046481,-0.22856,-0.030106,-0.25877,-0.39714,-0.5105,-0.036602
1023,-0.0099683,-0.26169,-0.043099,-0.27469,-0.44066,-0.56441,-0.082076
1024,-0.025234,-0.27404,-0.059339,-0.28768,-0.46015,-0.59625,-0.12008
1025,-0.037902,-0.26657,-0.080127,-0.29547,-0.45625,-0.61086,-0.14346
1026,-0.045697,-0.24545,-0.097666,-0.29775,-0.43449,-0.60534,-0.14346
1027,-0.044398,-0.21849,-0.10676,-0.29742,-0.40331,-0.57351,-0.11748
1028,-0.034004,-0.19511,-0.10774,-0.2984,-0.37278,-0.50952,-0.070382
1029,-0.021986,-0.17692,-0.10741,-0.29482,-0.35264,-0.41858,-0.019388
1030,-0.013866,-0.16165,-0.10968,-0.28476,-0.34679,-0.31529,0.019589
1031,-0.012567,-0.14541,-0.11358,-0.26819,-0.35102,-0.21427,0.037778
1032,-0.018738,-0.12398,-0.11651,-0.24123,-0.35524,-0.11845,0.039727
1033,-0.030756,-0.095717,-0.11326,-0.20063,-0.35167,-0.029782,0.035505
1034,-0.043099,-0.059664,-0.10579,-0.14801,-0.339,0.055643,0.03518
1035,-0.045372,-0.015815,-0.093119,-0.09182,-0.31724,0.14496,0.041676
1036,-0.033354,0.031932,-0.073955,-0.044723,-0.28443,0.23981,0.06084
1037,-0.0067202,0.078055,-0.046347,-0.01614,-0.23019,0.32913,0.095919
1038,0.024786,0.11313,-0.017764,-0.010618,-0.15451,0.39896,0.14009
1039,0.053044,0.12548,0.0026992,-0.030756,-0.069408,0.43697,0.18362
1040,0.070259,0.11736,0.010495,-0.073955,0.0036737,0.44606,0.2122
1041,0.070909,0.092671,0.0075714,-0.13275,0.042975,0.43469,0.21805
1042,0.05142,0.058891,-0.0021729,-0.19446,0.044924,0.41066,0.19856
1043,0.016991,0.01829,-0.016789,-0.24253,0.019264,0.37818,0.16121
1044,-0.019712,-0.020687,-0.033354,-0.26819,-0.020037,0.34277,0.12223
1045,-0.046996,-0.051219,-0.04992,-0.26559,-0.055766,0.31516,0.10144
1046,-0.057065,-0.060638,-0.060963,-0.23798,-0.075255,0.30867,0.10144
1047,-0.051544,-0.045372,-0.059664,-0.19219,-0.075255,0.32101,0.11216
1048,-0.036602,-0.011917,-0.044723,-0.14281,-0.062262,0.3405,0.11703
1049,-0.019063,0.028359,-0.017764,-0.10579,-0.044073,0.35122,0.10306
1050,-0.0057458,0.069934,0.013093,-0.088896,-0.031406,0.34277,0.067011
1051,0.0039985,0.10729,0.043625,-0.085973,-0.025884,0.30704,0.013743
1052,0.0078962,0.13555,0.067986,-0.086948,-0.026209,0.23526,-0.044073
1053,0.011469,0.14919,0.080978,-0.086298,-0.025234,0.12223,-0.097341
1054,0.015042,0.15244,0.07708,-0.087272,-0.015165,-0.020362,-0.14606
1055,0.016016,0.15211,0.060515,-0.087597,0.0091954,-0.16685,-0.19413
1056,0.009845,0.14919,0.038753,-0.087597,0.05207,-0.2919,-0.23766
1057,-0.0024977,0.14626,0.022837,-0.088572,0.10729,-0.37895,-0.27274
1058,-0.020362,0.15146,0.015692,-0.093444,0.16445,-0.43027,-0.29482
1059,-0.04115,0.1664,0.012443,-0.10189,0.2044,-0.46113,-0.29807
1060,-0.062262,0.18264,0.01017,-0.11423,0.21772,-0.47802,-0.27371
1061,-0.079477,0.19563,0.0075714,-0.12463,0.20765,-0.47607,-0.21265
1062,-0.089546,0.20863,0.0056225,-0.1269,0.18524,-0.44846,-0.12398
1063,-0.091495,0.21772,0.0056225,-0.12365,0.1677,-0.40818,-0.025884
1064,-0.083375,0.21252,0.0062721,-0.11423,0.18524,-0.37083,0.063438
1065,-0.064861,0.19109,0.0085458,-0.096367,0.2567,-0.3403,0.1323
1066,-0.039201,0.15731,0.011469,-0.068109,0.37818,-0.31204,0.17322
1067,-0.012892,0.11476,0.015042,-0.031081,0.51395,-0.288,0.18784
1068,0.0059473,0.067336,0.016016,0.0072465,0.61983,-0.288,0.17907
1069,0.013743,0.015042,0.014068,0.044275,0.66791,-0.34484,0.15341
1070,0.008221,-0.039526,0.0085458,0.073182,0.65037,-0.48224,0.11931
1071,-0.0050961,-0.093119,0.0039985,0.084876,0.57371,-0.68882,0.078704
1072,-0.017439,-0.14249,0.0023744,0.07708,0.44671,-0.90871,0.036479
1073,-0.021337,-0.18666,0.0043233,0.055318,0.24371,-1.0597,0.0023744
1074,-0.017439,-0.22921,0.0023744,0.023487,-0.072331,-1.0685,-0.010618
1075,-0.0089938,-0.27014,-0.0063954,-0.018738,-0.4699,-0.91001,0.0049729
1076,0.0033489,-0.30554,-0.024585,-0.070058,-0.8353,-0.61866,0.040052
1077,0.020888,-0.32958,-0.045697,-0.12203,-1.0451,-0.26916,0.081627
1078,0.044924,-0.33835,-0.063886,-0.161,-1.0292,0.059541,0.11736
1079,0.070584,-0.32568,-0.069408,-0.18049,-0.78691,0.32134,0.14334
1080,0.096244,-0.28573,-0.05804,-0.17627,-0.38707,0.49088,0.1625
1081,0.1245,-0.21914,-0.032705,-0.14444,0.051745,0.54968,0.17485
1082,0.15406,-0.13762,0.0017248,-0.073306,0.41585,0.49511,0.18069
1083,0.17842,-0.054142,0.040702,0.045249,0.63737,0.36291,0.18069
1084,0.19206,0.01017,0.078055,0.22389,0.70981,0.2096,0.1729
1085,0.19336,0.041676,0.10989,0.47464,0.6705,0.092021,0.15861
1086,0.18719,0.039078,0.13165,0.79653,0.56884,0.044275,0.13522
1087,0.17485,0.013743,0.14139,1.1538,0.43762,0.069285,0.098193
1088,0.15049,-0.018738,0.13717,1.4796,0.25832,0.14854,0.049147
1089,0.11736,-0.043748,0.12418,1.7125,-0.0067202,0.25248,-0.0018481
1090,0.083901,-0.054467,0.10761,1.8132,-0.33737,0.36421,-0.040175
1091,0.064737,-0.043748,0.091696,1.7804,-0.6349,0.48894,-0.050569
1092,0.066037,-0.016789,0.074806,1.6297,-0.79081,0.62341,-0.027183
1093,0.084876,0.017316,0.055318,1.3887,-0.76222,0.73676,0.021863
1094,0.10989,0.048822,0.036804,1.0928,-0.58878,0.79815,0.078055
1095,0.1271,0.074482,0.023812,0.78484,-0.35296,0.78776,0.11801
1096,0.12775,0.093645,0.020239,0.5042,-0.13664,0.70428,0.1284
1097,0.11346,0.10242,0.02641,0.27554,0.0065969,0.57046,0.10826
1098,0.087149,0.097543,0.037454,0.10306,0.067011,0.43015,0.06961
1099,0.053369,0.080003,0.045249,-0.02426,0.066362,0.32491,0.030308
1100,0.01764,0.054993,0.049796,-0.11488,0.031607,0.28626,0.0052977
1101,-0.017439,0.031607,0.049472,-0.17562,-0.011592,0.31776,0.00042559
1102,-0.049595,0.011469,0.044275,-0.21752,-0.04115,0.40026,0.011144
1103,-0.077203,-0.0057458,0.03518,-0.25682,-0.050244,0.50193,0.028684
1104,-0.092794,-0.019388,0.021213,-0.30424,-0.044398,0.58735,0.047523
1105,-0.090521,-0.023935,0.0085458,-0.35849,-0.029132,0.63283,0.062139
1106,-0.067459,-0.011917,0.0026992,-0.40981,-0.0011985,0.64484,0.06961
1107,-0.030756,0.016016,0.0088706,-0.44618,0.039402,0.66563,0.075131
1108,0.0091954,0.053694,0.024786,-0.466,0.087149,0.72962,0.080328
1109,0.037778,0.087799,0.040702,-0.47379,0.1349,0.84493,0.087149
1110,0.042001,0.10696,0.048822,-0.47639,0.17517,0.98817,0.086824
1111,0.016991,0.10371,0.047523,-0.47769,0.20733,1.1171,0.06961
1112,-0.03173,0.085525,0.037129,-0.48029,0.23916,1.1863,0.034206
1113,-0.084024,0.067661,0.022512,-0.48321,0.27684,1.1616,-0.0096434
1114,-0.11748,0.063763,0.0065969,-0.47704,0.32263,1.0437,-0.054142
1115,-0.12625,0.072858,-0.0089938,-0.45366,0.3746,0.87253,-0.097666
1116,-0.11488,0.089098,-0.019388,-0.41143,0.423,0.71208,-0.14087
1117,-0.097341,0.10664,-0.021012,-0.35232,0.45353,0.61009,-0.17887
1118,-0.084349,0.12255,-0.01549,-0.28378,0.45938,0.57371,-0.20225
1119,-0.076879,0.13457,-0.0028225,-0.21557,0.44314,0.57046,-0.20323
1120,-0.068758,0.14237,0.014068,-0.16198,0.4152,0.56234,-0.18277
1121,-0.053168,0.13944,0.031607,-0.12787,0.37655,0.52077,-0.15126
1122,-0.033679,0.1258,0.043625,-0.10936,0.31192,0.43762,-0.12203
1123,-0.018088,0.10534,0.050121,-0.099615,0.19921,0.32263,-0.10903
1124,-0.011267,0.084551,0.052395,-0.096367,0.039727,0.19076,-0.11228
1125,-0.013541,0.075456,0.053694,-0.097341,-0.12138,0.066362,-0.11975
1126,-0.019063,0.084876,0.058566,-0.096367,-0.22759,-0.033354,-0.11715
1127,-0.022636,0.11118,0.067986,-0.083375,-0.24123,-0.10416,-0.097341
1128,-0.022961,0.14594,0.080653,-0.050244,-0.1701,-0.15029,-0.059339
1129,-0.023935,0.18037,0.090397,0.0036737,-0.051219,-0.17984,-0.014191
1130,-0.03173,0.20863,0.09397,0.06961,0.073507,-0.18861,0.02641
1131,-0.044073,0.22422,0.090722,0.1271,0.17355,-0.1727,0.056942
1132,-0.054792,0.22552,0.082602,0.15568,0.22584,-0.15483,0.075456
1133,-0.062587,0.2122,0.071883,0.14496,0.22162,-0.17237,0.083251
1134,-0.068109,0.18946,0.06084,0.098517,0.1742,-0.24286,0.082927
1135,-0.072331,0.16478,0.050121,0.029983,0.10177,-0.35394,0.071883
1136,-0.073306,0.14367,0.038103,-0.043423,0.021538,-0.47444,0.044924
1137,-0.067459,0.12807,0.025436,-0.10091,-0.051544,-0.57936,0.008221
1138,-0.053817,0.11346,0.017316,-0.12657,-0.10611,-0.66153,-0.032705
1139,-0.037577,0.095594,0.017316,-0.11358,-0.13632,-0.7213,-0.075255
1140,-0.021012,0.073832,0.026735,-0.059664,-0.14314,-0.76157,-0.11813
1141,-0.0041217,0.054344,0.040702,0.031607,-0.13502,-0.79763,-0.14866
1142,0.016666,0.043625,0.056617,0.15309,-0.12138,-0.85414,-0.15808
1143,0.041676,0.038753,0.072533,0.30055,-0.10871,-0.961,-0.14346
1144,0.068635,0.040702,0.08585,0.47335,-0.094743,-1.1247,-0.10903
1145,0.091696,0.053694,0.096893,0.66043,-0.071032,-1.3219,-0.063237
1146,0.10664,0.079679,0.10631,0.81959,-0.033354,-1.5242,-0.016789
1147,0.10826,0.11703,0.11151,0.89722,0.011469,-1.7003,0.021863
1148,0.09462,0.15438,0.11248,0.85272,0.054993,-1.8139,0.045249
1149,0.071883,0.1781,0.10956,0.68999,0.090397,-1.8282,0.055318
1150,0.055968,0.1768,0.10339,0.45126,0.11313,-1.7337,0.054993
1151,0.054993,0.15114,0.093321,0.19726,0.11736,-1.5535,0.044924
1152,0.069285,0.10599,0.075781,-0.020037,0.095919,-1.3407,0.025761
1153,0.086824,0.049147,0.049796,-0.18147,0.039402,-1.1588,-0.00054884
1154,0.099167,-0.0083442,0.018615,-0.2893,-0.056091,-1.0497,-0.022311
1155,0.098517,-0.055116,-0.0096434,-0.35686,-0.17465,-1.0201,-0.034329
1156,0.083251,-0.084999,-0.03173,-0.39909,-0.29093,-1.049,-0.033679
1157,0.059541,-0.095068,-0.048296,-0.42897,-0.38285,-1.1085,-0.025559
1158,0.037778,-0.091495,-0.060963,-0.45073,-0.43417,-1.1738,-0.0096434
1159,0.022188,-0.0837,-0.073955,-0.47087,-0.44131,-1.2228,0.013743
1160,0.014068,-0.080451,-0.088247,-0.49263,-0.4137,-1.2183,0.043625
1161,0.011469,-0.082725,-0.10351,-0.51537,-0.36401,-1.1195,0.076431
1162,0.016991,-0.08305,-0.11813,-0.53291,-0.30457,-0.90416,0.11021
1163,0.028034,-0.079802,-0.1308,-0.54135,-0.24545,-0.57838,0.14302
1164,0.040052,-0.070707,-0.14249,-0.53323,-0.19673,-0.14476,0.18037
1165,0.054668,-0.05739,-0.15256,-0.50303,-0.1623,0.39117,0.22
1166,0.075456,-0.035953,-0.15678,-0.45073,-0.13599,0.97485,0.25475
1167,0.095269,-0.0047713,-0.14996,-0.37895,-0.10644,1.5095,0.27586
1168,0.10761,0.029333,-0.13112,-0.28898,-0.070382,1.9158,0.27424
1169,0.10631,0.054993,-0.10026,-0.18244,-0.030431,2.1831,0.25118
1170,0.095594,0.062464,-0.065835,-0.051868,0.0078962,2.3735,0.22
1171,0.085525,0.053694,-0.032055,0.12093,0.036154,2.5433,0.19336
1172,0.079354,0.032582,-0.0034721,0.35252,0.044924,2.6902,0.17615
1173,0.075456,0.0065969,0.020239,0.61041,0.033881,2.7525,0.16056
1174,0.070259,-0.016789,0.038428,0.81504,0.0052977,2.6551,0.13522
1175,0.059541,-0.035628,0.048822,0.88553,-0.038876,2.3618,0.09397
1176,0.039078,-0.051219,0.042326,0.79198,-0.093444,1.9038,0.037778
1177,0.011794,-0.063561,0.017316,0.58216,-0.14606,1.3675,-0.022636
1178,-0.01614,-0.073631,-0.020037,0.34862,-0.17984,0.85564,-0.069733
1179,-0.034654,-0.084349,-0.062587,0.17387,-0.18407,0.46587,-0.092469
1180,-0.043099,-0.097991,-0.10026,0.092021,-0.16068,0.29925,-0.097666
1181,-0.042449,-0.11261,-0.1282,0.092346,-0.12073,0.41391,-0.094418
1182,-0.039526,-0.12365,-0.14671,0.13295,-0.07493,0.72117,-0.088896
1183,-0.036602,-0.12787,-0.15353,0.16803,-0.03303,1.0122,-0.0824
1184,-0.036278,-0.12657,-0.15061,0.1716,-0.007045,1.0879,-0.076879
1185,-0.040825,-0.12073,-0.14574,0.14269,0.0036737,0.87773,-0.073955
1186,-0.047321,-0.11293,-0.13957,0.098517,0.0091954,0.45873,-0.073955
1187,-0.054467,-0.10579,-0.13275,0.064413,0.015692,0.0020496,-0.079477
1188,-0.061288,-0.10221,-0.123,0.05272,0.019914,-0.30847,-0.087922
1189,-0.067784,-0.10189,-0.10968,0.062789,0.020239,-0.37245,-0.092794
1190,-0.075904,-0.10091,-0.091495,0.0852,0.013093,-0.21265,-0.090196
1191,-0.082725,-0.096367,-0.069408,0.11151,-0.0015233,0.04395,-0.0824
1192,-0.084999,-0.089871,-0.048945,0.1362,-0.019388,0.25832,-0.075579
1193,-0.081426,-0.087272,-0.034329,0.15146,-0.035303,0.36551,-0.070382
1194,-0.071032,-0.092145,-0.024909,0.15471,-0.044073,0.39474,-0.063237
1195,-0.054467,-0.10319,-0.017439,0.15503,-0.040175,0.42722,-0.053168
1196,-0.033354,-0.11456,-0.0073698,0.1638,-0.018088,0.53181,-0.041475
1197,-0.0073698,-0.11553,0.011794,0.19693,0.024786,0.7202,-0.033679
1198,0.01764,-0.096042,0.0433,0.26612,0.087799,0.93847,-0.027183
1199,0.037454,-0.057715,0.080328,0.35836,0.15893,1.1025,-0.019063
1200,0.050121,-0.0073698,0.11281,0.42885,0.22877,1.1441,-0.0099683
1201,0.054344,0.043625,0.13684,0.43339,0.28528,1.0427,-0.0018481
1202,0.05272,0.086175,0.15276,0.34992,0.31971,0.82674,0.0020496
1203,0.050446,0.11476,0.16023,0.18881,0.32913,0.54773,-0.0015233
1204,0.051745,0.12418,0.15731,-0.0044465,0.31711,0.24143,-0.0089938
1205,0.057267,0.12255,0.14886,-0.18147,0.28658,-0.079477,-0.019063
1206,0.059216,0.11118,0.13652,-0.31301,0.24501,-0.41143,-0.037577
1207,0.05142,0.093321,0.1206,-0.40656,0.20473,-0.74631,-0.063886
1208,0.031932,0.07708,0.10436,-0.48289,0.17907,-1.0669,-0.088896
1209,0.009845,0.06896,0.095269,-0.55759,0.169,-1.353,-0.10774
1210,-0.0060706,0.072208,0.098193,-0.62678,0.16348,-1.585,-0.11748
1211,-0.0080194,0.08585,0.10859,-0.66965,0.15373,-1.7558,-0.12105
1212,0.0056225,0.10729,0.1206,-0.66023,0.1245,-1.8981,-0.12722
1213,0.029658,0.13295,0.12483,-0.59657,0.065712,-2.0647,-0.14964
1214,0.049147,0.15309,0.11054,-0.5066,-0.025559,-2.3002,-0.19478
1215,0.055968,0.15958,0.069934,-0.42962,-0.13502,-2.5938,-0.26104
1216,0.05142,0.14594,0.011144,-0.39649,-0.24221,-2.8874,-0.33575
1217,0.036479,0.11898,-0.052193,-0.41143,-0.32243,-3.1116,-0.39746
1218,0.015692,0.090397,-0.10319,-0.45625,-0.35069,-3.2226,-0.43092
1219,-0.0028225,0.070584,-0.12982,-0.50627,-0.32211,-3.2152,-0.43644
1220,-0.015165,0.065712,-0.13307,-0.5394,-0.24545,-3.1174,-0.4202
1221,-0.022961,0.072533,-0.1217,-0.5446,-0.14541,-2.9764,-0.39227
1222,-0.031081,0.082602,-0.10611,-0.51537,-0.053168,-2.829,-0.36109
1223,-0.046671,0.088448,-0.091495,-0.45463,0.012768,-2.699,-0.33153
1224,-0.061288,0.088124,-0.071682,-0.377,0.050121,-2.6062,-0.30912
1225,-0.061288,0.081952,-0.042449,-0.2958,0.062789,-2.549,-0.29125
1226,-0.044073,0.072533,-0.0031473,-0.22239,0.051096,-2.5087,-0.27826
1227,-0.019388,0.062789,0.036154,-0.1701,0.014717,-2.4506,-0.27046
1228,0.0020496,0.050121,0.062464,-0.14314,-0.039851,-2.3444,-0.26007
1229,0.011144,0.039402,0.073507,-0.13892,-0.10514,-2.167,-0.23733
1230,0.0095202,0.032582,0.074157,-0.14606,-0.16685,-1.9172,-0.19283
1231,-0.0011985,0.032582,0.067986,-0.15548,-0.21362,-1.6181,-0.12495
1232,-0.01614,0.031607,0.050446,-0.1597,-0.23019,-1.3004,-0.042449
1233,-0.034329,0.01764,0.022512,-0.15711,-0.20778,-0.98277,0.04395
1234,-0.056741,-0.013866,-0.012567,-0.14996,-0.15808,-0.67842,0.12515
1235,-0.075255,-0.056416,-0.046671,-0.14639,-0.10156,-0.39649,0.19726
1236,-0.079802,-0.10026,-0.075579,-0.14736,-0.05739,-0.15029,0.2567
1237,-0.066485,-0.13307,-0.094418,-0.14931,-0.035628,0.05207,0.30997
1238,-0.036278,-0.14704,-0.10351,-0.15191,-0.031081,0.23201,0.37233
1239,-0.00022403,-0.14314,-0.10351,-0.15256,-0.033679,0.45451,0.44931
1240,0.025436,-0.1282,-0.097341,-0.14541,-0.036602,0.78516,0.53376
1241,0.031607,-0.11293,-0.086623,-0.12592,-0.039851,1.2379,0.60587
1242,0.024137,-0.10579,-0.073631,-0.087597,-0.035303,1.7518,0.64387
1243,0.013743,-0.10741,-0.059989,-0.027183,-0.010293,2.2384,0.63965
1244,0.0046481,-0.11423,-0.045047,0.05272,0.035505,2.6291,0.59775
1245,-0.0034721,-0.11683,-0.025884,0.14984,0.095919,2.8893,0.52889
1246,-0.010943,-0.11228,-0.0024977,0.26319,0.1625,3.0075,0.44736
1247,-0.015165,-0.10319,0.022512,0.39247,0.22389,2.9922,0.37038
1248,-0.015815,-0.092469,0.0433,0.53181,0.27229,2.8746,0.31614
1249,-0.0093186,-0.078503,0.055318,0.65589,0.30477,2.7051,0.29503
1250,0.0043233,-0.063886,0.057917,0.7202,0.31971,2.5339,0.30769
1251,0.024786,-0.048945,0.054993,0.68707,0.31971,2.3809,0.34375
1252,0.048497,-0.036602,0.051745,0.54578,0.30802,2.2247,0.38337
1253,0.070909,-0.028482,0.045574,0.32621,0.28463,2.049,0.40189
1254,0.0865,-0.029782,0.034855,0.085525,0.25507,1.8681,0.38954
1255,0.09397,-0.043099,0.019264,-0.12073,0.22259,1.7232,0.35739
1256,0.091372,-0.065835,0.0049729,-0.25292,0.18979,1.6475,0.32101
1257,0.083576,-0.096042,-0.0044465,-0.29515,0.15049,1.6388,0.28431
1258,0.074806,-0.12463,-0.010293,-0.25,0.10047,1.6608,0.24988
1259,0.061165,-0.14087,-0.0099683,-0.13794,0.049796,1.6504,0.22584
1260,0.042651,-0.13957,-0.0047713,0.013418,0.0088706,1.5498,0.21512
1261,0.021213,-0.11975,0.0023744,0.17615,-0.020362,1.3383,0.2135
1262,-0.00087364,-0.086948,0.0075714,0.32881,-0.037252,1.0366,0.20928
1263,-0.024585,-0.050894,0.011144,0.46587,-0.044723,0.68837,0.18979
1264,-0.052518,-0.020037,0.01764,0.57988,-0.04927,0.34375,0.14886
1265,-0.075579,0.0088706,0.027709,0.64777,-0.052193,0.042001,0.090397
1266,-0.086948,0.032906,0.037129,0.639,-0.04992,-0.19316,0.031282
1267,-0.078178,0.057267,0.042975,0.55,-0.038876,-0.35816,-0.0080194
1268,-0.050244,0.086175,0.047198,0.40416,-0.021337,-0.46502,-0.018738
1269,-0.0089938,0.12255,0.050121,0.24533,-0.0054209,-0.52609,-0.0076946
1270,0.034855,0.16543,0.056292,0.11703,0.0043233,-0.54038,0.014717
1271,0.072533,0.20798,0.066037,0.049472,0.0095202,-0.51147,0.037454
1272,0.099817,0.24046,0.07708,0.044275,0.015692,-0.44359,0.053044
1273,0.11898,0.2619,0.085525,0.075781,0.030308,-0.34517,0.058891
1274,0.12807,0.27132,0.086824,0.10859,0.047198,-0.22142,0.057917
1275,0.1232,0.26807,0.084551,0.11248,0.052395,-0.077528,0.055643
1276,0.10469,0.25345,0.080978,0.080978,0.045574,0.089423,0.049796
1277,0.076106,0.23169,0.075131,0.031282,0.036804,0.26872,0.038103
1278,0.040377,0.20473,0.064737,-0.019712,0.031607,0.43047,0.01829
1279,0.0056225,0.1716,0.046548,-0.063237,0.029983,0.53408,-0.010618
1280,-0.017439,0.12937,0.019589,-0.10221,0.038753,0.57014,-0.041799
1281,-0.023285,0.078055,-0.014191,-0.14184,0.071234,0.55617,-0.06616
1282,-0.01549,0.024786,-0.047646,-0.18634,0.13912,0.53019,-0.079152
1283,-0.00022403,-0.021661,-0.073306,-0.22629,0.22747,0.52109,-0.088896
1284,0.014717,-0.054792,-0.087922,-0.24968,0.3051,0.53766,-0.097341
1285,0.028034,-0.073306,-0.09117,-0.25292,0.34082,0.58378,-0.10156
1286,0.038103,-0.076554,-0.080776,-0.23831,0.32881,0.68382,-0.094418
1287,0.042975,-0.064211,-0.055441,-0.21492,0.28626,0.86084,-0.075904
1288,0.046223,-0.044073,-0.021661,-0.18699,0.24143,1.1087,-0.054792
1289,0.046873,-0.021661,0.01017,-0.15776,0.20213,1.3558,-0.042774
1290,0.047847,-0.0050961,0.036154,-0.1295,0.16413,1.5027,-0.044398
1291,0.046548,0.0059473,0.054344,-0.10124,0.12743,1.4682,-0.061613
1292,0.040702,0.012443,0.061814,-0.070707,0.098517,1.2318,-0.091495
1293,0.02706,0.016016,0.060515,-0.028807,0.088124,0.84168,-0.13047
1294,0.0095202,0.019589,0.054993,0.037129,0.094295,0.39409,-0.17042
1295,-0.0037969,0.02641,0.051096,0.13002,0.10112,-0.013216,-0.19933
1296,-0.011267,0.038428,0.05142,0.22941,0.096569,-0.30977,-0.20972
1297,-0.01484,0.050446,0.056617,0.31289,0.072208,-0.47444,-0.20388
1298,-0.015815,0.062139,0.064413,0.36778,0.028034,-0.53096,-0.18861
1299,-0.013866,0.06896,0.072858,0.40838,-0.03173,-0.52674,-0.1688
1300,-0.0076946,0.073507,0.086824,0.46782,-0.10449,-0.50108,-0.14769
1301,-0.00022403,0.077405,0.10696,0.58053,-0.18504,-0.4543,-0.12722
1302,0.0069217,0.075456,0.1297,0.76535,-0.26397,-0.36401,-0.10481
1303,0.012119,0.06019,0.14626,1.0356,-0.32308,-0.22986,-0.078503
1304,0.016341,0.032582,0.15731,1.3796,-0.3429,-0.087597,-0.048296
1305,0.020564,0.0075714,0.16998,1.7476,-0.31529,0.010819,-0.019063
1306,0.027709,0.00010078,0.18264,2.0558,-0.25162,0.037129,0.0023744
1307,0.036154,0.016666,0.19206,2.2062,-0.17887,-0.0024977,0.015692
1308,0.040702,0.05272,0.19336,2.1347,-0.1204,-0.076229,0.021213
1309,0.0433,0.098842,0.18654,1.8531,-0.085973,-0.15093,0.024786
1310,0.045249,0.14334,0.17192,1.4445,-0.068758,-0.19446,0.033881
1311,0.048822,0.17745,0.15633,1.019,-0.060963,-0.19966,0.051096
1312,0.058241,0.19726,0.14691,0.66401,-0.055116,-0.17724,0.071234
1313,0.073507,0.20246,0.14432,0.41975,-0.044398,-0.14509,0.079029
1314,0.0865,0.19304,0.14594,0.29048,-0.03238,-0.12592,0.06961
1315,0.089423,0.16835,0.14496,0.2567,-0.023285,-0.14087,0.044924
1316,0.07708,0.12743,0.13392,0.27326,-0.022961,-0.18959,0.012443
1317,0.055968,0.072533,0.10989,0.28463,-0.038551,-0.25812,-0.017764
1318,0.031607,0.01017,0.073832,0.24078,-0.073631,-0.32438,-0.037252
1319,0.012443,-0.04992,0.030633,0.11703,-0.11813,-0.37862,-0.041475
1320,-0.00087364,-0.096042,-0.01549,-0.073631,-0.16068,-0.4241,-0.034654
1321,-0.012892,-0.12885,-0.061613,-0.29255,-0.19543,-0.47022,-0.02361
1322,-0.023285,-0.15483,-0.10611,-0.4962,-0.21979,-0.52154,-0.015815
1323,-0.031081,-0.174,-0.15126,-0.65309,-0.23376,-0.56994,-0.018088
1324,-0.03303,-0.18601,-0.19056,-0.75475,-0.23928,-0.61573,-0.03303
1325,-0.027833,-0.19121,-0.21849,-0.8012,-0.24221,-0.67128,-0.060313
1326,-0.013216,-0.18731,-0.22921,-0.80899,-0.24578,-0.7515,-0.098316
1327,0.0036737,-0.18082,-0.22759,-0.7986,-0.24221,-0.85869,-0.14054
1328,0.014392,-0.17789,-0.21914,-0.78788,-0.21622,-0.97887,-0.17724
1329,0.016016,-0.18244,-0.2055,-0.78496,-0.14639,-1.0831,-0.20128
1330,0.0078962,-0.18829,-0.18666,-0.78886,-0.024585,-1.1335,-0.20972
1331,-0.0076946,-0.18894,-0.16555,-0.79633,0.12385,-1.1039,-0.20063
1332,-0.021337,-0.17627,-0.14606,-0.80282,0.25767,-1.0006,-0.17497
1333,-0.022311,-0.14087,-0.13047,-0.80347,0.34147,-0.84537,-0.13632
1334,-0.0080194,-0.076554,-0.11423,-0.7947,0.36713,-0.65796,-0.087272
1335,0.014392,0.0085458,-0.092794,-0.77327,0.34375,-0.46502,-0.027183
1336,0.037778,0.10242,-0.061613,-0.74176,0.27164,-0.30197,0.031932
1337,0.056942,0.18849,-0.023285,-0.7096,0.10631,-0.20745,0.077405
1338,0.061165,0.24598,0.0065969,-0.68459,-0.19738,-0.19576,0.10014
1339,0.045899,0.26872,0.018615,-0.6703,-0.59397,-0.25325,0.10144
1340,0.017316,0.26417,0.012443,-0.66803,-0.95808,-0.3429,0.092346
1341,-0.012242,0.24663,-0.0034721,-0.6768,-1.1679,-0.41468,0.085525
1342,-0.032055,0.22682,-0.021986,-0.68882,-1.1708,-0.42312,0.084876
1343,-0.035953,0.20603,-0.036278,-0.69369,-0.99771,-0.3299,0.086175
1344,-0.028482,0.18459,-0.04992,-0.68719,-0.73234,-0.10254,0.083576
1345,-0.019063,0.16283,-0.063561,-0.66218,-0.466,0.26839,0.079354
1346,-0.01614,0.14172,-0.077203,-0.62093,-0.2513,0.74943,0.077405
1347,-0.023935,0.11931,-0.089871,-0.57253,-0.10611,1.2415,0.082277
1348,-0.042449,0.091696,-0.099615,-0.52934,-0.021661,1.605,0.092996
1349,-0.067784,0.055968,-0.10319,-0.49783,0.01764,1.732,0.095919
1350,-0.088572,0.017965,-0.096692,-0.47314,0.036479,1.5965,0.084876
1351,-0.096042,-0.012567,-0.083375,-0.44976,0.05207,1.2643,0.058891
1352,-0.092469,-0.027833,-0.068109,-0.4267,0.075456,0.85337,0.022188
1353,-0.0837,-0.029457,-0.054142,-0.40526,0.10534,0.47822,-0.015165
1354,-0.072331,-0.023935,-0.045372,-0.3835,0.13684,0.19466,-0.050569
1355,-0.059664,-0.020037,-0.041799,-0.36109,0.16153,-0.0034721,-0.090196
1356,-0.052518,-0.021012,-0.039851,-0.33737,0.16705,-0.15938,-0.14119
1357,-0.052843,-0.029457,-0.035628,-0.32081,0.14984,-0.31464,-0.2016
1358,-0.058689,-0.042774,-0.024909,-0.31204,0.11768,-0.48679,-0.26624
1359,-0.062587,-0.056416,-0.0044465,-0.30522,0.0852,-0.66023,-0.32666
1360,-0.061613,-0.067459,0.019589,-0.29223,0.061814,-0.81257,-0.37018
1361,-0.052843,-0.072981,0.039727,-0.26819,0.049472,-0.92268,-0.38772
1362,-0.039526,-0.081101,0.046873,-0.23603,0.046548,-0.99316,-0.37668
1363,-0.025234,-0.09929,0.038103,-0.20843,0.050446,-1.0451,-0.34874
1364,-0.012892,-0.1295,0.01764,-0.20258,0.053694,-1.1055,-0.32016
1365,-0.0050961,-0.16782,-0.0083442,-0.21914,0.055318,-1.1945,-0.30165
1366,-0.00022403,-0.19933,-0.034329,-0.2448,0.058566,-1.3228,-0.29547
1367,0.0023744,-0.2146,-0.051544,-0.25812,0.065062,-1.4745,-0.2906
1368,0.0026992,-0.20258,-0.052843,-0.2435,0.079679,-1.6142,-0.28216
1369,0.0023744,-0.16165,-0.039526,-0.19608,0.10079,-1.6915,-0.26429
1370,0.0056225,-0.096042,-0.014516,-0.12495,0.13425,-1.6515,-0.23474
1371,0.017316,-0.019388,0.020888,-0.047321,0.17647,-1.4622,-0.18991
1372,0.040052,0.053044,0.06019,0.023812,0.22,-1.1585,-0.13404
1373,0.071883,0.11606,0.099167,0.081627,0.25118,-0.83206,-0.075579
1374,0.10696,0.169,0.1349,0.12548,0.26222,-0.5878,-0.021986
1375,0.13879,0.21058,0.15893,0.16283,0.25962,-0.5053,0.023487
1376,0.15698,0.23526,0.16835,0.20246,0.24858,-0.60079,0.062789
1377,0.15698,0.24176,0.1651,0.24955,0.23494,-0.81939,0.094295
1378,0.14204,0.23169,0.15244,0.2986,0.21805,-1.0695,0.11378
1379,0.12028,0.20798,0.13327,0.34407,0.20181,-1.2615,0.12418
1380,0.098517,0.17127,0.10794,0.3837,0.18979,-1.3274,0.13132
1381,0.080328,0.13067,0.080653,0.42203,0.19141,-1.239,0.14367
1382,0.071558,0.097218,0.052395,0.46652,0.21642,-1.0214,0.16998
1383,0.076106,0.077405,0.03518,0.52207,0.26677,-0.74046,0.20733
1384,0.092996,0.072208,0.03453,0.58703,0.33985,-0.46892,0.24598
1385,0.11638,0.080328,0.049472,0.65654,0.42755,-0.23993,0.27521
1386,0.13782,0.096244,0.072208,0.71728,0.52012,-0.034978,0.28853
1387,0.15049,0.11573,0.092996,0.75106,0.60067,0.19596,0.28885
1388,0.14756,0.131,0.10274,0.74781,0.65654,0.5133,0.28528
1389,0.12872,0.13457,0.096893,0.70363,0.67765,0.91216,0.28593
1390,0.10534,0.12905,0.07773,0.61756,0.66336,1.3078,0.29308
1391,0.087149,0.12125,0.052395,0.49056,0.61204,1.5926,0.30672
1392,0.074806,0.11736,0.030308,0.33465,0.51882,1.7222,0.32361
1393,0.065712,0.11443,0.016666,0.16868,0.36941,1.7268,0.3418
1394,0.054344,0.10014,0.0078962,0.017965,0.14269,1.6719,0.35609
1395,0.034855,0.072208,-0.0041217,-0.099615,-0.14834,1.6154,0.35934
1396,0.0039985,0.03453,-0.016464,-0.17659,-0.43547,1.5952,0.35641
1397,-0.030106,0.00010078,-0.027833,-0.2107,-0.62775,1.6293,0.36096
1398,-0.056091,-0.020362,-0.035628,-0.20745,-0.67193,1.7018,0.3798
1399,-0.061288,-0.029782,-0.035953,-0.17562,-0.57318,1.7547,0.40936
1400,-0.047971,-0.032055,-0.026533,-0.12365,-0.39227,1.7229,0.43404
1401,-0.029782,-0.034329,-0.0089938,-0.059664,-0.2029,1.5679,0.43794
1402,-0.01614,-0.039851,0.0085458,0.016016,-0.061288,1.2912,0.40936
1403,-0.014516,-0.04862,0.01894,0.10794,0.017316,0.9349,0.35414
1404,-0.022961,-0.055766,0.022512,0.22519,0.047198,0.56721,0.28561
1405,-0.0405,-0.055116,0.024786,0.37558,0.055643,0.24371,0.22
1406,-0.062912,-0.048945,0.032582,0.5565,0.057592,-0.012567,0.16998
1407,-0.082725,-0.038227,0.044599,0.74359,0.057917,-0.21427,0.13555
1408,-0.090845,-0.030756,0.056617,0.8904,0.053694,-0.39032,0.11118
1409,-0.086948,-0.033354,0.066362,0.94529,0.038428,-0.56312,0.088124
1410,-0.079477,-0.047321,0.070259,0.8865,0.010819,-0.72325,0.058891
1411,-0.072981,-0.070058,0.066686,0.73287,-0.027183,-0.8483,0.023162
1412,-0.072656,-0.09182,0.053044,0.53538,-0.06681,-0.91975,-0.014516
1413,-0.080451,-0.10481,0.03453,0.34927,-0.095717,-0.93275,-0.051219
1414,-0.089871,-0.10774,0.019914,0.21025,-0.10286,-0.88727,-0.084349
1415,-0.090196,-0.10124,0.015692,0.1219,-0.0837,-0.78333,-0.11098
1416,-0.075579,-0.088247,0.021213,0.064413,-0.045047,-0.62256,-0.13112
1417,-0.046022,-0.070382,0.033231,0.014068,-0.00087364,-0.41988,-0.14639
1418,-0.007045,-0.046671,0.048497,-0.039201,0.037454,-0.20518,-0.15483
1419,0.039078,-0.014516,0.068635,-0.094093,0.059216,-0.020037,-0.15808
1420,0.083901,0.024786,0.092346,-0.13762,0.062139,0.10274,-0.15581
1421,0.1206,0.067336,0.11411,-0.1623,0.053694,0.16933,-0.14964
1422,0.14237,0.10696,0.12645,-0.16555,0.042651,0.22162,-0.14054
1423,0.14626,0.13392,0.12288,-0.15548,0.03453,0.30217,-0.13112
1424,0.13522,0.14074,0.10339,-0.13794,0.026735,0.4295,-0.12592
1425,0.11346,0.1232,0.072533,-0.1295,0.021863,0.59158,-0.1243
1426,0.083576,0.088773,0.03583,-0.13729,0.01894,0.76242,-0.12657
1427,0.048497,0.047847,0.00010078,-0.15516,0.010495,0.91411,-0.1334
1428,0.013093,0.0075714,-0.026209,-0.1753,-0.0044465,1.0171,-0.14606
1429,-0.017439,-0.022636,-0.039851,-0.19251,-0.020037,1.0593,-0.16523
1430,-0.040825,-0.0405,-0.043099,-0.20096,-0.026209,1.0388,-0.19186
1431,-0.057065,-0.049595,-0.039201,-0.19641,-0.018088,0.96965,-0.21655
1432,-0.069083,-0.055766,-0.03238,-0.17367,0.0036737,0.87058,-0.22532
1433,-0.077203,-0.059989,-0.019712,-0.13534,0.039727,0.76015,-0.20843
1434,-0.080127,-0.062912,-0.0011985,-0.10644,0.086175,0.64452,-0.17075
1435,-0.076554,-0.065186,0.019589,-0.11618,0.13522,0.52856,-0.12365
1436,-0.068109,-0.067134,0.031932,-0.1727,0.17257,0.42657,-0.077853
1437,-0.060313,-0.065835,0.029658,-0.25455,0.18816,0.35869,-0.04115
1438,-0.052518,-0.059014,0.01764,-0.32568,0.18881,0.33887,-0.01614
1439,-0.046671,-0.048945,0.0075714,-0.35329,0.20116,0.36031,0.00010078
1440,-0.044398,-0.039201,0.0052977,-0.32341,0.258,0.39669,0.008221
1441,-0.046347,-0.036278,0.0088706,-0.24675,0.36486,0.41456,0.0062721
1442,-0.050894,-0.045372,0.011794,-0.15516,0.49511,0.38565,-0.010943
1443,-0.054142,-0.065835,0.0095202,-0.080451,0.60847,0.29633,-0.040825
1444,-0.056741,-0.088572,0.0043233,-0.037577,0.66531,0.15601,-0.07493
1445,-0.062912,-0.10124,-0.0011985,-0.022311,0.64907,-0.0050961,-0.099615
1446,-0.068109,-0.097017,-0.0021729,-0.026858,0.57501,-0.15938,-0.10124
1447,-0.063237,-0.078503,0.0014,-0.050569,0.46685,-0.28605,-0.078178
1448,-0.046671,-0.044398,0.0059473,-0.095393,0.31971,-0.36985,-0.035303
1449,-0.022961,-0.0080194,0.0056225,-0.1636,0.091372,-0.40753,0.022512
1450,-0.0011985,0.019914,-0.0037969,-0.24123,-0.23961,-0.3822,0.087474
1451,0.019914,0.036804,-0.022961,-0.30424,-0.61249,-0.26527,0.15146
1452,0.045249,0.050121,-0.048296,-0.33737,-0.91196,-0.039526,0.20895
1453,0.074482,0.061814,-0.075904,-0.33737,-1.049,0.25995,0.2541
1454,0.10436,0.07773,-0.09929,-0.30359,-1.0088,0.55097,0.28073
1455,0.13132,0.096569,-0.11845,-0.23376,-0.84342,0.74261,0.28885
1456,0.15114,0.11183,-0.13242,-0.1282,-0.63132,0.77801,0.27846
1457,0.15828,0.11768,-0.14249,-0.0011985,-0.43579,0.65946,0.25345
1458,0.14919,0.10826,-0.14541,0.13067,-0.29028,0.44346,0.2135
1459,0.1245,0.083576,-0.13372,0.26612,-0.19803,0.20051,0.16348
1460,0.086175,0.048497,-0.11001,0.43892,-0.14606,-0.025884,0.11183
1461,0.045899,0.011469,-0.075255,0.71598,-0.10936,-0.22726,0.061165
1462,0.011469,-0.01614,-0.035628,1.1327,-0.07428,-0.40688,0.011144
1463,-0.0083442,-0.032705,0.0014,1.6186,-0.041799,-0.56539,-0.039201
1464,-0.010618,-0.038876,0.021863,2.0113,-0.027833,-0.69694,-0.092469
1465,0.0017248,-0.034978,0.022837,2.162,-0.047971,-0.80347,-0.14022
1466,0.021538,-0.02426,0.0069217,2.0129,-0.10741,-0.89085,-0.17659
1467,0.040702,-0.011592,-0.019388,1.6225,-0.19056,-0.96555,-0.19381
1468,0.056942,-0.0021729,-0.046022,1.1213,-0.27079,-1.0299,-0.18666
1469,0.066362,-0.0018481,-0.064536,0.64225,-0.3312,-1.0828,-0.15841
1470,0.070259,-0.013541,-0.076879,0.26677,-0.36531,-1.1195,-0.11521
1471,0.067336,-0.03238,-0.084349,0.015367,-0.377,-1.1419,-0.067134
1472,0.054019,-0.053492,-0.086948,-0.13177,-0.37408,-1.1572,-0.019712
1473,0.027709,-0.067459,-0.079152,-0.21395,-0.37213,-1.1777,0.01894
1474,-0.008669,-0.06616,-0.059339,-0.26949,-0.37473,-1.2017,0.046873
1475,-0.039851,-0.047321,-0.028157,-0.32341,-0.37278,-1.2014,0.066686
1476,-0.054142,-0.013541,0.010495,-0.38252,-0.35037,-1.114,0.080653
1477,-0.045697,0.029658,0.050771,-0.44066,-0.30912,-0.85869,0.09397
1478,-0.018413,0.074482,0.090072,-0.48679,-0.25812,-0.38869,0.11606
1479,0.019264,0.10696,0.1232,-0.51569,-0.20615,0.23526,0.14724
1480,0.05142,0.1219,0.14691,-0.52771,-0.16458,0.81797,0.17777
1481,0.065712,0.11833,0.15568,-0.51862,-0.13957,1.1291,0.19661
1482,0.059865,0.10404,0.14659,-0.48191,-0.1295,1.0483,0.19758
1483,0.037454,0.086175,0.1258,-0.39844,-0.12527,0.64712,0.18069
1484,0.0069217,0.06896,0.10794,-0.2513,-0.11488,0.14724,0.15341
1485,-0.024585,0.05272,0.10112,-0.042774,-0.082725,-0.22759,0.1245
1486,-0.053492,0.03583,0.10306,0.18784,-0.019388,-0.37018,0.10274
1487,-0.071032,0.01829,0.10501,0.37103,0.071883,-0.28898,0.086824
1488,-0.079152,-0.0034721,0.096244,0.44021,0.17452,-0.063237,0.075456
1489,-0.084024,-0.026858,0.076755,0.37395,0.27456,0.22032,0.066686
1490,-0.090196,-0.042774,0.05272,0.20635,0.36064,0.53603,0.067011
1491,-0.096367,-0.046022,0.036804,0.0059473,0.42657,0.89754,0.083251
1492,-0.10189,-0.037252,0.032257,-0.15743,0.47075,1.3172,0.11638
1493,-0.097666,-0.017764,0.038428,-0.24415,0.49413,1.769,0.16218
1494,-0.087272,0.0039985,0.047523,-0.24675,0.50063,2.2153,0.20635
1495,-0.075579,0.025436,0.050446,-0.18471,0.49641,2.6008,0.23169
1496,-0.072331,0.042326,0.047198,-0.096042,0.49251,2.8425,0.23039
1497,-0.070058,0.058566,0.040052,-0.020362,0.49056,2.863,0.20408
1498,-0.058365,0.073507,0.030633,0.017316,0.48666,2.6177,0.15861
1499,-0.03173,0.080978,0.019589,0.0072465,0.47627,2.1383,0.10242
1500,0.0056225,0.082927,0.0056225,-0.038876,0.45581,1.5283,0.046223
1501,0.043625,0.084551,-0.0089938,-0.10026,0.42592,0.91216,0.0033489
1502,0.072858,0.089098,-0.018088,-0.15808,0.38662,0.38857,-0.024585
1503,0.091047,0.096569,-0.024909,-0.19868,0.34017,-0.0047713,-0.046996
1504,0.096244,0.10534,-0.028807,-0.22304,0.29243,-0.2854,-0.072006
1505,0.09462,0.11313,-0.028807,-0.23474,0.2463,-0.49263,-0.094743
1506,0.090072,0.11898,-0.026209,-0.23993,0.19596,-0.65439,-0.11326
1507,0.088124,0.11541,-0.025559,-0.24253,0.13717,-0.77976,-0.12755
1508,0.090722,0.099817,-0.03303,-0.25357,0.064413,-0.86551,-0.14054
1509,0.09462,0.074482,-0.046671,-0.27761,-0.010293,-0.91033,-0.15158
1510,0.096244,0.048497,-0.061613,-0.31139,-0.072656,-0.9217,-0.161
1511,0.095594,0.029333,-0.069733,-0.3429,-0.11618,-0.91553,-0.17042
1512,0.09397,0.021538,-0.067459,-0.36466,-0.14834,-0.91033,-0.18407
1513,0.089423,0.02706,-0.052843,-0.37505,-0.174,-0.9269,-0.20485
1514,0.083901,0.047198,-0.029457,-0.38447,-0.19316,-0.97887,-0.23019
1515,0.082277,0.078704,-0.0073698,-0.39811,-0.20323,-1.0744,-0.26072
1516,0.088448,0.11216,0.0075714,-0.41598,-0.20323,-1.2196,-0.2932
1517,0.10242,0.13879,0.013418,-0.43449,-0.19056,-1.4118,-0.32763
1518,0.11898,0.15114,0.014717,-0.44878,-0.16523,-1.6376,-0.35849
1519,0.12807,0.14659,0.013743,-0.45366,-0.13307,-1.874,-0.3783
1520,0.12385,0.12743,0.0069217,-0.44651,-0.10384,-2.0913,-0.3848
1521,0.10696,0.10404,-0.0060706,-0.42767,-0.092794,-2.2534,-0.38317
1522,0.085525,0.08585,-0.025559,-0.40656,-0.10286,-2.3177,-0.3757
1523,0.067336,0.076431,-0.04862,-0.38025,-0.12105,-2.2518,-0.35946
1524,0.058891,0.075781,-0.067784,-0.35102,-0.13534,-2.0481,-0.3338
1525,0.054019,0.076106,-0.076554,-0.31399,-0.14022,-1.7396,-0.29807
1526,0.044275,0.075781,-0.069408,-0.26462,-0.13924,-1.3816,-0.25617
1527,0.030308,0.071883,-0.052518,-0.2042,-0.1308,-1.0198,-0.21167
1528,0.015367,0.064413,-0.030106,-0.14314,-0.1191,-0.67193,-0.1675
1529,0.0046481,0.056942,-0.0076946,-0.09182,-0.11001,-0.34095,-0.12398
1530,0.00042559,0.047847,0.0091954,-0.061288,-0.10838,-0.036278,-0.0824
1531,-0.00054884,0.036154,0.017965,-0.053168,-0.12495,0.21447,-0.044398
1532,-0.0021729,0.020564,0.022837,-0.056741,-0.1675,0.37753,-0.012242
1533,-0.0093186,0.0023744,0.029009,-0.062262,-0.23474,0.44184,0.011794
1534,-0.021337,-0.011592,0.034206,-0.059664,-0.31399,0.42462,0.025111
1535,-0.035953,-0.01549,0.031607,-0.047321,-0.38674,0.36746,0.023812
1536,-0.052843,-0.0089938,0.020239,-0.028482,-0.42767,0.31322,0.0095202
1537,-0.068109,0.0017248,0.0049729,-0.0063954,-0.42215,0.29568,-0.0076946
1538,-0.076879,0.014068,-0.0044465,0.011469,-0.36498,0.32231,-0.01484
1539,-0.079477,0.022837,-0.0044465,0.020564,-0.26819,0.38402,-0.0021729
1540,-0.079477,0.025436,0.00010078,0.026735,-0.15158,0.46782,0.031607
1541,-0.079802,0.01829,0.0078962,0.041351,-0.034654,0.55942,0.079679
1542,-0.083375,0.0026992,0.016666,0.065712,0.069285,0.63413,0.1258
1543,-0.089871,-0.020687,0.021538,0.091696,0.15893,0.66401,0.16413
1544,-0.097341,-0.050244,0.019914,0.11346,0.24111,0.62698,0.19791
1545,-0.09994,-0.078503,0.014068,0.12937,0.32101,0.52531,0.22779
1546,-0.092794,-0.10059,0.009845,0.13814,0.39767,0.38792,0.2528
1547,-0.074605,-0.10968,0.0052977,0.14367,0.45938,0.2606,0.27196
1548,-0.04927,-0.10611,-0.0041217,0.15438,0.49511,0.17225,0.28528
1549,-0.022311,-0.093444,-0.01549,0.17257,0.49998,0.13457,0.28983
1550,-0.00087364,-0.079477,-0.022961,0.19401,0.47822,0.15244,0.28398
1551,0.009845,-0.070707,-0.021661,0.2135,0.43047,0.23071,0.26417
1552,0.0026992,-0.070382,-0.013541,0.23136,0.34375,0.36811,0.23754
1553,-0.017439,-0.077528,-0.0044465,0.23948,0.20213,0.52174,0.2161
1554,-0.036927,-0.089546,-0.0024977,0.22941,0.012443,0.62081,0.20668
1555,-0.045697,-0.097017,-0.0089938,0.19791,-0.18471,0.60619,0.2109
1556,-0.038551,-0.098965,-0.015165,0.14951,-0.33153,0.47659,0.22584
1557,-0.02361,-0.097017,-0.01549,0.09462,-0.38967,0.28073,0.24533
1558,-0.0096434,-0.092469,-0.0083442,0.038428,-0.36466,0.080328,0.2593
1559,0.003024,-0.0824,0.0043233,-0.023285,-0.28768,-0.075255,0.26547
1560,0.01764,-0.064211,0.019914,-0.084999,-0.18634,-0.1636,0.25735
1561,0.033231,-0.042774,0.034206,-0.14119,-0.084999,-0.17205,0.23331
1562,0.050771,-0.02426,0.041027,-0.18829,-0.00087364,-0.097017,0.20311
1563,0.06831,-0.016789,0.039078,-0.22402,0.054993,0.042975,0.17582
1564,0.078704,-0.019388,0.029658,-0.24643,0.079679,0.20148,0.15633
1565,0.079354,-0.025234,0.014392,-0.26072,0.078379,0.32458,0.14107
1566,0.067661,-0.028807,0.00042559,-0.27144,0.061814,0.3772,0.12483
1567,0.052395,-0.027508,-0.0050961,-0.28216,0.039078,0.35771,0.099817
1568,0.044924,-0.021337,-0.0028225,-0.2945,0.012119,0.29178,0.06831
1569,0.047523,-0.010618,0.0017248,-0.31464,-0.017439,0.22227,0.036154
1570,0.05272,-0.0018481,0.0056225,-0.34127,-0.048296,0.18199,0.008221
1571,0.055318,0.00042559,0.012443,-0.36011,-0.072981,0.18037,-0.012892
1572,0.053694,0.00042559,0.024786,-0.35459,-0.084674,0.20668,-0.021012
1573,0.050121,0.0052977,0.041351,-0.30879,-0.074605,0.25085,-0.010293
1574,0.048497,0.015367,0.059216,-0.2159,-0.046996,0.30087,0.013743
1575,0.049472,0.031282,0.076431,-0.077203,-0.010943,0.33725,0.038428
1576,0.05142,0.049796,0.089748,0.097218,0.028034,0.34472,0.053369
1577,0.054019,0.06896,0.096569,0.2947,0.064413,0.31711,0.052395
1578,0.056292,0.086175,0.097543,0.48764,0.088448,0.26937,0.045899
1579,0.060515,0.10014,0.093645,0.6338,0.095269,0.21805,0.037454
1580,0.063763,0.11216,0.086824,0.69292,0.090397,0.17712,0.034206
1581,0.063438,0.12385,0.081627,0.65361,0.081952,0.16315,0.041027
1582,0.059216,0.1271,0.078379,0.54935,0.074157,0.19401,0.057592
1583,0.052395,0.11476,0.076431,0.43892,0.072858,0.27976,0.082602
1584,0.045574,0.087149,0.073182,0.37395,0.081952,0.40481,0.10566
1585,0.038103,0.052395,0.06831,0.37006,0.10469,0.52759,0.11768
1586,0.031282,0.019589,0.062789,0.41326,0.13392,0.58281,0.11216
1587,0.028034,-0.0050961,0.058891,0.46847,0.15438,0.51005,0.089423
1588,0.030633,-0.018738,0.056942,0.50615,0.15146,0.28236,0.050771
1589,0.036479,-0.020362,0.058241,0.51102,0.12158,-0.078503,-0.00054884
1590,0.042001,-0.0080194,0.06019,0.48017,0.074806,-0.50238,-0.052193
1591,0.038103,0.013743,0.057592,0.42397,0.027709,-0.90449,-0.090196
1592,0.029009,0.042975,0.050121,0.36194,-0.0073698,-1.216,-0.11228
1593,0.018615,0.075131,0.042975,0.31029,-0.027508,-1.4034,-0.11651
1594,0.01894,0.10696,0.045249,0.27781,-0.029782,-1.4719,-0.10579
1595,0.034206,0.13522,0.062789,0.26287,-0.013216,-1.4333,-0.082076
1596,0.056942,0.15796,0.086175,0.25702,0.019264,-1.2939,-0.053168
1597,0.074157,0.17452,0.10826,0.25183,0.056942,-1.0471,-0.028482
1598,0.075456,0.18784,0.12158,0.24468,0.081952,-0.69206,-0.016464
1599,0.06019,0.19758,0.12125,0.23526,0.083251,-0.26819,-0.021661
1600,0.036479,0.19369,0.10371,0.22259,0.065387,0.14172,-0.04992
1601,0.009845,0.17582,0.071558,0.20538,0.046548,0.44574,-0.097341
1602,-0.017114,0.14659,0.033881,0.18557,0.040377,0.59612,-0.14899
1603,-0.0405,0.11086,-0.0024977,0.16056,0.051745,0.60814,-0.18666
1604,-0.051868,0.074806,-0.035303,0.12937,0.076106,0.53311,-0.20096
1605,-0.046671,0.049472,-0.060963,0.088773,0.10859,0.43404,-0.19381
1606,-0.025884,0.040377,-0.079477,0.044599,0.14529,0.35317,-0.1727
1607,0.00075039,0.044924,-0.088896,0.0056225,0.1781,0.2999,-0.14281
1608,0.025436,0.054668,-0.09117,-0.024585,0.19986,0.26807,-0.10806
1609,0.042651,0.059541,-0.090196,-0.046347,0.2096,0.25183,-0.072656
1610,0.05142,0.058891,-0.088247,-0.06551,0.20765,0.24728,-0.046996
1611,0.05272,0.048172,-0.08305,-0.0837,0.19921,0.25507,-0.036602
1612,0.045249,0.023812,-0.077528,-0.10254,0.19174,0.27846,-0.038227
1613,0.027385,-0.0093186,-0.075904,-0.12625,0.18394,0.30704,-0.042449
1614,-0.00054884,-0.046996,-0.07493,-0.15841,0.1703,0.32393,-0.04862
1615,-0.030431,-0.080127,-0.072331,-0.19803,0.14789,0.31711,-0.053492
1616,-0.055116,-0.10351,-0.064211,-0.23376,0.11963,0.28268,-0.055766
1617,-0.072981,-0.12073,-0.051544,-0.25715,0.087799,0.23201,-0.051868
1618,-0.081101,-0.13307,-0.038227,-0.26267,0.056942,0.19076,-0.042774
1619,-0.078178,-0.14022,-0.02361,-0.25715,0.030633,0.18459,-0.029132
1620,-0.067134,-0.13794,-0.0080194,-0.2435,0.0095202,0.23331,-0.013216
1621,-0.056416,-0.1295,0.008221,-0.21882,-0.0073698,0.33433,0.0036737
1622,-0.054467,-0.1191,0.021538,-0.18342,-0.02426,0.45938,0.020564
1623,-0.061288,-0.11196,0.033556,-0.13534,-0.040825,0.55715,0.036804
1624,-0.070382,-0.10579,0.044599,-0.067134,-0.058689,0.58053,0.047847
1625,-0.073631,-0.10579,0.053044,0.023487,-0.079477,0.5107,0.048822
1626,-0.068109,-0.11488,0.054344,0.13165,-0.10254,0.37201,0.040702
1627,-0.059339,-0.13827,0.046223,0.25507,-0.11586,0.22194,0.032906
1628,-0.050244,-0.1727,0.038103,0.39117,-0.11358,0.11118,0.030308
1629,-0.042124,-0.20518,0.032257,0.52759,-0.098316,0.063113,0.033556
1630,-0.035303,-0.22337,0.028034,0.6364,-0.081101,0.067986,0.045574
1631,-0.028482,-0.2172,0.020239,0.68415,-0.071032,0.098193,0.059865
1632,-0.024909,-0.19251,0.0072465,0.64614,-0.07428,0.1271,0.07773
1633,-0.020037,-0.16295,-0.008669,0.52434,-0.094093,0.14626,0.093321
1634,-0.014191,-0.13567,-0.024585,0.34927,-0.12625,0.15503,0.10339
1635,-0.0054209,-0.11975,-0.035628,0.16608,-0.16912,0.15958,0.10177
1636,-0.0021729,-0.11813,-0.040175,0.0085458,-0.21297,0.16315,0.090722
1637,-0.013216,-0.1243,-0.042124,-0.11098,-0.2487,0.17062,0.075781
1638,-0.034978,-0.13112,-0.047971,-0.19901,-0.27599,0.18004,0.059541
1639,-0.059339,-0.13307,-0.059989,-0.26981,-0.30002,0.17777,0.036804
1640,-0.077528,-0.12982,-0.07428,-0.33023,-0.31886,0.15309,0.003024
1641,-0.080451,-0.11651,-0.084674,-0.38415,-0.32763,0.10047,-0.036278
1642,-0.068434,-0.096042,-0.086298,-0.42897,-0.32828,0.027385,-0.071682
1643,-0.045372,-0.071682,-0.076229,-0.46437,-0.32276,-0.062262,-0.094093
1644,-0.017764,-0.046022,-0.061288,-0.49166,-0.31269,-0.16393,-0.10351
1645,0.003024,-0.015165,-0.042124,-0.50952,-0.28995,-0.27599,-0.10546
1646,0.013743,0.023487,-0.019388,-0.51699,-0.25617,-0.39194,-0.10124
1647,0.013093,0.063438,0.0010752,-0.51277,-0.22142,-0.49426,-0.09182
1648,0.0088706,0.094945,0.019914,-0.49653,-0.19478,-0.57546,-0.077528
1649,0.012119,0.11183,0.037778,-0.4621,-0.1753,-0.63847,-0.060963
1650,0.021213,0.11703,0.053694,-0.39064,-0.15743,-0.68492,-0.04927
1651,0.031282,0.11573,0.064737,-0.26689,-0.14476,-0.69986,-0.047321
1652,0.042651,0.11216,0.067661,-0.096367,-0.13892,-0.64886,-0.04992
1653,0.05272,0.10924,0.059865,0.083576,-0.13664,-0.49945,-0.051544
1654,0.063438,0.10209,0.044275,0.23948,-0.12722,-0.24123,-0.048945
1655,0.074157,0.086175,0.029333,0.3746,-0.095717,0.081303,-0.041475
1656,0.081952,0.066686,0.020564,0.52044,-0.042774,0.38078,-0.024909
1657,0.082927,0.050446,0.021213,0.69259,0.023812,0.58151,-0.0037969
1658,0.074806,0.046873,0.029333,0.8524,0.098517,0.65459,0.012768
1659,0.057592,0.056617,0.036154,0.93262,0.1677,0.61269,0.024137
1660,0.03583,0.082927,0.03583,0.88293,0.2161,0.49576,0.03518
1661,0.016341,0.12385,0.032582,0.70591,0.22909,0.34602,0.05207
1662,0.0043233,0.17257,0.040052,0.45451,0.21025,0.19076,0.074806
1663,-0.0018481,0.22227,0.059865,0.20278,0.1781,0.042001,0.097218
1664,-0.0028225,0.26287,0.080653,0.0023744,0.14886,-0.10481,0.11216
1665,0.0010752,0.28885,0.087799,-0.1282,0.13587,-0.25422,0.11736
1666,0.0046481,0.29957,0.076106,-0.20323,0.14886,-0.40266,0.11573
1667,0.0085458,0.29795,0.053694,-0.2461,0.18751,-0.5407,0.11508
1668,0.016341,0.28593,0.029009,-0.27176,0.24825,-0.65211,0.12093
1669,0.030633,0.26352,0.0065969,-0.28735,0.31127,-0.72877,0.1297
1670,0.049147,0.23461,-0.010618,-0.29255,0.35122,-0.77814,0.13847
1671,0.06831,0.20148,-0.021986,-0.28216,0.35252,-0.81289,0.14334
1672,0.079029,0.16998,-0.028482,-0.25357,0.31841,-0.85089,0.14009
1673,0.076431,0.14269,-0.03303,-0.21785,0.26547,-0.89832,0.12775
1674,0.06084,0.11476,-0.035303,-0.18114,0.20928,-0.94509,0.11313
1675,0.038103,0.082277,-0.035628,-0.14411,0.16445,-0.96035,0.10664
1676,0.012768,0.049147,-0.034329,-0.10644,0.14074,-0.91391,0.11118
1677,-0.0093186,0.024461,-0.030756,-0.071357,0.14302,-0.81387,0.1245
1678,-0.023935,0.016341,-0.023285,-0.042124,0.1651,-0.70148,0.14139
1679,-0.029132,0.026085,-0.012567,-0.012567,0.19726,-0.61216,0.15406
1680,-0.027183,0.046873,0.0056225,0.037454,0.22941,-0.56019,0.15568
1681,-0.022636,0.067661,0.027709,0.12645,0.25832,-0.53128,0.14561
1682,-0.01484,0.080653,0.049472,0.24533,0.28268,-0.5014,0.12548
1683,-0.00022403,0.0865,0.063763,0.35219,0.2934,-0.45106,0.099817
1684,0.021863,0.089098,0.069285,0.40514,0.28561,-0.38057,0.069285
1685,0.050121,0.093645,0.065712,0.3837,0.2528,-0.2997,0.036804
1686,0.077405,0.093321,0.054344,0.296,0.18297,-0.21525,0.00075039
1687,0.098193,0.081952,0.03453,0.15958,0.06831,-0.13859,-0.035953
1688,0.10469,0.059865,0.0075714,0.0036737,-0.086298,-0.086298,-0.070058
1689,0.092346,0.029983,-0.017114,-0.13859,-0.2474,-0.077853,-0.10189
1690,0.066686,0.0023744,-0.030106,-0.22661,-0.36336,-0.11488,-0.12885
1691,0.038753,-0.012242,-0.029132,-0.22142,-0.38512,-0.1623,-0.14801
1692,0.014717,-0.011592,-0.017439,-0.099615,-0.28865,-0.14639,-0.15353
1693,-0.0024977,-0.0031473,0.00042559,0.11346,-0.096692,0.019589,-0.14606
1694,-0.01549,0.0043233,0.01894,0.3405,0.13132,0.34537,-0.12657
1695,-0.029782,0.0039985,0.030633,0.48861,0.32816,0.72605,-0.097341
1696,-0.046671,-0.0024977,0.033556,0.5055,0.44444,1.032,-0.059339
1697,-0.059014,-0.011267,0.031282,0.39377,0.47302,1.2288,-0.011267
1698,-0.061937,-0.01484,0.025761,0.20376,0.44151,1.4169,0.042651
1699,-0.05804,-0.008669,0.019589,-0.00022403,0.3772,1.7365,0.10177
1700,-0.051868,0.0036737,0.016666,-0.16847,0.27034,2.2137,0.15958
1701,-0.040825,0.016016,0.016666,-0.27793,0.064737,2.7174,0.20895
1702,-0.026533,0.023487,0.015367,-0.33672,-0.26884,3.0526,0.24371
1703,-0.0067202,0.023487,0.013418,-0.36011,-0.66283,3.0819,0.2593
1704,0.016016,0.013743,0.010819,-0.36433,-0.98666,2.784,0.25767
1705,0.039402,-0.0044465,0.01017,-0.36141,-1.1328,2.2491,0.24825
1706,0.060515,-0.028157,0.0088706,-0.36206,-1.0685,1.6176,0.23429
1707,0.074806,-0.054792,0.0091954,-0.37018,-0.847,1.0031,0.21772
1708,0.080003,-0.076879,0.014392,-0.38447,-0.56961,0.46912,0.18914
1709,0.06961,-0.086948,0.020239,-0.39941,-0.33088,0.032257,0.14204
1710,0.042975,-0.084024,0.024461,-0.40656,-0.17952,-0.31464,0.080328
1711,0.0033489,-0.06681,0.033556,-0.39584,-0.10968,-0.58423,0.016341
1712,-0.042124,-0.042449,0.052395,-0.36368,-0.084999,-0.7934,-0.040175
1713,-0.077203,-0.019388,0.075456,-0.31756,-0.068758,-0.95386,-0.085648
1714,-0.093119,-0.0037969,0.096244,-0.27469,-0.042774,-1.0744,-0.11521
1715,-0.09182,0.0026992,0.10371,-0.2448,-0.0093186,-1.1595,-0.1282
1716,-0.079152,0.0014,0.093321,-0.22467,0.010819,-1.215,-0.12885
1717,-0.060638,-0.0063954,0.068635,-0.21037,0.0065969,-1.2563,-0.12625
1718,-0.039851,-0.014516,0.03583,-0.19641,-0.018738,-1.2943,-0.1269
1719,-0.022961,-0.021337,0.0020496,-0.17854,-0.059014,-1.3358,-0.13502
1720,-0.014191,-0.028157,-0.022311,-0.15776,-0.10449,-1.3751,-0.15321
1721,-0.01549,-0.036927,-0.03238,-0.13664,-0.14509,-1.3862,-0.17465
1722,-0.02361,-0.046996,-0.033679,-0.11553,-0.17172,-1.315,-0.19348
1723,-0.030431,-0.059664,-0.034654,-0.093769,-0.18017,-1.1267,-0.2016
1724,-0.027183,-0.071682,-0.041799,-0.07428,-0.16718,-0.83206,-0.19283
1725,-0.013216,-0.078503,-0.054142,-0.05739,-0.13827,-0.48224,-0.16653
1726,0.0088706,-0.077528,-0.067784,-0.040825,-0.10351,-0.13924,-0.13145
1727,0.032582,-0.066485,-0.077203,-0.017114,-0.064861,0.14561,-0.094093
1728,0.054344,-0.04927,-0.079152,0.01894,-0.02361,0.35479,-0.05739
1729,0.075781,-0.028482,-0.071032,0.057917,0.0095202,0.48959,-0.024909
1730,0.098193,-0.011267,-0.059014,0.080328,0.025436,0.55325,-0.0028225
1731,0.12125,-0.00022403,-0.04862,0.073832,0.01764,0.54188,0.0075714
1732,0.14399,0.0062721,-0.045372,0.041027,-0.011592,0.45678,0.014068
1733,0.16153,0.0026992,-0.053817,0.00075039,-0.052843,0.32881,0.027709
1734,0.1677,-0.008669,-0.069083,-0.025884,-0.094093,0.20635,0.054019
1735,0.15926,-0.021661,-0.085973,-0.030431,-0.12268,0.13197,0.079679
1736,0.14042,-0.034654,-0.095393,-0.011592,-0.13599,0.11541,0.090397
1737,0.11638,-0.045372,-0.09117,0.029658,-0.13827,0.12743,0.082277
1738,0.094945,-0.048296,-0.072981,0.093645,-0.13307,0.11995,0.06084
1739,0.076755,-0.039201,-0.049595,0.17062,-0.12527,0.057917,0.039402
1740,0.065062,-0.020362,-0.025234,0.24988,-0.11618,-0.060638,0.019264
1741,0.061814,0.0052977,-0.0044465,0.31646,-0.10611,-0.2159,0.0026992
1742,0.069934,0.033556,0.011794,0.35934,-0.085324,-0.37603,-0.0096434
1743,0.083576,0.057267,0.023487,0.3746,-0.047971,-0.51017,-0.022311
1744,0.094945,0.073507,0.033556,0.36616,0.0039985,-0.60242,-0.038227
1745,0.093645,0.083251,0.044599,0.3392,0.06019,-0.65146,-0.061288
1746,0.07708,0.090072,0.061165,0.30672,0.11411,-0.67128,-0.085973
1747,0.055968,0.099817,0.082602,0.28041,0.1625,-0.67972,-0.10838
1748,0.040377,0.1206,0.10209,0.26027,0.20213,-0.68979,-0.12333
1749,0.034855,0.14594,0.11151,0.23883,0.23136,-0.71123,-0.13437
1750,0.037778,0.16121,0.11086,0.20181,0.24436,-0.758,-0.14119
1751,0.04395,0.15861,0.10339,0.14042,0.23331,-0.85057,-0.14639
1752,0.050121,0.14204,0.092671,0.056617,0.20083,-1.0062,-0.14899
1753,0.057267,0.11931,0.080653,-0.034004,0.15926,-1.2137,-0.14931
1754,0.065712,0.097218,0.06961,-0.11131,0.12028,-1.4209,-0.14769
1755,0.073507,0.081627,0.057917,-0.15613,0.092346,-1.5564,-0.14346
1756,0.077405,0.071234,0.046873,-0.16263,0.074806,-1.5583,-0.13112
1757,0.07708,0.06831,0.033881,-0.14509,0.065712,-1.4024,-0.10319
1758,0.07708,0.076431,0.017965,-0.13697,0.064737,-1.0867,-0.052518
1759,0.080003,0.087799,0.0014,-0.16295,0.070584,-0.63717,0.010495
1760,0.0852,0.095594,-0.0099683,-0.22726,0.083251,-0.11196,0.071234
1761,0.090722,0.095594,-0.017114,-0.31529,0.10112,0.41228,0.11866
1762,0.096569,0.087474,-0.026533,-0.40753,0.11898,0.85857,0.14821
1763,0.10209,0.080328,-0.039201,-0.48906,0.12937,1.1662,0.15861
1764,0.10696,0.081303,-0.052518,-0.5459,0.1271,1.2997,0.15893
1765,0.10501,0.087474,-0.064861,-0.56799,0.11703,1.262,0.15828
1766,0.096244,0.087799,-0.075255,-0.5485,0.10924,1.1191,0.16088
1767,0.080003,0.076106,-0.084674,-0.48873,0.10859,0.98005,0.16965
1768,0.058891,0.049796,-0.089221,-0.38934,0.11541,0.93652,0.18557
1769,0.037454,0.012768,-0.09117,-0.25325,0.12678,1.0031,0.20635
1770,0.01764,-0.028482,-0.089546,-0.088247,0.14464,1.1272,0.22747
1771,-0.0034721,-0.070058,-0.089221,0.11541,0.16283,1.2516,0.24241
1772,-0.023285,-0.10903,-0.086623,0.38727,0.17842,1.3604,0.24566
1773,-0.041475,-0.13794,-0.071682,0.73936,0.19369,1.4611,0.23559
1774,-0.055766,-0.15548,-0.043099,1.1148,0.21707,1.5556,0.2161
1775,-0.068434,-0.1597,-0.0060706,1.3961,0.25183,1.6274,0.19336
1776,-0.078827,-0.14801,0.029333,1.477,0.29568,1.6511,0.16868
1777,-0.084024,-0.12722,0.054019,1.3377,0.3418,1.5998,0.14919
1778,-0.085973,-0.10416,0.063113,1.0476,0.38045,1.4643,0.13782
1779,-0.085973,-0.088896,0.06084,0.71338,0.40449,1.2652,0.13295
1780,-0.088572,-0.081101,0.05272,0.42625,0.41585,1.0518,0.13457
1781,-0.097991,-0.075255,0.045249,0.22812,0.42625,0.89852,0.14399
1782,-0.10806,-0.064211,0.04395,0.12158,0.44898,0.85662,0.15991
1783,-0.10806,-0.043099,0.049147,0.080978,0.48601,0.92385,0.17712
1784,-0.095068,-0.012892,0.061814,0.066686,0.52856,1.0453,0.18946
1785,-0.072331,0.019264,0.080328,0.05272,0.55227,1.1467,0.19596
1786,-0.045372,0.047523,0.097868,0.032906,0.53538,1.1652,0.19336
1787,-0.025559,0.064737,0.10501,0.015042,0.4675,1.0668,0.17745
1788,-0.024585,0.072208,0.10112,0.0049729,0.36031,0.86117,0.14172
1789,-0.045047,0.073832,0.091696,0.0062721,0.23266,0.59385,0.089423
1790,-0.075904,0.069934,0.079679,0.01764,0.10534,0.32361,0.030633
1791,-0.10091,0.059216,0.070584,0.03453,-0.0073698,0.093645,-0.019712
1792,-0.10838,0.044275,0.063763,0.06084,-0.095393,-0.072006,-0.052193
1793,-0.096692,0.032582,0.06084,0.11118,-0.15776,-0.16555,-0.062262
1794,-0.069083,0.029983,0.062139,0.19336,-0.19154,-0.20355,-0.055766
1795,-0.040825,0.037778,0.063438,0.28171,-0.21037,-0.22239,-0.047971
1796,-0.024909,0.050446,0.062139,0.33011,-0.22207,-0.25877,-0.053817
1797,-0.026858,0.057592,0.05142,0.31062,-0.23084,-0.33348,-0.07493
1798,-0.037577,0.054019,0.029333,0.22324,-0.22954,-0.44683,-0.10579
1799,-0.046996,0.038428,0.0020496,0.096893,-0.22402,-0.58195,-0.13534
1800,-0.04992,0.019914,-0.02426,-0.030431,-0.21947,-0.72097,-0.15548
1801,-0.043423,0.0039985,-0.044398,-0.12268,-0.21752,-0.85512,-0.16393
1802,-0.03173,-0.0076946,-0.054467,-0.16295,-0.21785,-0.97919,-0.16685
