,channel_1,channel_2,channel_3,channel_4,channel_5,channel_6,channel_7
0,-0.012892,-0.056416,-0.00022403,0.11801,-0.10026,0.03453,-0.095393
1,-0.031081,-0.073955,-0.038227,0.11378,-0.10936,0.09462,-0.10221
2,-0.039851,-0.093444,-0.10644,0.098517,-0.092794,0.26839,-0.089871
3,-0.044398,-0.1191,-0.19316,0.074482,-0.089871,0.50615,-0.071357
4,-0.048296,-0.15126,-0.27566,0.051096,-0.12073,0.76567,-0.055766
5,-0.050569,-0.18471,-0.32828,0.037778,-0.18017,1.0119,-0.04115
6,-0.054142,-0.20972,-0.33283,0.035505,-0.24903,1.223,-0.019063
7,-0.053492,-0.22174,-0.29158,0.038753,-0.31236,1.3854,0.020564
8,-0.044073,-0.21492,-0.22272,0.041676,-0.36628,1.453,0.086175
9,-0.026533,-0.19024,-0.14996,0.039078,-0.40916,1.3796,0.1703
10,-0.0050961,-0.15678,-0.092145,0.036804,-0.43547,1.186,0.25605
11,0.014392,-0.11748,-0.050569,0.03518,-0.43287,0.95374,0.32296
12,0.025111,-0.076879,-0.018413,0.029983,-0.38415,0.77119,0.35382
13,0.024461,-0.038551,0.013093,0.020564,-0.26624,0.70396,0.34505
14,0.017965,-0.0083442,0.05272,0.0078962,-0.064861,0.78419,0.30802
15,0.010495,0.010819,0.10047,-0.010618,0.19369,0.99986,0.26839
16,0.0020496,0.024137,0.15276,-0.039201,0.44444,1.2743,0.24176
17,-0.0015233,0.035505,0.20278,-0.084024,0.61431,1.4929,0.22487
18,0.0026992,0.044275,0.24338,-0.14736,0.66596,1.5605,0.21123
19,0.014717,0.051745,0.27326,-0.22174,0.61724,1.4332,0.19044
20,0.026735,0.062464,0.29697,-0.29905,0.51135,1.1191,0.16153
21,0.040052,0.079029,0.3314,-0.36596,0.38922,0.68447,0.1258
22,0.055968,0.10631,0.38857,-0.40136,0.28528,0.23494,0.089098
23,0.07773,0.14074,0.46068,-0.39129,0.22714,-0.11878,0.058241
24,0.10209,0.1729,0.52012,-0.33802,0.23331,-0.2932,0.042326
25,0.1284,0.19531,0.53279,-0.24643,0.30412,-0.25065,0.048497
26,0.15244,0.20311,0.48341,-0.11715,0.41033,-0.018088,0.071558
27,0.16673,0.19239,0.3876,0.045249,0.5107,0.29697,0.10242
28,0.1651,0.16673,0.28236,0.22129,0.57631,0.5513,0.13132
29,0.14919,0.13457,0.19726,0.37655,0.59872,0.63477,0.14399
30,0.12385,0.10112,0.14821,0.47789,0.58833,0.49803,0.1323
31,0.096244,0.071234,0.1336,0.51265,0.55617,0.15211,0.092346
32,0.070259,0.048497,0.14074,0.48764,0.50388,-0.36076,0.02641
33,0.042001,0.033231,0.15698,0.41878,0.41618,-0.97367,-0.060638
34,0.009845,0.021863,0.17127,0.32751,0.28431,-1.5902,-0.15483
35,-0.021337,0.016666,0.18004,0.23266,0.12807,-2.0826,-0.23506
36,-0.045372,0.017965,0.18459,0.14951,-0.010943,-2.3051,-0.28411
37,-0.058365,0.029983,0.18751,0.092021,-0.097666,-2.1407,-0.29417
38,-0.059664,0.05142,0.18784,0.06961,-0.11813,-1.6122,-0.26559
39,-0.053168,0.072858,0.18264,0.071883,-0.092794,-0.9334,-0.21297
40,-0.045697,0.08585,0.16705,0.083251,-0.069083,-0.39097,-0.16295
41,-0.040825,0.091372,0.14074,0.0852,-0.085324,-0.16328,-0.13469
42,-0.036278,0.094295,0.10047,0.067336,-0.15938,-0.23149,-0.13534
43,-0.03173,0.10339,0.05207,0.026085,-0.27696,-0.42832,-0.15029
44,-0.025559,0.12125,0.0020496,-0.025559,-0.40266,-0.57091,-0.15613
45,-0.018738,0.14529,-0.042774,-0.077528,-0.49783,-0.54525,-0.13827
46,-0.011592,0.16608,-0.079802,-0.11748,-0.54038,-0.33965,-0.098965
47,-0.0060706,0.1729,-0.10903,-0.14249,-0.53128,-0.042124,-0.046996
48,-0.0021729,0.1638,-0.13469,-0.15646,-0.48906,0.22584,0.0049729
49,0.0023744,0.14724,-0.15905,-0.16393,-0.43709,0.41098,0.052395
50,0.010495,0.13327,-0.18114,-0.1688,-0.38545,0.56494,0.096569
51,0.021213,0.13035,-0.19446,-0.1662,-0.32373,0.83453,0.14789
52,0.03518,0.14009,-0.19121,-0.14736,-0.23214,1.3825,0.21805
53,0.054668,0.15341,-0.1688,-0.10319,-0.096042,2.2747,0.31711
54,0.080328,0.15991,-0.12885,-0.036278,0.082927,3.395,0.44541
55,0.10631,0.15211,-0.0824,0.038428,0.29113,4.462,0.59158
56,0.13035,0.13067,-0.03173,0.10891,0.49965,4.9589,0.73741
57,0.15666,0.10631,0.024786,0.16933,0.67538,4.9589,0.85857
58,0.18751,0.0865,0.089098,0.21382,0.79426,4.8641,0.93295
59,0.22292,0.067011,0.15081,0.23656,0.85077,3.9887,0.94562
60,0.2541,0.041027,0.19141,0.23851,0.83388,2.9058,0.89722
61,0.27229,0.0017248,0.19499,0.2187,0.73027,1.8197,0.79945
62,0.27067,-0.049595,0.15731,0.17517,0.53798,0.86117,0.67343
63,0.24273,-0.10676,0.090072,0.11671,0.28626,0.10112,0.53961
64,0.19401,-0.1597,0.014068,0.057917,0.021538,-0.44164,0.41261
65,0.13977,-0.2016,-0.048296,0.015692,-0.20096,-0.78983,0.3012
66,0.090072,-0.22889,-0.084349,-0.0060706,-0.34549,-1.0279,0.2096
67,0.051745,-0.24318,-0.089871,-0.0060706,-0.41013,-1.2498,0.13684
68,0.02706,-0.25195,-0.075579,0.012443,-0.42247,-1.4976,0.078704
69,0.012443,-0.25975,-0.062262,0.045249,-0.4189,-1.7526,0.034855
70,0.0065969,-0.26819,-0.06681,0.080653,-0.42994,-1.9731,0.0046481
71,0.0075714,-0.27858,-0.096692,0.10891,-0.466,-2.1063,-0.01484
72,0.0088706,-0.29093,-0.14899,0.12645,-0.51374,-2.1147,-0.025884
73,0.0036737,-0.30457,-0.21265,0.13944,-0.54038,-2.0043,-0.035303
74,-0.011917,-0.31561,-0.27436,0.15373,-0.52284,-1.8312,-0.050569
75,-0.033679,-0.31691,-0.32211,0.17257,-0.45755,-1.6558,-0.070707
76,-0.056741,-0.30587,-0.3416,0.19661,-0.35491,-1.5008,-0.094418
77,-0.077203,-0.27891,-0.32925,0.22129,-0.22856,-1.3595,-0.11878
78,-0.09182,-0.23733,-0.2932,0.2463,-0.098965,-1.2238,-0.14281
79,-0.10189,-0.18959,-0.24091,0.26612,0.0056225,-1.0945,-0.1636
80,-0.11228,-0.14119,-0.18569,0.27261,0.057917,-0.98082,-0.17919
81,-0.12657,-0.097017,-0.13469,0.25637,0.044599,-0.8785,-0.19381
82,-0.14054,-0.059989,-0.093444,0.21317,-0.026533,-0.76839,-0.21005
83,-0.14736,-0.027833,-0.063237,0.14886,-0.12592,-0.62191,-0.22597
84,-0.14119,0.0026992,-0.038227,0.079029,-0.20972,-0.4163,-0.23214
85,-0.1204,0.033556,-0.013866,0.025436,-0.24188,-0.13924,-0.22434
86,-0.093119,0.063113,0.013418,-0.0024977,-0.2042,0.17062,-0.2042
87,-0.064211,0.091047,0.038428,-0.0083442,-0.11586,0.4308,-0.17919
88,-0.036278,0.11508,0.06084,-0.0044465,-0.0044465,0.5565,-0.15418
89,-0.010618,0.13262,0.076755,-0.0018481,0.10664,0.5068,-0.13697
90,0.0036737,0.14042,0.087149,-0.010293,0.19791,0.30639,-0.12885
91,0.0072465,0.14042,0.094945,-0.027833,0.2593,0.026735,-0.1295
92,-0.0011985,0.13717,0.10306,-0.050244,0.27424,-0.24545,-0.13242
93,-0.015165,0.13425,0.11443,-0.072006,0.21577,-0.44521,-0.13177
94,-0.029457,0.13262,0.12125,-0.089221,0.076106,-0.55142,-0.1243
95,-0.039526,0.12937,0.11736,-0.11228,-0.10611,-0.56994,-0.11196
96,-0.043099,0.12548,0.098842,-0.15808,-0.26981,-0.53031,-0.10189
97,-0.044398,0.12028,0.070584,-0.23928,-0.37505,-0.46113,-0.097991
98,-0.043099,0.11963,0.037454,-0.35004,-0.41598,-0.37635,-0.10806
99,-0.038876,0.12645,0.0020496,-0.47184,-0.41111,-0.27209,-0.1308
100,-0.035303,0.14009,-0.036602,-0.58293,-0.39064,-0.14184,-0.15711
101,-0.034654,0.15698,-0.085648,-0.66965,-0.3731,0.0039985,-0.174
102,-0.038227,0.1703,-0.14834,-0.72682,-0.36726,0.12548,-0.17594
103,-0.043748,0.1729,-0.21362,-0.75508,-0.37408,0.15601,-0.1727
104,-0.049595,0.1638,-0.26039,-0.75605,-0.39129,0.054668,-0.174
105,-0.058365,0.14204,-0.27501,-0.73299,-0.42507,-0.16198,-0.19024
106,-0.068758,0.11476,-0.2565,-0.68849,-0.48419,-0.43709,-0.22012
107,-0.076554,0.089748,-0.20875,-0.62061,-0.56994,-0.69888,-0.2591
108,-0.080451,0.073832,-0.14379,-0.53486,-0.66478,-0.89767,-0.29645
109,-0.081101,0.071883,-0.071682,-0.44424,-0.73364,-1.0217,-0.3286
110,-0.079152,0.078704,-0.0076946,-0.36206,-0.74468,-1.0857,-0.34907
111,-0.075904,0.087149,0.042001,-0.30262,-0.67972,-1.1159,-0.35589
112,-0.073631,0.092021,0.076755,-0.26592,-0.5485,-1.1354,-0.35134
113,-0.072331,0.092671,0.10534,-0.23668,-0.3718,-1.1471,-0.33575
114,-0.071682,0.092346,0.13944,-0.18699,-0.17335,-1.1562,-0.30327
115,-0.069083,0.091047,0.19141,-0.080127,0.029009,-1.1754,-0.25617
116,-0.065186,0.09397,0.27261,0.11443,0.23266,-1.1598,-0.20583
117,-0.060313,0.11021,0.38597,0.40286,0.45321,-0.98926,-0.15873
118,-0.051868,0.14561,0.52499,0.74456,0.70851,-0.55727,-0.12138
119,-0.038876,0.19596,0.6731,1.0616,0.99109,0.12418,-0.095393
120,-0.025559,0.2515,0.79945,1.2733,1.2389,0.90307,-0.082725
121,-0.015815,0.30769,0.87351,1.3386,1.3682,1.5787,-0.078503
122,-0.012892,0.36876,0.87871,1.272,1.3305,2.0064,-0.081751
123,-0.018413,0.42852,0.82056,1.1236,1.1369,2.149,-0.084999
124,-0.031081,0.4714,0.71857,0.94042,0.86182,2.074,-0.082076
125,-0.0405,0.47919,0.59645,0.75398,0.60327,1.883,-0.072006
126,-0.034004,0.44931,0.47822,0.57826,0.42885,1.6443,-0.056741
127,-0.012242,0.39312,0.37948,0.41618,0.347,1.3763,-0.0405
128,0.01829,0.32621,0.30574,0.27034,0.31841,1.0863,-0.024585
129,0.048822,0.26222,0.25183,0.14789,0.29633,0.79101,-0.010618
130,0.070909,0.21252,0.20278,0.058566,0.23689,0.50225,-0.0015233
131,0.080978,0.17615,0.14756,-0.0018481,0.1245,0.23266,-0.0024977
132,0.076431,0.14951,0.07708,-0.045372,-0.032055,0.0039985,-0.015815
133,0.057592,0.1258,-0.0067202,-0.085324,-0.19933,-0.1636,-0.038227
134,0.032582,0.094295,-0.089871,-0.12398,-0.3416,-0.27209,-0.056741
135,0.0091954,0.0433,-0.16068,-0.15418,-0.44034,-0.34549,-0.062262
136,-0.013216,-0.030756,-0.21037,-0.1701,-0.49653,-0.41273,-0.058689
137,-0.03303,-0.1204,-0.23928,-0.17302,-0.52186,-0.47867,-0.054792
138,-0.046996,-0.21102,-0.25422,-0.16718,-0.51829,-0.53096,-0.056416
139,-0.046671,-0.28865,-0.26754,-0.15613,-0.47542,-0.55305,-0.06551
140,-0.034654,-0.34355,-0.28995,-0.14736,-0.37213,-0.53843,-0.081426
141,-0.016464,-0.37213,-0.33283,-0.14314,-0.20225,-0.49263,-0.095393
142,0.0033489,-0.38447,-0.39811,-0.14281,0.016666,-0.4228,-0.097666
143,0.023162,-0.39487,-0.47672,-0.14216,0.23948,-0.34777,-0.080776
144,0.041676,-0.4189,-0.5524,-0.13697,0.42105,-0.28573,-0.047971
145,0.056942,-0.4621,-0.61119,-0.12398,0.53831,-0.24513,-0.0063954
146,0.067011,-0.52609,-0.64594,-0.10838,0.58833,-0.21622,0.038103
147,0.073507,-0.60891,-0.65374,-0.096042,0.60164,-0.19089,0.082602
148,0.074806,-0.70603,-0.63652,-0.086298,0.60944,-0.16133,0.1245
149,0.070909,-0.80282,-0.60209,-0.078178,0.61788,-0.12073,0.1638
150,0.067011,-0.87558,-0.56149,-0.071682,0.5984,-0.073306,0.19661
151,0.060515,-0.90156,-0.52576,-0.070058,0.51395,-0.03173,0.21902
152,0.051745,-0.87655,-0.49783,-0.071682,0.35349,0.0014,0.22974
153,0.041027,-0.81029,-0.47249,-0.07493,0.14951,0.031282,0.22357
154,0.028359,-0.71383,-0.44683,-0.075904,-0.021986,0.065062,0.20083
155,0.017316,-0.59852,-0.41533,-0.073955,-0.096367,0.10501,0.17062
156,0.0059473,-0.46535,-0.3757,-0.075255,-0.057715,0.14789,0.14496
157,-0.00054884,-0.31821,-0.33088,-0.084349,0.059865,0.18687,0.13067
158,0.00075039,-0.16653,-0.28735,-0.10221,0.19499,0.21447,0.12645
159,0.015042,-0.02426,-0.25715,-0.123,0.28918,0.23396,0.13002
160,0.038103,0.093645,-0.2474,-0.13762,0.31192,0.25962,0.13522
161,0.057917,0.17842,-0.24805,-0.14346,0.25215,0.31516,0.14009
162,0.066037,0.22909,-0.24156,-0.13892,0.088124,0.40903,0.14009
163,0.058891,0.26222,-0.22077,-0.1269,-0.19836,0.52986,0.13392
164,0.045899,0.28626,-0.18731,-0.11098,-0.54233,0.65166,0.12613
165,0.036804,0.30737,-0.14541,-0.090845,-0.80315,0.73352,0.1206
166,0.033881,0.32426,-0.10351,-0.068758,-0.86843,0.73969,0.11898
167,0.032906,0.32913,-0.063886,-0.045372,-0.7148,0.66141,0.11606
168,0.029658,0.32134,-0.022636,-0.017114,-0.40461,0.51752,0.10664
169,0.023487,0.3038,0.021213,0.012119,-0.038227,0.34505,0.094945
170,0.016991,0.28301,0.067011,0.035505,0.27879,0.17192,0.086175
171,0.0095202,0.26319,0.11313,0.051096,0.4662,0.016666,0.082927
172,0.0026992,0.24663,0.16056,0.063438,0.46393,-0.11033,0.082927
173,-0.0054209,0.23234,0.20928,0.073832,0.23169,-0.22954,0.082602
174,-0.013216,0.22065,0.25183,0.076755,-0.20583,-0.39129,0.079029
175,-0.021012,0.21512,0.27749,0.070584,-0.72682,-0.62353,0.072208
176,-0.026533,0.21545,0.27554,0.053369,-1.1565,-0.90092,0.066362
177,-0.021012,0.21707,0.24241,0.02706,-1.3605,-1.1751,0.061489
178,-0.0024977,0.2174,0.18914,-0.0031473,-1.3059,-1.3936,0.058566
179,0.017316,0.22,0.13717,-0.027833,-1.0594,-1.5174,0.06019
180,0.028359,0.23071,0.10729,-0.042124,-0.73754,-1.5297,0.067336
181,0.029333,0.2528,0.10956,-0.050894,-0.44781,-1.4398,0.073832
182,0.024461,0.27976,0.13814,-0.058365,-0.24903,-1.2787,0.07708
183,0.015042,0.30055,0.18004,-0.064536,-0.15158,-1.0822,0.078055
184,0.0049729,0.30022,0.22162,-0.070707,-0.13794,-0.90092,0.070909
185,-0.007045,0.27489,0.25605,-0.078503,-0.17367,-0.77944,0.049796
186,-0.023285,0.23331,0.28398,-0.087272,-0.22142,-0.75475,0.014717
187,-0.045372,0.19076,0.30867,-0.092794,-0.25682,-0.8457,-0.027833
188,-0.063561,0.15276,0.33075,-0.086623,-0.26689,-1.0383,-0.070707
189,-0.073631,0.12483,0.35349,-0.062587,-0.25162,-1.2868,-0.10611
190,-0.073306,0.10761,0.37883,-0.023285,-0.21655,-1.5349,-0.12982
191,-0.06616,0.097868,0.40546,0.019914,-0.17594,-1.7363,-0.14379
192,-0.05804,0.096569,0.43274,0.056617,-0.14152,-1.8734,-0.15483
193,-0.051219,0.10177,0.4584,0.082277,-0.12105,-1.9624,-0.16847
194,-0.045372,0.11118,0.47562,0.099817,-0.11326,-2.0244,-0.18634
195,-0.036602,0.12743,0.47399,0.11151,-0.11261,-2.0452,-0.20323
196,-0.025559,0.15146,0.44769,0.1206,-0.10611,-1.9825,-0.21135
197,-0.014191,0.18362,0.39929,0.13002,-0.0824,-1.788,-0.20875
198,0.0010752,0.2187,0.34537,0.13944,-0.031406,-1.4252,-0.19511
199,0.023487,0.24988,0.28853,0.15146,0.049796,-0.86454,-0.1688
200,0.053369,0.26255,0.22487,0.16348,0.16575,-0.072981,-0.12917
201,0.082927,0.24955,0.14626,0.1716,0.31419,0.93879,-0.077853
202,0.10794,0.20993,0.055968,0.1742,0.48536,2.098,-0.017114
203,0.12872,0.14724,-0.03303,0.1768,0.66985,3.3187,0.054344
204,0.14854,0.071558,-0.10189,0.18557,0.85662,4.524,0.14042
205,0.17127,0.003024,-0.13957,0.20376,1.0271,4.9589,0.24468
206,0.19791,-0.043423,-0.14606,0.22812,1.1434,4.9593,0.35901
207,0.22097,-0.069733,-0.13372,0.25248,1.161,4.9589,0.46587
208,0.23559,-0.086948,-0.1204,0.26742,1.0486,4.9593,0.54643
209,0.23754,-0.10838,-0.11943,0.26514,0.81407,4.9589,0.59028
210,0.22487,-0.14152,-0.13567,0.24371,0.51265,4.9593,0.60002
211,0.19563,-0.18277,-0.16035,0.20473,0.23234,3.8332,0.58021
212,0.15633,-0.22044,-0.17887,0.15276,0.049147,2.5528,0.53636
213,0.11508,-0.24383,-0.17627,0.096569,-0.0096434,1.3334,0.4714
214,0.077405,-0.24708,-0.15223,0.04395,0.039078,0.29308,0.39572
215,0.0433,-0.22954,-0.11001,0.0046481,0.14204,-0.48289,0.31581
216,0.016341,-0.19836,-0.059989,-0.013541,0.23721,-0.98114,0.23071
217,0.0046481,-0.16263,-0.014516,-0.0057458,0.27879,-1.2433,0.14432
218,0.0072465,-0.13047,0.014068,0.020239,0.25962,-1.3254,0.06831
219,0.015367,-0.10546,0.024461,0.054344,0.20408,-1.2946,0.0075714
220,0.020239,-0.089546,0.022188,0.085525,0.13197,-1.2088,-0.035303
221,0.016666,-0.078827,0.017316,0.10306,0.031282,-1.1013,-0.065186
222,0.0088706,-0.070382,0.011144,0.098193,-0.12073,-0.98991,-0.088896
223,-0.0011985,-0.060638,0.0020496,0.071234,-0.31334,-0.90059,-0.11001
224,-0.012892,-0.048945,-0.013541,0.028684,-0.49685,-0.85999,-0.1282
225,-0.024585,-0.035953,-0.034978,-0.025559,-0.61898,-0.87623,-0.14509
226,-0.037902,-0.023285,-0.057065,-0.082076,-0.65601,-0.93112,-0.16295
227,-0.052518,-0.014516,-0.077853,-0.13664,-0.61801,-0.99478,-0.18504
228,-0.067134,-0.0093186,-0.09929,-0.18342,-0.54038,-1.0425,-0.21037
229,-0.079477,-0.0050961,-0.1243,-0.21979,-0.45398,-1.0601,-0.24026
230,-0.085648,0.00010078,-0.15223,-0.24091,-0.38447,-1.0295,-0.26851
231,-0.086948,0.0078962,-0.18212,-0.24675,-0.33348,-0.92917,-0.28021
232,-0.082076,0.016666,-0.20972,-0.23831,-0.28313,-0.75475,-0.26949
233,-0.06616,0.028359,-0.23863,-0.22434,-0.21232,-0.53973,-0.23214
234,-0.035953,0.042001,-0.27761,-0.21492,-0.10936,-0.32536,-0.1662
235,0.0039985,0.057592,-0.32795,-0.20875,0.014717,-0.12495,-0.081426
236,0.040702,0.070259,-0.3757,-0.19868,0.13684,0.076755,0.0059473
237,0.067661,0.075131,-0.40493,-0.18374,0.23364,0.29762,0.079679
238,0.082602,0.073832,-0.41176,-0.16458,0.296,0.52694,0.13197
239,0.091696,0.068635,-0.39454,-0.14346,0.3392,0.69616,0.16445
240,0.095919,0.066037,-0.35914,-0.11943,0.39637,0.71922,0.17972
241,0.098193,0.061165,-0.31659,-0.093444,0.50225,0.55455,0.18199
242,0.095919,0.049796,-0.27176,-0.070382,0.66953,0.24468,0.1755
243,0.088448,0.033231,-0.22824,-0.04862,0.87221,-0.098316,0.1651
244,0.076431,0.01894,-0.18049,-0.027508,1.0642,-0.35134,0.16056
245,0.061165,0.012443,-0.11975,-0.010293,1.1957,-0.44846,0.16738
246,0.0433,0.016341,-0.050894,-0.00022403,1.2318,-0.39844,0.17874
247,0.029658,0.024137,0.016991,0.0065969,1.1645,-0.2539,0.18816
248,0.021863,0.029009,0.081303,0.014717,1.0112,-0.064536,0.19336
249,0.016016,0.030633,0.14042,0.028684,0.78906,0.13035,0.19076
250,0.0026992,0.027385,0.19206,0.051096,0.47692,0.28236,0.17192
251,-0.02426,0.013418,0.23136,0.076431,0.033231,0.32198,0.13847
252,-0.059339,-0.011267,0.2489,0.10079,-0.5118,0.21155,0.097543
253,-0.090196,-0.041799,0.24793,0.12223,-1.0276,-0.021337,0.063113
254,-0.10481,-0.068758,0.23883,0.14399,-1.355,-0.29937,0.050121
255,-0.10189,-0.081426,0.23689,0.16445,-1.3975,-0.53648,0.064088
256,-0.0837,-0.076879,0.2528,0.18199,-1.1764,-0.6768,0.10274
257,-0.05739,-0.055766,0.29113,0.19986,-0.80477,-0.71707,0.15016
258,-0.03173,-0.023935,0.35219,0.22812,-0.4189,-0.69531,0.18264
259,-0.013866,0.011469,0.42787,0.27424,-0.12365,-0.65666,0.18784
260,-0.00054884,0.039402,0.5029,0.32134,0.044275,-0.62483,0.16608
261,0.0095202,0.055643,0.55585,0.33887,0.10534,-0.60404,0.12418
262,0.019914,0.06084,0.57046,0.30704,0.11216,-0.60014,0.074157
263,0.029333,0.058891,0.54253,0.22909,0.11541,-0.62678,0.027709
264,0.032906,0.06084,0.47562,0.12645,0.13457,-0.68199,-0.013866
265,0.033881,0.072533,0.38142,0.027385,0.16121,-0.72974,-0.052843
266,0.035505,0.093645,0.28301,-0.038876,0.17939,-0.71545,-0.089221
267,0.034855,0.11833,0.2096,-0.053817,0.17907,-0.60274,-0.11943
268,0.028359,0.13327,0.17387,-0.023935,0.15991,-0.38155,-0.13502
269,0.011469,0.1284,0.1729,0.024137,0.13197,-0.04992,-0.13892
270,-0.01484,0.10014,0.19499,0.066686,0.10014,0.36518,-0.14152
271,-0.047971,0.05272,0.21967,0.089423,0.050446,0.78743,-0.14769
272,-0.0824,0.00010078,0.23591,0.092996,-0.040825,1.1152,-0.161
273,-0.10968,-0.046347,0.23916,0.087149,-0.17205,1.2717,-0.18114
274,-0.12755,-0.072331,0.23331,0.084876,-0.30262,1.236,-0.21135
275,-0.1334,-0.072981,0.22422,0.09397,-0.38382,1.0444,-0.24968
276,-0.1295,-0.052193,0.21317,0.11086,-0.38447,0.76015,-0.28833
277,-0.12008,-0.02426,0.19011,0.12678,-0.31236,0.43209,-0.31854
278,-0.11001,-0.0041217,0.14367,0.13814,-0.19901,0.080003,-0.33315
279,-0.10026,-0.0018481,0.075781,0.14464,-0.069408,-0.28443,-0.33283
280,-0.088572,-0.015165,0.0052977,0.14724,0.057917,-0.61996,-0.32048
281,-0.076879,-0.031081,-0.046671,0.14724,0.16835,-0.85642,-0.29872
282,-0.066485,-0.037902,-0.072006,0.15244,0.23591,-0.94249,-0.27079
283,-0.059339,-0.032705,-0.073306,0.15731,0.23818,-0.89734,-0.23409
284,-0.055116,-0.020037,-0.060313,0.15796,0.15893,-0.78301,-0.18569
285,-0.050894,-0.0073698,-0.043423,0.15081,0.0014,-0.65958,-0.1282
286,-0.043423,0.0014,-0.027833,0.13392,-0.21622,-0.57708,-0.063237
287,-0.030431,0.0091954,-0.01549,0.10436,-0.46015,-0.58098,-0.0034721
288,-0.012242,0.016016,-0.0050961,0.063438,-0.67647,-0.68849,0.023487
289,0.0069217,0.023812,0.0043233,0.016991,-0.81387,-0.87623,0.00010078
290,0.019589,0.029333,0.0056225,-0.020362,-0.8418,-1.0789,-0.069083
291,0.02706,0.031607,-0.00054884,-0.039201,-0.7619,-1.201,-0.15905
292,0.036479,0.033231,-0.0015233,-0.032705,-0.60534,-1.1893,-0.23571
293,0.05272,0.039402,0.016016,-0.0060706,-0.41565,-1.0874,-0.27923
294,0.069934,0.053694,0.061814,0.030308,-0.23863,-0.99186,-0.29353
295,0.079029,0.072533,0.13262,0.063113,-0.11163,-0.95743,-0.2893
296,0.076431,0.087149,0.2096,0.0852,-0.055766,-0.9675,-0.27339
297,0.070909,0.094945,0.26514,0.093321,-0.055766,-0.97042,-0.2474
298,0.071883,0.10112,0.27944,0.096244,-0.075255,-0.91716,-0.20972
299,0.083901,0.10826,0.24988,0.10306,-0.083375,-0.80055,-0.15905
300,0.10144,0.11476,0.19141,0.11866,-0.06616,-0.6651,-0.097666
301,0.11833,0.11768,0.1219,0.13295,-0.027833,-0.55532,-0.034978
302,0.12775,0.11313,0.056292,0.1323,0.012119,-0.44748,0.011469
303,0.12483,0.098193,0.0010752,0.10242,0.044275,-0.27436,0.03583
304,0.11054,0.076755,-0.044723,0.046223,0.071234,-0.00054884,0.0433
305,0.090072,0.055318,-0.084674,-0.022311,0.10826,0.35089,0.05272
306,0.06831,0.042001,-0.11683,-0.084674,0.16478,0.73222,0.07708
307,0.049796,0.040052,-0.13892,-0.13177,0.24176,1.1275,0.11866
308,0.036479,0.047198,-0.14834,-0.15841,0.32978,1.5049,0.1716
309,0.030957,0.056942,-0.14606,-0.16653,0.4178,1.7973,0.22714
310,0.03518,0.060515,-0.13957,-0.15776,0.49121,1.9285,0.27846
311,0.0433,0.055643,-0.13729,-0.13599,0.52824,1.8574,0.32458
312,0.049147,0.044599,-0.14541,-0.10968,0.51492,1.5819,0.35999
313,0.050446,0.034206,-0.16653,-0.090521,0.45873,1.148,0.37493
314,0.042001,0.024461,-0.19251,-0.088247,0.38013,0.65491,0.35966
315,0.022837,0.017965,-0.2146,-0.10416,0.2895,0.21252,0.31549
316,0.003024,0.016666,-0.22791,-0.1321,0.18524,-0.087922,0.25735
317,-0.011917,0.015367,-0.23506,-0.16328,0.067336,-0.18374,0.19531
318,-0.021986,0.0085458,-0.2435,-0.18959,-0.037902,-0.051219,0.13814
319,-0.027833,-0.0054209,-0.25812,-0.20615,-0.090521,0.26807,0.089748
320,-0.034978,-0.025234,-0.27793,-0.20972,-0.047321,0.67732,0.050771
321,-0.042774,-0.049595,-0.2997,-0.20096,0.10209,1.0684,0.01894
322,-0.04927,-0.075579,-0.31821,-0.18829,0.32296,1.3718,-0.0096434
323,-0.058365,-0.10254,-0.33185,-0.18179,0.55,1.5741,-0.041475
324,-0.073306,-0.13015,-0.34355,-0.18309,0.72085,1.7031,-0.079802
325,-0.092794,-0.15613,-0.35102,-0.18861,0.78613,1.7937,-0.1191
326,-0.10936,-0.17887,-0.35361,-0.19316,0.72377,1.8645,-0.14704
327,-0.11293,-0.19673,-0.35069,-0.18991,0.55065,1.9083,-0.15158
328,-0.098641,-0.2042,-0.34322,-0.17465,0.31971,1.8853,-0.12268
329,-0.069733,-0.20063,-0.3325,-0.15353,0.080653,1.7404,-0.069408
330,-0.035628,-0.19543,-0.32373,-0.14087,-0.13404,1.4634,-0.0093186
331,-0.0037969,-0.18991,-0.32081,-0.14444,-0.31399,1.0814,0.040702
332,0.017965,-0.18569,-0.32698,-0.1649,-0.45366,0.60132,0.075781
333,0.028684,-0.17692,-0.33283,-0.19024,-0.55175,-0.011267,0.096244
334,0.030957,-0.15646,-0.33348,-0.20323,-0.60502,-0.75345,0.10436
335,0.028359,-0.1282,-0.32276,-0.19673,-0.60502,-1.5401,0.10047
336,0.023162,-0.098316,-0.30392,-0.1701,-0.55077,-2.22,0.084226
337,0.016666,-0.075255,-0.27664,-0.12852,-0.45301,-2.636,0.056292
338,0.0088706,-0.060963,-0.24058,-0.082725,-0.33932,-2.7046,0.020564
339,0.0010752,-0.054142,-0.2042,-0.042124,-0.23701,-2.4525,-0.010943
340,-0.0076946,-0.04862,-0.17237,-0.013541,-0.1688,-1.9845,-0.026209
341,-0.016464,-0.040175,-0.15126,0.0014,-0.13729,-1.4291,-0.021012
342,-0.021661,-0.030106,-0.13892,0.0046481,-0.1295,-0.91683,-0.0018481
343,-0.017764,-0.023285,-0.13145,0.0023744,-0.13372,-0.5537,0.02706
344,-0.0054209,-0.025234,-0.12398,0.0049729,-0.13989,-0.38837,0.059865
345,0.012119,-0.035953,-0.10903,0.014068,-0.15126,-0.39746,0.087799
346,0.024786,-0.048945,-0.086948,0.030633,-0.16782,-0.51017,0.10079
347,0.030308,-0.053492,-0.06616,0.05142,-0.18959,-0.65471,0.094295
348,0.028359,-0.047646,-0.060638,0.06896,-0.21525,-0.80185,0.069934
349,0.023812,-0.040825,-0.076879,0.067986,-0.24838,-0.92657,0.037778
350,0.020564,-0.04115,-0.11001,0.039078,-0.2958,-0.99673,0.0049729
351,0.017316,-0.04992,-0.14736,-0.011917,-0.35556,-0.98017,-0.021986
352,0.010819,-0.060313,-0.18147,-0.070058,-0.41208,-0.86421,-0.040825
353,-0.0034721,-0.064536,-0.2055,-0.12203,-0.44878,-0.6729,-0.051868
354,-0.019063,-0.060963,-0.21979,-0.15841,-0.45041,-0.45138,-0.054142
355,-0.031406,-0.050569,-0.22791,-0.18277,-0.4124,-0.23701,-0.045047
356,-0.034654,-0.044073,-0.22856,-0.20031,-0.3429,-0.053817,-0.028482
357,-0.028157,-0.043423,-0.21914,-0.21817,-0.25975,0.088773,-0.011917
358,-0.016464,-0.042449,-0.19381,-0.23376,-0.16847,0.19174,-0.0047713
359,0.00010078,-0.030106,-0.15061,-0.23896,-0.06681,0.26547,-0.0041217
360,0.022188,-0.0034721,-0.086298,-0.22629,0.052395,0.32751,-0.00054884
361,0.046223,0.041351,-0.0076946,-0.19154,0.18622,0.41001,0.012119
362,0.065062,0.10144,0.067986,-0.13989,0.32621,0.57339,0.038103
363,0.07773,0.1703,0.13067,-0.081101,0.46685,0.88877,0.075131
364,0.089748,0.24143,0.18004,-0.019063,0.60619,1.3926,0.11963
365,0.10664,0.3038,0.22162,0.044599,0.74391,2.0493,0.16933
366,0.12613,0.34959,0.24923,0.10631,0.85954,2.7597,0.21805
367,0.14334,0.37688,0.25605,0.15958,0.92483,3.381,0.2554
368,0.14984,0.38662,0.24371,0.20343,0.91606,3.7701,0.27651
369,0.14659,0.3759,0.23331,0.2463,0.82901,3.8234,0.27944
370,0.1336,0.35154,0.25507,0.3038,0.67667,3.4846,0.26092
371,0.11833,0.32523,0.32783,0.38175,0.48666,2.7717,0.22
372,0.10404,0.30737,0.44411,0.47172,0.29243,1.7878,0.15796
373,0.088124,0.30607,0.57306,0.55227,0.12418,0.70169,0.079679
374,0.072208,0.31711,0.67635,0.60879,-0.0050961,-0.2906,-0.0028225
375,0.056942,0.33075,0.73157,0.64647,-0.09117,-1.023,-0.070382
376,0.045899,0.34115,0.74359,0.68317,-0.1321,-1.4498,-0.11163
377,0.042001,0.3444,0.73157,0.72962,-0.12073,-1.6139,-0.12203
378,0.046223,0.33725,0.71045,0.77119,-0.055441,-1.6041,-0.10903
379,0.055318,0.31549,0.67765,0.78159,0.053044,-1.5135,-0.086298
380,0.066686,0.27846,0.62925,0.73904,0.18134,-1.4073,-0.068434
381,0.074806,0.22877,0.56267,0.65102,0.29503,-1.3225,-0.059989
382,0.075781,0.17387,0.48634,0.5435,0.36064,-1.2692,-0.061937
383,0.067011,0.11703,0.41228,0.44021,0.35576,-1.2449,-0.071357
384,0.050771,0.057267,0.35057,0.34797,0.27749,-1.2478,-0.082076
385,0.030957,-0.00087364,0.30347,0.26644,0.14854,-1.2644,-0.086298
386,0.0065969,-0.051544,0.26709,0.19758,0.013093,-1.2699,-0.082076
387,-0.017439,-0.085648,0.23818,0.14594,-0.084999,-1.2579,-0.067134
388,-0.036602,-0.10091,0.21805,0.10631,-0.1178,-1.2692,-0.045697
389,-0.048296,-0.098641,0.20765,0.065712,-0.078503,-1.353,-0.023285
390,-0.055441,-0.087922,0.20083,0.013743,0.016341,-1.5167,-0.0063954
391,-0.063561,-0.077528,0.18167,-0.055766,0.13067,-1.7074,-0.0034721
392,-0.070058,-0.075255,0.14107,-0.13567,0.21967,-1.852,-0.017114
393,-0.069733,-0.079477,0.082927,-0.20258,0.25507,-1.8958,-0.038551
394,-0.060963,-0.089546,0.017965,-0.23993,0.22682,-1.811,-0.054467
395,-0.043748,-0.10319,-0.043748,-0.25,0.15471,-1.5937,-0.061613
396,-0.024585,-0.1178,-0.092469,-0.24383,0.080978,-1.2605,-0.056091
397,-0.012892,-0.13794,-0.11748,-0.23798,0.025436,-0.85057,-0.035953
398,-0.013866,-0.16523,-0.11196,-0.24513,-0.051868,-0.39909,-0.0047713
399,-0.026209,-0.19219,-0.081101,-0.26039,-0.20713,0.061165,0.029983
400,-0.043748,-0.20778,-0.048945,-0.26429,-0.42117,0.48374,0.062139
401,-0.056741,-0.2068,-0.044398,-0.25065,-0.59787,0.82121,0.083901
402,-0.064211,-0.19219,-0.078503,-0.22564,-0.63587,1.0366,0.095594
403,-0.065835,-0.17367,-0.13892,-0.20193,-0.51342,1.1145,0.10014
404,-0.065186,-0.15841,-0.20518,-0.18666,-0.31854,1.0833,0.10144
405,-0.064536,-0.15191,-0.2591,-0.18634,-0.21037,0.99791,0.10079
406,-0.06616,-0.15191,-0.29093,-0.20063,-0.29612,0.91573,0.097868
407,-0.070058,-0.15646,-0.29775,-0.22889,-0.54493,0.87513,0.090722
408,-0.075255,-0.16328,-0.29093,-0.26299,-0.82718,0.88293,0.085525
409,-0.081101,-0.16945,-0.28281,-0.29937,-1.0113,0.91151,0.084551
410,-0.081751,-0.17465,-0.28053,-0.33023,-1.0432,0.91866,0.087799
411,-0.073955,-0.17789,-0.28053,-0.35719,-0.94509,0.87416,0.092346
412,-0.05804,-0.17822,-0.27631,-0.38122,-0.78301,0.76827,0.09462
413,-0.0405,-0.17367,-0.26137,-0.40104,-0.62288,0.60099,0.092996
414,-0.02426,-0.16068,-0.23409,-0.40688,-0.51147,0.38175,0.083576
415,-0.013866,-0.13827,-0.19706,-0.38545,-0.4595,0.13327,0.065712
416,-0.0093186,-0.10644,-0.15938,-0.32471,-0.43936,-0.09994,0.041676
417,-0.0076946,-0.071682,-0.12852,-0.22337,-0.39649,-0.26949,0.015692
418,-0.010618,-0.042449,-0.10968,-0.095393,-0.28963,-0.35329,-0.010618
419,-0.01484,-0.017114,-0.10611,0.027385,-0.123,-0.36173,-0.035628
420,-0.019388,0.0033489,-0.11228,0.11216,0.065712,-0.32211,-0.056416
421,-0.021986,0.020888,-0.12138,0.14074,0.22682,-0.2552,-0.067459
422,-0.022636,0.028359,-0.13015,0.11573,0.3366,-0.17335,-0.070707
423,-0.018413,0.029009,-0.14087,0.06084,0.40351,-0.084674,-0.067784
424,-0.011592,0.026085,-0.15126,0.010819,0.46425,0.01764,-0.059989
425,-0.0073698,0.025111,-0.15743,-0.011592,0.57079,0.15633,-0.045697
426,-0.0018481,0.032257,-0.14964,-0.00087364,0.74943,0.3431,-0.025559
427,0.008221,0.048822,-0.1243,0.034855,0.98492,0.52791,-0.00022403
428,0.021213,0.069285,-0.086623,0.080978,1.2146,0.61171,0.027385
429,0.032582,0.089098,-0.043423,0.12385,1.3584,0.51102,0.054019
430,0.044275,0.11183,0.0026992,0.15666,1.3604,0.22162,0.079029
431,0.053369,0.14139,0.046873,0.17647,1.2077,-0.18082,0.099167
432,0.056617,0.1768,0.083901,0.18297,0.90859,-0.58033,0.11346
433,0.05142,0.21447,0.10859,0.18492,0.48147,-0.88987,0.11801
434,0.041027,0.24663,0.1245,0.19369,-0.028482,-1.0773,0.11118
435,0.031282,0.27034,0.13684,0.2148,-0.52381,-1.1481,0.096569
436,0.028034,0.28821,0.15146,0.24598,-0.88727,-1.1198,0.07708
437,0.032906,0.30477,0.16868,0.27424,-1.0539,-1.0273,0.056617
438,0.044275,0.31874,0.18329,0.28658,-1.0364,-0.91098,0.035505
439,0.056617,0.32393,0.19304,0.28008,-0.90904,-0.78886,0.016991
440,0.061814,0.31581,0.19791,0.25443,-0.76385,-0.65861,-0.0024977
441,0.060515,0.29438,0.19726,0.21805,-0.67615,-0.52186,-0.027508
442,0.054344,0.26157,0.18816,0.18459,-0.68882,-0.38739,-0.059014
443,0.044599,0.21935,0.17095,0.16023,-0.80282,-0.26754,-0.094093
444,0.029658,0.17257,0.15536,0.14594,-0.97887,-0.17042,-0.12852
445,0.011144,0.12807,0.14139,0.13197,-1.1536,-0.080451,-0.15386
446,-0.0054209,0.086824,0.12807,0.11573,-1.2592,0.019914,-0.16653
447,-0.013866,0.050771,0.10729,0.095269,-1.2546,0.14886,-0.16782
448,-0.0073698,0.016666,0.073507,0.072858,-1.1345,0.32653,-0.16003
449,0.010819,-0.020687,0.026735,0.048497,-0.91196,0.56397,-0.14574
450,0.033556,-0.062587,-0.025884,0.032582,-0.61411,0.85824,-0.12755
451,0.047847,-0.10254,-0.074605,0.029983,-0.28021,1.2185,-0.10351
452,0.047847,-0.13664,-0.11293,0.037129,0.044599,1.6644,-0.069733
453,0.039078,-0.15808,-0.14314,0.041676,0.32296,2.1451,-0.030106
454,0.030957,-0.16458,-0.16393,0.032582,0.53019,2.5031,0.003024
455,0.026085,-0.15646,-0.18082,0.0049729,0.65946,2.5729,0.020239
456,0.026735,-0.13697,-0.19154,-0.035628,0.71922,2.3079,0.01829
457,0.030633,-0.11033,-0.19706,-0.084999,0.71857,1.8122,0.003024
458,0.035505,-0.079802,-0.20031,-0.13502,0.69259,1.2772,-0.012892
459,0.039402,-0.048296,-0.20096,-0.17562,0.69259,0.87123,-0.01614
460,0.041351,-0.021337,-0.19576,-0.19771,0.76307,0.68512,0.00010078
461,0.042001,0.00075039,-0.17789,-0.20096,0.91151,0.7176,0.034206
462,0.042001,0.029658,-0.14574,-0.19056,1.1126,0.90794,0.081627
463,0.044599,0.071558,-0.10059,-0.16718,1.3133,1.1626,0.13684
464,0.050446,0.12093,-0.052193,-0.13372,1.44,1.3646,0.18784
465,0.058241,0.16283,-0.01484,-0.096692,1.4263,1.4055,0.22324
466,0.057917,0.18394,0.00042559,-0.067134,1.2464,1.2233,0.23624
467,0.044599,0.1742,-0.0021729,-0.047321,0.93522,0.82836,0.22584
468,0.020888,0.13262,-0.011267,-0.03173,0.57436,0.30347,0.19726
469,-0.0034721,0.073182,-0.015165,-0.015165,0.25118,-0.23246,0.15503
470,-0.017764,0.014392,-0.0057458,0.0062721,0.020888,-0.6677,0.11054
471,-0.021337,-0.029457,0.016666,0.025761,-0.09994,-0.94152,0.076431
472,-0.018738,-0.048945,0.045574,0.033881,-0.12755,-1.0292,0.059541
473,-0.015165,-0.047321,0.070259,0.025111,-0.088247,-0.93047,0.058241
474,-0.0083442,-0.032055,0.081303,0.0043233,-0.011267,-0.67777,0.067011
475,0.00075039,-0.012242,0.072533,-0.017764,0.079029,-0.36011,0.082927
476,0.0075714,0.0065969,0.040702,-0.036927,0.15633,-0.092794,0.097868
477,0.012768,0.012119,-0.012242,-0.059664,0.20213,0.029333,0.10242
478,0.016016,-0.0047713,-0.0824,-0.096692,0.20181,-0.045372,0.089748
479,0.016991,-0.048945,-0.15873,-0.14899,0.15536,-0.32081,0.055968
480,0.0085458,-0.11423,-0.22759,-0.20778,0.078704,-0.75215,0.0039985
481,-0.012242,-0.19056,-0.27826,-0.26039,-0.0050961,-1.2579,-0.064536
482,-0.045047,-0.26429,-0.30814,-0.2997,-0.072006,-1.7587,-0.14087
483,-0.079152,-0.32731,-0.32243,-0.32925,-0.10481,-2.2138,-0.21525
484,-0.10059,-0.36693,-0.31886,-0.35296,-0.096692,-2.6049,-0.27956
485,-0.097991,-0.37733,-0.29645,-0.3744,-0.052843,-2.9128,-0.32763
486,-0.073306,-0.36109,-0.25357,-0.37765,0.019914,-3.1093,-0.35686
487,-0.035303,-0.32795,-0.18991,-0.34387,0.11021,-3.1561,-0.36661
488,0.00075039,-0.28605,-0.11228,-0.26462,0.20083,-3.0313,-0.35134
489,0.025436,-0.24123,-0.028482,-0.15191,0.27749,-2.7422,-0.31301
490,0.03518,-0.19966,0.044599,-0.025234,0.32491,-2.3288,-0.26169
491,0.02706,-0.16165,0.097868,0.091372,0.32166,-1.8588,-0.21102
492,0.0095202,-0.12852,0.13067,0.18362,0.24176,-1.3998,-0.17367
493,-0.0080194,-0.096042,0.15698,0.25475,0.065387,-0.99608,-0.14866
494,-0.016789,-0.06551,0.19499,0.31906,-0.19283,-0.65731,-0.1308
495,-0.017764,-0.039851,0.25313,0.3889,-0.47477,-0.36856,-0.11228
496,-0.016464,-0.02426,0.31776,0.46393,-0.69466,-0.10838,-0.088896
497,-0.01549,-0.024585,0.36908,0.53538,-0.79081,0.13392,-0.068109
498,-0.017114,-0.037902,0.39539,0.58443,-0.7528,0.34732,-0.051868
499,-0.023285,-0.04927,0.39572,0.59645,-0.61866,0.53051,-0.044073
500,-0.033354,-0.045697,0.37363,0.56981,-0.44748,0.73059,-0.042124
501,-0.046022,-0.018738,0.34115,0.52889,-0.29028,1.0203,-0.038551
502,-0.054792,0.027709,0.31386,0.50648,-0.17302,1.44,-0.022636
503,-0.050569,0.084876,0.29503,0.51719,-0.093444,1.9762,0.010819
504,-0.032705,0.14529,0.28333,0.55325,-0.032705,2.5593,0.061165
505,-0.0057458,0.19596,0.28138,0.5854,0.028034,3.0741,0.11995
506,0.022837,0.23461,0.28268,0.58768,0.087799,3.3943,0.1729
507,0.046548,0.26319,0.27879,0.55065,0.1349,3.4349,0.2109
508,0.062139,0.29113,0.26157,0.47529,0.15211,3.1728,0.23201
509,0.072858,0.31614,0.23396,0.37363,0.1362,2.6768,0.23559
510,0.082602,0.33498,0.19986,0.26677,0.094295,2.0795,0.22909
511,0.094945,0.34829,0.16933,0.17647,0.039727,1.5179,0.22162
512,0.11151,0.35349,0.14919,0.11086,-0.011592,1.059,0.22065
513,0.13002,0.34764,0.14009,0.066037,-0.04992,0.677,0.23039
514,0.14561,0.32556,0.13814,0.038103,-0.071682,0.32134,0.24728
515,0.15568,0.28691,0.13262,0.024137,-0.070707,-0.02426,0.26839
516,0.15926,0.23461,0.11281,0.015042,-0.047321,-0.36271,0.29373
517,0.15471,0.17615,0.071558,-0.0018481,-0.010618,-0.68557,0.31516
518,0.13847,0.12288,0.016666,-0.036602,0.023487,-0.9308,0.32523
519,0.11476,0.083901,-0.037902,-0.087272,0.036804,-1.011,0.31549
520,0.090072,0.064413,-0.078178,-0.13729,0.019589,-0.92235,0.28398
521,0.06961,0.064413,-0.097991,-0.1688,-0.021661,-0.74631,0.23461
522,0.057592,0.072858,-0.10026,-0.17237,-0.075255,-0.57416,0.17615
523,0.053694,0.081952,-0.090196,-0.15418,-0.1243,-0.44911,0.11378
524,0.048497,0.090072,-0.076554,-0.12885,-0.15418,-0.35881,0.054993
525,0.034855,0.099817,-0.060638,-0.11098,-0.15776,-0.27793,0.0014
526,0.015692,0.11086,-0.046347,-0.10676,-0.13307,-0.19089,-0.034978
527,-0.0018481,0.11963,-0.03173,-0.12138,-0.076554,-0.097991,-0.054142
528,-0.011267,0.1232,-0.017439,-0.16003,0.0088706,-0.018738,-0.056416
529,-0.0083442,0.12028,-0.0028225,-0.2133,0.11313,0.019589,-0.051544
530,0.0033489,0.11021,0.0039985,-0.26916,0.2148,0.0072465,-0.048296
531,0.011144,0.095919,0.00010078,-0.31561,0.28528,-0.057715,-0.059014
532,0.0056225,0.081627,-0.01484,-0.34582,0.29762,-0.17692,-0.089871
533,-0.01614,0.071234,-0.030106,-0.35654,0.24663,-0.34809,-0.13827
534,-0.051868,0.061814,-0.034004,-0.35296,0.14269,-0.55272,-0.19511
535,-0.091495,0.050121,-0.010943,-0.33802,0.016016,-0.73851,-0.24286
536,-0.1256,0.037129,0.036479,-0.31366,-0.10319,-0.84407,-0.26722
537,-0.14704,0.019914,0.088448,-0.28151,-0.18894,-0.85219,-0.26332
538,-0.14964,0.00010078,0.12418,-0.24675,-0.22954,-0.8051,-0.24058
539,-0.1334,-0.019063,0.13522,-0.20875,-0.23116,-0.77814,-0.20875
540,-0.10221,-0.029782,0.1284,-0.16425,-0.21232,-0.8353,-0.17107
541,-0.064211,-0.026533,0.11411,-0.10968,-0.18959,-0.99868,-0.12852
542,-0.030756,-0.01549,0.092671,-0.052843,-0.174,-1.2416,-0.086623
543,-0.011917,-0.0073698,0.062139,-0.0011985,-0.16945,-1.5054,-0.052518
544,-0.0083442,-0.0089938,0.023487,0.036804,-0.17302,-1.7266,-0.029132
545,-0.012242,-0.027833,-0.020037,0.050121,-0.18082,-1.8584,-0.018738
546,-0.020037,-0.059339,-0.062262,0.037454,-0.19413,-1.8659,-0.022636
547,-0.026858,-0.088896,-0.093119,0.0052977,-0.20778,-1.7389,-0.036602
548,-0.026209,-0.10741,-0.10676,-0.031081,-0.2159,-1.5197,-0.054142
549,-0.022636,-0.11326,-0.10156,-0.054792,-0.20875,-1.2754,-0.063561
550,-0.022311,-0.11521,-0.082076,-0.057715,-0.18601,-1.0295,-0.054467
551,-0.026209,-0.11878,-0.065186,-0.038551,-0.13827,-0.71967,-0.02361
552,-0.028807,-0.12527,-0.065835,0.0010752,-0.060963,-0.24221,0.031282
553,-0.021012,-0.12592,-0.088572,0.058891,0.040702,0.44801,0.10924
554,-0.00054884,-0.11456,-0.13112,0.12743,0.15081,1.2519,0.19823
555,0.031607,-0.092145,-0.17887,0.19726,0.23948,1.9658,0.27651
556,0.065387,-0.067134,-0.21557,0.25248,0.27229,2.3654,0.31809
557,0.090072,-0.049595,-0.22856,0.27911,0.23429,2.3244,0.31386
558,0.096569,-0.044398,-0.21525,0.26969,0.13977,1.8872,0.26709
559,0.0852,-0.052843,-0.17822,0.23331,0.020564,1.2435,0.19109
560,0.058891,-0.071682,-0.13145,0.18329,-0.09117,0.63413,0.10436
561,0.025761,-0.09182,-0.0837,0.13392,-0.16945,0.23851,0.024137
562,-0.0050961,-0.10644,-0.038876,0.094945,-0.20745,0.10469,-0.039851
563,-0.028157,-0.11066,0.0075714,0.06896,-0.2146,0.15796,-0.090196
564,-0.042449,-0.10579,0.053694,0.049147,-0.20323,0.28301,-0.1295
565,-0.051219,-0.098316,0.091696,0.03518,-0.18471,0.41033,-0.15548
566,-0.055441,-0.084999,0.11768,0.028359,-0.16588,0.54708,-0.16523
567,-0.054792,-0.067459,0.1297,0.026735,-0.14736,0.73027,-0.15353
568,-0.048296,-0.048945,0.1323,0.028684,-0.13307,0.98557,-0.11975
569,-0.037902,-0.034329,0.13262,0.028034,-0.12398,1.3113,-0.06616
570,-0.02426,-0.025234,0.13717,0.019914,-0.1269,1.6742,-0.0041217
571,-0.011267,-0.022311,0.14139,0.00010078,-0.14444,1.9977,0.049472
572,-0.0041217,-0.025234,0.13879,-0.034654,-0.174,2.2111,0.081627
573,-0.0073698,-0.035953,0.12548,-0.084024,-0.2042,2.2929,0.093645
574,-0.01549,-0.047971,0.10664,-0.13859,-0.21817,2.2702,0.093321
575,-0.022961,-0.052193,0.093645,-0.18796,-0.20225,2.1766,0.090072
576,-0.023285,-0.044398,0.087474,-0.22921,-0.14639,2.0217,0.089423
577,-0.008669,-0.030756,0.07708,-0.26137,-0.038876,1.8054,0.092021
578,0.020239,-0.015165,0.053694,-0.28053,0.10826,1.5559,0.10209
579,0.054019,0.0014,0.019264,-0.28053,0.26417,1.3217,0.11346
580,0.07708,0.01894,-0.0034721,-0.2552,0.40221,1.1613,0.12515
581,0.081952,0.03518,0.0056225,-0.20908,0.52272,1.134,0.13977
582,0.071558,0.049796,0.0433,-0.15678,0.64322,1.2906,0.16185
583,0.059216,0.061489,0.089098,-0.10741,0.76632,1.6037,0.18946
584,0.054019,0.067661,0.11508,-0.071682,0.87383,1.9103,0.21188
585,0.058891,0.071558,0.098842,-0.055766,0.92385,1.9941,0.22162
586,0.069934,0.078055,0.0433,-0.063237,0.87903,1.7446,0.21382
587,0.082602,0.091047,-0.031406,-0.076229,0.73806,1.2262,0.19661
588,0.094295,0.11021,-0.098641,-0.074605,0.53311,0.61886,0.18037
589,0.10177,0.13132,-0.13827,-0.050894,0.32069,0.10469,0.16933
590,0.10209,0.15179,-0.14931,-0.011917,0.14204,-0.22532,0.16153
591,0.096569,0.16478,-0.13827,0.027709,0.015042,-0.40948,0.14886
592,0.087149,0.16543,-0.11586,0.055318,-0.07493,-0.55694,0.1271
593,0.074157,0.15373,-0.092794,0.066362,-0.14574,-0.7502,0.098842
594,0.057917,0.1336,-0.078827,0.067986,-0.20745,-0.98407,0.070584
595,0.044924,0.11281,-0.076879,0.067336,-0.26039,-1.1783,0.052395
596,0.042001,0.09462,-0.081751,0.071558,-0.29482,-1.2511,0.046873
597,0.049472,0.082927,-0.087597,0.079354,-0.29645,-1.1809,0.049147
598,0.061489,0.073507,-0.089546,0.083901,-0.26039,-1.0162,0.053369
599,0.072533,0.063113,-0.0837,0.075781,-0.17887,-0.82556,0.053044
600,0.079029,0.050446,-0.068434,0.055318,-0.037577,-0.67647,0.038103
601,0.080653,0.038428,-0.04992,0.037129,0.1664,-0.63522,0.0078962
602,0.073832,0.02706,-0.039201,0.037129,0.39637,-0.74111,-0.032055
603,0.057917,0.015367,-0.044723,0.066037,0.5841,-0.98764,-0.073306
604,0.034206,0.00042559,-0.069408,0.11703,0.67732,-1.3267,-0.10579
605,0.0065969,-0.018738,-0.11261,0.1625,0.66011,-1.6954,-0.1282
606,-0.021661,-0.038551,-0.1675,0.17842,0.55844,-2.0465,-0.13534
607,-0.041799,-0.055441,-0.22272,0.15568,0.41066,-2.3288,-0.1217
608,-0.046022,-0.06681,-0.26787,0.098842,0.2554,-2.4892,-0.090845
609,-0.034329,-0.068434,-0.2984,0.020564,0.11833,-2.4993,-0.05739
610,-0.018088,-0.057715,-0.31269,-0.061288,0.013093,-2.3697,-0.033354
611,-0.0073698,-0.040825,-0.31269,-0.13047,-0.060638,-2.1569,-0.027183
612,-0.00022403,-0.021986,-0.29905,-0.17432,-0.12105,-1.9247,-0.04115
613,-0.00087364,-0.0083442,-0.27436,-0.18471,-0.19024,-1.7165,-0.068109
614,-0.0093186,-0.0041217,-0.24188,-0.161,-0.26949,-1.5509,-0.10189
615,-0.026209,-0.0093186,-0.2042,-0.10774,-0.33705,-1.4362,-0.1321
616,-0.046671,-0.020687,-0.16295,-0.040175,-0.37505,-1.3829,-0.15386
617,-0.063561,-0.03238,-0.12657,0.016341,-0.38934,-1.4011,-0.1688
618,-0.069408,-0.042124,-0.10449,0.040052,-0.39324,-1.5002,-0.18504
619,-0.065186,-0.048296,-0.10319,0.031282,-0.40104,-1.6756,-0.20225
620,-0.056091,-0.052193,-0.12138,-0.00087364,-0.43482,-1.9059,-0.22207
621,-0.049595,-0.051219,-0.14541,-0.0405,-0.51472,-2.1553,-0.23766
622,-0.047321,-0.043099,-0.15418,-0.070382,-0.64042,-2.3811,-0.24708
623,-0.044723,-0.029457,-0.13372,-0.070707,-0.76709,-2.5279,-0.24415
624,-0.036927,-0.012567,-0.076229,-0.021986,-0.82816,-2.5379,-0.22044
625,-0.020687,0.0069217,0.009845,0.07708,-0.78853,-2.3593,-0.17042
626,-0.00022403,0.032257,0.11086,0.20765,-0.66965,-1.9686,-0.098641
627,0.022188,0.062464,0.20765,0.33011,-0.52414,-1.3959,-0.018738
628,0.042975,0.097543,0.28821,0.41845,-0.39324,-0.75183,0.055318
629,0.06019,0.13262,0.33628,0.46328,-0.30002,-0.18796,0.11118
630,0.074482,0.1638,0.35187,0.4727,-0.2435,0.1677,0.14529
631,0.084876,0.18751,0.3418,0.46165,-0.20908,0.26319,0.15698
632,0.087474,0.19563,0.31776,0.43632,-0.18634,0.1323,0.14886
633,0.082277,0.18329,0.28528,0.39117,-0.1727,-0.11261,0.12807
634,0.070259,0.15568,0.25118,0.32101,-0.16912,-0.3351,0.10047
635,0.051745,0.11671,0.21512,0.23104,-0.17075,-0.4202,0.072533
636,0.031932,0.073507,0.17485,0.13814,-0.17042,-0.31789,0.046223
637,0.009845,0.032257,0.13295,0.061489,-0.15548,-0.050244,0.020239
638,-0.014516,-0.007045,0.099167,0.016991,-0.1178,0.31192,-0.00054884
639,-0.038876,-0.045372,0.082602,0.009845,-0.052843,0.69714,-0.0096434
640,-0.060963,-0.079477,0.088124,0.031932,0.029658,1.0496,-0.0093186
641,-0.080776,-0.10579,0.11606,0.072208,0.11086,1.3438,-0.0073698
642,-0.097017,-0.12105,0.16315,0.11573,0.17225,1.5894,-0.0089938
643,-0.10514,-0.12527,0.22422,0.15114,0.20603,1.8083,-0.010293
644,-0.10254,-0.11943,0.28301,0.16413,0.2174,2.0103,-0.0034721
645,-0.089221,-0.10611,0.31419,0.14691,0.21545,2.1815,0.014068
646,-0.070707,-0.089546,0.30055,0.096569,0.19791,2.2939,0.037129
647,-0.053492,-0.078503,0.23721,0.021863,0.14496,2.3303,0.056942
648,-0.041475,-0.078178,0.13847,-0.059989,0.056617,2.3283,0.067011
649,-0.034978,-0.090521,0.02706,-0.13047,-0.035953,2.3235,0.073182
650,-0.034654,-0.11261,-0.067134,-0.17107,-0.090845,2.2796,0.07773
651,-0.035628,-0.13989,-0.12852,-0.17172,-0.091495,2.111,0.076431
652,-0.033679,-0.16328,-0.15841,-0.14411,-0.051868,1.7661,0.065712
653,-0.026533,-0.17659,-0.17042,-0.10156,0.0014,1.2711,0.042975
654,-0.018088,-0.17627,-0.17432,-0.058689,0.048497,0.72312,0.012119
655,-0.014191,-0.1649,-0.1753,-0.028482,0.0852,0.24241,-0.022961
656,-0.020687,-0.14996,-0.17237,-0.01484,0.11703,-0.081101,-0.04992
657,-0.035303,-0.13599,-0.16685,-0.010943,0.14626,-0.22044,-0.059664
658,-0.053168,-0.12398,-0.16198,-0.012892,0.17225,-0.21655,-0.055766
659,-0.067459,-0.11001,-0.15743,-0.019063,0.20376,-0.15126,-0.049595
660,-0.073306,-0.090196,-0.15223,-0.030756,0.24728,-0.10286,-0.057065
661,-0.068434,-0.06551,-0.14152,-0.044723,0.29405,-0.1178,-0.079802
662,-0.054467,-0.039526,-0.1217,-0.052518,0.32458,-0.20128,-0.11228
663,-0.035303,-0.007045,-0.090845,-0.047971,0.32036,-0.32406,-0.14314
664,-0.016464,0.035505,-0.051219,-0.03173,0.27684,-0.44424,-0.1636
665,-0.00054884,0.078055,-0.0096434,-0.008669,0.20928,-0.52219,-0.16588
666,0.0088706,0.11183,0.029658,0.015042,0.12905,-0.52934,-0.14249
667,0.013418,0.13002,0.061489,0.031607,0.0075714,-0.43027,-0.096692
668,0.016016,0.1336,0.084226,0.038753,-0.19966,-0.21362,-0.037577
669,0.022512,0.1297,0.095269,0.038428,-0.47217,0.092996,0.01829
670,0.036804,0.13035,0.09397,0.032257,-0.71772,0.41066,0.061489
671,0.057917,0.13749,0.078704,0.020564,-0.83823,0.65621,0.094295
672,0.081627,0.14691,0.051745,0.0036737,-0.78333,0.80432,0.1206
673,0.10404,0.15211,0.021538,-0.020687,-0.56279,0.89884,0.14919
674,0.12385,0.15309,0.0010752,-0.045372,-0.23961,0.99726,0.18849
675,0.13944,0.15633,0.0023744,-0.060963,0.096893,1.1074,0.23624
676,0.14919,0.16478,0.025111,-0.067784,0.35414,1.1892,0.28203
677,0.15373,0.1742,0.059216,-0.072006,0.47335,1.1902,0.30867
678,0.15666,0.17874,0.086824,-0.082725,0.42885,1.0801,0.30672
679,0.15731,0.17745,0.091696,-0.10676,0.24143,0.87188,0.27716
680,0.15114,0.1742,0.069285,-0.14281,-0.03303,0.626,0.22552
681,0.13392,0.16738,0.027385,-0.18179,-0.31821,0.41878,0.16738
682,0.11151,0.15698,-0.01549,-0.20972,-0.53583,0.28528,0.11736
683,0.090397,0.14269,-0.045372,-0.22012,-0.62678,0.20343,0.081627
684,0.074157,0.12775,-0.057715,-0.212,-0.57838,0.12418,0.058891
685,0.066037,0.11411,-0.054467,-0.18796,-0.4189,0.032906,0.044924
686,0.066362,0.10306,-0.036927,-0.15288,-0.2042,-0.038227,0.03518
687,0.070584,0.097543,-0.0076946,-0.11163,0.022188,-0.037252,0.026085
688,0.073832,0.10144,0.029009,-0.069733,0.23136,0.067986,0.016016
689,0.070259,0.11281,0.069285,-0.024585,0.39896,0.26839,-0.0011985
690,0.059216,0.1271,0.10339,0.024461,0.50777,0.53311,-0.029782
691,0.044275,0.14107,0.11931,0.069285,0.54968,0.81699,-0.061613
692,0.029333,0.14561,0.10501,0.10274,0.52921,1.0697,-0.087922
693,0.018615,0.13717,0.061814,0.1219,0.47172,1.2344,-0.10286
694,0.014068,0.11866,0.00075039,0.12385,0.39961,1.2646,-0.10579
695,0.014068,0.095594,-0.058365,0.11476,0.33465,1.1493,-0.10384
696,0.017965,0.072208,-0.10384,0.10014,0.28788,0.92125,-0.098316
697,0.022188,0.058241,-0.13502,0.086824,0.26969,0.64354,-0.089546
698,0.025111,0.054668,-0.15516,0.072533,0.27976,0.37883,-0.081751
699,0.029983,0.059216,-0.17172,0.049796,0.30899,0.15341,-0.07493
700,0.036479,0.067661,-0.18991,0.012443,0.34342,-0.04992,-0.06551
701,0.045574,0.070584,-0.2133,-0.037577,0.37363,-0.26267,-0.053168
702,0.051096,0.065387,-0.24545,-0.098965,0.39767,-0.49198,-0.042774
703,0.048172,0.05272,-0.28053,-0.1623,0.41423,-0.70441,-0.033679
704,0.037129,0.041351,-0.31139,-0.21362,0.42365,-0.8366,-0.022636
705,0.021538,0.035505,-0.3286,-0.24643,0.4282,-0.83985,-0.0067202
706,0.0065969,0.039078,-0.33218,-0.26234,0.42332,-0.72097,0.015367
707,-0.0050961,0.045899,-0.33413,-0.27371,0.40221,-0.55402,0.037129
708,-0.014191,0.049796,-0.33867,-0.29223,0.36551,-0.42865,0.048172
709,-0.020687,0.04395,-0.34192,-0.32406,0.32946,-0.39097,0.043625
710,-0.023285,0.032906,-0.32016,-0.36238,0.31094,-0.41955,0.026735
711,-0.020687,0.01829,-0.24545,-0.39324,0.31354,-0.44683,0.0043233
712,-0.012892,0.0043233,-0.11098,-0.39714,0.32556,-0.41533,-0.0089938
713,-0.0031473,-0.0063954,0.064413,-0.36401,0.32166,-0.31691,-0.0076946
714,0.0069217,-0.014516,0.24663,-0.30717,0.28268,-0.19154,0.0046481
715,0.016016,-0.018738,0.39637,-0.24643,0.20505,-0.10156,0.011469
716,0.022837,-0.018738,0.48244,-0.19868,0.10436,-0.093119,0.00042559
717,0.02706,-0.017114,0.49543,-0.16198,0.0065969,-0.18634,-0.025884
718,0.022512,-0.016464,0.44866,-0.11845,-0.059664,-0.35524,-0.053817
719,0.011144,-0.022311,0.37201,-0.054142,-0.089546,-0.54785,-0.070707
720,-0.00054884,-0.036927,0.29795,0.041027,-0.10384,-0.72357,-0.06681
721,-0.0083442,-0.057715,0.2502,0.1703,-0.13599,-0.8772,-0.042774
722,-0.011917,-0.081751,0.24111,0.32588,-0.2081,-1.0516,-0.0083442
723,-0.014191,-0.10319,0.26644,0.48504,-0.32406,-1.3056,0.017316
724,-0.017439,-0.12008,0.30834,0.61918,-0.4582,-1.6395,0.025111
725,-0.022636,-0.13957,0.3431,0.70948,-0.56734,-1.9871,0.015692
726,-0.028482,-0.1649,0.36096,0.75495,-0.61898,-2.2749,-0.0018481
727,-0.033679,-0.18536,0.36226,0.77087,-0.61898,-2.4652,-0.02426
728,-0.036602,-0.19511,0.35544,0.78646,-0.58455,-2.5509,-0.046347
729,-0.039526,-0.19413,0.35122,0.82186,-0.53875,-2.5431,-0.065835
730,-0.045697,-0.18277,0.35284,0.87188,-0.5079,-2.4551,-0.084024
731,-0.05739,-0.1649,0.35512,0.90014,-0.5105,-2.2739,-0.098316
732,-0.070707,-0.14639,0.35187,0.87351,-0.5472,-1.9923,-0.10124
733,-0.080127,-0.1321,0.33693,0.79133,-0.58585,-1.6415,-0.082076
734,-0.084999,-0.12073,0.3012,0.68285,-0.58618,-1.2511,-0.044398
735,-0.087922,-0.10514,0.24208,0.57598,-0.5105,-0.81094,0.0036737
736,-0.090521,-0.073306,0.16445,0.47692,-0.32276,-0.29223,0.053369
737,-0.090845,-0.02361,0.077405,0.37753,-0.0024977,0.30639,0.096893
738,-0.087922,0.034206,0.0014,0.27164,0.41845,0.94139,0.12353
739,-0.079802,0.087799,-0.047971,0.16478,0.85077,1.5413,0.13327
740,-0.059664,0.1284,-0.068109,0.073832,1.198,2.0233,0.13392
741,-0.025884,0.14399,-0.068758,0.020888,1.4169,2.3472,0.13555
742,0.011469,0.13327,-0.059664,0.01829,1.5303,2.5541,0.14594
743,0.044275,0.099817,-0.052518,0.056942,1.5728,2.7353,0.1781
744,0.065712,0.058241,-0.048296,0.11086,1.5277,2.9861,0.23591
745,0.075781,0.019914,-0.046671,0.14886,1.3204,3.3271,0.3051
746,0.074806,-0.0093186,-0.043423,0.15211,0.89624,3.6539,0.35771
747,0.070259,-0.031406,-0.036602,0.12255,0.30997,3.7906,0.36973
748,0.064413,-0.047971,-0.026533,0.070259,-0.26916,3.6116,0.3353
749,0.053694,-0.064536,-0.01484,0.0078962,-0.66868,3.1296,0.26872
750,0.036804,-0.083375,-0.0021729,-0.052193,-0.81679,2.4605,0.19401
751,0.01764,-0.098965,0.010495,-0.10319,-0.74793,1.7355,0.13035
752,-0.0011985,-0.10903,0.020239,-0.13762,-0.56052,1.0535,0.083251
753,-0.015815,-0.11261,0.029983,-0.15613,-0.36303,0.48926,0.049472
754,-0.026209,-0.11131,0.0433,-0.15905,-0.22142,0.086175,0.024137
755,-0.03238,-0.10416,0.061165,-0.15646,-0.15418,-0.15451,0.0020496
756,-0.036278,-0.10384,0.080328,-0.15256,-0.14834,-0.27858,-0.020687
757,-0.04115,-0.12398,0.091372,-0.14704,-0.18017,-0.35914,-0.046347
758,-0.046022,-0.16977,0.093321,-0.14281,-0.22791,-0.47542,-0.072981
759,-0.048296,-0.23246,0.088448,-0.14314,-0.27306,-0.68719,-0.10319
760,-0.052518,-0.29515,0.083576,-0.14671,-0.30782,-0.99933,-0.13469
761,-0.061613,-0.33543,0.083251,-0.15483,-0.32731,-1.3651,-0.16718
762,-0.075579,-0.34062,0.087149,-0.17205,-0.33737,-1.7224,-0.20128
763,-0.094418,-0.30717,0.081952,-0.19803,-0.35264,-2.0228,-0.24026
764,-0.11423,-0.24156,0.050446,-0.22921,-0.38804,-2.242,-0.28183
765,-0.1295,-0.15321,-0.01484,-0.25845,-0.44586,-2.3593,-0.32146
766,-0.13502,-0.050244,-0.10189,-0.27728,-0.51602,-2.3619,-0.35069
767,-0.1269,0.06084,-0.18926,-0.28638,-0.58228,-2.2411,-0.36661
768,-0.10838,0.17322,-0.25845,-0.28995,-0.62905,-1.9919,-0.36596
769,-0.091495,0.27749,-0.29255,-0.2906,-0.64886,-1.6246,-0.34614
770,-0.078503,0.37136,-0.29353,-0.29353,-0.64139,-1.1634,-0.30912
771,-0.069083,0.45418,-0.26851,-0.29807,-0.60696,-0.64627,-0.25845
772,-0.055441,0.52531,-0.22304,-0.30554,-0.55045,-0.12268,-0.2029
773,-0.034329,0.58248,-0.16328,-0.31074,-0.47542,0.34472,-0.14801
774,-0.0099683,0.61918,-0.094093,-0.30912,-0.37603,0.69356,-0.098316
775,0.0088706,0.626,-0.024909,-0.29905,-0.23896,0.88065,-0.061288
776,0.016666,0.59905,0.039727,-0.28151,-0.068758,0.89982,-0.040825
777,0.011469,0.54383,0.096569,-0.25975,0.10696,0.78289,-0.035953
778,-0.00054884,0.47075,0.14399,-0.22986,0.24111,0.61626,-0.035303
779,-0.011917,0.39084,0.1755,-0.18471,0.29762,0.52564,-0.018088
780,-0.017114,0.31289,0.18946,-0.11845,0.27456,0.58151,0.029658
781,-0.0057458,0.24143,0.19174,-0.043423,0.19856,0.69714,0.10534
782,0.02706,0.17842,0.18946,0.024137,0.10956,0.69616,0.18881
783,0.075131,0.1271,0.1768,0.071883,0.053369,0.49316,0.26319
784,0.1271,0.086175,0.14561,0.089748,0.062139,0.17355,0.31841
785,0.17062,0.052395,0.090397,0.075781,0.12613,-0.075904,0.35317
786,0.19953,0.013418,0.01764,0.029983,0.20116,-0.15581,0.36064
787,0.21058,-0.034654,-0.063561,-0.037902,0.24468,-0.14866,0.34277
788,0.20635,-0.089546,-0.14087,-0.10709,0.24306,-0.19673,0.30542
789,0.18784,-0.14476,-0.21005,-0.15711,0.22097,-0.37927,0.2606
790,0.16088,-0.19348,-0.26754,-0.17335,0.20928,-0.65926,0.21382
791,0.13425,-0.23603,-0.30847,-0.15808,0.22422,-0.92657,0.16445
792,0.11573,-0.26429,-0.3312,-0.11943,0.26547,-1.0614,0.11671
793,0.10729,-0.27599,-0.33802,-0.068758,0.32913,-0.99413,0.082602
794,0.10631,-0.27566,-0.3325,-0.017114,0.40838,-0.72227,0.075456
795,0.11118,-0.27566,-0.32113,0.026085,0.50225,-0.29905,0.093321
796,0.11768,-0.2854,-0.31171,0.056617,0.61009,0.19726,0.12125
797,0.12093,-0.30912,-0.30782,0.07708,0.70948,0.69486,0.13717
798,0.11606,-0.34257,-0.31106,0.088124,0.76275,1.1548,0.12548
799,0.099817,-0.3731,-0.31724,0.091696,0.75106,1.5559,0.092671
800,0.075456,-0.38772,-0.32503,0.085525,0.69097,1.87,0.057592
801,0.05207,-0.37798,-0.32958,0.067986,0.61366,2.0529,0.039078
802,0.037454,-0.33867,-0.32698,0.042326,0.54968,2.074,0.04395
803,0.028359,-0.27469,-0.31171,0.016991,0.52142,1.9476,0.069285
804,0.021213,-0.19803,-0.28605,0.003024,0.53311,1.7245,0.10209
805,0.015692,-0.12268,-0.2552,0.0043233,0.57209,1.4617,0.12905
806,0.012119,-0.061288,-0.23149,0.014392,0.61236,1.185,0.13847
807,0.012119,-0.021986,-0.22597,0.019589,0.62276,0.88455,0.13165
808,0.010495,-0.0050961,-0.24253,0.008221,0.56981,0.54415,0.11281
809,0.0052977,0.00075039,-0.27176,-0.016464,0.42657,0.15503,0.083901
810,-0.0057458,0.0036737,-0.30294,-0.045372,0.1768,-0.25877,0.049796
811,-0.021337,0.0075714,-0.32503,-0.072006,-0.1688,-0.64497,0.012768
812,-0.034004,0.013418,-0.32666,-0.094418,-0.54915,-0.94996,-0.018413
813,-0.035953,0.020239,-0.30262,-0.10871,-0.87006,-1.1429,-0.0405
814,-0.029457,0.029009,-0.25715,-0.11618,-1.0565,-1.2225,-0.053817
815,-0.019063,0.037454,-0.19446,-0.1217,-1.0958,-1.2277,-0.059339
816,-0.012892,0.047523,-0.11618,-0.12885,-1.0266,-1.216,-0.061288
817,-0.018413,0.061489,-0.017764,-0.13762,-0.91066,-1.2358,-0.059989
818,-0.036278,0.080328,0.10144,-0.14184,-0.79828,-1.303,-0.054792
819,-0.059014,0.10339,0.23104,-0.13632,-0.71707,-1.3985,-0.047646
820,-0.072656,0.13197,0.34732,-0.11748,-0.66868,-1.4891,-0.044723
821,-0.072981,0.16608,0.42917,-0.088247,-0.63587,-1.5476,-0.047646
822,-0.060638,0.20538,0.47757,-0.051544,-0.5891,-1.5638,-0.053168
823,-0.045047,0.24695,0.50095,-0.01484,-0.51082,-1.5421,-0.059339
824,-0.033354,0.28366,0.50453,0.014392,-0.41435,-1.4973,-0.065835
825,-0.029782,0.31257,0.49251,0.027385,-0.34225,-1.431,-0.071682
826,-0.032055,0.3314,0.46912,0.017316,-0.34647,-1.3436,-0.079477
827,-0.030431,0.34017,0.44736,-0.0096434,-0.44131,-1.2361,-0.092794
828,-0.017764,0.3405,0.44346,-0.037252,-0.58325,-1.1104,-0.10644
829,0.0043233,0.33693,0.45905,-0.053817,-0.70506,-0.97335,-0.11261
830,0.02706,0.33205,0.48049,-0.055116,-0.76157,-0.8392,-0.10968
831,0.044599,0.31939,0.48471,-0.047971,-0.74371,-0.71058,-0.10189
832,0.05272,0.29145,0.45418,-0.039851,-0.67095,-0.57903,-0.09117
833,0.047198,0.25085,0.38078,-0.038876,-0.57124,-0.42832,-0.078827
834,0.022512,0.20635,0.27229,-0.044073,-0.4699,-0.2448,-0.068109
835,-0.0096434,0.16478,0.15471,-0.050569,-0.38252,-0.019063,-0.060963
836,-0.031406,0.1284,0.049147,-0.056416,-0.30847,0.24923,-0.053492
837,-0.04115,0.095269,-0.034978,-0.061288,-0.23538,0.5461,-0.043099
838,-0.042774,0.058891,-0.094093,-0.05804,-0.15029,0.82804,-0.026858
839,-0.037577,0.017316,-0.12982,-0.046347,-0.048945,1.0483,-0.0096434
840,-0.026209,-0.03173,-0.15256,-0.027508,0.064737,1.1928,0.0056225
841,-0.0047713,-0.080127,-0.17042,-0.0050961,0.18557,1.3081,0.020888
842,0.028034,-0.11845,-0.18829,0.017965,0.30899,1.4695,0.041027
843,0.067661,-0.14184,-0.20583,0.040702,0.43015,1.6891,0.066037
844,0.10534,-0.15191,-0.22597,0.064737,0.53473,1.8856,0.090072
845,0.131,-0.15386,-0.24903,0.085525,0.60424,1.9554,0.096244
846,0.13262,-0.15841,-0.26787,0.098517,0.62568,1.8317,0.075456
847,0.11086,-0.16653,-0.27826,0.10047,0.59807,1.5095,0.031932
848,0.075456,-0.17302,-0.28021,0.096244,0.52889,1.0379,-0.022311
849,0.046548,-0.17237,-0.27501,0.091047,0.43404,0.51037,-0.077203
850,0.034855,-0.16198,-0.26527,0.091696,0.33173,0.033231,-0.13112
851,0.037778,-0.14541,-0.25,0.10112,0.23754,-0.32016,-0.18407
852,0.041676,-0.12722,-0.23051,0.11866,0.16121,-0.53388,-0.23441
853,0.034855,-0.11391,-0.21102,0.13782,0.10306,-0.6323,-0.28053
854,0.013743,-0.10481,-0.18471,0.16023,0.064088,-0.66251,-0.31659
855,-0.012892,-0.091495,-0.13957,0.18654,0.042326,-0.67258,-0.3325
856,-0.030756,-0.06681,-0.065835,0.21155,0.031282,-0.70246,-0.32925
857,-0.034654,-0.032055,0.03518,0.22941,0.022188,-0.76937,-0.31236
858,-0.024585,0.0072465,0.15179,0.23818,0.011144,-0.86129,-0.28995
859,-0.011592,0.041351,0.26547,0.24078,0.00010078,-0.94184,-0.27079
860,-0.0034721,0.066037,0.35317,0.24306,-0.0015233,-0.97757,-0.2526
861,-0.0011985,0.082277,0.39409,0.24695,0.017965,-0.94379,-0.22921
862,-0.0021729,0.087799,0.37363,0.25183,0.062139,-0.82946,-0.19154
863,-0.0054209,0.080328,0.30574,0.2606,0.1258,-0.6388,-0.13502
864,-0.008669,0.059865,0.22259,0.27586,0.18687,-0.4163,-0.068109
865,-0.013216,0.027385,0.15341,0.2999,0.22097,-0.24805,0.0010752
866,-0.019063,-0.013866,0.11411,0.32848,0.22389,-0.19706,0.066686
867,-0.025234,-0.057065,0.10404,0.35512,0.2057,-0.25227,0.12125
868,-0.026209,-0.087272,0.11346,0.37623,0.1781,-0.35394,0.16575
869,-0.019712,-0.089546,0.13587,0.39312,0.14756,-0.43839,0.19921
870,-0.0047713,-0.059014,0.16933,0.40708,0.11573,-0.4686,0.21805
871,0.011144,-0.0063954,0.207,0.41748,0.090072,-0.43319,0.21805
872,0.022512,0.05142,0.24013,0.41845,0.074482,-0.3429,0.20505
873,0.027385,0.10664,0.2619,0.40546,0.064088,-0.22109,0.18914
874,0.02706,0.15146,0.27456,0.37298,0.049796,-0.09994,0.17615
875,0.019264,0.18232,0.27846,0.31159,0.024461,0.0046481,0.16868
876,0.0078962,0.19336,0.27229,0.22454,-0.0073698,0.093321,0.16803
877,-0.0037969,0.18102,0.25378,0.12743,-0.041475,0.16673,0.16998
878,-0.012892,0.14951,0.22259,0.040052,-0.081101,0.22032,0.1664
879,-0.018088,0.11346,0.17939,-0.026858,-0.1308,0.26449,0.15341
880,-0.022961,0.080978,0.1297,-0.073306,-0.18829,0.33011,0.13457
881,-0.03173,0.059216,0.079679,-0.10579,-0.23668,0.48017,0.11866
882,-0.045697,0.045574,0.034855,-0.13015,-0.26234,0.77184,0.11671
883,-0.05739,0.036154,-0.0018481,-0.14736,-0.25325,1.1827,0.13165
884,-0.060313,0.028034,-0.027833,-0.15451,-0.2081,1.6137,0.15406
885,-0.054142,0.016666,-0.040175,-0.14671,-0.14087,1.9558,0.16835
886,-0.042124,0.0023744,-0.043099,-0.12527,-0.063237,2.1386,0.16705
887,-0.029132,-0.010293,-0.040175,-0.094093,0.011144,2.1172,0.15666
888,-0.017764,-0.01484,-0.034978,-0.056091,0.079029,1.8918,0.14951
889,-0.0083442,-0.010618,-0.030106,-0.016464,0.13587,1.5043,0.15536
890,-0.0011985,0.0014,-0.030106,0.016666,0.17517,1.018,0.17062
891,0.0039985,0.011144,-0.044723,0.03453,0.18751,0.52402,0.18524
892,0.01017,0.010495,-0.072006,0.037454,0.16933,0.14561,0.18719
893,0.01829,-0.0021729,-0.10676,0.028034,0.13814,-0.020687,0.1755
894,0.028034,-0.022636,-0.14119,0.015042,0.11736,0.035505,0.15958
895,0.040052,-0.048296,-0.16977,0.0056225,0.13555,0.2515,0.14984
896,0.054993,-0.077528,-0.18926,0.0062721,0.20635,0.56104,0.15503
897,0.065712,-0.10936,-0.19803,0.019914,0.32718,0.90956,0.17712
898,0.068635,-0.13729,-0.19316,0.048822,0.48894,1.235,0.20895
899,0.063113,-0.15581,-0.18179,0.089098,0.67765,1.4705,0.23883
900,0.053369,-0.15776,-0.17562,0.13262,0.87676,1.5754,0.2619
901,0.049472,-0.14119,-0.17432,0.17225,1.0733,1.5394,0.27846
902,0.059216,-0.10644,-0.17335,0.19856,1.2399,1.3523,0.29048
903,0.07773,-0.062587,-0.16295,0.20473,1.3364,0.99758,0.29243
904,0.097218,-0.017439,-0.13762,0.19499,1.338,0.51265,0.27944
905,0.11248,0.025436,-0.10221,0.17907,1.2623,-0.010293,0.24533
906,0.1219,0.069285,-0.063886,0.16445,1.1545,-0.48906,0.18816
907,0.12385,0.11281,-0.029457,0.15438,1.0522,-0.90449,0.11281
908,0.11768,0.14626,-0.0034721,0.14886,0.96608,-1.2699,0.029983
909,0.10404,0.16705,0.017316,0.14302,0.88065,-1.5882,-0.04992
910,0.084876,0.1768,0.037454,0.12937,0.77672,-1.8429,-0.11748
911,0.063438,0.17745,0.057267,0.10794,0.64647,-2.017,-0.15938
912,0.047523,0.17127,0.071883,0.078704,0.49836,-2.0936,-0.17497
913,0.038753,0.15893,0.078379,0.040377,0.33855,-2.0751,-0.17432
914,0.030308,0.14464,0.078379,-0.0089938,0.13425,-1.9871,-0.16945
915,0.017316,0.13132,0.06896,-0.068758,-0.19251,-1.8727,-0.16782
916,0.00075039,0.11541,0.054668,-0.13275,-0.67517,-1.7711,-0.17075
917,-0.016464,0.097868,0.042326,-0.18861,-1.2351,-1.6986,-0.18049
918,-0.031081,0.080328,0.03583,-0.22337,-1.7016,-1.6512,-0.18764
919,-0.039201,0.064088,0.033556,-0.22954,-1.9289,-1.5954,-0.18277
920,-0.035953,0.050121,0.030308,-0.20875,-1.8692,-1.4658,-0.15873
921,-0.024585,0.03453,0.028359,-0.17172,-1.5869,-1.2043,-0.11586
922,-0.013216,0.018615,0.029658,-0.13275,-1.2066,-0.81582,-0.057715
923,-0.0060706,0.0072465,0.034855,-0.10514,-0.84732,-0.37213,0.0075714
924,-0.0024977,-0.00054884,0.038103,-0.097991,-0.58358,0.019589,0.065712
925,-0.0044465,-0.0031473,0.032257,-0.11683,-0.43547,0.27814,0.10469
926,-0.010293,-0.0011985,0.013093,-0.15288,-0.38025,0.38337,0.11411
927,-0.013541,0.0033489,-0.016464,-0.19251,-0.37798,0.37785,0.099167
928,-0.011917,0.0075714,-0.047646,-0.22597,-0.39064,0.34082,0.069285
929,-0.012242,0.0095202,-0.076554,-0.2513,-0.39584,0.3405,0.032906
930,-0.019712,0.0069217,-0.10319,-0.27436,-0.39064,0.39507,-0.0015233
931,-0.030431,-0.00022403,-0.13275,-0.30002,-0.37798,0.47724,-0.028807
932,-0.039851,-0.0067202,-0.1623,-0.32601,-0.36109,0.53571,-0.047321
933,-0.047321,-0.012242,-0.18504,-0.34744,-0.34355,0.52402,-0.059014
934,-0.052193,-0.017114,-0.19511,-0.35816,-0.32503,0.42332,-0.071682
935,-0.058689,-0.022961,-0.19771,-0.35426,-0.30749,0.23624,-0.090845
936,-0.06616,-0.022636,-0.19836,-0.3377,-0.29482,-0.00054884,-0.11326
937,-0.072981,-0.012567,-0.19738,-0.31756,-0.28248,-0.21687,-0.1321
938,-0.073955,0.0049729,-0.18764,-0.30457,-0.26072,-0.33153,-0.14509
939,-0.064861,0.019589,-0.16555,-0.30424,-0.22467,-0.28898,-0.14996
940,-0.051868,0.027385,-0.13729,-0.30912,-0.174,-0.097666,-0.14509
941,-0.039526,0.025111,-0.10709,-0.30619,-0.10774,0.15828,-0.13047
942,-0.028157,0.014392,-0.079152,-0.2867,-0.035628,0.38078,-0.10774
943,-0.01484,-0.0018481,-0.054792,-0.25682,0.026735,0.49056,-0.086298
944,0.0010752,-0.01614,-0.034978,-0.22694,0.070909,0.44216,-0.075904
945,0.014392,-0.026858,-0.016789,-0.2068,0.090722,0.24566,-0.079802
946,0.024786,-0.038551,0.0023744,-0.19219,0.084551,-0.030106,-0.097341
947,0.025761,-0.051544,0.031607,-0.1701,0.056942,-0.31691,-0.11975
948,0.013418,-0.062912,0.075456,-0.12138,0.015042,-0.5904,-0.14184
949,-0.0041217,-0.067459,0.13035,-0.03303,-0.032055,-0.84212,-0.15386
950,-0.022311,-0.065835,0.19141,0.10014,-0.072981,-1.0419,-0.15061
951,-0.037577,-0.061613,0.2541,0.26482,-0.10026,-1.1205,-0.13372
952,-0.046996,-0.059339,0.31159,0.43307,-0.11326,-0.99901,-0.11131
953,-0.051219,-0.059339,0.35739,0.56689,-0.11553,-0.63685,-0.085324
954,-0.053817,-0.060313,0.38597,0.63737,-0.10871,-0.044398,-0.053168
955,-0.053168,-0.056416,0.39507,0.6325,-0.089871,0.72572,-0.007045
956,-0.044398,-0.045047,0.38337,0.55455,-0.055441,1.5796,0.054344
957,-0.026858,-0.024585,0.3457,0.41878,-0.0044465,2.3988,0.11541
958,-0.0063954,0.0017248,0.27846,0.25183,0.057267,3.0653,0.16933
959,0.013418,0.026735,0.18459,0.086824,0.12743,3.4989,0.21447
960,0.02706,0.038428,0.076106,-0.034978,0.19921,3.6821,0.24501
961,0.031607,0.038753,-0.028807,-0.074605,0.26579,3.6604,0.258
962,0.029983,0.02641,-0.11001,-0.015815,0.31614,3.5058,0.2541
963,0.025436,0.0059473,-0.15646,0.11443,0.34017,3.2618,0.23624
964,0.019589,-0.014191,-0.16653,0.25378,0.33075,2.936,0.20928
965,0.014068,-0.030431,-0.14866,0.33823,0.2921,2.5362,0.1742
966,0.0088706,-0.04115,-0.11228,0.3353,0.23689,2.1026,0.13262
967,-0.00054884,-0.044723,-0.067784,0.25183,0.19076,1.694,0.087799
968,-0.01549,-0.045697,-0.019063,0.12937,0.18362,1.337,0.041351
969,-0.03238,-0.047646,0.030957,0.016341,0.22357,1.0203,-0.00054884
970,-0.044398,-0.051219,0.076106,-0.05804,0.30087,0.70493,-0.030756
971,-0.04927,-0.056416,0.11183,-0.089871,0.3863,0.35349,-0.046996
972,-0.045697,-0.059014,0.13327,-0.093119,0.44963,-0.051219,-0.059014
973,-0.0405,-0.057065,0.14302,-0.0824,0.47172,-0.49556,-0.073631
974,-0.036927,-0.051219,0.14302,-0.070707,0.44411,-0.9321,-0.092145
975,-0.034654,-0.044073,0.13652,-0.058365,0.33043,-1.3089,-0.10903
976,-0.030431,-0.042774,0.12775,-0.048945,0.072533,-1.5931,-0.11391
977,-0.022961,-0.046996,0.11801,-0.045047,-0.32633,-1.7639,-0.10026
978,-0.013541,-0.04992,0.10859,-0.044723,-0.7619,-1.8114,-0.065835
979,-0.0054209,-0.04862,0.10339,-0.043099,-1.0971,-1.7607,-0.017114
980,0.00042559,-0.042124,0.10469,-0.04115,-1.241,-1.6675,0.033556
981,0.0033489,-0.027833,0.11378,-0.037902,-1.1851,-1.5736,0.070584
982,0.0043233,-0.0093186,0.12418,-0.034329,-0.98472,-1.4885,0.085525
983,0.0065969,0.012443,0.12613,-0.031081,-0.7187,-1.3852,0.080003
984,0.014068,0.031282,0.11281,-0.027508,-0.45625,-1.2277,0.065387
985,0.029983,0.042326,0.087474,-0.024585,-0.24123,-1.0237,0.048822
986,0.051745,0.046223,0.058241,-0.022311,-0.087272,-0.83498,0.028034
987,0.071234,0.045249,0.036154,-0.010943,0.025436,-0.73461,0.0033489
988,0.080653,0.046548,0.027709,0.01764,0.12937,-0.76677,-0.025884
989,0.078055,0.057267,0.035505,0.065387,0.2502,-0.9191,-0.059014
990,0.067336,0.078379,0.055318,0.12678,0.38825,-1.1286,-0.090845
991,0.054344,0.10177,0.079029,0.18362,0.52337,-1.3163,-0.10936
992,0.046548,0.11963,0.10047,0.21512,0.63153,-1.4563,-0.11228
993,0.044924,0.12807,0.11541,0.20635,0.69811,-1.5635,-0.11098
994,0.046223,0.12743,0.12125,0.15633,0.7137,-1.6593,-0.11813
995,0.047847,0.11671,0.11411,0.083576,0.66855,-1.7337,-0.13112
996,0.054019,0.10112,0.087149,0.0085458,0.56527,-1.7464,-0.14087
997,0.063438,0.086824,0.033556,-0.047971,0.42397,-1.6577,-0.13307
998,0.074157,0.078704,-0.037252,-0.080127,0.27651,-1.456,-0.10254
999,0.078704,0.074806,-0.10319,-0.088896,0.15179,-1.1838,-0.05739
1000,0.073507,0.072533,-0.13404,-0.084024,0.055968,-0.91748,-0.013541
1001,0.06019,0.073182,-0.10546,-0.069408,-0.023935,-0.71707,0.024137
1002,0.048172,0.080978,-0.019388,-0.050244,-0.088572,-0.58553,0.058241
1003,0.043625,0.10274,0.09397,-0.030431,-0.10611,-0.4962,0.095594
1004,0.048822,0.13749,0.19076,-0.016789,-0.037902,-0.42475,0.13555
1005,0.061814,0.17647,0.23104,-0.015165,0.10794,-0.36466,0.1677
1006,0.082602,0.21025,0.19661,-0.025234,0.27781,-0.28508,0.18589
1007,0.11443,0.23039,0.098193,-0.04115,0.40936,-0.10091,0.19304
1008,0.15471,0.23624,-0.03238,-0.05739,0.46977,0.23656,0.19726
1009,0.19174,0.22682,-0.16035,-0.066485,0.45775,0.62568,0.19921
1010,0.21512,0.19986,-0.26072,-0.062262,0.39084,0.87156,0.19044
1011,0.21447,0.15861,-0.31951,-0.041475,0.28918,0.83713,0.15991
1012,0.18946,0.10989,-0.33802,0.0017248,0.15244,0.53863,0.10761
1013,0.14724,0.057267,-0.31951,0.066686,-0.0099683,0.11378,0.039727
1014,0.10306,0.0017248,-0.26819,0.13814,-0.16068,-0.27241,-0.029782
1015,0.067336,-0.054142,-0.19608,0.19758,-0.25292,-0.50497,-0.084999
1016,0.046223,-0.10189,-0.12203,0.22877,-0.26039,-0.54752,-0.11326
1017,0.037778,-0.13145,-0.05804,0.22844,-0.19154,-0.43059,-0.11748
1018,0.033556,-0.14281,-0.011592,0.20928,-0.076879,-0.22726,-0.11066
1019,0.021213,-0.13794,0.01017,0.18849,0.052395,-0.010943,-0.11033
1020,-0.0011985,-0.1178,0.0020496,0.1729,0.16738,0.16998,-0.123
1021,-0.029132,-0.090196,-0.033354,0.15081,0.2476,0.29373,-0.14216
1022,-0.054142,-0.068758,-0.089221,0.10891,0.28268,0.36194,-0.15905
1023,-0.073631,-0.062912,-0.15776,0.037778,0.27002,0.38695,-0.174
1024,-0.088247,-0.076554,-0.22564,-0.057065,0.2109,0.39084,-0.18439
1025,-0.10059,-0.10774,-0.28313,-0.16425,0.12613,0.40741,-0.18536
1026,-0.10709,-0.14996,-0.32633,-0.27079,0.046873,0.47789,-0.17692
1027,-0.10546,-0.19283,-0.35329,-0.36563,0.0046481,0.63218,-0.15646
1028,-0.09994,-0.23019,-0.36401,-0.43904,0.0043233,0.84915,-0.12138
1029,-0.092794,-0.25,-0.35946,-0.47737,0.029983,1.0427,-0.073306
1030,-0.086623,-0.24805,-0.3364,-0.46372,0.055968,1.1074,-0.018088
1031,-0.078178,-0.22564,-0.2945,-0.38967,0.053044,0.9729,0.03453
1032,-0.06616,-0.18536,-0.24318,-0.26819,0.0036737,0.64322,0.077405
1033,-0.052518,-0.13762,-0.19348,-0.11878,-0.097017,0.19628,0.10956
1034,-0.040175,-0.090845,-0.15191,0.027385,-0.23279,-0.26624,0.13782
1035,-0.030431,-0.051868,-0.11651,0.14399,-0.37635,-0.65016,0.16933
1036,-0.023285,-0.01614,-0.082076,0.2148,-0.48549,-0.87753,0.2044
1037,-0.012892,0.01829,-0.044073,0.24078,-0.51342,-0.923,0.24013
1038,0.0020496,0.050121,-0.0063954,0.23429,-0.44294,-0.8418,0.27002
1039,0.020888,0.075131,0.023487,0.20278,-0.29645,-0.73656,0.28268
1040,0.036479,0.092021,0.036479,0.15114,-0.11196,-0.69239,0.27326
1041,0.038428,0.098517,0.038103,0.088448,0.080653,-0.72714,0.24793
1042,0.02706,0.093321,0.040702,0.033881,0.25832,-0.79958,0.21317
1043,0.010819,0.078055,0.055968,-0.00022403,0.38727,-0.84375,0.17517
1044,-0.0047713,0.061814,0.083576,-0.0093186,0.42852,-0.8025,0.14172
1045,-0.012892,0.05142,0.11021,-0.0057458,0.35869,-0.61379,0.11768
1046,-0.011267,0.042975,0.12223,-0.00054884,0.19596,-0.21655,0.10696
1047,-0.0047713,0.033881,0.11151,-0.0024977,0.00042559,0.41293,0.10859
1048,0.0033489,0.020888,0.080653,-0.017114,-0.16523,1.2168,0.11671
1049,0.014068,0.0072465,0.043625,-0.043423,-0.26234,2.0805,0.1297
1050,0.028684,0.0043233,0.017316,-0.073306,-0.27891,2.8587,0.15081
1051,0.041676,0.020564,0.014392,-0.094093,-0.22694,3.4002,0.17874
1052,0.050446,0.057592,0.03583,-0.097991,-0.12755,3.5909,0.20668
1053,0.053369,0.10956,0.072858,-0.081426,-0.012892,3.4109,0.22779
1054,0.050771,0.169,0.10956,-0.047646,0.076106,2.9321,0.23851
1055,0.042326,0.2187,0.12905,-0.0011985,0.11801,2.2867,0.23429
1056,0.032257,0.24566,0.13067,0.05142,0.13197,1.628,0.2187
1057,0.019914,0.2489,0.1219,0.10339,0.1638,1.0768,0.20116
1058,0.0062721,0.23299,0.11054,0.14789,0.25475,0.68837,0.18654
1059,-0.0083442,0.20246,0.098193,0.17874,0.4152,0.44184,0.16738
1060,-0.019388,0.16153,0.083901,0.19304,0.61236,0.27294,0.1362
1061,-0.026858,0.11898,0.070584,0.18622,0.78549,0.11054,0.091047
1062,-0.030431,0.079679,0.06019,0.15861,0.87286,-0.0824,0.036479
1063,-0.033354,0.048172,0.055318,0.1219,0.8485,-0.29223,-0.01614
1064,-0.040175,0.021213,0.056942,0.086175,0.73157,-0.46665,-0.056091
1065,-0.050569,-0.00087364,0.054993,0.062789,0.56429,-0.55467,-0.078827
1066,-0.062262,-0.01614,0.038753,0.05272,0.36713,-0.55759,-0.088572
1067,-0.074605,-0.028482,0.0020496,0.054019,0.10469,-0.52122,-0.097666
1068,-0.084674,-0.039201,-0.04862,0.062464,-0.26169,-0.4962,-0.11423
1069,-0.093119,-0.053817,-0.099615,0.070584,-0.68914,-0.49978,-0.14281
1070,-0.09994,-0.070382,-0.13892,0.075131,-1.0409,-0.51634,-0.17789
1071,-0.10351,-0.085648,-0.16133,0.074482,-1.1666,-0.51959,-0.2016
1072,-0.10091,-0.095068,-0.16523,0.075456,-1.0039,-0.48484,-0.20031
1073,-0.088247,-0.097341,-0.14769,0.079354,-0.63262,-0.41565,-0.17627
1074,-0.06551,-0.095393,-0.11261,0.084551,-0.21979,-0.34582,-0.14119
1075,-0.037577,-0.095068,-0.070707,0.090397,0.076755,-0.30002,-0.10156
1076,-0.010293,-0.097991,-0.035303,0.094295,0.18914,-0.27793,-0.064861
1077,0.0075714,-0.10384,-0.0096434,0.10112,0.14269,-0.29158,-0.038551
1078,0.016016,-0.10351,0.014392,0.11573,0.01894,-0.34614,-0.025559
1079,0.01764,-0.089871,0.045899,0.13879,-0.092794,-0.41176,-0.026533
1080,0.010819,-0.062912,0.082277,0.16835,-0.14314,-0.43417,-0.042124
1081,-0.0015233,-0.023935,0.11346,0.20278,-0.12138,-0.35784,-0.071357
1082,-0.012567,0.01764,0.1258,0.22519,-0.043748,-0.16035,-0.10774
1083,-0.020687,0.054668,0.11866,0.22812,0.061489,0.1206,-0.14022
1084,-0.024909,0.087799,0.10306,0.21025,0.15926,0.39247,-0.16003
1085,-0.025234,0.11898,0.086824,0.18004,0.22259,0.5565,-0.16425
1086,-0.025559,0.14821,0.071234,0.14432,0.23201,0.56819,-0.15321
1087,-0.028807,0.17485,0.048822,0.10924,0.1755,0.4269,-0.13177
1088,-0.030756,0.19434,0.022512,0.073832,0.044599,0.14464,-0.11001
1089,-0.027508,0.2083,-0.0041217,0.03518,-0.15548,-0.24935,-0.097341
1090,-0.017764,0.21772,-0.028482,-0.0093186,-0.39519,-0.67745,-0.09994
1091,-0.0050961,0.22065,-0.041799,-0.056091,-0.61184,-1.0396,-0.11033
1092,0.008221,0.21415,-0.035628,-0.10026,-0.74111,-1.2689,-0.12138
1093,0.021213,0.19823,-0.013866,-0.13697,-0.75475,-1.3573,-0.1256
1094,0.033881,0.17712,0.019264,-0.16035,-0.6742,-1.343,-0.12365
1095,0.042651,0.15503,0.056942,-0.16685,-0.55337,-1.2728,-0.12203
1096,0.043625,0.13197,0.087149,-0.15938,-0.44748,-1.1825,-0.1282
1097,0.034855,0.10989,0.10274,-0.14119,-0.39194,-1.0867,-0.14931
1098,0.020564,0.088124,0.098517,-0.1191,-0.38934,-0.98049,-0.18082
1099,0.011144,0.066362,0.076431,-0.097991,-0.41533,-0.85577,-0.21265
1100,0.0078962,0.044599,0.043625,-0.087922,-0.44099,-0.71155,-0.23733
1101,0.0095202,0.021213,0.011144,-0.089221,-0.45138,-0.55857,-0.25033
1102,0.012443,0.00010078,-0.0099683,-0.10124,-0.44131,-0.41435,-0.25162
1103,0.015367,-0.017764,-0.011592,-0.11683,-0.4176,-0.28703,-0.24545
1104,0.019264,-0.04115,0.0043233,-0.1308,-0.38837,-0.1675,-0.23733
1105,0.024786,-0.073306,0.030633,-0.13924,-0.36044,-0.041475,-0.22499
1106,0.031607,-0.10676,0.060515,-0.13892,-0.33737,0.092021,-0.20031
1107,0.041027,-0.13567,0.093645,-0.12495,-0.31301,0.21512,-0.15776
1108,0.053369,-0.16035,0.131,-0.096042,-0.27144,0.32523,-0.096042
1109,0.068635,-0.17952,0.17452,-0.058365,-0.20258,0.44574,-0.020687
1110,0.088448,-0.19381,0.22129,-0.022311,-0.10871,0.5906,0.056942
1111,0.11183,-0.20388,0.26287,0.00075039,-0.008669,0.74034,0.1258
1112,0.13684,-0.20972,0.28008,0.011794,0.082602,0.86084,0.17874
1113,0.16023,-0.21005,0.26222,0.021538,0.16965,0.93555,0.21805
1114,0.17842,-0.20583,0.21123,0.04395,0.26969,0.97225,0.24825
1115,0.18427,-0.20096,0.14691,0.081952,0.39896,0.9664,0.26969
1116,0.17615,-0.20031,0.097218,0.13522,0.5578,0.89397,0.27944
1117,0.15828,-0.20063,0.07773,0.19174,0.71695,0.72962,0.27651
1118,0.13814,-0.19933,0.080003,0.24046,0.82641,0.48082,0.26255
1119,0.11801,-0.19608,0.092346,0.27002,0.85662,0.18816,0.24111
1120,0.097543,-0.18894,0.10696,0.28138,0.81244,-0.09117,0.21285
1121,0.079354,-0.16945,0.13067,0.28236,0.71922,-0.30944,0.18134
1122,0.06831,-0.12917,0.1742,0.27911,0.59482,-0.44748,0.15049
1123,0.065062,-0.070707,0.23396,0.27294,0.45873,-0.51862,0.11963
1124,0.066686,-0.0047713,0.28658,0.2619,0.34115,-0.5537,0.089423
1125,0.067661,0.057917,0.31094,0.24371,0.26157,-0.5865,0.062789
1126,0.061489,0.11118,0.29892,0.21902,0.23006,-0.64821,0.0433
1127,0.048497,0.15438,0.25475,0.18654,0.23591,-0.74761,0.029983
1128,0.031932,0.17972,0.19726,0.14302,0.25215,-0.8483,0.017965
1129,0.017316,0.18979,0.14691,0.090722,0.2593,-0.88435,0.012119
1130,0.0095202,0.18946,0.11833,0.038753,0.24501,-0.79405,0.019264
1131,0.012768,0.19109,0.10891,-0.0024977,0.20505,-0.54655,0.040702
1132,0.024461,0.20148,0.10891,-0.024585,0.13132,-0.17075,0.072533
1133,0.032906,0.21675,0.10566,-0.033679,0.0033489,0.23981,0.10729
1134,0.032906,0.22617,0.088448,-0.040175,-0.18666,0.56851,0.13522
1135,0.024137,0.21805,0.054344,-0.050894,-0.4137,0.73774,0.14821
1136,0.0095202,0.18979,0.013743,-0.071357,-0.61054,0.73287,0.15373
1137,-0.0024977,0.14626,-0.017439,-0.09994,-0.71058,0.58898,0.16056
1138,-0.0067202,0.10079,-0.034654,-0.12625,-0.68524,0.36616,0.1768
1139,-0.0021729,0.065062,-0.046347,-0.13859,-0.55272,0.12937,0.20603
1140,0.0091954,0.042326,-0.067459,-0.13437,-0.35751,-0.070058,0.24923
1141,0.029009,0.029983,-0.10319,-0.11943,-0.15451,-0.19413,0.30217
1142,0.05272,0.023812,-0.14866,-0.10351,0.014717,-0.21557,0.34829
1143,0.072858,0.018615,-0.19738,-0.089546,0.1284,-0.1282,0.36713
1144,0.089423,0.008221,-0.24935,-0.077528,0.18102,0.044275,0.35154
1145,0.099817,-0.011267,-0.30782,-0.06616,0.17745,0.23331,0.30899
1146,0.10014,-0.041799,-0.36109,-0.052843,0.13165,0.34829,0.24955
1147,0.083576,-0.076554,-0.39422,-0.033679,0.067336,0.32069,0.17874
1148,0.053044,-0.10709,-0.39292,0.0014,0.0078962,0.14269,0.099817
1149,0.021213,-0.12333,-0.35556,0.06084,-0.034329,-0.13957,0.024461
1150,-0.0044465,-0.11845,-0.28898,0.13847,-0.061937,-0.45106,-0.039851
1151,-0.021986,-0.092145,-0.2094,0.21155,-0.082076,-0.72649,-0.088247
1152,-0.036602,-0.053817,-0.14152,0.25637,-0.10026,-0.9295,-0.1217
1153,-0.054142,-0.017764,-0.096042,0.26417,-0.11683,-1.0516,-0.13924
1154,-0.072981,0.0088706,-0.072656,0.2489,-0.12982,-1.1029,-0.14541
1155,-0.087272,0.022188,-0.063886,0.22909,-0.12885,-1.0913,-0.14281
1156,-0.093119,0.029658,-0.063561,0.21577,-0.10774,-1.0227,-0.14476
1157,-0.093769,0.039402,-0.063237,0.20863,-0.07493,-0.91293,-0.15613
1158,-0.092794,0.049796,-0.065835,0.19011,-0.04992,-0.7934,-0.17789
1159,-0.092469,0.061489,-0.072981,0.14496,-0.045372,-0.7096,-0.21395
1160,-0.094743,0.073507,-0.080776,0.069934,-0.056416,-0.70408,-0.26397
1161,-0.10124,0.0865,-0.088896,-0.019063,-0.06551,-0.77456,-0.31951
1162,-0.11521,0.099492,-0.10059,-0.10546,-0.05739,-0.87201,-0.36401
1163,-0.13404,0.10729,-0.11845,-0.17659,-0.030106,-0.93697,-0.38902
1164,-0.15191,0.10274,-0.14119,-0.22499,0.0069217,-0.93664,-0.39487
1165,-0.16555,0.084551,-0.1636,-0.24935,0.032906,-0.86064,-0.38447
1166,-0.17302,0.058566,-0.18277,-0.26007,0.033231,-0.69694,-0.36044
1167,-0.17497,0.03453,-0.19608,-0.26884,0.0062721,-0.43027,-0.32438
1168,-0.16815,0.024461,-0.2029,-0.27956,-0.035953,-0.064536,-0.27631
1169,-0.15126,0.029333,-0.19998,-0.28638,-0.077203,0.36194,-0.22174
1170,-0.12722,0.036154,-0.18634,-0.28443,-0.10709,0.8014,-0.16685
1171,-0.10156,0.028684,-0.16555,-0.27209,-0.12105,1.2292,-0.10968
1172,-0.077853,0.00010078,-0.14152,-0.2526,-0.11131,1.6293,-0.041475
1173,-0.056741,-0.046022,-0.11586,-0.22467,-0.073955,1.9889,0.046223
1174,-0.037252,-0.090521,-0.09117,-0.18407,-0.010618,2.2536,0.15114
1175,-0.017439,-0.11456,-0.06681,-0.13307,0.06896,2.3585,0.2593
1176,-0.0011985,-0.11391,-0.044398,-0.078503,0.14626,2.2854,0.34277
1177,0.011794,-0.09182,-0.02361,-0.035628,0.21155,2.0685,0.3811
1178,0.026085,-0.055116,-0.0028225,-0.010943,0.26937,1.7726,0.36778
1179,0.0433,-0.008669,0.020564,-0.0024977,0.33465,1.4728,0.32361
1180,0.063438,0.042975,0.053044,0.00010078,0.43015,1.2233,0.28138
1181,0.087149,0.09397,0.094945,0.0065969,0.55162,1.0645,0.27099
1182,0.11281,0.14139,0.14659,0.021538,0.66953,1.0151,0.30087
1183,0.14237,0.18329,0.20473,0.0433,0.74261,1.0518,0.35349
1184,0.1677,0.21707,0.26742,0.064737,0.74034,1.0866,0.39831
1185,0.18297,0.23948,0.3314,0.081303,0.65329,1.0288,0.40254
1186,0.18946,0.24533,0.3824,0.092346,0.50648,0.84915,0.35317
1187,0.18687,0.23331,0.40091,0.095594,0.347,0.57858,0.26157
1188,0.16803,0.20473,0.37298,0.08585,0.21707,0.26644,0.15341
1189,0.13587,0.1664,0.29892,0.059216,0.13522,-0.034978,0.051745
1190,0.095269,0.12937,0.19986,0.025761,0.10177,-0.27469,-0.025234
1191,0.05272,0.095269,0.10761,-0.0024977,0.097543,-0.41013,-0.068758
1192,0.017316,0.063763,0.039078,-0.019388,0.098193,-0.41533,-0.091495
1193,-0.0093186,0.036154,0.003024,-0.025234,0.087149,-0.2919,-0.10319
1194,-0.026858,0.011794,-0.007045,-0.019712,0.062464,-0.052193,-0.10676
1195,-0.031081,-0.0083442,-0.0047713,-0.0089938,0.033881,0.2528,-0.10059
1196,-0.02426,-0.019712,-0.0050961,0.0017248,0.009845,0.52629,-0.082725
1197,-0.011267,-0.022636,-0.015815,0.0072465,-0.0041217,0.6744,-0.060313
1198,0.00010078,-0.016789,-0.033354,0.0065969,-0.019063,0.66466,-0.044723
1199,0.0056225,-0.0089938,-0.046347,-0.00054884,-0.04862,0.53181,-0.037902
1200,0.00075039,-0.0047713,-0.046996,-0.0021729,-0.098316,0.35512,-0.037577
1201,-0.011267,-0.0076946,-0.030756,0.016666,-0.16782,0.2122,-0.0405
1202,-0.02426,-0.013866,-0.00054884,0.063763,-0.2474,0.13327,-0.039526
1203,-0.03303,-0.020362,0.042651,0.14399,-0.31009,0.073182,-0.027508
1204,-0.034654,-0.021986,0.10436,0.25767,-0.33315,-0.054792,-0.0021729
1205,-0.030106,-0.011917,0.18654,0.39377,-0.30652,-0.30067,0.029658
1206,-0.017439,0.0095202,0.27749,0.52499,-0.23993,-0.61021,0.059216
1207,-0.0034721,0.03583,0.35122,0.61561,-0.15451,-0.86486,0.081952
1208,0.0072465,0.062139,0.37753,0.63445,-0.080776,-0.96198,0.098842
1209,0.009845,0.084876,0.34245,0.56949,-0.038876,-0.86584,0.10826
1210,0.0056225,0.099817,0.258,0.43437,-0.024585,-0.60826,0.10696
1211,-0.0028225,0.10664,0.16056,0.26742,-0.0080194,-0.2578,0.10014
1212,-0.013216,0.10729,0.089098,0.11931,0.047523,0.11476,0.093645
1213,-0.020362,0.10664,0.059216,0.022512,0.14691,0.45191,0.093645
1214,-0.025234,0.10924,0.055968,-0.012892,0.26807,0.7111,0.10274
1215,-0.030431,0.11411,0.056617,-0.0028225,0.37006,0.85954,0.11541
1216,-0.037577,0.11638,0.047198,0.016016,0.41878,0.87546,0.12418
1217,-0.046022,0.10891,0.028684,0.0043233,0.40319,0.73611,0.1232
1218,-0.055441,0.091696,0.0039985,-0.05804,0.31744,0.41813,0.10891
1219,-0.064211,0.064737,-0.028482,-0.1688,0.13327,-0.072331,0.079679
1220,-0.071682,0.031932,-0.067459,-0.301,-0.19446,-0.6716,0.038753
1221,-0.077203,-0.00054884,-0.11131,-0.41793,-0.65081,-1.2764,-0.0099683
1222,-0.081426,-0.029782,-0.15418,-0.49101,-1.125,-1.7746,-0.058689
1223,-0.085324,-0.051868,-0.18114,-0.51082,-1.4768,-2.0783,-0.098965
1224,-0.084674,-0.062262,-0.17465,-0.47477,-1.6139,-2.1501,-0.12333
1225,-0.076554,-0.05739,-0.12787,-0.37992,-1.5304,-1.988,-0.12463
1226,-0.061937,-0.037577,-0.059989,-0.23019,-1.2871,-1.6106,-0.10514
1227,-0.045697,-0.0080194,0.00042559,-0.051868,-0.97497,-1.0597,-0.070058
1228,-0.028807,0.022837,0.03453,0.11151,-0.68232,-0.43871,-0.033354
1229,-0.0099683,0.056942,0.046223,0.21935,-0.46048,0.10144,-0.0099683
1230,0.0088706,0.10112,0.052395,0.25605,-0.32243,0.40319,-0.013866
1231,0.019589,0.15731,0.062464,0.22519,-0.24935,0.37785,-0.051219
1232,0.019914,0.20733,0.074806,0.15276,-0.20778,0.035505,-0.11521
1233,0.012443,0.22714,0.080978,0.070909,-0.15678,-0.50205,-0.18342
1234,0.0052977,0.20538,0.074482,0.0072465,-0.063886,-1.0662,-0.23311
1235,0.0065969,0.14854,0.054668,-0.029132,0.080653,-1.5187,-0.2552
1236,0.011794,0.080978,0.023812,-0.035303,0.26157,-1.7798,-0.25195
1237,0.020239,0.022188,-0.012567,-0.018413,0.45646,-1.8224,-0.22597
1238,0.033556,-0.021337,-0.047971,0.011469,0.63672,-1.6574,-0.18277
1239,0.050446,-0.057065,-0.070707,0.042651,0.77347,-1.3498,-0.12982
1240,0.065062,-0.094093,-0.081101,0.059541,0.8485,-1.0094,-0.081101
1241,0.072533,-0.13275,-0.07493,0.05272,0.85207,-0.74046,-0.050569
1242,0.069934,-0.16782,-0.04927,0.025111,0.78971,-0.56994,-0.046347
1243,0.058241,-0.18731,-0.00087364,-0.012567,0.67765,-0.44131,-0.062912
1244,0.0433,-0.18829,0.063113,-0.047321,0.53766,-0.27014,-0.0837
1245,0.030957,-0.17952,0.13165,-0.063886,0.39247,0.0026992,-0.090845
1246,0.023487,-0.17659,0.19239,-0.052193,0.26872,0.36356,-0.074605
1247,0.023812,-0.19316,0.23461,-0.012567,0.18069,0.71695,-0.042449
1248,0.029333,-0.23409,0.24013,0.042326,0.1258,0.94691,-0.011592
1249,0.036804,-0.29515,0.19693,0.095269,0.095269,0.98037,-0.0015233
1250,0.039727,-0.36758,0.10956,0.13197,0.084551,0.82349,-0.017764
1251,0.037129,-0.43969,0.0049729,0.14204,0.084226,0.55682,-0.053817
1252,0.028359,-0.49978,-0.087597,0.12483,0.084551,0.2973,-0.096692
1253,0.016016,-0.54135,-0.15548,0.088448,0.081952,0.15081,-0.13047
1254,0.0043233,-0.56052,-0.20031,0.038428,0.087474,0.2109,-0.13957
1255,-0.0024977,-0.5485,-0.24091,-0.015165,0.12548,0.54155,-0.11748
1256,-0.0018481,-0.50205,-0.29255,-0.070707,0.21155,1.11,-0.062262
1257,0.0039985,-0.42052,-0.36141,-0.12235,0.33173,1.7398,0.016016
1258,0.011144,-0.31626,-0.43417,-0.16945,0.44509,2.2085,0.089748
1259,0.016666,-0.20128,-0.49003,-0.20843,0.50713,2.3764,0.1362
1260,0.020888,-0.087272,-0.51407,-0.23506,0.49478,2.2504,0.15114
1261,0.026735,0.019914,-0.49458,-0.24578,0.41683,1.946,0.14139
1262,0.032906,0.11443,-0.4241,-0.23668,0.30802,1.6043,0.11768
1263,0.040377,0.19271,-0.30619,-0.20875,0.21805,1.3068,0.09397
1264,0.047523,0.25507,-0.16035,-0.16912,0.17939,1.0567,0.078055
1265,0.058241,0.29892,-0.01484,-0.12527,0.19174,0.81732,0.072208
1266,0.073507,0.31874,0.10209,-0.085324,0.22357,0.56494,0.070584
1267,0.090072,0.31679,0.16738,-0.054142,0.24111,0.3012,0.067986
1268,0.10761,0.30087,0.17387,-0.033679,0.22552,0.058891,0.065387
1269,0.12548,0.27554,0.13035,-0.022961,0.17582,-0.10838,0.061489
1270,0.13717,0.23786,0.054344,-0.021661,0.10404,-0.15743,0.058241
1271,0.13717,0.18849,-0.024585,-0.029782,0.020564,-0.082725,0.061489
1272,0.131,0.1323,-0.077853,-0.046347,-0.067134,0.07708,0.07773
1273,0.12385,0.080978,-0.095393,-0.063237,-0.15483,0.26644,0.10664
1274,0.11833,0.041351,-0.081101,-0.07493,-0.23214,0.43762,0.13814
1275,0.11411,0.016666,-0.050244,-0.077528,-0.29255,0.56657,0.15796
1276,0.11281,0.0085458,-0.01549,-0.071357,-0.3364,0.64419,0.16478
1277,0.11606,0.015692,0.016016,-0.056416,-0.36563,0.6692,0.16543
1278,0.12353,0.03518,0.048822,-0.034978,-0.39097,0.64647,0.16478
1279,0.13002,0.056942,0.081303,-0.015815,-0.4215,0.58605,0.1677
1280,0.1297,0.070259,0.10664,-0.011917,-0.46437,0.50095,0.16998
1281,0.11541,0.064413,0.11118,-0.033679,-0.51764,0.39637,0.1664
1282,0.0865,0.037454,0.088124,-0.074605,-0.57253,0.25995,0.15373
1283,0.050771,-0.0057458,0.042651,-0.11845,-0.60989,0.081627,0.13425
1284,0.013743,-0.056416,-0.0099683,-0.14801,-0.60859,-0.13892,0.11313
1285,-0.021661,-0.10254,-0.055441,-0.15483,-0.55012,-0.39259,0.091372
1286,-0.052518,-0.13404,-0.087597,-0.14119,-0.40753,-0.65244,0.06896
1287,-0.074605,-0.14639,-0.10286,-0.11586,-0.1649,-0.88013,0.050771
1288,-0.088247,-0.12982,-0.094093,-0.085973,0.16088,-1.0468,0.039727
1289,-0.092794,-0.081751,-0.055766,-0.049595,0.50745,-1.1465,0.038428
1290,-0.087597,-0.0080194,0.0091954,0.0026992,0.79361,-1.1929,0.049796
1291,-0.075579,0.074806,0.086175,0.082602,0.94984,-1.2192,0.065062
1292,-0.059664,0.15146,0.15958,0.19466,0.94886,-1.2696,0.070909
1293,-0.044073,0.21155,0.22032,0.32588,0.81439,-1.3751,0.057917
1294,-0.034004,0.24566,0.26125,0.44249,0.60132,-1.5346,0.028034
1295,-0.03173,0.2502,0.28008,0.51232,0.3746,-1.712,-0.011267
1296,-0.035303,0.22909,0.28073,0.52726,0.19499,-1.8497,-0.04927
1297,-0.040825,0.19499,0.27424,0.50713,0.089423,-1.889,-0.076554
1298,-0.046671,0.15861,0.26384,0.47919,0.050446,-1.8026,-0.087272
1299,-0.050569,0.12483,0.25085,0.45223,0.05272,-1.6038,-0.086948
1300,-0.052193,0.091696,0.22909,0.4243,0.065712,-1.3537,-0.08305
1301,-0.053817,0.062789,0.19239,0.39052,0.060515,-1.115,-0.082076
1302,-0.059014,0.038753,0.14334,0.34959,0.019264,-0.91163,-0.085324
1303,-0.061937,0.019914,0.090072,0.3038,-0.067784,-0.71123,-0.087272
1304,-0.056416,0.0069217,0.041027,0.25118,-0.19348,-0.46275,-0.078178
1305,-0.044723,-0.00054884,0.00042559,0.19109,-0.34095,-0.15386,-0.060638
1306,-0.035303,-0.0054209,-0.034004,0.1245,-0.48808,0.15666,-0.04862
1307,-0.034654,-0.0093186,-0.062912,0.056942,-0.62353,0.37688,-0.054142
1308,-0.044073,-0.013541,-0.089546,-0.0054209,-0.74273,0.44444,-0.075579
1309,-0.059014,-0.017439,-0.11488,-0.05804,-0.84148,0.38013,-0.099615
1310,-0.067784,-0.018738,-0.13632,-0.094093,-0.89962,0.27164,-0.11163
1311,-0.063561,-0.016789,-0.14964,-0.10871,-0.89962,0.20895,-0.10709
1312,-0.04862,-0.013541,-0.15288,-0.10351,-0.83985,0.24306,-0.0837
1313,-0.026209,-0.01484,-0.14704,-0.084999,-0.74598,0.36713,-0.048296
1314,-0.0031473,-0.029132,-0.13762,-0.06616,-0.64757,0.53246,-0.014516
1315,0.011469,-0.054142,-0.13177,-0.055766,-0.56831,0.6796,0.01017
1316,0.016016,-0.075904,-0.12852,-0.054792,-0.5118,0.74359,0.019914
1317,0.016666,-0.080776,-0.12398,-0.051219,-0.46437,0.69486,0.016991
1318,0.015692,-0.061288,-0.10741,-0.038227,-0.415,0.55487,0.0091954
1319,0.016991,-0.022311,-0.072981,-0.010618,-0.35004,0.3746,0.00075039
1320,0.022837,0.024137,-0.020687,0.023812,-0.23311,0.20765,-0.0057458
1321,0.032906,0.068635,0.044924,0.060515,-0.024909,0.073507,-0.010943
1322,0.044924,0.10664,0.11995,0.095594,0.28301,-0.038551,-0.019388
1323,0.054668,0.14042,0.20213,0.1271,0.65004,-0.14736,-0.031081
1324,0.064088,0.16998,0.28593,0.15373,0.99174,-0.26137,-0.046347
1325,0.076106,0.19434,0.35544,0.16965,1.2129,-0.38447,-0.069408
1326,0.090072,0.20765,0.39084,0.16965,1.25,-0.50952,-0.10091
1327,0.10144,0.20603,0.38078,0.15406,1.0996,-0.61443,-0.13372
1328,0.10469,0.18979,0.32491,0.12743,0.80367,-0.66835,-0.15938
1329,0.093645,0.16445,0.23818,0.097218,0.43047,-0.66413,-0.16782
1330,0.066686,0.13132,0.14691,0.06896,0.064737,-0.64984,-0.16035
1331,0.034206,0.094295,0.074157,0.040377,-0.20615,-0.68199,-0.14736
1332,0.0065969,0.061165,0.028359,0.0023744,-0.34679,-0.77976,-0.13859
1333,-0.010293,0.040702,0.0026992,-0.053168,-0.3861,-0.91651,-0.14379
1334,-0.015815,0.035505,-0.016789,-0.1308,-0.39032,-1.0627,-0.16653
1335,-0.014516,0.042001,-0.041475,-0.22337,-0.41338,-1.2101,-0.20355
1336,-0.015165,0.043625,-0.078503,-0.31918,-0.46827,-1.318,-0.2448
1337,-0.023285,0.034855,-0.13177,-0.40234,-0.53161,-1.3193,-0.27469
1338,-0.034654,0.015042,-0.19478,-0.45885,-0.56344,-1.1595,-0.28021
1339,-0.044723,-0.012567,-0.25325,-0.47867,-0.53681,-0.82913,-0.25195
1340,-0.045372,-0.038551,-0.28833,-0.4595,-0.4556,-0.38122,-0.18569
1341,-0.034329,-0.052843,-0.28963,-0.40591,-0.3442,0.090722,-0.093444
1342,-0.014516,-0.050244,-0.26072,-0.33413,-0.23603,0.48212,-0.0011985
1343,0.0078962,-0.03303,-0.21297,-0.25585,-0.15288,0.72507,0.070259
1344,0.025111,-0.0089938,-0.15841,-0.18049,-0.099615,0.81179,0.11541
1345,0.031932,0.021213,-0.10481,-0.11845,-0.060963,0.78938,0.13977
1346,0.031282,0.056617,-0.056091,-0.075904,-0.019388,0.73319,0.15341
1347,0.033881,0.099167,-0.014191,-0.051868,0.042326,0.72312,0.16835
1348,0.044599,0.14886,0.019589,-0.036278,0.13879,0.87968,0.19271
1349,0.064737,0.20083,0.053044,-0.018738,0.27391,1.3188,0.23234
1350,0.09462,0.25118,0.089748,0.0078962,0.4256,2.0077,0.28756
1351,0.12678,0.29535,0.13425,0.038753,0.5513,2.7399,0.35024
1352,0.15081,0.32913,0.18946,0.06831,0.60132,3.2482,0.39669
1353,0.15731,0.347,0.2515,0.092346,0.5461,3.3537,0.40611
1354,0.14334,0.34829,0.31029,0.10989,0.40221,3.0676,0.3759
1355,0.11898,0.3314,0.36161,0.12353,0.22584,2.5797,0.32036
1356,0.096244,0.30022,0.40384,0.14042,0.086824,2.1052,0.26287
1357,0.081627,0.26319,0.43664,0.16153,0.034206,1.7391,0.22
1358,0.074157,0.22714,0.45483,0.18394,0.076755,1.4429,0.20083
1359,0.073507,0.19791,0.44834,0.20733,0.19206,1.1152,0.20051
1360,0.079029,0.17192,0.41423,0.23039,0.33693,0.68869,0.2096
1361,0.084876,0.14659,0.35966,0.24988,0.45418,0.18719,0.21188
1362,0.086175,0.11508,0.28593,0.25962,0.49803,-0.28508,0.19661
1363,0.077405,0.070259,0.19856,0.25118,0.45191,-0.60794,0.15926
1364,0.052395,0.011469,0.10924,0.22941,0.34017,-0.71253,0.10989
1365,0.014068,-0.054142,0.02706,0.20278,0.21188,-0.58845,0.066362
1366,-0.026858,-0.11196,-0.042124,0.17615,0.13002,-0.24513,0.046873
1367,-0.057065,-0.15288,-0.091495,0.15601,0.12905,0.26937,0.062789
1368,-0.069733,-0.17724,-0.123,0.14367,0.19563,0.81569,0.10859
1369,-0.069408,-0.19154,-0.14606,0.13197,0.27554,1.2123,0.16608
1370,-0.06616,-0.20648,-0.17042,0.11638,0.30282,1.3312,0.20408
1371,-0.067784,-0.22564,-0.19836,0.09462,0.24988,1.1704,0.20668
1372,-0.075904,-0.24318,-0.23019,0.066362,0.13295,0.83193,0.17874
1373,-0.087597,-0.25682,-0.26267,0.035505,-0.0041217,0.44996,0.14432
1374,-0.096042,-0.27664,-0.29125,0.0065969,-0.11293,0.11021,0.1232
1375,-0.095393,-0.30944,-0.31626,-0.016789,-0.16068,-0.17335,0.1232
1376,-0.085973,-0.34549,-0.33997,-0.031081,-0.12463,-0.415,0.13749
1377,-0.075904,-0.36661,-0.36011,-0.031081,0.0026992,-0.61573,0.14854
1378,-0.070382,-0.36109,-0.36823,-0.019712,0.20051,-0.76287,0.14237
1379,-0.074605,-0.32601,-0.36303,-0.0021729,0.42235,-0.83141,0.10956
1380,-0.088896,-0.27404,-0.34972,0.012768,0.62048,-0.8077,0.056617
1381,-0.11163,-0.22337,-0.33283,0.022512,0.76048,-0.72292,-0.010293
1382,-0.13632,-0.18277,-0.31366,0.030308,0.83713,-0.63945,-0.079477
1383,-0.15353,-0.15321,-0.28833,0.039078,0.84557,-0.60729,-0.13957
1384,-0.15678,-0.12787,-0.25487,0.051745,0.7621,-0.64139,-0.17919
1385,-0.14899,-0.10644,-0.2133,0.070909,0.53636,-0.72942,-0.19316
1386,-0.13404,-0.094743,-0.17205,0.091047,0.14756,-0.84537,-0.18764
1387,-0.11813,-0.096692,-0.14054,0.10534,-0.33283,-0.95581,-0.17302
1388,-0.10449,-0.11391,-0.12625,0.11248,-0.77132,-1.0305,-0.15353
1389,-0.09182,-0.15256,-0.12722,0.10989,-1.0695,-1.0393,-0.12982
1390,-0.079152,-0.2133,-0.13664,0.10014,-1.2179,-0.95613,-0.099615
1391,-0.068109,-0.28508,-0.14281,0.0852,-1.2634,-0.78431,-0.065835
1392,-0.061288,-0.33867,-0.13372,0.067011,-1.2537,-0.56019,-0.035953
1393,-0.058689,-0.3442,-0.10449,0.048497,-1.2095,-0.33283,-0.017114
1394,-0.055766,-0.29158,-0.061613,0.030633,-1.1302,-0.14834,-0.01484
1395,-0.047646,-0.19608,-0.015165,0.016341,-1.0165,-0.035628,-0.031406
1396,-0.03173,-0.088896,0.029009,0.0072465,-0.87266,-0.0028225,-0.060313
1397,-0.0099683,-0.0047713,0.071558,0.0033489,-0.70148,-0.036602,-0.09117
1398,0.013743,0.042326,0.12255,0.0062721,-0.51115,-0.11651,-0.11683
1399,0.034855,0.055318,0.18459,0.013418,-0.32113,-0.21849,-0.13599
1400,0.049796,0.050121,0.24371,0.015367,-0.15353,-0.32568,-0.15061
1401,0.056617,0.039727,0.27814,0.0059473,-0.031081,-0.43482,-0.1675
1402,0.054344,0.031932,0.26514,-0.021012,0.036804,-0.5485,-0.18894
1403,0.045249,0.027385,0.19856,-0.059339,0.055643,-0.66348,-0.21037
1404,0.03518,0.030957,0.092671,-0.098316,0.044599,-0.7645,-0.22109
1405,0.030633,0.044275,-0.021986,-0.12333,0.022188,-0.82816,-0.21297
1406,0.03453,0.069285,-0.10546,-0.12268,-0.00022403,-0.84245,-0.19186
1407,0.041676,0.10664,-0.13047,-0.091495,-0.019388,-0.80315,-0.16425
1408,0.045899,0.15081,-0.097666,-0.03173,-0.033354,-0.71448,-0.14022
1409,0.044275,0.19628,-0.028157,0.048497,-0.041799,-0.60177,-0.12333
1410,0.039402,0.23948,0.0433,0.12288,-0.041475,-0.4988,-0.11391
1411,0.033231,0.27326,0.083251,0.15633,-0.03238,-0.43417,-0.11326
1412,0.031607,0.29568,0.068635,0.13295,-0.023285,-0.42117,-0.11943
1413,0.036479,0.29957,-0.0024977,0.063438,-0.027833,-0.44618,-0.1282
1414,0.0433,0.27911,-0.11098,-0.024585,-0.052518,-0.47607,-0.13437
1415,0.046873,0.23721,-0.22564,-0.096692,-0.092794,-0.48354,-0.13275
1416,0.045899,0.18004,-0.31886,-0.12852,-0.1334,-0.45788,-0.12657
1417,0.042001,0.11476,-0.37733,-0.11391,-0.16295,-0.40851,-0.11878
1418,0.038753,0.050771,-0.40883,-0.075255,-0.17627,-0.34744,-0.11521
1419,0.037454,-0.0047713,-0.42929,-0.053817,-0.17627,-0.28573,-0.11131
1420,0.039727,-0.041799,-0.44813,-0.079152,-0.16003,-0.24253,-0.095068
1421,0.0433,-0.059014,-0.45755,-0.14866,-0.1256,-0.23019,-0.061613
1422,0.046873,-0.061288,-0.44781,-0.23019,-0.08305,-0.24708,-0.01549
1423,0.049147,-0.054142,-0.41858,-0.29223,-0.051219,-0.26267,0.030957
1424,0.050446,-0.044723,-0.37992,-0.32601,-0.048945,-0.23149,0.070909
1425,0.049472,-0.034004,-0.33413,-0.33737,-0.078178,-0.11033,0.099817
1426,0.045899,-0.02426,-0.27761,-0.339,-0.12852,0.10989,0.11638
1427,0.041351,-0.0083442,-0.20388,-0.33705,-0.17042,0.39214,0.1232
1428,0.038103,0.01894,-0.10579,-0.32568,-0.1636,0.68382,0.12613
1429,0.03518,0.058891,0.022188,-0.29872,-0.081751,0.9336,0.13555
1430,0.03518,0.10566,0.17907,-0.25942,0.078055,1.084,0.15601
1431,0.035505,0.15633,0.35219,-0.20615,0.2921,1.0759,0.18492
1432,0.038428,0.20278,0.52012,-0.14152,0.53116,0.87578,0.21188
1433,0.047523,0.23818,0.65719,-0.06681,0.75853,0.49348,0.22682
1434,0.062464,0.25995,0.73839,0.014068,0.93814,-0.010943,0.22324
1435,0.079354,0.27489,0.74878,0.095269,1.0473,-0.51374,0.20505
1436,0.09397,0.28463,0.69389,0.17225,1.071,-0.87655,0.18297
1437,0.10501,0.28723,0.59937,0.23689,1.0008,-0.99316,0.16445
1438,0.11216,0.28203,0.49478,0.28236,0.83908,-0.81744,0.15731
1439,0.11118,0.27034,0.40773,0.31516,0.62406,-0.40363,0.16023
1440,0.10436,0.25507,0.35804,0.35024,0.43502,0.11216,0.16673
1441,0.09397,0.23591,0.34927,0.39572,0.34667,0.57436,0.17257
1442,0.081303,0.20895,0.36194,0.44249,0.37818,0.86344,0.1716
1443,0.065062,0.17452,0.37753,0.46945,0.48147,0.90696,0.15438
1444,0.044275,0.13782,0.39084,0.4636,0.5854,0.70428,0.12385
1445,0.025761,0.10761,0.40741,0.4243,0.63088,0.33075,0.083901
1446,0.017316,0.091372,0.43762,0.36226,0.58378,-0.086948,0.044599
1447,0.018615,0.0852,0.48569,0.28983,0.45158,-0.42735,0.0065969
1448,0.022837,0.084226,0.53636,0.21577,0.26872,-0.61996,-0.033354
1449,0.022837,0.079679,0.56462,0.14821,0.080978,-0.63587,-0.077203
1450,0.01764,0.069934,0.54773,0.091372,-0.072981,-0.47769,-0.11813
1451,0.013418,0.055318,0.47984,0.048822,-0.16912,-0.17302,-0.14281
1452,0.014392,0.042975,0.37525,0.025111,-0.19933,0.23039,-0.14216
1453,0.018615,0.036479,0.26287,0.023487,-0.1701,0.66173,-0.11423
1454,0.023487,0.036154,0.16998,0.039078,-0.089221,1.0557,-0.06616
1455,0.02706,0.042326,0.10924,0.066037,0.030633,1.3763,-0.013541
1456,0.022837,0.056617,0.081952,0.095919,0.1755,1.6128,0.029658
1457,0.011794,0.075456,0.078379,0.12743,0.32069,1.7677,0.057917
1458,0.0049729,0.090722,0.088773,0.15666,0.42365,1.8444,0.076755
1459,0.012119,0.097218,0.097543,0.17647,0.44086,1.8223,0.089098
1460,0.029658,0.092996,0.09462,0.17842,0.34635,1.6618,0.092996
1461,0.048822,0.075131,0.078055,0.16705,0.13782,1.3279,0.088773
1462,0.059216,0.045249,0.049147,0.15049,-0.16328,0.83258,0.077405
1463,0.058241,0.013418,0.0091954,0.12645,-0.49458,0.25475,0.064737
1464,0.051745,-0.0037969,-0.037902,0.090722,-0.77034,-0.27891,0.058566
1465,0.054019,0.0020496,-0.0837,0.048822,-0.91098,-0.64042,0.066686
1466,0.069934,0.025436,-0.11651,0.0043233,-0.88727,-0.75832,0.092996
1467,0.09397,0.050446,-0.13275,-0.037252,-0.73364,-0.65439,0.12515
1468,0.10924,0.056292,-0.13437,-0.074605,-0.53453,-0.44326,0.14951
1469,0.10729,0.033881,-0.12917,-0.10449,-0.37408,-0.27306,0.15341
1470,0.087474,-0.010943,-0.1269,-0.12982,-0.29612,-0.23603,0.13327
1471,0.059865,-0.063561,-0.13469,-0.14899,-0.29223,-0.29937,0.097868
1472,0.035505,-0.11326,-0.161,-0.15873,-0.32341,-0.33997,0.065387
1473,0.017965,-0.14996,-0.20193,-0.15808,-0.34712,-0.26364,0.053694
1474,0.0072465,-0.17237,-0.24643,-0.14996,-0.33965,-0.098965,0.066362
1475,-0.00022403,-0.18439,-0.27988,-0.14087,-0.30067,0.03583,0.093645
1476,-0.0050961,-0.18796,-0.29742,-0.13307,-0.24091,0.033556,0.12385
1477,-0.0057458,-0.18277,-0.30457,-0.1282,-0.17692,-0.13112,0.14691
1478,-0.0034721,-0.16815,-0.30944,-0.1256,-0.11651,-0.39389,0.15114
1479,-0.00087364,-0.14736,-0.31951,-0.12463,-0.065186,-0.63165,0.13067
1480,-0.0037969,-0.1217,-0.34095,-0.1295,-0.020362,-0.70311,0.092021
1481,-0.014191,-0.090196,-0.36173,-0.14379,0.024461,-0.49718,0.052395
1482,-0.034978,-0.060638,-0.36628,-0.16458,0.080328,0.049147,0.026735
1483,-0.059014,-0.039201,-0.34712,-0.18212,0.14886,0.8943,0.024461
1484,-0.07493,-0.022311,-0.30489,-0.19121,0.23006,1.8359,0.0433
1485,-0.07493,-0.007045,-0.25292,-0.19413,0.31906,2.5755,0.067661
1486,-0.064211,0.0059473,-0.2042,-0.18991,0.40968,2.8639,0.079354
1487,-0.056741,0.011144,-0.16425,-0.16328,0.49836,2.6359,0.06896
1488,-0.060638,0.008221,-0.12592,-0.084349,0.57891,2.0185,0.034206
1489,-0.068758,-0.0050961,-0.079152,0.057592,0.63737,1.2587,-0.013541
1490,-0.077853,-0.028157,-0.020037,0.23851,0.65556,0.5867,-0.060313
1491,-0.085973,-0.052193,0.050121,0.40611,0.62795,0.13652,-0.097341
1492,-0.091495,-0.064211,0.11248,0.5094,0.56364,-0.088572,-0.11878
1493,-0.096042,-0.064861,0.15211,0.52207,0.45451,-0.17919,-0.12657
1494,-0.098316,-0.060638,0.16478,0.44801,0.25183,-0.2474,-0.1243
1495,-0.10254,-0.059989,0.15926,0.31906,-0.077203,-0.3705,-0.11488
1496,-0.10741,-0.062262,0.15276,0.17095,-0.46957,-0.55889,-0.10156
1497,-0.10968,-0.059989,0.15536,0.033231,-0.7999,-0.78658,-0.087272
1498,-0.10286,-0.050244,0.16348,-0.077203,-0.98114,-1.0377,-0.078827
1499,-0.089546,-0.035303,0.15958,-0.16393,-0.99966,-1.2962,-0.075904
1500,-0.076879,-0.020687,0.12158,-0.23798,-0.90839,-1.533,-0.077203
1501,-0.069733,-0.016464,0.039078,-0.30879,-0.77879,-1.712,-0.079802
1502,-0.069083,-0.027508,-0.07493,-0.38187,-0.66381,-1.7977,-0.086298
1503,-0.072331,-0.04927,-0.19186,-0.45008,-0.5891,-1.7763,-0.10384
1504,-0.079802,-0.072656,-0.28378,-0.50173,-0.55142,-1.6717,-0.1321
1505,-0.086948,-0.085648,-0.33478,-0.51959,-0.53193,-1.5304,-0.16523
1506,-0.095717,-0.084024,-0.34257,-0.49036,-0.504,-1.392,-0.19576
1507,-0.10221,-0.072331,-0.31464,-0.41565,-0.4569,-1.28,-0.22012
1508,-0.10319,-0.056416,-0.26494,-0.31009,-0.39097,-1.1997,-0.23993
1509,-0.10189,-0.042774,-0.21005,-0.19413,-0.31431,-1.1442,-0.25682
1510,-0.094743,-0.037577,-0.16295,-0.087922,-0.24091,-1.1107,-0.26527
1511,-0.082725,-0.039201,-0.1269,-0.0057458,-0.18634,-1.0896,-0.26559
1512,-0.069408,-0.0405,-0.10059,0.049147,-0.15029,-1.0672,-0.25487
1513,-0.056091,-0.030431,-0.081426,0.082602,-0.13177,-1.0347,-0.23668
1514,-0.043099,-0.00087364,-0.068434,0.10209,-0.1256,-1.0049,-0.21914
1515,-0.03238,0.040377,-0.059014,0.11216,-0.12722,-0.99446,-0.20355
1516,-0.022636,0.077405,-0.055766,0.11573,-0.12657,-1.0136,-0.19381
1517,-0.013541,0.095594,-0.061613,0.11898,-0.10774,-1.0555,-0.18634
1518,-0.0015233,0.089423,-0.071357,0.13067,-0.055441,-1.1016,-0.17205
1519,0.013418,0.067011,-0.072656,0.15081,0.036804,-1.115,-0.14509
1520,0.030957,0.040052,-0.059014,0.17127,0.16543,-1.0727,-0.10254
1521,0.048497,0.020888,-0.027508,0.19011,0.30769,-0.97887,-0.04927
1522,0.064737,0.021538,0.021213,0.21155,0.42495,-0.87623,0.0059473
1523,0.082927,0.053694,0.091696,0.23494,0.48471,-0.81582,0.055968
1524,0.10339,0.10891,0.18427,0.25443,0.47789,-0.81192,0.096569
1525,0.1232,0.16153,0.28821,0.25767,0.4204,-0.83108,0.12515
1526,0.13749,0.18557,0.38013,0.23234,0.3366,-0.82426,0.14626
1527,0.14139,0.16445,0.43502,0.18199,0.24566,-0.76255,0.16185
1528,0.1349,0.098517,0.43924,0.11833,0.15796,-0.64334,0.16965
1529,0.11995,0.0023744,0.39572,0.050446,0.07708,-0.47639,0.16965
1530,0.10631,-0.10091,0.31386,-0.017764,-0.00087364,-0.26592,0.1677
1531,0.097868,-0.19121,0.20083,-0.079152,-0.069408,-0.010293,0.169
1532,0.094295,-0.25747,0.072858,-0.12592,-0.11391,0.30282,0.17939
1533,0.098193,-0.29482,-0.052193,-0.15841,-0.11943,0.68934,0.19596
1534,0.11021,-0.30489,-0.15548,-0.18309,-0.076879,1.148,0.21188
1535,0.12645,-0.2958,-0.22044,-0.2055,0.0085458,1.6488,0.22682
1536,0.14204,-0.28248,-0.24286,-0.22467,0.11768,2.1474,0.24338
1537,0.15114,-0.27696,-0.23019,-0.23311,0.21805,2.5943,0.26319
1538,0.15373,-0.28053,-0.20063,-0.22044,0.28658,2.9221,0.28138
1539,0.15373,-0.28183,-0.16977,-0.18244,0.31549,3.0695,0.29503
1540,0.15244,-0.26169,-0.14541,-0.12527,0.31386,3.027,0.30607
1541,0.15049,-0.20453,-0.11748,-0.05739,0.30217,2.8818,0.31354
1542,0.14984,-0.11001,-0.074605,0.013093,0.29957,2.7814,0.31614
1543,0.14886,0.00042559,-0.019388,0.078704,0.31159,2.8425,0.31971
1544,0.14886,0.097543,0.035505,0.13425,0.34667,3.0887,0.33075
1545,0.15049,0.15568,0.077405,0.17874,0.40286,3.4129,0.34959
1546,0.14919,0.16738,0.096893,0.20733,0.4571,3.6159,0.36616
1547,0.14302,0.14464,0.087799,0.21642,0.48471,3.4999,0.36389
1548,0.131,0.098842,0.05207,0.20635,0.46263,2.9861,0.3327
1549,0.10989,0.036804,-0.00054884,0.17777,0.38532,2.1455,0.27067
1550,0.082602,-0.029457,-0.058365,0.13555,0.26709,1.1587,0.18622
1551,0.051096,-0.087272,-0.10871,0.090072,0.1284,0.21805,0.097868
1552,0.019589,-0.1269,-0.14444,0.05272,-0.0083442,-0.54005,0.019589
1553,-0.0050961,-0.14119,-0.15483,0.042651,-0.12463,-1.0666,-0.034329
1554,-0.014516,-0.12852,-0.13242,0.075456,-0.19771,-1.3878,-0.058689
1555,-0.0057458,-0.089546,-0.081426,0.15179,-0.2081,-1.5561,-0.064211
1556,0.013093,-0.03238,-0.017114,0.2502,-0.13632,-1.6106,-0.065186
1557,0.033231,0.033231,0.042975,0.3353,0.015042,-1.5687,-0.071682
1558,0.05272,0.094295,0.085525,0.38175,0.20635,-1.4391,-0.077528
1559,0.072533,0.14399,0.10436,0.38792,0.37103,-1.2338,-0.072981
1560,0.084876,0.17712,0.10566,0.36648,0.44671,-0.99056,-0.063237
1561,0.083576,0.19141,0.099492,0.3327,0.40643,-0.78398,-0.06551
1562,0.064413,0.18881,0.089098,0.28691,0.26255,-0.69336,-0.089221
1563,0.030308,0.17322,0.071558,0.22747,0.063438,-0.74826,-0.13275
1564,-0.010293,0.15211,0.049147,0.15991,-0.1269,-0.90709,-0.18244
1565,-0.045372,0.131,0.031607,0.092021,-0.26137,-1.0822,-0.22272
1566,-0.06681,0.11183,0.021538,0.036154,-0.32016,-1.1822,-0.24188
1567,-0.071032,0.099492,0.021538,-0.0021729,-0.31204,-1.1708,-0.23019
1568,-0.061613,0.099817,0.031932,-0.020687,-0.25812,-1.0815,-0.19576
1569,-0.045697,0.11411,0.0433,-0.027183,-0.18277,-0.974,-0.15061
1570,-0.036602,0.13684,0.049796,-0.030756,-0.11391,-0.87785,-0.11358
1571,-0.037252,0.15893,0.051745,-0.034004,-0.079802,-0.79373,-0.092469
1572,-0.04862,0.17485,0.054344,-0.033354,-0.089546,-0.71285,-0.088247
1573,-0.067134,0.18589,0.059541,-0.032055,-0.1334,-0.63717,-0.09994
1574,-0.084999,0.19271,0.062139,-0.040175,-0.18796,-0.57643,-0.1204
1575,-0.096367,0.19596,0.053369,-0.063561,-0.22889,-0.52998,-0.14119
1576,-0.09929,0.19791,0.027385,-0.095393,-0.24318,-0.48581,-0.15321
1577,-0.098316,0.19823,-0.010618,-0.12625,-0.22402,-0.43189,-0.15353
1578,-0.096367,0.19434,-0.054142,-0.14769,-0.17497,-0.37245,-0.14379
1579,-0.094418,0.18232,-0.095393,-0.16165,-0.10254,-0.32113,-0.12722
1580,-0.092469,0.16705,-0.13275,-0.17107,-0.0060706,-0.28086,-0.10611
1581,-0.09182,0.15146,-0.15905,-0.16945,0.10924,-0.2448,-0.084024
1582,-0.092794,0.13912,-0.1688,-0.15256,0.24176,-0.19901,-0.065186
1583,-0.094418,0.12937,-0.16003,-0.11358,0.39539,-0.12917,-0.049595
1584,-0.097341,0.1232,-0.13469,-0.056741,0.56657,-0.03173,-0.035628
1585,-0.10481,0.12807,-0.094743,0.0065969,0.73254,0.087474,-0.017114
1586,-0.11456,0.14886,-0.046671,0.057267,0.85434,0.22129,0.0036737
1587,-0.12203,0.17842,0.00075039,0.0865,0.893,0.37298,0.016341
1588,-0.12333,0.19921,0.038428,0.092671,0.84103,0.54578,0.014392
1589,-0.123,0.19596,0.059216,0.080978,0.73644,0.73806,0.00075039
1590,-0.12365,0.16185,0.064737,0.063763,0.64354,0.94821,-0.019388
1591,-0.12527,0.10826,0.06084,0.050446,0.60684,1.1886,-0.038227
1592,-0.1204,0.050771,0.054668,0.049147,0.61756,1.4699,-0.047646
1593,-0.10611,0.0046481,0.054668,0.059541,0.62438,1.7658,-0.040175
1594,-0.084674,-0.014516,0.064413,0.076755,0.57111,2.0035,-0.013866
1595,-0.059339,-0.0031473,0.09397,0.10014,0.43534,2.0854,0.023487
1596,-0.03238,0.033556,0.15244,0.12678,0.23396,1.9278,0.061814
1597,-0.0080194,0.083251,0.23754,0.14789,0.0023744,1.5105,0.087474
1598,0.011794,0.1258,0.334,0.15568,-0.21655,0.91021,0.092671
1599,0.02706,0.14529,0.4152,0.14854,-0.38155,0.26449,0.079354
1600,0.036479,0.14107,0.45646,0.1323,-0.4634,-0.2919,0.059541
1601,0.03583,0.11898,0.44671,0.11086,-0.46437,-0.69466,0.048822
1602,0.025761,0.092346,0.39279,0.083251,-0.42182,-0.95776,0.052395
1603,0.012119,0.070909,0.32069,0.051096,-0.38967,-1.1354,0.064088
1604,0.0036737,0.059541,0.25085,0.020564,-0.40688,-1.2832,0.07773
1605,0.0075714,0.058566,0.19726,-0.0024977,-0.48841,-1.4307,0.089748
1606,0.021863,0.057267,0.16023,-0.015165,-0.61476,-1.5674,0.098517
1607,0.039078,0.045899,0.1349,-0.016464,-0.75345,-1.6636,0.096244
1608,0.049796,0.021538,0.11346,-0.0063954,-0.885,-1.6931,0.072533
1609,0.05142,-0.0099683,0.097868,0.012443,-0.99673,-1.647,0.026735
1610,0.044599,-0.043423,0.097218,0.038103,-1.0708,-1.5362,-0.030756
1611,0.033881,-0.069408,0.11638,0.062789,-1.0854,-1.3849,-0.085648
1612,0.022837,-0.076554,0.15049,0.079029,-1.0351,-1.2264,-0.12138
1613,0.01017,-0.06551,0.17874,0.081952,-0.93762,-1.1059,-0.13534
1614,-0.0015233,-0.043423,0.18524,0.06831,-0.82231,-1.0669,-0.1321
1615,-0.0067202,-0.018413,0.1651,0.043625,-0.71188,-1.138,-0.11878
1616,-0.0050961,0.003024,0.12255,0.020564,-0.62028,-1.3137,-0.096367
1617,0.0023744,0.022837,0.069285,0.0052977,-0.54623,-1.5372,-0.067459
1618,0.012119,0.043625,0.021213,0.0036737,-0.48159,-1.7201,-0.034978
1619,0.025111,0.070584,-0.010293,0.016016,-0.41955,-1.7977,-0.0037969
1620,0.042651,0.10696,-0.019063,0.036804,-0.36336,-1.7662,0.020564
1621,0.061814,0.15309,-0.0080194,0.055318,-0.31139,-1.6675,0.033556
1622,0.081303,0.19921,0.0091954,0.067336,-0.27111,-1.5466,0.034206
1623,0.095269,0.23559,0.01894,0.071234,-0.2565,-1.4219,0.02706
1624,0.099817,0.25118,0.013093,0.066362,-0.27144,-1.2858,0.016666
1625,0.090722,0.24046,-0.011592,0.054344,-0.2997,-1.1396,0.00075039
1626,0.070259,0.20635,-0.050569,0.040702,-0.30717,-0.99154,-0.022311
1627,0.041351,0.15568,-0.094743,0.028684,-0.25845,-0.84472,-0.045047
1628,0.011794,0.09462,-0.1256,0.028034,-0.13145,-0.67452,-0.057065
1629,-0.0073698,0.034206,-0.13015,0.037454,0.066362,-0.43287,-0.053168
1630,-0.0099683,-0.017439,-0.11228,0.050121,0.29438,-0.084349,-0.031406
1631,0.003024,-0.059664,-0.088247,0.061165,0.49381,0.3733,0.0075714
1632,0.026735,-0.096367,-0.075255,0.063113,0.61594,0.89982,0.056942
1633,0.053694,-0.12755,-0.079152,0.046548,0.62925,1.4052,0.098193
1634,0.075131,-0.15126,-0.095717,0.010495,0.53473,1.7693,0.11833
1635,0.080978,-0.174,-0.1178,-0.039526,0.36583,1.8928,0.11151
1636,0.06831,-0.20355,-0.13762,-0.089221,0.16478,1.7502,0.080978
1637,0.042326,-0.24091,-0.15158,-0.1308,-0.026209,1.4098,0.03583
1638,0.011144,-0.27664,-0.16035,-0.16133,-0.18309,0.99044,-0.01614
1639,-0.01549,-0.2971,-0.16555,-0.18504,-0.29158,0.61626,-0.063886
1640,-0.028807,-0.29872,-0.17042,-0.19901,-0.34127,0.37753,-0.096042
1641,-0.027508,-0.29028,-0.17302,-0.20583,-0.34192,0.31809,-0.10644
1642,-0.012567,-0.28281,-0.17627,-0.212,-0.32503,0.43437,-0.092794
1643,0.009845,-0.2867,-0.18764,-0.22337,-0.32048,0.6718,-0.062262
1644,0.027709,-0.30489,-0.2133,-0.24513,-0.339,0.93652,-0.023285
1645,0.03583,-0.33413,-0.25357,-0.27566,-0.37408,1.1327,0.017316
1646,0.034855,-0.37148,-0.30262,-0.30522,-0.40396,1.2077,0.053044
1647,0.029658,-0.40493,-0.35004,-0.32016,-0.41078,1.1558,0.084551
1648,0.028034,-0.42085,-0.38057,-0.31171,-0.37927,1.0187,0.11898
1649,0.03583,-0.41338,-0.38187,-0.28053,-0.28476,0.91216,0.15796
1650,0.05142,-0.37927,-0.34939,-0.22986,-0.099615,1.008,0.2044
1651,0.070909,-0.31886,-0.28865,-0.16945,0.18394,1.3877,0.2502
1652,0.092021,-0.23668,-0.21557,-0.11715,0.52466,1.9278,0.28561
1653,0.10924,-0.14931,-0.14834,-0.090845,0.83745,2.3676,0.3012
1654,0.11866,-0.073306,-0.10091,-0.097666,1.0431,2.4836,0.30022
1655,0.12158,-0.012242,-0.078178,-0.12917,1.1054,2.2296,0.28723
1656,0.11898,0.038103,-0.076879,-0.16588,1.0362,1.7615,0.27132
1657,0.11151,0.081303,-0.090196,-0.19413,0.87741,1.3084,0.25443
1658,0.096893,0.11378,-0.11131,-0.20485,0.67278,1.0083,0.22974
1659,0.074482,0.1362,-0.13275,-0.19413,0.46587,0.85467,0.19531
1660,0.046548,0.15016,-0.14184,-0.16295,0.29535,0.7595,0.15114
1661,0.017316,0.15568,-0.12885,-0.11521,0.19239,0.64939,0.098517
1662,-0.0057458,0.15309,-0.093769,-0.058365,0.17257,0.53279,0.042651
1663,-0.018088,0.14172,-0.038551,0.0033489,0.23981,0.48244,-0.011592
1664,-0.025884,0.12515,0.030957,0.067661,0.37655,0.55715,-0.059014
1665,-0.029457,0.10696,0.10794,0.13522,0.55585,0.74618,-0.098641
1666,-0.029132,0.088124,0.18524,0.20668,0.73839,0.96835,-0.13047
1667,-0.027183,0.071883,0.25637,0.2895,0.88423,1.1311,-0.15743
1668,-0.022636,0.061814,0.31386,0.3824,0.95666,1.1869,-0.18114
1669,-0.015815,0.055643,0.34505,0.47432,0.9271,1.1411,-0.20453
1670,-0.008669,0.050446,0.34667,0.5422,0.79945,1.0278,-0.22889
1671,-0.0021729,0.048172,0.32361,0.56624,0.60847,0.89007,-0.25098
1672,0.00075039,0.047523,0.28366,0.53538,0.40189,0.74488,-0.26624
1673,0.00042559,0.050446,0.23429,0.46198,0.22487,0.58118,-0.26494
1674,-0.0041217,0.056942,0.18751,0.36811,0.10371,0.36876,-0.24188
1675,-0.011592,0.070909,0.14724,0.27229,0.037129,0.0852,-0.20355
1676,-0.02361,0.089098,0.11216,0.19141,0.0026992,-0.26429,-0.16555
1677,-0.035303,0.10404,0.082602,0.12905,-0.028157,-0.63685,-0.12917
1678,-0.042124,0.11183,0.061814,0.080003,-0.072981,-0.96068,-0.094093
1679,-0.046347,0.11021,0.048822,0.040377,-0.13015,-1.1627,-0.05804
1680,-0.046022,0.10047,0.045899,0.0095202,-0.18277,-1.2221,-0.012892
1681,-0.039526,0.090397,0.050771,-0.011592,-0.21882,-1.1926,0.040052
1682,-0.029132,0.079029,0.059865,-0.02361,-0.23603,-1.1585,0.092021
1683,-0.016789,0.068635,0.066037,-0.024909,-0.23376,-1.1513,0.13879
1684,-0.0057458,0.054668,0.065712,-0.022311,-0.20713,-1.115,0.17615
1685,0.0056225,0.031282,0.061489,-0.024909,-0.14834,-0.95906,0.2083
1686,0.016666,-0.0031473,0.059541,-0.039851,-0.06681,-0.68362,0.24338
1687,0.026735,-0.044073,0.064737,-0.063561,0.012443,-0.39064,0.28756
1688,0.03583,-0.079152,0.072208,-0.09182,0.06896,-0.174,0.32913
1689,0.039727,-0.092145,0.075781,-0.12203,0.10826,-0.046671,0.35219
1690,0.037778,-0.079477,0.075131,-0.14671,0.16543,0.045574,0.34894
1691,0.030957,-0.048296,0.080003,-0.15613,0.27326,0.1729,0.32556
1692,0.022188,-0.0080194,0.097543,-0.15126,0.4243,0.3876,0.29665
1693,0.012768,0.035505,0.12548,-0.14314,0.57696,0.66173,0.26709
1694,0.0062721,0.076106,0.15503,-0.13404,0.67667,0.87513,0.23136
1695,0.0043233,0.11216,0.17712,-0.11845,0.68187,0.88065,0.18264
1696,0.0036737,0.14107,0.18979,-0.084999,0.58638,0.60035,0.11801
1697,0.0020496,0.16348,0.18849,-0.030106,0.40221,0.070909,0.047847
1698,-0.00087364,0.18232,0.16608,0.037778,0.1232,-0.57806,-0.01549
1699,-0.0018481,0.19596,0.11443,0.097218,-0.27079,-1.1975,-0.068109
1700,-0.0044465,0.19986,0.038753,0.13165,-0.74696,-1.6964,-0.10903
1701,-0.012567,0.19369,-0.045372,0.13587,-1.1919,-2.0475,-0.13924
1702,-0.028807,0.1768,-0.11878,0.11671,-1.4554,-2.2521,-0.15841
1703,-0.047321,0.15081,-0.1662,0.091047,-1.4398,-2.3307,-0.16555
1704,-0.063561,0.11866,-0.17984,0.07773,-1.1526,-2.3229,-0.1597
1705,-0.070058,0.088124,-0.15938,0.092671,-0.68622,-2.2654,-0.14379
1706,-0.065186,0.066362,-0.10903,0.13197,-0.17205,-2.1608,-0.12495
1707,-0.054467,0.058566,-0.040825,0.18232,0.27651,-1.9858,-0.10838
1708,-0.042124,0.071558,0.030308,0.22877,0.59677,-1.7243,-0.097341
1709,-0.033679,0.10956,0.091047,0.27489,0.76989,-1.3894,-0.095393
1710,-0.033354,0.16608,0.13717,0.33368,0.75983,-1.0253,-0.10319
1711,-0.036927,0.22422,0.16543,0.40871,0.50355,-0.68459,-0.12138
1712,-0.046347,0.26352,0.1716,0.48244,-0.0044465,-0.40851,-0.14931
1713,-0.058689,0.27391,0.15309,0.53019,-0.65114,-0.21167,-0.18114
1714,-0.072006,0.25702,0.11573,0.53863,-1.2546,-0.080776,-0.20875
1715,-0.082725,0.22259,0.077405,0.49608,-1.6512,0.010495,-0.22434
1716,-0.088247,0.18264,0.05207,0.39831,-1.7607,0.080003,-0.22174
1717,-0.088572,0.14951,0.040377,0.25345,-1.6048,0.1284,-0.20063
1718,-0.081426,0.12807,0.029009,0.08585,-1.2826,0.15568,-0.1662
1719,-0.06616,0.11736,0.003024,-0.068434,-0.91553,0.17972,-0.1269
1720,-0.045047,0.11151,-0.039201,-0.18114,-0.5917,0.24046,-0.084024
1721,-0.017439,0.10599,-0.089546,-0.24221,-0.34809,0.39507,-0.040175
1722,0.013418,0.097543,-0.13404,-0.26299,-0.17335,0.67148,0.0043233
1723,0.044599,0.08585,-0.16295,-0.25975,-0.030756,1.0375,0.049796
1724,0.078055,0.07773,-0.174,-0.24448,0.10404,1.4289,0.096569
1725,0.11508,0.074482,-0.1662,-0.21849,0.23494,1.7638,0.13814
1726,0.15211,0.073507,-0.14216,-0.17659,0.35219,1.9509,0.16738
1727,0.1768,0.06961,-0.10871,-0.1178,0.44639,1.8928,0.17615
1728,0.18134,0.058891,-0.079477,-0.052843,0.5003,1.5312,0.15861
1729,0.16803,0.037129,-0.065835,-0.0044465,0.5003,0.89787,0.11931
1730,0.14464,0.003024,-0.071682,0.0088706,0.43437,0.1349,0.066362
1731,0.11736,-0.039201,-0.092145,-0.021986,0.30607,-0.54882,0.008221
1732,0.092021,-0.087272,-0.11975,-0.086623,0.14107,-0.99511,-0.046671
1733,0.071234,-0.13307,-0.14314,-0.16782,-0.029782,-1.1624,-0.090196
1734,0.052395,-0.16782,-0.15353,-0.23538,-0.17692,-1.1075,-0.11715
1735,0.034206,-0.18731,-0.14866,-0.26884,-0.27696,-0.94054,-0.1295
1736,0.01829,-0.19478,-0.13112,-0.26429,-0.32373,-0.77554,-0.1282
1737,0.0085458,-0.19641,-0.10546,-0.23571,-0.32211,-0.69206,-0.11618
1738,0.003024,-0.19446,-0.072656,-0.2016,-0.28313,-0.74273,-0.10026
1739,0.0010752,-0.18536,-0.040175,-0.17724,-0.22467,-0.93632,-0.084999
1740,0.0023744,-0.16425,-0.018413,-0.16912,-0.16263,-1.2114,-0.073631
1741,0.0052977,-0.13502,-0.0096434,-0.17562,-0.10774,-1.4638,-0.059989
1742,0.0088706,-0.10514,-0.0096434,-0.19381,-0.064861,-1.5934,-0.043423
1743,0.0085458,-0.079152,-0.011267,-0.22174,-0.020687,-1.5395,-0.02426
1744,0.0046481,-0.061613,-0.011267,-0.25357,0.043625,-1.2943,-0.0024977
1745,0.0020496,-0.054142,-0.0089938,-0.29125,0.13749,-0.88305,0.023487
1746,0.0010752,-0.056091,0.00010078,-0.33348,0.26125,-0.35621,0.053694
1747,0.0043233,-0.063561,0.019264,-0.36531,0.39799,0.2057,0.088124
1748,0.008221,-0.072006,0.050771,-0.36336,0.51947,0.68902,0.12158
1749,0.0088706,-0.081101,0.084551,-0.31171,0.59482,1.0051,0.14724
1750,0.0017248,-0.085648,0.11216,-0.21427,0.61529,1.1395,0.1625
1751,-0.012567,-0.081751,0.13522,-0.089221,0.58151,1.1457,0.16803
1752,-0.026533,-0.072656,0.16121,0.029658,0.48536,1.1087,0.16835
1753,-0.035953,-0.059989,0.20181,0.10859,0.31322,1.0941,0.16738
1754,-0.039526,-0.043748,0.25637,0.13002,0.084551,1.1366,0.16608
1755,-0.04115,-0.028157,0.29957,0.10014,-0.13892,1.2633,0.16218
1756,-0.043748,-0.021337,0.3012,0.044924,-0.28735,1.4942,0.15893
1757,-0.046347,-0.027508,0.2515,-0.0057458,-0.31821,1.82,0.15926
1758,-0.044723,-0.044723,0.1677,-0.037902,-0.24156,2.19,0.16478
1759,-0.037577,-0.067459,0.079354,-0.046671,-0.10449,2.517,0.1729
1760,-0.023935,-0.086948,0.0075714,-0.032055,0.04395,2.6993,0.18232
1761,-0.0034721,-0.092469,-0.034978,0.00075039,0.1716,2.644,0.19531
1762,0.017316,-0.080776,-0.047971,0.041676,0.26157,2.3186,0.21058
1763,0.032906,-0.053492,-0.035953,0.075781,0.31322,1.7794,0.22519
1764,0.041351,-0.014191,-0.011267,0.094295,0.33823,1.1493,0.23526
1765,0.045899,0.032906,0.01764,0.099817,0.34505,0.56657,0.24403
1766,0.049147,0.079029,0.042651,0.10209,0.34147,0.11931,0.25248
1767,0.050121,0.11768,0.06019,0.10956,0.3327,-0.18601,0.25378
1768,0.050446,0.14237,0.071234,0.12515,0.31776,-0.40558,0.24176
1769,0.050446,0.15406,0.073832,0.14302,0.29373,-0.60696,0.21512
1770,0.049472,0.15341,0.059216,0.15698,0.25995,-0.82134,0.17615
1771,0.05207,0.13879,0.025761,0.16608,0.2187,-1.0302,0.1284
1772,0.059865,0.11281,-0.020037,0.16868,0.17192,-1.1994,0.078379
1773,0.072858,0.084551,-0.064211,0.16705,0.12515,-1.3141,0.03518
1774,0.086824,0.056942,-0.093769,0.16543,0.083901,-1.3755,0.00075039
1775,0.096569,0.029658,-0.10189,0.16803,0.05142,-1.3833,-0.026209
1776,0.094945,0.0023744,-0.096042,0.17647,0.030633,-1.3388,-0.047646
1777,0.083251,-0.024909,-0.089221,0.18557,0.019589,-1.2699,-0.064536
1778,0.066686,-0.053817,-0.087272,0.19336,0.013743,-1.2205,-0.0824
1779,0.0433,-0.083375,-0.093769,0.19563,0.0046481,-1.2101,-0.10644
1780,0.016666,-0.11293,-0.10774,0.19141,-0.013541,-1.2251,-0.13502
1781,-0.0096434,-0.14216,-0.12625,0.18297,-0.044723,-1.2316,-0.15743
1782,-0.029457,-0.17075,-0.14606,0.17387,-0.078827,-1.2033,-0.16588
1783,-0.034978,-0.19771,-0.16685,0.16218,-0.098641,-1.1484,-0.15938
1784,-0.028807,-0.21817,-0.19056,0.14691,-0.097991,-1.1036,-0.14574
1785,-0.017114,-0.23246,-0.21914,0.13132,-0.077528,-1.0997,-0.13275
1786,-0.010943,-0.24643,-0.2474,0.11638,-0.045047,-1.1416,-0.1256
1787,-0.014516,-0.26299,-0.27014,0.10501,-0.0076946,-1.2101,-0.12398
1788,-0.020037,-0.28053,-0.28508,0.096569,0.019264,-1.3004,-0.123
1789,-0.022961,-0.29417,-0.29353,0.087799,0.026085,-1.4196,-0.1217
1790,-0.021661,-0.29807,-0.29547,0.075781,0.0088706,-1.5684,-0.12527
1791,-0.01549,-0.28605,-0.29093,0.059216,-0.030106,-1.7318,-0.13827
1792,-0.010618,-0.25552,-0.27664,0.036154,-0.083375,-1.8815,-0.16068
1793,-0.008669,-0.20745,-0.25033,0.0078962,-0.14087,-1.9809,-0.18764
1794,-0.0093186,-0.14769,-0.21557,-0.020687,-0.19771,-1.9858,-0.21395
1795,-0.013866,-0.084674,-0.17789,-0.046022,-0.25033,-1.8705,-0.22954
1796,-0.020037,-0.026858,-0.13957,-0.062912,-0.29093,-1.6402,-0.22726
1797,-0.027508,0.018615,-0.095717,-0.070707,-0.31009,-1.3232,-0.21265
1798,-0.033354,0.049147,-0.04992,-0.072656,-0.30392,-0.93827,-0.19836
1799,-0.033679,0.071883,-0.0096434,-0.070058,-0.27306,-0.50205,-0.19186
1800,-0.027183,0.093645,0.019264,-0.065186,-0.22564,-0.027183,-0.19024
1801,-0.014516,0.11573,0.033556,-0.060313,-0.17302,0.4675,-0.18601
1802,-0.0031473,0.13977,0.032257,-0.058365,-0.12268,0.95341,-0.17627
1803,0.0043233,0.16478,0.018615,-0.05804,-0.082725,1.3662,-0.16165
1804,0.0059473,0.18297,0.00075039,-0.059989,-0.058689,1.6274,-0.14736
1805,0.0046481,0.18622,-0.019063,-0.063237,-0.049595,1.706,-0.13794
1806,0.00075039,0.17907,-0.038227,-0.064211,-0.052843,1.6608,-0.13047
1807,-0.0050961,0.17127,-0.04862,-0.061288,-0.055441,1.5972,-0.1217
1808,-0.010293,0.16868,-0.038876,-0.054792,-0.051219,1.6102,-0.10611
1809,-0.0083442,0.17192,0.0046481,-0.043748,-0.03238,1.7476,-0.081101
1810,0.00042559,0.17939,0.090397,-0.030756,0.0088706,2.025,-0.044073
1811,0.009845,0.18719,0.20473,-0.018738,0.088773,2.4284,0.0052977
1812,0.015367,0.19141,0.31127,-0.0073698,0.22,2.9026,0.068635
1813,0.018615,0.18654,0.37136,-0.0028225,0.41228,3.3388,0.14432
1814,0.020564,0.17322,0.36681,-0.008669,0.64939,3.6289,0.22519
1815,0.02706,0.15438,0.30672,-0.026209,0.88195,3.7049,0.29892
1816,0.039402,0.13327,0.21772,-0.054792,1.0356,3.5337,0.34894
1817,0.051745,0.11573,0.12905,-0.086623,1.0544,3.1238,0.36973
