,channel_1,channel_2,channel_3,channel_4,channel_5,channel_6,channel_7
0,0.030308,-0.030106,0.049796,0.084876,-0.056416,0.83226,0.073507
1,0.021863,-0.028482,0.057267,0.088448,-0.021012,0.99206,0.080653
2,0.014392,-0.02426,0.040377,0.078055,0.014392,1.121,0.10209
3,0.009845,0.00010078,0.00075039,0.059541,0.046548,1.1681,0.1284
4,0.0091954,0.05272,-0.04862,0.038753,0.076431,1.1113,0.14691
5,0.0078962,0.12483,-0.09182,0.020564,0.10729,0.97257,0.15341
6,0.0023744,0.19823,-0.11131,0.015367,0.14334,0.80497,0.14724
7,-0.0080194,0.25248,-0.10091,0.024461,0.19304,0.65231,0.13457
8,-0.021986,0.27911,-0.065186,0.041351,0.26449,0.52954,0.11963
9,-0.03303,0.27749,-0.020687,0.055643,0.36031,0.42885,0.10956
10,-0.03303,0.25248,0.015692,0.064737,0.47529,0.33952,0.10599
11,-0.021661,0.2083,0.03518,0.067011,0.59612,0.26287,0.10696
12,-0.0021729,0.15503,0.033881,0.066686,0.7163,0.2057,0.10989
13,0.01829,0.10014,0.016341,0.064737,0.82836,0.16543,0.11151
14,0.038753,0.048497,-0.0080194,0.06084,0.90826,0.13165,0.11443
15,0.058891,0.0033489,-0.03173,0.055968,0.93587,0.10501,0.12515
16,0.076106,-0.03303,-0.04927,0.054344,0.90826,0.097868,0.14919
17,0.089748,-0.064536,-0.061288,0.056942,0.83875,0.12125,0.18427
18,0.096244,-0.093119,-0.070058,0.06019,0.75203,0.17095,0.22065
19,0.098842,-0.11715,-0.077853,0.057917,0.67408,0.23104,0.23981
20,0.10144,-0.13827,-0.084674,0.045574,0.6286,0.28268,0.23494
21,0.10274,-0.15483,-0.089221,0.02706,0.61659,0.31257,0.21675
22,0.10274,-0.16523,-0.087597,0.0046481,0.62438,0.31549,0.19628
23,0.10436,-0.16815,-0.078178,-0.017114,0.63835,0.2895,0.17192
24,0.10631,-0.16295,-0.062587,-0.037902,0.63932,0.23883,0.14107
25,0.10112,-0.14899,-0.045047,-0.053168,0.61561,0.17485,0.10566
26,0.086824,-0.13145,-0.028807,-0.062912,0.57079,0.10859,0.071883
27,0.063438,-0.11553,-0.015815,-0.071682,0.51362,0.053044,0.04395
28,0.035505,-0.10254,-0.0093186,-0.084024,0.43989,0.0059473,0.020239
29,0.0078962,-0.095393,-0.0096434,-0.10514,0.30477,-0.050569,-0.0057458
30,-0.019712,-0.097017,-0.015165,-0.1321,0.042975,-0.13599,-0.040825
31,-0.043423,-0.10644,-0.028157,-0.15711,-0.35037,-0.24058,-0.087597
32,-0.062262,-0.12463,-0.043099,-0.17465,-0.77229,-0.32503,-0.13729
33,-0.072981,-0.14606,-0.056416,-0.18179,-1.0945,-0.35979,-0.17724
34,-0.073631,-0.16425,-0.06616,-0.17659,-1.2472,-0.3442,-0.19608
35,-0.065186,-0.17237,-0.075904,-0.16425,-1.2371,-0.30847,-0.19121
36,-0.052843,-0.16555,-0.087597,-0.14639,-1.1192,-0.29353,-0.17335
37,-0.040175,-0.13957,-0.10351,-0.12495,-0.96133,-0.33543,-0.15581
38,-0.030756,-0.10221,-0.12333,-0.096692,-0.82296,-0.44489,-0.14574
39,-0.026209,-0.066485,-0.14606,-0.063561,-0.73104,-0.59657,-0.14541
40,-0.026209,-0.040175,-0.16653,-0.020362,-0.68199,-0.74533,-0.15158
41,-0.025559,-0.016789,-0.18147,0.046223,-0.65861,-0.85154,-0.16035
42,-0.018738,0.013743,-0.18471,0.14237,-0.63717,-0.88987,-0.16815
43,-0.0031473,0.057917,-0.1727,0.25443,-0.60209,-0.85317,-0.16653
44,0.019914,0.10989,-0.14216,0.35674,-0.54558,-0.7567,-0.14671
45,0.044924,0.15861,-0.097991,0.4204,-0.47055,-0.63262,-0.11358
46,0.066362,0.19044,-0.048945,0.42527,-0.38772,-0.51407,-0.079477
47,0.080003,0.19953,-0.0067202,0.37038,-0.31171,-0.42247,-0.057065
48,0.084876,0.19174,0.016341,0.27846,-0.2487,-0.35946,-0.050244
49,0.078379,0.17777,0.01764,0.18037,-0.19348,-0.31951,-0.057065
50,0.063438,0.16121,0.0085458,0.10404,-0.14119,-0.28346,-0.072331
51,0.044924,0.14334,-0.0021729,0.057917,-0.089221,-0.23051,-0.088896
52,0.026085,0.1232,-0.0080194,0.037454,-0.040175,-0.12008,-0.099615
53,0.011144,0.10014,-0.0083442,0.028034,0.0026992,0.086824,-0.095717
54,0.0026992,0.07773,-0.0041217,0.01829,0.039727,0.38792,-0.071032
55,0.0017248,0.059216,0.0062721,0.0091954,0.083576,0.73579,-0.025559
56,0.0075714,0.049147,0.022837,0.009845,0.15958,1.071,0.033231
57,0.017965,0.054019,0.050771,0.026085,0.28626,1.3503,0.094945
58,0.035505,0.073182,0.089748,0.061489,0.45028,1.553,0.15244
59,0.059541,0.10209,0.13684,0.11216,0.61853,1.6696,0.20311
60,0.084226,0.131,0.18167,0.16803,0.75983,1.6943,0.24176
61,0.10014,0.14756,0.21123,0.21772,0.86214,1.6332,0.26352
62,0.10144,0.14951,0.21805,0.25702,0.92353,1.5017,0.27034
63,0.090722,0.14432,0.2161,0.2895,0.9336,1.3068,0.26742
64,0.072858,0.13912,0.22454,0.31451,0.87156,1.0431,0.25475
65,0.054019,0.13717,0.25345,0.32166,0.72215,0.70526,0.23234
66,0.034855,0.1336,0.296,0.29762,0.5081,0.30834,0.20116
67,0.016016,0.12385,0.32556,0.24046,0.28398,-0.11618,0.16121
68,-0.007045,0.10274,0.31029,0.15536,0.11573,-0.51699,0.11606
69,-0.032055,0.071883,0.23818,0.059541,0.039078,-0.84148,0.073832
70,-0.053817,0.032257,0.1245,-0.034004,0.04395,-1.0607,0.037778
71,-0.06551,-0.0047713,-0.0067202,-0.11845,0.087149,-1.1647,0.01017
72,-0.061613,-0.030756,-0.12268,-0.18471,0.12775,-1.1452,-0.0089938
73,-0.04862,-0.041799,-0.19673,-0.22986,0.13847,-1.0039,-0.021012
74,-0.035303,-0.042449,-0.22044,-0.2565,0.11216,-0.76807,-0.026209
75,-0.022311,-0.038551,-0.19998,-0.27599,0.056942,-0.49783,-0.030106
76,-0.014191,-0.038876,-0.15646,-0.2958,-0.0057458,-0.28313,-0.036602
77,-0.013541,-0.046022,-0.10903,-0.31691,-0.059014,-0.19673,-0.051868
78,-0.021012,-0.060638,-0.072656,-0.3377,-0.099615,-0.26851,-0.078178
79,-0.03238,-0.073955,-0.052193,-0.34907,-0.1282,-0.466,-0.10903
80,-0.042774,-0.077203,-0.039526,-0.34777,-0.14834,-0.71448,-0.13275
81,-0.04992,-0.069408,-0.022311,-0.32893,-0.16295,-0.93989,-0.14216
82,-0.048945,-0.056741,0.017316,-0.29417,-0.17562,-1.0942,-0.13502
83,-0.039201,-0.041799,0.089423,-0.2448,-0.18504,-1.1643,-0.11293
84,-0.023935,-0.023935,0.18654,-0.18991,-0.18407,-1.1621,-0.079152
85,-0.0057458,-0.0037969,0.28073,-0.13989,-0.17075,-1.0958,-0.034654
86,0.01829,0.016991,0.34147,-0.098965,-0.14444,-0.97335,0.021213
87,0.049147,0.040377,0.35804,-0.068434,-0.10903,-0.80867,0.086175
88,0.084876,0.067336,0.3418,-0.044073,-0.078503,-0.64042,0.15081
89,0.11443,0.095919,0.31322,-0.025884,-0.066485,-0.51894,0.20148
90,0.1284,0.12353,0.28918,-0.020037,-0.081751,-0.47769,0.22259
91,0.12743,0.15114,0.27196,-0.020362,-0.12138,-0.50887,0.20928
92,0.11606,0.18102,0.25572,-0.017764,-0.17042,-0.57156,0.1729
93,0.10501,0.21577,0.24046,-0.008669,-0.21752,-0.61508,0.13684
94,0.099492,0.25183,0.23234,0.0014,-0.25487,-0.59884,0.11931
95,0.10144,0.27879,0.23948,0.0036737,-0.27566,-0.50985,0.12418
96,0.10924,0.28496,0.25085,-0.0083442,-0.27241,-0.35979,0.1362
97,0.11216,0.26092,0.24338,-0.035303,-0.24513,-0.18309,0.13425
98,0.10047,0.20928,0.19986,-0.073631,-0.20518,-0.017114,0.10696
99,0.072533,0.14107,0.12613,-0.11878,-0.16555,0.11054,0.06084
100,0.032582,0.071234,0.03453,-0.15776,-0.13729,0.19726,0.0033489
101,-0.0096434,0.014717,-0.052843,-0.18082,-0.1256,0.25865,-0.057715
102,-0.042449,-0.017764,-0.1178,-0.18959,-0.12917,0.30802,-0.11748
103,-0.057065,-0.025559,-0.15386,-0.19056,-0.14216,0.34732,-0.1701
104,-0.053168,-0.015815,-0.16523,-0.18699,-0.15256,0.3772,-0.2107
105,-0.039851,0.00010078,-0.16458,-0.18147,-0.15353,0.40221,-0.23766
106,-0.025884,0.01764,-0.16263,-0.17627,-0.14249,0.41715,-0.25292
107,-0.018088,0.031607,-0.16685,-0.17172,-0.12463,0.40936,-0.25357
108,-0.018738,0.040702,-0.17692,-0.1675,-0.10903,0.36389,-0.2448
109,-0.025884,0.038428,-0.19121,-0.16977,-0.10221,0.27716,-0.23149
110,-0.039201,0.023812,-0.212,-0.18601,-0.10903,0.16478,-0.21979
111,-0.055441,0.0020496,-0.2435,-0.22272,-0.13177,0.064088,-0.21232
112,-0.069733,-0.019712,-0.28216,-0.27339,-0.1688,0.010495,-0.21102
113,-0.078178,-0.036927,-0.31886,-0.32666,-0.21167,0.033556,-0.21525
114,-0.078178,-0.046347,-0.33802,-0.36888,-0.24968,0.13295,-0.21817
115,-0.07493,-0.051219,-0.33088,-0.38902,-0.27014,0.27456,-0.21297
116,-0.071682,-0.053817,-0.29612,-0.37992,-0.26884,0.42462,-0.20063
117,-0.06551,-0.054792,-0.23603,-0.34452,-0.24773,0.56494,-0.19024
118,-0.059014,-0.056416,-0.15841,-0.2906,-0.2172,0.6822,-0.18439
119,-0.050569,-0.061613,-0.070707,-0.22597,-0.18796,0.75723,-0.18017
120,-0.042124,-0.067134,0.01829,-0.15418,-0.1623,0.77509,-0.17042
121,-0.038227,-0.075255,0.10469,-0.069083,-0.13632,0.73579,-0.15451
122,-0.037252,-0.084674,0.18751,0.036154,-0.10481,0.65816,-0.13697
123,-0.0405,-0.091495,0.26872,0.16543,-0.068758,0.57436,-0.12495
124,-0.046022,-0.090845,0.34992,0.30477,-0.035628,0.51525,-0.11878
125,-0.050894,-0.079802,0.43307,0.42592,-0.018738,0.48894,-0.11521
126,-0.052193,-0.055441,0.51362,0.5055,-0.017439,0.47335,-0.11163
127,-0.046996,-0.02361,0.57404,0.53506,-0.03303,0.43664,-0.10416
128,-0.034978,0.0091954,0.59807,0.52564,-0.066485,0.35219,-0.092469
129,-0.021337,0.03453,0.57761,0.5055,-0.11488,0.21772,-0.0824
130,-0.010293,0.048497,0.5146,0.48829,-0.17075,0.050771,-0.076554
131,-0.0057458,0.054344,0.41293,0.47399,-0.21882,-0.12073,-0.080776
132,-0.0073698,0.05142,0.28431,0.45028,-0.24578,-0.27923,-0.094093
133,-0.017764,0.037454,0.14399,0.40319,-0.25033,-0.4241,-0.11391
134,-0.030756,0.013418,0.0062721,0.33043,-0.24448,-0.55889,-0.13177
135,-0.043423,-0.017764,-0.1217,0.24176,-0.23701,-0.68492,-0.14444
136,-0.054467,-0.051219,-0.23246,0.15471,-0.23344,-0.80152,-0.15678
137,-0.06616,-0.081751,-0.31496,0.084226,-0.23311,-0.91553,-0.17659
138,-0.076229,-0.10286,-0.36044,0.042001,-0.23246,-1.036,-0.20031
139,-0.085973,-0.11488,-0.37375,0.023812,-0.22499,-1.1663,-0.22272
140,-0.093769,-0.11975,-0.36758,0.020239,-0.20778,-1.3043,-0.23701
141,-0.097017,-0.11748,-0.34842,0.021538,-0.17919,-1.4342,-0.23993
142,-0.096367,-0.10611,-0.31561,0.021213,-0.14184,-1.5252,-0.22856
143,-0.089546,-0.085973,-0.25747,0.014717,-0.097341,-1.5505,-0.19673
144,-0.080451,-0.060313,-0.17107,0.0049729,-0.045697,-1.4859,-0.14769
145,-0.067784,-0.037252,-0.077853,-0.0037969,0.0033489,-1.3258,-0.086298
146,-0.051544,-0.02361,-0.013541,-0.010618,0.036154,-1.0825,-0.025884
147,-0.035953,-0.025234,-0.0063954,-0.016789,0.044275,-0.78171,0.023162
148,-0.025234,-0.039851,-0.060638,-0.018413,0.03518,-0.45138,0.059541
149,-0.017439,-0.058689,-0.14639,-0.014191,0.023812,-0.13762,0.092996
150,-0.0073698,-0.069733,-0.22239,-0.0015233,0.032906,0.11768,0.13782
151,0.013093,-0.061288,-0.25617,0.017965,0.070584,0.3038,0.20051
152,0.050446,-0.029782,-0.23603,0.045899,0.1336,0.44834,0.28333
153,0.10501,0.022512,-0.17172,0.092996,0.22714,0.59677,0.3772
154,0.17257,0.087149,-0.0824,0.16315,0.35414,0.77737,0.4675
155,0.23948,0.15016,0.0069217,0.2489,0.49446,0.97712,0.53896
156,0.29145,0.19596,0.067986,0.32621,0.61301,1.1421,0.57533
157,0.31451,0.21642,0.0852,0.37006,0.68252,1.2214,0.57111
158,0.29925,0.20993,0.053044,0.36518,0.70039,1.2025,0.54513
159,0.24728,0.17842,-0.014191,0.31029,0.68155,1.1184,0.51297
160,0.18069,0.12678,-0.093119,0.22584,0.64939,1.0258,0.48049
161,0.12223,0.066037,-0.16068,0.14367,0.62665,0.95926,0.44931
162,0.081952,0.0078962,-0.2055,0.098517,0.61983,0.91249,0.41975
163,0.055643,-0.038876,-0.22597,0.11443,0.62276,0.85434,0.39117
164,0.039078,-0.06551,-0.22661,0.18459,0.61821,0.7608,0.36356
165,0.032582,-0.070058,-0.21362,0.27164,0.59158,0.63023,0.33205
166,0.034206,-0.05804,-0.19608,0.33043,0.53766,0.48471,0.29308
167,0.040052,-0.038876,-0.18017,0.33303,0.46458,0.35674,0.25085
168,0.044599,-0.017439,-0.16977,0.27976,0.38402,0.26255,0.21415
169,0.047198,0.0036737,-0.16685,0.18816,0.30769,0.19141,0.18394
170,0.049796,0.020888,-0.16458,0.085525,0.23981,0.1271,0.15666
171,0.046548,0.030957,-0.15743,-0.007045,0.17972,0.071558,0.13197
172,0.039402,0.032582,-0.14184,-0.076879,0.12645,0.040702,0.10956
173,0.032582,0.029009,-0.1191,-0.11975,0.081952,0.047847,0.091372
174,0.029658,0.02641,-0.091495,-0.13242,0.048822,0.084226,0.079679
175,0.03583,0.027709,-0.065835,-0.12398,0.02706,0.12807,0.072208
176,0.051096,0.031932,-0.046671,-0.10806,0.011469,0.15861,0.066686
177,0.063763,0.040702,-0.036927,-0.094093,-0.0011985,0.17192,0.058891
178,0.067336,0.05272,-0.031406,-0.085648,-0.0099683,0.17777,0.045249
179,0.056942,0.063763,-0.028157,-0.0837,-0.014191,0.19044,0.02641
180,0.036479,0.067661,-0.029782,-0.087272,-0.011917,0.20213,0.0062721
181,0.013093,0.063438,-0.039201,-0.089546,-0.013216,0.19499,-0.012567
182,-0.0050961,0.047847,-0.054792,-0.089546,-0.028807,0.16283,-0.031081
183,-0.01549,0.023812,-0.068109,-0.079477,-0.064211,0.1245,-0.04927
184,-0.015165,-0.0018481,-0.071682,-0.063561,-0.11683,0.10664,-0.060963
185,-0.0067202,-0.023285,-0.059339,-0.046022,-0.17107,0.1336,-0.062912
186,0.0049729,-0.036278,-0.03303,-0.030431,-0.21135,0.21058,-0.056416
187,0.015367,-0.038876,-0.00022403,-0.017764,-0.22824,0.32491,-0.045372
188,0.01764,-0.03238,0.032582,-0.0093186,-0.21849,0.45321,-0.031081
189,0.0072465,-0.021337,0.059541,-0.0076946,-0.18601,0.57241,-0.016464
190,-0.013541,-0.013866,0.07773,-0.010943,-0.13924,0.66758,-0.010293
191,-0.039201,-0.011267,0.084226,-0.013216,-0.086623,0.72897,-0.019063
192,-0.062262,-0.011917,0.07708,-0.0076946,-0.038227,0.74911,-0.043423
193,-0.077528,-0.014516,0.060515,0.003024,-0.0060706,0.72572,-0.076879
194,-0.085648,-0.019388,0.04395,0.015692,0.0069217,0.66531,-0.10514
195,-0.086948,-0.028807,0.031932,0.025761,0.00075039,0.57144,-0.11715
196,-0.080451,-0.036927,0.027709,0.030308,-0.021012,0.45386,-0.11228
197,-0.070707,-0.038551,0.033231,0.029333,-0.05804,0.32718,-0.094093
198,-0.060963,-0.034978,0.051096,0.024137,-0.10384,0.21025,-0.069408
199,-0.046347,-0.026209,0.076106,0.020888,-0.14931,0.11833,-0.042774
200,-0.025234,-0.015815,0.099492,0.022837,-0.17952,0.050446,-0.020362
201,0.00010078,-0.0050961,0.11833,0.029009,-0.18829,-0.011917,-0.0044465
202,0.022188,0.0026992,0.12937,0.037778,-0.18212,-0.086623,0.0039985
203,0.036154,0.0049729,0.13717,0.046548,-0.17659,-0.17335,0.0062721
204,0.040052,0.00010078,0.13847,0.054344,-0.18277,-0.2578,-0.0024977
205,0.041027,-0.008669,0.13165,0.053044,-0.20615,-0.3286,-0.021337
206,0.041676,-0.022636,0.11833,0.040702,-0.23993,-0.37992,-0.044723
207,0.038428,-0.039851,0.10079,0.021863,-0.27079,-0.40818,-0.069733
208,0.028034,-0.059339,0.083901,0.0039985,-0.28476,-0.41598,-0.092794
209,0.0088706,-0.075904,0.06831,-0.0073698,-0.27014,-0.41078,-0.10384
210,-0.013541,-0.086298,0.055968,-0.012567,-0.22239,-0.39974,-0.097017
211,-0.03173,-0.09117,0.044924,-0.015815,-0.14736,-0.3809,-0.077853
212,-0.038227,-0.089221,0.034206,-0.01614,-0.054142,-0.35069,-0.060963
213,-0.032055,-0.081426,0.023487,-0.018413,0.042651,-0.30814,-0.052843
214,-0.01614,-0.069083,0.017965,-0.020037,0.13944,-0.25845,-0.056416
215,0.0052977,-0.050569,0.023162,-0.018088,0.23526,-0.21362,-0.063237
216,0.023812,-0.025559,0.039727,-0.012242,0.31809,-0.18634,-0.06681
217,0.032906,0.0020496,0.06084,-0.0024977,0.36843,-0.18894,-0.070707
218,0.031282,0.025111,0.078055,0.0059473,0.36194,-0.23116,-0.080127
219,0.027385,0.042326,0.084551,0.0078962,0.28333,-0.30944,-0.095717
220,0.022512,0.048172,0.078704,0.00010078,0.13067,-0.4137,-0.11586
221,0.015367,0.042001,0.061814,-0.013216,-0.063886,-0.52089,-0.1308
222,0.0069217,0.030957,0.041027,-0.023935,-0.23863,-0.60274,-0.12982
223,-0.0021729,0.019589,0.023812,-0.02361,-0.34355,-0.63295,-0.11618
224,-0.0089938,0.015367,0.016991,-0.0096434,-0.38025,-0.61184,-0.096692
225,-0.011917,0.018615,0.019914,0.012768,-0.38707,-0.57156,-0.081101
226,-0.0089938,0.028034,0.029009,0.035505,-0.40266,-0.55272,-0.071032
227,-0.0050961,0.036479,0.033231,0.048822,-0.44651,-0.57806,-0.065186
228,-0.0021729,0.034855,0.031932,0.047847,-0.51147,-0.63197,-0.057065
229,-0.0057458,0.020239,0.029009,0.032582,-0.57156,-0.68005,-0.044723
230,-0.015815,-0.0011985,0.027385,0.011794,-0.60437,-0.69564,-0.025884
231,-0.026858,-0.021012,0.029658,-0.007045,-0.59592,-0.67615,-0.0018481
232,-0.036602,-0.033679,0.03583,-0.020687,-0.54558,-0.63717,0.022512
233,-0.039851,-0.036602,0.041676,-0.021661,-0.46632,-0.59202,0.043625
234,-0.042774,-0.03173,0.0433,-0.012567,-0.38187,-0.54135,0.057267
235,-0.046671,-0.02426,0.037454,0.0036737,-0.30847,-0.47607,0.063113
236,-0.04992,-0.017114,0.023487,0.01829,-0.25162,-0.38902,0.064413
237,-0.04992,-0.012242,0.0085458,0.023162,-0.20615,-0.27599,0.063763
238,-0.043748,-0.013216,-0.0041217,0.017316,-0.16035,-0.13794,0.064737
239,-0.034654,-0.018413,-0.008669,0.0056225,-0.10644,0.017316,0.067336
240,-0.023285,-0.024909,-0.0047713,-0.0067202,-0.049595,0.18069,0.071234
241,-0.013866,-0.022636,0.0078962,-0.015165,0.00075039,0.33725,0.076755
242,-0.011917,-0.0083442,0.028034,-0.022961,0.038103,0.47172,0.084551
243,-0.017439,0.0088706,0.049796,-0.030756,0.066037,0.58768,0.091696
244,-0.030431,0.020888,0.072858,-0.034654,0.091372,0.68837,0.098193
245,-0.045047,0.023162,0.096893,-0.025234,0.11898,0.76535,0.10566
246,-0.057065,0.016341,0.12353,-0.0024977,0.14626,0.80627,0.11281
247,-0.060638,0.0069217,0.14886,0.025111,0.15958,0.81472,0.11931
248,-0.056091,0.0026992,0.16543,0.049147,0.16023,0.80205,0.12288
249,-0.044073,0.008221,0.16998,0.067336,0.15633,0.77152,0.12288
250,-0.030106,0.021213,0.15991,0.075456,0.15373,0.71825,0.12158
251,-0.014516,0.036154,0.13522,0.07773,0.15958,0.64582,0.1232
252,-0.0018481,0.049472,0.099817,0.072208,0.17517,0.56494,0.12515
253,0.0091954,0.062789,0.060515,0.059865,0.19693,0.48926,0.12223
254,0.016341,0.070909,0.023487,0.0433,0.21707,0.43242,0.10989
255,0.019914,0.072858,-0.0080194,0.02641,0.22584,0.40676,0.089098
256,0.021863,0.06831,-0.031406,0.0091954,0.21902,0.4152,0.068635
257,0.02641,0.06084,-0.046996,-0.0060706,0.20408,0.44021,0.055643
258,0.029658,0.057267,-0.055116,-0.018088,0.18654,0.45288,0.051745
259,0.029983,0.058241,-0.056741,-0.02426,0.17387,0.41878,0.053044
260,0.027709,0.062464,-0.054142,-0.024909,0.16803,0.32198,0.05272
261,0.022188,0.067661,-0.04992,-0.022636,0.16738,0.17322,0.049796
262,0.015042,0.070259,-0.048945,-0.021661,0.16835,0.0017248,0.042651
263,0.010495,0.070584,-0.051868,-0.021661,0.16575,-0.17432,0.031282
264,0.012443,0.06831,-0.057065,-0.023285,0.15438,-0.35199,0.014717
265,0.016341,0.063113,-0.064861,-0.030431,0.13425,-0.53096,-0.0054209
266,0.017316,0.06019,-0.073631,-0.043423,0.10956,-0.70376,-0.028157
267,0.013418,0.065712,-0.078827,-0.055766,0.0852,-0.85089,-0.049595
268,0.0056225,0.078379,-0.077528,-0.063561,0.062789,-0.94834,-0.070707
269,-0.0031473,0.097868,-0.064211,-0.059014,0.0433,-0.98666,-0.089221
270,-0.0080194,0.11866,-0.032705,-0.042774,0.028684,-0.96847,-0.10221
271,-0.0060706,0.13652,0.021213,-0.020037,0.01894,-0.90644,-0.10806
272,0.003024,0.14561,0.10242,0.0026992,0.014392,-0.81971,-0.10319
273,0.01764,0.14691,0.2096,0.025436,0.014717,-0.73331,-0.095393
274,0.035505,0.14496,0.33368,0.045574,0.016016,-0.66738,-0.092794
275,0.049796,0.14334,0.45646,0.057592,0.016991,-0.61314,-0.10091
276,0.052395,0.14399,0.54773,0.056617,0.0088706,-0.542,-0.11488
277,0.042326,0.14821,0.57728,0.041027,-0.015815,-0.42475,-0.12755
278,0.024461,0.15049,0.53181,0.014392,-0.053168,-0.26722,-0.14022
279,0.0069217,0.14432,0.423,-0.018088,-0.089546,-0.10838,-0.15191
280,-0.0024977,0.1271,0.28041,-0.047321,-0.11423,0.030957,-0.15581
281,0.0014,0.10144,0.13977,-0.068434,-0.11131,0.17777,-0.14671
282,0.016016,0.074482,0.028684,-0.078503,-0.079802,0.38467,-0.1217
283,0.036479,0.055318,-0.035303,-0.076554,-0.028482,0.67538,-0.079477
284,0.058241,0.048172,-0.056416,-0.059989,0.028034,1.0047,-0.031081
285,0.077405,0.050446,-0.053168,-0.03303,0.074157,1.2652,0.0085458
286,0.08585,0.057917,-0.045697,-0.0067202,0.098193,1.3562,0.029009
287,0.080653,0.060515,-0.045047,0.0072465,0.095919,1.2477,0.023812
288,0.064413,0.05207,-0.052518,0.0039985,0.07708,0.98946,0.003024
289,0.041676,0.032257,-0.063237,-0.011917,0.05272,0.67603,-0.021012
290,0.019589,0.0075714,-0.072331,-0.030431,0.024137,0.40676,-0.034654
291,0.0017248,-0.01549,-0.077528,-0.052843,-0.0089938,0.22519,-0.033354
292,-0.0060706,-0.028157,-0.079477,-0.081751,-0.049595,0.10696,-0.021986
293,-0.0054209,-0.03173,-0.079802,-0.11943,-0.10091,0.0014,-0.011917
294,0.0052977,-0.031081,-0.0824,-0.16555,-0.15029,-0.11196,-0.0060706
295,0.021538,-0.030431,-0.091495,-0.20908,-0.17822,-0.21037,-0.0054209
296,0.034855,-0.027508,-0.10774,-0.23733,-0.15841,-0.2461,-0.0018481
297,0.038753,-0.021337,-0.12398,-0.24058,-0.069083,-0.17627,0.012443
298,0.034206,-0.014191,-0.13307,-0.21785,0.096569,0.0078962,0.0433
299,0.026085,-0.010618,-0.12982,-0.17465,0.32296,0.27261,0.090072
300,0.01829,-0.010293,-0.11001,-0.11715,0.57306,0.54545,0.14139
301,0.016016,-0.0089938,-0.077853,-0.04862,0.80302,0.74781,0.18557
302,0.019264,-0.0024977,-0.036927,0.021863,0.97485,0.82414,0.21058
303,0.024461,0.013418,0.0062721,0.087149,1.0586,0.76275,0.21447
304,0.030633,0.036154,0.042001,0.14237,1.0457,0.59158,0.20148
305,0.03583,0.055968,0.063438,0.18004,0.95146,0.36583,0.1768
306,0.035505,0.065712,0.067336,0.19888,0.80335,0.14237,0.14496
307,0.030633,0.062464,0.054344,0.19726,0.63315,-0.039851,0.10956
308,0.023162,0.047523,0.029009,0.18167,0.46068,-0.16685,0.075781
309,0.020239,0.026085,-0.0083442,0.15373,0.29633,-0.24578,0.045249
310,0.020239,0.0052977,-0.050569,0.11995,0.14724,-0.29158,0.016991
311,0.019589,-0.0067202,-0.089871,0.0852,0.022837,-0.32373,-0.008669
312,0.014392,-0.007045,-0.1204,0.059216,-0.071357,-0.36791,-0.039526
313,0.0072465,-0.0031473,-0.13957,0.047198,-0.13729,-0.44489,-0.081101
314,-0.0018481,-0.0015233,-0.14899,0.048172,-0.19089,-0.55337,-0.12885
315,-0.013216,-0.0073698,-0.14769,0.057917,-0.2448,-0.67485,-0.17594
316,-0.025559,-0.018088,-0.14249,0.068635,-0.29872,-0.77944,-0.2107
317,-0.040175,-0.031406,-0.13892,0.070584,-0.34712,-0.84148,-0.22726
318,-0.060313,-0.044723,-0.14184,0.065712,-0.38252,-0.8496,-0.22337
319,-0.081426,-0.055116,-0.14704,0.055968,-0.40006,-0.80737,-0.20193
320,-0.092469,-0.058689,-0.14801,0.041676,-0.39454,-0.72617,-0.16653
321,-0.086623,-0.052518,-0.14249,0.026735,-0.36791,-0.62061,-0.11586
322,-0.062587,-0.041799,-0.13307,0.019589,-0.32081,-0.504,-0.047321
323,-0.031406,-0.035953,-0.12203,0.023487,-0.26007,-0.38545,0.032582
324,-0.0024977,-0.037252,-0.10611,0.038428,-0.18504,-0.28248,0.11476
325,0.015692,-0.042774,-0.0837,0.066362,-0.10026,-0.20518,0.18654
326,0.025761,-0.045372,-0.059664,0.099167,-0.012242,-0.15126,0.24436
327,0.031932,-0.036927,-0.039851,0.12807,0.070909,-0.10741,0.28561
328,0.038103,-0.019063,-0.030431,0.15114,0.15211,-0.059014,0.31549
329,0.045899,-0.0024977,-0.035628,0.17062,0.23494,0.0010752,0.33043
330,0.049472,0.0069217,-0.055116,0.18719,0.31354,0.063763,0.32816
331,0.051096,0.0056225,-0.085973,0.19726,0.36648,0.10696,0.30769
332,0.048497,-0.008669,-0.11975,0.19239,0.3772,0.10794,0.26807
333,0.043625,-0.03173,-0.15093,0.17062,0.3366,0.056942,0.21382
334,0.037129,-0.056091,-0.17205,0.13522,0.25313,-0.033354,0.15211
335,0.029009,-0.070707,-0.18504,0.099817,0.14919,-0.13112,0.094945
336,0.021863,-0.072331,-0.19511,0.072533,0.044924,-0.21005,0.050121
337,0.020888,-0.064536,-0.212,0.053694,-0.045697,-0.26559,0.019914
338,0.024461,-0.055766,-0.23896,0.038428,-0.12203,-0.30847,-0.0041217
339,0.027709,-0.052843,-0.26722,0.021213,-0.19154,-0.35167,-0.030106
340,0.024461,-0.055441,-0.28151,0.0026992,-0.25845,-0.40331,-0.059989
341,0.013743,-0.058689,-0.27404,-0.014191,-0.31821,-0.46275,-0.095393
342,0.0049729,-0.056416,-0.24188,-0.027833,-0.36758,-0.52316,-0.13112
343,0.0026992,-0.044723,-0.18991,-0.034978,-0.40363,-0.57351,-0.16035
344,0.0065969,-0.023935,-0.12073,-0.035303,-0.42702,-0.60242,-0.17822
345,0.012443,0.0065969,-0.043099,-0.03303,-0.43936,-0.59917,-0.18764
346,0.019589,0.042975,0.02641,-0.03238,-0.44489,-0.55337,-0.19024
347,0.028034,0.07708,0.079029,-0.034654,-0.44261,-0.46697,-0.18407
348,0.039727,0.10274,0.11671,-0.043423,-0.43092,-0.35654,-0.17205
349,0.054019,0.11963,0.14756,-0.055441,-0.41403,-0.2461,-0.15386
350,0.067986,0.13197,0.18329,-0.067784,-0.39129,-0.15126,-0.12917
351,0.07773,0.14496,0.23591,-0.076554,-0.36011,-0.08305,-0.10384
352,0.081627,0.15991,0.30672,-0.082076,-0.32178,-0.034329,-0.081751
353,0.078379,0.16803,0.38467,-0.081101,-0.28216,0.0085458,-0.067459
354,0.067011,0.16413,0.44379,-0.073631,-0.24513,0.061165,-0.059664
355,0.049147,0.14919,0.45483,-0.067134,-0.21492,0.12937,-0.054142
356,0.032257,0.1245,0.40903,-0.065835,-0.19056,0.22194,-0.042449
357,0.022188,0.09462,0.32393,-0.062912,-0.1623,0.3431,-0.01614
358,0.020888,0.069285,0.23916,-0.047646,-0.1204,0.5042,0.028359
359,0.02641,0.051745,0.19044,-0.020037,-0.070058,0.71143,0.0852
360,0.03453,0.0433,0.18849,0.009845,-0.025234,0.93522,0.14496
361,0.050121,0.039078,0.21188,0.033556,0.0065969,1.121,0.19563
362,0.068635,0.034206,0.23104,0.042651,0.020888,1.2116,0.22779
363,0.080003,0.023487,0.22422,0.038428,0.016666,1.1733,0.23494
364,0.071234,0.0036737,0.18719,0.025436,-0.0011985,1.0129,0.22129
365,0.043625,-0.022311,0.13165,0.011144,-0.028482,0.76665,0.19726
366,0.010495,-0.047646,0.074482,0.0010752,-0.062587,0.49024,0.16803
367,-0.013216,-0.064861,0.031932,-0.0021729,-0.095393,0.23526,0.14139
368,-0.029132,-0.071032,0.0085458,0.0023744,-0.12463,0.033556,0.12093
369,-0.040825,-0.072006,-0.0018481,0.012443,-0.14834,-0.10546,0.10729
370,-0.053168,-0.075255,-0.0067202,0.019589,-0.16393,-0.18439,0.097543
371,-0.063886,-0.086623,-0.016789,0.01829,-0.17205,-0.2133,0.089748
372,-0.073306,-0.10254,-0.036602,0.0017248,-0.17789,-0.20615,0.080328
373,-0.082076,-0.11618,-0.068109,-0.033679,-0.18764,-0.18017,0.067011
374,-0.089221,-0.1269,-0.10774,-0.090845,-0.19966,-0.15093,0.054993
375,-0.093444,-0.1321,-0.14866,-0.16133,-0.21557,-0.12365,0.047523
376,-0.091495,-0.12527,-0.18342,-0.22597,-0.23116,-0.095717,0.046548
377,-0.084674,-0.10644,-0.20972,-0.27306,-0.23993,-0.058365,0.046873
378,-0.075579,-0.080776,-0.22629,-0.29612,-0.23896,-0.0037969,0.042326
379,-0.06551,-0.057065,-0.23733,-0.2945,-0.22889,0.069285,0.035505
380,-0.054142,-0.042449,-0.25033,-0.27728,-0.21232,0.15179,0.023162
381,-0.044723,-0.036278,-0.27111,-0.26137,-0.18926,0.23071,0.0049729
382,-0.041475,-0.034978,-0.301,-0.2552,-0.15743,0.29275,-0.020037
383,-0.042449,-0.030756,-0.33543,-0.25552,-0.1204,0.32978,-0.046022
384,-0.044723,-0.022636,-0.36368,-0.25552,-0.090196,0.34602,-0.070058
385,-0.044398,-0.013866,-0.37505,-0.2448,-0.070058,0.35804,-0.089871
386,-0.041799,-0.0063954,-0.36888,-0.2172,-0.057715,0.37883,-0.10091
387,-0.034329,-0.0054209,-0.35167,-0.18082,-0.04927,0.41683,-0.10124
388,-0.02426,-0.012242,-0.33348,-0.14281,-0.039851,0.47594,-0.093769
389,-0.014191,-0.024909,-0.32048,-0.10806,-0.031406,0.54935,-0.077853
390,-0.007045,-0.037577,-0.31464,-0.073955,-0.024909,0.61171,-0.052518
391,-0.0021729,-0.047321,-0.31334,-0.034329,-0.014516,0.62893,-0.022311
392,0.00075039,-0.051868,-0.31269,0.019264,0.0033489,0.57826,0.0085458
393,0.00010078,-0.050894,-0.29742,0.10177,0.03518,0.46328,0.039402
394,-0.0011985,-0.045697,-0.23993,0.22292,0.079679,0.29827,0.067011
395,-0.0024977,-0.034978,-0.13242,0.3759,0.1362,0.10924,0.085525
396,-0.0011985,-0.020037,0.0020496,0.53408,0.19888,-0.080451,0.092346
397,0.0026992,-0.0063954,0.12255,0.66823,0.25085,-0.25552,0.083576
398,0.0059473,0.00042559,0.20246,0.7543,0.27749,-0.41013,0.062464
399,0.0075714,0.0010752,0.24371,0.77737,0.27651,-0.5394,0.029009
400,0.0056225,-0.0011985,0.26872,0.74001,0.26125,-0.63132,-0.016789
401,0.0026992,0.0020496,0.29957,0.66206,0.24046,-0.6794,-0.068109
402,-0.00087364,0.011144,0.33238,0.57339,0.21805,-0.68784,-0.11683
403,-0.0057458,0.024137,0.34894,0.50193,0.18687,-0.67258,-0.16035
404,-0.011917,0.036804,0.33335,0.45775,0.14269,-0.65114,-0.19576
405,-0.020362,0.049472,0.28885,0.43372,0.082602,-0.63295,-0.21849
406,-0.029782,0.06084,0.23689,0.40611,0.0078962,-0.61801,-0.23149
407,-0.033354,0.072533,0.19856,0.35836,-0.073955,-0.59982,-0.24026
408,-0.028482,0.080328,0.18654,0.28821,-0.15061,-0.56734,-0.23993
409,-0.018088,0.082277,0.20278,0.2096,-0.20323,-0.51309,-0.22629
410,-0.0083442,0.076106,0.23754,0.14886,-0.20615,-0.43417,-0.19901
411,0.00042559,0.067661,0.27067,0.11995,-0.14411,-0.33218,-0.16393
412,0.0085458,0.058566,0.29535,0.12872,-0.020037,-0.21135,-0.12722
413,0.018615,0.050446,0.30932,0.16153,0.15146,-0.06681,-0.088247
414,0.026085,0.047523,0.31386,0.19888,0.34635,0.10729,-0.045372
415,0.029983,0.049796,0.30997,0.22292,0.53733,0.3025,0.00042559
416,0.032906,0.054344,0.31224,0.23234,0.70948,0.49803,0.042326
417,0.038428,0.058241,0.33823,0.23266,0.85597,0.66563,0.07708
418,0.047198,0.064413,0.39669,0.22974,0.96316,0.77379,0.10079
419,0.057592,0.074157,0.47075,0.22097,0.98297,0.80465,0.11411
420,0.06961,0.089098,0.54091,0.19823,0.84103,0.75463,0.11378
421,0.082277,0.10664,0.60392,0.15114,0.5055,0.6325,0.10371
422,0.092996,0.1206,0.66661,0.076755,0.054668,0.46068,0.092671
423,0.10209,0.13132,0.72864,-0.012567,-0.36303,0.28431,0.094945
424,0.11736,0.14302,0.78224,-0.10059,-0.62385,0.14821,0.12125
425,0.14334,0.16023,0.81732,-0.17107,-0.67323,0.078055,0.16933
426,0.18004,0.18362,0.82056,-0.21882,-0.52576,0.069934,0.22909
427,0.21805,0.21025,0.77964,-0.25033,-0.24838,0.094295,0.28203
428,0.24176,0.22617,0.67667,-0.27988,0.062464,0.12125,0.31257
429,0.24468,0.21967,0.5029,-0.31464,0.33108,0.14074,0.31159
430,0.22779,0.19401,0.27586,-0.34972,0.51947,0.15601,0.28171
431,0.20051,0.15471,0.033231,-0.37473,0.61269,0.16608,0.23234
432,0.16575,0.10989,-0.17594,-0.37992,0.60717,0.14854,0.17615
433,0.12807,0.070909,-0.31789,-0.36109,0.5133,0.081303,0.11118
434,0.0865,0.04395,-0.3796,-0.31951,0.35966,-0.042124,0.03453
435,0.046548,0.032582,-0.37668,-0.26364,0.19141,-0.2094,-0.04927
436,0.009845,0.035505,-0.33965,-0.2042,0.051096,-0.37927,-0.12982
437,-0.022311,0.048822,-0.29612,-0.15321,-0.044073,-0.51017,-0.18959
438,-0.047321,0.063438,-0.26137,-0.10871,-0.10384,-0.57741,-0.22239
439,-0.06681,0.071558,-0.24026,-0.065835,-0.14216,-0.57578,-0.23311
440,-0.082076,0.069934,-0.23506,-0.02361,-0.17205,-0.51797,-0.23311
441,-0.093769,0.063763,-0.24935,0.0095202,-0.18959,-0.41988,-0.22597
442,-0.10059,0.054344,-0.27858,0.023812,-0.18634,-0.2997,-0.21687
443,-0.10026,0.041676,-0.31918,0.011469,-0.16068,-0.17692,-0.20713
444,-0.090196,0.029009,-0.36109,-0.023285,-0.12105,-0.061288,-0.19868
445,-0.071357,0.018615,-0.39454,-0.070058,-0.084999,0.041676,-0.18926
446,-0.048296,0.016666,-0.41273,-0.11715,-0.067134,0.12743,-0.18114
447,-0.027183,0.020239,-0.41533,-0.15548,-0.077528,0.19304,-0.1688
448,-0.01484,0.022837,-0.40623,-0.18179,-0.11651,0.24501,-0.14704
449,-0.0099683,0.016991,-0.39064,-0.19608,-0.1727,0.29827,-0.11033
450,-0.008669,0.0017248,-0.3718,-0.19576,-0.22661,0.36746,-0.056741
451,-0.0076946,-0.015165,-0.35426,-0.18439,-0.26202,0.45905,0.011144
452,-0.0054209,-0.025234,-0.3351,-0.16425,-0.26429,0.56884,0.081627
453,-0.0034721,-0.028157,-0.31334,-0.14184,-0.23441,0.67992,0.14302
454,-0.0034721,-0.029457,-0.28898,-0.11943,-0.18342,0.76307,0.18557
455,-0.0050961,-0.034978,-0.26397,-0.097341,-0.12917,0.77574,0.20668
456,-0.010618,-0.046671,-0.24188,-0.07493,-0.085324,0.68382,0.20733
457,-0.020037,-0.062587,-0.22499,-0.055766,-0.059989,0.48829,0.19011
458,-0.031081,-0.079152,-0.21655,-0.044723,-0.053168,0.22649,0.16121
459,-0.040825,-0.096042,-0.21492,-0.043423,-0.062262,-0.039526,0.12613
460,-0.051544,-0.1178,-0.21427,-0.04862,-0.081426,-0.2526,0.089423
461,-0.065835,-0.14476,-0.21297,-0.055441,-0.10449,-0.3809,0.059541
462,-0.082076,-0.1701,-0.21232,-0.065835,-0.123,-0.41923,0.03583
463,-0.094743,-0.18374,-0.21849,-0.079152,-0.12982,-0.3861,0.016016
464,-0.096042,-0.18471,-0.22759,-0.093769,-0.12787,-0.31399,-0.0076946
465,-0.089221,-0.17465,-0.23474,-0.10156,-0.11715,-0.22856,-0.036602
466,-0.078827,-0.16328,-0.23376,-0.097017,-0.095393,-0.13697,-0.062587
467,-0.068758,-0.15841,-0.22207,-0.078503,-0.060638,-0.048945,-0.073955
468,-0.061613,-0.16198,-0.19803,-0.051219,-0.014191,0.014392,-0.064861
469,-0.055441,-0.16588,-0.16555,-0.023935,0.036479,0.026735,-0.039526
470,-0.049595,-0.15938,-0.13372,-0.0021729,0.073182,-0.033354,-0.01484
471,-0.045047,-0.14054,-0.10644,0.010495,0.07773,-0.16588,0.0017248
472,-0.039851,-0.11618,-0.087597,0.012768,0.048172,-0.34322,0.008221
473,-0.035303,-0.095393,-0.076879,0.0036737,-0.0034721,-0.52122,0.010819
474,-0.032055,-0.082076,-0.072981,-0.012242,-0.055116,-0.65309,0.016991
475,-0.025234,-0.07493,-0.07428,-0.028482,-0.0837,-0.7122,0.029333
476,-0.01549,-0.070707,-0.07493,-0.040825,-0.070707,-0.69856,0.046873
477,-0.0063954,-0.065186,-0.072656,-0.047321,-0.0093186,-0.63587,0.062789
478,0.0014,-0.05804,-0.067134,-0.049595,0.089748,-0.56052,0.073507
479,0.0088706,-0.050569,-0.062262,-0.04862,0.19661,-0.50433,0.074157
480,0.014717,-0.044073,-0.060313,-0.045372,0.27781,-0.48419,0.070584
481,0.016666,-0.034004,-0.059989,-0.044723,0.30834,-0.49685,0.059865
482,0.010495,-0.019388,-0.059989,-0.053168,0.28626,-0.52479,0.041351
483,-0.0021729,-0.0034721,-0.059339,-0.06551,0.22974,-0.53551,0.018615
484,-0.01484,0.009845,-0.053492,-0.083375,0.1677,-0.48971,-0.0015233
485,-0.023935,0.020239,-0.040825,-0.098316,0.11671,-0.36823,-0.013216
486,-0.025234,0.029333,-0.019712,-0.10221,0.082277,-0.17042,-0.0099683
487,-0.020362,0.033881,0.0023744,-0.091495,0.058241,0.087799,0.0052977
488,-0.012892,0.03518,0.016666,-0.068109,0.036804,0.3837,0.023812
489,-0.0060706,0.033556,0.015367,-0.038227,0.017316,0.69162,0.041351
490,-0.0041217,0.032582,0.0036737,-0.0021729,0.0039985,0.96445,0.054993
491,-0.010618,0.034206,-0.0047713,0.038103,-0.0018481,1.135,0.066037
492,-0.019712,0.038753,-0.0018481,0.076755,-0.0028225,1.1551,0.071558
493,-0.029132,0.045574,0.011144,0.10566,-0.0024977,1.0379,0.070259
494,-0.032705,0.050446,0.026735,0.12093,-0.0024977,0.85532,0.069934
495,-0.025884,0.05272,0.042975,0.1284,-0.0028225,0.70039,0.07708
496,-0.0096434,0.054344,0.057592,0.13392,-0.0034721,0.62178,0.092671
497,0.0095202,0.058566,0.070259,0.14464,-0.0024977,0.60911,0.11021
498,0.024461,0.067011,0.081952,0.15926,-0.0024977,0.61529,0.11833
499,0.033881,0.075456,0.095919,0.17615,-0.0076946,0.60489,0.11183
500,0.043625,0.081952,0.11054,0.19109,-0.022636,0.57079,0.093321
501,0.054668,0.084551,0.12288,0.20213,-0.050569,0.52499,0.06961
502,0.065062,0.083251,0.12807,0.20668,-0.087597,0.47822,0.042975
503,0.073832,0.081952,0.12613,0.20181,-0.12398,0.43697,0.0065969
504,0.079029,0.082602,0.11606,0.18881,-0.15029,0.39052,-0.037252
505,0.075131,0.087799,0.10371,0.1742,-0.15743,0.33303,-0.081751
506,0.063113,0.095594,0.094945,0.16413,-0.14639,0.26352,-0.11618
507,0.047523,0.10209,0.096244,0.15763,-0.12527,0.19076,-0.13502
508,0.032906,0.10079,0.10566,0.15568,-0.10644,0.11898,-0.14022
509,0.023812,0.091372,0.11703,0.15438,-0.10189,0.049147,-0.13437
510,0.020888,0.07708,0.12255,0.15016,-0.11521,-0.022961,-0.1243
511,0.022837,0.06019,0.11671,0.14464,-0.14087,-0.10806,-0.1178
512,0.024786,0.041351,0.10436,0.13749,-0.1701,-0.22402,-0.11878
513,0.023487,0.026085,0.092346,0.1271,-0.19381,-0.38025,-0.12105
514,0.014068,0.019589,0.084876,0.11151,-0.20485,-0.57124,-0.11878
515,-0.0011985,0.02706,0.082927,0.092671,-0.19998,-0.77521,-0.10838
516,-0.012242,0.0433,0.082277,0.074157,-0.17952,-0.961,-0.091495
517,-0.011592,0.06084,0.080003,0.058241,-0.14931,-1.1007,-0.070707
518,-0.0034721,0.073507,0.075131,0.045249,-0.1178,-1.1744,-0.052518
519,0.008221,0.079679,0.065712,0.030633,-0.089221,-1.1845,-0.038227
520,0.020564,0.075456,0.055643,0.014392,-0.068109,-1.1461,-0.027183
521,0.033556,0.067336,0.049472,0.00075039,-0.065835,-1.0831,-0.011917
522,0.045249,0.062789,0.053369,-0.0044465,-0.085973,-1.0149,0.0088706
523,0.053044,0.06961,0.066686,-0.0018481,-0.11261,-0.95971,0.030957
524,0.056942,0.09397,0.080003,0.0046481,-0.11975,-0.92917,0.0433
525,0.057917,0.13425,0.088124,0.0075714,-0.089221,-0.9256,0.044275
526,0.058241,0.17647,0.090397,0.0039985,-0.023285,-0.93502,0.037778
527,0.057592,0.20311,0.092996,0.00042559,0.066686,-0.92268,0.031282
528,0.056292,0.2083,0.097218,-0.0031473,0.16023,-0.85382,0.028684
529,0.056292,0.19304,0.10501,-0.0067202,0.23299,-0.72682,0.032906
530,0.057917,0.16413,0.11606,-0.0044465,0.25962,-0.57091,0.042975
531,0.065062,0.12775,0.1284,0.0085458,0.23689,-0.41955,0.060515
532,0.076106,0.092346,0.13847,0.030957,0.17874,-0.27858,0.080653
533,0.086824,0.061489,0.14367,0.059541,0.10631,-0.12527,0.096244
534,0.096244,0.036479,0.14594,0.087799,0.033231,0.06019,0.10144
535,0.099167,0.016991,0.14594,0.10566,-0.034654,0.26644,0.09462
536,0.09462,0.0010752,0.14302,0.10696,-0.092794,0.44509,0.075131
537,0.083251,-0.01549,0.13879,0.095919,-0.14249,0.53928,0.048172
538,0.070909,-0.034654,0.13165,0.078704,-0.18309,0.52142,0.015692
539,0.059541,-0.057065,0.12028,0.062464,-0.21395,0.41943,-0.018088
540,0.048822,-0.081426,0.10242,0.049796,-0.23766,0.30282,-0.051219
541,0.036154,-0.10449,0.078704,0.039078,-0.24903,0.23071,-0.07493
542,0.026735,-0.12625,0.055318,0.033881,-0.23798,0.22844,-0.081101
543,0.019914,-0.14541,0.037454,0.039078,-0.19706,0.28008,-0.068434
544,0.014392,-0.16328,0.024137,0.058241,-0.12138,0.35479,-0.042774
545,0.0078962,-0.17854,0.011469,0.092671,-0.013866,0.42527,-0.017764
546,0.00042559,-0.18764,-0.0060706,0.13555,0.10859,0.46587,-0.0044465
547,-0.0044465,-0.18829,-0.026209,0.1781,0.22065,0.46425,-0.0021729
548,-0.0060706,-0.17724,-0.043423,0.20473,0.29827,0.4165,-0.00087364
549,-0.0054209,-0.15646,-0.063561,0.20376,0.33108,0.33725,0.0065969
550,-0.00054884,-0.13534,-0.088896,0.17452,0.33173,0.24663,0.019264
551,0.008221,-0.11553,-0.11456,0.12645,0.33173,0.16283,0.036154
552,0.024786,-0.097991,-0.12852,0.074806,0.35576,0.097543,0.062789
553,0.044275,-0.080451,-0.11423,0.034206,0.40189,0.053369,0.096244
554,0.058891,-0.059989,-0.056091,0.016666,0.45158,0.019589,0.13002
555,0.064737,-0.035303,0.037778,0.025111,0.48536,-0.0080194,0.15601
556,0.058891,-0.0099683,0.14302,0.053694,0.49478,-0.027508,0.17225
557,0.042001,0.013743,0.23429,0.083901,0.48601,-0.019388,0.18362
558,0.021213,0.03453,0.28723,0.096893,0.4597,0.021213,0.19466
559,0.0039985,0.05142,0.29113,0.083576,0.40903,0.063763,0.20765
560,-0.0099683,0.061489,0.2489,0.047847,0.31776,0.067986,0.21447
561,-0.020687,0.066362,0.18199,0.0072465,0.1677,0.012768,0.2044
562,-0.031406,0.068635,0.11995,-0.024585,-0.036278,-0.092794,0.17127
563,-0.038876,0.071234,0.080653,-0.043423,-0.2526,-0.2159,0.1232
564,-0.042449,0.078704,0.074806,-0.050894,-0.41793,-0.30814,0.075131
565,-0.038551,0.089423,0.092671,-0.059664,-0.48581,-0.33607,0.045899
566,-0.030106,0.10339,0.11508,-0.079802,-0.45593,-0.288,0.048497
567,-0.019712,0.11671,0.12645,-0.11618,-0.36011,-0.18504,0.078704
568,-0.0067202,0.12807,0.11931,-0.16718,-0.24253,-0.064861,0.1219
569,0.0095202,0.13782,0.096893,-0.22077,-0.13307,0.033231,0.15601
570,0.026085,0.14367,0.06084,-0.26559,-0.043748,0.095594,0.16673
571,0.037778,0.14496,0.010819,-0.28995,0.021213,0.1336,0.14821
572,0.041676,0.13587,-0.047321,-0.29158,0.065387,0.1651,0.10859
573,0.030957,0.11508,-0.10644,-0.27404,0.095594,0.20278,0.061814
574,0.0059473,0.080653,-0.15581,-0.2435,0.11606,0.25313,0.021863
575,-0.028807,0.038428,-0.19186,-0.20615,0.1258,0.32653,-0.0015233
576,-0.059989,-0.0060706,-0.21135,-0.16685,0.11963,0.43177,-0.0050961
577,-0.077853,-0.043099,-0.2133,-0.1256,0.091047,0.56072,0.0072465
578,-0.080451,-0.071682,-0.20063,-0.08305,0.03583,0.68155,0.024786
579,-0.070382,-0.089221,-0.17984,-0.047646,-0.04115,0.75983,0.03583
580,-0.050244,-0.097666,-0.15808,-0.033354,-0.12495,0.77737,0.030957
581,-0.032055,-0.10286,-0.14249,-0.054142,-0.19316,0.74034,0.01017
582,-0.020037,-0.10676,-0.14087,-0.10806,-0.23311,0.68447,-0.016789
583,-0.01549,-0.10968,-0.15516,-0.18731,-0.24708,0.64777,-0.04115
584,-0.016789,-0.11001,-0.17367,-0.27501,-0.24058,0.65556,-0.055766
585,-0.021012,-0.10514,-0.18374,-0.34972,-0.21914,0.6809,-0.056091
586,-0.021986,-0.092794,-0.18049,-0.39292,-0.18991,0.66206,-0.041475
587,-0.01549,-0.072656,-0.16295,-0.39292,-0.16718,0.54935,-0.016464
588,-0.0028225,-0.04992,-0.13275,-0.35167,-0.15646,0.32848,0.0043233
589,0.009845,-0.029457,-0.088247,-0.28248,-0.14834,0.01829,0.011144
590,0.019264,-0.013866,-0.030756,-0.19446,-0.14087,-0.3351,-0.0018481
591,0.023812,0.0017248,0.032257,-0.10091,-0.13924,-0.66965,-0.029782
592,0.019589,0.017965,0.092996,-0.019712,-0.14671,-0.93469,-0.061288
593,0.008221,0.036479,0.14919,0.041676,-0.16068,-1.0994,-0.086948
594,-0.00087364,0.058566,0.19401,0.081627,-0.17432,-1.1507,-0.09929
595,-0.0015233,0.084551,0.21675,0.10469,-0.17822,-1.0838,-0.09182
596,0.0072465,0.11248,0.2148,0.11963,-0.1675,-0.90416,-0.06681
597,0.020564,0.13262,0.19531,0.131,-0.13859,-0.63197,-0.029457
598,0.028359,0.14204,0.16965,0.14399,-0.090196,-0.30587,0.0062721
599,0.028034,0.14302,0.14854,0.15763,-0.033679,0.016991,0.025111
600,0.020888,0.13555,0.1349,0.16803,0.016016,0.27781,0.025761
601,0.011794,0.12483,0.12613,0.17192,0.051745,0.44444,0.012119
602,0.0046481,0.11573,0.11736,0.16998,0.079354,0.52369,-0.008669
603,0.0023744,0.10989,0.10274,0.1651,0.10989,0.55227,-0.029782
604,0.0043233,0.10729,0.084551,0.15893,0.14691,0.57598,-0.044723
605,0.0075714,0.10404,0.067336,0.15179,0.18394,0.62341,-0.046347
606,0.011794,0.095594,0.055643,0.14074,0.20635,0.69454,-0.034004
607,0.013418,0.080978,0.049796,0.12385,0.19921,0.77054,-0.011917
608,0.0056225,0.060515,0.048172,0.10404,0.15958,0.83193,0.012768
609,-0.0099683,0.037129,0.047847,0.088124,0.095594,0.87318,0.031607
610,-0.025234,0.01894,0.044924,0.080978,0.01829,0.90209,0.039078
611,-0.031406,0.011794,0.042326,0.080653,-0.055441,0.92515,0.041676
612,-0.026858,0.016016,0.039078,0.084551,-0.10936,0.92938,0.041351
613,-0.016464,0.029333,0.038753,0.091047,-0.13404,0.89267,0.038428
614,-0.0054209,0.044599,0.040052,0.099167,-0.1282,0.79101,0.034206
615,0.0017248,0.058566,0.040052,0.10696,-0.099615,0.62503,0.028684
616,0.0078962,0.065062,0.037129,0.11054,-0.056416,0.4204,0.025761
617,0.012443,0.062789,0.032906,0.10761,-0.0073698,0.21577,0.029333
618,0.013093,0.055318,0.025111,0.10112,0.044599,0.046548,0.034206
619,0.0049729,0.049472,0.013418,0.092996,0.096244,-0.069408,0.038103
620,-0.0080194,0.048172,-0.00087364,0.083251,0.14107,-0.13632,0.038428
621,-0.019063,0.047847,-0.012242,0.073182,0.1703,-0.17887,0.037778
622,-0.026533,0.0433,-0.020687,0.063763,0.17322,-0.22142,0.029333
623,-0.03238,0.031607,-0.027508,0.058566,0.14951,-0.27469,0.011794
624,-0.042124,0.01894,-0.034978,0.063763,0.10631,-0.3338,-0.01549
625,-0.051868,0.011469,-0.044073,0.074482,0.05207,-0.39357,-0.045697
626,-0.054142,0.0095202,-0.054467,0.082927,-0.0021729,-0.44586,-0.073631
627,-0.051219,0.0065969,-0.064536,0.0852,-0.044723,-0.49036,-0.096042
628,-0.047321,0.00042559,-0.067459,0.083576,-0.061613,-0.52219,-0.10806
629,-0.044723,-0.0057458,-0.062587,0.082277,-0.045372,-0.54752,-0.10676
630,-0.041475,-0.0093186,-0.054142,0.0852,-0.0083442,-0.57838,-0.096367
631,-0.036278,-0.0093186,-0.04927,0.088773,0.033231,-0.61931,-0.082076
632,-0.031081,-0.0099683,-0.056416,0.087474,0.061814,-0.66868,-0.070382
633,-0.028482,-0.01614,-0.071357,0.080653,0.069934,-0.71675,-0.068758
634,-0.03173,-0.033354,-0.085324,0.072533,0.057917,-0.7515,-0.077528
635,-0.038876,-0.060638,-0.090845,0.069285,0.033556,-0.77002,-0.092469
636,-0.050244,-0.089546,-0.092145,0.075131,0.0056225,-0.77911,-0.10709
637,-0.059664,-0.10871,-0.097017,0.086175,-0.021661,-0.79568,-0.11391
638,-0.060963,-0.11293,-0.11001,0.095594,-0.049595,-0.83108,-0.11001
639,-0.054142,-0.10968,-0.12982,0.10079,-0.083375,-0.88338,-0.10124
640,-0.042449,-0.10416,-0.14801,0.097868,-0.12463,-0.93892,-0.087272
641,-0.030106,-0.097341,-0.15776,0.089098,-0.17075,-0.96912,-0.069408
642,-0.018088,-0.087272,-0.15873,0.075456,-0.21265,-0.95288,-0.050894
643,-0.0050961,-0.071357,-0.15483,0.06019,-0.24415,-0.87688,-0.037252
644,0.0062721,-0.053817,-0.14996,0.048172,-0.25942,-0.7528,-0.028157
645,0.013093,-0.040175,-0.14346,0.039078,-0.25487,-0.60079,-0.022961
646,0.014717,-0.035628,-0.12885,0.031607,-0.22694,-0.44716,-0.025234
647,0.015367,-0.038551,-0.10059,0.024137,-0.18244,-0.31918,-0.037252
648,0.017316,-0.040175,-0.05804,0.014717,-0.13892,-0.23798,-0.056741
649,0.019264,-0.037902,-0.011917,-0.00022403,-0.12008,-0.21427,-0.079152
650,0.01894,-0.030431,0.01764,-0.021661,-0.13047,-0.23863,-0.10449
651,0.017316,-0.022636,0.019264,-0.051868,-0.15256,-0.28378,-0.13404
652,0.015042,-0.015815,-0.0083442,-0.088896,-0.16555,-0.31756,-0.16458
653,0.010819,-0.0073698,-0.046347,-0.12398,-0.16068,-0.31431,-0.18959
654,0.0059473,0.0052977,-0.070058,-0.14281,-0.13892,-0.26787,-0.2029
655,-0.00087364,0.021863,-0.068434,-0.14216,-0.11196,-0.18374,-0.2016
656,-0.007045,0.036154,-0.04927,-0.13015,-0.082725,-0.063561,-0.18569
657,-0.007045,0.044275,-0.027183,-0.11683,-0.046996,0.092671,-0.15061
658,-0.00022403,0.048172,-0.012567,-0.10611,-0.0044465,0.29243,-0.090196
659,0.014392,0.053044,-0.0018481,-0.096367,0.041676,0.53831,-0.0083442
660,0.042001,0.062139,0.024786,-0.0824,0.089748,0.80497,0.084876
661,0.076106,0.079029,0.090722,-0.057715,0.14821,1.033,0.16705
662,0.10501,0.10047,0.19466,-0.027833,0.2187,1.1538,0.22162
663,0.12678,0.11476,0.29697,-0.0050961,0.2934,1.1317,0.24273
664,0.14107,0.11541,0.33985,-0.00087364,0.36583,0.99109,0.23136
665,0.14951,0.10469,0.2921,-0.019063,0.43794,0.79296,0.20343
666,0.15016,0.091372,0.1664,-0.055766,0.51102,0.60717,0.1755
667,0.14334,0.080653,0.012119,-0.10091,0.5841,0.47529,0.15698
668,0.12937,0.074157,-0.11001,-0.13859,0.64354,0.40124,0.13977
669,0.10566,0.070259,-0.1675,-0.15938,0.66758,0.35674,0.11931
670,0.076431,0.063763,-0.16295,-0.15126,0.64225,0.31484,0.097868
671,0.049472,0.049472,-0.11521,-0.094093,0.56332,0.258,0.083576
672,0.029983,0.031282,-0.040175,0.027385,0.44184,0.18751,0.079029
673,0.021863,0.01894,0.049796,0.19434,0.30152,0.11411,0.085525
674,0.024137,0.020239,0.14594,0.36421,0.169,0.055643,0.098517
675,0.032257,0.034206,0.23754,0.48959,0.063763,0.031282,0.11508
676,0.043625,0.054019,0.31614,0.54708,-0.011267,0.056292,0.1297
677,0.05272,0.076755,0.38272,0.5448,-0.061937,0.14594,0.13977
678,0.054344,0.096244,0.43794,0.51849,-0.084349,0.31711,0.14821
679,0.050121,0.10891,0.47107,0.50193,-0.075904,0.56527,0.15893
680,0.0433,0.11378,0.46328,0.49803,-0.043099,0.83745,0.16803
681,0.034206,0.11216,0.39637,0.49543,-0.00054884,1.0548,0.16738
682,0.024137,0.10306,0.27586,0.48374,0.043625,1.1538,0.14919
683,0.013093,0.083576,0.12678,0.45808,0.083576,1.1194,0.11671
684,0.00010078,0.05272,-0.0096434,0.41813,0.11151,0.98102,0.072858
685,-0.013541,0.01829,-0.10611,0.37038,0.11703,0.79166,0.028684
686,-0.026858,-0.013216,-0.15548,0.32036,0.086824,0.59417,-0.0083442
687,-0.037252,-0.036927,-0.1688,0.26417,0.019914,0.40416,-0.037902
688,-0.042774,-0.050569,-0.1714,0.19369,-0.068109,0.22389,-0.059014
689,-0.041799,-0.05804,-0.19478,0.10339,-0.15841,0.048172,-0.069083
690,-0.033354,-0.068758,-0.25942,-0.00087364,-0.23701,-0.12268,-0.070707
691,-0.023285,-0.088896,-0.36888,-0.11066,-0.29872,-0.27566,-0.061613
692,-0.015165,-0.11553,-0.5053,-0.21232,-0.339,-0.39681,-0.038551
693,-0.0054209,-0.14087,-0.64237,-0.30002,-0.35296,-0.48516,-0.0037969
694,0.0085458,-0.15581,-0.75832,-0.37018,-0.33315,-0.53908,0.036154
695,0.023162,-0.15548,-0.83693,-0.4215,-0.27306,-0.55889,0.071234
696,0.032906,-0.14704,-0.86746,-0.45495,-0.17367,-0.55045,0.095919
697,0.041676,-0.13892,-0.85414,-0.47087,-0.053492,-0.53681,0.10209
698,0.05142,-0.13827,-0.80347,-0.47477,0.054344,-0.555,0.085525
699,0.059216,-0.14087,-0.72844,-0.47087,0.10989,-0.6245,0.050121
700,0.061814,-0.14314,-0.64042,-0.45983,0.08585,-0.73949,0.0069217
701,0.054019,-0.14119,-0.5407,-0.44229,-0.010293,-0.86486,-0.03238
702,0.034855,-0.13242,-0.43871,-0.42442,-0.14087,-0.96425,-0.063237
703,0.010819,-0.12073,-0.34355,-0.41013,-0.26234,-1.023,-0.085324
704,-0.012892,-0.11033,-0.25747,-0.39714,-0.34127,-1.039,-0.097017
705,-0.03173,-0.10286,-0.174,-0.37668,-0.34712,-1.0237,-0.10156
706,-0.04115,-0.10156,-0.078827,-0.34387,-0.26884,-0.98861,-0.10221
707,-0.040825,-0.10416,0.037129,-0.29775,-0.1217,-0.94184,-0.10481
708,-0.034004,-0.10091,0.17322,-0.24058,0.061814,-0.88078,-0.11001
709,-0.022961,-0.083375,0.32718,-0.17952,0.24533,-0.79828,-0.11196
710,-0.0076946,-0.046347,0.50972,-0.10709,0.38954,-0.69369,-0.10676
711,0.009845,0.011144,0.73839,-0.013541,0.47205,-0.57838,-0.090521
712,0.022837,0.0852,1.0028,0.10761,0.48699,-0.47282,-0.072331
713,0.029009,0.16348,1.2483,0.24143,0.42105,-0.38739,-0.061288
714,0.029983,0.22617,1.4098,0.36583,0.23364,-0.30847,-0.058365
715,0.029333,0.2619,1.4637,0.46587,-0.10124,-0.20225,-0.055116
716,0.031282,0.27002,1.4338,0.53051,-0.50335,-0.022636,-0.040175
717,0.039078,0.2593,1.3558,0.56267,-0.80055,0.26514,-0.012242
718,0.05207,0.24046,1.2422,0.56884,-0.85512,0.65524,0.023487
719,0.066362,0.22032,1.0837,0.56007,-0.65179,1.0885,0.058566
720,0.075781,0.20278,0.86994,0.54675,-0.28768,1.4897,0.086824
721,0.081303,0.18687,0.61594,0.53441,0.091696,1.8034,0.11216
722,0.081627,0.16868,0.35901,0.51817,0.36713,1.9996,0.13814
723,0.083901,0.14724,0.13847,0.48504,0.48634,2.0623,0.1651
724,0.087474,0.12223,-0.018088,0.4282,0.46165,1.9905,0.19011
725,0.090072,0.098193,-0.11358,0.3366,0.33855,1.7862,0.20505
726,0.083251,0.073507,-0.1675,0.20863,0.16738,1.4614,0.20311
727,0.067011,0.05142,-0.19803,0.063113,-0.0050961,1.0414,0.18199
728,0.040377,0.033556,-0.2133,-0.072656,-0.14509,0.57079,0.14204
729,0.008221,0.026085,-0.21947,-0.17432,-0.23149,0.11183,0.088773
730,-0.021012,0.026085,-0.21817,-0.23279,-0.26754,-0.27664,0.03518
731,-0.041799,0.024461,-0.21525,-0.25487,-0.26592,-0.54493,-0.0060706
732,-0.051544,0.013093,-0.21687,-0.25747,-0.25065,-0.66575,-0.030106
733,-0.053817,-0.007045,-0.22954,-0.25455,-0.24578,-0.65016,-0.036927
734,-0.048945,-0.029132,-0.25617,-0.25455,-0.26202,-0.54882,-0.034654
735,-0.039851,-0.046671,-0.2932,-0.26137,-0.29677,-0.41955,-0.034004
736,-0.027833,-0.052843,-0.3351,-0.27274,-0.33543,-0.30717,-0.037902
737,-0.014191,-0.046347,-0.37148,-0.28281,-0.35589,-0.23344,-0.044398
738,0.0010752,-0.030431,-0.39519,-0.28898,-0.34387,-0.20355,-0.048945
739,0.012768,-0.011267,-0.39844,-0.28833,-0.29028,-0.22012,-0.052518
740,0.013418,0.0065969,-0.38512,-0.28443,-0.19348,-0.27793,-0.058689
741,0.0017248,0.018615,-0.36141,-0.27761,-0.050244,-0.36628,-0.066485
742,-0.018738,0.021538,-0.33153,-0.26494,0.12353,-0.46892,-0.075904
743,-0.038227,0.016341,-0.30489,-0.25,0.2908,-0.56929,-0.084349
744,-0.050894,0.0017248,-0.28865,-0.23831,0.40936,-0.64399,-0.084024
745,-0.054792,-0.019388,-0.28346,-0.23214,0.45223,-0.66543,-0.068758
746,-0.050244,-0.041799,-0.28086,-0.22986,0.42138,-0.62613,-0.041475
747,-0.039201,-0.05804,-0.26949,-0.22597,0.33368,-0.54298,-0.010293
748,-0.027183,-0.064536,-0.24318,-0.2146,0.22194,-0.44651,0.015692
749,-0.016464,-0.05804,-0.20615,-0.19056,0.10956,-0.36173,0.033231
750,-0.007045,-0.034978,-0.16815,-0.15418,-0.00022403,-0.30262,0.042326
751,0.00075039,-0.0011985,-0.13989,-0.11683,-0.13794,-0.27534,0.045249
752,0.0039985,0.031607,-0.13015,-0.090196,-0.34517,-0.28281,0.044275
753,-0.0018481,0.049472,-0.14119,-0.079152,-0.61963,-0.32471,0.037129
754,-0.017114,0.044599,-0.16685,-0.075904,-0.88662,-0.38999,0.021863
755,-0.036278,0.023487,-0.19251,-0.068109,-1.0438,-0.46307,-0.0015233
756,-0.050244,-0.0031473,-0.20778,-0.052843,-1.0315,-0.52446,-0.035303
757,-0.057715,-0.024585,-0.2055,-0.034978,-0.87363,-0.5433,-0.07493
758,-0.059989,-0.032705,-0.18634,-0.02361,-0.64886,-0.47802,-0.10774
759,-0.060638,-0.023285,-0.15516,-0.022636,-0.44034,-0.31269,-0.11618
760,-0.059339,-0.0021729,-0.1217,-0.028157,-0.29515,-0.071357,-0.095068
761,-0.057065,0.018615,-0.093769,-0.035303,-0.21395,0.19499,-0.053492
762,-0.053168,0.034855,-0.07428,-0.036602,-0.16523,0.43437,-0.0054209
763,-0.044723,0.046548,-0.065186,-0.029457,-0.12235,0.62406,0.038753
764,-0.029132,0.06019,-0.063886,-0.019388,-0.080451,0.75788,0.073832
765,-0.0089938,0.07708,-0.06681,-0.017439,-0.053168,0.84038,0.093645
766,0.0065969,0.09462,-0.065835,-0.030106,-0.046022,0.87318,0.097218
767,0.015042,0.10501,-0.061937,-0.047971,-0.048945,0.85499,0.088448
768,0.01894,0.10501,-0.053168,-0.060963,-0.04115,0.78484,0.073507
769,0.01764,0.09397,-0.040825,-0.063561,-0.0073698,0.67278,0.055643
770,0.0085458,0.076431,-0.029132,-0.056741,0.057267,0.53473,0.038753
771,-0.0031473,0.056292,-0.021012,-0.041799,0.14432,0.3863,0.022837
772,-0.013541,0.038753,-0.019388,-0.021012,0.24371,0.24176,0.0085458
773,-0.022961,0.02706,-0.022961,0.0049729,0.34375,0.10989,-0.0031473
774,-0.033679,0.022512,-0.025559,0.029333,0.43469,-0.010293,-0.010618
775,-0.045697,0.025111,-0.020362,0.042001,0.50907,-0.11715,-0.013216
776,-0.055116,0.028034,-0.0073698,0.040377,0.55552,-0.20745,-0.01549
777,-0.061937,0.023162,0.0062721,0.034855,0.56657,-0.27826,-0.019388
778,-0.067459,0.008221,0.015042,0.037454,0.54415,-0.32795,-0.029132
779,-0.072006,-0.017439,0.01764,0.049472,0.50225,-0.36044,-0.04115
780,-0.077203,-0.050569,0.011469,0.073832,0.46035,-0.38057,-0.04992
781,-0.082725,-0.084999,-0.0044465,0.10079,0.43047,-0.38772,-0.04927
782,-0.088572,-0.11488,-0.029132,0.11963,0.40871,-0.38025,-0.038227
783,-0.094093,-0.13469,-0.058365,0.12385,0.39377,-0.36173,-0.021337
784,-0.09117,-0.14541,-0.081426,0.11671,0.3811,-0.3364,-0.0024977
785,-0.073631,-0.14931,-0.085973,0.11086,0.3759,-0.30814,0.021213
786,-0.043423,-0.15061,-0.069083,0.11736,0.37623,-0.28476,0.047847
787,-0.012242,-0.14606,-0.035953,0.13067,0.38272,-0.26884,0.070259
788,0.014068,-0.13275,0.0085458,0.14237,0.3876,-0.26104,0.081952
789,0.031607,-0.11131,0.067986,0.14626,0.3837,-0.26884,0.081303
790,0.041027,-0.085324,0.14561,0.14529,0.37428,-0.2932,0.070584
791,0.044924,-0.059664,0.23883,0.14302,0.37883,-0.32503,0.057267
792,0.045899,-0.035953,0.3366,0.14204,0.42105,-0.34549,0.05272
793,0.045249,-0.018738,0.41878,0.13555,0.50777,-0.33802,0.059865
794,0.043625,-0.0096434,0.46133,0.11898,0.61561,-0.30165,0.070909
795,0.043625,-0.012242,0.44704,0.091047,0.69844,-0.24708,0.073832
796,0.042651,-0.022961,0.3772,0.059216,0.7202,-0.19121,0.065387
797,0.036479,-0.034329,0.27651,0.033231,0.66271,-0.14054,0.048172
798,0.024461,-0.039851,0.18069,0.019914,0.5422,-0.089871,0.029333
799,0.01017,-0.035628,0.12158,0.019589,0.39896,-0.034329,0.014392
800,-0.0050961,-0.024909,0.10339,0.029658,0.27164,0.029658,0.0059473
801,-0.014516,-0.0099683,0.11118,0.042001,0.17647,0.10014,0.01017
802,-0.010618,0.011469,0.12872,0.05207,0.11443,0.17192,0.026085
803,0.0065969,0.034855,0.14302,0.061165,0.071883,0.23981,0.0433
804,0.031607,0.054019,0.14594,0.067011,0.045574,0.2895,0.05207
805,0.056617,0.070584,0.1336,0.065712,0.032257,0.30542,0.053694
806,0.078055,0.0852,0.10696,0.054344,0.025436,0.27879,0.053694
807,0.089098,0.093321,0.073507,0.034206,0.0078962,0.21415,0.053694
808,0.082602,0.090072,0.039727,0.011144,-0.037902,0.11801,0.053044
809,0.063438,0.076106,0.013743,-0.0099683,-0.11521,0.0023744,0.054019
810,0.039402,0.057267,-0.0011985,-0.02426,-0.21102,-0.11651,0.054668
811,0.020239,0.039727,-0.0057458,-0.026533,-0.2997,-0.22499,0.049796
812,0.011144,0.02706,-0.0047713,-0.013541,-0.35979,-0.31301,0.035505
813,0.0095202,0.01894,-0.0021729,0.012443,-0.38285,-0.37895,0.0078962
814,0.01017,0.016341,-0.0018481,0.050446,-0.37603,-0.42377,-0.028157
815,0.0075714,0.01764,-0.0015233,0.092996,-0.35199,-0.44846,-0.062587
816,0.0039985,0.025111,-0.0011985,0.13522,-0.31854,-0.45268,-0.091495
817,0.0023744,0.041027,-0.0024977,0.16868,-0.27404,-0.43579,-0.11391
818,0.0039985,0.062464,-0.0096434,0.18719,-0.22044,-0.40266,-0.12398
819,0.0095202,0.082277,-0.025234,0.18719,-0.16588,-0.34712,-0.11975
820,0.016666,0.09462,-0.045047,0.17127,-0.1217,-0.26462,-0.10254
821,0.025436,0.098193,-0.062262,0.14789,-0.10091,-0.14931,-0.075579
822,0.032906,0.094295,-0.072006,0.12125,-0.10026,-0.0041217,-0.046347
823,0.040377,0.08585,-0.071682,0.097218,-0.10579,0.1677,-0.019712
824,0.049472,0.080328,-0.061613,0.080653,-0.11261,0.36389,0.0020496
825,0.056617,0.078379,-0.047971,0.072858,-0.11456,0.57176,0.013418
826,0.059216,0.081627,-0.038227,0.073182,-0.10903,0.77314,0.014392
827,0.054019,0.087474,-0.032705,0.081952,-0.10124,0.95471,0.0072465
828,0.046548,0.092671,-0.031406,0.094295,-0.096692,1.1031,-0.0076946
829,0.0433,0.094295,-0.034329,0.10306,-0.10254,1.2126,-0.030106
830,0.049147,0.095919,-0.042774,0.10014,-0.11586,1.2854,-0.052843
831,0.058241,0.098517,-0.051868,0.086824,-0.1256,1.3325,-0.067134
832,0.065712,0.10079,-0.05739,0.067661,-0.12235,1.3597,-0.065835
833,0.071234,0.099167,-0.059014,0.05142,-0.10611,1.3549,-0.043423
834,0.076106,0.087474,-0.054792,0.045249,-0.084024,1.2935,-0.0050961
835,0.080978,0.063113,-0.048945,0.047847,-0.068758,1.1509,0.037454
836,0.081303,0.033231,-0.045697,0.053044,-0.069083,0.91119,0.073182
837,0.074157,0.0033489,-0.044398,0.055643,-0.084024,0.59158,0.09397
838,0.063763,-0.019388,-0.04115,0.053369,-0.10416,0.23786,0.095919
839,0.058241,-0.03303,-0.034978,0.050121,-0.1217,-0.098641,0.081627
840,0.057592,-0.041475,-0.026209,0.046223,-0.13794,-0.37862,0.055318
841,0.058566,-0.044073,-0.018738,0.040052,-0.15873,-0.58163,0.022188
842,0.06019,-0.045697,-0.012567,0.030633,-0.18342,-0.70668,-0.015165
843,0.056292,-0.047646,-0.0037969,0.022188,-0.20972,-0.76352,-0.054142
844,0.048822,-0.051544,0.0065969,0.020239,-0.23538,-0.77197,-0.085648
845,0.040052,-0.055766,0.016991,0.029658,-0.25098,-0.75248,-0.10319
846,0.032582,-0.058365,0.025436,0.050771,-0.25098,-0.71902,-0.10709
847,0.025111,-0.054467,0.033556,0.075131,-0.23993,-0.68102,-0.10059
848,0.021213,-0.043423,0.041351,0.092996,-0.22174,-0.64919,-0.088896
849,0.023812,-0.023935,0.055968,0.098842,-0.19771,-0.62256,-0.079802
850,0.030957,-0.00054884,0.084876,0.097543,-0.17335,-0.59625,-0.071032
851,0.037454,0.021863,0.1349,0.092671,-0.15938,-0.56279,-0.064536
852,0.040377,0.042651,0.19726,0.083251,-0.16653,-0.504,-0.062912
853,0.040377,0.061165,0.25443,0.066686,-0.19576,-0.39974,-0.068434
854,0.036479,0.075456,0.28236,0.044924,-0.23441,-0.23409,-0.075579
855,0.029333,0.082927,0.26222,0.01894,-0.26397,-0.023935,-0.079802
856,0.025111,0.084551,0.19888,-0.0050961,-0.27728,0.17582,-0.079802
857,0.024461,0.079354,0.11541,-0.024585,-0.28118,0.30574,-0.075255
858,0.019589,0.065387,0.038753,-0.039201,-0.28735,0.34992,-0.065835
859,0.0085458,0.044599,-0.012242,-0.052518,-0.29482,0.33433,-0.052843
860,-0.0031473,0.025761,-0.035303,-0.063886,-0.30327,0.30152,-0.034978
861,-0.013216,0.01764,-0.036278,-0.069083,-0.31042,0.2908,-0.012567
862,-0.02361,0.021213,-0.025884,-0.064211,-0.31204,0.31549,0.015692
863,-0.027183,0.03583,-0.0099683,-0.047971,-0.30457,0.36778,0.048497
864,-0.020037,0.057592,0.0039985,-0.021337,-0.28086,0.43892,0.088773
865,-0.008669,0.083901,0.015692,0.0095202,-0.23636,0.52466,0.13425
866,-0.0011985,0.10566,0.025761,0.038428,-0.1753,0.62211,0.1742
867,0.0017248,0.11833,0.034855,0.059216,-0.11586,0.72085,0.19726
868,0.0023744,0.11963,0.042326,0.065712,-0.07428,0.80173,0.19921
869,0.0069217,0.11248,0.045249,0.058241,-0.057065,0.85175,0.18784
870,0.017316,0.099492,0.039078,0.040702,-0.059664,0.87091,0.1781
871,0.030633,0.081627,0.020564,0.017965,-0.070707,0.84752,0.17745
872,0.042326,0.055643,-0.008669,-0.0028225,-0.079802,0.76665,0.18979
873,0.047847,0.026735,-0.043748,-0.019712,-0.079802,0.62438,0.21123
874,0.042651,-0.00022403,-0.077528,-0.031081,-0.067784,0.43112,0.22941
875,0.031607,-0.024909,-0.10514,-0.035303,-0.042449,0.21642,0.23039
876,0.022837,-0.044723,-0.11878,-0.030756,-0.0024977,0.012119,0.21252
877,0.018615,-0.056416,-0.11748,-0.019388,0.053694,-0.15743,0.18362
878,0.014717,-0.066485,-0.10644,-0.0041217,0.12645,-0.27566,0.16056
879,0.0075714,-0.078503,-0.095717,0.009845,0.2174,-0.3416,0.15601
880,0.00010078,-0.09182,-0.088247,0.025111,0.31159,-0.37213,0.1664
881,-0.0047713,-0.10546,-0.086948,0.042975,0.3889,-0.39032,0.17939
882,-0.0050961,-0.11845,-0.092794,0.06084,0.43924,-0.40981,0.18492
883,-0.0015233,-0.12982,-0.09929,0.074806,0.45873,-0.43644,0.17712
884,0.003024,-0.13437,-0.090845,0.084226,0.45061,-0.46145,0.15796
885,0.0072465,-0.12755,-0.053492,0.094945,0.43242,-0.46632,0.13425
886,0.0078962,-0.11228,0.0065969,0.11183,0.42235,-0.45236,0.11671
887,0.0062721,-0.094418,0.071234,0.13912,0.42495,-0.43936,0.11151
888,0.0075714,-0.077203,0.11963,0.16933,0.43469,-0.45268,0.11833
889,0.009845,-0.063237,0.14139,0.19174,0.4597,-0.50238,0.13392
890,0.013418,-0.053817,0.13944,0.19661,0.51135,-0.57741,0.14919
891,0.016016,-0.051868,0.11995,0.18492,0.57858,-0.65341,0.15341
892,0.016991,-0.056091,0.090722,0.16056,0.6377,-0.71155,0.13879
893,0.016666,-0.055766,0.059541,0.13392,0.66108,-0.73851,0.11021
894,0.0095202,-0.043099,0.032582,0.11281,0.62958,-0.72519,0.078055
895,-0.0034721,-0.020687,0.015692,0.099167,0.54513,-0.66673,0.055318
896,-0.018413,0.0020496,0.011794,0.091372,0.43047,-0.56766,0.044924
897,-0.03173,0.014068,0.015692,0.087474,0.31354,-0.45788,0.036804
898,-0.043099,0.012443,0.016666,0.071558,0.20603,-0.37927,0.020888
899,-0.051544,-0.0015233,0.0039985,0.030308,0.11281,-0.35686,-0.0089938
900,-0.060638,-0.017764,-0.019388,-0.03303,0.032582,-0.39519,-0.052518
901,-0.070382,-0.028482,-0.042774,-0.10611,-0.034329,-0.48191,-0.10351
902,-0.079152,-0.027183,-0.05804,-0.16977,-0.084999,-0.59625,-0.15418
903,-0.08305,-0.01484,-0.057715,-0.21395,-0.11488,-0.7135,-0.19673
904,-0.084024,0.0023744,-0.048945,-0.23896,-0.1282,-0.81289,-0.22954
905,-0.081751,0.019589,-0.031406,-0.24903,-0.14216,-0.8759,-0.25195
906,-0.076229,0.033231,0.00042559,-0.25098,-0.16815,-0.89767,-0.26559
907,-0.070707,0.043625,0.050771,-0.24838,-0.2081,-0.87948,-0.27046
908,-0.062587,0.05207,0.12255,-0.25033,-0.25325,-0.83206,-0.26364
909,-0.055441,0.064088,0.20798,-0.26754,-0.29093,-0.75962,-0.23961
910,-0.052193,0.082602,0.28691,-0.30912,-0.31464,-0.66283,-0.20388
911,-0.050894,0.10599,0.32556,-0.3731,-0.32503,-0.54363,-0.1623
912,-0.04927,0.1284,0.29535,-0.44683,-0.3325,-0.40623,-0.11845
913,-0.044073,0.14334,0.19369,-0.51537,-0.35134,-0.25975,-0.072331
914,-0.038876,0.14334,0.040702,-0.56182,-0.38804,-0.11521,-0.021012
915,-0.033354,0.1297,-0.1256,-0.58065,-0.4267,0.011144,0.034206
916,-0.025559,0.11216,-0.26397,-0.57189,-0.44261,0.10891,0.087799
917,-0.016789,0.10047,-0.34777,-0.54005,-0.41565,0.1755,0.13457
918,-0.0073698,0.099167,-0.36271,-0.49003,-0.34582,0.20311,0.1664
919,-0.0011985,0.10404,-0.30977,-0.42117,-0.2448,0.20018,0.17257
920,-0.0050961,0.10664,-0.20453,-0.33348,-0.13632,0.19758,0.15633
921,-0.018088,0.10404,-0.072981,-0.23896,-0.04927,0.25702,0.1258
922,-0.033679,0.097543,0.053369,-0.14996,-0.00054884,0.44704,0.098517
923,-0.046347,0.092021,0.15406,-0.068434,0.015692,0.78451,0.087149
924,-0.052843,0.093321,0.22097,0.011144,0.025436,1.2035,0.10306
925,-0.054142,0.10989,0.25085,0.093321,0.048172,1.6134,0.14399
926,-0.048945,0.14464,0.24436,0.16738,0.088124,1.9577,0.19628
927,-0.033354,0.18687,0.21382,0.23364,0.13684,2.2143,0.24111
928,-0.0073698,0.2174,0.17582,0.2947,0.18524,2.3647,0.26612
929,0.026735,0.22389,0.14139,0.35382,0.22487,2.3884,0.26644
930,0.057917,0.20311,0.11054,0.40091,0.2476,2.2604,0.23981
931,0.075781,0.15893,0.079354,0.4256,0.2489,1.9753,0.18881
932,0.075456,0.10436,0.05142,0.42365,0.22617,1.5611,0.1232
933,0.059865,0.049147,0.030633,0.39442,0.18524,1.0749,0.051745
934,0.038753,0.0049729,0.01894,0.35479,0.1336,0.59255,-0.018413
935,0.024137,-0.021986,0.021213,0.33238,0.081952,0.18849,-0.078178
936,0.022837,-0.032055,0.041676,0.35187,0.036154,-0.095068,-0.12333
937,0.027385,-0.03173,0.070909,0.41098,-0.0041217,-0.25585,-0.15451
938,0.029983,-0.029782,0.095594,0.48374,-0.043423,-0.31983,-0.17497
939,0.02641,-0.034004,0.10826,0.53084,-0.084999,-0.3286,-0.18731
940,0.021213,-0.046022,0.10534,0.52791,-0.12398,-0.31789,-0.19154
941,0.014717,-0.063886,0.088124,0.47497,-0.15678,-0.30392,-0.19381
942,0.0059473,-0.084349,0.06084,0.39214,-0.18374,-0.2945,-0.20225
943,-0.0018481,-0.10481,0.02641,0.3038,-0.20355,-0.2945,-0.21947
944,-0.0057458,-0.12235,-0.010293,0.22714,-0.20972,-0.30619,-0.23474
945,-0.0044465,-0.13794,-0.046022,0.17192,-0.19543,-0.32406,-0.23636
946,0.003024,-0.15808,-0.08305,0.13782,-0.15776,-0.35167,-0.22077
947,0.013418,-0.18374,-0.12398,0.11378,-0.092794,-0.39974,-0.19089
948,0.021863,-0.20875,-0.1662,0.088124,-0.0047713,-0.46632,-0.15613
949,0.028684,-0.22564,-0.19933,0.055318,0.10047,-0.54233,-0.12787
950,0.036154,-0.23246,-0.21427,0.016991,0.21415,-0.61151,-0.1178
951,0.040377,-0.22921,-0.20908,-0.021012,0.31744,-0.65796,-0.12463
952,0.035505,-0.21622,-0.19219,-0.052193,0.38565,-0.67582,-0.13957
953,0.021213,-0.19966,-0.17107,-0.076554,0.40481,-0.66868,-0.15158
954,0.0065969,-0.18504,-0.15191,-0.092145,0.36843,-0.64302,-0.15516
955,-0.0021729,-0.17075,-0.13892,-0.10059,0.26839,-0.60599,-0.15093
956,-0.0018481,-0.15451,-0.13177,-0.09929,0.10339,-0.57351,-0.13859
957,0.0036737,-0.13372,-0.12755,-0.091495,-0.10481,-0.55207,-0.12333
958,0.011469,-0.10741,-0.123,-0.079152,-0.30489,-0.54558,-0.11196
959,0.013418,-0.078827,-0.12105,-0.06616,-0.44424,-0.54785,-0.10871
960,0.0095202,-0.054792,-0.1256,-0.050894,-0.49588,-0.54233,-0.10968
961,0.0052977,-0.036278,-0.13372,-0.032055,-0.45593,-0.51407,-0.10449
962,0.0026992,-0.018413,-0.13957,-0.0083442,-0.34387,-0.45918,-0.088896
963,0.0069217,0.00075039,-0.13242,0.019914,-0.19608,-0.38902,-0.068434
964,0.019589,0.024137,-0.10806,0.049472,-0.048296,-0.32698,-0.047646
965,0.033556,0.054993,-0.071357,0.07708,0.076755,-0.29515,-0.031081
966,0.045574,0.087799,-0.038876,0.10112,0.1729,-0.30132,-0.019063
967,0.052395,0.11833,-0.022311,0.11346,0.23818,-0.339,-0.0080194
968,0.053694,0.14367,-0.014191,0.11313,0.27521,-0.38902,0.0033489
969,0.055968,0.16153,0.0069217,0.098193,0.28333,-0.43059,0.011469
970,0.061165,0.1729,0.054668,0.069934,0.26547,-0.45236,0.013418
971,0.066686,0.17972,0.11151,0.029009,0.23136,-0.45301,0.012119
972,0.06084,0.18199,0.14074,-0.024909,0.19466,-0.43254,0.014392
973,0.040377,0.1768,0.12028,-0.085324,0.15861,-0.39551,0.019589
974,0.01017,0.16088,0.059216,-0.13989,0.1206,-0.34874,0.025111
975,-0.014516,0.14204,-0.016789,-0.18017,0.076106,-0.29905,0.031282
976,-0.026533,0.12483,-0.076229,-0.20518,0.030308,-0.25033,0.040377
977,-0.026533,0.10989,-0.10709,-0.2159,-0.01484,-0.20128,0.054993
978,-0.016789,0.09462,-0.11293,-0.21525,-0.05739,-0.14996,0.075456
979,0.00010078,0.080328,-0.10319,-0.2016,-0.095393,-0.081101,0.099492
980,0.021538,0.067011,-0.086948,-0.1753,-0.13307,0.016991,0.12288
981,0.042001,0.050771,-0.072006,-0.13794,-0.17335,0.14367,0.13977
982,0.054019,0.035505,-0.058365,-0.096367,-0.21785,0.28366,0.14334
983,0.054993,0.026735,-0.0405,-0.058365,-0.26364,0.41715,0.13879
984,0.047847,0.028034,-0.01549,-0.03238,-0.30619,0.52499,0.13327
985,0.038103,0.038753,0.014392,-0.026209,-0.33965,0.5945,0.12678
986,0.023812,0.054993,0.042326,-0.035628,-0.35329,0.62211,0.11736
987,0.010819,0.072858,0.067336,-0.051868,-0.34452,0.61464,0.10404
988,0.0062721,0.087474,0.089423,-0.063886,-0.31918,0.57891,0.084551
989,0.013743,0.096893,0.11021,-0.063886,-0.28638,0.51849,0.06084
990,0.030308,0.098517,0.12905,-0.054142,-0.25227,0.43762,0.030633
991,0.043625,0.094945,0.14204,-0.045372,-0.22077,0.3418,-0.0063954
992,0.048497,0.091047,0.14302,-0.044723,-0.18699,0.23818,-0.043423
993,0.04395,0.090397,0.12775,-0.05739,-0.15451,0.13425,-0.075579
994,0.034855,0.089098,0.09462,-0.076879,-0.12755,0.033881,-0.098641
995,0.027709,0.081303,0.048822,-0.097666,-0.11033,-0.067134,-0.11521
996,0.024786,0.069285,0.0026992,-0.11715,-0.10059,-0.16847,-0.13047
997,0.020564,0.051745,-0.033679,-0.12852,-0.085324,-0.25747,-0.14444
998,0.011469,0.032906,-0.055116,-0.12885,-0.054142,-0.32243,-0.15353
999,-0.007045,0.016016,-0.059339,-0.12008,-0.0050961,-0.37213,-0.15288
1000,-0.030106,0.0026992,-0.051868,-0.11131,0.056942,-0.42345,-0.14769
1001,-0.044073,-0.0083442,-0.050894,-0.10871,0.11703,-0.48224,-0.14379
1002,-0.041799,-0.019063,-0.076229,-0.11358,0.15893,-0.53973,-0.14346
1003,-0.030756,-0.029132,-0.1334,-0.12495,0.17939,-0.58065,-0.14444
1004,-0.021661,-0.038551,-0.20778,-0.13372,0.18329,-0.58942,-0.14152
1005,-0.016789,-0.046022,-0.27664,-0.1321,0.1781,-0.5472,-0.1269
1006,-0.01549,-0.047971,-0.31951,-0.11293,0.16965,-0.43904,-0.097017
1007,-0.016464,-0.044723,-0.32633,-0.077853,0.15796,-0.27371,-0.053168
1008,-0.016789,-0.034004,-0.30132,-0.035628,0.13977,-0.081426,-0.0037969
1009,-0.011267,-0.01614,-0.25747,0.0085458,0.11703,0.10079,0.043625
1010,-0.0031473,0.0046481,-0.2055,0.053369,0.099817,0.24143,0.083901
1011,0.010819,0.022512,-0.15158,0.099167,0.097868,0.32004,0.11508
1012,0.023487,0.033881,-0.10611,0.13782,0.10924,0.33595,0.13749
1013,0.032582,0.038103,-0.084024,0.15698,0.1258,0.31419,0.15114
1014,0.040377,0.037454,-0.087597,0.15763,0.14042,0.29015,0.16283
1015,0.05142,0.032906,-0.10416,0.14951,0.15146,0.28528,0.18232
1016,0.066037,0.028684,-0.11748,0.14951,0.15893,0.30769,0.21772
1017,0.081952,0.023162,-0.12105,0.16218,0.16965,0.35706,0.26644
1018,0.095269,0.014717,-0.11001,0.18654,0.19174,0.43209,0.31971
1019,0.10274,-0.0015233,-0.078827,0.22,0.22812,0.53766,0.36551
1020,0.10339,-0.021337,-0.024909,0.25702,0.27391,0.67927,0.39279
1021,0.097868,-0.038227,0.042651,0.29633,0.31939,0.83875,0.39831
1022,0.087799,-0.044073,0.11183,0.3366,0.35219,0.9755,0.3863
1023,0.071883,-0.035953,0.18037,0.3746,0.36259,1.0476,0.36096
1024,0.054344,-0.018088,0.2502,0.40481,0.35154,1.0362,0.32718
1025,0.036479,0.00010078,0.32036,0.42105,0.32393,0.95926,0.28853
1026,0.017965,0.015367,0.38727,0.41683,0.2921,0.85694,0.24728
1027,-0.0057458,0.019264,0.43762,0.39377,0.26027,0.76924,0.2122
1028,-0.035303,0.014717,0.4649,0.35739,0.22649,0.71175,0.18946
1029,-0.059339,0.0059473,0.47172,0.31646,0.19011,0.6731,0.17777
1030,-0.066485,-0.0024977,0.46945,0.27651,0.15536,0.63477,0.1703
1031,-0.056416,-0.008669,0.46912,0.24143,0.1258,0.57891,0.15926
1032,-0.038551,-0.012892,0.47887,0.21382,0.099817,0.48829,0.13977
1033,-0.024585,-0.01614,0.49576,0.19499,0.075456,0.34732,0.10794
1034,-0.020687,-0.020037,0.50258,0.17972,0.042975,0.15471,0.072533
1035,-0.022311,-0.027508,0.48309,0.16673,-0.0083442,-0.088247,0.036479
1036,-0.022961,-0.035628,0.43372,0.15796,-0.075904,-0.36985,0.0023744
1037,-0.017439,-0.040825,0.36324,0.15309,-0.14704,-0.66803,-0.030431
1038,-0.0041217,-0.038551,0.29015,0.13912,-0.21135,-0.94574,-0.05804
1039,0.010819,-0.026858,0.23429,0.10761,-0.25975,-1.1682,-0.077203
1040,0.020888,-0.0093186,0.20733,0.059216,-0.2867,-1.3199,-0.087597
1041,0.021538,0.010819,0.207,0.0017248,-0.2984,-1.4083,-0.09117
1042,0.008221,0.030957,0.21188,-0.057715,-0.31106,-1.4456,-0.089546
1043,-0.011592,0.041676,0.20213,-0.11651,-0.34062,-1.4427,-0.086948
1044,-0.029782,0.040702,0.16803,-0.17237,-0.37895,-1.3966,-0.084349
1045,-0.044073,0.028359,0.11736,-0.21427,-0.40818,-1.3053,-0.084024
1046,-0.051544,0.010495,0.062139,-0.23214,-0.41338,-1.1695,-0.085324
1047,-0.054792,-0.008669,0.014068,-0.22272,-0.39259,-0.99089,-0.087597
1048,-0.053817,-0.027833,-0.028482,-0.20225,-0.35686,-0.77619,-0.092469
1049,-0.048945,-0.048296,-0.068758,-0.19576,-0.31691,-0.53323,-0.098316
1050,-0.042774,-0.070707,-0.10774,-0.21297,-0.28021,-0.27274,-0.096692
1051,-0.036927,-0.093119,-0.14314,-0.2487,-0.24578,-0.0093186,-0.085973
1052,-0.033354,-0.10838,-0.17205,-0.28638,-0.2107,0.25053,-0.071357
1053,-0.032055,-0.11293,-0.19024,-0.30879,-0.17302,0.51167,-0.058365
1054,-0.034329,-0.10611,-0.19219,-0.30489,-0.12982,0.77412,-0.054792
1055,-0.033354,-0.09117,-0.17562,-0.27144,-0.080451,1.0333,-0.057065
1056,-0.028482,-0.070382,-0.14574,-0.21362,-0.03303,1.2743,-0.058365
1057,-0.020037,-0.045697,-0.11975,-0.14704,0.0033489,1.478,-0.04992
1058,-0.011592,-0.020687,-0.11618,-0.088572,0.023812,1.6144,-0.034329
1059,-0.0057458,0.0010752,-0.14314,-0.042774,0.033231,1.6543,-0.01614
1060,-0.0018481,0.016991,-0.18407,-0.0028225,0.041351,1.5972,0.0023744
1061,0.00042559,0.02706,-0.21817,0.035505,0.059541,1.4773,0.024786
1062,-0.00022403,0.032582,-0.23344,0.076431,0.10112,1.3542,0.050771
1063,-0.0054209,0.036479,-0.23311,0.11573,0.16933,1.2824,0.07708
1064,-0.0076946,0.037129,-0.21979,0.14691,0.25118,1.2941,0.098842
1065,-0.0044465,0.033881,-0.19771,0.17095,0.32036,1.412,0.11541
1066,0.010819,0.02706,-0.17107,0.18719,0.35219,1.6284,0.12483
1067,0.03518,0.021213,-0.14444,0.20018,0.3314,1.8632,0.1258
1068,0.065062,0.019589,-0.12138,0.20863,0.258,1.9931,0.11931
1069,0.086175,0.018615,-0.10254,0.20505,0.14626,1.923,0.10306
1070,0.09397,0.01764,-0.079477,0.18037,0.023812,1.6423,0.074806
1071,0.086824,0.016666,-0.047321,0.13132,-0.081426,1.224,0.041676
1072,0.066686,0.012443,-0.011267,0.06084,-0.15061,0.7686,0.0088706
1073,0.040052,0.0062721,0.014717,-0.017439,-0.18114,0.34732,-0.027508
1074,0.016341,0.00042559,0.011469,-0.088247,-0.18082,-0.011592,-0.069733
1075,-0.0018481,0.00042559,-0.031081,-0.14476,-0.15288,-0.31106,-0.11651
1076,-0.011267,0.010819,-0.10481,-0.18764,-0.094418,-0.56734,-0.16165
1077,-0.014516,0.025761,-0.19381,-0.21849,-0.013216,-0.79698,-0.20128
1078,-0.011592,0.036804,-0.27599,-0.23993,0.070909,-1.0081,-0.23474
1079,-0.0031473,0.038753,-0.33867,-0.25585,0.12515,-1.1952,-0.26234
1080,0.0091954,0.033881,-0.3744,-0.27371,0.1232,-1.3508,-0.27793
1081,0.023162,0.025111,-0.38707,-0.2971,0.06084,-1.4736,-0.27664
1082,0.036804,0.014717,-0.3809,-0.32633,-0.040825,-1.5642,-0.25877
1083,0.045899,0.008221,-0.36238,-0.35524,-0.15126,-1.6155,-0.22791
1084,0.047847,0.0075714,-0.33543,-0.3783,-0.23441,-1.6132,-0.19121
1085,0.047198,0.014392,-0.29775,-0.38902,-0.26722,-1.5437,-0.15191
1086,0.05142,0.025436,-0.2435,-0.37992,-0.2513,-1.4083,-0.10579
1087,0.065387,0.037778,-0.16523,-0.3416,-0.20355,-1.2316,-0.049595
1088,0.083901,0.056292,-0.061288,-0.27306,-0.12787,-1.0458,0.010495
1089,0.10014,0.080653,0.056617,-0.18017,-0.0076946,-0.87785,0.063113
1090,0.10924,0.10989,0.16608,-0.071682,0.17485,-0.73884,0.099817
1091,0.11443,0.13912,0.24793,0.039078,0.4191,-0.6232,0.12288
1092,0.12125,0.16575,0.29892,0.13749,0.69746,-0.52154,0.1362
1093,0.13067,0.18914,0.33465,0.2096,0.95926,-0.42929,0.14691
1094,0.14204,0.20311,0.37688,0.24695,1.1489,-0.35459,0.16056
1095,0.14756,0.19823,0.43307,0.24793,1.2259,-0.31529,0.17387
1096,0.13944,0.17192,0.48114,0.21772,1.1798,-0.32601,0.17387
1097,0.11411,0.1297,0.48699,0.16738,1.0281,-0.37765,0.15373
1098,0.074157,0.079354,0.42657,0.10989,0.77184,-0.43774,0.1206
1099,0.029333,0.026085,0.31224,0.05207,0.39377,-0.47282,0.086175
1100,-0.0093186,-0.02426,0.18362,0.0065969,-0.063237,-0.46762,0.059541
1101,-0.034654,-0.067459,0.072858,-0.015815,-0.46957,-0.42182,0.045249
1102,-0.046671,-0.09929,0.0017248,-0.013866,-0.69953,-0.35134,0.045249
1103,-0.047971,-0.11618,-0.025234,0.0056225,-0.71707,-0.27599,0.054668
1104,-0.044073,-0.11521,-0.024585,0.030308,-0.57643,-0.20648,0.065387
1105,-0.038551,-0.097991,-0.01614,0.052395,-0.3809,-0.15776,0.067336
1106,-0.034654,-0.068758,-0.01614,0.068635,-0.22597,-0.14411,0.060515
1107,-0.035628,-0.036602,-0.029782,0.072858,-0.15841,-0.15678,0.045899
1108,-0.043748,-0.01549,-0.054792,0.065062,-0.17887,-0.17042,0.021863
1109,-0.057065,-0.0018481,-0.079477,0.05142,-0.26039,-0.15029,-0.011592
1110,-0.072006,0.0069217,-0.096042,0.03518,-0.36466,-0.077853,-0.046347
1111,-0.085324,0.015042,-0.10254,0.013093,-0.45495,0.039402,-0.077528
1112,-0.092794,0.019914,-0.098965,-0.012567,-0.504,0.1664,-0.096367
1113,-0.094418,0.016991,-0.088896,-0.038227,-0.50465,0.2606,-0.10221
1114,-0.09182,0.0085458,-0.078503,-0.063886,-0.45918,0.28008,-0.097666
1115,-0.094743,-0.0015233,-0.070707,-0.084674,-0.37798,0.2109,-0.090521
1116,-0.10221,-0.0083442,-0.06616,-0.097666,-0.28183,0.072208,-0.086623
1117,-0.11293,-0.0099683,-0.065186,-0.10189,-0.19446,-0.096367,-0.084674
1118,-0.12398,-0.0054209,-0.067134,-0.093769,-0.13794,-0.25195,-0.084674
1119,-0.12852,0.0046481,-0.068758,-0.071032,-0.11845,-0.35654,-0.088247
1120,-0.1204,0.016991,-0.06681,-0.038551,-0.12495,-0.3835,-0.093769
1121,-0.097017,0.022837,-0.059664,-0.0031473,-0.13534,-0.32438,-0.096367
1122,-0.064211,0.023162,-0.045697,0.027385,-0.13372,-0.19251,-0.090845
1123,-0.034329,0.022512,-0.02426,0.055968,-0.1178,-0.013541,-0.076879
1124,-0.013866,0.020888,0.0049729,0.080653,-0.099615,0.17777,-0.056416
1125,-0.0047713,0.01829,0.037454,0.097218,-0.097341,0.33303,-0.037577
1126,-0.0083442,0.01764,0.065062,0.099167,-0.11586,0.42008,-0.022636
1127,-0.017764,0.016016,0.077405,0.090397,-0.14931,0.43567,-0.0076946
1128,-0.025559,0.012119,0.070909,0.078055,-0.17887,0.40514,0.015042
1129,-0.027508,0.0033489,0.041351,0.067661,-0.18991,0.35479,0.047847
1130,-0.025884,-0.0096434,-0.0063954,0.064737,-0.1727,0.29633,0.076431
1131,-0.025884,-0.024585,-0.053817,0.072533,-0.13502,0.22682,0.092021
1132,-0.029457,-0.039526,-0.087597,0.089098,-0.096692,0.14691,0.090072
1133,-0.037577,-0.050244,-0.10156,0.11021,-0.068758,0.06896,0.077405
1134,-0.0405,-0.050244,-0.095068,0.13392,-0.047646,0.008221,0.063438
1135,-0.03173,-0.039201,-0.070058,0.16153,-0.031406,-0.030431,0.056617
1136,-0.014516,-0.022311,-0.033354,0.18589,-0.017764,-0.052843,0.06084
1137,0.00075039,-0.0060706,0.0033489,0.19953,-0.0083442,-0.062912,0.076106
1138,0.011794,0.0056225,0.032582,0.19791,0.00075039,-0.059339,0.099817
1139,0.02641,0.017316,0.049147,0.18654,0.0091954,-0.035628,0.12613
1140,0.048172,0.02706,0.050446,0.17712,0.01764,0.0036737,0.14789
1141,0.070259,0.032582,0.037129,0.1742,0.032582,0.046873,0.15601
1142,0.081303,0.031932,0.017965,0.18199,0.061489,0.087474,0.14984
1143,0.07708,0.02706,0.00075039,0.19628,0.10859,0.13782,0.13555
1144,0.066362,0.019589,-0.007045,0.2096,0.17874,0.20863,0.11638
1145,0.054019,0.011794,-0.0024977,0.21805,0.26807,0.28756,0.095919
1146,0.041027,0.0017248,0.014717,0.22357,0.36161,0.33725,0.076431
1147,0.025436,-0.0096434,0.041027,0.22519,0.43469,0.33303,0.061165
1148,0.0072465,-0.013541,0.070909,0.21902,0.46717,0.27229,0.05272
1149,-0.0050961,-0.0047713,0.10794,0.20246,0.45126,0.16835,0.045574
1150,-0.0034721,0.01894,0.16056,0.1729,0.39279,0.042975,0.03518
1151,0.014717,0.05272,0.23526,0.12937,0.30217,-0.077853,0.016991
1152,0.041027,0.088773,0.32231,0.078055,0.19401,-0.17335,-0.0031473
1153,0.064737,0.12288,0.39604,0.039727,0.0865,-0.23311,-0.021986
1154,0.075131,0.14821,0.42008,0.032906,0.0052977,-0.2448,-0.036602
1155,0.071558,0.16023,0.37623,0.058891,-0.03173,-0.19803,-0.046347
1156,0.057592,0.15698,0.27099,0.094945,-0.028157,-0.10124,-0.052193
1157,0.036804,0.14204,0.13814,0.11541,-0.0063954,0.024461,-0.057065
1158,0.01764,0.12158,0.022837,0.10371,0.0033489,0.13132,-0.063237
1159,0.003024,0.10014,-0.045372,0.062789,-0.016464,0.16348,-0.074605
1160,-0.0093186,0.081303,-0.064536,-0.0024977,-0.061937,0.095594,-0.092794
1161,-0.016789,0.06831,-0.059664,-0.0824,-0.11293,-0.051544,-0.11098
1162,-0.01484,0.062139,-0.05804,-0.16523,-0.15418,-0.22467,-0.12333
1163,-0.0015233,0.060515,-0.071682,-0.23701,-0.17822,-0.36953,-0.12982
1164,0.015042,0.057592,-0.091495,-0.29028,-0.17692,-0.4595,-0.13015
1165,0.027709,0.05272,-0.10189,-0.31983,-0.14379,-0.49718,-0.11975
1166,0.032906,0.040702,-0.098316,-0.31821,-0.075579,-0.50075,-0.096692
1167,0.036479,0.024137,-0.081751,-0.28313,0.0062721,-0.47834,-0.060638
1168,0.042326,0.01017,-0.055116,-0.21557,0.074806,-0.4267,-0.011917
1169,0.05142,-0.00022403,-0.023935,-0.1295,0.10501,-0.34549,0.044599
1170,0.063763,-0.011592,0.0026992,-0.045372,0.093645,-0.24643,0.095594
1171,0.075456,-0.026858,0.020239,0.01829,0.053369,-0.14996,0.12937
1172,0.078055,-0.045372,0.024786,0.053369,0.0033489,-0.078503,0.13717
1173,0.069934,-0.062912,0.019589,0.057917,-0.044723,-0.047646,0.11931
1174,0.056292,-0.073631,0.0046481,0.038103,-0.084999,-0.051868,0.083251
1175,0.0433,-0.072006,-0.012242,0.009845,-0.11358,-0.067459,0.043625
1176,0.035505,-0.063237,-0.026533,-0.0080194,-0.12885,-0.062262,0.015367
1177,0.029983,-0.052193,-0.035303,-0.010618,-0.13827,-0.023935,0.0052977
1178,0.021213,-0.045697,-0.035628,0.0036737,-0.14996,0.028034,0.011469
1179,0.0065969,-0.042449,-0.027508,0.023162,-0.16588,0.066686,0.021213
1180,-0.015815,-0.039526,-0.013866,0.039402,-0.18244,0.077405,0.022188
1181,-0.044073,-0.035303,0.00010078,0.047847,-0.19738,0.06831,0.014068
1182,-0.070707,-0.029132,0.008221,0.053044,-0.21005,0.056617,0.0017248
1183,-0.087272,-0.022636,0.0065969,0.059541,-0.2146,0.054993,-0.012567
1184,-0.092145,-0.016464,-0.0060706,0.067336,-0.20096,0.071234,-0.026858
1185,-0.086623,-0.012892,-0.025234,0.069934,-0.16685,0.10436,-0.039201
1186,-0.071032,-0.012892,-0.044723,0.062139,-0.11683,0.14269,-0.045697
1187,-0.053492,-0.019063,-0.063237,0.042651,-0.068109,0.169,-0.045372
1188,-0.039526,-0.032055,-0.079477,0.009845,-0.03303,0.17095,-0.037252
1189,-0.03238,-0.051219,-0.096042,-0.030431,-0.011917,0.15568,-0.022636
1190,-0.031406,-0.073631,-0.11196,-0.069083,0.0052977,0.14529,-0.0063954
1191,-0.030106,-0.089871,-0.12982,-0.098641,0.02641,0.16478,0.016341
1192,-0.020037,-0.096042,-0.14346,-0.11293,0.061165,0.21707,0.045574
1193,-0.0021729,-0.090845,-0.14541,-0.10903,0.11508,0.28203,0.075781
1194,0.015367,-0.080127,-0.13729,-0.092145,0.18946,0.33628,0.095594
1195,0.026085,-0.067134,-0.1308,-0.069083,0.27911,0.36421,0.10047
1196,0.02641,-0.051868,-0.13794,-0.045047,0.36778,0.36843,0.094295
1197,0.020564,-0.035303,-0.15613,-0.024585,0.43697,0.35771,0.079679
1198,0.016016,-0.016789,-0.17627,-0.0089938,0.47205,0.33823,0.063113
1199,0.01764,0.0036737,-0.19446,-0.0011985,0.46133,0.31354,0.048822
1200,0.023487,0.019914,-0.20843,-0.00054884,0.40611,0.28983,0.039727
1201,0.029983,0.028359,-0.22174,-0.0054209,0.31451,0.27456,0.038753
1202,0.035505,0.032257,-0.23506,-0.011267,0.19953,0.27684,0.045249
1203,0.041676,0.033231,-0.24383,-0.0063954,0.078379,0.30347,0.062139
1204,0.049147,0.033231,-0.23798,0.029009,-0.032705,0.35576,0.086175
1205,0.057917,0.033231,-0.20615,0.10566,-0.12203,0.4269,0.11606
1206,0.062139,0.03583,-0.14866,0.2174,-0.18017,0.49738,0.14561
1207,0.060515,0.039402,-0.072981,0.33368,-0.19803,0.54545,0.16478
1208,0.054668,0.041027,0.0052977,0.42332,-0.17432,0.55195,0.1638
1209,0.045899,0.034855,0.06831,0.46393,-0.1191,0.50777,0.13912
1210,0.032257,0.022188,0.11151,0.45353,-0.04992,0.41878,0.093321
1211,0.013418,0.01017,0.14139,0.41196,0.009845,0.3051,0.03453
1212,-0.0011985,0.0033489,0.1729,0.36811,0.047847,0.18816,-0.027183
1213,-0.0063954,0.0072465,0.21545,0.3392,0.061489,0.089748,-0.080127
1214,-0.0034721,0.024461,0.26937,0.32458,0.061814,0.018615,-0.11683
1215,0.0065969,0.052395,0.32491,0.31159,0.061165,-0.028482,-0.13275
1216,0.020888,0.084876,0.37201,0.28626,0.069285,-0.061613,-0.13145
1217,0.039402,0.12028,0.4191,0.24566,0.080003,-0.094418,-0.11488
1218,0.059216,0.14951,0.47984,0.19531,0.081952,-0.12982,-0.093444
1219,0.074806,0.1703,0.5526,0.15146,0.06831,-0.17302,-0.076229
1220,0.083251,0.18004,0.61334,0.13262,0.039078,-0.22954,-0.064861
1221,0.084551,0.18199,0.63542,0.15666,0.0020496,-0.29742,-0.055766
1222,0.082927,0.18297,0.61041,0.2187,-0.035303,-0.37148,-0.045047
1223,0.081627,0.18654,0.54838,0.28983,-0.065835,-0.45268,-0.035303
1224,0.083576,0.19076,0.47107,0.32783,-0.0837,-0.54623,-0.034654
1225,0.092671,0.19531,0.38825,0.29503,-0.086298,-0.66381,-0.043748
1226,0.10501,0.19531,0.29503,0.18427,-0.083375,-0.80899,-0.056741
1227,0.11021,0.18784,0.18297,0.023162,-0.087597,-0.97465,-0.06616
1228,0.10274,0.17095,0.055968,-0.14379,-0.10774,-1.1393,-0.072981
1229,0.080653,0.14237,-0.071032,-0.2893,-0.14346,-1.2816,-0.083375
1230,0.048497,0.10761,-0.17302,-0.39454,-0.18147,-1.3875,-0.096042
1231,0.012119,0.075781,-0.22921,-0.45171,-0.21297,-1.4521,-0.10384
1232,-0.020687,0.055318,-0.23571,-0.4556,-0.22856,-1.47,-0.10221
1233,-0.045372,0.045574,-0.19998,-0.40916,-0.23149,-1.4323,-0.094743
1234,-0.062587,0.041676,-0.14736,-0.33055,-0.22726,-1.3297,-0.089871
1235,-0.070382,0.038753,-0.099615,-0.24221,-0.22044,-1.1669,-0.090521
1236,-0.069083,0.031607,-0.072981,-0.16977,-0.21135,-0.95256,-0.098965
1237,-0.067784,0.019589,-0.072006,-0.12592,-0.20096,-0.70278,-0.11066
1238,-0.067784,0.0039985,-0.090196,-0.11715,-0.19543,-0.43677,-0.12073
1239,-0.066485,-0.012567,-0.11651,-0.13502,-0.19543,-0.17042,-0.12722
1240,-0.064861,-0.027183,-0.14022,-0.16198,-0.19608,0.09462,-0.1282
1241,-0.062262,-0.035628,-0.15711,-0.18309,-0.18666,0.35512,-0.12398
1242,-0.05739,-0.037577,-0.17367,-0.19024,-0.15938,0.60717,-0.11098
1243,-0.04862,-0.03303,-0.19283,-0.18049,-0.11423,0.83648,-0.090845
1244,-0.041475,-0.028807,-0.21492,-0.15905,-0.053817,1.0268,-0.064211
1245,-0.039201,-0.027833,-0.24318,-0.13307,0.0072465,1.161,-0.030106
1246,-0.0405,-0.028807,-0.288,-0.11131,0.053044,1.2298,0.009845
1247,-0.0405,-0.03303,-0.35556,-0.096367,0.076431,1.2318,0.055318
1248,-0.036278,-0.0405,-0.43774,-0.092145,0.0852,1.183,0.10566
1249,-0.026209,-0.051219,-0.51017,-0.098641,0.092346,1.1285,0.15731
1250,-0.010293,-0.060313,-0.5524,-0.10709,0.11151,1.1382,0.2057
1251,0.0056225,-0.062262,-0.55857,-0.10676,0.15179,1.2834,0.24273
1252,0.015367,-0.053492,-0.53161,-0.094743,0.21967,1.5907,0.26612
1253,0.021213,-0.039526,-0.47996,-0.069083,0.3051,1.9934,0.27781
1254,0.029333,-0.028807,-0.41273,-0.035628,0.39442,2.3546,0.27781
1255,0.036804,-0.028807,-0.33445,-0.00087364,0.47075,2.5291,0.26709
1256,0.040052,-0.034978,-0.24838,0.028359,0.50875,2.443,0.25118
1257,0.036479,-0.042774,-0.16035,0.044599,0.49543,2.1175,0.23169
1258,0.028034,-0.046671,-0.078503,0.044599,0.4295,1.6466,0.21123
1259,0.017965,-0.04862,-0.0034721,0.028684,0.32134,1.1334,0.18914
1260,0.011794,-0.04992,0.071234,-0.00087364,0.18816,0.65751,0.1638
1261,0.009845,-0.051219,0.15341,-0.032705,0.054668,0.26092,0.13717
1262,0.013743,-0.051544,0.24728,-0.052843,-0.050569,-0.046022,0.11086
1263,0.020888,-0.051544,0.3457,-0.051544,-0.10091,-0.27046,0.091047
1264,0.02641,-0.052518,0.43372,-0.023935,-0.082725,-0.4215,0.071558
1265,0.028359,-0.051219,0.49673,0.027709,-0.0028225,-0.50335,0.049147
1266,0.028359,-0.046022,0.52921,0.090072,0.10729,-0.51277,0.023812
1267,0.024786,-0.037252,0.53863,0.15081,0.19596,-0.44748,-0.0018481
1268,0.017965,-0.024909,0.53408,0.20051,0.22324,-0.32146,-0.023285
1269,0.010495,-0.010943,0.51362,0.23039,0.17874,-0.16263,-0.037577
1270,0.0056225,-0.0018481,0.48147,0.23591,0.088448,-0.0024977,-0.041799
1271,0.0026992,-0.00054884,0.44606,0.21967,-0.0028225,0.14367,-0.036602
1272,-0.00054884,-0.0057458,0.40968,0.19011,-0.059339,0.27684,-0.027833
1273,-0.0044465,-0.010618,0.36973,0.15536,-0.070058,0.38013,-0.022961
1274,-0.0099683,-0.011267,0.31971,0.11866,-0.054142,0.4191,-0.029782
1275,-0.016464,-0.010293,0.25475,0.080653,-0.040825,0.36324,-0.051219
1276,-0.02426,-0.011592,0.17745,0.042326,-0.046347,0.2096,-0.08305
1277,-0.034329,-0.018088,0.096569,0.0085458,-0.067134,-0.007045,-0.10644
1278,-0.048296,-0.030106,0.022837,-0.019063,-0.088572,-0.23474,-0.11066
1279,-0.060638,-0.043423,-0.031081,-0.038876,-0.10286,-0.43092,-0.092145
1280,-0.069083,-0.054142,-0.063886,-0.046671,-0.11293,-0.56182,-0.060313
1281,-0.070707,-0.05739,-0.078827,-0.043099,-0.11813,-0.60404,-0.025234
1282,-0.064211,-0.053492,-0.083375,-0.035628,-0.11456,-0.55305,0.00010078
1283,-0.050244,-0.045697,-0.084674,-0.027183,-0.096692,-0.42475,0.014717
1284,-0.029132,-0.037902,-0.087272,-0.02361,-0.064211,-0.24058,0.026085
1285,-0.0073698,-0.035953,-0.089546,-0.025234,-0.029782,-0.045047,0.038753
1286,0.0078962,-0.0405,-0.092794,-0.030106,-0.028482,0.10079,0.052395
1287,0.016991,-0.048296,-0.097017,-0.037577,-0.10351,0.15698,0.061814
1288,0.023487,-0.04992,-0.10221,-0.048945,-0.27241,0.11086,0.064088
1289,0.032257,-0.041475,-0.10774,-0.059989,-0.49685,-0.01484,0.062789
1290,0.045574,-0.021986,-0.11163,-0.065835,-0.70441,-0.17205,0.059541
1291,0.059541,0.0023744,-0.11651,-0.06551,-0.83206,-0.30229,0.056942
1292,0.065712,0.021538,-0.12365,-0.063237,-0.84797,-0.36303,0.059865
1293,0.058566,0.029658,-0.13112,-0.062912,-0.75605,-0.33575,0.066686
1294,0.042975,0.024461,-0.13697,-0.062587,-0.5839,-0.23474,0.075131
1295,0.028359,0.0088706,-0.13957,-0.060963,-0.36823,-0.10741,0.078704
1296,0.01894,-0.011592,-0.13794,-0.059339,-0.14866,-0.0096434,0.073507
1297,0.018615,-0.027833,-0.13567,-0.05739,0.042651,0.025111,0.058241
1298,0.02641,-0.03303,-0.13502,-0.054467,0.18784,-0.0047713,0.035505
1299,0.041027,-0.028157,-0.13599,-0.050569,0.2934,-0.081426,0.0085458
1300,0.054019,-0.018738,-0.13924,-0.04927,0.36908,-0.18407,-0.013866
1301,0.056942,-0.0083442,-0.14281,-0.054792,0.423,-0.29515,-0.025234
1302,0.053694,-0.00054884,-0.14152,-0.069083,0.45873,-0.39941,-0.024909
1303,0.049147,0.0059473,-0.1334,-0.088247,0.46555,-0.48873,-0.018088
1304,0.045574,0.014068,-0.12463,-0.10611,0.42885,-0.56734,-0.0096434
1305,0.04395,0.026085,-0.11553,-0.11391,0.34212,-0.64009,-0.00054884
1306,0.047523,0.041676,-0.10416,-0.10546,0.22682,-0.69888,0.0095202
1307,0.059216,0.057592,-0.092469,-0.084999,0.11638,-0.7187,0.019914
1308,0.071234,0.067661,-0.0824,-0.059014,0.045249,-0.68687,0.024461
1309,0.073507,0.06831,-0.07493,-0.029457,0.024137,-0.61768,0.021538
1310,0.064088,0.059541,-0.067784,-0.0021729,0.044275,-0.55305,0.014068
1311,0.044275,0.0433,-0.064861,0.016016,0.078704,-0.53193,0.0039985
1312,0.01829,0.022837,-0.068109,0.023162,0.10014,-0.56929,-0.0093186
1313,-0.0063954,0.0010752,-0.073955,0.023487,0.095269,-0.65601,-0.021337
1314,-0.023935,-0.017114,-0.073955,0.024461,0.065387,-0.77359,-0.028482
1315,-0.031406,-0.028807,-0.064211,0.02641,0.024786,-0.88922,-0.027508
1316,-0.034329,-0.030106,-0.055116,0.025111,-0.012892,-0.96945,-0.020362
1317,-0.038876,-0.022961,-0.053817,0.01829,-0.0405,-0.99933,-0.012892
1318,-0.045047,-0.011917,-0.070707,0.0033489,-0.062912,-0.98309,-0.014191
1319,-0.048945,0.0010752,-0.11228,-0.015165,-0.086298,-0.94282,-0.03173
1320,-0.043748,0.016341,-0.16847,-0.036927,-0.12073,-0.90449,-0.064861
1321,-0.03173,0.031282,-0.21655,-0.05739,-0.17237,-0.88143,-0.10579
1322,-0.022961,0.042975,-0.2435,-0.075904,-0.24188,-0.87363,-0.14736
1323,-0.023935,0.049796,-0.24318,-0.092794,-0.32113,-0.86454,-0.18277
1324,-0.030431,0.05272,-0.21785,-0.10806,-0.39389,-0.83076,-0.19836
1325,-0.036927,0.051745,-0.16977,-0.12008,-0.44196,-0.7593,-0.18699
1326,-0.037252,0.050446,-0.10936,-0.12722,-0.45171,-0.65991,-0.14899
1327,-0.026858,0.050446,-0.053492,-0.1295,-0.41923,-0.55045,-0.094093
1328,-0.0076946,0.048172,-0.017764,-0.12755,-0.35914,-0.45203,-0.035953
1329,0.012768,0.042651,-0.016464,-0.13015,-0.28833,-0.3718,0.012443
1330,0.025111,0.031282,-0.042449,-0.13827,-0.21882,-0.30652,0.04395
1331,0.020888,0.015692,-0.075579,-0.14801,-0.15029,-0.24578,0.056292
1332,0.0020496,-0.0031473,-0.097341,-0.15029,-0.084349,-0.18017,0.055318
1333,-0.020687,-0.027508,-0.09994,-0.13307,-0.022311,-0.10254,0.05272
1334,-0.037252,-0.056741,-0.075255,-0.094418,0.039078,-0.0073698,0.052395
1335,-0.0405,-0.081101,-0.021012,-0.038227,0.10339,0.096244,0.055643
1336,-0.029132,-0.087922,0.072208,0.03453,0.1677,0.19401,0.065387
1337,-0.0080194,-0.072006,0.22097,0.11963,0.22519,0.27326,0.0865
1338,0.01764,-0.034329,0.42852,0.20928,0.27684,0.33043,0.11411
1339,0.040702,0.016991,0.67797,0.29145,0.32556,0.36291,0.13652
1340,0.054993,0.06896,0.92938,0.35219,0.37785,0.36161,0.14204
1341,0.058241,0.10696,1.1161,0.38337,0.43145,0.32556,0.12645
1342,0.054668,0.12483,1.1808,0.37265,0.48374,0.26839,0.097543
1343,0.046223,0.12483,1.0937,0.31679,0.53343,0.21382,0.069285
1344,0.036154,0.11346,0.87546,0.22617,0.57858,0.18459,0.049147
1345,0.027385,0.095919,0.59028,0.12418,0.61399,0.18751,0.040702
1346,0.024461,0.080328,0.31971,0.039402,0.6312,0.19921,0.045249
1347,0.02641,0.069934,0.1284,0.0020496,0.62308,0.19044,0.058891
1348,0.025761,0.066037,0.041676,0.031282,0.59222,0.14399,0.070259
1349,0.016991,0.069285,0.048822,0.131,0.55162,0.056942,0.069934
1350,0.0023744,0.075781,0.11248,0.28398,0.51687,-0.056091,0.054344
1351,-0.013541,0.080653,0.18329,0.44119,0.48179,-0.17432,0.02641
1352,-0.025884,0.079029,0.2187,0.5474,0.43209,-0.27696,-0.0018481
1353,-0.034329,0.070909,0.19921,0.57046,0.35934,-0.34582,-0.018413
1354,-0.037902,0.063438,0.13262,0.51622,0.26482,-0.3705,-0.015815
1355,-0.037577,0.056942,0.046223,0.4243,0.16088,-0.35264,-0.0015233
1356,-0.041475,0.053044,-0.029132,0.34147,0.060515,-0.29872,0.013093
1357,-0.051868,0.050771,-0.077528,0.2921,-0.027508,-0.22272,0.021863
1358,-0.063886,0.048497,-0.097991,0.26904,-0.10351,-0.14054,0.021538
1359,-0.067784,0.0433,-0.10676,0.24858,-0.1714,-0.059664,0.014392
1360,-0.059339,0.033231,-0.11651,0.2096,-0.22532,0.025111,0.0095202
1361,-0.045047,0.017965,-0.13242,0.14821,-0.26007,0.11703,0.01017
1362,-0.034978,0.0023744,-0.15711,0.071558,-0.28151,0.21123,0.012768
1363,-0.034004,-0.0080194,-0.18991,-0.0083442,-0.30619,0.29243,0.011794
1364,-0.043099,-0.0080194,-0.22759,-0.076229,-0.34939,0.34342,0.00042559
1365,-0.051868,-0.0050961,-0.2578,-0.12073,-0.41565,0.36194,-0.026209
1366,-0.052518,-0.0044465,-0.27144,-0.13827,-0.49848,0.36324,-0.05804
1367,-0.044073,-0.0080194,-0.27046,-0.14022,-0.57936,0.3759,-0.079802
1368,-0.025884,-0.011917,-0.26007,-0.14119,-0.63587,0.4282,-0.081426
1369,-0.0041217,-0.012567,-0.24805,-0.14509,-0.65211,0.53701,-0.061613
1370,0.019589,-0.007045,-0.23733,-0.14606,-0.61573,0.70104,-0.018738
1371,0.042651,0.008221,-0.23019,-0.13664,-0.52284,0.893,0.037129
1372,0.062139,0.032906,-0.22467,-0.11456,-0.38285,1.0619,0.096893
1373,0.073832,0.062464,-0.21947,-0.090521,-0.22174,1.159,0.15081
1374,0.074157,0.087799,-0.2133,-0.07428,-0.073955,1.1493,0.18687
1375,0.064413,0.10404,-0.20323,-0.071032,0.036804,1.0372,0.19953
1376,0.046548,0.10599,-0.18861,-0.079477,0.099492,0.86734,0.19304
1377,0.030957,0.093321,-0.17172,-0.096692,0.11476,0.70461,0.17062
1378,0.024786,0.072533,-0.16165,-0.12138,0.10469,0.60944,0.14561
1379,0.030308,0.056292,-0.16263,-0.15093,0.092671,0.63348,0.1271
1380,0.047847,0.052395,-0.17367,-0.17692,0.097218,0.8053,0.11898
1381,0.073507,0.058891,-0.18894,-0.19413,0.12385,1.0863,0.12223
1382,0.10404,0.067661,-0.2055,-0.20128,0.16608,1.362,0.1284
1383,0.13327,0.072208,-0.22012,-0.19803,0.21772,1.5079,0.12483
1384,0.15244,0.067011,-0.23311,-0.18342,0.27229,1.4562,0.10664
1385,0.15438,0.05142,-0.24026,-0.15321,0.32296,1.2142,0.078055
1386,0.13977,0.030633,-0.23701,-0.10774,0.36291,0.85402,0.042975
1387,0.11476,0.0091954,-0.22499,-0.059014,0.3863,0.46945,0.009845
1388,0.089098,-0.010943,-0.20778,-0.021986,0.39507,0.13879,-0.016464
1389,0.067011,-0.021012,-0.19348,-0.0024977,0.38922,-0.10254,-0.037902
1390,0.057592,-0.018088,-0.18829,-0.0011985,0.36486,-0.26202,-0.059014
1391,0.059541,-0.0047713,-0.18991,-0.013216,0.31614,-0.36823,-0.082076
1392,0.064737,0.010819,-0.19543,-0.026858,0.24273,-0.44683,-0.11488
1393,0.065387,0.021538,-0.19381,-0.037252,0.15438,-0.51537,-0.15646
1394,0.059541,0.024137,-0.17627,-0.039851,0.066037,-0.5839,-0.20096
1395,0.043625,0.021863,-0.13794,-0.034004,-0.0083442,-0.65828,-0.24188
1396,0.020239,0.019914,-0.076229,-0.019388,-0.059664,-0.74533,-0.27176
1397,-0.0047713,0.021538,0.0078962,0.0036737,-0.085324,-0.8405,-0.288
1398,-0.023285,0.030957,0.11476,0.038103,-0.089871,-0.9269,-0.29353
1399,-0.036278,0.042651,0.24013,0.075456,-0.075579,-0.98894,-0.29417
1400,-0.044398,0.054019,0.37136,0.10144,-0.052193,-1.0143,-0.29093
1401,-0.047646,0.063113,0.47757,0.10664,-0.034004,-1.0078,-0.28248
1402,-0.047321,0.068635,0.52564,0.10079,-0.028482,-0.97952,-0.27176
1403,-0.045372,0.065387,0.49933,0.10047,-0.038876,-0.94509,-0.26202
1404,-0.041799,0.054344,0.40708,0.11476,-0.064536,-0.91001,-0.25585
1405,-0.037902,0.039078,0.27424,0.13977,-0.10384,-0.87396,-0.24903
1406,-0.034654,0.027385,0.13587,0.15763,-0.15483,-0.83725,-0.23961
1407,-0.031406,0.020239,0.025436,0.15438,-0.21427,-0.8064,-0.22564
1408,-0.024585,0.019264,-0.041799,0.12743,-0.27209,-0.77781,-0.20063
1409,-0.013216,0.024137,-0.069083,0.0852,-0.31951,-0.73656,-0.15905
1410,0.003024,0.037454,-0.062587,0.042001,-0.35654,-0.64984,-0.096367
1411,0.020564,0.055318,-0.035953,0.011144,-0.38285,-0.49718,-0.014191
1412,0.038428,0.068635,-0.0044465,-0.0047713,-0.38902,-0.28346,0.071558
1413,0.046223,0.072533,0.017965,-0.010293,-0.36888,-0.034978,0.14399
1414,0.042001,0.062789,0.026085,-0.010618,-0.31854,0.22194,0.19304
1415,0.027385,0.039078,0.01894,-0.0044465,-0.24968,0.44834,0.21188
1416,0.0062721,0.003024,0.0014,0.0046481,-0.17919,0.61334,0.20603
1417,-0.016464,-0.035628,-0.022636,0.015692,-0.12235,0.71728,0.18459
1418,-0.034654,-0.067134,-0.04992,0.025761,-0.08305,0.80205,0.16023
1419,-0.042774,-0.086623,-0.075255,0.031932,-0.053492,0.92158,0.13912
1420,-0.040825,-0.092794,-0.092469,0.031282,-0.021986,1.1109,0.12775
1421,-0.034654,-0.087597,-0.10221,0.027385,0.022837,1.3906,0.13262
1422,-0.028157,-0.073631,-0.10189,0.025761,0.086824,1.7641,0.15503
1423,-0.022961,-0.056091,-0.089871,0.030308,0.16608,2.2081,0.19304
1424,-0.020687,-0.041475,-0.065835,0.041027,0.24013,2.6509,0.23883
1425,-0.022636,-0.035303,-0.038876,0.053044,0.28268,2.9844,0.28366
1426,-0.028157,-0.038876,-0.016789,0.065387,0.27489,3.0955,0.31094
1427,-0.034004,-0.049595,-0.0021729,0.073182,0.21155,2.9117,0.31029
1428,-0.036278,-0.06616,0.003024,0.06831,0.10242,2.4329,0.28106
1429,-0.03238,-0.0824,0.0056225,0.05142,-0.02426,1.7492,0.23299
1430,-0.026533,-0.094418,0.011469,0.02641,-0.13924,1.0044,0.18004
1431,-0.02361,-0.10156,0.024137,0.003024,-0.22272,0.34635,0.13814
1432,-0.026533,-0.10091,0.040377,-0.011267,-0.26592,-0.11423,0.11313
1433,-0.037902,-0.093444,0.059216,-0.013216,-0.26884,-0.34257,0.099817
1434,-0.052518,-0.084674,0.079029,-0.0060706,-0.23928,-0.38317,0.097543
1435,-0.063886,-0.081751,0.09397,0.008221,-0.18504,-0.32341,0.10209
1436,-0.069408,-0.085973,0.099817,0.02706,-0.11391,-0.25552,0.11248
1437,-0.070058,-0.094418,0.095594,0.043625,-0.035953,-0.24058,0.13002
1438,-0.065186,-0.10059,0.081303,0.05142,0.030308,-0.29223,0.14821
1439,-0.054467,-0.098316,0.062789,0.051096,0.070909,-0.39324,0.16153
1440,-0.043099,-0.086298,0.050121,0.05142,0.078379,-0.5105,0.16283
1441,-0.037902,-0.070707,0.053369,0.056942,0.056942,-0.61671,0.14821
1442,-0.041799,-0.060638,0.071234,0.065712,0.013743,-0.70213,0.12093
1443,-0.051868,-0.058365,0.091047,0.064737,-0.037902,-0.77424,0.08585
1444,-0.061288,-0.060638,0.10014,0.040377,-0.088247,-0.83076,0.047198
1445,-0.062587,-0.060638,0.09397,-0.012567,-0.13275,-0.87006,0.01017
1446,-0.04927,-0.051544,0.072208,-0.085973,-0.16945,-0.88922,-0.021986
1447,-0.026858,-0.031081,0.036479,-0.1649,-0.19673,-0.885,-0.042774
1448,-0.0015233,-0.0057458,-0.0047713,-0.23538,-0.20908,-0.86129,-0.052518
1449,0.014392,0.01764,-0.040175,-0.28313,-0.20193,-0.82523,-0.058689
1450,0.016666,0.030308,-0.063886,-0.30067,-0.17237,-0.78691,-0.070707
1451,0.011469,0.031282,-0.077853,-0.2958,-0.12787,-0.74793,-0.09117
1452,0.01017,0.022837,-0.085648,-0.28053,-0.09182,-0.71025,-0.11618
1453,0.022837,0.011144,-0.088572,-0.26364,-0.088896,-0.67907,-0.13599
1454,0.045574,-0.00087364,-0.089546,-0.25065,-0.1204,-0.65796,-0.14541
1455,0.06896,-0.012892,-0.094093,-0.24286,-0.17302,-0.64757,-0.14184
1456,0.0852,-0.021337,-0.10709,-0.24123,-0.23214,-0.64659,-0.13112
1457,0.092996,-0.015815,-0.123,-0.23831,-0.2854,-0.65504,-0.12008
1458,0.09462,0.0065969,-0.13534,-0.22921,-0.32178,-0.67258,-0.11586
1459,0.091372,0.042326,-0.13697,-0.21102,-0.3299,-0.69369,-0.11845
1460,0.081952,0.084226,-0.12527,-0.18439,-0.30424,-0.71155,-0.123
1461,0.070584,0.12158,-0.10059,-0.15353,-0.24318,-0.71448,-0.1243
1462,0.06084,0.14951,-0.06551,-0.12235,-0.15386,-0.70051,-0.11878
1463,0.058241,0.16868,-0.026209,-0.087272,-0.052518,-0.67258,-0.10644
1464,0.058891,0.18102,0.011144,-0.042124,0.040702,-0.64302,-0.092469
1465,0.059865,0.18492,0.045574,0.017965,0.11411,-0.61281,-0.080776
1466,0.057267,0.17874,0.076106,0.095919,0.15698,-0.57903,-0.071682
1467,0.054668,0.16543,0.10144,0.19011,0.17517,-0.542,-0.068758
1468,0.050446,0.14951,0.12125,0.28788,0.17745,-0.50497,-0.072656
1469,0.045574,0.14139,0.13717,0.36583,0.17582,-0.47444,-0.081101
1470,0.040702,0.13392,0.14724,0.40546,0.16998,-0.45658,-0.088247
1471,0.038103,0.12255,0.15179,0.40384,0.16185,-0.45788,-0.086948
1472,0.041351,0.10924,0.15049,0.37201,0.15146,-0.47802,-0.07428
1473,0.047198,0.098193,0.14367,0.32946,0.14334,-0.51017,-0.056741
1474,0.049796,0.087474,0.13165,0.29113,0.14756,-0.53583,-0.042124
1475,0.045899,0.073832,0.11703,0.26677,0.18492,-0.53778,-0.033679
1476,0.032582,0.053694,0.10371,0.258,0.27879,-0.50238,-0.030431
1477,0.013093,0.028359,0.093321,0.26027,0.45418,-0.43417,-0.025884
1478,-0.0093186,-0.00022403,0.088448,0.26774,0.71435,-0.34127,-0.019063
1479,-0.026209,-0.025884,0.089098,0.27554,1.0323,-0.24286,-0.008669
1480,-0.03173,-0.044723,0.089098,0.28138,1.3455,-0.15905,0.0014
1481,-0.026533,-0.055766,0.074806,0.27976,1.58,-0.11001,0.011469
1482,-0.013866,-0.065835,0.036804,0.26514,1.6807,-0.10124,0.022188
1483,-0.00087364,-0.077203,-0.021661,0.23364,1.643,-0.12235,0.024786
1484,0.0062721,-0.089546,-0.085324,0.19174,1.5108,-0.14996,0.016341
1485,0.0075714,-0.097991,-0.1334,0.15276,1.3429,-0.1662,0.003024
1486,0.0014,-0.09929,-0.15905,0.12483,1.1587,-0.16328,-0.0031473
1487,-0.0047713,-0.095068,-0.16165,0.10371,0.90436,-0.13534,0.0046481
1488,-0.0083442,-0.088247,-0.15483,0.078704,0.52109,-0.084024,0.022837
1489,-0.0057458,-0.075904,-0.15191,0.040052,0.038103,-0.011917,0.044275
1490,0.0023744,-0.053817,-0.15776,-0.013541,-0.43124,0.074157,0.062464
1491,0.013418,-0.021661,-0.1636,-0.069408,-0.78561,0.1664,0.067336
1492,0.020888,0.010819,-0.15288,-0.11878,-0.98439,0.24955,0.056617
1493,0.023812,0.031282,-0.12073,-0.15711,-1.0562,0.30672,0.038428
1494,0.022188,0.033556,-0.077528,-0.18764,-1.0766,0.32686,0.01894
1495,0.017316,0.017965,-0.039201,-0.20972,-1.1244,0.3038,0.0017248
1496,0.0091954,-0.0057458,-0.014191,-0.22304,-1.2264,0.24176,-0.012242
1497,0.0023744,-0.027833,0.0020496,-0.22467,-1.3401,0.16348,-0.020687
1498,-0.0021729,-0.036927,0.016341,-0.21102,-1.3949,0.094945,-0.02361
1499,-0.0060706,-0.031406,0.036804,-0.18471,-1.344,0.05207,-0.023285
1500,-0.007045,-0.014191,0.069934,-0.14964,-1.1952,0.038103,-0.022961
1501,-0.0034721,0.0078962,0.11963,-0.11163,-0.98634,0.044599,-0.021986
1502,0.0020496,0.025111,0.18459,-0.072006,-0.76969,0.058566,-0.021986
1503,0.0059473,0.035505,0.26774,-0.035628,-0.58033,0.070909,-0.025884
1504,0.0059473,0.041676,0.37363,-0.0028225,-0.42865,0.081627,-0.037577
1505,0.00042559,0.046873,0.48796,0.02706,-0.30782,0.096244,-0.052843
1506,-0.0067202,0.05142,0.57923,0.050771,-0.20258,0.11833,-0.067459
1507,-0.0099683,0.054019,0.61659,0.070909,-0.10384,0.14626,-0.070382
1508,-0.010943,0.056617,0.58898,0.091696,-0.0093186,0.17257,-0.05739
1509,-0.013866,0.06084,0.51232,0.11281,0.072533,0.18881,-0.034329
1510,-0.017439,0.065712,0.40773,0.12905,0.13977,0.18329,-0.012567
1511,-0.019712,0.070259,0.29633,0.13392,0.18297,0.14464,-0.0011985
1512,-0.020037,0.068635,0.19369,0.12223,0.18979,0.073832,-0.0054209
1513,-0.018738,0.055643,0.10891,0.094295,0.15309,-0.020687,-0.018738
1514,-0.020687,0.032906,0.0433,0.05142,0.080003,-0.12527,-0.035303
1515,-0.025559,0.0075714,-0.016789,-0.0044465,-0.011917,-0.22597,-0.053168
1516,-0.030756,-0.015165,-0.098641,-0.067459,-0.10351,-0.30262,-0.070382
1517,-0.033354,-0.031081,-0.2172,-0.12625,-0.18114,-0.34192,-0.083375
1518,-0.035303,-0.042774,-0.35849,-0.17172,-0.22921,-0.3442,-0.086623
1519,-0.036927,-0.054792,-0.48386,-0.19381,-0.22759,-0.31139,-0.074605
1520,-0.039201,-0.063237,-0.55662,-0.18959,-0.16685,-0.24675,-0.044723
1521,-0.042449,-0.065186,-0.56279,-0.1623,-0.057065,-0.14639,0.0088706
1522,-0.037902,-0.059664,-0.51374,-0.11586,0.078704,-0.0015233,0.090397
1523,-0.022311,-0.048296,-0.43124,-0.057065,0.2174,0.18167,0.19141
1524,0.00075039,-0.030756,-0.33737,0.0062721,0.34342,0.3824,0.2908
1525,0.025111,-0.008669,-0.25162,0.071883,0.44314,0.57469,0.36713
1526,0.046223,0.0072465,-0.18114,0.13555,0.49641,0.73417,0.40643
1527,0.063438,0.011144,-0.12268,0.18849,0.49413,0.84363,0.40903
1528,0.075456,0.0085458,-0.068758,0.21837,0.44249,0.89722,0.38922
1529,0.082927,0.0052977,-0.015165,0.22194,0.36389,0.89235,0.36486
1530,0.087799,0.0043233,0.038753,0.20408,0.27684,0.83031,0.34017
1531,0.090397,0.0075714,0.0852,0.17355,0.19044,0.7202,0.31646
1532,0.094295,0.016016,0.12028,0.1349,0.11183,0.5854,0.28463
1533,0.10047,0.025111,0.14334,0.095594,0.051745,0.45483,0.2489
1534,0.10631,0.03453,0.16738,0.064737,0.016341,0.34764,0.21317
1535,0.10989,0.05142,0.20018,0.050771,0.010819,0.27456,0.18427
1536,0.11281,0.083576,0.24143,0.053044,0.040702,0.23818,0.16543
1537,0.11703,0.13262,0.28885,0.070259,0.10956,0.23299,0.15958
1538,0.1271,0.19531,0.34635,0.097543,0.2122,0.24955,0.16413
1539,0.14691,0.26319,0.43145,0.12678,0.32816,0.27164,0.17257
1540,0.17225,0.32198,0.55065,0.14367,0.423,0.27391,0.1729
1541,0.19044,0.36096,0.67765,0.13002,0.46815,0.23266,0.15471
1542,0.18946,0.3733,0.75918,0.081627,0.45126,0.13879,0.12288
1543,0.16933,0.35706,0.74683,0.0052977,0.38337,0.0056225,0.086824
1544,0.13295,0.31257,0.626,-0.08305,0.2934,-0.1282,0.050446
1545,0.087799,0.24728,0.43242,-0.16263,0.20928,-0.21232,0.016991
1546,0.040377,0.17842,0.23169,-0.21817,0.14302,-0.21102,-0.011592
1547,-0.00022403,0.12093,0.080653,-0.24545,0.09397,-0.11715,-0.033354
1548,-0.026858,0.07773,0.0049729,-0.25195,0.058241,0.031607,-0.04992
1549,-0.038876,0.045249,0.00042559,-0.24578,0.030633,0.17192,-0.059014
1550,-0.042449,0.013743,0.042975,-0.23376,0.0072465,0.25118,-0.062912
1551,-0.047646,-0.020687,0.10306,-0.22044,-0.0083442,0.2541,-0.070707
1552,-0.057065,-0.056091,0.14821,-0.20615,-0.0063954,0.19953,-0.088247
1553,-0.065835,-0.087922,0.15958,-0.18374,0.010495,0.1232,-0.11488
1554,-0.068109,-0.10871,0.13522,-0.14866,0.031282,0.05142,-0.14476
1555,-0.061288,-0.11358,0.090722,-0.10124,0.038753,-0.0054209,-0.1675
1556,-0.04862,-0.10481,0.041027,-0.043099,0.022188,-0.054792,-0.18082
1557,-0.033354,-0.085648,-0.0096434,0.015692,-0.017764,-0.10416,-0.18374
1558,-0.017764,-0.063561,-0.068434,0.066037,-0.06681,-0.15223,-0.17237
1559,-0.007045,-0.050244,-0.13729,0.10047,-0.10579,-0.18764,-0.14964
1560,-0.0041217,-0.051219,-0.20972,0.11963,-0.13112,-0.20031,-0.12592
1561,-0.0083442,-0.062587,-0.27566,0.12548,-0.14574,-0.18536,-0.11131
1562,-0.017439,-0.073631,-0.32536,0.11963,-0.15516,-0.13567,-0.10968
1563,-0.027508,-0.075904,-0.35037,0.10404,-0.16165,-0.054142,-0.11878
1564,-0.037577,-0.064536,-0.34842,0.081627,-0.16782,0.046548,-0.13307
1565,-0.04115,-0.043423,-0.33153,0.06084,-0.17984,0.14432,-0.14054
1566,-0.037577,-0.016789,-0.31431,0.046223,-0.20225,0.21512,-0.13827
1567,-0.027508,0.0052977,-0.30489,0.031282,-0.22954,0.24241,-0.12657
1568,-0.019712,0.015367,-0.30554,0.0091954,-0.25487,0.22584,-0.11715
1569,-0.01614,0.015692,-0.31464,-0.025234,-0.27469,0.17777,-0.11748
1570,-0.014516,0.009845,-0.32828,-0.068109,-0.2854,0.11736,-0.12592
1571,-0.018088,0.00042559,-0.34387,-0.10774,-0.28638,0.073182,-0.13502
1572,-0.02361,-0.0083442,-0.35946,-0.13177,-0.27534,0.06896,-0.14184
1573,-0.028482,-0.01549,-0.37083,-0.13437,-0.25,0.11801,-0.14671
1574,-0.029457,-0.019712,-0.3757,-0.11651,-0.21265,0.2187,-0.14704
1575,-0.028157,-0.021986,-0.3744,-0.080127,-0.17692,0.35512,-0.13924
1576,-0.026858,-0.025884,-0.36693,-0.036278,-0.14996,0.50713,-0.12138
1577,-0.027183,-0.035953,-0.35914,-0.0024977,-0.1243,0.65556,-0.094418
1578,-0.027833,-0.054142,-0.36173,0.010495,-0.088896,0.77607,-0.060313
1579,-0.031406,-0.079152,-0.37927,0.003024,-0.043099,0.84103,-0.025234
1580,-0.037252,-0.11456,-0.40818,-0.022311,-0.0024977,0.82609,0.0014
1581,-0.043423,-0.15321,-0.43839,-0.051544,0.01764,0.7267,0.018615
1582,-0.047646,-0.18764,-0.46178,-0.073306,0.010495,0.56202,0.02641
1583,-0.050569,-0.21232,-0.46632,-0.075579,-0.010618,0.36778,0.030633
1584,-0.051868,-0.2172,-0.43709,-0.04862,-0.027508,0.18524,0.036479
1585,-0.046022,-0.19998,-0.36044,0.023812,-0.027508,0.036804,0.050121
1586,-0.026209,-0.16393,-0.23019,0.14269,-0.0093186,-0.076879,0.067336
1587,0.0014,-0.11943,-0.053168,0.28073,0.019589,-0.17107,0.075456
1588,0.029333,-0.075579,0.14529,0.38565,0.045574,-0.26819,0.067011
1589,0.05207,-0.039526,0.32491,0.41456,0.053694,-0.38317,0.045574
1590,0.067011,-0.020687,0.44898,0.36194,0.03453,-0.51699,0.023487
1591,0.068635,-0.021661,0.48894,0.25897,-0.0060706,-0.65309,0.010819
1592,0.057917,-0.041799,0.43989,0.15568,-0.053817,-0.75995,0.011794
1593,0.041027,-0.068109,0.32328,0.09462,-0.093119,-0.81387,0.028034
1594,0.023812,-0.086298,0.18329,0.087474,-0.11618,-0.80672,0.058891
1595,0.011794,-0.086623,0.067011,0.11995,-0.1308,-0.74761,0.099492
1596,0.013093,-0.068758,0.0049729,0.15926,-0.15093,-0.66283,0.13522
1597,0.028359,-0.04115,-0.0015233,0.1729,-0.18147,-0.57838,0.14984
1598,0.054993,-0.01549,0.032582,0.14691,-0.21979,-0.51439,0.13944
1599,0.079354,0.0020496,0.0852,0.092996,-0.26104,-0.48451,0.11281
1600,0.09462,0.012768,0.12905,0.035505,-0.29417,-0.49296,0.083251
1601,0.09462,0.020239,0.14269,-0.0096434,-0.31464,-0.53778,0.059216
1602,0.080003,0.030308,0.11995,-0.034004,-0.31724,-0.61184,0.044275
1603,0.055968,0.045899,0.073507,-0.034329,-0.29612,-0.70343,0.037778
1604,0.029983,0.067011,0.029333,-0.015165,-0.24968,-0.79048,0.036479
1605,0.0085458,0.083251,0.0069217,0.0078962,-0.19024,-0.84895,0.033881
1606,-0.008669,0.084551,0.0088706,0.014717,-0.1321,-0.86291,0.023812
1607,-0.025559,0.063438,0.023162,0.00075039,-0.079802,-0.82621,0.01017
1608,-0.040825,0.02706,0.037778,-0.021986,-0.029132,-0.74176,-0.0015233
1609,-0.04992,-0.0083442,0.044275,-0.028157,0.033231,-0.62515,-0.0093186
1610,-0.053492,-0.027508,0.044275,-0.0015233,0.11086,-0.49491,-0.011267
1611,-0.054142,-0.026209,0.040377,0.058241,0.19174,-0.35849,-0.011917
1612,-0.052518,-0.0083442,0.037129,0.13067,0.26125,-0.2081,-0.0093186
1613,-0.046671,0.016666,0.037454,0.18232,0.31127,-0.01614,0.0072465
1614,-0.036602,0.043625,0.040052,0.19141,0.34212,0.24371,0.042651
1615,-0.021337,0.070259,0.04395,0.15276,0.35317,0.55325,0.091372
1616,-0.0034721,0.095269,0.04395,0.080978,0.34082,0.82609,0.13717
1617,0.014068,0.11833,0.03583,0.00010078,0.30867,0.97875,0.16608
1618,0.024461,0.13749,0.020564,-0.063561,0.26904,0.98524,0.17322
1619,0.024786,0.15244,0.0020496,-0.098641,0.24241,0.87546,0.15926
1620,0.013418,0.16185,-0.017764,-0.10514,0.24825,0.68609,0.1362
1621,-0.0057458,0.1638,-0.034654,-0.093769,0.2947,0.44476,0.11086
1622,-0.026209,0.15763,-0.047321,-0.081426,0.37363,0.17582,0.087799
1623,-0.043748,0.14399,-0.05804,-0.075904,0.46133,-0.087597,0.069285
1624,-0.057065,0.12255,-0.070382,-0.078503,0.53279,-0.30489,0.055968
1625,-0.064211,0.10177,-0.080451,-0.078827,0.57176,-0.43871,0.053369
1626,-0.059664,0.084226,-0.085973,-0.06681,0.56851,-0.46275,0.063113
1627,-0.047321,0.073832,-0.0824,-0.04115,0.52889,-0.36044,0.083251
1628,-0.031406,0.068635,-0.070058,-0.008669,0.46685,-0.13437,0.10729
1629,-0.01549,0.066037,-0.047321,0.022512,0.39961,0.18004,0.1232
1630,0.00010078,0.063113,-0.019712,0.050446,0.34017,0.51947,0.12775
1631,0.015042,0.061489,0.0065969,0.07708,0.28983,0.81602,0.12125
1632,0.030633,0.063113,0.026735,0.10242,0.24306,1.0197,0.10112
1633,0.040702,0.068635,0.037454,0.1232,0.19206,1.1005,0.066362
1634,0.0433,0.079029,0.040702,0.1336,0.1349,1.0616,0.024137
1635,0.038753,0.092021,0.042651,0.1336,0.074806,0.93457,-0.013541
1636,0.033231,0.10371,0.049147,0.12775,0.021863,0.77931,-0.034654
1637,0.032582,0.11216,0.062464,0.12255,-0.020037,0.65654,-0.035628
1638,0.039402,0.11508,0.083251,0.11801,-0.05804,0.5945,-0.028482
1639,0.051745,0.11216,0.10404,0.10924,-0.10026,0.58508,-0.021337
1640,0.06084,0.10761,0.11671,0.090397,-0.14444,0.59742,-0.019388
1641,0.058566,0.10501,0.11313,0.062464,-0.17952,0.59905,-0.027508
1642,0.04395,0.10047,0.090722,0.026735,-0.19186,0.57956,-0.043748
1643,0.021538,0.089748,0.056617,-0.0089938,-0.17497,0.56039,-0.063561
1644,-0.0015233,0.070909,0.021863,-0.028807,-0.13957,0.59093,-0.081101
1645,-0.018738,0.046223,-0.0067202,-0.017439,-0.09994,0.69811,-0.095068
1646,-0.028482,0.026735,-0.026858,0.021863,-0.067459,0.86344,-0.10059
1647,-0.029132,0.019589,-0.044723,0.071558,-0.048945,1.0414,-0.094093
1648,-0.027183,0.020888,-0.065835,0.10566,-0.0405,1.1808,-0.079152
1649,-0.028482,0.023162,-0.088247,0.10599,-0.031081,1.2402,-0.06551
1650,-0.029132,0.021213,-0.10871,0.069934,-0.019388,1.1957,-0.05739
1651,-0.026209,0.01764,-0.12365,0.0075714,-0.0060706,1.0466,-0.055116
1652,-0.021661,0.014392,-0.13469,-0.062587,0.00042559,0.81991,-0.059014
1653,-0.016789,0.013418,-0.13989,-0.12268,-0.007045,0.56364,-0.069733
1654,-0.010943,0.013418,-0.13307,-0.161,-0.038876,0.31062,-0.082076
1655,-0.0034721,0.011144,-0.11748,-0.17724,-0.095068,0.072208,-0.094418
1656,0.0036737,0.0049729,-0.099615,-0.17822,-0.15938,-0.15288,-0.10286
1657,0.0056225,-0.0044465,-0.081751,-0.17205,-0.20778,-0.36271,-0.10514
1658,0.00042559,-0.01549,-0.06616,-0.16328,-0.22012,-0.5472,-0.10416
1659,-0.007045,-0.028157,-0.059664,-0.15776,-0.19543,-0.70051,-0.10514
1660,-0.013216,-0.0405,-0.061288,-0.15516,-0.15386,-0.83108,-0.11456
1661,-0.021661,-0.050569,-0.06551,-0.15451,-0.1217,-0.94769,-0.12982
1662,-0.035628,-0.061613,-0.065835,-0.15321,-0.11618,-1.0503,-0.14574
1663,-0.051544,-0.076229,-0.060638,-0.15126,-0.13989,-1.1299,-0.15418
1664,-0.062262,-0.093119,-0.055441,-0.14931,-0.17984,-1.1783,-0.14866
1665,-0.06616,-0.10903,-0.055766,-0.14606,-0.21622,-1.1913,-0.12722
1666,-0.068758,-0.1204,-0.059989,-0.13827,-0.23571,-1.1728,-0.096042
1667,-0.071032,-0.1256,-0.06551,-0.12398,-0.23928,-1.1328,-0.060638
1668,-0.072656,-0.12982,-0.069408,-0.10579,-0.23928,-1.0877,-0.026858
1669,-0.070382,-0.13437,-0.067784,-0.092145,-0.2539,-1.0545,0.0020496
1670,-0.060963,-0.14087,-0.061613,-0.088247,-0.29612,-1.0438,0.021213
1671,-0.046347,-0.14704,-0.049595,-0.088896,-0.35264,-1.062,0.024137
1672,-0.030756,-0.14671,-0.034004,-0.089546,-0.40299,-1.1052,0.014717
1673,-0.019388,-0.13632,-0.018413,-0.0837,-0.4267,-1.1569,-0.0031473
1674,-0.013866,-0.11813,-0.0067202,-0.070058,-0.41923,-1.1916,-0.018738
1675,-0.017114,-0.09929,0.0023744,-0.04927,-0.3848,-1.1981,-0.031406
1676,-0.026858,-0.080127,0.0095202,-0.021661,-0.33672,-1.1793,-0.042774
1677,-0.040175,-0.05804,0.017965,0.0091954,-0.28963,-1.1572,-0.058365
1678,-0.047321,-0.03303,0.030957,0.036479,-0.25422,-1.1494,-0.078178
1679,-0.043099,-0.0099683,0.062139,0.057917,-0.23636,-1.1614,-0.098965
1680,-0.02426,0.0065969,0.12905,0.070584,-0.24448,-1.1802,-0.11715
1681,-0.0024977,0.018615,0.24046,0.075781,-0.28021,-1.1864,-0.12787
1682,0.016016,0.030957,0.38532,0.075131,-0.33802,-1.1673,-0.12755
1683,0.023812,0.044599,0.53343,0.070584,-0.40526,-1.1198,-0.11715
1684,0.023162,0.060515,0.65069,0.057592,-0.46697,-1.0438,-0.096692
1685,0.019589,0.075131,0.71728,0.037454,-0.51764,-0.93729,-0.066485
1686,0.016666,0.087474,0.73579,0.014392,-0.54752,-0.79828,-0.027833
1687,0.023487,0.099167,0.71955,-0.0060706,-0.54915,-0.62158,0.017316
1688,0.04395,0.11378,0.6809,-0.016789,-0.5105,-0.40786,0.068635
1689,0.071558,0.12807,0.62373,-0.015815,-0.42345,-0.16945,0.11866
1690,0.090722,0.13944,0.54513,0.0014,-0.29353,0.066362,0.15568
1691,0.094945,0.14399,0.45093,0.030633,-0.14379,0.27489,0.169
1692,0.080978,0.13977,0.35284,0.061165,0.0010752,0.43697,0.15503
1693,0.054993,0.12613,0.26287,0.081627,0.12613,0.54383,0.1219
1694,0.025111,0.10436,0.18622,0.086824,0.22747,0.60197,0.084226
1695,0.0026992,0.082277,0.12807,0.081627,0.31029,0.62503,0.056292
1696,-0.007045,0.064088,0.087474,0.077405,0.38695,0.62828,0.039078
1697,-0.0050961,0.047523,0.059216,0.078055,0.46945,0.6286,0.028684
1698,0.00042559,0.029658,0.037454,0.083901,0.55974,0.6364,0.016991
1699,0.0052977,0.011794,0.019264,0.097218,0.65134,0.65556,-0.0018481
1700,0.0046481,-0.00022403,0.0033489,0.11671,0.73644,0.67635,-0.021986
1701,0.0020496,-0.0031473,-0.013216,0.1323,0.80887,0.68609,-0.035953
1702,-0.00054884,0.0020496,-0.027183,0.1362,0.86214,0.66985,-0.036927
1703,0.003024,0.013093,-0.039526,0.13132,0.8917,0.61529,-0.024909
1704,0.015692,0.029009,-0.047646,0.12353,0.89365,0.5146,-0.0050961
1705,0.038753,0.046548,-0.053492,0.11801,0.85954,0.37623,0.013093
1706,0.063438,0.057917,-0.062587,0.11736,0.79068,0.22941,0.024461
1707,0.07708,0.062789,-0.076554,0.11866,0.69941,0.11671,0.028034
1708,0.074157,0.06019,-0.089221,0.11768,0.60164,0.070909,0.025111
1709,0.060515,0.05272,-0.09929,0.10859,0.50972,0.091372,0.015692
1710,0.048822,0.044275,-0.10774,0.089748,0.42365,0.15081,0.0026992
1711,0.044275,0.036479,-0.1178,0.061165,0.34082,0.20733,-0.013541
1712,0.050121,0.031607,-0.1321,0.029983,0.2606,0.23234,-0.030756
1713,0.058891,0.029333,-0.14801,0.0017248,0.18816,0.22324,-0.039526
1714,0.063763,0.031282,-0.16165,-0.018413,0.1362,0.19628,-0.034004
1715,0.064088,0.039402,-0.16945,-0.030431,0.11508,0.17615,-0.019712
1716,0.057592,0.049796,-0.16912,-0.036278,0.11768,0.18622,-0.0076946
1717,0.047523,0.056292,-0.16165,-0.038227,0.12093,0.22779,-0.0015233
1718,0.036804,0.054993,-0.15126,-0.038227,0.10664,0.27716,-0.0063954
1719,0.029983,0.044275,-0.14411,-0.042449,0.06961,0.30477,-0.016789
1720,0.028359,0.026735,-0.14964,-0.055766,0.009845,0.29633,-0.021337
1721,0.029009,0.010819,-0.17075,-0.084024,-0.061613,0.25832,-0.0099683
1722,0.027385,-0.0067202,-0.2016,-0.12268,-0.13047,0.21317,0.015042
1723,0.021213,-0.026533,-0.23571,-0.16718,-0.18569,0.18849,0.042326
1724,0.008221,-0.045372,-0.26689,-0.20648,-0.21947,0.19336,0.059865
1725,-0.010943,-0.060313,-0.28995,-0.22921,-0.23019,0.2187,0.067011
1726,-0.030106,-0.06681,-0.29417,-0.22499,-0.22499,0.24371,0.067011
1727,-0.044073,-0.068434,-0.27469,-0.19543,-0.21265,0.25313,0.062789
1728,-0.050569,-0.068434,-0.23116,-0.15581,-0.20518,0.23883,0.056617
1729,-0.04992,-0.070058,-0.1727,-0.1204,-0.20843,0.19953,0.053369
1730,-0.047321,-0.072006,-0.11066,-0.093444,-0.21849,0.14496,0.057592
1731,-0.043748,-0.068109,-0.051219,-0.06551,-0.22142,0.083251,0.076755
1732,-0.041475,-0.056091,0.0020496,-0.028482,-0.20063,0.026735,0.10956
1733,-0.036927,-0.033679,0.047198,0.015042,-0.14671,-0.0054209,0.14919
1734,-0.029782,-0.0054209,0.078379,0.062139,-0.065186,-0.011592,0.19011
1735,-0.016464,0.01829,0.090722,0.10631,0.02641,-0.0021729,0.22422
1736,-0.0011985,0.032582,0.08585,0.14269,0.10826,0.014068,0.24728
1737,0.011469,0.038428,0.068635,0.16413,0.16348,0.040702,0.258
1738,0.023162,0.039402,0.046873,0.16998,0.18816,0.099492,0.26222
1739,0.040052,0.039078,0.031932,0.16738,0.19076,0.22194,0.26644
1740,0.065387,0.042651,0.023487,0.17485,0.18037,0.40481,0.27554
1741,0.090722,0.048497,0.023487,0.2122,0.15049,0.60554,0.28528
1742,0.10761,0.05272,0.031282,0.28853,0.084226,0.75853,0.28983
1743,0.11378,0.05142,0.042975,0.39117,-0.026858,0.81862,0.28853
1744,0.11021,0.044275,0.048822,0.48731,-0.16198,0.77704,0.28333
1745,0.10209,0.033556,0.044275,0.54285,-0.27793,0.66043,0.27002
1746,0.096569,0.017965,0.023487,0.53863,-0.339,0.50095,0.24923
1747,0.092996,-0.0031473,-0.013541,0.47562,-0.34614,0.32263,0.22259
1748,0.087149,-0.027183,-0.065186,0.36811,-0.32178,0.13652,0.19109
1749,0.079679,-0.045047,-0.12527,0.24176,-0.29417,-0.043423,0.15536
1750,0.069285,-0.057715,-0.17789,0.1206,-0.27469,-0.2016,0.11703
1751,0.056292,-0.069083,-0.2133,0.024786,-0.26202,-0.32795,0.080978
1752,0.044599,-0.0824,-0.23214,-0.043423,-0.2552,-0.42475,0.049147
1753,0.038103,-0.096367,-0.23831,-0.088247,-0.24773,-0.49523,0.018615
1754,0.036154,-0.10644,-0.23636,-0.11423,-0.23246,-0.54525,-0.010618
1755,0.040052,-0.10774,-0.22986,-0.12592,-0.20225,-0.57968,-0.036602
1756,0.050121,-0.097991,-0.2133,-0.12398,-0.15873,-0.60729,-0.056091
1757,0.063763,-0.080451,-0.18471,-0.11163,-0.11228,-0.62873,-0.06551
1758,0.07773,-0.061613,-0.14801,-0.093119,-0.079152,-0.64237,-0.065186
1759,0.083251,-0.049595,-0.11651,-0.075579,-0.069083,-0.64009,-0.055766
1760,0.080003,-0.045047,-0.10611,-0.062912,-0.081101,-0.60761,-0.046347
1761,0.069285,-0.042774,-0.123,-0.059664,-0.10124,-0.52057,-0.043423
1762,0.058891,-0.0405,-0.161,-0.062912,-0.11293,-0.36303,-0.04927
1763,0.054993,-0.038876,-0.2029,-0.070382,-0.10741,-0.14606,-0.055766
1764,0.06019,-0.039851,-0.23668,-0.080127,-0.084674,0.094295,-0.05804
1765,0.065062,-0.046022,-0.25487,-0.085973,-0.052193,0.31776,-0.05739
1766,0.061814,-0.053168,-0.2565,-0.087597,-0.017114,0.49608,-0.05804
1767,0.051745,-0.058365,-0.24513,-0.082076,0.009845,0.61756,-0.06551
1768,0.039402,-0.059014,-0.22109,-0.071682,0.023487,0.6822,-0.078503
1769,0.031932,-0.053168,-0.18601,-0.061613,0.01764,0.70331,-0.095068
1770,0.032906,-0.039851,-0.14087,-0.058689,-0.0054209,0.69421,-0.11131
1771,0.042326,-0.016789,-0.089871,-0.066485,-0.040825,0.65491,-0.123
1772,0.054344,0.0095202,-0.040175,-0.076554,-0.076229,0.57696,-0.12917
1773,0.062139,0.029009,-0.0011985,-0.080776,-0.096367,0.44996,-0.12852
1774,0.061165,0.036479,0.017316,-0.075255,-0.089221,0.28301,-0.12333
1775,0.054668,0.037454,0.015692,-0.059014,-0.056091,0.10599,-0.11586
1776,0.046873,0.037454,0.0091954,-0.03238,-0.015165,-0.039201,-0.10676
1777,0.036154,0.040377,0.012443,0.00042559,0.017965,-0.12235,-0.10254
1778,0.019914,0.045899,0.037778,0.033881,0.040377,-0.1308,-0.10546
1779,-0.00087364,0.05272,0.092346,0.061814,0.051745,-0.079477,-0.10838
1780,-0.020687,0.06019,0.18004,0.083901,0.054993,-0.00087364,-0.10774
1781,-0.040175,0.067986,0.29892,0.10761,0.058891,0.067986,-0.10091
