,channel_1,channel_2,channel_3,channel_4,channel_5,channel_6,channel_7
0,-0.054467,0.013418,0.081952,-0.046996,-0.046022,-0.19933,0.051745
1,-0.045047,-0.0034721,0.080003,-0.041799,-0.051868,-0.19186,0.05207
2,-0.037577,-0.023285,0.074806,-0.039201,-0.04992,-0.18764,0.044599
3,-0.034654,-0.040825,0.071234,-0.039526,-0.037252,-0.18017,0.027385
4,-0.030756,-0.052193,0.06831,-0.038876,-0.020362,-0.16653,0.0069217
5,-0.029132,-0.057065,0.063113,-0.034978,-0.0057458,-0.14704,-0.010943
6,-0.027183,-0.054467,0.052395,-0.034004,-0.0037969,-0.12527,-0.021012
7,-0.034978,-0.060313,0.040702,-0.091495,-0.046996,-0.11326,-0.025559
8,-0.063237,-0.086623,0.037454,-0.24675,-0.15256,-0.11813,-0.027508
9,-0.096692,-0.12008,0.044275,-0.41176,-0.2591,-0.13567,-0.025559
10,-0.10416,-0.1308,0.054993,-0.44651,-0.28053,-0.14964,-0.018413
11,-0.079152,-0.10936,0.062139,-0.32081,-0.20388,-0.15386,-0.008669
12,-0.032055,-0.069408,0.063763,-0.11033,-0.077528,-0.14801,-0.00087364
13,0.013093,-0.026858,0.058891,0.084226,0.036804,-0.13534,0.00042559
14,0.041676,0.0056225,0.048822,0.20051,0.10436,-0.11878,-0.0060706
15,0.049147,0.026735,0.036479,0.22941,0.1245,-0.093769,-0.015165
16,0.044275,0.037778,0.024461,0.19953,0.11898,-0.050569,-0.021337
17,0.037778,0.042651,0.018615,0.14626,0.11281,0.022837,-0.018088
18,0.035505,0.045899,0.021863,0.099492,0.1206,0.1362,-0.0021729
19,0.040052,0.050446,0.033556,0.071558,0.14919,0.28756,0.020564
20,0.050121,0.055643,0.047523,0.063438,0.18946,0.45516,0.044924
21,0.061489,0.060515,0.056942,0.066037,0.22422,0.60002,0.06084
22,0.071883,0.064413,0.058566,0.06896,0.24176,0.66855,0.067011
23,0.080003,0.069934,0.053044,0.066037,0.23981,0.61951,0.061814
24,0.089098,0.078379,0.045249,0.056292,0.22227,0.45905,0.046223
25,0.091047,0.083901,0.042651,0.016016,0.17712,0.23071,0.023487
26,0.070909,0.069285,0.048497,-0.11033,0.071558,-0.0089938,0.00042559
27,0.031932,0.032257,0.058241,-0.29515,-0.07493,-0.21005,-0.016464
28,0.0014,0.00075039,0.063113,-0.40883,-0.18082,-0.34062,-0.026209
29,0.0036737,-0.0031473,0.056617,-0.36628,-0.18991,-0.39487,-0.031406
30,0.036154,0.017316,0.043625,-0.19576,-0.12008,-0.39162,-0.034004
31,0.079354,0.045249,0.031607,0.013418,-0.026533,-0.35719,-0.03238
32,0.11281,0.068635,0.028034,0.17647,0.038428,-0.31918,-0.029782
33,0.12288,0.080653,0.032582,0.25475,0.055318,-0.28865,-0.033679
34,0.10956,0.076755,0.038753,0.25637,0.033881,-0.26981,-0.04862
35,0.084876,0.065712,0.042001,0.21545,-0.0076946,-0.26657,-0.068434
36,0.064088,0.050446,0.040702,0.16965,-0.04992,-0.27793,-0.088247
37,0.054668,0.039078,0.03518,0.14107,-0.080776,-0.29417,-0.097991
38,0.059541,0.033556,0.026085,0.13165,-0.096042,-0.30554,-0.093444
39,0.066362,0.035505,0.015692,0.13717,-0.097666,-0.30002,-0.077203
40,0.065387,0.041676,0.003024,0.15016,-0.092469,-0.27274,-0.057065
41,0.056617,0.048497,-0.012242,0.16088,-0.084349,-0.22369,-0.035953
42,0.045249,0.05142,-0.025884,0.16738,-0.07428,-0.15516,-0.022636
43,0.034855,0.047198,-0.031406,0.16056,-0.064536,-0.072331,-0.022311
44,0.013418,0.021538,-0.029457,0.08585,-0.089221,0.019264,-0.029132
45,-0.022961,-0.02361,-0.023935,-0.0837,-0.16815,0.10501,-0.036278
46,-0.057715,-0.063561,-0.023285,-0.25065,-0.24805,0.17257,-0.039526
47,-0.063886,-0.068758,-0.028157,-0.28865,-0.2578,0.20863,-0.037252
48,-0.040175,-0.037252,-0.034654,-0.17952,-0.18536,0.2148,-0.03173
49,-0.0031473,0.008221,-0.036602,0.0039985,-0.072331,0.20635,-0.021661
50,0.026735,0.048497,-0.034004,0.17062,0.029983,0.19921,-0.0083442
51,0.038428,0.067986,-0.027833,0.26482,0.094295,0.19953,0.0039985
52,0.035505,0.067986,-0.019712,0.27944,0.11768,0.20376,0.012119
53,0.023487,0.055968,-0.010293,0.23721,0.11054,0.20993,0.015692
54,0.011144,0.039078,0.0010752,0.17582,0.088124,0.21772,0.01764
55,0.0049729,0.022188,0.0085458,0.12418,0.067011,0.22519,0.020239
56,0.0072465,0.0091954,0.0088706,0.09397,0.055643,0.22909,0.024137
57,0.013743,0.0026992,0.0043233,0.081952,0.05207,0.22747,0.028034
58,0.016991,0.00042559,0.0014,0.081627,0.049796,0.22324,0.032906
59,0.016016,-0.00054884,0.0052977,0.08585,0.045249,0.21967,0.046223
60,0.0088706,-0.0050961,0.015367,0.087149,0.044924,0.22422,0.073182
61,0.003024,-0.0096434,0.028034,0.082277,0.053044,0.24501,0.10956
62,-0.0037969,-0.015165,0.038753,0.038428,0.041351,0.28268,0.15146
63,-0.026858,-0.036927,0.044924,-0.10481,-0.033354,0.334,0.19011
64,-0.064861,-0.073955,0.042001,-0.31042,-0.15256,0.39474,0.22259
65,-0.087272,-0.10091,0.027385,-0.43157,-0.22239,0.45126,0.24371
66,-0.078503,-0.096367,0.0046481,-0.38285,-0.19608,0.48017,0.24695
67,-0.046022,-0.064536,-0.022961,-0.20453,-0.098965,0.4584,0.22812
68,-0.011917,-0.022961,-0.045372,0.0010752,0.0065969,0.38695,0.18979
69,0.0062721,0.012768,-0.056741,0.15016,0.071883,0.28496,0.13879
70,0.0023744,0.037454,-0.05804,0.20993,0.083576,0.18004,0.090397
71,-0.012242,0.050771,-0.057065,0.19791,0.054344,0.091696,0.053694
72,-0.028807,0.057267,-0.05804,0.14854,0.013418,0.024137,0.031282
73,-0.038227,0.058241,-0.060638,0.10014,-0.015815,-0.026209,0.019914
74,-0.04115,0.056292,-0.063561,0.069934,-0.025884,-0.071682,0.013418
75,-0.043423,0.053369,-0.062587,0.058566,-0.021986,-0.13469,0.0052977
76,-0.049595,0.047523,-0.059339,0.057267,-0.016789,-0.22597,-0.0099683
77,-0.058689,0.038428,-0.05739,0.057917,-0.01614,-0.33737,-0.027183
78,-0.066485,0.026085,-0.057715,0.056617,-0.02426,-0.45203,-0.039526
79,-0.06681,0.013743,-0.059989,0.05207,-0.033679,-0.54817,-0.036927
80,-0.060638,0.0017248,-0.061288,0.043625,-0.036278,-0.61671,-0.022311
81,-0.050894,-0.0057458,-0.062587,0.032582,-0.034004,-0.65406,-0.0031473
82,-0.040825,-0.007045,-0.064861,0.022512,-0.029782,-0.67517,0.012443
83,-0.035953,-0.0018481,-0.06681,0.013418,-0.028157,-0.69174,0.020564
84,-0.035628,0.0065969,-0.066485,0.0075714,-0.029782,-0.71123,0.025761
85,-0.035628,0.014717,-0.062262,0.0078962,-0.037252,-0.72812,0.028034
86,-0.036278,0.02706,-0.056091,0.0091954,-0.048945,-0.74014,0.027709
87,-0.03173,0.041027,-0.052843,0.003024,-0.059664,-0.74111,0.02706
88,-0.020687,0.051745,-0.056091,-0.0093186,-0.059014,-0.72422,0.022837
89,-0.0073698,0.059216,-0.063561,-0.02426,-0.04992,-0.68687,0.017316
90,0.00075039,0.066362,-0.072981,-0.037252,-0.034654,-0.6271,0.015042
91,0.0033489,0.06961,-0.077203,-0.047971,-0.020362,-0.54395,0.018615
92,0.00042559,0.066037,-0.07428,-0.051544,-0.0089938,-0.44229,0.032582
93,-0.0050961,0.05272,-0.071032,-0.047646,-0.0037969,-0.32601,0.046548
94,-0.011917,0.029333,-0.067459,-0.039851,-0.0067202,-0.2029,0.053369
95,-0.017114,0.0059473,-0.061288,-0.030106,-0.0099683,-0.076554,0.047847
96,-0.018738,-0.011917,-0.04992,-0.022636,-0.0089938,0.054019,0.030957
97,-0.01549,-0.019712,-0.034654,-0.018088,-0.0024977,0.18751,0.008221
98,-0.007045,-0.021012,-0.019712,-0.020687,0.0069217,0.31711,-0.01549
99,-0.0060706,-0.02426,-0.008669,-0.064861,-0.0057458,0.43209,-0.031081
100,-0.030106,-0.045047,-0.00022403,-0.20193,-0.075579,0.52499,-0.034978
101,-0.069083,-0.076554,0.0046481,-0.38317,-0.1727,0.60522,-0.024585
102,-0.089546,-0.09117,0.0056225,-0.46632,-0.21232,0.6796,-0.0067202
103,-0.073306,-0.072006,0.0020496,-0.3861,-0.15483,0.753,0.012119
104,-0.029457,-0.029782,-0.0067202,-0.19673,-0.029132,0.81634,0.029983
105,0.020564,0.01829,-0.018088,0.0039985,0.10242,0.86539,0.045249
106,0.057267,0.059216,-0.026858,0.14529,0.19271,0.90631,0.056617
107,0.072858,0.083251,-0.029132,0.20635,0.22454,0.94204,0.066362
108,0.06896,0.090722,-0.023935,0.20668,0.20928,0.96575,0.074157
109,0.055318,0.087799,-0.010943,0.17972,0.17387,0.95796,0.074482
110,0.042651,0.08585,0.0043233,0.15276,0.14399,0.90307,0.067336
111,0.036804,0.089423,0.016991,0.14172,0.12288,0.79361,0.055643
112,0.038428,0.10079,0.022512,0.14561,0.11021,0.63965,0.043625
113,0.041676,0.11833,0.01764,0.15763,0.10306,0.46815,0.037778
114,0.042326,0.13912,0.0049729,0.16868,0.10177,0.30932,0.041676
115,0.045249,0.15146,-0.0099683,0.17192,0.10566,0.18849,0.055318
116,0.05142,0.14886,-0.026209,0.1677,0.11443,0.12515,0.070584
117,0.059541,0.1271,-0.039201,0.14529,0.11476,0.11995,0.076106
118,0.052395,0.080978,-0.046671,0.049796,0.063438,0.15146,0.071234
119,0.015692,0.015692,-0.04862,-0.13047,-0.053492,0.19044,0.059865
120,-0.028482,-0.037902,-0.047646,-0.27923,-0.16782,0.2174,0.046223
121,-0.046347,-0.050894,-0.042774,-0.28605,-0.2029,0.21447,0.033881
122,-0.029132,-0.027833,-0.037902,-0.15321,-0.14996,0.17615,0.023162
123,0.0095202,0.008221,-0.04115,0.037129,-0.052518,0.10956,0.011794
124,0.048172,0.036154,-0.052843,0.19434,0.037454,0.032582,0.0023744
125,0.072858,0.047847,-0.06616,0.27229,0.088773,-0.024909,-0.0047713
126,0.080653,0.044599,-0.075904,0.27749,0.099817,-0.039526,-0.012242
127,0.074806,0.037778,-0.080127,0.24078,0.082602,-0.0096434,-0.021012
128,0.061814,0.039078,-0.080776,0.19596,0.051745,0.038753,-0.029132
129,0.047198,0.045899,-0.079152,0.16185,0.025436,0.067986,-0.031406
130,0.036479,0.049796,-0.07428,0.14367,0.013418,0.050121,-0.029457
131,0.033556,0.048497,-0.065186,0.13879,0.016341,-0.018413,-0.028482
132,0.038103,0.042326,-0.054142,0.13652,0.023812,-0.1191,-0.034004
133,0.046548,0.030633,-0.047971,0.12937,0.025761,-0.22597,-0.043099
134,0.049796,0.016016,-0.047321,0.11573,0.020564,-0.31269,-0.054142
135,0.040702,0.0020496,-0.050569,0.092346,0.014068,-0.36661,-0.066485
136,0.015042,-0.017439,-0.051219,0.021213,-0.015165,-0.39487,-0.078178
137,-0.030106,-0.054142,-0.04862,-0.14704,-0.097991,-0.41111,-0.088572
138,-0.078503,-0.097017,-0.040825,-0.34809,-0.20583,-0.4241,-0.095393
139,-0.096042,-0.11878,-0.026533,-0.43287,-0.25325,-0.43384,-0.093119
140,-0.069733,-0.10903,-0.0073698,-0.33997,-0.2055,-0.44424,-0.081101
141,-0.012892,-0.077853,0.012119,-0.13242,-0.094418,-0.45755,-0.06681
142,0.048172,-0.039851,0.029983,0.0852,0.020888,-0.47347,-0.052518
143,0.092021,-0.01484,0.043625,0.23201,0.093321,-0.48484,-0.039526
144,0.11086,-0.0099683,0.053694,0.28236,0.10534,-0.48549,-0.026533
145,0.11054,-0.022636,0.058891,0.25572,0.067661,-0.47477,-0.018088
146,0.098842,-0.043748,0.062464,0.19336,0.012768,-0.45398,-0.013216
147,0.0852,-0.059339,0.06831,0.13262,-0.030431,-0.42637,-0.01549
148,0.072533,-0.064536,0.076106,0.096244,-0.051219,-0.39909,-0.02426
149,0.058566,-0.058365,0.0852,0.085525,-0.052843,-0.37733,-0.033354
150,0.044275,-0.043423,0.092671,0.086824,-0.045372,-0.36401,-0.032705
151,0.030633,-0.024585,0.094945,0.087799,-0.037252,-0.35621,-0.024909
152,0.017316,-0.007045,0.092671,0.074806,-0.033679,-0.35199,-0.018738
153,0.0052977,0.0010752,0.089098,0.047523,-0.035628,-0.34614,-0.023285
154,-0.0096434,-0.0054209,0.084876,0.0033489,-0.055441,-0.33478,-0.037577
155,-0.037252,-0.039526,0.082277,-0.10774,-0.12333,-0.32373,-0.054142
156,-0.079477,-0.094743,0.084876,-0.288,-0.23571,-0.32438,-0.067784
157,-0.10774,-0.13729,0.090072,-0.42215,-0.31821,-0.3312,-0.075904
158,-0.095717,-0.13924,0.095594,-0.40331,-0.31269,-0.33737,-0.077203
159,-0.050244,-0.09994,0.098517,-0.24221,-0.22239,-0.33802,-0.070058
160,0.0033489,-0.043423,0.10274,-0.030106,-0.096692,-0.33185,-0.061288
161,0.045249,0.0088706,0.10826,0.13977,0.01017,-0.32178,-0.051544
162,0.070909,0.040702,0.11443,0.22357,0.071558,-0.30749,-0.044723
163,0.080003,0.050771,0.11541,0.23006,0.083901,-0.29028,-0.039526
164,0.078055,0.04395,0.11054,0.19141,0.06896,-0.27241,-0.036278
165,0.06896,0.029333,0.10371,0.14237,0.045574,-0.2513,-0.03303
166,0.058566,0.016016,0.098517,0.10826,0.028684,-0.22597,-0.024909
167,0.050446,0.010495,0.098517,0.098842,0.020888,-0.19543,-0.011267
168,0.0433,0.010495,0.099167,0.10371,0.021538,-0.16588,-0.00022403
169,0.036154,0.017316,0.097218,0.11021,0.029658,-0.14379,0.0014
170,0.027709,0.026735,0.092671,0.10826,0.04395,-0.12657,-0.0011985
171,0.018615,0.030308,0.086824,0.098517,0.061489,-0.10871,-0.0018481
172,0.013418,0.023162,0.081627,0.081303,0.079354,-0.083375,0.0046481
173,0.015042,0.010495,0.07773,0.059865,0.099167,-0.046996,0.015042
174,0.026085,-0.00022403,0.074806,0.044599,0.11638,-0.0011985,0.022512
175,0.041027,-0.0015233,0.073182,0.039727,0.131,0.050446,0.025436
176,0.050446,0.0052977,0.070584,0.041676,0.14172,0.10242,0.027385
177,0.05272,0.016016,0.069285,0.0433,0.14951,0.15309,0.031607
178,0.052395,0.024461,0.071234,0.041676,0.15406,0.19499,0.039402
179,0.052395,0.030308,0.079354,0.033231,0.15309,0.22747,0.054019
180,0.051745,0.032257,0.088124,0.020888,0.14756,0.2489,0.071883
181,0.043625,0.032257,0.094295,0.0056225,0.14042,0.26027,0.086175
182,0.03453,0.031932,0.095594,-0.0073698,0.13165,0.26255,0.09397
183,0.027385,0.033231,0.092346,-0.019712,0.12288,0.2606,0.098193
184,0.025111,0.039402,0.084551,-0.028157,0.11054,0.2567,0.10079
185,0.025111,0.050121,0.070584,-0.034004,0.092671,0.2554,0.098193
186,0.02641,0.064413,0.048172,-0.039526,0.06961,0.25865,0.089423
187,0.029009,0.076755,0.020239,-0.050894,0.050446,0.26872,0.07708
188,0.033231,0.083576,-0.0047713,-0.067134,0.037454,0.28203,0.065387
189,0.036804,0.083251,-0.020687,-0.084349,0.027709,0.29795,0.053694
190,0.036804,0.076106,-0.026209,-0.095068,0.015042,0.31809,0.045249
191,0.03518,0.06961,-0.021661,-0.096367,0.0056225,0.34147,0.041676
192,0.033881,0.064413,-0.0093186,-0.089221,0.003024,0.36811,0.039402
193,0.033231,0.062789,0.0056225,-0.078827,0.0039985,0.39572,0.032257
194,0.03453,0.064413,0.019264,-0.072331,0.0049729,0.42073,0.016016
195,0.036479,0.065712,0.030957,-0.072331,0.0036737,0.43567,-0.0060706
196,0.03583,0.069934,0.033881,-0.072981,-0.0011985,0.42657,-0.026209
197,0.028359,0.076431,0.027385,-0.071357,-0.011592,0.38695,-0.038227
198,0.015367,0.081303,0.015042,-0.068758,-0.02426,0.32101,-0.040175
199,0.0033489,0.079354,0.003024,-0.064536,-0.034329,0.24111,-0.038876
200,-0.0050961,0.075456,-0.0011985,-0.063237,-0.04115,0.16023,-0.037252
201,-0.0080194,0.075781,0.00075039,-0.067459,-0.044398,0.09397,-0.035303
202,-0.0063954,0.084226,0.0062721,-0.077528,-0.044723,0.055643,-0.03303
203,-0.0041217,0.094945,0.009845,-0.089546,-0.047646,0.040377,-0.025559
204,-0.007045,0.097218,0.01017,-0.098316,-0.053492,0.037778,-0.013216
205,-0.01549,0.084226,0.0075714,-0.10059,-0.062912,0.041027,0.0036737
206,-0.024909,0.058566,0.0052977,-0.096367,-0.07428,0.041027,0.023162
207,-0.029782,0.029333,0.0088706,-0.090845,-0.082725,0.036804,0.041027
208,-0.027183,0.0033489,0.017965,-0.086948,-0.0837,0.032906,0.051096
209,-0.024909,-0.015815,0.028034,-0.084999,-0.08305,0.031607,0.05142
210,-0.026858,-0.025884,0.031607,-0.080127,-0.081751,0.026735,0.038753
211,-0.030756,-0.026533,0.027385,-0.069733,-0.080451,0.012119,0.019914
212,-0.032055,-0.018738,0.017965,-0.055766,-0.075904,-0.010293,0.0052977
213,-0.033354,-0.0044465,0.0056225,-0.043423,-0.067459,-0.035303,0.0069217
214,-0.037252,0.01017,-0.0050961,-0.034978,-0.056416,-0.050894,0.023487
215,-0.046996,0.019589,-0.013866,-0.029132,-0.047971,-0.050569,0.040702
216,-0.057065,0.01894,-0.021337,-0.026209,-0.043423,-0.036278,0.050771
217,-0.063237,0.011469,-0.029782,-0.028157,-0.04115,-0.01484,0.05272
218,-0.064536,0.0026992,-0.038876,-0.034654,-0.034654,0.0059473,0.049472
219,-0.059664,-0.0060706,-0.046996,-0.042124,-0.022311,0.022512,0.040052
220,-0.053817,-0.01484,-0.052843,-0.048296,-0.0037969,0.032257,0.025111
221,-0.04927,-0.024585,-0.055766,-0.052193,0.014068,0.039402,0.0091954
222,-0.047971,-0.033679,-0.056416,-0.051544,0.023812,0.042975,-0.00054884
223,-0.051219,-0.04115,-0.054792,-0.046671,0.019589,0.039078,-0.0015233
224,-0.057065,-0.047321,-0.056091,-0.035303,0.0075714,0.021213,-0.00054884
225,-0.063237,-0.051868,-0.060638,-0.019712,-0.0067202,-0.0076946,-0.0034721
226,-0.065186,-0.052843,-0.06551,-0.0028225,-0.015165,-0.032705,-0.013541
227,-0.057715,-0.053168,-0.069733,0.010819,-0.017114,-0.041475,-0.029132
228,-0.046671,-0.051868,-0.075255,0.01894,-0.01614,-0.034329,-0.047646
229,-0.036602,-0.051868,-0.083375,0.023487,-0.015815,-0.020037,-0.064536
230,-0.03173,-0.04992,-0.088896,0.031282,-0.019712,-0.0080194,-0.077203
231,-0.03238,-0.045697,-0.090196,0.045249,-0.029457,-0.0028225,-0.081101
232,-0.037577,-0.039526,-0.088896,0.062789,-0.043099,-0.0044465,-0.077528
233,-0.041475,-0.034329,-0.086623,0.076755,-0.056416,-0.011592,-0.068434
234,-0.043099,-0.026209,-0.084999,0.084226,-0.068109,-0.02426,-0.053817
235,-0.046347,-0.019063,-0.0824,0.0865,-0.072656,-0.037577,-0.033354
236,-0.050244,-0.013216,-0.075255,0.087474,-0.068758,-0.046022,-0.0076946
237,-0.051868,-0.010293,-0.066485,0.088773,-0.061937,-0.046347,0.01829
238,-0.046022,-0.0099683,-0.056416,0.088773,-0.050244,-0.039526,0.040052
239,-0.029782,-0.012567,-0.047321,0.088773,-0.034329,-0.03238,0.054668
240,-0.0093186,-0.020687,-0.039201,0.087799,-0.018413,-0.026209,0.062464
241,0.011794,-0.031081,-0.037577,0.086175,-0.0050961,-0.022636,0.065387
242,0.029658,-0.043423,-0.042774,0.083901,0.0059473,-0.022311,0.067661
243,0.040702,-0.053817,-0.04992,0.081952,0.010819,-0.029457,0.070909
244,0.040702,-0.056091,-0.055766,0.084226,0.011794,-0.042449,0.071558
245,0.031282,-0.051219,-0.05739,0.088124,0.016341,-0.060313,0.070584
246,0.017316,-0.042449,-0.054142,0.092021,0.021538,-0.082725,0.06896
247,0.0062721,-0.03303,-0.044073,0.095269,0.023812,-0.10351,0.066037
248,0.0017248,-0.02426,-0.029782,0.097868,0.023162,-0.11423,0.064737
249,0.00042559,-0.017439,-0.01484,0.099492,0.01894,-0.11391,0.066686
250,0.00075039,-0.012892,-0.0047713,0.098517,0.013093,-0.10351,0.070909
251,0.0014,-0.0099683,0.0014,0.097218,0.0026992,-0.087272,0.071883
252,0.0020496,-0.010618,0.0017248,0.095594,-0.0099683,-0.066485,0.071234
253,0.0010752,-0.011917,-0.0037969,0.092671,-0.019388,-0.042124,0.066037
254,0.00010078,-0.010618,-0.011917,0.088773,-0.016464,-0.021012,0.058241
255,-0.00054884,-0.0054209,-0.01614,0.080328,0.0010752,-0.008669,0.049147
256,-0.0024977,0.0039985,-0.01549,0.067011,0.030308,-0.008669,0.040377
257,-0.0067202,0.010495,-0.010943,0.05272,0.062464,-0.010618,0.034206
258,-0.0093186,0.011144,-0.0041217,0.042001,0.092021,-0.007045,0.03453
259,-0.0073698,0.0069217,0.0010752,0.037129,0.11086,0.00075039,0.040377
260,0.0023744,0.0039985,0.0056225,0.038753,0.11671,0.010495,0.049472
261,0.015692,0.0056225,0.009845,0.047198,0.11118,0.017965,0.056292
262,0.025111,0.012443,0.011144,0.063113,0.096893,0.025436,0.054019
263,0.022512,0.019264,0.0091954,0.078704,0.082277,0.03583,0.039402
264,0.0075714,0.025111,0.0026992,0.086824,0.070909,0.050121,0.017965
265,-0.012242,0.030957,-0.0050961,0.086824,0.062464,0.067336,-0.0024977
266,-0.028157,0.03583,-0.010943,0.083901,0.051745,0.083901,-0.018088
267,-0.034329,0.040377,-0.011267,0.083901,0.036479,0.095594,-0.025884
268,-0.031406,0.042975,-0.0073698,0.089748,0.019914,0.10274,-0.026858
269,-0.021337,0.046223,-0.00054884,0.098517,0.0072465,0.10599,-0.022311
270,-0.0080194,0.048497,0.0095202,0.10891,-0.0018481,0.10469,-0.01614
271,0.0043233,0.050771,0.023162,0.11541,-0.0057458,0.098193,-0.012242
272,0.012443,0.056292,0.041676,0.11443,-0.0037969,0.088124,-0.0096434
273,0.017316,0.06084,0.059541,0.10469,0.0069217,0.075131,-0.0076946
274,0.019264,0.061489,0.073507,0.089098,0.021538,0.058891,-0.0067202
275,0.016016,0.057592,0.080978,0.075131,0.032582,0.039078,-0.0099683
276,0.010495,0.05142,0.081303,0.064737,0.037778,0.016666,-0.018088
277,0.0075714,0.048172,0.077405,0.057267,0.038428,-0.0060706,-0.027183
278,0.014392,0.047847,0.073832,0.050771,0.036804,-0.027833,-0.03173
279,0.030308,0.049472,0.072208,0.042326,0.031282,-0.046022,-0.028157
280,0.047523,0.048172,0.069934,0.032582,0.023162,-0.058365,-0.021012
281,0.058566,0.042975,0.064413,0.023812,0.013418,-0.06616,-0.015165
282,0.059216,0.036804,0.057592,0.01829,0.0014,-0.071682,-0.014191
283,0.05207,0.031282,0.052395,0.017965,-0.011917,-0.078178,-0.01484
284,0.043625,0.024786,0.049472,0.016991,-0.02426,-0.088247,-0.012242
285,0.036804,0.019264,0.046548,0.012119,-0.033354,-0.098316,-0.0024977
286,0.031607,0.019264,0.037454,0.0088706,-0.038227,-0.10221,0.012119
287,0.024137,0.025111,0.023162,0.012768,-0.034978,-0.096692,0.024461
288,0.015692,0.032582,0.0095202,0.021863,-0.025884,-0.0824,0.030308
289,0.009845,0.037129,0.0014,0.031282,-0.015165,-0.060963,0.029983
290,0.01017,0.038103,-0.0041217,0.038428,-0.0063954,-0.038227,0.027709
291,0.017316,0.036154,-0.0093186,0.044599,-0.0054209,-0.018738,0.023162
292,0.027385,0.037454,-0.017764,0.049147,-0.012242,-0.0028225,0.017316
293,0.033881,0.041351,-0.029132,0.048172,-0.02361,0.014392,0.012768
294,0.035505,0.047198,-0.038876,0.039402,-0.036278,0.029333,0.0095202
295,0.030308,0.051745,-0.041799,0.025436,-0.048296,0.038103,0.0078962
296,0.021213,0.049796,-0.034978,0.015042,-0.056416,0.040052,0.008221
297,0.01017,0.042326,-0.021337,0.013418,-0.059664,0.036804,0.0075714
298,-0.0024977,0.034855,-0.0076946,0.017316,-0.059989,0.036154,0.0020496
299,-0.012242,0.029658,-0.0018481,0.023487,-0.059014,0.049796,-0.0083442
300,-0.01614,0.029658,-0.0011985,0.027385,-0.055766,0.084226,-0.017764
301,-0.01549,0.032257,-0.0024977,0.031282,-0.04927,0.1349,-0.017764
302,-0.011592,0.034206,-0.0024977,0.033556,-0.042449,0.19304,-0.0083442
303,-0.0076946,0.036479,0.00010078,0.033231,-0.036927,0.25378,0.0095202
304,-0.0083442,0.038103,0.0091954,0.032257,-0.032055,0.31451,0.029009
305,-0.0093186,0.046223,0.018615,0.033231,-0.029782,0.36356,0.045574
306,-0.0054209,0.054668,0.024137,0.037129,-0.027833,0.38857,0.054344
307,0.0033489,0.055968,0.02641,0.037778,-0.020362,0.39247,0.058241
308,0.013093,0.044924,0.02641,0.033231,-0.0076946,0.38987,0.059541
309,0.020888,0.025111,0.024786,0.027709,0.0056225,0.39474,0.059541
310,0.023162,0.0023744,0.020239,0.025761,0.014717,0.40514,0.058241
311,0.020888,-0.01614,0.013093,0.024786,0.021538,0.42592,0.054993
312,0.014392,-0.025234,0.0065969,0.025111,0.029009,0.45678,0.053044
313,0.0065969,-0.026858,0.0020496,0.025761,0.035505,0.48699,0.054019
314,0.003024,-0.025559,-0.0024977,0.026085,0.041351,0.49283,0.057592
315,0.0033489,-0.024585,-0.0050961,0.023812,0.042975,0.45126,0.062789
316,0.009845,-0.028807,-0.0060706,0.021863,0.039078,0.35252,0.063438
317,0.019914,-0.034329,-0.0083442,0.017316,0.030633,0.20733,0.053694
318,0.033231,-0.035628,-0.013541,0.008221,0.019914,0.046548,0.038428
319,0.042975,-0.034329,-0.020362,-0.0011985,0.009845,-0.098965,0.024786
320,0.047847,-0.03173,-0.025559,-0.011267,0.0069217,-0.212,0.016016
321,0.051745,-0.025559,-0.026533,-0.017439,0.0095202,-0.28865,0.008221
322,0.057267,-0.01549,-0.020362,-0.017439,0.016341,-0.33088,0.0033489
323,0.062139,-0.0034721,-0.010943,-0.012892,0.021863,-0.34939,0.0026992
324,0.066037,0.0091954,0.0033489,-0.0063954,0.021538,-0.35849,0.0062721
325,0.067661,0.020564,0.01894,-0.0018481,0.013418,-0.36628,0.011794
326,0.065062,0.028034,0.031932,-0.0054209,-0.0031473,-0.37505,0.016991
327,0.055643,0.029983,0.038103,-0.017439,-0.022311,-0.38317,0.023162
328,0.042975,0.029009,0.037129,-0.033354,-0.033354,-0.38837,0.028359
329,0.031932,0.025436,0.031282,-0.045697,-0.032055,-0.38415,0.029333
330,0.024461,0.016991,0.025111,-0.049595,-0.019388,-0.36921,0.025436
331,0.01764,0.0075714,0.019914,-0.048296,-0.0015233,-0.34712,0.01764
332,0.0085458,0.0010752,0.015367,-0.048296,0.01829,-0.31918,0.012119
333,-0.00087364,-0.00087364,0.012443,-0.052843,0.032582,-0.29125,0.0075714
334,-0.0057458,0.0026992,0.012119,-0.058365,0.03518,-0.26884,0.0049729
335,-0.0047713,0.0088706,0.011794,-0.059339,0.025436,-0.2539,-0.00087364
336,0.0026992,0.015692,0.013418,-0.056091,0.0091954,-0.24221,-0.015165
337,0.014068,0.020239,0.016666,-0.051868,-0.0067202,-0.23376,-0.033679
338,0.029009,0.02706,0.022837,-0.051219,-0.018088,-0.23344,-0.047971
339,0.0433,0.038103,0.031932,-0.055441,-0.021986,-0.23571,-0.051868
340,0.053369,0.05207,0.042326,-0.059989,-0.021337,-0.23149,-0.04862
341,0.056617,0.063113,0.05272,-0.060963,-0.022961,-0.21655,-0.043099
342,0.057267,0.066362,0.061165,-0.060313,-0.031081,-0.19316,-0.042124
343,0.055643,0.058241,0.066686,-0.053492,-0.045697,-0.17107,-0.045047
344,0.052395,0.044599,0.070584,-0.041799,-0.060638,-0.15678,-0.048945
345,0.048822,0.032257,0.071883,-0.031081,-0.069083,-0.14964,-0.051219
346,0.044275,0.024137,0.06961,-0.027183,-0.06681,-0.14899,-0.053492
347,0.038753,0.022188,0.063763,-0.033679,-0.053817,-0.16068,-0.053168
348,0.033881,0.023162,0.058566,-0.050569,-0.037577,-0.19283,-0.052518
349,0.02706,0.025111,0.053694,-0.068758,-0.026533,-0.24578,-0.053492
350,0.017316,0.027709,0.051096,-0.082725,-0.030106,-0.30977,-0.05804
351,0.0017248,0.031607,0.051096,-0.090521,-0.045047,-0.37603,-0.060963
352,-0.01614,0.033556,0.05142,-0.092145,-0.06616,-0.43741,-0.062912
353,-0.033354,0.031282,0.050771,-0.088572,-0.089871,-0.48419,-0.066485
354,-0.042449,0.024786,0.048172,-0.0824,-0.11326,-0.50757,-0.072006
355,-0.041799,0.016666,0.042651,-0.073306,-0.13502,-0.50822,-0.078178
356,-0.035953,0.01017,0.038428,-0.061937,-0.15029,-0.49491,-0.081101
357,-0.027183,0.012443,0.036804,-0.04992,-0.15418,-0.47379,-0.079477
358,-0.016464,0.023812,0.039078,-0.039201,-0.14801,-0.44683,-0.075255
359,-0.0080194,0.038103,0.04395,-0.025559,-0.13697,-0.4137,-0.06551
360,-0.0044465,0.046548,0.044275,-0.0080194,-0.12885,-0.37408,-0.046022
361,-0.0047713,0.042651,0.03453,0.0069217,-0.12365,-0.32276,-0.027833
362,-0.0083442,0.027385,0.014068,0.011794,-0.11683,-0.25162,-0.017764
363,-0.011592,0.0075714,-0.012567,0.0069217,-0.10351,-0.16133,-0.021337
364,-0.012567,-0.011267,-0.039201,0.00010078,-0.0824,-0.056741,-0.03173
365,-0.0089938,-0.021661,-0.058365,-0.0037969,-0.059014,0.053044,-0.043423
366,-0.0011985,-0.022961,-0.069733,-0.0044465,-0.037902,0.16056,-0.053492
367,0.008221,-0.018413,-0.071357,-0.0031473,-0.023285,0.258,-0.060638
368,0.01894,-0.0083442,-0.06616,-0.0015233,-0.014516,0.3418,-0.063237
369,0.026085,0.0065969,-0.05804,-0.0031473,-0.0099683,0.41715,-0.059664
370,0.026735,0.01894,-0.04992,-0.011917,-0.0047713,0.48829,-0.046996
371,0.021213,0.023812,-0.044398,-0.027508,0.0043233,0.5565,-0.025884
372,0.014392,0.01764,-0.039526,-0.040175,0.017965,0.63185,-0.0041217
373,0.0095202,0.0023744,-0.03238,-0.044723,0.035505,0.72605,0.012768
374,0.0072465,-0.015815,-0.024585,-0.039851,0.055968,0.8459,0.021538
375,0.0049729,-0.029457,-0.019712,-0.025559,0.076755,0.99076,0.028684
376,0.0023744,-0.034978,-0.016464,-0.0054209,0.097218,1.1421,0.039402
377,-0.00022403,-0.031406,-0.010618,0.014068,0.11768,1.2675,0.056942
378,-0.0063954,-0.024585,0.00042559,0.028359,0.13912,1.3299,0.075781
379,-0.01484,-0.018088,0.019264,0.03518,0.1625,1.3146,0.094295
380,-0.021986,-0.014191,0.042651,0.039078,0.19141,1.235,0.11281
381,-0.021012,-0.010293,0.065387,0.042326,0.22162,1.1187,0.13457
382,-0.010943,-0.0031473,0.080328,0.047198,0.24598,0.97842,0.1625
383,-0.00054884,0.0049729,0.088773,0.053369,0.2593,0.82024,0.19563
384,0.009845,0.014068,0.090397,0.059216,0.26352,0.65491,0.22844
385,0.016991,0.020564,0.086175,0.065387,0.26319,0.49381,0.2541
386,0.024461,0.01829,0.080653,0.076106,0.25605,0.33855,0.26774
387,0.028034,0.011794,0.076431,0.091696,0.23916,0.18232,0.26644
388,0.026085,0.0043233,0.073832,0.10664,0.21188,0.022512,0.25053
389,0.018615,-0.0024977,0.072208,0.11346,0.17745,-0.1321,0.22649
390,0.0085458,-0.0093186,0.071883,0.11118,0.14107,-0.26689,0.19823
391,-0.0034721,-0.017439,0.072533,0.10566,0.11021,-0.37733,0.16673
392,-0.016464,-0.02426,0.070584,0.10209,0.085525,-0.45983,0.13425
393,-0.026858,-0.028157,0.067336,0.097543,0.065712,-0.5066,0.10371
394,-0.034654,-0.03238,0.067336,0.09397,0.050771,-0.51894,0.076431
395,-0.036602,-0.036602,0.067011,0.086824,0.040052,-0.50303,0.057592
396,-0.031406,-0.035953,0.065062,0.076755,0.029009,-0.47249,0.045249
397,-0.022311,-0.029132,0.057592,0.065387,0.016666,-0.44099,0.039402
398,-0.011267,-0.019063,0.047198,0.054993,0.0023744,-0.42312,0.040052
399,-0.0018481,-0.0076946,0.03518,0.048172,-0.011592,-0.42117,0.042326
400,-0.00022403,0.0052977,0.022837,0.045249,-0.021012,-0.43092,0.040377
401,-0.010293,0.015692,0.009845,0.044924,-0.028157,-0.45268,0.032582
402,-0.027833,0.019914,-0.00087364,0.042651,-0.032705,-0.48451,0.01829
403,-0.043748,0.015042,-0.0083442,0.034206,-0.032055,-0.51667,0.0059473
404,-0.04992,0.0023744,-0.015165,0.021213,-0.027508,-0.54103,-0.00054884
405,-0.046671,-0.015815,-0.025884,0.0085458,-0.021986,-0.555,-0.0037969
406,-0.037252,-0.03238,-0.039201,0.00042559,-0.017439,-0.55629,-0.0089938
407,-0.024585,-0.044723,-0.051868,-0.0011985,-0.01614,-0.54915,-0.018088
408,-0.0089938,-0.050569,-0.062587,0.0026992,-0.017764,-0.53453,-0.027508
409,0.009845,-0.048945,-0.064861,0.0088706,-0.020687,-0.51472,-0.034329
410,0.026735,-0.041475,-0.05804,0.014392,-0.024909,-0.49426,-0.039201
411,0.035505,-0.03303,-0.046347,0.016991,-0.029457,-0.47444,-0.045047
412,0.031932,-0.028482,-0.034654,0.01764,-0.036278,-0.45463,-0.054142
413,0.022837,-0.029132,-0.02361,0.017316,-0.044073,-0.42735,-0.064861
414,0.016991,-0.028807,-0.016789,0.015367,-0.053492,-0.39162,-0.079477
415,0.016991,-0.024909,-0.014516,0.011794,-0.059664,-0.35069,-0.097991
416,0.019589,-0.01549,-0.017114,0.008221,-0.059664,-0.30749,-0.11975
417,0.022188,0.0023744,-0.021012,0.0062721,-0.053168,-0.25942,-0.14022
418,0.01894,0.025436,-0.021986,0.0072465,-0.037577,-0.19478,-0.15256
419,0.010495,0.045249,-0.022961,0.011794,-0.016789,-0.090521,-0.15353
420,0.0033489,0.057917,-0.027508,0.018615,0.0010752,0.058891,-0.14022
421,0.0026992,0.066037,-0.037577,0.026085,0.009845,0.23591,-0.11975
422,0.0062721,0.077405,-0.04992,0.029983,0.0046481,0.40026,-0.10416
423,0.012768,0.091047,-0.060963,0.026735,-0.010293,0.51005,-0.094093
424,0.020564,0.10014,-0.069733,0.01829,-0.020687,0.54708,-0.089871
425,0.027709,0.10501,-0.075579,0.011794,-0.022311,0.52109,-0.089546
426,0.030308,0.10566,-0.078827,0.012768,-0.017439,0.46555,-0.095393
427,0.029658,0.10177,-0.080451,0.020239,-0.010943,0.40936,-0.10481
428,0.027385,0.097218,-0.084349,0.031607,-0.0083442,0.36551,-0.11131
429,0.032257,0.092671,-0.088247,0.047198,-0.010618,0.32816,-0.10611
430,0.044924,0.087474,-0.089221,0.063763,-0.016464,0.28691,-0.092469
431,0.058566,0.078704,-0.086623,0.075131,-0.022961,0.23331,-0.075904
432,0.067986,0.063438,-0.076554,0.080328,-0.025559,0.1677,-0.062912
433,0.071558,0.046548,-0.061937,0.082277,-0.025234,0.095594,-0.04927
434,0.071883,0.03583,-0.046347,0.084226,-0.020362,0.023487,-0.035953
435,0.067661,0.033881,-0.035628,0.087149,-0.011917,-0.052518,-0.023935
436,0.059216,0.039727,-0.032705,0.087799,-0.0021729,-0.13015,-0.013541
437,0.049796,0.048822,-0.038227,0.086824,0.0043233,-0.20193,-0.00087364
438,0.040377,0.059541,-0.047646,0.084226,0.0065969,-0.26137,0.013418
439,0.036479,0.067661,-0.054792,0.080003,0.0033489,-0.30229,0.024461
440,0.036479,0.070259,-0.057065,0.078055,-0.0054209,-0.32633,0.029658
441,0.033881,0.069934,-0.054792,0.078704,-0.016464,-0.33705,0.02706
442,0.027385,0.070259,-0.04927,0.079029,-0.028482,-0.33413,0.015367
443,0.017316,0.078055,-0.045697,0.074806,-0.039851,-0.31918,-0.0021729
444,0.012119,0.095594,-0.045697,0.067336,-0.053168,-0.29742,-0.016789
445,0.012443,0.11378,-0.050569,0.061814,-0.067784,-0.26949,-0.024909
446,0.014717,0.12028,-0.057065,0.062464,-0.079802,-0.24383,-0.02426
447,0.013418,0.11313,-0.059989,0.06831,-0.088247,-0.22109,-0.018088
448,0.0078962,0.097868,-0.059014,0.076755,-0.09117,-0.20225,-0.010943
449,-0.00022403,0.078704,-0.057715,0.080653,-0.092145,-0.19186,-0.0057458
450,-0.011267,0.061165,-0.055766,0.074806,-0.097666,-0.19121,-0.0080194
451,-0.023935,0.045899,-0.054792,0.065712,-0.11066,-0.19543,-0.017439
452,-0.034329,0.032257,-0.052193,0.061165,-0.12592,-0.19283,-0.029132
453,-0.039851,0.013418,-0.047971,0.062139,-0.13664,-0.17984,-0.036278
454,-0.041799,-0.0080194,-0.041799,0.062139,-0.13632,-0.15808,-0.032055
455,-0.039201,-0.028482,-0.031081,0.059216,-0.13047,-0.13242,-0.015815
456,-0.034004,-0.0405,-0.017114,0.053369,-0.1269,-0.10189,0.0017248
457,-0.031081,-0.042124,-0.0054209,0.044275,-0.1282,-0.070382,0.013418
458,-0.029782,-0.035953,0.0023744,0.034206,-0.13015,-0.037252,0.016666
459,-0.029782,-0.028482,0.0078962,0.023812,-0.12787,0.0010752,0.013093
460,-0.03173,-0.024909,0.0088706,0.012119,-0.12365,0.042651,0.0095202
461,-0.039851,-0.025559,0.0062721,-0.00054884,-0.11521,0.087474,0.0095202
462,-0.04992,-0.029132,0.0023744,-0.010943,-0.10579,0.13912,0.009845
463,-0.056416,-0.03303,-0.0011985,-0.017114,-0.097017,0.19856,0.0091954
464,-0.056416,-0.039526,-0.0034721,-0.018413,-0.09182,0.26417,0.0085458
465,-0.052843,-0.047971,-0.0034721,-0.016464,-0.090521,0.32783,0.0088706
466,-0.048945,-0.05739,0.0017248,-0.011917,-0.093119,0.3772,0.012443
467,-0.044073,-0.061937,0.009845,-0.010293,-0.10059,0.40676,0.01894
468,-0.039526,-0.060963,0.018615,-0.014191,-0.11001,0.41293,0.029658
469,-0.036278,-0.054792,0.023487,-0.020687,-0.11293,0.39572,0.041027
470,-0.036278,-0.045372,0.020888,-0.027833,-0.10709,0.35804,0.050446
471,-0.039526,-0.038876,0.014392,-0.034654,-0.099615,0.30477,0.059865
472,-0.042449,-0.0405,0.0085458,-0.042449,-0.092145,0.24143,0.071883
473,-0.04115,-0.04992,0.0052977,-0.048945,-0.081751,0.17127,0.082277
474,-0.034978,-0.06551,0.0049729,-0.04927,-0.064536,0.10112,0.090397
475,-0.024585,-0.084024,0.0059473,-0.041475,-0.039201,0.036479,0.094945
476,-0.011267,-0.096042,0.0036737,-0.03303,-0.016464,-0.016789,0.095594
477,0.0020496,-0.098316,-0.0050961,-0.028157,-0.0028225,-0.057065,0.095919
478,0.011794,-0.089871,-0.016464,-0.029782,0.0056225,-0.082076,0.09462
479,0.013743,-0.073955,-0.026858,-0.035628,0.013093,-0.09117,0.089098
480,0.010495,-0.056741,-0.034329,-0.041475,0.021538,-0.079802,0.079029
481,0.0014,-0.046347,-0.038227,-0.04992,0.03453,-0.04862,0.072208
482,-0.007045,-0.045697,-0.035628,-0.058365,0.05207,-0.0015233,0.071883
483,-0.011917,-0.04992,-0.028482,-0.06551,0.072858,0.055968,0.078379
484,-0.01614,-0.053817,-0.020037,-0.068434,0.093645,0.11736,0.090072
485,-0.015815,-0.052843,-0.010618,-0.067134,0.10826,0.1742,0.10501
486,-0.0083442,-0.046022,0.0020496,-0.065186,0.11476,0.22552,0.12028
487,0.0020496,-0.035628,0.018615,-0.062262,0.11768,0.28333,0.13327
488,0.0095202,-0.026858,0.03583,-0.057715,0.11671,0.34894,0.14074
489,0.009845,-0.020687,0.048172,-0.04992,0.11151,0.40968,0.13879
490,0.0059473,-0.01614,0.057592,-0.041799,0.10436,0.44314,0.12158
491,0.0088706,-0.0099683,0.066037,-0.034654,0.095919,0.43469,0.09462
492,0.01764,0.0010752,0.073832,-0.032055,0.085525,0.38532,0.067336
493,0.027385,0.014392,0.078704,-0.033354,0.072858,0.30932,0.047847
494,0.031282,0.023487,0.083901,-0.030431,0.058566,0.23234,0.035505
495,0.02706,0.030957,0.090722,-0.025234,0.049796,0.17127,0.029983
496,0.021213,0.039402,0.10047,-0.018413,0.047847,0.13067,0.030633
497,0.01764,0.048822,0.10956,-0.010618,0.047847,0.10696,0.036479
498,0.013743,0.056617,0.11151,-0.0031473,0.044599,0.097868,0.041676
499,0.014717,0.058241,0.10144,0.0023744,0.037129,0.095594,0.042326
500,0.027709,0.053694,0.082602,0.0052977,0.028359,0.093321,0.03453
501,0.044275,0.049147,0.063113,0.0072465,0.019914,0.08585,0.020564
502,0.056942,0.054344,0.050446,0.010495,0.016016,0.076755,0.0056225
503,0.062789,0.071558,0.04395,0.016341,0.012768,0.066686,-0.0044465
504,0.062139,0.097218,0.039402,0.02641,0.0075714,0.056617,-0.0037969
505,0.06084,0.12223,0.036154,0.039727,0.0026992,0.040052,0.0033489
506,0.062464,0.14009,0.036479,0.053044,0.0010752,0.012443,0.010819
507,0.070909,0.14854,0.038753,0.056617,0.0069217,-0.025234,0.015042
508,0.082927,0.14886,0.041027,0.049472,0.020888,-0.062912,0.014717
509,0.093321,0.14432,0.042975,0.036804,0.041027,-0.088896,0.0088706
510,0.095919,0.13425,0.046548,0.022188,0.066362,-0.10611,-0.0018481
511,0.090072,0.12255,0.050771,0.009845,0.091696,-0.12527,-0.011917
512,0.078704,0.11151,0.055643,0.0014,0.11378,-0.15776,-0.013866
513,0.06831,0.10306,0.062139,-0.0054209,0.12905,-0.20388,-0.0067202
514,0.06084,0.095919,0.070259,-0.010293,0.13782,-0.25227,0.0036737
515,0.058566,0.0865,0.079029,-0.017439,0.13749,-0.28735,0.010819
516,0.061165,0.074157,0.0852,-0.026858,0.13035,-0.2958,0.011794
517,0.063763,0.057592,0.087474,-0.034978,0.11995,-0.27274,0.0046481
518,0.065062,0.0433,0.086824,-0.038551,0.11411,-0.22142,-0.0031473
519,0.064737,0.03583,0.084876,-0.035953,0.11573,-0.14834,-0.0054209
520,0.058891,0.03583,0.080328,-0.031406,0.12548,-0.064536,0.0020496
521,0.04395,0.038753,0.074806,-0.029132,0.14009,0.0065969,0.016991
522,0.023812,0.044275,0.074482,-0.029132,0.14789,0.04395,0.032257
523,0.0049729,0.047523,0.080003,-0.033354,0.14334,0.039402,0.038428
524,-0.0080194,0.042975,0.084226,-0.040175,0.12548,-0.0015233,0.033881
525,-0.015165,0.030308,0.080003,-0.046022,0.098842,-0.06551,0.017965
526,-0.020362,0.013093,0.067986,-0.04992,0.067661,-0.1334,-0.0060706
527,-0.024909,0.0023744,0.05207,-0.051868,0.040702,-0.18114,-0.028482
528,-0.028157,0.0020496,0.037778,-0.050894,0.019914,-0.2016,-0.043423
529,-0.029457,0.0065969,0.030633,-0.048296,0.0020496,-0.20128,-0.046347
530,-0.028807,0.0085458,0.029333,-0.044073,-0.017764,-0.19803,-0.041475
531,-0.026533,0.008221,0.033556,-0.037577,-0.035628,-0.20355,-0.038551
532,-0.025884,0.0075714,0.039727,-0.030756,-0.04992,-0.21785,-0.044073
533,-0.028482,0.0065969,0.041027,-0.023935,-0.059339,-0.23019,-0.056741
534,-0.028807,0.0065969,0.037454,-0.019712,-0.061937,-0.23571,-0.067459
535,-0.023935,0.0069217,0.032257,-0.022311,-0.052843,-0.23344,-0.070058
536,-0.016789,0.0072465,0.029658,-0.030106,-0.040175,-0.22499,-0.065835
537,-0.011917,0.0085458,0.030633,-0.039201,-0.030431,-0.21525,-0.061937
538,-0.011592,0.0085458,0.03518,-0.043099,-0.02426,-0.20063,-0.056741
539,-0.013866,0.0065969,0.039727,-0.038876,-0.019388,-0.17562,-0.051544
540,-0.01484,0.0014,0.039078,-0.028157,-0.012567,-0.14119,-0.04115
541,-0.013541,-0.0057458,0.032257,-0.01484,-0.0054209,-0.10254,-0.026858
542,-0.017439,-0.010293,0.022512,-0.0028225,0.00075039,-0.061288,-0.010618
543,-0.026533,-0.011267,0.01764,0.010819,0.0059473,-0.020687,0.0049729
544,-0.038227,-0.010618,0.017316,0.022512,0.01017,0.011469,0.018615
545,-0.044723,-0.0096434,0.01829,0.029009,0.0091954,0.036154,0.030633
546,-0.045047,-0.012892,0.01764,0.029333,0.0052977,0.059216,0.042975
547,-0.04115,-0.016464,0.016341,0.025436,0.0010752,0.088124,0.05142
548,-0.034654,-0.017114,0.016666,0.027385,0.00010078,0.12807,0.053694
549,-0.026209,-0.015165,0.020564,0.039078,-0.00054884,0.18394,0.047847
550,-0.015165,-0.01549,0.026735,0.063113,-0.0041217,0.25865,0.040377
551,-0.0057458,-0.018738,0.033881,0.092996,-0.0067202,0.34732,0.039402
552,0.00010078,-0.022636,0.042651,0.11931,-0.0099683,0.44476,0.050446
553,0.0023744,-0.030756,0.046223,0.1362,-0.011917,0.53961,0.06896
554,0.003024,-0.040825,0.040052,0.14594,-0.011917,0.61983,0.082927
555,0.0049729,-0.048945,0.022837,0.15276,-0.0054209,0.6718,0.088773
556,0.011144,-0.052518,-0.0028225,0.15471,0.0072465,0.69486,0.084876
557,0.021538,-0.050244,-0.029132,0.15471,0.022512,0.68772,0.076755
558,0.028034,-0.044073,-0.051868,0.15568,0.032582,0.64484,0.070584
559,0.026085,-0.036602,-0.067784,0.15666,0.029333,0.56657,0.067336
560,0.01764,-0.029782,-0.078503,0.15244,0.013093,0.46295,0.071558
561,0.008221,-0.024909,-0.086623,0.14139,-0.012242,0.35024,0.080328
562,-0.00022403,-0.020037,-0.092145,0.1258,-0.037902,0.24241,0.087474
563,-0.0031473,-0.015815,-0.093444,0.10761,-0.054792,0.14886,0.09397
564,-0.0015233,-0.013541,-0.087922,0.090072,-0.061613,0.074157,0.099167
565,0.0010752,-0.010618,-0.076879,0.070259,-0.059339,0.0088706,0.10047
566,0.0049729,-0.0024977,-0.06551,0.049796,-0.048945,-0.056091,0.098193
567,0.0091954,0.0095202,-0.059014,0.032906,-0.034654,-0.12333,0.097218
568,0.012443,0.01894,-0.05739,0.026085,-0.022636,-0.19056,0.099817
569,0.013418,0.020239,-0.059989,0.027709,-0.014191,-0.25552,0.10209
570,0.015367,0.01829,-0.063561,0.031607,-0.0096434,-0.30944,0.098193
571,0.016666,0.016991,-0.06616,0.033231,-0.013216,-0.34744,0.087799
572,0.015367,0.017965,-0.06551,0.027709,-0.023285,-0.3705,0.074157
573,0.012768,0.017316,-0.063237,0.019264,-0.037252,-0.37798,0.053369
574,0.0085458,0.014717,-0.057715,0.012443,-0.051544,-0.36563,0.021213
575,0.0023744,0.0078962,-0.051868,0.008221,-0.065186,-0.339,-0.018738
576,-0.0021729,-0.00022403,-0.04862,0.0020496,-0.080776,-0.30587,-0.057065
577,-0.0044465,-0.008669,-0.050244,-0.0047713,-0.093444,-0.28086,-0.087922
578,-0.0054209,-0.016789,-0.059014,-0.010943,-0.10059,-0.27306,-0.10903
579,-0.0028225,-0.022961,-0.073306,-0.015165,-0.099615,-0.27566,-0.1191
580,0.0059473,-0.026209,-0.084349,-0.018088,-0.095393,-0.27046,-0.12073
581,0.017965,-0.029132,-0.086623,-0.018413,-0.088896,-0.24253,-0.12073
582,0.021863,-0.034654,-0.078178,-0.019063,-0.0824,-0.19219,-0.1256
583,0.015692,-0.036278,-0.062587,-0.020687,-0.077528,-0.13177,-0.13469
584,0.0065969,-0.032705,-0.045697,-0.023935,-0.070382,-0.081426,-0.13794
585,0.0036737,-0.02426,-0.028807,-0.027183,-0.062262,-0.059014,-0.13047
586,0.012119,-0.011592,-0.014516,-0.031081,-0.062587,-0.063886,-0.1191
587,0.030957,0.0023744,-0.0011985,-0.031406,-0.068434,-0.084024,-0.10903
588,0.057592,0.012768,0.015042,-0.031406,-0.075255,-0.11033,-0.09994
589,0.081627,0.019914,0.032257,-0.030431,-0.078178,-0.13469,-0.089546
590,0.093645,0.026735,0.045249,-0.031081,-0.07493,-0.15711,-0.073955
591,0.092021,0.028359,0.047847,-0.032055,-0.06616,-0.17627,-0.055441
592,0.084226,0.025111,0.041676,-0.030756,-0.053168,-0.19121,-0.035953
593,0.073832,0.022837,0.030957,-0.026209,-0.04115,-0.2081,-0.022961
594,0.063113,0.02641,0.019914,-0.01614,-0.037902,-0.22889,-0.019063
595,0.048497,0.036479,0.0091954,-0.0047713,-0.043423,-0.2539,-0.020687
596,0.033231,0.048497,-0.00087364,0.0046481,-0.051544,-0.28248,-0.022311
597,0.017316,0.058566,-0.0050961,0.0072465,-0.053168,-0.31139,-0.021986
598,0.0088706,0.065062,-0.0063954,0.0026992,-0.04927,-0.33705,-0.020687
599,0.0049729,0.066362,-0.0037969,-0.0099683,-0.044723,-0.35167,-0.020362
600,0.0020496,0.061489,0.0020496,-0.023935,-0.045047,-0.35004,-0.025884
601,-0.0018481,0.056617,0.0088706,-0.03173,-0.050569,-0.33153,-0.035953
602,-0.0057458,0.055318,0.015692,-0.03238,-0.054792,-0.29547,-0.044398
603,-0.0076946,0.053044,0.023162,-0.023935,-0.04862,-0.23441,-0.046671
604,-0.0044465,0.046873,0.037454,-0.011592,-0.028482,-0.14281,-0.039201
605,0.0020496,0.038103,0.057592,-0.00054884,0.0023744,-0.028157,-0.026858
606,0.010495,0.030957,0.077405,0.0075714,0.039078,0.082277,-0.013216
607,0.018615,0.029009,0.090072,0.014717,0.06831,0.16348,0.0010752
608,0.023162,0.025111,0.092346,0.020564,0.076431,0.20051,0.012768
609,0.022188,0.021213,0.080978,0.021213,0.062789,0.19076,0.016016
610,0.014392,0.015367,0.060515,0.015367,0.038103,0.15081,0.0091954
611,0.0056225,0.0078962,0.036804,0.0059473,0.011794,0.10469,-0.0031473
612,0.003024,-0.00054884,0.011469,0.00010078,-0.0057458,0.080003,-0.01614
613,0.0085458,-0.0083442,-0.010943,0.0017248,-0.011267,0.091372,-0.027833
614,0.014717,-0.011592,-0.026858,0.0091954,-0.0099683,0.13912,-0.034978
615,0.015042,-0.0096434,-0.034654,0.019589,-0.0041217,0.21317,-0.042124
616,0.0088706,-0.0076946,-0.036927,0.027385,0.0020496,0.29178,-0.045047
617,0.00042559,-0.0057458,-0.037252,0.031607,0.0056225,0.36453,-0.040825
618,-0.0073698,-0.0024977,-0.039526,0.034855,0.008221,0.42917,-0.027833
619,-0.013541,-0.0041217,-0.040825,0.038753,0.015692,0.49186,-0.010618
620,-0.017114,-0.010943,-0.039526,0.045574,0.030957,0.5539,0.0072465
621,-0.017439,-0.014516,-0.033679,0.053369,0.054019,0.61366,0.021213
622,-0.014191,-0.015165,-0.029132,0.058891,0.078704,0.66758,0.023812
623,-0.011267,-0.012242,-0.029457,0.059216,0.10144,0.70786,0.020239
624,-0.0099683,-0.0099683,-0.03238,0.054019,0.11898,0.7228,0.022837
625,-0.0076946,-0.011267,-0.035303,0.048172,0.13002,0.70006,0.034206
626,-0.0037969,-0.01549,-0.034654,0.047198,0.13555,0.62568,0.050771
627,0.00075039,-0.019388,-0.029782,0.05272,0.13197,0.49965,0.066686
628,0.0056225,-0.019712,-0.023285,0.058566,0.11833,0.34407,0.075456
629,0.009845,-0.018088,-0.018413,0.064737,0.10014,0.19304,0.078704
630,0.012443,-0.017114,-0.013866,0.066686,0.082602,0.072858,0.075456
631,0.014717,-0.014191,-0.008669,0.067661,0.069934,-0.0028225,0.067011
632,0.016666,-0.0099683,-0.0028225,0.066037,0.061165,-0.043748,0.059865
633,0.015692,-0.0096434,0.0017248,0.065712,0.053694,-0.07428,0.056942
634,0.0085458,-0.012242,0.0069217,0.066362,0.046223,-0.10838,0.062139
635,-0.0044465,-0.019063,0.01017,0.06961,0.039078,-0.14736,0.073507
636,-0.017439,-0.025234,0.015042,0.073182,0.03518,-0.18049,0.091047
637,-0.022636,-0.029132,0.01764,0.073182,0.032257,-0.19998,0.10761
638,-0.020037,-0.027183,0.019914,0.067661,0.028359,-0.2029,0.11671
639,-0.01614,-0.020037,0.021863,0.062139,0.023487,-0.18309,0.11476
640,-0.013216,-0.0093186,0.023162,0.06019,0.019914,-0.14087,0.10729
641,-0.0099683,0.0023744,0.02706,0.06019,0.014392,-0.09182,0.10436
642,-0.0044465,0.012443,0.03518,0.056942,0.0059473,-0.053168,0.10729
643,0.0039985,0.020239,0.048172,0.051096,-0.007045,-0.040175,0.11183
644,0.012119,0.026085,0.065062,0.047523,-0.022311,-0.053168,0.11313
645,0.019264,0.030957,0.082602,0.045574,-0.035628,-0.083375,0.10242
646,0.023487,0.030957,0.096893,0.0433,-0.044723,-0.11651,0.07773
647,0.022837,0.028034,0.10469,0.038753,-0.047971,-0.14379,0.044599
648,0.01764,0.023487,0.10859,0.030957,-0.048945,-0.15938,0.01764
649,0.015042,0.022188,0.10989,0.022188,-0.051544,-0.1623,0.003024
650,0.014717,0.022188,0.11281,0.013743,-0.04992,-0.15548,-0.00054884
651,0.014068,0.024137,0.11671,0.0056225,-0.043423,-0.14411,0.0056225
652,0.012119,0.024786,0.1206,-0.00054884,-0.032055,-0.13275,0.016341
653,0.0056225,0.028359,0.12223,-0.0015233,-0.020687,-0.12365,0.027709
654,-0.0057458,0.03453,0.11768,-0.0018481,-0.012892,-0.11878,0.034855
655,-0.017439,0.044275,0.10274,-0.0037969,-0.011917,-0.12073,0.033231
656,-0.026533,0.054019,0.082602,-0.0099683,-0.016789,-0.13015,0.021863
657,-0.026209,0.061814,0.062464,-0.017764,-0.018738,-0.14704,0.0033489
658,-0.019388,0.062464,0.049796,-0.024585,-0.011592,-0.17237,-0.014516
659,-0.010293,0.058566,0.046223,-0.028482,-0.0015233,-0.20583,-0.023935
660,-0.0021729,0.057267,0.05207,-0.026209,0.0020496,-0.23928,-0.024585
661,0.0039985,0.061165,0.062464,-0.022311,-0.0096434,-0.26592,-0.018088
662,0.0056225,0.06961,0.071558,-0.01614,-0.034654,-0.28411,-0.0096434
663,0.0020496,0.080653,0.073832,-0.012892,-0.063237,-0.29385,-0.0028225
664,-0.0050961,0.092346,0.065387,-0.012567,-0.085648,-0.29385,0.00042559
665,-0.012567,0.10079,0.049147,-0.01549,-0.095717,-0.2893,0.00042559
666,-0.017764,0.10209,0.029658,-0.022311,-0.093769,-0.2867,-0.00054884
667,-0.019388,0.095919,0.011144,-0.029782,-0.085648,-0.29385,-0.00087364
668,-0.019388,0.0852,-0.0018481,-0.03303,-0.072656,-0.31009,-0.0021729
669,-0.018088,0.073182,-0.0089938,-0.036278,-0.058365,-0.33023,-0.0050961
670,-0.015165,0.06084,-0.011592,-0.040175,-0.04992,-0.35037,-0.012242
671,-0.012242,0.050446,-0.013541,-0.043099,-0.046996,-0.37245,-0.020687
672,-0.0089938,0.043625,-0.017439,-0.042124,-0.044073,-0.39487,-0.03303
673,-0.0063954,0.040702,-0.022636,-0.033354,-0.039526,-0.41273,-0.051544
674,-0.0028225,0.040702,-0.026858,-0.019063,-0.034654,-0.42085,-0.071357
675,0.0026992,0.040702,-0.028482,-0.0031473,-0.03173,-0.41598,-0.085648
676,0.0075714,0.041027,-0.027833,0.013093,-0.029132,-0.40493,-0.088247
677,0.0085458,0.041027,-0.027833,0.029009,-0.025559,-0.39292,-0.078178
678,0.0059473,0.039402,-0.03173,0.038103,-0.019712,-0.3861,-0.059664
679,0.0026992,0.038753,-0.039851,0.037778,-0.018088,-0.38447,-0.036278
680,-0.0011985,0.039078,-0.04927,0.032257,-0.020362,-0.3744,-0.016464
681,-0.0060706,0.037129,-0.057065,0.027385,-0.028157,-0.34517,-0.0047713
682,-0.012567,0.03453,-0.067459,0.024461,-0.037252,-0.29547,-0.0015233
683,-0.021337,0.030633,-0.078503,0.025111,-0.041475,-0.23376,-0.0021729
684,-0.030106,0.023812,-0.088896,0.030308,-0.038551,-0.174,-0.0060706
685,-0.035303,0.017316,-0.090845,0.040702,-0.03173,-0.12495,-0.012892
686,-0.03303,0.014717,-0.087272,0.053044,-0.023285,-0.089871,-0.023285
687,-0.027183,0.014717,-0.082076,0.063438,-0.015165,-0.068109,-0.034004
688,-0.025559,0.012768,-0.079802,0.06831,-0.0096434,-0.046022,-0.043099
689,-0.030756,0.0049729,-0.080127,0.066037,-0.0057458,-0.0096434,-0.050569
690,-0.039201,-0.0031473,-0.0837,0.06084,-0.0024977,0.045249,-0.052193
691,-0.043099,-0.0024977,-0.089871,0.057592,0.0020496,0.098193,-0.046671
692,-0.036602,0.0039985,-0.098641,0.058566,0.012443,0.12743,-0.038876
693,-0.018413,0.0085458,-0.10546,0.065062,0.025761,0.13067,-0.034654
694,0.0049729,0.0095202,-0.11001,0.075456,0.038428,0.11866,-0.035628
695,0.023487,0.0091954,-0.11196,0.085525,0.047847,0.10924,-0.04115
696,0.033556,0.0091954,-0.10676,0.091372,0.054019,0.12223,-0.044073
697,0.03518,0.008221,-0.098316,0.094945,0.057267,0.17355,-0.040175
698,0.033556,0.003024,-0.088572,0.097543,0.057267,0.27716,-0.029782
699,0.031932,-0.0080194,-0.08305,0.10047,0.056292,0.42527,-0.017764
700,0.032257,-0.022636,-0.078503,0.10404,0.055643,0.59937,-0.0028225
701,0.033556,-0.036278,-0.072006,0.10794,0.060515,0.76762,0.011144
702,0.039402,-0.040175,-0.063561,0.11118,0.068635,0.89657,0.021863
703,0.045574,-0.031081,-0.053168,0.10989,0.076431,0.96316,0.032257
704,0.044924,-0.013216,-0.045047,0.10274,0.079679,0.96251,0.041351
705,0.037129,0.0056225,-0.037252,0.092996,0.077405,0.91768,0.050121
706,0.027709,0.019914,-0.031406,0.088124,0.074157,0.86831,0.058891
707,0.01829,0.02641,-0.025559,0.087799,0.071883,0.83908,0.064413
708,0.013093,0.024786,-0.016464,0.089098,0.070909,0.82544,0.064737
709,0.016341,0.019589,-0.0034721,0.093645,0.06961,0.7988,0.053694
710,0.02641,0.012443,0.010495,0.10144,0.066037,0.72864,0.037778
711,0.037778,0.0059473,0.022837,0.11281,0.057917,0.60099,0.025436
712,0.045574,-0.0011985,0.031932,0.12093,0.044275,0.43145,0.020888
713,0.045899,-0.008669,0.036154,0.11931,0.030957,0.2554,0.025436
714,0.036479,-0.011592,0.036804,0.10079,0.022188,0.097868,0.038428
715,0.019589,-0.012567,0.037778,0.073507,0.016341,-0.030756,0.053369
716,-0.0011985,-0.011917,0.042975,0.046548,0.012119,-0.1308,0.065062
717,-0.01549,-0.0096434,0.05272,0.023162,0.012443,-0.20225,0.071234
718,-0.01614,-0.010293,0.063763,0.00010078,0.019264,-0.23506,0.081303
719,-0.0021729,-0.013866,0.067986,-0.022636,0.030633,-0.21525,0.097543
720,0.016341,-0.019712,0.063438,-0.041799,0.041027,-0.14184,0.1206
721,0.032582,-0.023935,0.05142,-0.050569,0.044924,-0.038876,0.14691
722,0.039402,-0.021337,0.038428,-0.050894,0.038428,0.05272,0.16673
723,0.039727,-0.015165,0.028034,-0.051544,0.024137,0.096569,0.17777
724,0.039402,-0.0080194,0.023812,-0.053817,0.0085458,0.073832,0.18297
725,0.037778,-0.0037969,0.029983,-0.058365,-0.0015233,-0.0054209,0.18557
726,0.029983,-0.0041217,0.042001,-0.060313,-0.0063954,-0.11066,0.18102
727,0.021538,-0.0067202,0.052395,-0.063237,-0.011592,-0.20485,0.16965
728,0.014717,-0.0099683,0.054019,-0.065835,-0.017764,-0.26007,0.15309
729,0.011469,-0.010618,0.044275,-0.068758,-0.016789,-0.26916,0.13587
730,0.0095202,-0.008669,0.028359,-0.072656,-0.008669,-0.24448,0.11638
731,0.009845,-0.0057458,0.014392,-0.076229,0.00075039,-0.21102,0.092346
732,0.012443,-0.0083442,0.0062721,-0.077203,0.0059473,-0.18309,0.066362
733,0.016341,-0.019388,0.00010078,-0.076554,0.0085458,-0.16263,0.041027
734,0.019914,-0.033354,-0.0024977,-0.075579,0.012119,-0.14574,0.019264
735,0.023487,-0.045697,-0.0021729,-0.078178,0.017965,-0.12755,0.0059473
736,0.021863,-0.054792,-0.0031473,-0.083375,0.029333,-0.10481,-0.0037969
737,0.012443,-0.061937,-0.0050961,-0.090196,0.043625,-0.083375,-0.016789
738,-0.0018481,-0.063237,-0.0063954,-0.094743,0.055318,-0.070058,-0.030106
739,-0.013541,-0.056741,-0.0060706,-0.093769,0.063763,-0.060638,-0.043099
740,-0.016464,-0.042124,-0.00087364,-0.088572,0.072533,-0.052518,-0.052193
741,-0.012242,-0.027183,0.0052977,-0.079477,0.079354,-0.038876,-0.055441
742,-0.0037969,-0.015165,0.0075714,-0.06616,0.078055,-0.017114,-0.054142
743,0.0062721,-0.0050961,0.0065969,-0.056416,0.065712,0.0072465,-0.050244
744,0.017316,0.0036737,0.0043233,-0.05739,0.044275,0.024786,-0.047321
745,0.029658,0.011469,0.0020496,-0.070058,0.022512,0.032906,-0.046347
746,0.036479,0.014392,-0.0011985,-0.089221,0.0078962,0.033881,-0.049595
747,0.033881,0.012119,-0.007045,-0.10644,-0.00054884,0.029333,-0.057715
748,0.023812,0.0075714,-0.013866,-0.11845,-0.0096434,0.015692,-0.068758
749,0.0091954,0.0020496,-0.019712,-0.11943,-0.021337,-0.011267,-0.081751
750,-0.00022403,-0.0037969,-0.020362,-0.10644,-0.030431,-0.051219,-0.087597
751,0.00075039,-0.0044465,-0.01484,-0.080776,-0.034329,-0.098965,-0.08305
752,0.010819,0.0026992,-0.0076946,-0.052518,-0.034978,-0.15288,-0.072006
753,0.022512,0.015042,-0.0018481,-0.032705,-0.034004,-0.20908,-0.059014
754,0.028684,0.030957,0.0010752,-0.024909,-0.029132,-0.26234,-0.045697
755,0.026085,0.047847,-0.0015233,-0.022636,-0.018738,-0.30587,-0.035953
756,0.020239,0.064413,-0.007045,-0.020362,-0.0067202,-0.33185,-0.032705
757,0.017316,0.074806,-0.011267,-0.01614,-0.0031473,-0.32763,-0.034004
758,0.018615,0.077405,-0.010943,-0.0096434,-0.0063954,-0.29093,-0.039526
759,0.022512,0.072858,-0.007045,-0.0018481,-0.011917,-0.22856,-0.047971
760,0.028359,0.066686,-0.00022403,0.0078962,-0.014191,-0.15386,-0.053817
761,0.033881,0.058566,0.0065969,0.016666,-0.017114,-0.078178,-0.057715
762,0.03583,0.05272,0.009845,0.025111,-0.022311,-0.008669,-0.059989
763,0.031282,0.050121,0.0078962,0.03583,-0.030431,0.043625,-0.061937
764,0.019589,0.05207,0.0033489,0.0433,-0.038227,0.073832,-0.06551
765,0.0062721,0.057917,0.0014,0.041351,-0.044398,0.080328,-0.072656
766,-0.0024977,0.065712,0.0020496,0.030957,-0.047321,0.072208,-0.081751
767,-0.0015233,0.073182,0.0065969,0.016991,-0.045047,0.061814,-0.086298
768,0.0049729,0.080978,0.012443,0.0059473,-0.046022,0.055968,-0.085324
769,0.012443,0.087799,0.018615,0.00042559,-0.050894,0.057917,-0.078178
770,0.017965,0.090397,0.022188,0.0017248,-0.058689,0.065712,-0.068758
771,0.020564,0.083901,0.022512,0.0078962,-0.06681,0.071558,-0.059989
772,0.021863,0.06961,0.019914,0.018615,-0.07428,0.067986,-0.051544
773,0.023162,0.053044,0.013418,0.031932,-0.0824,0.05142,-0.042774
774,0.025111,0.045574,0.0069217,0.043625,-0.085973,0.022837,-0.032705
775,0.029333,0.050121,0.0062721,0.051745,-0.0837,-0.010943,-0.022311
776,0.03518,0.061489,0.01017,0.055968,-0.080127,-0.043423,-0.013866
777,0.040052,0.069285,0.015692,0.059865,-0.076879,-0.071357,-0.010293
778,0.041351,0.06831,0.019589,0.061814,-0.075255,-0.089546,-0.0076946
779,0.039078,0.061165,0.025436,0.062789,-0.071682,-0.094418,-0.0034721
780,0.03453,0.053694,0.033231,0.062789,-0.061288,-0.090521,0.0085458
781,0.031607,0.04395,0.041027,0.06084,-0.04992,-0.087922,0.029983
782,0.031282,0.032906,0.049472,0.053044,-0.043748,-0.087597,0.055318
783,0.028684,0.021863,0.061489,0.041351,-0.044073,-0.085648,0.077405
784,0.021538,0.012119,0.078379,0.029983,-0.046671,-0.078827,0.091372
785,0.010495,0.0049729,0.093645,0.020239,-0.048296,-0.065186,0.098517
786,0.0026992,0.00010078,0.10047,0.012119,-0.043423,-0.047646,0.098842
787,-0.0028225,-0.0047713,0.098842,0.0049729,-0.031081,-0.030431,0.095594
788,-0.0044465,-0.010618,0.096893,0.00042559,-0.017439,-0.018738,0.091047
789,-0.0073698,-0.017764,0.098193,-0.0044465,-0.0093186,-0.0089938,0.0852
790,-0.0096434,-0.023285,0.10144,-0.01484,-0.011592,-0.0021729,0.077405
791,-0.013866,-0.022636,0.10501,-0.029132,-0.022636,-0.00022403,0.071234
792,-0.020037,-0.017439,0.10891,-0.039526,-0.034978,-0.0037969,0.065712
793,-0.03238,-0.0073698,0.11476,-0.043099,-0.046022,-0.012567,0.062464
794,-0.04927,0.0039985,0.11801,-0.040825,-0.056741,-0.022961,0.06019
795,-0.067134,0.0085458,0.11411,-0.03303,-0.065186,-0.031081,0.057267
796,-0.081426,0.0056225,0.10404,-0.02361,-0.068434,-0.031081,0.05272
797,-0.087922,-0.0018481,0.090397,-0.016464,-0.06681,-0.018413,0.048497
798,-0.084999,-0.0083442,0.078704,-0.01614,-0.061613,0.0014,0.044599
799,-0.073631,-0.0096434,0.06961,-0.020037,-0.051219,0.021538,0.042326
800,-0.058365,-0.011267,0.059216,-0.021337,-0.036278,0.039078,0.042001
801,-0.047321,-0.01549,0.045899,-0.020687,-0.018088,0.053369,0.045899
802,-0.042124,-0.022961,0.029658,-0.021661,-0.0050961,0.06019,0.05142
803,-0.044398,-0.032055,0.012768,-0.021661,-0.0044465,0.05207,0.055968
804,-0.050244,-0.040175,-0.0015233,-0.015815,-0.017114,0.029658,0.055318
805,-0.057065,-0.043748,-0.0067202,-0.0028225,-0.035953,0.0023744,0.050771
806,-0.059339,-0.04115,-0.0028225,0.016666,-0.052518,-0.023285,0.040052
807,-0.054142,-0.035628,0.0049729,0.036479,-0.064536,-0.046671,0.02641
808,-0.042774,-0.026858,0.0072465,0.051745,-0.069733,-0.067459,0.013743
809,-0.027183,-0.015815,0.0033489,0.059541,-0.071032,-0.0837,0.0017248
810,-0.011267,-0.0076946,-0.0037969,0.062789,-0.072656,-0.095717,-0.013541
811,0.0069217,-0.0076946,-0.0063954,0.063113,-0.071682,-0.10579,-0.028482
812,0.024137,-0.0093186,-0.0031473,0.066686,-0.06551,-0.11293,-0.038227
813,0.037129,-0.008669,0.0033489,0.073507,-0.055116,-0.11586,-0.037902
814,0.042326,-0.0037969,0.0075714,0.080328,-0.047321,-0.11683,-0.031406
815,0.039727,0.00075039,0.0065969,0.081303,-0.044398,-0.11521,-0.027183
816,0.034206,0.0017248,0.0036737,0.07773,-0.046022,-0.11098,-0.026209
817,0.031607,0.0017248,0.0033489,0.070584,-0.046671,-0.10221,-0.027833
818,0.034206,0.0014,0.0010752,0.061165,-0.041475,-0.088247,-0.029132
819,0.036479,0.0017248,-0.0060706,0.053694,-0.026533,-0.058689,-0.025884
820,0.037778,0.003024,-0.017114,0.053694,-0.00087364,-0.013866,-0.014191
821,0.040052,0.0043233,-0.023935,0.061814,0.032257,0.039727,0.0049729
822,0.042326,0.0020496,-0.025234,0.072208,0.066362,0.092021,0.021538
823,0.044275,-0.0018481,-0.021012,0.076755,0.095594,0.1336,0.029009
824,0.047198,-0.0034721,-0.01484,0.072533,0.11378,0.16218,0.026735
825,0.048172,-0.0044465,-0.010943,0.061165,0.12223,0.18199,0.022188
826,0.048172,-0.010293,-0.01549,0.046873,0.11931,0.19271,0.022188
827,0.046873,-0.022311,-0.025234,0.033881,0.10989,0.19336,0.029658
828,0.048497,-0.035303,-0.034329,0.02641,0.097868,0.18037,0.042001
829,0.054993,-0.042124,-0.039526,0.025111,0.091372,0.14984,0.051745
830,0.062789,-0.038551,-0.043423,0.025436,0.090072,0.097868,0.05207
831,0.069285,-0.02426,-0.048296,0.025436,0.089423,0.029658,0.0433
832,0.066362,-0.0011985,-0.052518,0.027385,0.087149,-0.038551,0.030308
833,0.053694,0.022837,-0.056091,0.031282,0.083251,-0.095068,0.023487
834,0.036154,0.041027,-0.057715,0.032257,0.076431,-0.13242,0.028684
835,0.01829,0.046873,-0.056416,0.030633,0.065387,-0.13924,0.040377
836,0.0033489,0.044599,-0.052193,0.031607,0.054344,-0.10903,0.05207
837,-0.0083442,0.041351,-0.041475,0.038103,0.046873,-0.037577,0.061489
838,-0.013216,0.039727,-0.028157,0.049472,0.042651,0.077405,0.069934
839,-0.015815,0.04395,-0.01484,0.062789,0.040702,0.22682,0.073182
840,-0.014516,0.054019,-0.0060706,0.075456,0.042651,0.39214,0.067986
841,-0.0089938,0.067986,-0.0044465,0.081952,0.043625,0.53863,0.057592
842,-0.0034721,0.078379,-0.0080194,0.080653,0.039727,0.6312,0.046548
843,-0.00022403,0.07708,-0.0099683,0.073182,0.030957,0.64095,0.034855
844,0.00042559,0.06084,-0.0096434,0.066037,0.022837,0.56462,0.024461
845,-0.0021729,0.036154,-0.0093186,0.059216,0.017316,0.42755,0.015042
846,-0.0080194,0.014392,-0.012242,0.054344,0.016991,0.27586,0.0072465
847,-0.010618,0.0017248,-0.018413,0.049796,0.016016,0.15341,0.0026992
848,-0.0076946,-0.0015233,-0.022961,0.046223,0.0095202,0.082927,0.0033489
849,-0.0034721,-0.00087364,-0.024909,0.044275,-0.0024977,0.066686,0.0052977
850,-0.00087364,0.00075039,-0.023285,0.044275,-0.014516,0.092346,0.008221
851,-0.0018481,0.0039985,-0.022311,0.045574,-0.021661,0.14074,0.01017
852,-0.0047713,0.0091954,-0.023935,0.041676,-0.021661,0.19563,0.0095202
853,-0.008669,0.014717,-0.027508,0.033556,-0.015815,0.25085,0.0026992
854,-0.0067202,0.022512,-0.027508,0.026735,-0.010293,0.30445,-0.010293
855,-0.0015233,0.029983,-0.023935,0.022837,-0.0057458,0.35641,-0.026858
856,-0.00087364,0.036804,-0.017764,0.021213,-0.0028225,0.40903,-0.036278
857,-0.0076946,0.040702,-0.012567,0.016666,0.0026992,0.45808,-0.033354
858,-0.016789,0.041676,-0.0054209,0.011469,0.011469,0.49771,-0.017764
859,-0.020687,0.041676,0.0043233,0.009845,0.026735,0.51947,0.0069217
860,-0.01484,0.04395,0.016016,0.011794,0.054668,0.51719,0.032582
861,-0.0028225,0.047198,0.025111,0.014068,0.088124,0.48341,0.051096
862,0.011794,0.047523,0.023812,0.015692,0.11573,0.41131,0.061165
863,0.025111,0.038428,0.016991,0.01829,0.131,0.30445,0.065387
864,0.032257,0.024786,0.0091954,0.024137,0.1284,0.17225,0.066037
865,0.029333,0.011144,0.0072465,0.029983,0.11151,0.037778,0.058891
866,0.016341,0.0059473,0.011794,0.028684,0.084876,-0.074605,0.042975
867,-0.0024977,0.010495,0.018615,0.01829,0.053369,-0.14899,0.021863
868,-0.019712,0.014392,0.021213,0.008221,0.025111,-0.18666,0.0033489
869,-0.028807,0.012119,0.023812,0.00010078,0.010819,-0.19738,-0.010943
870,-0.028482,0.0014,0.025436,-0.0050961,0.0095202,-0.19446,-0.026858
871,-0.022636,-0.010943,0.025436,-0.0083442,0.015367,-0.19706,-0.048945
872,-0.013866,-0.022961,0.022837,-0.0099683,0.016991,-0.2146,-0.070707
873,-0.008669,-0.03303,0.01764,-0.012892,0.0085458,-0.2513,-0.084674
874,-0.0083442,-0.038551,0.012768,-0.021012,-0.0067202,-0.29482,-0.084024
875,-0.011267,-0.037252,0.0059473,-0.031406,-0.026858,-0.3299,-0.072331
876,-0.013541,-0.027833,-0.0034721,-0.04115,-0.048945,-0.34809,-0.059989
877,-0.01549,-0.013216,-0.01549,-0.044073,-0.063886,-0.35102,-0.057065
878,-0.017764,-0.00022403,-0.028482,-0.04115,-0.062912,-0.34712,-0.065835
879,-0.019388,0.0072465,-0.045372,-0.034329,-0.045697,-0.34582,-0.081101
880,-0.018738,0.0033489,-0.061937,-0.028807,-0.019388,-0.34809,-0.093444
881,-0.016789,-0.0083442,-0.07428,-0.027183,-0.00022403,-0.35296,-0.095068
882,-0.012567,-0.019712,-0.081426,-0.031081,-0.0028225,-0.35654,-0.089546
883,-0.0076946,-0.028482,-0.086298,-0.036602,-0.023935,-0.35946,-0.082076
884,-0.0031473,-0.037252,-0.088247,-0.041475,-0.049595,-0.36141,-0.076229
885,0.0023744,-0.047646,-0.086298,-0.039851,-0.068758,-0.36238,-0.072331
886,0.0065969,-0.053492,-0.082076,-0.03173,-0.075255,-0.35849,-0.068758
887,0.009845,-0.04992,-0.076554,-0.017764,-0.068434,-0.34907,-0.060313
888,0.011144,-0.036927,-0.071357,-0.0060706,-0.055441,-0.3312,-0.043748
889,0.011144,-0.017439,-0.066485,0.0010752,-0.040825,-0.30554,-0.026209
890,0.009845,-0.0015233,-0.059664,0.0026992,-0.029457,-0.27436,-0.008669
891,0.0085458,0.0078962,-0.052193,0.0036737,-0.023935,-0.24773,0.0046481
892,0.014392,0.008221,-0.042124,0.0043233,-0.021986,-0.22824,0.013418
893,0.027709,0.00010078,-0.030756,0.0039985,-0.018413,-0.21297,0.019589
894,0.042001,-0.0093186,-0.018413,0.0026992,-0.012242,-0.20453,0.027709
895,0.048172,-0.01614,-0.0018481,0.0010752,-0.0018481,-0.20453,0.038753
896,0.047847,-0.015165,0.01829,0.00042559,0.008221,-0.21102,0.052395
897,0.045574,-0.0096434,0.037129,-0.0028225,0.015042,-0.2159,0.062789
898,0.042326,-0.0015233,0.048497,-0.0083442,0.01894,-0.21395,0.065712
899,0.036804,0.0095202,0.053044,-0.014191,0.020564,-0.21037,0.065062
900,0.032906,0.019914,0.05207,-0.017439,0.024137,-0.20778,0.062464
901,0.033231,0.029658,0.047523,-0.01614,0.027709,-0.20193,0.059865
902,0.037454,0.03518,0.039402,-0.008669,0.029658,-0.19413,0.054019
903,0.045899,0.03583,0.030633,0.0039985,0.024461,-0.19316,0.042975
904,0.056617,0.032257,0.025111,0.013418,0.016341,-0.2042,0.028359
905,0.066362,0.024461,0.024461,0.013093,0.014717,-0.22597,0.017316
906,0.071883,0.012768,0.029009,0.0069217,0.024461,-0.25357,0.011794
907,0.074482,0.0014,0.034855,0.0010752,0.039402,-0.27696,0.0095202
908,0.074806,-0.0050961,0.039078,0.0036737,0.047198,-0.28638,0.0075714
909,0.073507,-0.0063954,0.039402,0.013743,0.041027,-0.27923,0.0023744
910,0.073832,0.00042559,0.037454,0.02706,0.025111,-0.25682,-0.0021729
911,0.07773,0.016991,0.033881,0.040052,0.0075714,-0.22564,-0.00054884
912,0.083901,0.038428,0.027709,0.050446,-0.010293,-0.19706,0.0088706
913,0.091696,0.060515,0.020564,0.056942,-0.029457,-0.18049,0.019264
914,0.097218,0.075131,0.011794,0.061814,-0.046022,-0.17562,0.024786
915,0.092021,0.079679,0.003024,0.065062,-0.056416,-0.17627,0.022188
916,0.073182,0.077405,-0.0067202,0.067661,-0.060313,-0.174,0.013743
917,0.048822,0.070259,-0.012567,0.067986,-0.058365,-0.16458,0.0033489
918,0.024461,0.061814,-0.010618,0.067661,-0.054792,-0.14866,-0.011267
919,0.0075714,0.054993,-0.00054884,0.06961,-0.048296,-0.12787,-0.027833
920,0.0017248,0.050771,0.01894,0.076106,-0.0405,-0.098965,-0.0405
921,0.0065969,0.05142,0.042001,0.089098,-0.033679,-0.064861,-0.044398
922,0.017316,0.057917,0.059216,0.10566,-0.03238,-0.040175,-0.041475
923,0.022837,0.06896,0.065712,0.12028,-0.035303,-0.042449,-0.032055
924,0.021213,0.077405,0.064413,0.1271,-0.038876,-0.068109,-0.022636
925,0.016991,0.080003,0.059216,0.12807,-0.0405,-0.10384,-0.014516
926,0.016991,0.078379,0.054993,0.12385,-0.038876,-0.14022,-0.0093186
927,0.020888,0.074157,0.05207,0.11411,-0.035953,-0.1727,-0.0063954
928,0.025761,0.071883,0.050446,0.10339,-0.030431,-0.19673,-0.0011985
929,0.027385,0.073832,0.048822,0.095269,-0.024909,-0.2068,0.0065969
930,0.023487,0.078055,0.048822,0.082927,-0.021661,-0.19673,0.021863
931,0.015692,0.082927,0.048497,0.062789,-0.020687,-0.16782,0.037454
932,0.0075714,0.087474,0.043625,0.040052,-0.018413,-0.12722,0.042651
933,0.0023744,0.089748,0.036479,0.020564,-0.017114,-0.084674,0.035505
934,-0.0050961,0.088773,0.029983,0.008221,-0.020362,-0.046347,0.022837
935,-0.013866,0.084876,0.027385,0.0026992,-0.03173,-0.018088,0.014717
936,-0.02426,0.07773,0.031282,0.0017248,-0.051219,0.0046481,0.012443
937,-0.027833,0.065062,0.041027,0.0036737,-0.07493,0.033231,0.015367
938,-0.024585,0.052395,0.057592,0.0065969,-0.095068,0.074482,0.022837
939,-0.017114,0.044924,0.075131,0.008221,-0.10514,0.12775,0.031607
940,-0.011592,0.043625,0.089748,0.011144,-0.10319,0.18589,0.040052
941,-0.012892,0.045249,0.10079,0.015042,-0.090196,0.24371,0.048822
942,-0.018413,0.042326,0.10859,0.017965,-0.068434,0.30087,0.055968
943,-0.022636,0.032582,0.11054,0.01829,-0.042449,0.35089,0.063763
944,-0.02361,0.019589,0.10339,0.01829,-0.016464,0.39409,0.064737
945,-0.022636,0.0085458,0.086824,0.01829,0.0039985,0.43242,0.056942
946,-0.022961,0.00042559,0.065712,0.020239,0.017965,0.46652,0.047198
947,-0.02361,-0.0063954,0.048497,0.021863,0.026735,0.50355,0.047198
948,-0.019063,-0.013866,0.039727,0.020888,0.027709,0.54838,0.054344
949,-0.015815,-0.021337,0.036804,0.018615,0.022837,0.60035,0.062139
950,-0.019712,-0.029457,0.03518,0.014717,0.017965,0.65686,0.067661
951,-0.034004,-0.034654,0.029009,0.008221,0.017965,0.71663,0.073182
952,-0.053817,-0.035628,0.016341,-0.0011985,0.018615,0.76762,0.07773
953,-0.07493,-0.03303,0.0023744,-0.010618,0.016666,0.78776,0.07708
954,-0.088896,-0.027183,-0.008669,-0.015815,0.015367,0.76242,0.073507
955,-0.092794,-0.024909,-0.012567,-0.015165,0.014392,0.69876,0.067986
956,-0.0837,-0.029782,-0.012242,-0.0080194,0.012768,0.62048,0.063438
957,-0.064536,-0.041799,-0.0099683,0.00075039,0.0085458,0.55162,0.057267
958,-0.043748,-0.054142,-0.0073698,0.0046481,0.003024,0.5003,0.045899
959,-0.027508,-0.064211,-0.0060706,0.00042559,-0.0028225,0.461,0.028034
960,-0.021012,-0.071357,-0.0067202,-0.0089938,-0.007045,0.41845,0.0078962
961,-0.022636,-0.075904,-0.013541,-0.021986,-0.010618,0.36129,-0.0047713
962,-0.028482,-0.077853,-0.026533,-0.033354,-0.012567,0.28626,-0.0050961
963,-0.033354,-0.073631,-0.038551,-0.0405,-0.01484,0.19986,0.00075039
964,-0.037577,-0.067459,-0.045372,-0.042449,-0.020037,0.11573,0.0046481
965,-0.042774,-0.061937,-0.046671,-0.043423,-0.025234,0.041676,0.003024
966,-0.048296,-0.059664,-0.043748,-0.044723,-0.024909,-0.018738,-0.0018481
967,-0.053168,-0.061613,-0.037577,-0.046022,-0.018738,-0.063237,-0.0067202
968,-0.055441,-0.064211,-0.032705,-0.046996,-0.013866,-0.093119,-0.0099683
969,-0.056091,-0.066485,-0.032055,-0.045372,-0.014191,-0.11066,-0.0099683
970,-0.054792,-0.069083,-0.037252,-0.039201,-0.016464,-0.1178,-0.0067202
971,-0.053492,-0.06551,-0.044073,-0.030756,-0.015815,-0.1178,-0.0063954
972,-0.055441,-0.053817,-0.049595,-0.022311,-0.011917,-0.11521,-0.007045
973,-0.058689,-0.039201,-0.048296,-0.022636,-0.0024977,-0.11098,-0.0050961
974,-0.061613,-0.028807,-0.044073,-0.029782,0.011144,-0.10709,0.00042559
975,-0.062587,-0.027508,-0.038876,-0.038551,0.024137,-0.10059,0.011144
976,-0.059664,-0.03303,-0.03238,-0.044398,0.033556,-0.089546,0.026085
977,-0.050569,-0.04115,-0.025559,-0.045372,0.038428,-0.076554,0.044599
978,-0.038551,-0.045047,-0.018738,-0.042124,0.039078,-0.065835,0.067011
979,-0.026209,-0.040825,-0.014191,-0.036278,0.037778,-0.061288,0.0865
980,-0.01614,-0.026858,-0.0099683,-0.030106,0.036154,-0.064536,0.098193
981,-0.008669,-0.0060706,-0.0089938,-0.027833,0.037454,-0.072331,0.10209
982,-0.0044465,0.013418,-0.012892,-0.030431,0.041027,-0.088572,0.098842
983,0.00010078,0.030308,-0.017439,-0.03303,0.046873,-0.11131,0.092021
984,0.0078962,0.045574,-0.019712,-0.036278,0.054344,-0.13404,0.080653
985,0.014392,0.057592,-0.020687,-0.042449,0.062789,-0.14834,0.06896
986,0.020239,0.061814,-0.020037,-0.051219,0.067336,-0.15288,0.058566
987,0.028034,0.062139,-0.019712,-0.061613,0.066362,-0.15516,0.052395
988,0.03453,0.058891,-0.023935,-0.070058,0.059216,-0.1597,0.048822
989,0.038428,0.054993,-0.029457,-0.072006,0.047523,-0.16555,0.044924
990,0.039727,0.055968,-0.03238,-0.070382,0.039727,-0.16782,0.042001
991,0.042001,0.065387,-0.030756,-0.069408,0.040052,-0.16977,0.035505
992,0.050121,0.078704,-0.027833,-0.069733,0.045249,-0.17627,0.023162
993,0.063438,0.092021,-0.028157,-0.073631,0.048497,-0.18894,0.003024
994,0.074806,0.096244,-0.031081,-0.077203,0.047847,-0.20193,-0.01614
995,0.077405,0.092346,-0.03303,-0.07428,0.044924,-0.21427,-0.031406
996,0.070259,0.083576,-0.032055,-0.065186,0.042975,-0.22402,-0.039851
997,0.060515,0.071558,-0.029457,-0.053492,0.042651,-0.23279,-0.043099
998,0.049147,0.060515,-0.021986,-0.040175,0.042651,-0.23538,-0.042774
999,0.03583,0.05272,-0.013541,-0.027508,0.041351,-0.23051,-0.035628
1000,0.026735,0.049796,-0.0073698,-0.016789,0.036154,-0.21979,-0.023935
1001,0.027385,0.050446,-0.00087364,-0.0076946,0.028684,-0.2068,-0.011592
1002,0.033556,0.054993,0.0065969,-0.0047713,0.021538,-0.19089,-0.0047713
1003,0.042001,0.063438,0.012768,-0.0096434,0.016016,-0.17302,-0.00087364
1004,0.050121,0.073182,0.014392,-0.014191,0.012119,-0.14964,0.0052977
1005,0.053694,0.080328,0.0085458,-0.016789,0.010495,-0.12333,0.011794
1006,0.050771,0.083901,-0.0021729,-0.010618,0.012768,-0.096367,0.016666
1007,0.042651,0.082277,-0.010293,0.0023744,0.016666,-0.072331,0.016341
1008,0.032906,0.074806,-0.013541,0.014392,0.01894,-0.060313,0.0088706
1009,0.027385,0.063438,-0.015165,0.019589,0.01894,-0.065835,-0.0034721
1010,0.029658,0.05207,-0.016464,0.023162,0.01829,-0.080451,-0.018088
1011,0.035505,0.051096,-0.01549,0.028359,0.01829,-0.088572,-0.033679
1012,0.040052,0.061489,-0.014516,0.031932,0.01829,-0.088572,-0.040175
1013,0.040702,0.071883,-0.013866,0.033881,0.01764,-0.084999,-0.031081
1014,0.035505,0.076755,-0.013541,0.03583,0.014068,-0.081751,-0.012892
1015,0.029658,0.074806,-0.013216,0.036479,0.011144,-0.077528,0.0056225
1016,0.02706,0.066362,-0.012242,0.038428,0.011144,-0.070382,0.015692
1017,0.029658,0.049147,-0.0099683,0.042975,0.011469,-0.058689,0.016991
1018,0.03518,0.028684,-0.0037969,0.050121,0.013093,-0.042449,0.012119
1019,0.036804,0.0085458,0.0036737,0.057917,0.021538,-0.024585,0.0026992
1020,0.032906,-0.010293,0.011144,0.066037,0.032257,-0.0076946,-0.0050961
1021,0.024461,-0.028807,0.020564,0.072208,0.040052,0.010495,-0.0080194
1022,0.017316,-0.045047,0.031932,0.072208,0.047847,0.031282,-0.0047713
1023,0.016341,-0.055766,0.039402,0.067661,0.054344,0.054019,0.0014
1024,0.019914,-0.060313,0.041676,0.06084,0.05207,0.073182,0.0052977
1025,0.023162,-0.056741,0.036154,0.055968,0.040377,0.084876,0.0052977
1026,0.022512,-0.048296,0.024137,0.054344,0.024461,0.087149,0.0056225
1027,0.015367,-0.034004,0.009845,0.054344,0.010819,0.082927,0.0069217
1028,0.0036737,-0.016464,0.0023744,0.054344,0.003024,0.072533,0.011144
1029,-0.0047713,0.0046481,0.0059473,0.057592,-0.00022403,0.057267,0.016341
1030,-0.007045,0.022837,0.015692,0.064413,0.0033489,0.039402,0.021863
1031,-0.0047713,0.032582,0.02641,0.076755,0.0095202,0.023812,0.025761
1032,-0.00054884,0.02641,0.034855,0.091047,0.014717,0.014717,0.027385
1033,0.0033489,0.0072465,0.042001,0.10371,0.012768,0.009845,0.025436
1034,0.0078962,-0.017114,0.049796,0.10891,-0.00054884,0.0085458,0.01764
1035,0.013743,-0.036927,0.06084,0.10664,-0.020687,0.011794,0.0069217
1036,0.019914,-0.046671,0.074157,0.099817,-0.044073,0.019589,-0.0044465
1037,0.021538,-0.046671,0.089423,0.088773,-0.061937,0.029009,-0.013866
1038,0.017965,-0.0405,0.10404,0.071883,-0.073955,0.032257,-0.019388
1039,0.011794,-0.03173,0.11378,0.054668,-0.079802,0.027385,-0.020037
1040,0.003024,-0.025559,0.11703,0.045249,-0.082725,0.01764,-0.017114
1041,-0.0031473,-0.017114,0.11216,0.04395,-0.080776,0.013743,-0.016789
1042,-0.0024977,-0.0093186,0.099167,0.050121,-0.072981,0.016666,-0.019712
1043,0.0039985,-0.0034721,0.083251,0.059216,-0.058365,0.023487,-0.022961
1044,0.014068,0.0023744,0.069285,0.06831,-0.042124,0.032582,-0.022311
1045,0.024137,0.0065969,0.058891,0.073507,-0.028157,0.040702,-0.015165
1046,0.025436,0.0069217,0.054344,0.075781,-0.02361,0.0433,-0.00087364
1047,0.013743,0.0059473,0.053369,0.073182,-0.028482,0.042001,0.017965
1048,-0.0063954,0.0020496,0.054019,0.067661,-0.043099,0.040377,0.033881
1049,-0.027183,-0.0054209,0.053694,0.062464,-0.061288,0.039078,0.042001
1050,-0.042449,-0.013866,0.051096,0.061489,-0.076879,0.038753,0.039402
1051,-0.044073,-0.017114,0.045899,0.062139,-0.085648,0.039727,0.030633
1052,-0.031081,-0.011592,0.034855,0.06019,-0.086623,0.041676,0.021213
1053,-0.008669,-0.0024977,0.022837,0.052395,-0.076229,0.048497,0.013418
1054,0.012443,0.0065969,0.011469,0.041027,-0.055441,0.060515,0.0085458
1055,0.023812,0.013093,0.0046481,0.028684,-0.029782,0.070259,0.0020496
1056,0.026735,0.01764,0.0062721,0.015042,-0.010293,0.074157,-0.0080194
1057,0.022837,0.021538,0.016666,0.0078962,-0.0018481,0.071883,-0.018413
1058,0.01764,0.02641,0.027709,0.0095202,-0.0018481,0.065387,-0.028482
1059,0.013093,0.032582,0.031932,0.021538,-0.0099683,0.056617,-0.039201
1060,0.012443,0.040377,0.024786,0.036479,-0.020362,0.047847,-0.047971
1061,0.016341,0.047847,0.012768,0.046873,-0.026533,0.037454,-0.050569
1062,0.023812,0.053044,0.00075039,0.047847,-0.023285,0.026735,-0.051219
1063,0.030957,0.054668,-0.0073698,0.041351,-0.017114,0.01894,-0.052843
1064,0.034206,0.05272,-0.0073698,0.031607,-0.0083442,0.015367,-0.059339
1065,0.031932,0.050121,-0.0028225,0.022512,0.00042559,0.016666,-0.069733
1066,0.025761,0.049147,0.0059473,0.019589,0.0078962,0.024137,-0.078503
1067,0.021213,0.048822,0.014392,0.023162,0.011469,0.041676,-0.085324
1068,0.01764,0.050121,0.021863,0.029983,0.012119,0.071558,-0.089871
1069,0.012768,0.054344,0.028034,0.039078,0.011469,0.10696,-0.09182
1070,0.01017,0.058566,0.030633,0.049147,0.0088706,0.13814,-0.0837
1071,0.009845,0.059865,0.025111,0.056942,0.0026992,0.16185,-0.060963
1072,0.013418,0.058891,0.014392,0.054993,-0.0028225,0.17647,-0.027183
1073,0.022188,0.057267,0.0010752,0.040377,-0.0015233,0.17874,0.0046481
1074,0.036479,0.054019,-0.012567,0.021213,0.0072465,0.16413,0.023162
1075,0.050771,0.047847,-0.026858,0.0088706,0.014392,0.13717,0.023487
1076,0.061165,0.040702,-0.039526,0.010819,0.014068,0.10469,0.0075714
1077,0.066037,0.03583,-0.047971,0.02641,0.0026992,0.074482,-0.015815
1078,0.065387,0.033556,-0.052843,0.042001,-0.014516,0.055643,-0.032705
1079,0.061814,0.032906,-0.057715,0.049147,-0.034329,0.051096,-0.03303
1080,0.058891,0.033231,-0.065186,0.044924,-0.051544,0.054668,-0.023285
1081,0.057592,0.031282,-0.071357,0.037454,-0.05739,0.055643,-0.0096434
1082,0.057267,0.02641,-0.075904,0.030308,-0.051219,0.048822,-0.0011985
1083,0.061814,0.017316,-0.077203,0.02641,-0.043748,0.032257,-0.00054884
1084,0.067661,0.0065969,-0.081101,0.026085,-0.037902,0.011794,-0.0083442
1085,0.072208,-0.0024977,-0.09117,0.027385,-0.032705,-0.0067202,-0.019388
1086,0.06831,-0.0054209,-0.10579,0.030633,-0.029782,-0.018413,-0.027833
1087,0.053369,-0.0024977,-0.11943,0.033881,-0.030756,-0.020037,-0.033354
1088,0.031932,0.003024,-0.1256,0.034855,-0.035953,-0.016464,-0.037252
1089,0.013418,0.012443,-0.12398,0.035505,-0.044398,-0.012892,-0.038227
1090,0.0039985,0.025761,-0.11683,0.034855,-0.055116,-0.014516,-0.034004
1091,0.0010752,0.035505,-0.10903,0.032906,-0.06616,-0.018738,-0.027183
1092,-0.0011985,0.038103,-0.10481,0.027709,-0.073955,-0.018413,-0.018088
1093,-0.0037969,0.032582,-0.10449,0.020564,-0.075255,-0.011917,-0.0096434
1094,-0.010618,0.025436,-0.10319,0.015367,-0.072006,-0.0028225,-0.0028225
1095,-0.021012,0.019914,-0.097017,0.013093,-0.061937,-0.0031473,0.0017248
1096,-0.031406,0.013743,-0.085973,0.011144,-0.045372,-0.01549,0.0049729
1097,-0.037577,0.0065969,-0.072981,0.0078962,-0.023285,-0.033679,0.010819
1098,-0.039526,0.00042559,-0.061288,0.0052977,-0.0031473,-0.052518,0.019264
1099,-0.035303,-0.0037969,-0.052843,0.0072465,0.008221,-0.06681,0.029333
1100,-0.030431,-0.0060706,-0.043748,0.011794,0.012768,-0.073306,0.038753
1101,-0.024909,-0.010618,-0.035628,0.01764,0.018615,-0.068434,0.0433
1102,-0.020687,-0.022311,-0.029782,0.021538,0.026085,-0.056091,0.042001
1103,-0.01614,-0.042124,-0.02426,0.019914,0.03583,-0.044398,0.038103
1104,-0.016789,-0.06681,-0.020362,0.014068,0.046548,-0.039201,0.037778
1105,-0.022961,-0.088572,-0.016464,0.011469,0.055643,-0.040175,0.042651
1106,-0.031081,-0.10481,-0.011267,0.015042,0.057267,-0.043748,0.054019
1107,-0.037577,-0.11553,0.0010752,0.023812,0.050771,-0.054467,0.066362
1108,-0.042124,-0.12235,0.020239,0.033231,0.040702,-0.072331,0.076755
1109,-0.045697,-0.12268,0.041351,0.03518,0.029983,-0.096042,0.077405
1110,-0.052193,-0.1178,0.059541,0.030633,0.019589,-0.12885,0.069934
1111,-0.060638,-0.11033,0.069934,0.021863,0.008221,-0.17367,0.061165
1112,-0.063886,-0.097991,0.070259,0.014392,-0.0041217,-0.22564,0.056292
1113,-0.05804,-0.081751,0.063763,0.010495,-0.016789,-0.28021,0.055643
1114,-0.04927,-0.064211,0.055968,0.0065969,-0.027833,-0.3325,0.056292
1115,-0.040175,-0.053168,0.049796,-0.00087364,-0.038876,-0.37895,0.054019
1116,-0.030756,-0.049595,0.044924,-0.0093186,-0.049595,-0.41598,0.046223
1117,-0.021337,-0.052843,0.040052,-0.013541,-0.059664,-0.44326,0.034855
1118,-0.010618,-0.057065,0.036479,-0.011267,-0.064861,-0.46048,0.025436
1119,-0.0034721,-0.058365,0.037129,-0.0041217,-0.06681,-0.46502,0.024786
1120,-0.0041217,-0.054467,0.041351,0.0049729,-0.064211,-0.4543,0.032582
1121,-0.0083442,-0.043423,0.047523,0.0091954,-0.061613,-0.43547,0.040052
1122,-0.0093186,-0.02426,0.053694,0.008221,-0.061613,-0.4124,0.043625
1123,-0.0024977,-0.0054209,0.059216,0.00010078,-0.058689,-0.38415,0.042651
1124,0.0091954,0.0072465,0.065387,-0.017764,-0.04992,-0.3403,0.038753
1125,0.01894,0.014068,0.073182,-0.034978,-0.030431,-0.27404,0.031607
1126,0.025761,0.016991,0.080653,-0.042774,-0.0047713,-0.19089,0.023812
1127,0.026085,0.019264,0.088448,-0.035628,0.01894,-0.10579,0.019914
1128,0.01764,0.024137,0.09397,-0.021337,0.034206,-0.024585,0.01829
1129,0.0056225,0.032906,0.096569,-0.0076946,0.044275,0.051096,0.017316
1130,-0.0028225,0.044599,0.093321,-0.00054884,0.05207,0.11931,0.018615
1131,-0.0028225,0.057917,0.086175,-0.0015233,0.058566,0.18004,0.028034
1132,0.0046481,0.067336,0.080653,-0.0063954,0.062789,0.23266,0.041351
1133,0.014717,0.06961,0.078704,-0.0089938,0.063438,0.27521,0.054668
1134,0.021538,0.066037,0.080653,-0.0057458,0.062139,0.30867,0.067011
1135,0.022512,0.061489,0.083576,0.0020496,0.066362,0.3327,0.075456
1136,0.019264,0.055968,0.08585,0.010495,0.07773,0.35512,0.078379
1137,0.014717,0.05142,0.08585,0.015367,0.092996,0.38078,0.076106
1138,0.010495,0.049796,0.07773,0.013418,0.10306,0.40579,0.071883
1139,0.0049729,0.052395,0.065062,0.0046481,0.10209,0.423,0.064737
1140,-0.00054884,0.057267,0.051745,-0.0041217,0.089748,0.4204,0.058566
1141,-0.0021729,0.06084,0.041351,-0.0089938,0.070259,0.39637,0.056617
1142,0.0046481,0.061814,0.038103,-0.0080194,0.054019,0.35804,0.058891
1143,0.020239,0.06084,0.038428,-0.0028225,0.049472,0.31354,0.064413
1144,0.038753,0.062464,0.040377,0.0043233,0.058891,0.27261,0.072533
1145,0.055643,0.065062,0.041676,0.011469,0.07773,0.24858,0.082277
1146,0.062464,0.067336,0.040702,0.013743,0.099167,0.2489,0.089748
1147,0.056292,0.06961,0.036154,0.010819,0.11411,0.28496,0.090397
1148,0.048172,0.074806,0.029009,0.0023744,0.1232,0.37006,0.083901
1149,0.04395,0.080328,0.025761,-0.0089938,0.12613,0.51265,0.073832
1150,0.0433,0.080653,0.030633,-0.020037,0.1232,0.69064,0.062464
1151,0.041676,0.074806,0.037778,-0.027833,0.11573,0.84103,0.050771
1152,0.039727,0.067011,0.046548,-0.03173,0.10209,0.90534,0.039402
1153,0.041676,0.058891,0.054344,-0.034329,0.084876,0.85662,0.027709
1154,0.047198,0.051745,0.056617,-0.036278,0.066686,0.70753,0.01829
1155,0.050121,0.047847,0.049472,-0.034978,0.052395,0.49803,0.016341
1156,0.044924,0.047198,0.035505,-0.028482,0.047198,0.27619,0.020564
1157,0.034206,0.048172,0.020564,-0.016464,0.049147,0.077405,0.025761
1158,0.021863,0.048497,0.0095202,-0.0037969,0.056942,-0.081751,0.028034
1159,0.014068,0.047198,0.003024,0.0088706,0.065062,-0.19901,0.02641
1160,0.012119,0.040702,0.00075039,0.01764,0.06896,-0.27761,0.022837
1161,0.016016,0.031282,-0.0021729,0.020239,0.065387,-0.32698,0.01829
1162,0.021863,0.021863,-0.0089938,0.017316,0.05272,-0.35849,0.0059473
1163,0.025111,0.013418,-0.015165,0.015042,0.034206,-0.38187,-0.016464
1164,0.024461,0.0078962,-0.018088,0.013418,0.015692,-0.39941,-0.045047
1165,0.023812,0.0075714,-0.021012,0.012768,-0.00022403,-0.41143,-0.072006
1166,0.023812,0.011469,-0.025559,0.012119,-0.016789,-0.41435,-0.092145
1167,0.02641,0.012768,-0.029457,0.010819,-0.040825,-0.39909,-0.10059
1168,0.027709,0.012119,-0.037902,0.0095202,-0.067784,-0.37083,-0.094743
1169,0.028359,0.012443,-0.04992,0.013418,-0.086623,-0.35264,-0.075579
1170,0.028034,0.015692,-0.059014,0.023162,-0.094743,-0.36758,-0.051868
1171,0.028684,0.021213,-0.062587,0.03518,-0.095717,-0.42442,-0.03238
1172,0.030633,0.024786,-0.059014,0.048497,-0.093769,-0.51472,-0.022311
1173,0.029658,0.022512,-0.052193,0.05272,-0.087272,-0.61606,-0.016464
1174,0.025436,0.013743,-0.045372,0.048497,-0.080451,-0.70051,-0.0063954
1175,0.017316,0.0056225,-0.039201,0.042326,-0.078178,-0.74436,0.010495
1176,0.0059473,0.0010752,-0.036278,0.039727,-0.08305,-0.73591,0.030633
1177,-0.0041217,0.0036737,-0.035303,0.042001,-0.09117,-0.68427,0.044924
1178,-0.011917,0.013093,-0.034978,0.044924,-0.097666,-0.61541,0.049472
1179,-0.014191,0.023487,-0.040175,0.046223,-0.098641,-0.5485,0.037778
1180,-0.013216,0.032257,-0.051544,0.042975,-0.093769,-0.49296,0.015692
1181,-0.007045,0.03518,-0.061937,0.032257,-0.085324,-0.45008,-0.007045
1182,0.0010752,0.032906,-0.069408,0.022188,-0.074605,-0.41728,-0.020362
1183,0.0069217,0.026085,-0.073955,0.016991,-0.063237,-0.38739,-0.022311
1184,0.0049729,0.01894,-0.080127,0.018615,-0.056091,-0.35232,-0.018088
1185,-0.0050961,0.015692,-0.092145,0.027385,-0.054467,-0.31171,-0.011267
1186,-0.019063,0.012443,-0.10838,0.037454,-0.04927,-0.26819,-0.0067202
1187,-0.025884,0.0072465,-0.12105,0.042326,-0.039851,-0.22077,-0.0096434
1188,-0.021986,-0.00022403,-0.12203,0.036479,-0.027183,-0.15905,-0.018413
1189,-0.010943,-0.0057458,-0.11163,0.021213,-0.015165,-0.075255,-0.027833
1190,-0.00022403,-0.0093186,-0.092794,0.0049729,-0.0050961,0.030308,-0.028807
1191,0.0020496,-0.014516,-0.070707,-0.0083442,-0.0011985,0.15438,-0.018088
1192,-0.0057458,-0.020037,-0.047971,-0.017764,-0.0076946,0.29178,0.00042559
1193,-0.025559,-0.025234,-0.03173,-0.022636,-0.021012,0.43794,0.014392
1194,-0.050569,-0.026858,-0.023285,-0.021661,-0.033354,0.58605,0.01894
1195,-0.071682,-0.026533,-0.018413,-0.017764,-0.039526,0.72962,0.014068
1196,-0.084349,-0.027183,-0.011917,-0.01549,-0.036602,0.86149,0.0052977
1197,-0.084999,-0.028482,-0.0031473,-0.01549,-0.021986,0.97225,-0.0015233
1198,-0.078178,-0.027833,0.0088706,-0.014191,-0.0031473,1.0567,-0.0015233
1199,-0.068758,-0.027183,0.022188,-0.011592,0.014068,1.1239,0.00042559
1200,-0.058365,-0.029782,0.030957,-0.0067202,0.023812,1.1753,0.003024
1201,-0.046671,-0.034329,0.032257,-0.0037969,0.02641,1.1973,0.0014
1202,-0.034329,-0.036278,0.024137,-0.0050961,0.02641,1.1629,-0.0024977
1203,-0.021337,-0.032705,0.015367,-0.011267,0.028034,1.0473,-0.0060706
1204,-0.007045,-0.020362,0.012119,-0.022311,0.030308,0.84428,-0.0096434
1205,0.0046481,-0.0063954,0.016991,-0.03303,0.030308,0.57241,-0.01484
1206,0.012119,0.0072465,0.028034,-0.040825,0.021863,0.27651,-0.022311
1207,0.012443,0.016016,0.040702,-0.044073,0.0059473,0.014717,-0.029782
1208,0.0043233,0.01829,0.050771,-0.040825,-0.011592,-0.17172,-0.032705
1209,-0.0099683,0.010495,0.057592,-0.030756,-0.02361,-0.27599,-0.032705
1210,-0.022311,-0.0028225,0.061814,-0.020037,-0.025234,-0.31366,-0.036602
1211,-0.025884,-0.016464,0.063113,-0.017114,-0.022636,-0.30879,-0.047971
1212,-0.024585,-0.021337,0.06019,-0.022636,-0.020687,-0.28151,-0.063886
1213,-0.022636,-0.017439,0.050446,-0.035628,-0.023935,-0.24448,-0.075255
1214,-0.018088,-0.0083442,0.037778,-0.04992,-0.029782,-0.20388,-0.072656
1215,-0.01549,-0.0011985,0.029009,-0.056741,-0.036602,-0.1688,-0.055116
1216,-0.016464,0.0075714,0.024786,-0.054792,-0.039201,-0.14411,-0.025559
1217,-0.020362,0.017965,0.025761,-0.045372,-0.032055,-0.12592,0.0095202
1218,-0.025234,0.02706,0.029333,-0.034004,-0.01549,-0.11033,0.039402
1219,-0.026533,0.034855,0.029009,-0.021986,0.00042559,-0.098316,0.056292
1220,-0.022961,0.041676,0.026085,-0.011267,0.0069217,-0.090845,0.058566
1221,-0.011592,0.047523,0.024461,-0.0011985,-0.0041217,-0.080776,0.049147
1222,0.0062721,0.050771,0.022837,0.0091954,-0.028157,-0.064861,0.03518
1223,0.028359,0.053044,0.022837,0.019914,-0.051544,-0.045047,0.022512
1224,0.045899,0.055318,0.022512,0.028034,-0.063886,-0.022636,0.015042
1225,0.053044,0.057917,0.024786,0.032257,-0.069083,-0.0044465,0.015042
1226,0.052395,0.058566,0.025436,0.032906,-0.068758,0.0033489,0.022512
1227,0.047198,0.057592,0.023162,0.032257,-0.063237,-0.00054884,0.03453
1228,0.040702,0.055643,0.017965,0.027709,-0.056416,-0.01484,0.045899
1229,0.036804,0.05272,0.013093,0.016016,-0.050569,-0.0405,0.05142
1230,0.03518,0.044599,0.0095202,0.0017248,-0.047971,-0.078178,0.049147
1231,0.035505,0.032906,0.0091954,-0.0080194,-0.047321,-0.12268,0.0433
1232,0.041351,0.01829,0.012119,-0.008669,-0.042124,-0.16133,0.042326
1233,0.053044,0.0036737,0.017965,0.0023744,-0.026533,-0.18959,0.046223
1234,0.066362,-0.0054209,0.025436,0.021213,-0.0037969,-0.20615,0.051096
1235,0.081303,-0.0050961,0.032257,0.042001,0.021213,-0.2042,0.050121
1236,0.094295,0.0049729,0.037778,0.057267,0.044924,-0.19024,0.043625
1237,0.10177,0.01894,0.037778,0.059865,0.061165,-0.18601,0.038428
1238,0.10242,0.029009,0.031282,0.047523,0.060515,-0.20583,0.038753
1239,0.094295,0.034855,0.024786,0.028684,0.0433,-0.25,0.048822
1240,0.081627,0.035505,0.024461,0.011469,0.019264,-0.30392,0.061165
1241,0.065387,0.034855,0.025111,-0.0024977,-0.0031473,-0.34647,0.066362
1242,0.050446,0.037129,0.022188,-0.011592,-0.019388,-0.36044,0.059216
1243,0.041351,0.0433,0.012768,-0.01549,-0.03303,-0.34452,0.040377
1244,0.039402,0.053044,0.00042559,-0.014516,-0.046996,-0.30879,0.019914
1245,0.039402,0.065712,-0.0054209,-0.0096434,-0.057715,-0.26722,0.0059473
1246,0.034855,0.07708,-0.0047713,-0.0050961,-0.060313,-0.23019,0.0036737
1247,0.021538,0.082277,-0.0011985,-0.0041217,-0.053817,-0.20648,0.0065969
1248,0.0017248,0.081303,0.0014,-0.0057458,-0.041475,-0.19738,0.01017
1249,-0.015815,0.079029,-0.0015233,-0.0054209,-0.027833,-0.18959,0.010495
1250,-0.025559,0.079029,-0.013216,0.00042559,-0.017114,-0.16425,0.012768
1251,-0.029782,0.083576,-0.030756,0.0059473,-0.013541,-0.12138,0.020564
1252,-0.031406,0.086824,-0.047321,0.0088706,-0.018088,-0.078178,0.031282
1253,-0.030756,0.085525,-0.058365,0.010819,-0.03173,-0.053492,0.033881
1254,-0.030431,0.079354,-0.061937,0.014068,-0.046671,-0.054792,0.029009
1255,-0.031081,0.070584,-0.05804,0.022837,-0.055116,-0.081101,0.023812
1256,-0.029132,0.059865,-0.050569,0.032906,-0.054467,-0.1256,0.02641
1257,-0.022961,0.051096,-0.045697,0.037454,-0.047971,-0.17887,0.03583
1258,-0.01549,0.044275,-0.041799,0.038428,-0.039851,-0.22726,0.050446
1259,-0.007045,0.040052,-0.041475,0.03583,-0.037902,-0.26137,0.064737
1260,-0.0031473,0.034206,-0.044398,0.035505,-0.038551,-0.28086,0.070259
1261,-0.0060706,0.022512,-0.045697,0.037454,-0.038227,-0.2893,0.064413
1262,-0.011917,0.0026992,-0.043748,0.042326,-0.033354,-0.28768,0.053369
1263,-0.017439,-0.021012,-0.042774,0.0433,-0.024585,-0.27826,0.045574
1264,-0.017764,-0.040175,-0.044073,0.038103,-0.013541,-0.26364,0.044599
1265,-0.015815,-0.04862,-0.046996,0.029009,-0.0037969,-0.24545,0.042975
1266,-0.012892,-0.042124,-0.050244,0.021213,0.0033489,-0.22012,0.036479
1267,-0.0099683,-0.024585,-0.04927,0.017965,0.008221,-0.18439,0.027385
1268,-0.0096434,-0.0063954,-0.04115,0.018615,0.015042,-0.1334,0.018615
1269,-0.0083442,0.0062721,-0.026209,0.020564,0.024461,-0.07428,0.0069217
1270,-0.0050961,0.009845,-0.007045,0.023812,0.031932,-0.020037,-0.010943
1271,-0.007045,0.0069217,0.013093,0.025436,0.039402,0.015692,-0.032705
1272,-0.013216,0.0020496,0.029983,0.029658,0.050446,0.032257,-0.053168
1273,-0.021337,-0.0037969,0.040702,0.036479,0.064413,0.03583,-0.066485
1274,-0.028157,-0.012892,0.040702,0.045249,0.076431,0.037454,-0.067134
1275,-0.034329,-0.021012,0.036804,0.052395,0.084551,0.0433,-0.056741
1276,-0.039526,-0.030106,0.031607,0.057592,0.092021,0.056292,-0.043099
1277,-0.042774,-0.039526,0.030957,0.057917,0.099167,0.074482,-0.029132
1278,-0.044073,-0.04862,0.03518,0.054019,0.10144,0.097868,-0.01549
1279,-0.042124,-0.055441,0.046223,0.047847,0.10014,0.1297,-0.0041217
1280,-0.034978,-0.05739,0.060515,0.042326,0.095269,0.17127,0.0056225
1281,-0.022311,-0.052518,0.069934,0.0433,0.087474,0.21837,0.012443
1282,-0.0083442,-0.042124,0.076106,0.048497,0.080978,0.25702,0.016666
1283,0.0033489,-0.032705,0.081303,0.054344,0.079679,0.27229,0.021213
1284,0.0069217,-0.027183,0.082602,0.057267,0.0865,0.25962,0.029658
1285,0.0010752,-0.029457,0.079029,0.056617,0.094295,0.23006,0.037778
1286,-0.011592,-0.038551,0.066362,0.05272,0.099817,0.20668,0.042001
1287,-0.028482,-0.050569,0.047523,0.045574,0.094295,0.2161,0.041676
1288,-0.042774,-0.05804,0.028684,0.036804,0.07773,0.27294,0.036479
1289,-0.052193,-0.063886,0.016991,0.028684,0.056617,0.35901,0.029009
1290,-0.053168,-0.068109,0.01764,0.026085,0.037454,0.43469,0.023812
1291,-0.046347,-0.070382,0.028359,0.029333,0.026085,0.4701,0.023487
1292,-0.029457,-0.067459,0.045574,0.037129,0.024786,0.45743,0.026085
1293,-0.008669,-0.05804,0.062789,0.042326,0.033881,0.41683,0.030957
1294,0.0056225,-0.046022,0.072858,0.038103,0.044599,0.37558,0.037454
1295,0.014068,-0.036602,0.073507,0.026085,0.047847,0.35641,0.045249
1296,0.019264,-0.031081,0.063113,0.015367,0.039078,0.36908,0.054019
1297,0.021538,-0.025559,0.047523,0.012119,0.026085,0.39864,0.062139
1298,0.020888,-0.019063,0.033231,0.01764,0.018615,0.42203,0.064737
1299,0.020239,-0.011917,0.02641,0.026085,0.018615,0.42203,0.058241
1300,0.023162,-0.0093186,0.026085,0.033881,0.026085,0.40059,0.044599
1301,0.03453,-0.013541,0.029658,0.033881,0.041027,0.37493,0.028359
1302,0.050446,-0.020687,0.026735,0.023812,0.065387,0.36129,0.011469
1303,0.064413,-0.02426,0.01764,0.01017,0.091696,0.35544,-0.00022403
1304,0.069934,-0.022636,0.0062721,0.003024,0.11054,0.33173,-0.00054884
1305,0.065062,-0.013216,-0.0024977,0.0069217,0.10891,0.26709,0.0091954
1306,0.05142,0.0059473,-0.0054209,0.016991,0.088124,0.15991,0.022512
1307,0.03453,0.031932,-0.0041217,0.028359,0.055968,0.032582,0.029658
1308,0.021213,0.056292,-0.00022403,0.033231,0.022512,-0.076879,0.021213
1309,0.017965,0.076106,0.0039985,0.029658,-0.0054209,-0.14639,-0.0044465
1310,0.026085,0.08585,0.0049729,0.019264,-0.025884,-0.17237,-0.040175
1311,0.036154,0.08585,0.0020496,0.0078962,-0.034004,-0.16458,-0.072331
1312,0.042975,0.080328,-0.00087364,-0.00087364,-0.030756,-0.13599,-0.089221
1313,0.044599,0.073182,0.0026992,0.0020496,-0.018413,-0.094743,-0.088896
1314,0.041351,0.069934,0.014392,0.019589,-0.0011985,-0.045047,-0.075255
1315,0.037129,0.073182,0.031607,0.04395,0.016016,0.0091954,-0.056416
1316,0.036479,0.083576,0.048822,0.064088,0.025761,0.065062,-0.042124
1317,0.039727,0.098842,0.063113,0.073182,0.025761,0.12418,-0.035628
1318,0.042326,0.11281,0.070259,0.072208,0.016341,0.18784,-0.034978
1319,0.040052,0.11833,0.073182,0.066362,0.00042559,0.24728,-0.036602
1320,0.031932,0.11638,0.070909,0.061814,-0.021337,0.28008,-0.042774
1321,0.025761,0.10826,0.063763,0.057267,-0.042774,0.26677,-0.055116
1322,0.023487,0.099492,0.053369,0.053044,-0.060963,0.20408,-0.075579
1323,0.028684,0.095594,0.044599,0.049796,-0.071682,0.10306,-0.098641
1324,0.036479,0.096569,0.038428,0.046873,-0.077853,-0.015165,-0.11748
1325,0.0433,0.10014,0.036154,0.045249,-0.088247,-0.12787,-0.12365
1326,0.045574,0.10242,0.033881,0.045249,-0.10871,-0.21882,-0.11715
1327,0.047523,0.10079,0.032257,0.048822,-0.13437,-0.28508,-0.09929
1328,0.051096,0.093645,0.034206,0.054993,-0.15321,-0.3325,-0.077528
1329,0.051745,0.081627,0.041676,0.065062,-0.15646,-0.36498,-0.061613
1330,0.046548,0.069285,0.054344,0.077405,-0.14444,-0.3822,-0.055116
1331,0.037778,0.058891,0.066686,0.083576,-0.12203,-0.38642,-0.057065
1332,0.033556,0.050446,0.072533,0.079029,-0.095393,-0.3809,-0.059989
1333,0.036154,0.045249,0.074157,0.06896,-0.070058,-0.3744,-0.060313
1334,0.040377,0.042326,0.074157,0.056292,-0.051219,-0.37538,-0.059339
1335,0.039727,0.040052,0.072533,0.0433,-0.038876,-0.37992,-0.051544
1336,0.032906,0.037454,0.074157,0.03453,-0.027833,-0.38122,-0.034004
1337,0.023812,0.032257,0.073507,0.029658,-0.01614,-0.37375,-0.0099683
1338,0.015692,0.024461,0.066686,0.027385,-0.0031473,-0.36206,0.0062721
1339,0.010495,0.017316,0.054668,0.023162,0.0014,-0.35264,0.010495
1340,0.0059473,0.011469,0.042001,0.017965,-0.00087364,-0.34842,0.0056225
1341,0.0010752,0.00075039,0.030308,0.013743,-0.0060706,-0.34647,0.0014
1342,-0.0060706,-0.01484,0.016991,0.01017,-0.0063954,-0.33218,0.0036737
1343,-0.016464,-0.032055,0.0014,0.008221,0.0014,-0.29417,0.012443
1344,-0.028807,-0.04862,-0.01484,0.0056225,0.013743,-0.23409,0.02641
1345,-0.035628,-0.062262,-0.028157,0.0020496,0.021213,-0.15678,0.042651
1346,-0.034654,-0.072656,-0.036927,-0.0050961,0.019264,-0.071682,0.054344
1347,-0.029782,-0.079802,-0.043748,-0.012892,0.012443,0.0069217,0.06084
1348,-0.027183,-0.0837,-0.050569,-0.01614,0.0020496,0.062464,0.062139
1349,-0.026533,-0.086298,-0.058689,-0.013541,-0.012892,0.081952,0.059865
1350,-0.026209,-0.087922,-0.06551,-0.0057458,-0.029132,0.067986,0.050121
1351,-0.02426,-0.088896,-0.06681,0.0033489,-0.037252,0.030957,0.034206
1352,-0.022961,-0.09117,-0.068109,0.011144,-0.03238,-0.018088,0.018615
1353,-0.023935,-0.094418,-0.070058,0.014068,-0.016789,-0.069408,0.010819
1354,-0.028157,-0.097017,-0.072331,0.013093,-0.00022403,-0.11228,0.009845
1355,-0.033354,-0.095393,-0.071357,0.0052977,0.01017,-0.13762,0.011469
1356,-0.036602,-0.090521,-0.068758,-0.0041217,0.0088706,-0.13892,0.015042
1357,-0.037577,-0.078503,-0.064861,-0.013216,0.0014,-0.11326,0.022188
1358,-0.037902,-0.061613,-0.05804,-0.021337,-0.010943,-0.060638,0.03583
1359,-0.034654,-0.041799,-0.046996,-0.029457,-0.021661,0.016341,0.054993
1360,-0.026858,-0.025559,-0.035953,-0.035953,-0.024585,0.12353,0.075131
1361,-0.01614,-0.015165,-0.032055,-0.042449,-0.017764,0.25767,0.093321
1362,-0.0076946,-0.0080194,-0.035628,-0.046996,-0.0057458,0.40124,0.10631
1363,-0.007045,-0.0021729,-0.043423,-0.047971,0.0085458,0.52661,0.11054
1364,-0.013541,0.0052977,-0.048945,-0.044723,0.016991,0.60262,0.10761
1365,-0.021337,0.01764,-0.054792,-0.036927,0.017316,0.60457,0.099817
1366,-0.027508,0.031607,-0.05804,-0.027183,0.014068,0.53279,0.092346
1367,-0.030106,0.042975,-0.055766,-0.024585,0.011469,0.41326,0.08585
1368,-0.026209,0.046548,-0.047321,-0.029132,0.0095202,0.28171,0.075781
1369,-0.020037,0.04395,-0.038227,-0.033354,0.0075714,0.16608,0.06084
1370,-0.010293,0.039078,-0.034329,-0.03238,0.0069217,0.080328,0.045899
1371,-0.0028225,0.031607,-0.035303,-0.027508,0.0075714,0.021538,0.033881
1372,-0.00022403,0.021538,-0.041475,-0.021661,0.0095202,-0.017764,0.025436
1373,0.00042559,0.010495,-0.049595,-0.014516,0.012119,-0.047971,0.020888
1374,0.0017248,0.0010752,-0.055766,-0.0063954,0.014392,-0.07493,0.021538
1375,0.0039985,-0.007045,-0.052843,-0.0015233,0.01829,-0.098316,0.024786
1376,0.0020496,-0.01484,-0.043423,0.00042559,0.022837,-0.11651,0.029333
1377,0.00010078,-0.019063,-0.036278,0.0036737,0.02706,-0.12917,0.030308
1378,0.0033489,-0.021986,-0.031081,0.0056225,0.030957,-0.14054,0.025761
1379,0.012119,-0.021986,-0.029132,0.0069217,0.037454,-0.15061,0.014068
1380,0.022512,-0.021661,-0.031081,0.0062721,0.045899,-0.15516,0.00010078
1381,0.031607,-0.020037,-0.036278,0.0033489,0.047523,-0.15191,-0.010293
1382,0.039727,-0.018738,-0.037902,0.0010752,0.041027,-0.14574,-0.013866
1383,0.046548,-0.020037,-0.034654,0.0049729,0.028359,-0.13827,-0.0099683
1384,0.049796,-0.022961,-0.029457,0.014068,0.013093,-0.13015,-0.00054884
1385,0.05207,-0.023935,-0.023285,0.021863,-0.0018481,-0.12138,0.009845
1386,0.054019,-0.01549,-0.017764,0.025436,-0.01614,-0.11358,0.016016
1387,0.050771,0.0010752,-0.0093186,0.023487,-0.026209,-0.10903,0.013418
1388,0.042326,0.023487,0.0026992,0.020239,-0.029132,-0.10871,0.00010078
1389,0.03453,0.048822,0.012119,0.018615,-0.027183,-0.11066,-0.018738
1390,0.032582,0.069934,0.016016,0.01894,-0.023285,-0.11196,-0.038551
1391,0.039078,0.080978,0.013418,0.01829,-0.017764,-0.11163,-0.056741
1392,0.05142,0.075781,0.0056225,0.012443,-0.012892,-0.11131,-0.070058
1393,0.063438,0.059216,-0.00087364,0.0017248,-0.014191,-0.11261,-0.076554
1394,0.066686,0.04395,-0.0060706,-0.012567,-0.019063,-0.11293,-0.077203
1395,0.056942,0.040702,-0.011267,-0.025234,-0.020687,-0.10774,-0.075579
1396,0.041351,0.046873,-0.013866,-0.031081,-0.015165,-0.09994,-0.069083
1397,0.029983,0.055318,-0.014516,-0.027833,-0.0044465,-0.094418,-0.05804
1398,0.024137,0.061165,-0.013866,-0.020037,0.0069217,-0.094418,-0.047646
1399,0.023487,0.061489,-0.013541,-0.011267,0.010819,-0.097017,-0.043099
1400,0.025436,0.056617,-0.014516,-0.0021729,0.0065969,-0.098641,-0.047971
1401,0.029333,0.048822,-0.014516,0.0078962,-0.0021729,-0.097991,-0.05804
1402,0.033881,0.041351,-0.011917,0.019264,-0.012567,-0.092794,-0.063237
1403,0.036154,0.036154,-0.0057458,0.029009,-0.023285,-0.083375,-0.05739
1404,0.03583,0.03583,0.0049729,0.03518,-0.033354,-0.072656,-0.042124
1405,0.034206,0.038103,0.013743,0.038103,-0.039526,-0.060313,-0.02426
1406,0.031932,0.042001,0.014717,0.039727,-0.039201,-0.042449,-0.0083442
1407,0.030957,0.044924,0.0065969,0.042651,-0.032055,-0.023285,0.0014
1408,0.030308,0.049147,-0.0050961,0.042975,-0.022636,-0.010293,0.0088706
1409,0.028684,0.05272,-0.01549,0.036154,-0.015165,-0.0076946,0.013093
1410,0.026735,0.054344,-0.019388,0.024786,-0.014191,-0.0083442,0.012768
1411,0.027709,0.052395,-0.014516,0.016991,-0.019712,-0.0031473,0.0059473
1412,0.034855,0.048172,-0.0073698,0.014392,-0.029132,0.0085458,-0.0034721
1413,0.039727,0.038753,-0.0018481,0.013093,-0.035303,0.025111,-0.0080194
1414,0.036479,0.024786,0.0036737,0.011794,-0.034329,0.040052,-0.0050961
1415,0.022512,0.0078962,0.009845,0.0078962,-0.025559,0.053044,0.0059473
1416,0.003024,-0.0093186,0.019264,0.0023744,-0.01614,0.065062,0.021863
1417,-0.011917,-0.026533,0.024461,-0.0015233,-0.0093186,0.067011,0.033556
1418,-0.017439,-0.041799,0.023487,-0.0018481,-0.0083442,0.046873,0.036154
1419,-0.015165,-0.049595,0.021538,0.0010752,-0.012242,0.0059473,0.032906
1420,-0.008669,-0.046347,0.024461,0.0078962,-0.018413,-0.040825,0.031607
1421,-0.0044465,-0.034978,0.033231,0.014392,-0.022636,-0.076879,0.038753
1422,-0.0037969,-0.020362,0.041676,0.019264,-0.02361,-0.10124,0.055643
1423,-0.0031473,-0.0089938,0.041676,0.022188,-0.021337,-0.11391,0.081952
1424,-0.0021729,-0.0047713,0.033881,0.025761,-0.018413,-0.12105,0.10729
1425,-0.00022403,-0.0037969,0.017965,0.030633,-0.012242,-0.1256,0.12093
1426,0.0010752,0.00042559,-0.00054884,0.040052,-0.00054884,-0.13112,0.12158
1427,0.0017248,0.009845,-0.010943,0.055968,0.016666,-0.14281,0.11508
1428,0.0020496,0.024137,-0.013216,0.071558,0.034855,-0.16198,0.10826
1429,0.0033489,0.038103,-0.011592,0.076755,0.049147,-0.18309,0.11054
1430,0.0059473,0.048172,-0.013216,0.069285,0.053044,-0.19478,0.1232
1431,0.0069217,0.054668,-0.021012,0.049472,0.048172,-0.19219,0.14269
1432,0.0039985,0.056617,-0.031406,0.023812,0.038753,-0.17497,0.16088
1433,-0.0018481,0.055643,-0.041799,0.00075039,0.026735,-0.14476,0.16835
1434,-0.0076946,0.05272,-0.048945,-0.013216,0.01829,-0.10579,0.16023
1435,-0.011592,0.047198,-0.052193,-0.018413,0.017965,-0.057715,0.14042
1436,-0.014191,0.037778,-0.051219,-0.018088,0.02641,0.0020496,0.11443
1437,-0.019063,0.024137,-0.046022,-0.015165,0.038753,0.074482,0.090722
1438,-0.023285,0.009845,-0.038876,-0.013216,0.046548,0.15536,0.076755
1439,-0.025884,-0.0047713,-0.030756,-0.01614,0.046548,0.23689,0.074157
1440,-0.026533,-0.018413,-0.022636,-0.022311,0.042651,0.31159,0.078055
1441,-0.027508,-0.024909,-0.01549,-0.027183,0.040702,0.37915,0.077405
1442,-0.026858,-0.026858,-0.012242,-0.027183,0.04395,0.44314,0.066362
1443,-0.025559,-0.024585,-0.01484,-0.02361,0.05142,0.50615,0.048497
1444,-0.019712,-0.021012,-0.020687,-0.016789,0.058241,0.56202,0.03453
1445,-0.014516,-0.017764,-0.025559,-0.0093186,0.055968,0.60424,0.032257
1446,-0.0080194,-0.012242,-0.026858,-0.0021729,0.045899,0.63185,0.044275
1447,-0.0011985,-0.0041217,-0.024585,0.0020496,0.028684,0.64225,0.062789
1448,0.003024,0.0010752,-0.017764,0.0046481,0.014068,0.62795,0.080003
1449,0.0062721,0.0033489,-0.011917,0.0088706,0.0078962,0.57533,0.092671
1450,0.0026992,0.0026992,-0.0047713,0.016016,0.015042,0.47724,0.10177
1451,-0.0076946,-0.0031473,0.0026992,0.026085,0.033231,0.34342,0.10859
1452,-0.022311,-0.012242,0.013418,0.032257,0.051096,0.20376,0.10924
1453,-0.034654,-0.021661,0.024786,0.034855,0.059541,0.087799,0.10436
1454,-0.039201,-0.028157,0.032582,0.033881,0.057267,0.014068,0.09397
1455,-0.035303,-0.028807,0.034206,0.031282,0.046223,-0.012567,0.081627
1456,-0.027183,-0.02361,0.030633,0.032906,0.032582,-0.00022403,0.072208
1457,-0.019063,-0.013866,0.025761,0.03518,0.019264,0.039078,0.065062
1458,-0.013866,-0.0015233,0.022188,0.033881,0.012768,0.088773,0.054344
1459,-0.0083442,0.012119,0.023487,0.026085,0.011144,0.13944,0.03518
1460,-0.00087364,0.027385,0.029658,0.015042,0.012443,0.19076,0.012443
1461,0.009845,0.045249,0.036479,0.0056225,0.019264,0.24436,-0.0080194
1462,0.019589,0.067336,0.041027,0.0026992,0.031607,0.30867,-0.019712
1463,0.025436,0.087474,0.044924,0.0072465,0.042326,0.38727,-0.022311
1464,0.028684,0.10079,0.046873,0.014068,0.046223,0.46133,-0.01484
1465,0.032582,0.10761,0.047847,0.016016,0.044599,0.50453,-0.0031473
1466,0.036154,0.11248,0.049147,0.013418,0.036804,0.512,0.010819
1467,0.037454,0.11346,0.054344,0.01017,0.021538,0.48861,0.020888
1468,0.034855,0.10566,0.062139,0.009845,0.0010752,0.43177,0.021213
1469,0.029983,0.088773,0.070584,0.012119,-0.020687,0.34082,0.0072465
1470,0.027709,0.068635,0.075781,0.015367,-0.040825,0.21837,-0.017764
1471,0.026085,0.049147,0.075781,0.01829,-0.058689,0.0852,-0.051219
1472,0.029333,0.030957,0.071234,0.018615,-0.072331,-0.036278,-0.085324
1473,0.037129,0.017316,0.062464,0.016991,-0.078827,-0.1308,-0.11131
1474,0.043625,0.012119,0.05142,0.01829,-0.080451,-0.20063,-0.12495
1475,0.046873,0.015692,0.037129,0.026085,-0.08305,-0.24903,-0.12917
1476,0.049796,0.025436,0.025111,0.037129,-0.085648,-0.28118,-0.1295
1477,0.05142,0.034206,0.021538,0.049147,-0.088247,-0.30392,-0.1321
1478,0.049147,0.039078,0.031932,0.054993,-0.089546,-0.32081,-0.1334
1479,0.041351,0.038428,0.053044,0.054993,-0.093444,-0.33575,-0.13275
1480,0.028684,0.036804,0.074157,0.051096,-0.098965,-0.34614,-0.13372
1481,0.013743,0.03453,0.0852,0.0433,-0.10319,-0.35296,-0.13599
1482,0.0010752,0.028359,0.081952,0.036804,-0.10221,-0.35979,-0.13534
1483,-0.011267,0.016666,0.075131,0.031282,-0.094093,-0.36791,-0.13437
1484,-0.02361,0.0023744,0.067986,0.021863,-0.0837,-0.37538,-0.1334
1485,-0.032705,-0.0080194,0.061814,0.010819,-0.077853,-0.38155,-0.13112
1486,-0.034978,-0.0093186,0.055318,0.00042559,-0.078827,-0.3861,-0.12722
1487,-0.029132,-0.0024977,0.045899,-0.0057458,-0.080127,-0.38252,-0.123
1488,-0.019388,0.0085458,0.033231,-0.0089938,-0.076879,-0.3718,-0.12008
1489,-0.008669,0.015367,0.017965,-0.012242,-0.070058,-0.35459,-0.11878
1490,-0.0011985,0.013418,0.0049729,-0.016464,-0.060313,-0.33445,-0.11748
1491,0.0023744,0.0046481,-0.0037969,-0.020687,-0.050244,-0.31269,-0.11326
1492,0.0049729,-0.0076946,-0.0073698,-0.023285,-0.042449,-0.28833,-0.10449
1493,0.0072465,-0.017114,-0.0024977,-0.023935,-0.043748,-0.27144,-0.095717
1494,0.008221,-0.018413,0.0088706,-0.021661,-0.052518,-0.26299,-0.086298
1495,0.0052977,-0.011592,0.021863,-0.019712,-0.063561,-0.25975,-0.075579
1496,-0.00054884,0.0026992,0.034855,-0.016789,-0.071357,-0.25715,-0.063886
1497,-0.0054209,0.019914,0.048497,-0.010943,-0.07428,-0.24903,-0.052843
1498,-0.0080194,0.031282,0.058241,-0.0024977,-0.073306,-0.23246,-0.048296
1499,-0.0096434,0.033881,0.061165,0.0075714,-0.071357,-0.20843,-0.04927
1500,-0.011917,0.027709,0.059865,0.017965,-0.068434,-0.18471,-0.047971
1501,-0.01549,0.016666,0.061814,0.023812,-0.061613,-0.16425,-0.036602
1502,-0.01549,0.0056225,0.070584,0.025436,-0.050894,-0.15093,-0.013866
1503,-0.014191,0.0017248,0.08585,0.027385,-0.043423,-0.13957,0.014068
1504,-0.0096434,0.0075714,0.10177,0.034206,-0.042774,-0.11975,0.032906
1505,-0.0034721,0.015692,0.11183,0.045574,-0.046022,-0.087272,0.035505
1506,0.0010752,0.017965,0.11183,0.062139,-0.044073,-0.049595,0.024461
1507,0.0033489,0.011144,0.10371,0.07773,-0.033354,-0.01614,0.0065969
1508,0.0023744,-0.00054884,0.092996,0.0865,-0.012892,0.0026992,-0.0093186
1509,0.0023744,-0.015165,0.0852,0.08585,0.0049729,0.0065969,-0.019712
1510,0.0049729,-0.026209,0.080003,0.078055,0.012768,-0.00054884,-0.020687
1511,0.01017,-0.027183,0.078704,0.064088,0.010495,-0.012892,-0.012892
1512,0.012443,-0.021012,0.078379,0.045899,0.003024,-0.023935,-0.00087364
1513,0.010495,-0.012567,0.073832,0.029333,-0.0021729,-0.022636,0.012119
1514,0.0072465,-0.0073698,0.063763,0.021213,-0.0015233,-0.0099683,0.023487
1515,0.0049729,-0.0083442,0.05142,0.01829,0.0017248,0.0075714,0.031932
1516,0.0017248,-0.01614,0.045899,0.014717,0.003024,0.02641,0.037129
1517,-0.0047713,-0.027508,0.048497,0.0085458,0.0033489,0.044599,0.04395
1518,-0.014516,-0.0405,0.054019,-0.0021729,0.0036737,0.057267,0.053369
1519,-0.025884,-0.055766,0.056292,-0.012892,0.0065969,0.058566,0.066362
1520,-0.03303,-0.069083,0.057917,-0.021661,0.014068,0.041676,0.079354
1521,-0.029782,-0.071357,0.060515,-0.026533,0.026735,0.0039985,0.089748
1522,-0.014516,-0.05804,0.065712,-0.028807,0.045249,-0.046671,0.097543
1523,0.0072465,-0.034004,0.069934,-0.025884,0.06961,-0.09929,0.10469
1524,0.024461,-0.0093186,0.069285,-0.020687,0.094295,-0.13924,0.10956
1525,0.032582,0.0095202,0.062464,-0.012242,0.11054,-0.16133,0.10826
1526,0.033881,0.019589,0.051096,0.0010752,0.11671,-0.16588,0.10047
1527,0.027385,0.01764,0.039078,0.015042,0.11866,-0.15841,0.086175
1528,0.016666,0.0039985,0.025436,0.021863,0.12028,-0.14476,0.070909
1529,0.0056225,-0.015165,0.012768,0.01894,0.12028,-0.1295,0.057592
1530,0.0020496,-0.028157,0.0046481,0.011469,0.11573,-0.11228,0.048822
1531,0.0046481,-0.030431,0.0026992,0.0059473,0.10664,-0.094418,0.044599
1532,0.013743,-0.026858,0.0036737,0.0052977,0.098517,-0.079477,0.050771
1533,0.021213,-0.023285,0.0062721,0.0088706,0.09397,-0.067459,0.062464
1534,0.024461,-0.021012,0.0043233,0.016341,0.091696,-0.062587,0.072208
1535,0.024786,-0.017114,-0.0047713,0.025436,0.087149,-0.069083,0.06961
1536,0.026735,-0.012892,-0.01614,0.03518,0.076431,-0.083375,0.054019
1537,0.029333,-0.0067202,-0.029132,0.0433,0.061165,-0.097017,0.039402
1538,0.029333,0.00075039,-0.039201,0.049147,0.045249,-0.10806,0.03453
1539,0.028034,0.01017,-0.043099,0.053044,0.033556,-0.11651,0.036479
1540,0.033231,0.024461,-0.043099,0.055318,0.025436,-0.11715,0.039078
1541,0.046548,0.040702,-0.044398,0.06084,0.022512,-0.10611,0.040052
1542,0.064088,0.051096,-0.048296,0.067986,0.020564,-0.084999,0.040052
1543,0.07708,0.049796,-0.055441,0.070259,0.015692,-0.053168,0.040052
1544,0.079029,0.039078,-0.067134,0.062464,0.0078962,-0.0083442,0.038753
1545,0.074482,0.02706,-0.079802,0.045574,-0.0011985,0.045249,0.036154
1546,0.064413,0.018615,-0.092469,0.025111,-0.0080194,0.10566,0.031932
1547,0.054019,0.018615,-0.10189,0.0072465,-0.011592,0.17192,0.024461
1548,0.047523,0.022512,-0.10741,-0.0047713,-0.010943,0.24403,0.017316
1549,0.042001,0.021538,-0.10806,-0.012892,-0.0050961,0.31971,0.012768
1550,0.038428,0.014717,-0.10676,-0.020037,0.0056225,0.40026,0.0091954
1551,0.034855,0.0065969,-0.10676,-0.021986,0.013743,0.48634,0.0065969
1552,0.030308,0.0033489,-0.11228,-0.019388,0.014068,0.57663,0.0069217
1553,0.024137,0.0095202,-0.12105,-0.015815,0.0085458,0.65978,0.011144
1554,0.017965,0.021863,-0.12398,-0.013541,0.003024,0.71598,0.022188
1555,0.012768,0.032582,-0.1204,-0.014191,0.0065969,0.72637,0.037129
1556,0.0085458,0.039727,-0.11618,-0.014516,0.016991,0.68155,0.046548
1557,0.0043233,0.044275,-0.11521,-0.016464,0.026735,0.57826,0.046548
1558,-0.00087364,0.048497,-0.11975,-0.021661,0.028684,0.42625,0.040702
1559,-0.0041217,0.050446,-0.1256,-0.028157,0.024137,0.25053,0.031932
1560,-0.0037969,0.048497,-0.12755,-0.033354,0.021213,0.081952,0.022837
1561,0.0017248,0.04395,-0.1256,-0.036278,0.02641,-0.04927,0.016341
1562,0.0062721,0.037778,-0.11813,-0.03238,0.037778,-0.13242,0.0095202
1563,0.0036737,0.029983,-0.10676,-0.024585,0.054993,-0.16782,-0.00087364
1564,-0.0037969,0.022512,-0.097017,-0.014516,0.073507,-0.16458,-0.01549
1565,-0.008669,0.016666,-0.090196,-0.0047713,0.090397,-0.13015,-0.029782
1566,-0.008669,0.011469,-0.084674,0.0059473,0.10177,-0.075579,-0.041799
1567,-0.0063954,0.0062721,-0.080127,0.019589,0.10469,-0.021661,-0.04992
1568,-0.0044465,0.0049729,-0.075255,0.032257,0.095919,0.012119,-0.053817
1569,-0.0021729,0.0091954,-0.069408,0.037129,0.075456,0.018615,-0.047321
1570,-0.00087364,0.016666,-0.065186,0.031282,0.045899,-0.00087364,-0.029782
1571,-0.0028225,0.026085,-0.065186,0.01829,0.015692,-0.035628,-0.0037969
1572,-0.0050961,0.033556,-0.073306,-0.00054884,-0.0041217,-0.068758,0.022188
1573,-0.010293,0.03453,-0.085324,-0.01484,-0.010293,-0.084999,0.041676
1574,-0.019388,0.026735,-0.098641,-0.020362,-0.0083442,-0.0824,0.054993
1575,-0.026533,0.016341,-0.10968,-0.017114,-0.0080194,-0.067459,0.061165
1576,-0.026209,0.0078962,-0.11488,-0.011267,-0.012567,-0.046671,0.064088
1577,-0.018088,0.0052977,-0.11456,-0.010618,-0.020362,-0.020687,0.064088
1578,-0.011917,0.0046481,-0.10936,-0.017439,-0.028157,0.009845,0.063113
1579,-0.010943,0.0043233,-0.10091,-0.028482,-0.037252,0.036479,0.062139
1580,-0.01484,0.0010752,-0.090521,-0.037902,-0.047646,0.048822,0.062464
1581,-0.023935,-0.0080194,-0.080127,-0.042774,-0.054467,0.045899,0.059541
1582,-0.035953,-0.017114,-0.069408,-0.042124,-0.054467,0.032257,0.047847
1583,-0.048296,-0.021661,-0.056416,-0.035628,-0.04862,0.012443,0.025111
1584,-0.055766,-0.025559,-0.042124,-0.026209,-0.039851,-0.0073698,0.00042559
1585,-0.055441,-0.029132,-0.028482,-0.013866,-0.032705,-0.021337,-0.013866
1586,-0.050244,-0.028807,-0.013866,0.0010752,-0.026533,-0.028807,-0.014191
1587,-0.042449,-0.023935,0.0023744,0.016341,-0.017764,-0.036927,-0.0024977
1588,-0.033354,-0.01484,0.01894,0.030308,-0.0041217,-0.052518,0.017316
1589,-0.026858,-0.0076946,0.033556,0.039727,0.01017,-0.080776,0.038428
1590,-0.02426,-0.0015233,0.045574,0.045899,0.022512,-0.12398,0.053694
1591,-0.023285,0.0010752,0.056617,0.050446,0.030633,-0.18342,0.062464
1592,-0.025559,-0.00087364,0.064088,0.05142,0.033231,-0.25292,0.064413
1593,-0.031406,-0.0073698,0.066037,0.049147,0.022188,-0.32016,0.058241
1594,-0.035953,-0.012567,0.058891,0.045899,0.00010078,-0.3705,0.04395
1595,-0.035628,-0.012892,0.048172,0.044924,-0.027183,-0.39259,0.025111
1596,-0.025884,-0.007045,0.038753,0.046223,-0.051868,-0.38447,0.008221
1597,-0.011592,0.003024,0.03518,0.049472,-0.069083,-0.34614,-0.0031473
1598,0.00010078,0.012443,0.036804,0.050771,-0.076879,-0.2867,-0.0063954
1599,0.0059473,0.01894,0.044599,0.046873,-0.072981,-0.21557,-0.00022403
1600,0.0059473,0.023487,0.056617,0.041676,-0.057715,-0.13404,0.011144
1601,0.003024,0.029333,0.071558,0.0433,-0.037902,-0.038551,0.023162
1602,0.0039985,0.03583,0.084226,0.051745,-0.018088,0.066037,0.030957
1603,0.0046481,0.045249,0.091372,0.061814,-0.0015233,0.1651,0.032257
1604,0.0010752,0.056292,0.095919,0.067011,0.0085458,0.23624,0.029658
1605,-0.0060706,0.066362,0.10047,0.066362,0.0052977,0.26384,0.02641
1606,-0.01549,0.070909,0.10306,0.065712,-0.010293,0.24566,0.023812
1607,-0.021661,0.06961,0.10436,0.067336,-0.029782,0.19011,0.024786
1608,-0.021012,0.063438,0.10534,0.072533,-0.043423,0.11703,0.027385
1609,-0.015165,0.055318,0.10144,0.075131,-0.046671,0.047523,0.027709
1610,-0.0073698,0.045899,0.091372,0.070909,-0.04115,-0.0044465,0.020888
1611,0.0020496,0.042326,0.073507,0.062464,-0.030106,-0.032055,0.01017
1612,0.0088706,0.046548,0.053369,0.05142,-0.021986,-0.037252,0.0020496
1613,0.0014,0.046223,0.040377,-0.0073698,-0.044723,-0.02361,0.0043233
1614,-0.033679,0.024461,0.039402,-0.1636,-0.1269,0.0033489,0.014068
1615,-0.078827,-0.0089938,0.047847,-0.34809,-0.22954,0.048822,0.024137
1616,-0.095393,-0.023285,0.056617,-0.42085,-0.27241,0.10696,0.024786
1617,-0.067459,-0.0031473,0.06084,-0.32925,-0.23019,0.15179,0.015692
1618,-0.011267,0.038103,0.062464,-0.13307,-0.13567,0.15406,0.0043233
1619,0.053044,0.079679,0.06084,0.069934,-0.038551,0.10177,-0.0028225
1620,0.10664,0.10599,0.052395,0.21317,0.029009,0.008221,-0.0021729
1621,0.13912,0.11411,0.038428,0.27359,0.057917,-0.10221,0.0043233
1622,0.14756,0.10631,0.025436,0.27067,0.054344,-0.20323,0.010495
1623,0.13749,0.092346,0.020564,0.23559,0.033881,-0.27599,0.0069217
1624,0.11768,0.081627,0.025436,0.19466,0.012768,-0.32016,-0.0044465
1625,0.097218,0.075781,0.033556,0.1638,-0.0057458,-0.34744,-0.012567
1626,0.084876,0.076431,0.038103,0.14529,-0.016464,-0.36628,-0.012892
1627,0.083901,0.082277,0.032257,0.13749,-0.019712,-0.37473,-0.0037969
1628,0.085525,0.089098,0.019914,0.13717,-0.013216,-0.37018,0.0088706
1629,0.084551,0.091047,0.008221,0.14464,-0.00054884,-0.35134,0.020564
1630,0.079029,0.087474,0.0010752,0.15438,0.01017,-0.31918,0.031932
1631,0.070909,0.077405,0.0017248,0.14009,0.0010752,-0.28118,0.044599
1632,0.046223,0.049147,0.0088706,0.030957,-0.06616,-0.24448,0.049796
1633,0.0039985,0.0049729,0.020888,-0.17107,-0.18374,-0.20258,0.045899
1634,-0.029782,-0.028157,0.033231,-0.32731,-0.26527,-0.14054,0.033231
1635,-0.028157,-0.027183,0.039402,-0.31951,-0.24448,-0.050244,0.014392
1636,0.008221,0.0036737,0.036479,-0.15776,-0.13275,0.057267,-0.008669
1637,0.063438,0.045249,0.026735,0.061489,0.012768,0.16543,-0.031081
1638,0.11313,0.079354,0.015692,0.24143,0.13587,0.25507,-0.050894
1639,0.14107,0.097868,0.0088706,0.33335,0.20733,0.31127,-0.068109
1640,0.14237,0.10112,0.008221,0.34245,0.22129,0.3431,-0.075255
1641,0.12645,0.09462,0.014717,0.30217,0.19596,0.37655,-0.074605
1642,0.10306,0.082602,0.025436,0.24923,0.15406,0.44119,-0.067784
1643,0.081627,0.071558,0.035505,0.2109,0.11573,0.54935,-0.055441
1644,0.062789,0.062789,0.042326,0.19758,0.09397,0.67927,-0.041799
1645,0.05272,0.056617,0.049147,0.20181,0.091696,0.78646,-0.03173
1646,0.047847,0.051096,0.057917,0.2096,0.10209,0.83193,-0.02426
1647,0.048172,0.041351,0.064413,0.21252,0.11573,0.8001,-0.011267
1648,0.053694,0.026735,0.067336,0.2083,0.12645,0.69974,0.0059473
1649,0.06084,0.010819,0.064088,0.19109,0.12353,0.54643,0.024137
1650,0.051096,-0.013216,0.056292,0.11054,0.078055,0.34894,0.036804
1651,0.011794,-0.056091,0.042001,-0.080451,-0.034329,0.11898,0.041676
1652,-0.04115,-0.10156,0.024137,-0.29385,-0.15905,-0.11001,0.037454
1653,-0.068109,-0.12008,0.0039985,-0.3783,-0.20875,-0.28963,0.024786
1654,-0.055441,-0.10449,-0.011592,-0.2906,-0.16393,-0.38642,0.0072465
1655,-0.020037,-0.066485,-0.02361,-0.097017,-0.063237,-0.39941,-0.0096434
1656,0.012119,-0.026858,-0.030431,0.096569,0.040052,-0.35264,-0.021986
1657,0.025436,0.0010752,-0.035303,0.22162,0.11248,-0.27761,-0.032055
1658,0.023812,0.014068,-0.0405,0.25897,0.14237,-0.19511,-0.039201
1659,0.014392,0.014068,-0.047321,0.23039,0.13652,-0.11975,-0.043423
1660,-0.00054884,0.008221,-0.053168,0.1716,0.11118,-0.059664,-0.046996
1661,-0.015815,0.0023744,-0.054792,0.11443,0.080978,-0.013866,-0.047971
1662,-0.028482,-0.0031473,-0.051219,0.074482,0.057592,0.017316,-0.046347
1663,-0.036602,-0.0089938,-0.043748,0.051096,0.046223,0.026735,-0.043423
1664,-0.041799,-0.015815,-0.034004,0.038103,0.044275,0.0091954,-0.036927
1665,-0.045047,-0.023935,-0.02361,0.027709,0.046873,-0.031081,-0.026209
1666,-0.047646,-0.031406,-0.015815,0.014717,0.046548,-0.087922,-0.011267
1667,-0.048296,-0.036278,-0.011592,-0.0021729,0.042001,-0.15256,0.0043233
1668,-0.052193,-0.045697,-0.011592,-0.042774,0.021213,-0.21427,0.014717
1669,-0.071357,-0.072981,-0.0099683,-0.1662,-0.04927,-0.26916,0.013418
1670,-0.10319,-0.11066,-0.0054209,-0.35491,-0.15873,-0.31236,0.0036737
1671,-0.12203,-0.12917,0.0017248,-0.47769,-0.22986,-0.33445,-0.0076946
1672,-0.11066,-0.10676,0.0091954,-0.43839,-0.20908,-0.32958,-0.013866
1673,-0.075579,-0.052843,0.016991,-0.26559,-0.11618,-0.30262,-0.0096434
1674,-0.035628,0.0033489,0.025111,-0.055441,-0.0050961,-0.26397,0.0020496
1675,-0.0037969,0.037129,0.036804,0.10566,0.078704,-0.22564,0.013093
1676,0.010495,0.044599,0.048822,0.18069,0.11378,-0.19673,0.022512
1677,0.011794,0.038103,0.061165,0.18037,0.11086,-0.18439,0.033231
1678,0.00075039,0.028684,0.070584,0.13814,0.088124,-0.18536,0.046873
1679,-0.011592,0.023487,0.074482,0.085525,0.057592,-0.19121,0.061489
1680,-0.019063,0.019264,0.071883,0.042651,0.031282,-0.19186,0.071234
1681,-0.024909,0.015042,0.066037,0.015692,0.016666,-0.18504,0.072208
1682,-0.028482,0.013743,0.063763,0.0043233,0.015042,-0.16977,0.064413
1683,-0.028157,0.013418,0.067011,-0.0024977,0.020239,-0.14444,0.053694
1684,-0.022636,0.011144,0.075456,-0.0096434,0.020888,-0.10579,0.046223
1685,-0.012567,0.0062721,0.0865,-0.015165,0.013093,-0.054792,0.042975
1686,-0.0050961,0.00075039,0.093645,-0.017764,-0.0024977,0.013418,0.040052
1687,-0.007045,-0.0011985,0.096569,-0.018088,-0.014516,0.11443,0.042001
1688,-0.012242,0.0017248,0.094945,-0.018738,-0.015815,0.25378,0.042975
1689,-0.012242,0.0088706,0.091047,-0.021337,-0.0054209,0.41456,0.044599
1690,-0.0044465,0.016991,0.084226,-0.023285,0.011144,0.56657,0.047198
1691,0.0072465,0.025761,0.076755,-0.023935,0.025111,0.67765,0.048497
1692,0.019589,0.034855,0.070584,-0.027508,0.03453,0.72734,0.044599
1693,0.027709,0.044924,0.067661,-0.034654,0.037129,0.7176,0.041027
1694,0.032582,0.054993,0.067011,-0.040825,0.030633,0.66433,0.037778
1695,0.033881,0.059541,0.070259,-0.044073,0.014717,0.59093,0.031282
1696,0.036804,0.058891,0.074482,-0.043748,-0.0031473,0.52337,0.021213
1697,0.040702,0.054019,0.073832,-0.042774,-0.018088,0.47952,0.008221
1698,0.041027,0.049147,0.064737,-0.041475,-0.030106,0.45191,-0.0073698
1699,0.034206,0.044924,0.050121,-0.041475,-0.039851,0.41683,-0.02426
1700,0.021213,0.041027,0.034206,-0.042124,-0.050569,0.35089,-0.04115
1701,0.012768,0.036479,0.021863,-0.043748,-0.05804,0.24955,-0.059014
1702,0.014717,0.029983,0.014068,-0.051219,-0.055766,0.1271,-0.077203
1703,0.028684,0.022188,0.011144,-0.063561,-0.043748,0.0075714,-0.092145
1704,0.047198,0.016666,0.012443,-0.073955,-0.029782,-0.097017,-0.10351
1705,0.06019,0.013743,0.016991,-0.076879,-0.019063,-0.18731,-0.11033
1706,0.059865,0.016666,0.022512,-0.073955,-0.012892,-0.26397,-0.11521
1707,0.049796,0.020564,0.026085,-0.065835,-0.012567,-0.32731,-0.1178
1708,0.038103,0.019914,0.02706,-0.054142,-0.015165,-0.377,-0.11553
1709,0.029009,0.017965,0.022837,-0.044723,-0.019063,-0.40818,-0.10838
1710,0.020239,0.013743,0.015042,-0.039851,-0.023285,-0.41858,-0.095717
1711,0.010819,0.012443,0.011144,-0.040825,-0.024909,-0.41046,-0.080451
1712,0.0049729,0.015367,0.017316,-0.046671,-0.024585,-0.38674,-0.062912
1713,0.0056225,0.023162,0.033556,-0.04992,-0.020687,-0.35426,-0.044723
1714,0.010495,0.032257,0.05207,-0.045697,-0.019388,-0.31724,-0.030431
1715,0.017316,0.040702,0.061489,-0.034654,-0.022636,-0.28151,-0.020362
1716,0.019914,0.042001,0.057592,-0.02361,-0.03173,-0.24903,-0.018413
