,channel_1,channel_2,channel_3,channel_4,channel_5,channel_6,channel_7
0,-0.021012,0.00010078,0.07773,0.026085,0.10436,0.35479,0.027385
1,-0.031406,0.003024,0.063763,0.025111,0.12613,0.45353,0.036804
2,-0.045372,-0.0011985,0.048822,0.025761,0.13587,0.53279,0.04395
3,-0.061613,-0.0063954,0.032906,0.030957,0.13002,0.59807,0.04395
4,-0.072006,-0.011267,0.016341,0.039078,0.11118,0.65004,0.037778
5,-0.071357,-0.017439,-0.00054884,0.048822,0.08585,0.68285,0.028034
6,-0.060638,-0.02426,-0.01484,0.054668,0.064088,0.68772,0.018615
7,-0.046996,-0.027183,-0.026209,0.054344,0.049472,0.65004,0.010819
8,-0.039201,-0.02361,-0.034329,0.049147,0.040377,0.55844,0.0059473
9,-0.036927,-0.01484,-0.035953,0.037778,0.038428,0.41943,0.0069217
10,-0.035303,-0.0093186,-0.028157,0.02706,0.042001,0.25378,0.0091954
11,-0.031406,-0.011917,-0.013216,0.019914,0.042975,0.090397,0.013743
12,-0.02426,-0.020362,0.003024,0.016991,0.042001,-0.043099,0.018615
13,-0.018738,-0.03238,0.011144,0.016666,0.038103,-0.13145,0.01894
14,-0.019712,-0.044723,0.0095202,0.014717,0.032582,-0.17952,0.011144
15,-0.025559,-0.055441,0.00010078,0.009845,0.026735,-0.19511,-0.0063954
16,-0.035303,-0.059339,-0.013866,0.0036737,0.021863,-0.19154,-0.032705
17,-0.046347,-0.056091,-0.029132,-0.0021729,0.017316,-0.17822,-0.056416
18,-0.057065,-0.047646,-0.036927,-0.007045,0.012768,-0.16393,-0.066485
19,-0.068109,-0.039526,-0.035953,-0.0099683,0.0085458,-0.15191,-0.061937
20,-0.077203,-0.034004,-0.027508,-0.0076946,0.0036737,-0.14152,-0.048945
21,-0.081426,-0.030431,-0.01549,0.0020496,0.00010078,-0.13242,-0.033354
22,-0.078178,-0.029457,-0.0076946,0.019914,-0.00087364,-0.12268,-0.018088
23,-0.067459,-0.028482,-0.0099683,0.042326,-0.0011985,-0.11423,-0.0076946
24,-0.054142,-0.027183,-0.019063,0.062464,-0.0041217,-0.10156,-0.0018481
25,-0.042124,-0.02361,-0.028807,0.06961,-0.01484,-0.0837,0.0014
26,-0.033679,-0.018088,-0.035628,0.062464,-0.036927,-0.062912,0.0036737
27,-0.027833,-0.010293,-0.039851,0.042326,-0.062587,-0.041799,0.0033489
28,-0.020687,-0.0024977,-0.045047,0.018615,-0.079477,-0.019388,-0.00022403
29,-0.015165,0.0010752,-0.052518,0.0014,-0.080451,0.0072465,-0.0073698
30,-0.0099683,0.00042559,-0.062262,-0.0024977,-0.069733,0.036154,-0.020362
31,-0.0024977,0.0010752,-0.070058,0.0049729,-0.054792,0.059541,-0.037252
32,0.0069217,0.012768,-0.072331,0.017965,-0.038227,0.074806,-0.050569
33,0.017316,0.03518,-0.069408,0.030308,-0.019388,0.0865,-0.053492
34,0.02641,0.061489,-0.064211,0.042651,0.00042559,0.10989,-0.047321
35,0.033881,0.084551,-0.061288,0.05207,0.015692,0.15601,-0.037577
36,0.041027,0.10177,-0.064211,0.058566,0.025436,0.22292,-0.030756
37,0.048497,0.10761,-0.067134,0.060515,0.034855,0.30055,-0.024585
38,0.054019,0.099167,-0.064861,0.059865,0.045249,0.37883,-0.013866
39,0.05207,0.083576,-0.055116,0.060515,0.058891,0.45386,-0.0015233
40,0.0433,0.065712,-0.043748,0.061489,0.07708,0.52402,0.014392
41,0.030633,0.050121,-0.035953,0.063763,0.093321,0.57891,0.032582
42,0.017965,0.041676,-0.03303,0.064088,0.10177,0.5958,0.047847
43,0.0049729,0.042326,-0.03303,0.061814,0.10339,0.55552,0.056942
44,-0.0076946,0.046873,-0.035303,0.05272,0.10177,0.45938,0.058241
45,-0.017764,0.050446,-0.036927,0.041351,0.097218,0.32751,0.056292
46,-0.023935,0.053369,-0.036278,0.029333,0.087474,0.18946,0.053694
47,-0.023935,0.056292,-0.034654,0.01829,0.072858,0.065387,0.051096
48,-0.017439,0.056617,-0.034978,0.0091954,0.054019,-0.036927,0.048172
49,-0.0060706,0.054668,-0.039851,-0.00022403,0.031607,-0.11553,0.042001
50,0.0065969,0.049472,-0.046671,-0.012242,0.0072465,-0.16718,0.028684
51,0.016991,0.045574,-0.052193,-0.027183,-0.013216,-0.19511,0.0085458
52,0.025111,0.040702,-0.054142,-0.040175,-0.029132,-0.20713,-0.014191
53,0.031932,0.031932,-0.054142,-0.046022,-0.043423,-0.2133,-0.033679
54,0.036154,0.01829,-0.053817,-0.04992,-0.057715,-0.22077,-0.04862
55,0.033556,0.0033489,-0.053492,-0.053168,-0.075255,-0.23084,-0.062912
56,0.025436,-0.0099683,-0.052193,-0.055766,-0.095717,-0.23571,-0.076229
57,0.012443,-0.021337,-0.051544,-0.053168,-0.11391,-0.23409,-0.087272
58,-0.0041217,-0.028807,-0.052193,-0.047321,-0.12495,-0.22532,-0.090521
59,-0.018413,-0.032055,-0.054792,-0.043423,-0.12625,-0.21102,-0.084024
60,-0.024909,-0.03238,-0.060313,-0.045697,-0.11715,-0.19251,-0.073306
61,-0.024585,-0.03173,-0.064536,-0.048945,-0.10449,-0.1727,-0.06616
62,-0.021986,-0.033679,-0.06551,-0.049595,-0.095717,-0.15548,-0.064211
63,-0.020687,-0.034004,-0.060963,-0.044073,-0.091495,-0.13827,-0.068109
64,-0.021986,-0.030756,-0.052193,-0.037577,-0.091495,-0.12203,-0.072331
65,-0.021661,-0.025559,-0.044398,-0.035303,-0.089871,-0.10449,-0.071032
66,-0.017114,-0.018738,-0.042124,-0.036927,-0.087272,-0.081751,-0.064536
67,-0.0076946,-0.013866,-0.042774,-0.039526,-0.087597,-0.053492,-0.050569
68,0.0039985,-0.0060706,-0.042124,-0.040175,-0.090196,-0.021337,-0.035303
69,0.014717,0.0062721,-0.033354,-0.039201,-0.089221,0.0065969,-0.021986
70,0.020888,0.01829,-0.013216,-0.039851,-0.08305,0.028684,-0.013866
71,0.022512,0.026085,0.014717,-0.042449,-0.072006,0.044275,-0.0089938
72,0.020564,0.030957,0.042326,-0.044073,-0.054792,0.05272,0.0010752
73,0.020888,0.031282,0.065387,-0.043748,-0.037902,0.054344,0.013743
74,0.024461,0.028034,0.082277,-0.0405,-0.025234,0.047847,0.026735
75,0.029983,0.023487,0.092346,-0.037252,-0.018088,0.027709,0.037129
76,0.037778,0.021213,0.09397,-0.034329,-0.01484,-0.007045,0.048822
77,0.04395,0.020239,0.089098,-0.035303,-0.013866,-0.042774,0.061814
78,0.047198,0.016666,0.080978,-0.038876,-0.010293,-0.067134,0.073832
79,0.045899,0.0091954,0.074482,-0.037577,0.0014,-0.074605,0.084226
80,0.043625,0.00042559,0.071558,-0.028157,0.024786,-0.067784,0.091696
81,0.040377,-0.013541,0.067661,-0.01549,0.055968,-0.055766,0.096244
82,0.035505,-0.029782,0.058891,-0.0015233,0.083901,-0.048945,0.10047
83,0.030957,-0.039851,0.044924,0.01017,0.097868,-0.052843,0.10696
84,0.028684,-0.042124,0.030633,0.021863,0.092671,-0.064861,0.11346
85,0.030633,-0.039851,0.021538,0.031932,0.071883,-0.07428,0.11606
86,0.03453,-0.034978,0.01894,0.03453,0.050446,-0.073306,0.11606
87,0.037778,-0.028482,0.022188,0.027385,0.036804,-0.057715,0.11443
88,0.033881,-0.019388,0.027709,0.016991,0.028359,-0.035628,0.11248
89,0.020239,-0.010618,0.030957,0.009845,0.018615,-0.013216,0.11606
90,0.003024,-0.0024977,0.034855,0.0059473,0.0056225,0.0052977,0.13067
91,-0.011592,0.0043233,0.041027,0.0072465,-0.0076946,0.017316,0.14984
92,-0.018413,0.011469,0.048822,0.010495,-0.019712,0.023162,0.16121
93,-0.019388,0.023162,0.056617,0.012768,-0.029132,0.027385,0.16121
94,-0.01484,0.038103,0.06084,0.011144,-0.03173,0.03453,0.15146
95,-0.0089938,0.05207,0.059541,0.0046481,-0.028482,0.043625,0.13814
96,-0.0054209,0.062464,0.05272,-0.0047713,-0.021012,0.053369,0.1271
97,-0.0031473,0.066686,0.040052,-0.011592,-0.013541,0.056617,0.11866
98,0.0010752,0.063438,0.027385,-0.011917,-0.011267,0.050446,0.11411
99,0.0072465,0.057267,0.024137,-0.0054209,-0.014516,0.03583,0.10859
100,0.0075714,0.05207,0.033231,0.0052977,-0.017114,0.019589,0.10144
101,-0.00022403,0.045574,0.050121,0.014717,-0.015815,0.0095202,0.093321
102,-0.010618,0.03453,0.062464,0.020564,-0.011592,0.0078962,0.084226
103,-0.018738,0.016991,0.065062,0.025111,-0.0050961,0.014068,0.074482
104,-0.02426,-0.00087364,0.061814,0.029333,0.003024,0.020888,0.06961
105,-0.025884,-0.0073698,0.057917,0.033881,0.013743,0.022188,0.070259
106,-0.024585,-0.0037969,0.058566,0.034855,0.020564,0.012768,0.072533
107,-0.021337,0.0017248,0.059216,0.029658,0.017965,-0.012567,0.070909
108,-0.021661,0.00075039,0.056292,0.01894,0.0049729,-0.054467,0.059541
109,-0.029782,-0.0057458,0.05207,0.008221,-0.012242,-0.10611,0.042326
110,-0.043099,-0.012892,0.048172,0.0039985,-0.028157,-0.15646,0.029658
111,-0.055766,-0.01549,0.044599,0.0056225,-0.037577,-0.19706,0.027385
112,-0.061937,-0.016464,0.04395,0.0065969,-0.041799,-0.22629,0.031282
113,-0.055116,-0.013866,0.046223,0.0075714,-0.042774,-0.24286,0.034206
114,-0.039201,-0.0063954,0.048172,0.0085458,-0.045697,-0.2565,0.034206
115,-0.021661,0.0069217,0.048172,0.01017,-0.056416,-0.28118,0.033881
116,-0.0096434,0.016666,0.043625,0.013743,-0.071357,-0.339,0.033231
117,-0.0044465,0.013743,0.03453,0.016991,-0.081101,-0.43612,0.032257
118,-0.0060706,0.00075039,0.021538,0.01894,-0.084999,-0.55564,0.029658
119,-0.012242,-0.014191,0.0049729,0.01894,-0.084024,-0.66673,0.02641
120,-0.014516,-0.021337,-0.011267,0.015692,-0.080451,-0.74858,0.021863
121,-0.011267,-0.022636,-0.02361,0.012443,-0.07428,-0.78626,0.01764
122,-0.0024977,-0.021661,-0.028482,0.012768,-0.067459,-0.77132,0.016666
123,0.0078962,-0.023935,-0.026209,0.014717,-0.059014,-0.7096,0.016991
124,0.019914,-0.026533,-0.018738,0.016666,-0.045697,-0.61346,0.016991
125,0.029009,-0.029782,-0.008669,0.01829,-0.024585,-0.49815,0.015692
126,0.034206,-0.030431,0.00010078,0.019264,-0.0031473,-0.37798,0.011469
127,0.041027,-0.027508,0.0020496,0.016666,0.013418,-0.26332,0.0017248
128,0.047847,-0.021986,-0.0011985,0.0075714,0.020888,-0.15905,-0.0096434
129,0.05207,-0.011917,-0.0057458,-0.007045,0.019914,-0.064861,-0.023935
130,0.053694,-0.00022403,-0.0076946,-0.022311,0.011794,0.025111,-0.038551
131,0.053044,0.015692,-0.0057458,-0.037252,-0.00087364,0.11671,-0.052843
132,0.05207,0.03583,0.0017248,-0.041475,-0.012567,0.20928,-0.06681
133,0.05272,0.054668,0.012768,-0.031406,-0.01614,0.3012,-0.078178
134,0.056617,0.068635,0.023487,-0.0093186,-0.0047713,0.39539,-0.084999
135,0.062139,0.073832,0.032582,0.013093,0.016016,0.49478,-0.086623
136,0.067011,0.074157,0.037778,0.028359,0.034206,0.59482,-0.082725
137,0.073182,0.072533,0.037454,0.033881,0.044924,0.68609,-0.069733
138,0.079679,0.076106,0.029983,0.032906,0.05142,0.76632,-0.04927
139,0.085525,0.084226,0.015367,0.028034,0.056942,0.84655,-0.026858
140,0.090072,0.091047,-0.0031473,0.022512,0.067336,0.94009,-0.0050961
141,0.089098,0.091696,-0.018413,0.01894,0.084551,1.0609,0.01764
142,0.0852,0.089098,-0.025884,0.01764,0.11086,1.2155,0.041027
143,0.078055,0.083576,-0.026533,0.01894,0.13912,1.387,0.061814
144,0.06831,0.075131,-0.021012,0.016016,0.15991,1.5283,0.075131
145,0.058241,0.064737,-0.013216,0.0072465,0.1664,1.5874,0.080978
146,0.049796,0.053694,-0.0067202,-0.0031473,0.15958,1.5309,0.083901
147,0.041351,0.044924,-0.00087364,-0.010943,0.14269,1.3584,0.0852
148,0.033556,0.039402,0.0043233,-0.018738,0.11898,1.1002,0.083901
149,0.023487,0.03583,0.0078962,-0.029132,0.090722,0.8014,0.072858
150,0.011794,0.036154,0.011144,-0.043423,0.059865,0.51037,0.05272
151,-0.0011985,0.040052,0.01764,-0.053168,0.031932,0.26319,0.025436
152,-0.011267,0.047847,0.022837,-0.055766,0.012768,0.073832,-0.0050961
153,-0.015165,0.055643,0.023487,-0.047971,0.0052977,-0.063561,-0.037577
154,-0.017439,0.055968,0.014392,-0.03238,0.0049729,-0.16523,-0.06551
155,-0.019063,0.050446,-0.0018481,-0.013216,0.0043233,-0.24318,-0.084349
156,-0.019712,0.041027,-0.021986,0.0072465,0.0014,-0.31334,-0.092145
157,-0.017764,0.029333,-0.035303,0.024786,0.00010078,-0.37862,-0.092145
158,-0.013216,0.017965,-0.042124,0.037778,0.0033489,-0.43254,-0.093444
159,-0.0057458,0.0069217,-0.044073,0.046873,0.011144,-0.46925,-0.098316
160,0.0049729,0.0020496,-0.043099,0.053044,0.020564,-0.48841,-0.10384
161,0.012768,0.0039985,-0.039526,0.058566,0.033881,-0.48711,-0.10676
162,0.015367,0.0085458,-0.034004,0.065387,0.050121,-0.46957,-0.10644
163,0.015042,0.0095202,-0.025559,0.072858,0.067986,-0.44554,-0.10416
164,0.016991,0.0046481,-0.014191,0.07773,0.078379,-0.42052,-0.10189
165,0.020239,-0.0037969,-0.0054209,0.080003,0.077405,-0.40104,-0.096042
166,0.022837,-0.012242,0.00010078,0.080978,0.066362,-0.38902,-0.084674
167,0.023812,-0.018738,0.0033489,0.078704,0.05207,-0.3822,-0.071357
168,0.021863,-0.021661,0.0069217,0.074806,0.036479,-0.37635,-0.060963
169,0.020239,-0.022961,0.0091954,0.070584,0.019589,-0.36921,-0.054467
170,0.020564,-0.027183,0.010495,0.066686,0.0026992,-0.35654,-0.048945
171,0.023162,-0.034978,0.010819,0.062464,-0.0083442,-0.3377,-0.047321
172,0.029658,-0.042774,0.0085458,0.056292,-0.013866,-0.31204,-0.042774
173,0.039402,-0.044723,0.0059473,0.046223,-0.014191,-0.28411,-0.033679
174,0.051096,-0.037577,0.0043233,0.036154,-0.0096434,-0.2565,-0.019063
175,0.06019,-0.020362,0.0056225,0.026085,-0.0047713,-0.23344,-0.00054884
176,0.061814,0.0046481,0.011469,0.016666,-0.0037969,-0.2159,0.014392
177,0.055643,0.028034,0.021538,0.0088706,-0.0073698,-0.2016,0.027709
178,0.047523,0.040702,0.032582,0.0069217,-0.01614,-0.18764,0.040377
179,0.039727,0.040702,0.042651,0.008221,-0.025559,-0.17465,0.051745
180,0.031932,0.029009,0.049796,0.0088706,-0.034329,-0.16912,0.056617
181,0.022837,0.011469,0.054993,0.0085458,-0.035303,-0.17692,0.055643
182,0.0091954,-0.010618,0.057592,0.0043233,-0.026858,-0.19413,0.047523
183,-0.0076946,-0.030106,0.061165,-0.0031473,-0.013216,-0.2094,0.035505
184,-0.021661,-0.047321,0.067011,-0.011267,0.00075039,-0.2146,0.025111
185,-0.028807,-0.054467,0.071558,-0.017439,0.0072465,-0.2094,0.01829
186,-0.026209,-0.052843,0.070584,-0.022636,0.0023744,-0.18926,0.015367
187,-0.019063,-0.045697,0.061165,-0.025884,-0.011917,-0.15808,0.019914
188,-0.010943,-0.036278,0.047198,-0.027183,-0.029132,-0.11586,0.029009
189,-0.0011985,-0.023935,0.031932,-0.023285,-0.039526,-0.069408,0.036479
190,0.0065969,-0.0093186,0.016666,-0.019063,-0.034654,-0.020687,0.036804
191,0.0091954,0.0049729,0.0020496,-0.019063,-0.019063,0.031607,0.030308
192,0.0052977,0.015692,-0.010293,-0.027508,-0.0034721,0.083576,0.019589
193,-0.0083442,0.020888,-0.021012,-0.04115,0.0036737,0.12905,0.0085458
194,-0.025234,0.024786,-0.03173,-0.053817,-0.00022403,0.15828,-0.0028225
195,-0.036602,0.029983,-0.044073,-0.060963,-0.01484,0.16478,-0.011267
196,-0.038551,0.0433,-0.056091,-0.060963,-0.037252,0.14756,-0.020362
197,-0.034004,0.061165,-0.063237,-0.053817,-0.052843,0.10891,-0.029782
198,-0.028482,0.076106,-0.06551,-0.044073,-0.058689,0.053044,-0.035303
199,-0.025234,0.08585,-0.068434,-0.036927,-0.05739,-0.010943,-0.031406
200,-0.024585,0.088124,-0.073631,-0.034004,-0.057715,-0.073631,-0.017764
201,-0.028482,0.082602,-0.081101,-0.034978,-0.063561,-0.1269,-0.00054884
202,-0.036278,0.074157,-0.087272,-0.037252,-0.071032,-0.16458,0.014068
203,-0.044723,0.069285,-0.088896,-0.041475,-0.077203,-0.18374,0.019264
204,-0.04927,0.06961,-0.085324,-0.045697,-0.079152,-0.18504,0.016341
205,-0.051219,0.075781,-0.07493,-0.046671,-0.071357,-0.17237,0.0062721
206,-0.050244,0.081627,-0.062262,-0.042774,-0.052518,-0.14184,-0.0015233
207,-0.046996,0.081303,-0.047321,-0.036927,-0.029457,-0.088572,-0.0024977
208,-0.042774,0.074157,-0.033679,-0.032705,-0.011267,-0.010293,-0.0015233
209,-0.040175,0.061489,-0.020687,-0.026533,-0.0037969,0.082927,-0.00087364
210,-0.04115,0.044599,-0.0080194,-0.014191,-0.0044465,0.18199,0.00042559
211,-0.045372,0.030308,0.0043233,0.0046481,-0.007045,0.27391,0.003024
212,-0.046671,0.019264,0.017965,0.025436,-0.011267,0.34245,0.0014
213,-0.041475,0.012119,0.031932,0.045574,-0.011917,0.37136,-0.0076946
214,-0.030431,0.0052977,0.044924,0.061814,-0.010618,0.35154,-0.02361
215,-0.017439,0.0039985,0.056617,0.074806,-0.010618,0.28788,-0.039201
216,-0.0096434,0.0056225,0.061814,0.084226,-0.010943,0.19758,-0.046347
217,-0.007045,0.0049729,0.058891,0.092346,-0.0089938,0.10306,-0.04115
218,-0.00054884,0.00075039,0.054019,0.097218,-0.0063954,0.019914,-0.030756
219,0.01017,-0.0044465,0.049796,0.10274,-0.0057458,-0.046671,-0.025559
220,0.019914,-0.010618,0.047198,0.11086,-0.0093186,-0.094743,-0.029132
221,0.02706,-0.015165,0.042001,0.11606,-0.01614,-0.12203,-0.0405
222,0.031607,-0.01614,0.03518,0.11443,-0.027183,-0.12982,-0.051544
223,0.03453,-0.0096434,0.025436,0.10469,-0.04115,-0.1269,-0.059339
224,0.032582,0.0014,0.016341,0.090722,-0.054792,-0.12105,-0.064536
225,0.023812,0.012119,0.016016,0.078055,-0.063561,-0.11975,-0.064536
226,0.011469,0.01829,0.021213,0.06961,-0.06616,-0.1269,-0.057715
227,0.00075039,0.017965,0.024461,0.066037,-0.064861,-0.14509,-0.047321
228,-0.0047713,0.011144,0.020239,0.065062,-0.060313,-0.17107,-0.040175
229,-0.0037969,0.0049729,0.0078962,0.062139,-0.052193,-0.19511,-0.037252
230,0.0036737,0.00010078,-0.010943,0.061489,-0.045047,-0.20713,-0.035628
231,0.013093,-0.0024977,-0.028482,0.06019,-0.040175,-0.20193,-0.03173
232,0.021538,-0.007045,-0.039526,0.058566,-0.036602,-0.18601,-0.022311
233,0.02706,-0.011917,-0.041799,0.056292,-0.03303,-0.16295,-0.007045
234,0.031282,-0.016464,-0.037252,0.055643,-0.028482,-0.13534,0.0091954
235,0.034206,-0.022311,-0.029132,0.058891,-0.027183,-0.11033,0.023487
236,0.036154,-0.027508,-0.018738,0.062789,-0.028157,-0.090196,0.037454
237,0.038753,-0.030431,-0.0080194,0.065062,-0.028157,-0.071357,0.046873
238,0.041027,-0.034978,0.0014,0.066686,-0.028157,-0.049595,0.052395
239,0.041027,-0.0405,0.0085458,0.073507,-0.025234,-0.027833,0.059216
240,0.038753,-0.044723,0.017316,0.080003,-0.019063,-0.0080194,0.06896
241,0.03453,-0.043423,0.028034,0.080978,-0.008669,0.0059473,0.078055
242,0.030308,-0.034654,0.039078,0.073507,0.0010752,0.0095202,0.084551
243,0.024137,-0.019063,0.050121,0.061814,0.0062721,0.0046481,0.087799
244,0.014392,-0.0015233,0.058241,0.054019,0.0059473,-0.0037969,0.086824
245,0.00010078,0.0078962,0.057917,0.057917,-0.00022403,-0.0080194,0.080978
246,-0.017764,0.0043233,0.046223,0.073182,-0.0076946,-0.0041217,0.073182
247,-0.028807,-0.011267,0.027709,0.089423,-0.014516,0.0069217,0.070909
248,-0.029132,-0.030756,0.011469,0.10209,-0.023935,0.022837,0.080653
249,-0.019063,-0.046996,0.00010078,0.10761,-0.035303,0.041351,0.097218
250,-0.0063954,-0.05739,-0.007045,0.10566,-0.046022,0.06019,0.10826
251,0.00010078,-0.062912,-0.0089938,0.097218,-0.04862,0.072533,0.10696
252,-0.0060706,-0.063237,-0.0073698,0.086824,-0.045697,0.072533,0.099817
253,-0.019063,-0.060638,-0.00022403,0.076755,-0.039851,0.061489,0.088124
254,-0.028482,-0.057065,0.0078962,0.067336,-0.033679,0.048497,0.073182
255,-0.031081,-0.050244,0.013093,0.063113,-0.028807,0.041676,0.056942
256,-0.024909,-0.038227,0.015692,0.066362,-0.029782,0.039402,0.044924
257,-0.01484,-0.023285,0.013743,0.07708,-0.030756,0.039078,0.042001
258,0.00010078,-0.010293,0.0014,0.0865,-0.025234,0.037454,0.046873
259,0.016016,0.0020496,-0.019388,0.087149,-0.011267,0.039078,0.050446
260,0.028684,0.013093,-0.040175,0.079354,0.0085458,0.045899,0.048172
261,0.031607,0.021863,-0.053492,0.067986,0.028034,0.058241,0.039727
262,0.025111,0.029009,-0.055766,0.058891,0.044599,0.072208,0.028034
263,0.011794,0.031932,-0.045697,0.054668,0.053044,0.083251,0.016991
264,-0.0015233,0.031282,-0.028157,0.056942,0.057592,0.079679,0.011144
265,-0.0080194,0.031282,-0.0076946,0.058241,0.062464,0.053369,0.0091954
266,-0.0063954,0.033556,0.010819,0.056617,0.072208,0.0046481,0.010495
267,-0.00054884,0.036479,0.026085,0.049796,0.086175,-0.061937,0.0095202
268,0.0069217,0.037454,0.038103,0.039402,0.095594,-0.13469,0.0059473
269,0.013743,0.034855,0.045574,0.02706,0.091372,-0.19966,0.0039985
270,0.019589,0.023812,0.04395,0.016341,0.071234,-0.23863,0.0052977
271,0.02641,0.0065969,0.033881,0.0095202,0.041676,-0.23636,0.011794
272,0.032582,-0.012892,0.019914,0.0062721,0.014717,-0.19478,0.026735
273,0.038103,-0.025559,0.0072465,0.0036737,0.00042559,-0.13145,0.044599
274,0.04395,-0.029782,0.0014,0.0020496,-0.00054884,-0.064536,0.056942
275,0.049796,-0.026533,-0.00054884,0.00010078,0.0069217,-0.0080194,0.064413
276,0.054344,-0.020037,-0.0024977,-0.0011985,0.019589,0.030308,0.067986
277,0.057267,-0.014516,-0.0080194,-0.0031473,0.031932,0.054019,0.067011
278,0.055643,-0.010293,-0.012242,-0.0076946,0.039727,0.067011,0.062789
279,0.046223,-0.0060706,-0.013541,-0.013866,0.039078,0.070584,0.052395
280,0.029658,0.0017248,-0.010943,-0.020687,0.031607,0.063113,0.039727
281,0.013743,0.015367,-0.0028225,-0.022961,0.023812,0.05207,0.028034
282,0.0023744,0.031282,0.0078962,-0.021986,0.020888,0.043625,0.020239
283,-0.00022403,0.046873,0.014392,-0.018413,0.023812,0.044275,0.016016
284,0.0069217,0.055968,0.013093,-0.013866,0.029658,0.052395,0.012443
285,0.022512,0.057267,0.0039985,-0.011267,0.034855,0.064088,0.009845
286,0.039402,0.053044,-0.0076946,-0.012567,0.036804,0.078055,0.0091954
287,0.048822,0.049147,-0.020362,-0.015815,0.039402,0.092996,0.0062721
288,0.050121,0.046548,-0.031081,-0.022636,0.04395,0.11021,0.0010752
289,0.045249,0.046548,-0.038551,-0.032055,0.048497,0.12937,-0.0034721
290,0.038103,0.050771,-0.044398,-0.046022,0.05272,0.14854,-0.0057458
291,0.028034,0.059216,-0.052843,-0.062912,0.056292,0.16283,-0.0083442
292,0.016341,0.069285,-0.066485,-0.0824,0.057917,0.16705,-0.013866
293,0.0036737,0.075781,-0.084024,-0.097991,0.054993,0.16218,-0.022636
294,-0.0096434,0.077405,-0.10351,-0.10449,0.044924,0.15049,-0.032055
295,-0.020362,0.079679,-0.12073,-0.10091,0.027709,0.13425,-0.039526
296,-0.023285,0.082927,-0.12625,-0.089871,0.0046481,0.11736,-0.045372
297,-0.021661,0.088124,-0.11943,-0.072656,-0.016464,0.10242,-0.051219
298,-0.018088,0.089748,-0.10384,-0.052843,-0.028482,0.090072,-0.057715
299,-0.01549,0.084551,-0.08305,-0.033679,-0.030106,0.076755,-0.066485
300,-0.01484,0.073507,-0.061613,-0.019063,-0.02361,0.065712,-0.07428
301,-0.015815,0.058891,-0.043099,-0.012242,-0.01549,0.056292,-0.077528
302,-0.017764,0.044275,-0.028807,-0.012892,-0.011267,0.044275,-0.077203
303,-0.021012,0.031607,-0.015165,-0.01614,-0.013541,0.030633,-0.073955
304,-0.02361,0.023812,-0.0021729,-0.020687,-0.020037,0.016991,-0.068109
305,-0.026858,0.025436,0.0088706,-0.027508,-0.028157,0.00042559,-0.059014
306,-0.032055,0.030633,0.015042,-0.033354,-0.034329,-0.020037,-0.047971
307,-0.037902,0.03453,0.01894,-0.037252,-0.034654,-0.04115,-0.036278
308,-0.041475,0.032906,0.021538,-0.037577,-0.023285,-0.061613,-0.026209
309,-0.040825,0.025436,0.026085,-0.032705,-0.0067202,-0.081101,-0.016789
310,-0.03303,0.017316,0.032257,-0.024585,0.01017,-0.097341,-0.0073698
311,-0.020362,0.012768,0.039078,-0.01549,0.022512,-0.10514,0.0033489
312,-0.008669,0.013093,0.046223,-0.010293,0.029983,-0.10091,0.014068
313,0.0010752,0.016666,0.051745,-0.0083442,0.028684,-0.088247,0.025111
314,0.0095202,0.019589,0.057917,-0.0060706,0.021863,-0.070382,0.038428
315,0.014068,0.020564,0.065062,0.00010078,0.016016,-0.050569,0.050121
316,0.016666,0.019914,0.070909,0.0078962,0.016016,-0.032055,0.057267
317,0.016341,0.020239,0.074806,0.012768,0.019914,-0.012892,0.059541
318,0.013093,0.022512,0.081627,0.012443,0.020564,0.010819,0.056292
319,0.0072465,0.021213,0.090722,0.009845,0.011469,0.040052,0.056292
320,0.00075039,0.015692,0.096893,0.01017,-0.0015233,0.069934,0.061489
321,-0.0011985,0.0085458,0.10047,0.017316,-0.0083442,0.090722,0.06961
322,-0.00022403,0.0046481,0.10242,0.028359,-0.0037969,0.099492,0.076106
323,0.0014,0.0052977,0.10501,0.038753,0.0069217,0.099817,0.079354
324,0.0026992,0.0069217,0.10501,0.039078,0.016666,0.094295,0.07708
325,0.0026992,0.0072465,0.10079,0.030308,0.021213,0.088448,0.069285
326,0.0033489,0.0072465,0.091696,0.022837,0.017316,0.087474,0.058566
327,-0.0011985,0.0056225,0.078379,0.018615,0.0095202,0.097868,0.054993
328,-0.012242,0.0056225,0.063763,0.017316,0.0020496,0.11995,0.063113
329,-0.024585,0.0039985,0.048497,0.017965,-0.0044465,0.15341,0.079029
330,-0.033354,-0.0015233,0.034206,0.020239,-0.011592,0.19791,0.10047
331,-0.039201,-0.013866,0.025111,0.022512,-0.018088,0.2502,0.12158
332,-0.041799,-0.029132,0.017965,0.02641,-0.01614,0.30185,0.13684
333,-0.037577,-0.038551,0.009845,0.028684,-0.0080194,0.35089,0.14237
334,-0.027183,-0.037902,0.0046481,0.029009,-0.00022403,0.40351,0.13912
335,-0.014191,-0.031081,0.0026992,0.028684,0.0026992,0.45516,0.13035
336,-0.0021729,-0.021986,0.0052977,0.032257,0.0023744,0.48601,0.11931
337,0.0052977,-0.01484,0.010495,0.039727,0.0033489,0.48341,0.10631
338,0.0085458,-0.0076946,0.014717,0.047523,0.0036737,0.44021,0.095269
339,0.0091954,0.00010078,0.015692,0.050771,0.0023744,0.36096,0.087799
340,0.0085458,0.0075714,0.014392,0.050771,0.00042559,0.25995,0.081303
341,0.010819,0.014068,0.010819,0.048497,-0.00087364,0.15731,0.075456
342,0.019264,0.017316,0.008221,0.042975,-0.0041217,0.06961,0.065062
343,0.02706,0.01829,0.0095202,0.033881,-0.0073698,0.0072465,0.045899
344,0.028684,0.015367,0.011144,0.022512,-0.0057458,-0.031406,0.019589
345,0.021538,0.0091954,0.011469,0.011144,0.0052977,-0.058365,-0.0063954
346,0.011144,0.0059473,0.0059473,0.0020496,0.024786,-0.084999,-0.02426
347,0.0010752,0.0075714,-0.0018481,-0.0028225,0.047847,-0.11196,-0.034329
348,-0.0031473,0.013418,-0.0093186,-0.0041217,0.064737,-0.13437,-0.040175
349,-0.0015233,0.019914,-0.015815,-0.00087364,0.06896,-0.14931,-0.044723
350,0.0052977,0.021538,-0.024585,0.00042559,0.062139,-0.15938,-0.049595
351,0.013743,0.014068,-0.035953,-0.0044465,0.042326,-0.16295,-0.052843
352,0.022512,0.0010752,-0.047321,-0.013541,0.019589,-0.15938,-0.055766
353,0.030633,-0.010293,-0.053817,-0.022636,0.0043233,-0.15256,-0.060313
354,0.037129,-0.017114,-0.054142,-0.028482,0.0033489,-0.14509,-0.063237
355,0.042001,-0.020037,-0.048945,-0.026858,0.011144,-0.14216,-0.063886
356,0.044599,-0.016789,-0.040175,-0.021986,0.01829,-0.14379,-0.059989
357,0.047198,-0.0067202,-0.027833,-0.016789,0.01829,-0.14574,-0.047646
358,0.049147,0.0043233,-0.014516,-0.012892,0.012443,-0.14834,-0.029132
359,0.052395,0.0069217,-0.0044465,-0.012567,0.0056225,-0.14931,-0.01614
360,0.054019,0.0014,0.0023744,-0.013541,0.00075039,-0.14606,-0.015165
361,0.054668,-0.0076946,0.0085458,-0.013541,-0.0015233,-0.13794,-0.021661
362,0.058241,-0.012242,0.016016,-0.013541,-0.0018481,-0.1282,-0.029782
363,0.065387,-0.0099683,0.024786,-0.015165,-0.0067202,-0.11715,-0.035953
364,0.076106,0.00042559,0.032906,-0.022636,-0.01614,-0.10579,-0.0405
365,0.084876,0.017965,0.040052,-0.03303,-0.026209,-0.095393,-0.0405
366,0.088448,0.037454,0.048497,-0.045372,-0.029782,-0.087272,-0.037252
367,0.08585,0.051096,0.057592,-0.052193,-0.02426,-0.080451,-0.03238
368,0.080978,0.057917,0.063763,-0.04992,-0.012892,-0.076229,-0.030756
369,0.075456,0.062464,0.068635,-0.037902,-0.0034721,-0.077528,-0.0405
370,0.070584,0.064088,0.070909,-0.022311,0.0026992,-0.085324,-0.060638
371,0.068635,0.063438,0.069285,-0.0096434,0.00042559,-0.10156,-0.081751
372,0.071558,0.060515,0.062139,-0.0057458,-0.0096434,-0.11813,-0.095717
373,0.075781,0.054993,0.05142,-0.010293,-0.020687,-0.1269,-0.098965
374,0.075131,0.045899,0.041676,-0.018413,-0.027508,-0.1217,-0.093119
375,0.066686,0.035505,0.037129,-0.023935,-0.03303,-0.10546,-0.081101
376,0.051745,0.026735,0.037778,-0.023285,-0.036602,-0.084349,-0.066485
377,0.034855,0.020888,0.042975,-0.019388,-0.039526,-0.068109,-0.050894
378,0.021538,0.018615,0.049472,-0.015815,-0.0405,-0.062262,-0.035628
379,0.019264,0.019589,0.053694,-0.012567,-0.043423,-0.065186,-0.022961
380,0.022837,0.017316,0.054019,-0.007045,-0.047646,-0.079802,-0.012242
381,0.021213,0.0062721,0.054993,-0.00022403,-0.053168,-0.10449,-0.0034721
382,0.0095202,-0.014516,0.056942,-0.0011985,-0.057715,-0.13957,0.003024
383,-0.0067202,-0.036927,0.062139,-0.010293,-0.058689,-0.18342,0.011469
384,-0.024909,-0.04992,0.067986,-0.022961,-0.053492,-0.22954,0.022188
385,-0.037252,-0.048945,0.068635,-0.030106,-0.045372,-0.26884,0.030308
386,-0.039851,-0.039526,0.063113,-0.030431,-0.038876,-0.29612,0.031282
387,-0.035628,-0.030431,0.05272,-0.027183,-0.034654,-0.31171,0.026085
388,-0.027508,-0.026209,0.044275,-0.020037,-0.037577,-0.32211,0.017965
389,-0.017439,-0.025559,0.039402,-0.0089938,-0.046671,-0.32308,0.010495
390,-0.0063954,-0.02361,0.039727,0.0023744,-0.059339,-0.31399,0.008221
391,0.0023744,-0.019063,0.043625,0.013418,-0.075255,-0.30262,0.012119
392,0.0010752,-0.013866,0.047847,0.023162,-0.092145,-0.29288,0.018615
393,-0.0083442,-0.008669,0.048497,0.030957,-0.10384,-0.28216,0.024461
394,-0.018413,-0.0018481,0.049147,0.033231,-0.10449,-0.26787,0.023487
395,-0.026533,0.0065969,0.047198,0.029333,-0.097017,-0.25065,0.012443
396,-0.032705,0.015692,0.038103,0.019589,-0.0837,-0.23181,-0.0011985
397,-0.042124,0.022837,0.019589,0.0095202,-0.061937,-0.21102,-0.010293
398,-0.053168,0.030633,0.00010078,0.008221,-0.035303,-0.18569,-0.011267
399,-0.061613,0.040377,-0.0099683,0.01829,-0.0096434,-0.15483,-0.010618
400,-0.059989,0.050446,-0.0060706,0.033231,0.0072465,-0.12105,-0.012892
401,-0.046671,0.056617,0.0072465,0.044599,0.014392,-0.088896,-0.020037
402,-0.030431,0.055643,0.022837,0.049796,0.015042,-0.061937,-0.025884
403,-0.018738,0.048497,0.033881,0.05272,0.014392,-0.034978,-0.028807
404,-0.013216,0.041027,0.037778,0.056942,0.016991,0.003024,-0.028807
405,-0.013866,0.037454,0.033231,0.061165,0.025436,0.059216,-0.026858
406,-0.017439,0.038753,0.021538,0.061814,0.036154,0.14172,-0.022311
407,-0.024585,0.042651,0.0062721,0.055318,0.046548,0.2593,-0.013216
408,-0.032055,0.042326,-0.008669,0.044275,0.057267,0.41196,-0.0024977
409,-0.035628,0.038428,-0.021986,0.03453,0.071234,0.5841,0.0075714
410,-0.036602,0.03583,-0.034978,0.032582,0.088124,0.74391,0.01764
411,-0.034329,0.036804,-0.047971,0.036479,0.098517,0.85434,0.028684
412,-0.028482,0.039727,-0.061937,0.040052,0.094295,0.89072,0.034206
413,-0.021012,0.044924,-0.076229,0.039402,0.073832,0.84687,0.029983
414,-0.015165,0.05142,-0.092469,0.036479,0.042975,0.73676,0.017316
415,-0.017439,0.057267,-0.10644,0.033231,0.012119,0.59287,-0.00054884
416,-0.026858,0.059865,-0.11098,0.03518,-0.011592,0.44444,-0.021337
417,-0.036602,0.056617,-0.10871,0.04395,-0.022311,0.30347,-0.039851
418,-0.043423,0.048497,-0.10514,0.06019,-0.019712,0.1755,-0.053492
419,-0.046022,0.03583,-0.10514,0.079679,-0.011592,0.062139,-0.057065
420,-0.043748,0.021213,-0.10709,0.094945,-0.007045,-0.036927,-0.046996
421,-0.033679,0.01017,-0.11066,0.099817,-0.0083442,-0.12365,-0.026533
422,-0.021986,0.0039985,-0.11196,0.097218,-0.011592,-0.19478,-0.0015233
423,-0.014191,0.0026992,-0.11033,0.089748,-0.007045,-0.24805,0.01894
424,-0.011592,0.0065969,-0.10449,0.081952,0.0049729,-0.27891,0.026735
425,-0.010943,0.011794,-0.096042,0.073507,0.018615,-0.28378,0.023162
426,-0.012892,0.018615,-0.087597,0.06084,0.027709,-0.26299,0.015367
427,-0.018413,0.023487,-0.077203,0.0433,0.033556,-0.22597,0.008221
428,-0.026533,0.027709,-0.06551,0.02641,0.037778,-0.18926,0.0039985
429,-0.030431,0.032257,-0.054792,0.016666,0.042326,-0.1662,0.0052977
430,-0.025884,0.038103,-0.050894,0.016016,0.042975,-0.16198,0.012119
431,-0.013216,0.042975,-0.053492,0.022837,0.034206,-0.16685,0.025761
432,0.0046481,0.046223,-0.058365,0.031932,0.017316,-0.16685,0.038753
433,0.021538,0.047523,-0.059339,0.038103,0.0017248,-0.15061,0.045899
434,0.030633,0.042975,-0.053817,0.039727,-0.0089938,-0.11813,0.042326
435,0.031607,0.035505,-0.045697,0.036154,-0.010943,-0.075904,0.028684
436,0.027385,0.027709,-0.038551,0.028034,-0.0083442,-0.031081,0.0075714
437,0.025761,0.021538,-0.034654,0.01829,-0.0067202,0.015042,-0.01484
438,0.030308,0.017316,-0.027508,0.01017,-0.0047713,0.054668,-0.029132
439,0.041351,0.015692,-0.01484,0.0072465,-0.0060706,0.085525,-0.033354
440,0.054344,0.015692,0.00075039,0.011144,-0.010943,0.10469,-0.029782
441,0.067336,0.014392,0.011469,0.024137,-0.016789,0.11216,-0.023935
442,0.077405,0.016016,0.011794,0.044599,-0.021661,0.11183,-0.016789
443,0.082927,0.019264,0.0043233,0.064088,-0.027833,0.11021,-0.012242
444,0.084226,0.021213,-0.0050961,0.074482,-0.034978,0.11573,-0.0057458
445,0.083901,0.024461,-0.0067202,0.074157,-0.0405,0.13132,0.003024
446,0.081303,0.026735,0.0020496,0.070909,-0.043099,0.14854,0.012443
447,0.079354,0.026735,0.017316,0.06961,-0.0405,0.15763,0.020564
448,0.078055,0.022188,0.031932,0.072208,-0.03303,0.15731,0.029009
449,0.072208,0.017965,0.042975,0.080978,-0.023935,0.14691,0.040702
450,0.062139,0.016341,0.046223,0.092346,-0.012892,0.12645,0.053369
451,0.047847,0.019264,0.044599,0.10404,-0.0024977,0.094295,0.06019
452,0.03583,0.028359,0.042651,0.10859,0.0075714,0.046548,0.057917
453,0.026735,0.039402,0.044599,0.10859,0.01017,-0.018088,0.050446
454,0.020239,0.044275,0.045899,0.10599,0.0017248,-0.092145,0.04395
455,0.016991,0.039402,0.044924,0.10047,-0.012242,-0.16393,0.040052
456,0.015042,0.02706,0.040702,0.092671,-0.02361,-0.22564,0.03518
457,0.016991,0.012443,0.033231,0.082927,-0.029132,-0.27761,0.028359
458,0.013093,0.00075039,0.021863,0.076106,-0.030756,-0.32308,0.019264
459,0.0062721,-0.0073698,0.0088706,0.071234,-0.03303,-0.36661,0.0088706
460,-0.0024977,-0.013866,0.00075039,0.066037,-0.03303,-0.41176,0.00010078
461,-0.011592,-0.017439,0.0023744,0.06019,-0.028482,-0.45398,-0.0034721
462,-0.020037,-0.017114,0.013418,0.053694,-0.022961,-0.49231,0.0010752
463,-0.025884,-0.018088,0.028684,0.047198,-0.022311,-0.52122,0.0072465
464,-0.027833,-0.020362,0.042975,0.039078,-0.029132,-0.54005,0.0088706
465,-0.026533,-0.021337,0.05142,0.029658,-0.039201,-0.54687,0.0036737
466,-0.024585,-0.019388,0.049472,0.021213,-0.046671,-0.53843,-0.0021729
467,-0.026533,-0.01549,0.037454,0.016666,-0.047321,-0.51439,-0.0047713
468,-0.036278,-0.012242,0.019589,0.017965,-0.042449,-0.47769,-0.00022403
469,-0.051219,-0.0096434,0.0020496,0.020239,-0.033679,-0.42735,0.0078962
470,-0.066485,-0.007045,-0.0054209,0.017316,-0.02426,-0.36076,0.017316
471,-0.076229,-0.007045,-0.0011985,0.011469,-0.019063,-0.26851,0.026085
472,-0.079477,-0.013866,0.0078962,0.01017,-0.020037,-0.14509,0.033556
473,-0.074605,-0.023935,0.013743,0.011469,-0.025234,0.0056225,0.040702
474,-0.061937,-0.030431,0.014392,0.011794,-0.024909,0.1729,0.05142
475,-0.043423,-0.029457,0.011794,0.011144,-0.013216,0.34894,0.065712
476,-0.023285,-0.024909,0.0043233,0.012768,0.0059473,0.51979,0.076755
477,-0.0024977,-0.024909,-0.0063954,0.016016,0.021213,0.66791,0.080978
478,0.016341,-0.030756,-0.019063,0.019589,0.027385,0.77379,0.079354
479,0.029333,-0.040175,-0.030106,0.022837,0.026735,0.82641,0.075131
480,0.03518,-0.050894,-0.035953,0.021538,0.025111,0.82576,0.076431
481,0.036479,-0.060638,-0.033354,0.015367,0.023487,0.79523,0.083251
482,0.038753,-0.06681,-0.020037,0.008221,0.020564,0.76405,0.095269
483,0.042326,-0.06616,-0.00087364,0.0023744,0.013743,0.74976,0.10664
484,0.044924,-0.059664,0.017965,-0.00054884,0.0046481,0.75593,0.11118
485,0.049472,-0.052843,0.023487,-0.0034721,0.0023744,0.76827,0.10729
486,0.054668,-0.048945,0.011144,-0.011917,0.0085458,0.77119,0.10177
487,0.058891,-0.04927,-0.010618,-0.022311,0.023812,0.75365,0.10306
488,0.062464,-0.04992,-0.03238,-0.030756,0.042975,0.70558,0.11151
489,0.063438,-0.047971,-0.048296,-0.034654,0.058241,0.60652,0.12288
490,0.061489,-0.045697,-0.05804,-0.037577,0.063113,0.44866,0.1323
491,0.056292,-0.043748,-0.059014,-0.039201,0.058566,0.24695,0.13327
492,0.049472,-0.046347,-0.052843,-0.039526,0.045574,0.039402,0.1232
493,0.041027,-0.052518,-0.043099,-0.038551,0.024786,-0.13729,0.10274
494,0.033231,-0.056741,-0.034978,-0.036602,-0.0024977,-0.26169,0.07708
495,0.025436,-0.055116,-0.034654,-0.039851,-0.03238,-0.33672,0.050771
496,0.016991,-0.050244,-0.045047,-0.047646,-0.059989,-0.37635,0.028359
497,0.0059473,-0.046996,-0.061937,-0.054142,-0.076554,-0.38967,0.012443
498,-0.0057458,-0.044723,-0.075904,-0.055116,-0.076554,-0.37862,0.0088706
499,-0.01549,-0.043423,-0.082076,-0.048296,-0.058689,-0.3338,0.016016
500,-0.024909,-0.040825,-0.078178,-0.03238,-0.028482,-0.24935,0.020888
501,-0.034329,-0.035303,-0.070707,-0.012567,0.0036737,-0.13859,0.019914
502,-0.041799,-0.028157,-0.064536,0.003024,0.032906,-0.033354,0.017316
503,-0.042774,-0.023935,-0.060963,0.01017,0.055643,0.026735,0.015042
504,-0.038227,-0.024909,-0.059014,0.012443,0.06831,0.022837,0.015367
505,-0.03173,-0.023285,-0.056416,0.0095202,0.074482,-0.030431,0.015367
506,-0.02426,-0.018413,-0.04927,0.003024,0.075781,-0.093769,0.014068
507,-0.018088,-0.012567,-0.035953,-0.0063954,0.074157,-0.1191,0.0095202
508,-0.014191,-0.0089938,-0.020037,-0.016789,0.071558,-0.084674,0.0026992
509,-0.013541,-0.0063954,-0.0044465,-0.025884,0.069285,-0.011592,-0.0047713
510,-0.013541,0.00075039,0.0085458,-0.03303,0.069285,0.058241,-0.015165
511,-0.016464,0.01017,0.019589,-0.038227,0.070584,0.086824,-0.030431
512,-0.022961,0.019589,0.028684,-0.042449,0.074157,0.06019,-0.048296
513,-0.030106,0.026085,0.035505,-0.043748,0.075131,-0.012242,-0.062912
514,-0.032705,0.028359,0.038428,-0.043423,0.070259,-0.10481,-0.073955
515,-0.028482,0.029658,0.041351,-0.045047,0.059541,-0.19089,-0.080776
516,-0.017114,0.032906,0.049472,-0.04862,0.044599,-0.25227,-0.083375
517,-0.00087364,0.037454,0.062464,-0.055116,0.025111,-0.28346,-0.083375
518,0.016666,0.041676,0.075781,-0.058689,0.009845,-0.28865,-0.084349
519,0.028359,0.045899,0.081627,-0.058365,0.0023744,-0.27469,-0.086948
520,0.031282,0.048822,0.081303,-0.054467,0.00042559,-0.2565,-0.088572
521,0.023162,0.049147,0.07773,-0.048296,-0.00022403,-0.24675,-0.086623
522,0.010495,0.048172,0.074806,-0.043423,-0.0041217,-0.24773,-0.078827
523,-0.00022403,0.048822,0.071883,-0.038876,-0.015815,-0.25487,-0.065186
524,-0.0083442,0.048172,0.067986,-0.034654,-0.034978,-0.26364,-0.052193
525,-0.015815,0.046223,0.064088,-0.03173,-0.056741,-0.27014,-0.043099
526,-0.021337,0.047523,0.064737,-0.032705,-0.070382,-0.27014,-0.037902
527,-0.018738,0.057592,0.066686,-0.035628,-0.072981,-0.26169,-0.038876
528,-0.0076946,0.075781,0.06896,-0.036602,-0.06616,-0.24188,-0.0405
529,0.0095202,0.10079,0.071234,-0.030756,-0.053817,-0.21849,-0.039851
530,0.029009,0.12418,0.074482,-0.019063,-0.042124,-0.19803,-0.027833
531,0.051096,0.13782,0.079029,-0.0073698,-0.035628,-0.18926,-0.0073698
532,0.071558,0.13684,0.086824,-0.0015233,-0.038551,-0.19738,0.014717
533,0.084226,0.1258,0.097868,-0.0057458,-0.051868,-0.22661,0.03518
534,0.0865,0.11443,0.11118,-0.019063,-0.072331,-0.27144,0.047523
535,0.084226,0.10924,0.12028,-0.034329,-0.092469,-0.31529,0.047847
536,0.084876,0.10924,0.12158,-0.045697,-0.10968,-0.33867,0.03583
537,0.087474,0.10664,0.11573,-0.053168,-0.12203,-0.33737,0.019589
538,0.087799,0.10177,0.10631,-0.056091,-0.12885,-0.32406,0.0091954
539,0.085525,0.097868,0.098193,-0.053168,-0.12592,-0.31886,0.0052977
540,0.081303,0.096893,0.091696,-0.044398,-0.11618,-0.33283,0.0026992
541,0.074157,0.097543,0.088773,-0.035303,-0.10319,-0.36563,-0.0054209
542,0.066686,0.096244,0.087799,-0.032055,-0.087272,-0.40753,-0.014516
543,0.056292,0.088124,0.091047,-0.032055,-0.068758,-0.44424,-0.019712
544,0.044924,0.078704,0.094945,-0.033354,-0.04927,-0.46113,-0.019063
545,0.03453,0.076431,0.094295,-0.03173,-0.029457,-0.44976,-0.013216
546,0.031932,0.080003,0.0865,-0.031081,-0.012567,-0.41078,-0.0080194
547,0.039727,0.084551,0.076431,-0.028157,-0.00087364,-0.35037,-0.0067202
548,0.051745,0.091372,0.067336,-0.022636,0.0088706,-0.28021,-0.013541
549,0.057917,0.099492,0.064088,-0.013866,0.019264,-0.2133,-0.02426
550,0.059865,0.10664,0.069285,-0.0028225,0.031282,-0.15678,-0.031081
551,0.057267,0.10794,0.078704,0.0088706,0.047198,-0.11131,-0.031406
552,0.048172,0.10144,0.083576,0.018615,0.064088,-0.071032,-0.021661
553,0.035505,0.091696,0.082927,0.026085,0.075131,-0.033679,-0.0076946
554,0.023162,0.07773,0.078704,0.030957,0.075781,0.0033489,0.0078962
555,0.013093,0.064413,0.074806,0.029333,0.06961,0.042326,0.021538
556,0.0039985,0.050121,0.067011,0.022512,0.06019,0.087799,0.030957
557,-0.0057458,0.035505,0.056292,0.012443,0.05272,0.13879,0.03583
558,-0.013216,0.018615,0.045899,0.0026992,0.047847,0.18914,0.038428
559,-0.017764,0.0010752,0.040052,-0.0054209,0.040377,0.23266,0.040702
560,-0.020687,-0.013866,0.041676,-0.0099683,0.031282,0.26807,0.039078
561,-0.021337,-0.020362,0.046548,-0.008669,0.022512,0.2999,0.036154
562,-0.019388,-0.017114,0.054344,-0.0057458,0.019589,0.33368,0.034855
563,-0.012567,-0.012242,0.062139,-0.0024977,0.021213,0.3733,0.039402
564,-0.0015233,-0.013216,0.065712,0.00075039,0.024461,0.42235,0.045574
565,0.0091954,-0.022636,0.062789,0.0033489,0.028034,0.48147,0.05207
566,0.013743,-0.034329,0.054344,0.0049729,0.029658,0.55162,0.055643
567,0.0075714,-0.039201,0.041027,0.010495,0.028684,0.63283,0.055968
568,-0.0031473,-0.033354,0.023162,0.022512,0.029983,0.71533,0.059541
569,-0.010618,-0.017114,0.0062721,0.037454,0.036479,0.79426,0.065387
570,-0.0089938,0.00010078,-0.0067202,0.047523,0.041027,0.85597,0.07708
571,0.003024,0.013743,-0.010943,0.053694,0.040052,0.8852,0.091047
572,0.019914,0.01764,-0.0063954,0.059865,0.039078,0.86506,0.10794
573,0.029333,0.013093,0.0014,0.067986,0.041027,0.78646,0.1232
574,0.025436,0.0046481,0.0065969,0.076431,0.046873,0.64972,0.1297
575,0.014068,-0.0037969,0.008221,0.084876,0.051745,0.46685,0.1245
576,0.0017248,-0.0073698,0.008221,0.093645,0.05142,0.27002,0.10664
577,-0.0060706,-0.0028225,0.0049729,0.10404,0.046223,0.09397,0.082927
578,-0.0080194,0.0059473,-0.0015233,0.11508,0.036154,-0.036278,0.06019
579,-0.0076946,0.012768,-0.011592,0.12093,0.02641,-0.10709,0.041676
580,-0.0050961,0.013093,-0.024909,0.11801,0.020564,-0.12495,0.028359
581,0.0017248,0.0052977,-0.035953,0.10761,0.020888,-0.10774,0.020564
582,0.014392,-0.0076946,-0.039851,0.09397,0.019914,-0.079477,0.017316
583,0.024461,-0.016464,-0.036278,0.082927,0.014717,-0.058689,0.016341
584,0.025111,-0.018738,-0.029782,0.078704,0.0052977,-0.046996,0.011469
585,0.015692,-0.012567,-0.024909,0.076106,-0.0050961,-0.040175,0.0059473
586,0.0014,-0.0050961,-0.019712,0.07773,-0.01549,-0.036927,0.0033489
587,-0.019063,-0.00087364,-0.012567,0.084551,-0.022961,-0.037577,0.00042559
588,-0.042124,-0.0018481,-0.0044465,0.097543,-0.02361,-0.034978,-0.007045
589,-0.060313,-0.0063954,-0.00087364,0.11183,-0.018738,-0.02426,-0.015815
590,-0.068758,-0.012567,-0.0018481,0.11963,-0.012892,-0.0050961,-0.025884
591,-0.06616,-0.016789,-0.0011985,0.11898,-0.014191,0.015692,-0.033354
592,-0.053817,-0.01614,0.0014,0.11378,-0.021661,0.042001,-0.037902
593,-0.037577,-0.013541,0.003024,0.10566,-0.028807,0.079679,-0.035303
594,-0.024585,-0.012567,0.00075039,0.097218,-0.03303,0.13425,-0.027833
595,-0.021986,-0.012242,-0.0041217,0.092671,-0.030756,0.20083,-0.016789
596,-0.03173,-0.011592,-0.0083442,0.092996,-0.021661,0.27164,-0.0054209
597,-0.046347,-0.010943,-0.010943,0.096893,-0.010943,0.33628,0.0043233
598,-0.052518,-0.012567,-0.011917,0.098842,0.00010078,0.3876,0.009845
599,-0.046671,-0.01484,-0.013216,0.093645,0.0052977,0.423,0.0095202
600,-0.031081,-0.013866,-0.018738,0.081627,0.0033489,0.43632,0.0026992
601,-0.016464,-0.007045,-0.026533,0.06831,-0.0044465,0.41878,-0.0060706
602,-0.013216,0.0020496,-0.03303,0.059216,-0.016464,0.36291,-0.017764
603,-0.019388,0.0069217,-0.035953,0.054993,-0.025559,0.27132,-0.034004
604,-0.029457,0.0043233,-0.039201,0.052395,-0.026533,0.15536,-0.050569
605,-0.037252,-0.0021729,-0.042774,0.051745,-0.018413,0.030633,-0.063237
606,-0.043423,-0.0099683,-0.046996,0.051745,-0.0041217,-0.083375,-0.070382
607,-0.047321,-0.012892,-0.050894,0.053044,0.012119,-0.17659,-0.076229
608,-0.047321,-0.0096434,-0.053168,0.055968,0.023487,-0.24448,-0.079477
609,-0.042449,-0.0047713,-0.055116,0.062139,0.02706,-0.29288,-0.081751
610,-0.030431,-0.0047713,-0.062262,0.066037,0.02641,-0.3338,-0.085973
611,-0.015815,-0.0067202,-0.074605,0.063113,0.023487,-0.36758,-0.09182
612,-0.0031473,-0.0044465,-0.091495,0.05272,0.016341,-0.39649,-0.097341
613,0.0065969,0.0023744,-0.10774,0.037454,0.0069217,-0.41923,-0.098965
614,0.01017,0.012443,-0.11748,0.024137,-0.00054884,-0.43287,-0.10026
615,0.0095202,0.020564,-0.11943,0.016991,-0.0067202,-0.43222,-0.098641
616,0.0033489,0.021863,-0.11943,0.013093,-0.010293,-0.41565,-0.094093
617,-0.0024977,0.015042,-0.12235,0.010495,-0.011917,-0.38415,-0.090521
618,-0.0076946,0.0065969,-0.1269,0.0020496,-0.016789,-0.34809,-0.084999
619,-0.0096434,0.0020496,-0.13307,-0.011592,-0.025234,-0.32308,-0.074605
620,-0.0099683,0.00010078,-0.13729,-0.026209,-0.034978,-0.31204,-0.059664
621,-0.010618,-0.0034721,-0.13957,-0.035628,-0.044723,-0.30977,-0.044723
622,-0.010618,-0.0083442,-0.14281,-0.042124,-0.050569,-0.31106,-0.032705
623,-0.0096434,-0.012892,-0.14801,-0.046022,-0.052518,-0.30652,-0.025234
624,-0.0060706,-0.018738,-0.15905,-0.04927,-0.055116,-0.28378,-0.023285
625,-0.0021729,-0.02426,-0.17465,-0.048296,-0.057715,-0.22824,-0.022961
626,-0.0044465,-0.024585,-0.18926,-0.045047,-0.05739,-0.1269,-0.020687
627,-0.010943,-0.019063,-0.19966,-0.042449,-0.051544,0.017965,-0.011267
628,-0.018738,-0.011592,-0.20453,-0.042449,-0.040825,0.18297,0.0020496
629,-0.025234,-0.0050961,-0.2016,-0.040175,-0.026533,0.33173,0.016341
630,-0.026533,0.00010078,-0.19089,-0.036927,-0.0096434,0.43437,0.02706
631,-0.023935,0.0010752,-0.17497,-0.029457,0.0056225,0.47432,0.030957
632,-0.020687,-0.0044465,-0.15743,-0.020687,0.011794,0.44898,0.028034
633,-0.019063,-0.013866,-0.13892,-0.016789,0.0091954,0.37233,0.020239
634,-0.017114,-0.018738,-0.1204,-0.019063,0.0020496,0.26579,0.013743
635,-0.020687,-0.018088,-0.10546,-0.024909,-0.0034721,0.15179,0.0091954
636,-0.030431,-0.01614,-0.093444,-0.03303,-0.0024977,0.051096,0.0052977
637,-0.039851,-0.018738,-0.0837,-0.043099,0.0023744,-0.024585,0.0046481
638,-0.042449,-0.02426,-0.072006,-0.04992,0.0026992,-0.076554,0.0095202
639,-0.037577,-0.025559,-0.053817,-0.053492,-0.0021729,-0.11261,0.020888
640,-0.029132,-0.018738,-0.034004,-0.053817,-0.0096434,-0.13762,0.030957
641,-0.025234,-0.011592,-0.020362,-0.047321,-0.012892,-0.15613,0.03583
642,-0.026533,-0.010943,-0.013216,-0.035628,-0.012242,-0.16945,0.03453
643,-0.026858,-0.020037,-0.012242,-0.024909,-0.010943,-0.18471,0.029333
644,-0.021012,-0.036278,-0.011917,-0.019712,-0.0099683,-0.2042,0.025436
645,-0.011917,-0.053168,-0.0076946,-0.023285,-0.012242,-0.22986,0.027385
646,-0.00054884,-0.064211,0.0010752,-0.033354,-0.021012,-0.25715,0.039402
647,0.011144,-0.066485,0.015692,-0.045697,-0.038876,-0.27761,0.061814
648,0.022188,-0.068758,0.032257,-0.054467,-0.058689,-0.28378,0.089423
649,0.031607,-0.074605,0.049472,-0.054142,-0.070058,-0.27176,0.10826
650,0.040377,-0.08305,0.066362,-0.045697,-0.071032,-0.24578,0.11443
651,0.051096,-0.087922,0.080003,-0.027508,-0.064211,-0.21427,0.10924
652,0.061489,-0.087597,0.088773,-0.0057458,-0.051544,-0.18861,0.098842
653,0.064737,-0.081101,0.09397,0.014392,-0.038227,-0.17497,0.091372
654,0.063438,-0.068434,0.096893,0.028359,-0.024585,-0.16685,0.088773
655,0.061814,-0.056091,0.10144,0.03583,-0.011592,-0.15776,0.089748
656,0.059216,-0.043748,0.10761,0.038428,-0.00022403,-0.14281,0.092021
657,0.054993,-0.032055,0.11801,0.040052,0.012119,-0.12073,0.092021
658,0.050771,-0.017114,0.12775,0.043625,0.025111,-0.092145,0.084876
659,0.045574,-0.0050961,0.13295,0.050121,0.038428,-0.064211,0.075131
660,0.042001,0.0026992,0.13457,0.051745,0.047523,-0.044723,0.062139
661,0.041676,0.01017,0.13425,0.048497,0.047847,-0.034654,0.044924
662,0.044599,0.020239,0.13035,0.044599,0.038103,-0.030106,0.029658
663,0.047847,0.029333,0.12418,0.04395,0.020239,-0.028807,0.023812
664,0.054019,0.032582,0.12028,0.044924,0.00075039,-0.030431,0.030633
665,0.06084,0.030308,0.11768,0.044924,-0.012567,-0.032055,0.044599
666,0.067011,0.026735,0.11508,0.041351,-0.015815,-0.028807,0.058241
667,0.069934,0.024137,0.10794,0.036804,-0.0089938,-0.014191,0.066686
668,0.067011,0.025436,0.096244,0.032906,0.0059473,0.0091954,0.072533
669,0.06019,0.034206,0.082927,0.032582,0.023487,0.032257,0.078379
670,0.051745,0.047198,0.072858,0.03518,0.039078,0.046548,0.079679
671,0.044599,0.062139,0.06831,0.038428,0.045249,0.05272,0.076106
672,0.040702,0.074482,0.067336,0.040052,0.039078,0.055318,0.067661
673,0.040377,0.086175,0.068635,0.042326,0.024461,0.06019,0.054993
674,0.041351,0.096244,0.072208,0.042326,0.011469,0.072533,0.04395
675,0.044599,0.10566,0.078055,0.037778,0.0088706,0.086824,0.040052
676,0.05207,0.11671,0.083901,0.030633,0.021538,0.099817,0.046223
677,0.063113,0.12872,0.090072,0.019589,0.042326,0.11313,0.056942
678,0.070909,0.13522,0.093645,0.011144,0.059541,0.1284,0.061165
679,0.073832,0.13165,0.09462,0.008221,0.067011,0.14529,0.057592
680,0.070584,0.12158,0.092996,0.010495,0.065062,0.15926,0.048172
681,0.066362,0.11151,0.089098,0.016016,0.062464,0.1651,0.034206
682,0.066686,0.10761,0.080003,0.020239,0.059865,0.15438,0.019589
683,0.071558,0.10956,0.067011,0.020888,0.058566,0.1271,0.0046481
684,0.078379,0.11703,0.054668,0.015367,0.059216,0.089748,-0.0054209
685,0.081952,0.12743,0.047847,0.0049729,0.060515,0.050771,-0.011917
686,0.074806,0.14074,0.049472,-0.0044465,0.057592,0.020564,-0.01549
687,0.062139,0.15276,0.059541,-0.0096434,0.049472,0.0049729,-0.019063
688,0.055318,0.15666,0.073182,-0.0057458,0.038428,0.0033489,-0.022311
689,0.056942,0.15406,0.079354,-0.00054884,0.025111,0.012443,-0.026209
690,0.066037,0.14951,0.075131,0.0026992,0.009845,0.030308,-0.031406
691,0.078704,0.14659,0.062789,0.0036737,-0.0018481,0.045249,-0.036927
692,0.087474,0.14464,0.055968,0.00010078,-0.0047713,0.053044,-0.04115
693,0.084226,0.1349,0.056292,-0.007045,0.00042559,0.050121,-0.043423
694,0.070584,0.11541,0.062464,-0.010293,0.0059473,0.040052,-0.042449
695,0.05207,0.086175,0.070584,-0.0060706,0.0033489,0.024786,-0.036927
696,0.038428,0.054019,0.075456,0.0017248,-0.0089938,0.0085458,-0.031081
697,0.029983,0.026735,0.073182,0.0065969,-0.026209,-0.0047713,-0.027183
698,0.026735,0.0085458,0.065712,0.008221,-0.042124,-0.012242,-0.028807
699,0.024137,0.0036737,0.057267,0.01017,-0.053817,-0.008669,-0.037902
700,0.021213,0.0078962,0.047847,0.017316,-0.061937,0.008221,-0.050244
701,0.01894,0.018615,0.036479,0.02641,-0.067134,0.032906,-0.064211
702,0.014068,0.030633,0.022837,0.034206,-0.069083,0.059541,-0.07428
703,0.0095202,0.038753,0.0091954,0.040702,-0.063886,0.086175,-0.076879
704,0.0069217,0.037778,-0.0041217,0.042975,-0.055116,0.10891,-0.073631
705,0.0059473,0.024461,-0.016789,0.038103,-0.048945,0.11963,-0.067134
706,0.0069217,-0.0011985,-0.028482,0.027385,-0.047321,0.11151,-0.061937
707,0.0043233,-0.026858,-0.040175,0.016991,-0.046022,0.082927,-0.059014
708,-0.0018481,-0.046671,-0.047971,0.009845,-0.044723,0.029983,-0.057715
709,-0.0080194,-0.058689,-0.04992,0.0085458,-0.039526,-0.044398,-0.059014
710,-0.012892,-0.066485,-0.046996,0.010495,-0.031081,-0.13015,-0.059014
711,-0.014516,-0.07428,-0.043099,0.016341,-0.02426,-0.21037,-0.053817
712,-0.016789,-0.08305,-0.040175,0.025761,-0.020037,-0.27274,-0.044398
713,-0.018738,-0.091495,-0.038227,0.036804,-0.015815,-0.30879,-0.030756
714,-0.020362,-0.09182,-0.033679,0.0433,-0.0037969,-0.31594,-0.017439
715,-0.021337,-0.087597,-0.026209,0.042001,0.014717,-0.30035,-0.0089938
716,-0.024909,-0.082076,-0.01614,0.041027,0.034855,-0.26981,-0.0073698
717,-0.030431,-0.077853,-0.0060706,0.044924,0.050446,-0.23181,-0.008669
718,-0.034978,-0.07493,0.0017248,0.054993,0.06019,-0.18471,-0.010293
719,-0.034654,-0.069408,0.0085458,0.066362,0.064737,-0.1282,-0.008669
720,-0.032055,-0.060638,0.012768,0.071234,0.065387,-0.065186,-0.00054884
721,-0.033679,-0.04862,0.011794,0.066686,0.067661,0.0052977,0.017316
722,-0.041799,-0.036602,0.010819,0.05272,0.073507,0.088124,0.042975
723,-0.057715,-0.024585,0.012443,0.036804,0.080328,0.19076,0.06831
724,-0.075255,-0.01549,0.017965,0.027709,0.082602,0.32036,0.082602
725,-0.085973,-0.0080194,0.022837,0.028034,0.078055,0.47529,0.083576
726,-0.087922,-0.0050961,0.026735,0.03518,0.071558,0.64062,0.076106
727,-0.084999,-0.007045,0.033231,0.042001,0.065712,0.79003,0.067986
728,-0.081101,-0.011267,0.039402,0.042651,0.061165,0.8956,0.066686
729,-0.078503,-0.015165,0.044275,0.03518,0.055643,0.9362,0.070584
730,-0.076554,-0.020037,0.048172,0.024137,0.048172,0.90729,0.081627
731,-0.075904,-0.026533,0.046873,0.014068,0.040052,0.82056,0.096569
732,-0.077528,-0.028807,0.041676,0.0095202,0.029009,0.69909,0.11118
733,-0.078503,-0.026858,0.033231,0.009845,0.014717,0.56884,0.1206
734,-0.079477,-0.021337,0.025111,0.015042,0.0033489,0.45223,0.12093
735,-0.080127,-0.017114,0.020888,0.020564,0.0010752,0.36161,0.11248
736,-0.080451,-0.01549,0.01894,0.020239,0.0091954,0.2947,0.098193
737,-0.079477,-0.01614,0.018615,0.012768,0.02706,0.23559,0.0865
738,-0.072006,-0.018738,0.023162,0.0023744,0.049796,0.17095,0.082927
739,-0.057715,-0.022636,0.031932,-0.0093186,0.070909,0.098517,0.087474
740,-0.038551,-0.024585,0.039078,-0.015815,0.082927,0.024137,0.095594
741,-0.021337,-0.025234,0.040702,-0.018738,0.078704,-0.034654,0.10112
742,-0.0080194,-0.023285,0.035505,-0.021337,0.064413,-0.059664,0.097868
743,0.0010752,-0.021986,0.029009,-0.026533,0.044599,-0.04992,0.085525
744,0.011144,-0.018088,0.025111,-0.03303,0.019914,-0.022311,0.074482
745,0.019589,-0.015165,0.022837,-0.034004,-0.0067202,-0.0060706,0.071234
746,0.023812,-0.013866,0.01764,-0.025559,-0.030106,-0.018738,0.072533
747,0.019264,-0.01549,0.0069217,-0.016464,-0.045372,-0.062262,0.071883
748,0.01017,-0.014191,-0.0076946,-0.017439,-0.051544,-0.13015,0.067661
749,0.0062721,-0.0063954,-0.018738,-0.030431,-0.055116,-0.20875,0.058566
750,0.0095202,0.0065969,-0.024585,-0.047646,-0.05804,-0.28703,0.045249
751,0.016666,0.020239,-0.026858,-0.060313,-0.062262,-0.35167,0.030308
752,0.022188,0.029333,-0.026858,-0.064861,-0.068109,-0.39551,0.014392
753,0.025761,0.029658,-0.02426,-0.063886,-0.072981,-0.41435,0.00042559
754,0.029983,0.023487,-0.020362,-0.060313,-0.074605,-0.41176,-0.011917
755,0.032257,0.016016,-0.020037,-0.054142,-0.071682,-0.39941,-0.026209
756,0.031607,0.011469,-0.025884,-0.046022,-0.064861,-0.38707,-0.043099
757,0.029009,0.01017,-0.035953,-0.038551,-0.057715,-0.38122,-0.059664
758,0.027709,0.015042,-0.045372,-0.03173,-0.054467,-0.38122,-0.07493
759,0.029983,0.024137,-0.053817,-0.025884,-0.059014,-0.37798,-0.090845
760,0.036154,0.039078,-0.056416,-0.021012,-0.073955,-0.36531,-0.10384
761,0.040702,0.055318,-0.054792,-0.020037,-0.091495,-0.34355,-0.10838
762,0.039402,0.067986,-0.048945,-0.02361,-0.10189,-0.31464,-0.10579
763,0.031607,0.074482,-0.039526,-0.027833,-0.09994,-0.28216,-0.097991
764,0.016341,0.074806,-0.028482,-0.03173,-0.085973,-0.25325,-0.094418
765,0.00010078,0.071234,-0.021337,-0.034978,-0.068758,-0.23603,-0.098316
766,-0.01484,0.065387,-0.016464,-0.037577,-0.056741,-0.23084,-0.10709
767,-0.021012,0.060515,-0.013216,-0.034329,-0.054142,-0.23441,-0.11618
768,-0.017764,0.059541,-0.0054209,-0.02361,-0.05804,-0.24545,-0.12722
769,-0.0060706,0.059865,0.0033489,-0.0096434,-0.063886,-0.25715,-0.13567
770,0.0075714,0.059865,0.0075714,0.0010752,-0.069083,-0.26234,-0.13567
771,0.019914,0.056292,0.0059473,0.0085458,-0.069733,-0.25682,-0.12527
772,0.028034,0.048822,0.0014,0.015367,-0.064536,-0.24253,-0.10774
773,0.033881,0.043625,-0.0024977,0.022188,-0.054792,-0.22207,-0.089546
774,0.035505,0.045574,-0.0054209,0.029333,-0.047971,-0.19316,-0.078827
775,0.033231,0.053369,-0.008669,0.035505,-0.045047,-0.15841,-0.075255
776,0.028034,0.065387,-0.012242,0.039727,-0.042449,-0.1243,-0.077853
777,0.019589,0.078379,-0.016789,0.040052,-0.036278,-0.094093,-0.080127
778,0.01017,0.087149,-0.020687,0.036154,-0.026858,-0.061613,-0.079152
779,0.0049729,0.090722,-0.023285,0.028359,-0.01614,-0.027508,-0.074605
780,0.0091954,0.08585,-0.023935,0.01764,-0.0063954,0.00075039,-0.068434
781,0.017316,0.075456,-0.02361,0.0069217,0.0023744,0.011794,-0.059339
782,0.022188,0.066362,-0.019712,0.0026992,0.0075714,0.0023744,-0.050894
783,0.020239,0.061489,-0.012242,0.0056225,0.01017,-0.025559,-0.043099
784,0.0095202,0.058891,-0.00087364,0.011469,0.0056225,-0.062587,-0.035953
785,0.00075039,0.053044,0.012443,0.015367,-0.0054209,-0.10026,-0.031406
786,-0.0024977,0.040377,0.021863,0.016991,-0.018738,-0.1334,-0.032705
787,-0.0028225,0.024786,0.021863,0.013093,-0.026858,-0.15776,-0.035628
788,-0.0063954,0.012443,0.016341,0.0069217,-0.02361,-0.17692,-0.039851
789,-0.012892,0.0056225,0.0091954,-0.00054884,-0.012242,-0.19933,-0.039201
790,-0.021986,0.0072465,0.0056225,-0.0076946,-0.0018481,-0.23181,-0.03173
791,-0.029457,0.011469,0.0072465,-0.012242,0.003024,-0.27404,-0.019388
792,-0.034329,0.013743,0.01017,-0.013866,0.0014,-0.31529,-0.0034721
793,-0.037252,0.012768,0.0085458,-0.013216,-0.0024977,-0.33283,0.009845
794,-0.036927,0.009845,-0.0037969,-0.010943,-0.0041217,-0.30977,0.016341
795,-0.030756,0.0062721,-0.02361,-0.0060706,-0.0034721,-0.2461,0.020239
796,-0.020037,0.0062721,-0.043099,0.00075039,-0.00022403,-0.1623,0.028034
797,-0.0054209,0.009845,-0.052843,0.0069217,0.0075714,-0.090845,0.040377
798,0.0091954,0.013093,-0.051868,0.013093,0.020888,-0.051544,0.053694
799,0.01894,0.014068,-0.046996,0.021213,0.031282,-0.044723,0.06961
800,0.024461,0.011144,-0.04115,0.033231,0.033231,-0.052843,0.084551
801,0.02706,0.0046481,-0.032055,0.045899,0.027385,-0.060638,0.097868
802,0.027709,-0.0054209,-0.020687,0.055968,0.021538,-0.055766,0.10631
803,0.029658,-0.016789,-0.010293,0.061489,0.020239,-0.033354,0.11086
804,0.033231,-0.026533,-0.0096434,0.064088,0.021863,0.0059473,0.11443
805,0.037129,-0.032705,-0.020037,0.066362,0.023812,0.056292,0.11866
806,0.038753,-0.036602,-0.039851,0.071558,0.023487,0.11021,0.1258
807,0.039402,-0.041475,-0.060963,0.077405,0.024461,0.16218,0.13749
808,0.039402,-0.048945,-0.078503,0.080328,0.025761,0.20798,0.15049
809,0.040702,-0.055116,-0.084674,0.076755,0.025111,0.24371,0.1651
810,0.045899,-0.054792,-0.079477,0.071558,0.020564,0.26872,0.17907
811,0.053369,-0.045372,-0.068758,0.062464,0.0078962,0.28041,0.18492
812,0.055968,-0.034004,-0.060963,0.050771,-0.008669,0.28073,0.17745
813,0.05207,-0.02361,-0.059989,0.037129,-0.026533,0.27814,0.15731
814,0.045249,-0.015815,-0.064536,0.027709,-0.039526,0.28333,0.13522
815,0.038103,-0.010943,-0.071032,0.028684,-0.046996,0.296,0.11768
816,0.031932,-0.0080194,-0.079802,0.040702,-0.053168,0.30282,0.10371
817,0.023812,-0.0047713,-0.092469,0.055643,-0.060638,0.29015,0.091372
818,0.013743,-0.0015233,-0.10709,0.065387,-0.070058,0.25053,0.080003
819,0.0043233,-0.0037969,-0.11521,0.071558,-0.075255,0.19076,0.076755
820,-0.0037969,-0.013216,-0.11196,0.076106,-0.07493,0.12937,0.078704
821,-0.008669,-0.022961,-0.097341,0.078379,-0.071357,0.084226,0.0865
822,-0.0080194,-0.032055,-0.078503,0.079029,-0.062262,0.061165,0.099817
823,-0.0011985,-0.038551,-0.061613,0.079354,-0.045372,0.054668,0.11638
824,0.0095202,-0.041475,-0.045047,0.082927,-0.019063,0.057592,0.13457
825,0.019589,-0.039526,-0.027833,0.088773,0.013093,0.063763,0.15049
826,0.025761,-0.036278,-0.010293,0.095594,0.041676,0.063113,0.15893
827,0.026735,-0.036927,0.0052977,0.10144,0.055643,0.045249,0.15016
828,0.02706,-0.040175,0.01894,0.10144,0.054993,0.0036737,0.12028
829,0.029983,-0.044723,0.029658,0.097868,0.045899,-0.054467,0.078055
830,0.031607,-0.046347,0.036804,0.092346,0.036154,-0.11261,0.03583
831,0.026085,-0.043748,0.038103,0.089748,0.032582,-0.15646,0.0026992
832,0.017316,-0.035953,0.041351,0.091372,0.037454,-0.17822,-0.017439
833,0.011794,-0.024585,0.044924,0.098193,0.050771,-0.17984,-0.023285
834,0.011144,-0.01484,0.048497,0.10599,0.067986,-0.16555,-0.021661
835,0.016991,-0.010618,0.052395,0.10794,0.086175,-0.14411,-0.020037
836,0.024786,-0.01484,0.057267,0.10534,0.10047,-0.1178,-0.022636
837,0.034855,-0.021012,0.061165,0.098842,0.10761,-0.084024,-0.030106
838,0.045249,-0.020687,0.067011,0.095269,0.11086,-0.037252,-0.037577
839,0.055318,-0.0083442,0.074806,0.098842,0.10891,0.02706,-0.042449
840,0.059865,0.016991,0.084226,0.10859,0.10306,0.11476,-0.041475
841,0.059216,0.050771,0.095269,0.11833,0.095919,0.23006,-0.031081
842,0.052395,0.084226,0.10501,0.11995,0.088124,0.36356,-0.017439
843,0.044275,0.10826,0.11281,0.10956,0.080978,0.49868,-0.0089938
844,0.038428,0.11801,0.11995,0.0865,0.074157,0.62568,-0.0089938
845,0.040052,0.11703,0.12645,0.054344,0.065712,0.73384,-0.016789
846,0.047198,0.11086,0.13002,0.021213,0.055968,0.81017,-0.034654
847,0.05207,0.10469,0.1284,-0.0031473,0.044599,0.83583,-0.059014
848,0.049147,0.099167,0.12418,-0.017114,0.033881,0.79685,-0.080451
849,0.043625,0.09397,0.12158,-0.021661,0.028034,0.69129,-0.093769
850,0.039402,0.086824,0.1206,-0.020687,0.028034,0.53928,-0.098316
851,0.037778,0.07708,0.11931,-0.017439,0.032257,0.37136,-0.098641
852,0.039402,0.06961,0.11898,-0.013216,0.040377,0.21382,-0.09994
853,0.040702,0.065387,0.11898,-0.008669,0.049796,0.0865,-0.10124
854,0.037129,0.065387,0.11606,-0.0050961,0.054019,-0.0018481,-0.10384
855,0.026735,0.067661,0.10826,-0.007045,0.050446,-0.056741,-0.10871
856,0.012443,0.066362,0.092671,-0.016464,0.042651,-0.092145,-0.11261
857,-0.00054884,0.058566,0.074157,-0.034329,0.033556,-0.123,-0.11488
858,-0.010943,0.045899,0.055318,-0.053817,0.019914,-0.15451,-0.11813
859,-0.015815,0.031607,0.039402,-0.067134,0.0017248,-0.18764,-0.12203
860,-0.012892,0.016666,0.028359,-0.071032,-0.018738,-0.2159,-0.1256
861,-0.0028225,0.0039985,0.023162,-0.072656,-0.041475,-0.23149,-0.12268
862,0.0075714,-0.0093186,0.022837,-0.076229,-0.062912,-0.22759,-0.11293
863,0.011144,-0.020687,0.023162,-0.080127,-0.077528,-0.20648,-0.10059
864,0.0062721,-0.030431,0.019589,-0.08305,-0.081751,-0.17854,-0.085324
865,-0.0031473,-0.038227,0.011794,-0.083375,-0.080776,-0.1597,-0.067134
866,-0.013866,-0.041475,0.0033489,-0.079802,-0.082076,-0.16165,-0.045697
867,-0.021661,-0.041799,0.00010078,-0.073306,-0.086948,-0.18569,-0.025559
868,-0.026533,-0.039201,0.0014,-0.067134,-0.09117,-0.22499,-0.0073698
869,-0.027183,-0.033354,0.0020496,-0.063561,-0.094743,-0.26364,0.0043233
870,-0.026533,-0.024585,-0.00022403,-0.06681,-0.097991,-0.28768,0.0091954
871,-0.02361,-0.018738,-0.0080194,-0.070058,-0.10221,-0.2932,0.0088706
872,-0.022636,-0.014191,-0.018088,-0.071357,-0.11001,-0.28313,0.0065969
873,-0.023935,-0.0054209,-0.021661,-0.069733,-0.11975,-0.26429,0.0020496
874,-0.023935,0.0088706,-0.010293,-0.06681,-0.12885,-0.24253,-0.0021729
875,-0.024909,0.025436,0.011794,-0.065186,-0.13372,-0.22012,-0.0050961
876,-0.026858,0.038103,0.036479,-0.062587,-0.1308,-0.19478,-0.0047713
877,-0.03173,0.045249,0.05207,-0.059664,-0.11975,-0.16685,0.00042559
878,-0.039201,0.050121,0.05207,-0.054467,-0.10546,-0.13729,0.0046481
879,-0.048296,0.05142,0.036154,-0.047971,-0.093769,-0.10676,0.0052977
880,-0.054467,0.049472,0.013743,-0.039201,-0.084674,-0.071032,0.0046481
881,-0.05739,0.042975,-0.0047713,-0.030756,-0.071682,-0.028807,0.0043233
882,-0.057715,0.034855,-0.01549,-0.024909,-0.050569,0.01894,0.0065969
883,-0.056741,0.027385,-0.022636,-0.021337,-0.021986,0.065387,0.010495
884,-0.05804,0.022837,-0.026858,-0.018413,0.01017,0.10014,0.011144
885,-0.063561,0.022188,-0.029457,-0.014516,0.042975,0.11963,0.0039985
886,-0.068758,0.025436,-0.031406,-0.008669,0.072533,0.13132,-0.007045
887,-0.069733,0.028034,-0.032055,-0.0037969,0.10014,0.14821,-0.017764
888,-0.067134,0.023812,-0.033679,-0.0034721,0.11963,0.18004,-0.022311
889,-0.060963,0.015692,-0.035303,-0.0054209,0.12872,0.22747,-0.015815
890,-0.054142,0.0056225,-0.036278,-0.0047713,0.12548,0.28268,0.0046481
891,-0.046671,-0.0024977,-0.034978,-0.0041217,0.11346,0.33465,0.037129
892,-0.038551,-0.0063954,-0.031406,0.00010078,0.097218,0.385,0.073182
893,-0.032705,-0.0093186,-0.028482,0.0072465,0.08585,0.42397,0.099492
894,-0.029457,-0.011592,-0.026533,0.013743,0.084226,0.43632,0.11183
895,-0.026858,-0.01484,-0.023935,0.016341,0.088448,0.40611,0.11151
896,-0.022961,-0.017439,-0.017764,0.018615,0.091696,0.33303,0.099492
897,-0.017439,-0.018413,-0.0073698,0.020888,0.088448,0.23006,0.083251
898,-0.013541,-0.01549,0.0052977,0.021538,0.07773,0.11151,0.064413
899,-0.013541,-0.011267,0.014068,0.020888,0.063438,-0.0044465,0.046548
900,-0.016789,-0.0067202,0.015367,0.01894,0.049147,-0.10091,0.034206
901,-0.01549,-0.0037969,0.008221,0.016666,0.040702,-0.16458,0.02641
902,-0.0073698,-0.00087364,-0.0067202,0.011794,0.037129,-0.19673,0.022837
903,0.0026992,0.0020496,-0.027508,0.0033489,0.031932,-0.20875,0.023812
904,0.0062721,0.0062721,-0.045047,-0.0063954,0.01829,-0.21297,0.030633
905,-0.00054884,0.011794,-0.056091,-0.011917,-0.0063954,-0.22109,0.042975
906,-0.0080194,0.015042,-0.059014,-0.0096434,-0.034654,-0.23831,0.061489
907,-0.0057458,0.016341,-0.05739,-0.0054209,-0.058365,-0.26137,0.080003
908,0.0039985,0.016341,-0.052518,-0.0018481,-0.068434,-0.28443,0.091696
909,0.022512,0.015692,-0.046347,-0.00087364,-0.061613,-0.30197,0.095919
910,0.042975,0.013743,-0.041475,-0.0021729,-0.040825,-0.30977,0.090072
911,0.063763,0.0056225,-0.039526,-0.0021729,-0.016789,-0.29807,0.079679
912,0.081627,-0.0034721,-0.039851,0.0010752,-0.00054884,-0.26397,0.067661
913,0.093321,-0.0060706,-0.043423,0.0072465,0.0078962,-0.2172,0.057917
914,0.094945,-0.00022403,-0.048945,0.012768,0.011469,-0.1727,0.047198
915,0.0865,0.0062721,-0.055116,0.012443,0.011794,-0.14152,0.036479
916,0.072208,0.008221,-0.056091,0.0072465,0.0091954,-0.12982,0.028684
917,0.058566,0.0020496,-0.050894,-0.0024977,0.0020496,-0.13567,0.024786
918,0.050446,-0.0096434,-0.043099,-0.0080194,-0.012567,-0.15256,0.027385
919,0.05207,-0.021986,-0.036602,-0.0057458,-0.031081,-0.16945,0.034206
920,0.058891,-0.027183,-0.032055,0.0039985,-0.046671,-0.18179,0.045249
921,0.062464,-0.024909,-0.029132,0.011144,-0.057065,-0.18342,0.055643
922,0.057267,-0.018088,-0.029457,0.0095202,-0.062587,-0.16815,0.059216
923,0.042326,-0.011267,-0.032055,0.0026992,-0.06551,-0.13632,0.053044
924,0.026085,-0.0054209,-0.032705,-0.0024977,-0.063561,-0.095717,0.041027
925,0.017965,0.0010752,-0.025884,-0.0021729,-0.055441,-0.059664,0.028684
926,0.01764,0.009845,-0.01614,0.0056225,-0.043748,-0.038876,0.021213
927,0.021863,0.023487,-0.010943,0.018615,-0.03173,-0.033679,0.016666
928,0.022837,0.041027,-0.014516,0.029009,-0.022961,-0.035628,0.010819
929,0.023812,0.057917,-0.023935,0.032906,-0.016464,-0.033679,0.0062721
930,0.027385,0.06831,-0.034978,0.034206,-0.0057458,-0.020362,0.00010078
931,0.031607,0.073507,-0.039851,0.036804,0.009845,0.00075039,-0.0031473
932,0.037129,0.074482,-0.036278,0.045249,0.027709,0.022188,-0.0031473
933,0.038103,0.078055,-0.025884,0.054668,0.045574,0.038428,-0.0011985
934,0.036154,0.086824,-0.012567,0.057917,0.054993,0.047847,0.0014
935,0.032906,0.098842,0.00010078,0.05272,0.054344,0.050771,0.00075039
936,0.029333,0.11086,0.011469,0.039727,0.041027,0.05142,-0.0034721
937,0.02706,0.11671,0.018615,0.023812,0.020239,0.050771,-0.012242
938,0.024461,0.11248,0.023487,0.0088706,-0.0031473,0.051745,-0.025884
939,0.019589,0.098193,0.02641,-0.0015233,-0.023935,0.053694,-0.043748
940,0.013743,0.078055,0.031282,-0.0060706,-0.036602,0.05272,-0.057715
941,0.009845,0.054344,0.041027,-0.008669,-0.045047,0.04395,-0.063886
942,0.012768,0.033231,0.050121,-0.0083442,-0.050894,0.029333,-0.062912
943,0.016341,0.020239,0.055968,-0.0050961,-0.056091,0.014717,-0.054792
944,0.016666,0.021863,0.058566,0.0049729,-0.061288,0.0065969,-0.047971
945,0.012443,0.032906,0.058241,0.020239,-0.064211,0.0039985,-0.045697
946,0.00075039,0.045249,0.056617,0.033231,-0.067459,0.0046481,-0.043423
947,-0.015815,0.052395,0.050771,0.042651,-0.06551,0.0075714,-0.035953
948,-0.032705,0.05272,0.041027,0.045574,-0.055116,0.015692,-0.026533
949,-0.042774,0.046548,0.028359,0.044275,-0.03173,0.027709,-0.017439
950,-0.046671,0.036479,0.015692,0.038103,0.003024,0.039078,-0.0093186
951,-0.042449,0.029333,0.0072465,0.031607,0.0433,0.047198,-0.0015233
952,-0.030756,0.02706,0.0049729,0.025761,0.076106,0.054344,0.0046481
953,-0.01614,0.02706,0.0078962,0.019914,0.090397,0.061489,0.015042
954,-0.0031473,0.024786,0.010819,0.015692,0.087474,0.067011,0.029658
955,0.00042559,0.021538,0.010819,0.014392,0.075131,0.064088,0.044599
956,-0.0076946,0.014068,0.0088706,0.017316,0.062139,0.05272,0.059216
957,-0.022636,0.0065969,-0.0011985,0.024461,0.053044,0.037778,0.074482
958,-0.033679,-0.0018481,-0.018413,0.032906,0.04395,0.02706,0.088448
959,-0.035303,-0.008669,-0.037252,0.037454,0.03518,0.019264,0.09397
960,-0.026209,-0.013541,-0.055116,0.03583,0.031282,0.013743,0.087799
961,-0.01549,-0.018088,-0.070058,0.032257,0.031932,0.0095202,0.073832
962,-0.0067202,-0.022636,-0.080776,0.033556,0.033556,0.003024,0.061489
963,-0.0021729,-0.020687,-0.0837,0.040377,0.030308,-0.013866,0.054993
964,0.00010078,-0.014191,-0.078178,0.050446,0.015042,-0.038551,0.055968
965,0.0056225,-0.010943,-0.065835,0.057917,-0.008669,-0.067134,0.061814
966,0.015367,-0.018738,-0.049595,0.059541,-0.028157,-0.093444,0.069285
967,0.027385,-0.033354,-0.03238,0.056292,-0.034329,-0.11878,0.078379
968,0.036804,-0.044723,-0.013541,0.053369,-0.027183,-0.13957,0.087149
969,0.042326,-0.047646,0.0078962,0.056942,-0.014191,-0.15711,0.09462
970,0.044599,-0.044073,0.029658,0.065387,-0.008669,-0.16977,0.10112
971,0.046223,-0.037577,0.046873,0.073182,-0.017439,-0.17302,0.10664
972,0.045249,-0.033679,0.059541,0.075456,-0.034329,-0.16555,0.11151
973,0.040052,-0.029457,0.067336,0.074157,-0.053168,-0.15288,0.10859
974,0.031607,-0.022311,0.072533,0.074806,-0.06616,-0.13892,0.10209
975,0.024137,-0.013866,0.075781,0.079679,-0.072331,-0.12722,0.095269
976,0.020564,-0.0076946,0.080003,0.085525,-0.073631,-0.11586,0.088773
977,0.020888,-0.0034721,0.087799,0.091372,-0.073631,-0.10384,0.080328
978,0.024786,-0.0060706,0.096893,0.098517,-0.071032,-0.090196,0.06961
979,0.031282,-0.01614,0.10501,0.11183,-0.064861,-0.078178,0.054668
980,0.037129,-0.029132,0.11021,0.12807,-0.055116,-0.070382,0.036154
981,0.040052,-0.045047,0.11118,0.14302,-0.045697,-0.063886,0.015367
982,0.03583,-0.059339,0.10761,0.15179,-0.036278,-0.053492,0.0039985
983,0.024461,-0.068758,0.10404,0.14821,-0.029782,-0.034654,0.0072465
984,0.0091954,-0.070382,0.10566,0.13002,-0.026209,-0.0089938,0.021863
985,-0.0080194,-0.06551,0.11248,0.10112,-0.026858,0.015042,0.039727
986,-0.021661,-0.059014,0.11963,0.073182,-0.024909,0.026735,0.054019
987,-0.026209,-0.052843,0.12418,0.055968,-0.021337,0.025761,0.055643
988,-0.021986,-0.046022,0.11963,0.050771,-0.022311,0.017316,0.045249
989,-0.012892,-0.034654,0.10274,0.054668,-0.031081,-0.00022403,0.02641
990,-0.0034721,-0.020687,0.079354,0.060515,-0.044398,-0.022961,0.003024
991,0.0020496,-0.007045,0.06084,0.064413,-0.05804,-0.047646,-0.022636
992,0.0052977,0.0046481,0.050771,0.063113,-0.067459,-0.073631,-0.04992
993,0.0036737,0.011794,0.045574,0.054993,-0.070058,-0.095717,-0.072006
994,-0.0024977,0.013093,0.040377,0.040702,-0.066485,-0.11001,-0.088572
995,-0.013216,0.010495,0.035505,0.024137,-0.057715,-0.10774,-0.096367
996,-0.024585,0.010819,0.030633,0.010495,-0.046022,-0.078827,-0.097991
997,-0.03303,0.015692,0.028684,0.0033489,-0.032055,-0.017114,-0.097341
998,-0.038876,0.027709,0.030957,-0.00022403,-0.016789,0.068635,-0.091495
999,-0.037252,0.046223,0.035505,-0.0015233,0.00010078,0.16933,-0.084349
1000,-0.026209,0.065387,0.03453,-0.0024977,0.021538,0.27944,-0.083375
1001,-0.007045,0.080653,0.024137,-0.0057458,0.047198,0.39507,-0.088572
1002,0.013418,0.087799,0.010495,-0.0089938,0.071883,0.5068,-0.095717
1003,0.029333,0.086824,-0.0011985,-0.0067202,0.087474,0.5919,-0.10351
1004,0.037129,0.082927,-0.0080194,-0.0021729,0.089423,0.62016,-0.10644
1005,0.037778,0.080003,-0.013216,0.0023744,0.081627,0.57956,-0.10514
1006,0.029983,0.076755,-0.017114,0.0056225,0.069934,0.48894,-0.10351
1007,0.020564,0.073182,-0.021012,0.0046481,0.057267,0.38727,-0.10644
1008,0.016991,0.067661,-0.026533,-0.0041217,0.04395,0.30542,-0.11001
1009,0.023812,0.058566,-0.034329,-0.020687,0.032257,0.25507,-0.11196
1010,0.036154,0.049147,-0.043099,-0.039526,0.020564,0.23396,-0.11326
1011,0.044275,0.041676,-0.046996,-0.052843,0.014392,0.23851,-0.11553
1012,0.04395,0.037454,-0.04862,-0.059014,0.013418,0.26384,-0.11715
1013,0.033556,0.033881,-0.04927,-0.060963,0.015367,0.29762,-0.11391
1014,0.016991,0.031282,-0.047971,-0.064536,0.013093,0.33465,-0.10384
1015,0.0033489,0.027709,-0.044073,-0.073306,0.0049729,0.37006,-0.087597
1016,-0.0050961,0.026735,-0.040175,-0.0837,-0.0089938,0.39831,-0.072331
1017,-0.0063954,0.028034,-0.033354,-0.09182,-0.021661,0.41813,-0.061288
1018,-0.0041217,0.031282,-0.027508,-0.092145,-0.025884,0.43534,-0.056091
1019,-0.00087364,0.037454,-0.021012,-0.0824,-0.018413,0.45418,-0.055116
1020,0.00042559,0.043625,-0.013216,-0.06616,0.00075039,0.47042,-0.055766
1021,-0.0021729,0.047523,-0.0044465,-0.051219,0.023487,0.4714,-0.050894
1022,-0.0083442,0.048497,0.0033489,-0.042124,0.046548,0.44249,-0.039851
1023,-0.011917,0.046548,0.0065969,-0.040175,0.065387,0.38045,-0.027833
1024,-0.012567,0.043625,0.0065969,-0.040175,0.080003,0.29113,-0.020362
1025,-0.011917,0.039727,0.0046481,-0.040825,0.087474,0.18297,-0.010293
1026,-0.013541,0.037454,0.00042559,-0.04115,0.088448,0.06831,0.0056225
1027,-0.01549,0.033881,-0.0015233,-0.04115,0.083251,-0.037577,0.020239
1028,-0.01484,0.029009,-0.0018481,-0.036278,0.074482,-0.1178,0.025111
1029,-0.01484,0.023812,-0.0015233,-0.024909,0.062464,-0.16718,0.021863
1030,-0.012242,0.022188,0.00042559,-0.0083442,0.050771,-0.18796,0.016991
1031,-0.0063954,0.024786,0.0010752,0.009845,0.042651,-0.18894,0.01764
1032,-0.00087364,0.023812,-0.0044465,0.021863,0.036479,-0.18504,0.022512
1033,0.0059473,0.014068,-0.019388,0.023487,0.030957,-0.18374,0.028684
1034,0.011469,-0.0011985,-0.039201,0.016991,0.02706,-0.18212,0.032906
1035,0.018615,-0.015165,-0.056091,0.0056225,0.030308,-0.17757,0.032582
1036,0.024461,-0.021661,-0.066485,-0.0021729,0.040052,-0.1675,0.030308
1037,0.026085,-0.022961,-0.070382,-0.0041217,0.053044,-0.161,0.030633
1038,0.025111,-0.02426,-0.072656,-0.0037969,0.059541,-0.18017,0.03518
1039,0.022512,-0.025234,-0.076554,-0.0060706,0.054993,-0.23668,0.041351
1040,0.020888,-0.024585,-0.081426,-0.011917,0.042651,-0.32308,0.049472
1041,0.01894,-0.021661,-0.084349,-0.020362,0.028684,-0.41663,0.061814
1042,0.017316,-0.019063,-0.084349,-0.027508,0.014068,-0.48971,0.076431
1043,0.01829,-0.019388,-0.077528,-0.027833,-0.00054884,-0.53096,0.090722
1044,0.021213,-0.021012,-0.06681,-0.017439,-0.020687,-0.54233,0.10274
1045,0.023162,-0.022961,-0.058689,-0.0021729,-0.044723,-0.53128,0.10566
1046,0.020888,-0.027508,-0.054467,0.016991,-0.068758,-0.50855,0.10501
1047,0.015692,-0.035628,-0.054467,0.03518,-0.084999,-0.47802,0.10696
1048,0.0091954,-0.042774,-0.056741,0.046548,-0.087272,-0.44489,0.11151
1049,0.003024,-0.047646,-0.060313,0.048172,-0.077853,-0.41403,0.11638
1050,0.0010752,-0.051219,-0.062587,0.041351,-0.062912,-0.38707,0.11963
1051,0.0026992,-0.055766,-0.059664,0.032582,-0.050569,-0.36303,0.11801
1052,0.0026992,-0.061613,-0.051868,0.02706,-0.043423,-0.34387,0.11021
1053,0.003024,-0.069733,-0.042124,0.023487,-0.0405,-0.32925,0.10014
1054,0.0023744,-0.076554,-0.029457,0.021213,-0.04115,-0.31854,0.088124
1055,0.0014,-0.080776,-0.015165,0.01764,-0.046671,-0.30457,0.072858
1056,0.0020496,-0.079802,0.00042559,0.014717,-0.053168,-0.27696,0.054993
1057,0.0026992,-0.073306,0.012443,0.011794,-0.056416,-0.23603,0.040052
1058,0.0052977,-0.062262,0.020239,0.0085458,-0.05804,-0.19154,0.030957
1059,0.0088706,-0.046996,0.029658,0.0072465,-0.054792,-0.15256,0.024137
1060,0.0069217,-0.033679,0.0433,0.012119,-0.053492,-0.1243,0.01894
1061,-0.00054884,-0.02426,0.059541,0.020239,-0.059664,-0.10936,0.014717
1062,-0.0047713,-0.020037,0.075456,0.027709,-0.068758,-0.10351,0.011794
1063,-0.0021729,-0.021986,0.083251,0.031282,-0.075904,-0.10221,0.011469
1064,0.0078962,-0.028157,0.081303,0.029658,-0.079477,-0.10189,0.011144
1065,0.019264,-0.034329,0.071883,0.027385,-0.077203,-0.098316,0.0095202
1066,0.028034,-0.037577,0.061165,0.025436,-0.070382,-0.09182,0.0065969
1067,0.031932,-0.036602,0.055318,0.024461,-0.061937,-0.0824,0.0088706
1068,0.030308,-0.03303,0.053694,0.021863,-0.054142,-0.073955,0.016016
1069,0.021863,-0.028807,0.057592,0.017965,-0.047971,-0.072331,0.024786
1070,0.012119,-0.025884,0.065387,0.014392,-0.040825,-0.076554,0.033231
1071,0.0046481,-0.023935,0.072533,0.013418,-0.029782,-0.082725,0.039078
1072,0.0014,-0.020037,0.076106,0.011469,-0.017764,-0.084999,0.040052
1073,0.003024,-0.014516,0.076106,0.010495,-0.0028225,-0.076229,0.038103
1074,0.009845,-0.0067202,0.074157,0.013418,0.013743,-0.054467,0.03583
1075,0.01894,0.0026992,0.067986,0.019914,0.032582,-0.025234,0.038103
1076,0.024137,0.014717,0.054993,0.028359,0.047847,0.0069217,0.038753
1077,0.024137,0.028684,0.038428,0.035505,0.056292,0.035505,0.032906
1078,0.019589,0.038753,0.016991,0.036479,0.058566,0.057592,0.023487
1079,0.014717,0.043625,-0.0031473,0.029333,0.055968,0.069934,0.014392
1080,0.010819,0.044599,-0.015165,0.019264,0.051745,0.07773,0.0072465
1081,0.0078962,0.041676,-0.018738,0.0095202,0.049147,0.083251,0.0043233
1082,0.0062721,0.038103,-0.017764,0.0039985,0.05207,0.091047,0.0017248
1083,0.0059473,0.038103,-0.017439,0.0017248,0.058891,0.099167,-0.0024977
1084,0.0033489,0.041676,-0.018413,-0.0015233,0.067986,0.10014,-0.007045
1085,0.0010752,0.046223,-0.019712,-0.0089938,0.072858,0.084226,-0.0060706
1086,0.0039985,0.047523,-0.021986,-0.019063,0.071558,0.051745,-0.00087364
1087,0.01017,0.044599,-0.024585,-0.030431,0.065062,0.014392,0.0043233
1088,0.016666,0.040377,-0.022961,-0.038876,0.05272,-0.013541,0.0072465
1089,0.024461,0.037454,-0.015815,-0.043748,0.03583,-0.024585,0.0023744
1090,0.033556,0.039727,-0.0057458,-0.042774,0.019589,-0.023935,-0.007045
1091,0.04395,0.045574,0.0072465,-0.034654,0.0078962,-0.01614,-0.013216
1092,0.049796,0.05142,0.019914,-0.021661,0.0020496,-0.0037969,-0.011592
1093,0.044924,0.057592,0.029658,-0.010293,0.003024,0.011469,-0.0044465
1094,0.030633,0.061814,0.037129,-0.0028225,0.012119,0.024786,0.0043233
1095,0.015692,0.062789,0.045249,0.0036737,0.024137,0.034855,0.014068
1096,0.0069217,0.063763,0.050121,0.0095202,0.032906,0.042651,0.022512
1097,0.0062721,0.074482,0.052395,0.020564,0.039402,0.054993,0.024137
1098,0.0091954,0.093645,0.055318,0.039727,0.042651,0.074482,0.018615
1099,0.016666,0.11378,0.058891,0.061814,0.048172,0.092346,0.0091954
1100,0.027385,0.12613,0.058566,0.076106,0.054019,0.10209,0.0020496
1101,0.041027,0.1271,0.054344,0.078704,0.050446,0.10144,0.0036737
1102,0.054668,0.11671,0.047523,0.072208,0.03453,0.092671,0.01017
1103,0.061165,0.099817,0.042326,0.059541,0.0075714,0.077405,0.014068
1104,0.060515,0.080328,0.040377,0.044599,-0.020037,0.054344,0.0059473
1105,0.052395,0.06831,0.038103,0.030957,-0.043099,0.029983,-0.012892
1106,0.040052,0.067011,0.036804,0.01764,-0.060313,0.015692,-0.037577
1107,0.029658,0.071883,0.033231,0.0095202,-0.071357,0.019589,-0.061937
1108,0.026735,0.078379,0.025111,0.010819,-0.07493,0.048822,-0.07493
1109,0.031607,0.083901,0.012768,0.01764,-0.071032,0.10696,-0.072331
1110,0.043625,0.085525,0.0026992,0.029983,-0.061288,0.19628,-0.056416
1111,0.061165,0.080978,-0.0015233,0.044599,-0.047971,0.31419,-0.03238
1112,0.07773,0.06831,-0.00022403,0.057267,-0.029782,0.44281,-0.0093186
1113,0.0852,0.053044,0.0065969,0.063763,-0.010293,0.55422,0.0075714
1114,0.083251,0.040377,0.020564,0.061165,0.0075714,0.62113,0.019589
1115,0.070584,0.032257,0.038428,0.05272,0.016991,0.62146,0.026085
1116,0.05207,0.025111,0.054993,0.041676,0.019914,0.55292,0.024137
1117,0.031282,0.016666,0.067011,0.036479,0.023487,0.43859,0.019589
1118,0.012768,0.010495,0.074157,0.037454,0.030308,0.30737,0.019914
1119,0.00010078,0.0072465,0.07708,0.044924,0.032906,0.18394,0.029658
1120,-0.0057458,0.0036737,0.076431,0.055318,0.029009,0.084876,0.045899
1121,-0.0093186,-0.0011985,0.071883,0.067336,0.020239,0.013093,0.063763
1122,-0.01614,-0.0076946,0.06019,0.077405,0.01017,-0.04115,0.075781
1123,-0.029457,-0.014516,0.042326,0.081952,-0.0021729,-0.087922,0.081303
1124,-0.046022,-0.020362,0.020239,0.081952,-0.013541,-0.13404,0.079354
1125,-0.062262,-0.025559,-0.0021729,0.080653,-0.027833,-0.18017,0.072858
1126,-0.072331,-0.026858,-0.022961,0.080328,-0.043099,-0.22661,0.061814
1127,-0.078178,-0.024909,-0.039201,0.079029,-0.050894,-0.27209,0.050446
1128,-0.080127,-0.02426,-0.052843,0.078704,-0.046347,-0.31496,0.039078
1129,-0.078178,-0.028157,-0.062912,0.078055,-0.029457,-0.34679,0.032582
1130,-0.072981,-0.032705,-0.06681,0.07773,-0.0099683,-0.36011,0.02641
1131,-0.063886,-0.034654,-0.063561,0.078055,0.0036737,-0.35199,0.015692
1132,-0.054467,-0.03238,-0.057065,0.074806,0.0091954,-0.32795,0.00010078
1133,-0.046671,-0.027833,-0.052518,0.064088,0.0046481,-0.29417,-0.015815
1134,-0.04115,-0.020362,-0.052843,0.05207,-0.0028225,-0.2552,-0.026858
1135,-0.036278,-0.0076946,-0.057715,0.042326,-0.0063954,-0.21492,-0.030431
1136,-0.03238,0.009845,-0.062912,0.037129,-0.00022403,-0.17335,-0.029457
1137,-0.029132,0.025436,-0.064861,0.03583,0.01829,-0.1321,-0.024909
1138,-0.027833,0.03583,-0.062587,0.037129,0.040052,-0.085648,-0.016789
1139,-0.029457,0.039727,-0.059014,0.039402,0.054668,-0.024909,-0.0080194
1140,-0.03303,0.039078,-0.050894,0.040702,0.055968,0.048497,-0.0021729
1141,-0.033354,0.036479,-0.038551,0.037129,0.049147,0.12872,-0.0018481
1142,-0.029782,0.034855,-0.022961,0.029333,0.039402,0.20603,-0.0037969
1143,-0.024909,0.036479,-0.010293,0.020239,0.030308,0.27326,-0.0063954
1144,-0.021337,0.039402,-0.0028225,0.013743,0.025111,0.32556,-0.0057458
1145,-0.022311,0.04395,0.0023744,0.0085458,0.026085,0.36518,0.00042559
1146,-0.024585,0.050121,0.0056225,0.0043233,0.031607,0.39799,0.012768
1147,-0.02426,0.054993,0.0069217,0.0020496,0.042001,0.42787,0.025761
1148,-0.021661,0.055968,0.0085458,-0.0031473,0.05272,0.45548,0.034855
1149,-0.019388,0.048822,0.011144,-0.010293,0.058891,0.48439,0.039078
1150,-0.021337,0.037129,0.014392,-0.017439,0.061814,0.51882,0.039727
1151,-0.023285,0.024786,0.014717,-0.021986,0.062139,0.56007,0.03453
1152,-0.022311,0.014717,0.010819,-0.022636,0.060515,0.59905,0.024786
1153,-0.017114,0.0072465,0.0026992,-0.020687,0.056617,0.62795,0.021213
1154,-0.0063954,0.0046481,-0.0057458,-0.018738,0.050446,0.65751,0.025111
1155,0.0069217,0.0043233,-0.016464,-0.020362,0.042326,0.69909,0.03453
1156,0.021863,0.008221,-0.028482,-0.028482,0.03583,0.74976,0.042001
1157,0.037129,0.019589,-0.041475,-0.038876,0.035505,0.79068,0.045574
1158,0.048172,0.034855,-0.051868,-0.045697,0.041027,0.78743,0.042326
1159,0.053369,0.053369,-0.053492,-0.049595,0.047198,0.71175,0.034855
1160,0.05142,0.067011,-0.046996,-0.052518,0.046548,0.55422,0.023812
1161,0.042326,0.071883,-0.036602,-0.054792,0.03453,0.34212,0.009845
1162,0.030308,0.067986,-0.026533,-0.056091,0.013093,0.12028,-0.0057458
1163,0.021213,0.059216,-0.021661,-0.057065,-0.010618,-0.068758,-0.025884
1164,0.020888,0.045574,-0.021661,-0.054792,-0.029457,-0.20648,-0.049595
1165,0.025111,0.033231,-0.024585,-0.049595,-0.041475,-0.28865,-0.076554
1166,0.025436,0.020564,-0.025234,-0.043099,-0.047321,-0.32341,-0.098316
1167,0.017965,0.009845,-0.023285,-0.041799,-0.046671,-0.31951,-0.11358
1168,0.0065969,0.0036737,-0.016464,-0.047646,-0.0405,-0.29223,-0.123
1169,-0.0044465,0.0049729,-0.0073698,-0.057715,-0.031406,-0.26397,-0.13047
1170,-0.012892,0.0088706,0.0023744,-0.069083,-0.022636,-0.2591,-0.13664
1171,-0.021337,0.012443,0.012119,-0.079802,-0.016789,-0.28833,-0.14346
1172,-0.028157,0.011469,0.020888,-0.089221,-0.017439,-0.34322,-0.14801
1173,-0.026858,0.0065969,0.031932,-0.095717,-0.027183,-0.40396,-0.14574
1174,-0.018413,-0.0034721,0.047847,-0.10059,-0.045372,-0.45301,-0.13794
1175,-0.0099683,-0.01484,0.062139,-0.10319,-0.06551,-0.48516,-0.12755
1176,-0.007045,-0.022636,0.071558,-0.10026,-0.081426,-0.49913,-0.11748
1177,-0.008669,-0.02361,0.081303,-0.092794,-0.087597,-0.50238,-0.10384
1178,-0.0083442,-0.021012,0.091372,-0.087272,-0.086298,-0.50108,-0.088247
1179,-0.0031473,-0.020362,0.10242,-0.088896,-0.08305,-0.49913,-0.075579
1180,0.0033489,-0.025884,0.11086,-0.092145,-0.080127,-0.5014,-0.064861
1181,0.0052977,-0.031081,0.11736,-0.093769,-0.08305,-0.50433,-0.056741
1182,0.003024,-0.029782,0.1232,-0.09117,-0.094743,-0.49685,-0.051219
1183,-0.00054884,-0.020687,0.12775,-0.085648,-0.11098,-0.47672,-0.042774
1184,-0.0031473,-0.0057458,0.1271,-0.079477,-0.12592,-0.44813,-0.03238
1185,-0.0034721,0.011469,0.12093,-0.071357,-0.13502,-0.41923,-0.022961
1186,0.00042559,0.030957,0.11346,-0.060963,-0.13794,-0.39811,-0.01549
1187,0.0033489,0.051096,0.10436,-0.051544,-0.13599,-0.38317,-0.0076946
1188,0.0026992,0.066362,0.095269,-0.045697,-0.13242,-0.36791,0.00075039
1189,-0.0024977,0.073832,0.085525,-0.04115,-0.1243,-0.34517,0.013418
1190,-0.011267,0.074157,0.078379,-0.037252,-0.11326,-0.31691,0.024786
1191,-0.022636,0.068635,0.072208,-0.030106,-0.10156,-0.28411,0.033881
1192,-0.038227,0.06084,0.066362,-0.017439,-0.093444,-0.25098,0.040702
1193,-0.04862,0.053044,0.059541,-0.0018481,-0.086623,-0.21687,0.051745
1194,-0.04862,0.042326,0.055643,0.014392,-0.076879,-0.18049,0.069934
1195,-0.038876,0.025761,0.056292,0.029658,-0.061288,-0.14541,0.09397
1196,-0.024909,0.0059473,0.058891,0.042001,-0.042124,-0.11975,0.11671
1197,-0.011592,-0.0096434,0.058891,0.049796,-0.026533,-0.10806,0.12418
1198,-0.0018481,-0.017439,0.05142,0.053694,-0.021337,-0.10676,0.11183
1199,0.0046481,-0.021986,0.03453,0.056942,-0.024585,-0.10709,0.084226
1200,0.0085458,-0.025884,0.016341,0.060515,-0.030431,-0.097341,0.054993
1201,0.0069217,-0.028807,0.0043233,0.061165,-0.034004,-0.074605,0.036804
1202,0.0043233,-0.026209,-0.0021729,0.06019,-0.034004,-0.038551,0.036804
1203,0.00075039,-0.018413,-0.0083442,0.055968,-0.032705,0.0046481,0.048497
1204,-0.0015233,-0.010293,-0.018738,0.053044,-0.029457,0.050121,0.065712
1205,0.00010078,-0.0050961,-0.036602,0.056942,-0.027508,0.096569,0.084876
1206,0.0069217,-0.0063954,-0.05804,0.06831,-0.02361,0.14951,0.097868
1207,0.016991,-0.012567,-0.075904,0.084226,-0.018088,0.20051,0.10209
1208,0.02641,-0.019712,-0.086298,0.10047,-0.010943,0.23851,0.097218
1209,0.029983,-0.024909,-0.088247,0.11638,-0.0024977,0.2502,0.086824
1210,0.024786,-0.027833,-0.085324,0.13197,0.0033489,0.22812,0.076431
1211,0.0085458,-0.03303,-0.078503,0.13684,0.0069217,0.17452,0.070584
1212,-0.012892,-0.044723,-0.067459,0.12515,0.0072465,0.10014,0.070584
1213,-0.032055,-0.060313,-0.052843,0.10112,0.0014,0.023162,0.070259
1214,-0.041475,-0.073631,-0.039526,0.078379,-0.010618,-0.034004,0.065062
1215,-0.037577,-0.080776,-0.034004,0.065387,-0.02361,-0.065186,0.056617
1216,-0.023285,-0.078827,-0.03173,0.064413,-0.032055,-0.072981,0.05142
1217,-0.0028225,-0.072656,-0.027833,0.075456,-0.035628,-0.070058,0.054668
1218,0.016991,-0.062912,-0.022961,0.088773,-0.03173,-0.069083,0.067986
1219,0.033881,-0.054467,-0.022311,0.097218,-0.017114,-0.069408,0.084876
1220,0.041351,-0.047971,-0.027508,0.099817,0.0091954,-0.069408,0.095594
1221,0.043625,-0.0405,-0.04115,0.096244,0.045249,-0.065835,0.092996
1222,0.039727,-0.034004,-0.058689,0.090397,0.072858,-0.061288,0.078379
1223,0.03453,-0.03303,-0.074605,0.084551,0.080003,-0.059014,0.057592
1224,0.027385,-0.036602,-0.086298,0.080978,0.06961,-0.05804,0.040377
1225,0.022512,-0.044073,-0.091495,0.078379,0.050446,-0.055441,0.031932
1226,0.019264,-0.052193,-0.090521,0.070259,0.031282,-0.051868,0.029658
1227,0.022188,-0.053817,-0.086298,0.059865,0.017965,-0.052518,0.02641
1228,0.031282,-0.045047,-0.078503,0.048172,0.014068,-0.062587,0.016016
1229,0.04395,-0.029132,-0.068109,0.038753,0.019914,-0.078827,-0.0028225
1230,0.056617,-0.010943,-0.05804,0.038103,0.033231,-0.10124,-0.026533
1231,0.066037,0.0033489,-0.050244,0.044275,0.052395,-0.12333,-0.047971
1232,0.06961,0.014392,-0.045047,0.052395,0.071558,-0.14119,-0.062262
1233,0.067336,0.021213,-0.044398,0.056617,0.083251,-0.15613,-0.06616
1234,0.065387,0.025761,-0.047646,0.056292,0.081952,-0.16847,-0.057065
1235,0.065062,0.029658,-0.053817,0.05142,0.069285,-0.17237,-0.039851
1236,0.069285,0.036154,-0.062587,0.044275,0.052395,-0.161,-0.018088
1237,0.079354,0.051745,-0.070707,0.036804,0.035505,-0.13015,0.0010752
1238,0.09397,0.072858,-0.072006,0.032257,0.02641,-0.075904,0.016016
1239,0.10826,0.092021,-0.06551,0.031932,0.024786,-0.0063954,0.031282
1240,0.11606,0.10566,-0.057065,0.03583,0.031282,0.073507,0.052395
1241,0.11476,0.11248,-0.048296,0.039078,0.048822,0.16121,0.075131
1242,0.10891,0.11086,-0.040175,0.037454,0.072858,0.25832,0.094945
1243,0.10144,0.10242,-0.030106,0.032906,0.094295,0.35641,0.10859
1244,0.097218,0.094295,-0.019712,0.028684,0.10989,0.4295,0.11508
1245,0.098193,0.087799,-0.0099683,0.028684,0.11995,0.45451,0.11118
1246,0.10079,0.082602,-0.00087364,0.036154,0.1271,0.42268,0.099167
1247,0.099167,0.074482,0.0056225,0.049147,0.12872,0.34862,0.082602
1248,0.087474,0.062139,0.0088706,0.063113,0.12255,0.26092,0.06831
1249,0.06961,0.048497,0.0095202,0.074157,0.10859,0.19174,0.059865
1250,0.05207,0.036479,0.0085458,0.079679,0.091696,0.16088,0.056292
1251,0.038103,0.026085,0.0059473,0.077405,0.078055,0.16803,0.054668
1252,0.027385,0.01829,0.0023744,0.06896,0.070259,0.19986,0.05207
1253,0.016991,0.014717,-0.0015233,0.062139,0.071883,0.23981,0.044599
1254,0.0052977,0.013743,-0.0044465,0.057917,0.079354,0.27944,0.032582
1255,-0.007045,0.012443,-0.0047713,0.051745,0.088124,0.31874,0.015692
1256,-0.017114,0.010495,0.0010752,0.039078,0.090397,0.35512,-0.0047713
1257,-0.023935,0.0078962,0.01017,0.023812,0.082927,0.3785,-0.023285
1258,-0.027183,0.0088706,0.019264,0.009845,0.070909,0.38467,-0.035953
1259,-0.025559,0.014392,0.02706,0.00042559,0.059216,0.37363,-0.038227
1260,-0.022311,0.020239,0.030957,-0.0041217,0.053369,0.35641,-0.028157
1261,-0.019063,0.024137,0.032257,-0.0034721,0.054668,0.34245,-0.011592
1262,-0.016464,0.024137,0.03453,-0.0037969,0.059865,0.33238,0.0043233
1263,-0.011917,0.019914,0.039727,-0.0080194,0.065062,0.32069,0.012768
1264,-0.012567,0.011469,0.048172,-0.017764,0.071883,0.30087,0.014068
1265,-0.019712,0.0033489,0.056942,-0.026533,0.081303,0.26872,0.010819
1266,-0.028482,-0.0024977,0.065062,-0.028157,0.088773,0.22389,0.0072465
1267,-0.030431,-0.0021729,0.072208,-0.017764,0.089098,0.16965,0.0049729
1268,-0.025559,0.0020496,0.078704,0.003024,0.081303,0.11118,0.0039985
1269,-0.016789,0.0010752,0.0865,0.025436,0.06961,0.049796,0.0056225
1270,-0.0099683,-0.0031473,0.091372,0.038428,0.056292,-0.0073698,0.009845
1271,-0.0080194,-0.0067202,0.095594,0.040702,0.04395,-0.05804,0.015042
1272,-0.012242,-0.0063954,0.10144,0.039402,0.031932,-0.10189,0.017316
1273,-0.019712,-0.0034721,0.10664,0.039078,0.019589,-0.13892,0.01764
1274,-0.027833,0.0017248,0.10891,0.039078,0.011794,-0.16588,0.014068
1275,-0.031081,0.0052977,0.10696,0.036154,0.003024,-0.18147,0.0069217
1276,-0.028157,0.0056225,0.098193,0.03453,-0.012892,-0.18601,0.0020496
1277,-0.02361,0.0033489,0.083576,0.034206,-0.036278,-0.18407,-0.00022403
1278,-0.020687,0.00010078,0.065062,0.034206,-0.063237,-0.18049,0.00010078
1279,-0.019388,-0.0018481,0.046873,0.036804,-0.085973,-0.18374,-0.00022403
1280,-0.021337,-0.00054884,0.032257,0.042975,-0.10059,-0.19381,0.0017248
1281,-0.024909,0.00010078,0.022837,0.049147,-0.10741,-0.2055,0.0065969
1282,-0.025559,-0.0047713,0.020564,0.050446,-0.10774,-0.22174,0.009845
1283,-0.02426,-0.01614,0.025111,0.046223,-0.10481,-0.2461,0.011144
1284,-0.02426,-0.03173,0.029983,0.039078,-0.09929,-0.27469,0.0059473
1285,-0.026858,-0.043423,0.031932,0.030633,-0.087597,-0.2932,-0.0037969
1286,-0.035303,-0.044723,0.029983,0.019914,-0.070707,-0.2867,-0.0063954
1287,-0.047646,-0.037902,0.024461,0.0059473,-0.054142,-0.26332,0.0010752
1288,-0.060638,-0.024909,0.014717,-0.010618,-0.047321,-0.24448,0.013093
1289,-0.068758,-0.013216,0.0052977,-0.023285,-0.047646,-0.24545,0.026735
1290,-0.070382,-0.0057458,-0.0034721,-0.031406,-0.050569,-0.26397,0.040377
1291,-0.064211,-0.00022403,-0.0093186,-0.033354,-0.056091,-0.29125,0.054019
1292,-0.052193,0.008221,-0.013866,-0.033679,-0.063886,-0.31171,0.062139
1293,-0.039201,0.019264,-0.017439,-0.036278,-0.072331,-0.31171,0.058241
1294,-0.029782,0.026085,-0.017114,-0.038876,-0.081101,-0.2867,0.041676
1295,-0.025234,0.028684,-0.017764,-0.042124,-0.086298,-0.24643,0.020239
1296,-0.023935,0.029009,-0.021012,-0.045697,-0.090521,-0.20843,0.0091954
1297,-0.018738,0.025761,-0.03303,-0.048296,-0.093119,-0.19089,0.013418
1298,-0.010618,0.019914,-0.046996,-0.04992,-0.096367,-0.19348,0.027709
1299,-0.0028225,0.014068,-0.05739,-0.04927,-0.098641,-0.2081,0.045574
1300,-0.00087364,0.012768,-0.063237,-0.047321,-0.10059,-0.22629,0.060515
1301,-0.0015233,0.016341,-0.065835,-0.042774,-0.10286,-0.24253,0.062139
1302,-0.0031473,0.016991,-0.065835,-0.036927,-0.10579,-0.2552,0.048172
1303,-0.0018481,0.016991,-0.062912,-0.030756,-0.10351,-0.2591,0.023812
1304,0.003024,0.016016,-0.05804,-0.025559,-0.096042,-0.25585,-0.0024977
1305,0.012119,0.012768,-0.051219,-0.019712,-0.088896,-0.25227,-0.028482
1306,0.019914,0.0065969,-0.044073,-0.01614,-0.083375,-0.2539,-0.051544
1307,0.021213,-0.0011985,-0.037577,-0.014191,-0.075579,-0.26332,-0.067784
1308,0.015367,-0.0063954,-0.031081,-0.012242,-0.063886,-0.27631,-0.076554
1309,0.0069217,-0.0031473,-0.026533,-0.012567,-0.053817,-0.27956,-0.075904
1310,0.0010752,0.0059473,-0.021337,-0.015815,-0.052193,-0.26364,-0.067134
1311,-0.00054884,0.016666,-0.013866,-0.020687,-0.060313,-0.22532,-0.053168
1312,0.003024,0.025761,-0.0044465,-0.024909,-0.073306,-0.1675,-0.035303
1313,0.012443,0.031282,0.0075714,-0.024585,-0.081426,-0.095393,-0.015815
1314,0.022188,0.035505,0.01829,-0.021986,-0.077528,-0.015815,0.0014
1315,0.029983,0.042651,0.024461,-0.020362,-0.061613,0.064737,0.0091954
1316,0.030633,0.048172,0.025436,-0.021986,-0.035953,0.14561,0.0039985
1317,0.024137,0.044924,0.023162,-0.026209,-0.0067202,0.23136,-0.011917
1318,0.016341,0.036154,0.022837,-0.029132,0.016666,0.32198,-0.032705
1319,0.011794,0.027385,0.022512,-0.029457,0.032257,0.40936,-0.054792
1320,0.011469,0.023162,0.021863,-0.027183,0.038428,0.48179,-0.070707
1321,0.012768,0.022837,0.016016,-0.022961,0.03453,0.53636,-0.079477
1322,0.013093,0.024461,0.008221,-0.019388,0.023162,0.57696,-0.084024
1323,0.011144,0.023162,0.00042559,-0.017114,0.0065969,0.61171,-0.086948
1324,0.0056225,0.021213,-0.0021729,-0.013866,-0.0047713,0.64095,-0.088572
1325,-0.0021729,0.019264,0.00010078,-0.0096434,-0.0076946,0.66401,-0.089871
1326,-0.0063954,0.01829,0.0014,-0.0060706,-0.0031473,0.67505,-0.086298
1327,-0.0063954,0.021538,-0.0011985,-0.0044465,0.0023744,0.66336,-0.081101
1328,-0.00022403,0.030308,-0.0031473,-0.0015233,0.0026992,0.61724,-0.077853
1329,0.012443,0.044275,-0.00054884,0.003024,0.00010078,0.52661,-0.081751
1330,0.032257,0.063438,0.0049729,0.009845,-0.0047713,0.39344,-0.090196
1331,0.049147,0.082277,0.0075714,0.016341,-0.011592,0.23364,-0.097666
1332,0.055643,0.096569,0.0059473,0.019264,-0.02426,0.07773,-0.09929
1333,0.054344,0.10112,-0.0011985,0.016016,-0.038227,-0.044398,-0.096367
1334,0.053694,0.098193,-0.010618,0.010495,-0.046996,-0.11813,-0.091495
1335,0.057917,0.093645,-0.015165,0.0075714,-0.044723,-0.14639,-0.08305
1336,0.064413,0.091047,-0.013866,0.0091954,-0.036927,-0.14022,-0.069408
1337,0.06961,0.090722,-0.0076946,0.015042,-0.030106,-0.11358,-0.054792
1338,0.06961,0.089098,0.00010078,0.019264,-0.023935,-0.07493,-0.044073
1339,0.06831,0.0852,0.0088706,0.019589,-0.014516,-0.030431,-0.035953
1340,0.069285,0.078055,0.016016,0.013418,-0.0011985,0.01829,-0.022636
1341,0.071558,0.065062,0.016016,0.0023744,0.016341,0.066037,-0.0044465
1342,0.071883,0.049796,0.010495,-0.0076946,0.031932,0.11054,0.014068
1343,0.066037,0.038103,0.003024,-0.0096434,0.0433,0.15341,0.026735
1344,0.056942,0.033231,-0.0011985,-0.0041217,0.053369,0.18849,0.033231
1345,0.044924,0.032257,-0.00087364,0.008221,0.063763,0.20603,0.033231
1346,0.03453,0.031282,0.0023744,0.023812,0.075456,0.19693,0.032582
1347,0.028684,0.030633,0.0069217,0.038428,0.085525,0.16218,0.038428
1348,0.032257,0.029333,0.010819,0.045899,0.092671,0.11183,0.05142
1349,0.042651,0.024786,0.013418,0.044924,0.096893,0.052395,0.070259
1350,0.053369,0.014392,0.015042,0.043625,0.097868,-0.010618,0.088773
1351,0.058566,0.00075039,0.014717,0.048822,0.099492,-0.071357,0.10729
1352,0.053044,-0.014516,0.011794,0.061489,0.10014,-0.12073,0.11963
1353,0.038103,-0.024585,0.0062721,0.074806,0.098842,-0.15418,0.12515
1354,0.020564,-0.03303,0.0017248,0.080328,0.095919,-0.17594,0.1206
1355,0.0056225,-0.043748,-0.0011985,0.072208,0.090072,-0.19056,0.10404
1356,-0.0047713,-0.055116,-0.0028225,0.054993,0.082602,-0.20063,0.080978
1357,-0.0093186,-0.062587,0.0010752,0.038103,0.079354,-0.20323,0.057592
1358,-0.012567,-0.063561,0.010819,0.028359,0.083576,-0.19186,0.041027
1359,-0.013866,-0.059989,0.023812,0.028359,0.092996,-0.15646,0.038103
1360,-0.011917,-0.050894,0.036154,0.037454,0.10112,-0.082725,0.047523
1361,-0.0060706,-0.035953,0.048172,0.051096,0.10144,0.034206,0.065062
1362,0.00075039,-0.018413,0.059865,0.064413,0.092996,0.18492,0.083901
1363,0.01017,-0.0047713,0.071558,0.070909,0.077405,0.33628,0.099167
1364,0.01894,-0.0015233,0.080978,0.06896,0.055968,0.44769,0.10664
1365,0.022512,-0.0076946,0.086175,0.06019,0.032257,0.48796,0.10242
1366,0.016991,-0.019388,0.087474,0.046548,0.011144,0.45028,0.088773
1367,0.0046481,-0.027508,0.088124,0.034206,-0.0083442,0.35219,0.067336
1368,-0.0093186,-0.026858,0.088124,0.029983,-0.030431,0.22422,0.042975
1369,-0.020687,-0.019712,0.086824,0.03453,-0.052518,0.093645,0.021213
1370,-0.025559,-0.011592,0.082602,0.042001,-0.076554,-0.021986,0.0039985
1371,-0.025559,-0.0037969,0.079679,0.046873,-0.098965,-0.11715,-0.0063954
1372,-0.02426,0.0026992,0.07773,0.048172,-0.1178,-0.18731,-0.0089938
1373,-0.025234,0.0039985,0.075131,0.046223,-0.13047,-0.23668,-0.0050961
1374,-0.027833,-0.0028225,0.069934,0.042975,-0.14119,-0.26657,0.0039985
1375,-0.030431,-0.014191,0.064413,0.039727,-0.15256,-0.28443,0.015042
1376,-0.039851,-0.019712,0.061489,0.033881,-0.16393,-0.29353,0.021863
1377,-0.052518,-0.019388,0.06084,0.023812,-0.17465,-0.29905,0.020239
1378,-0.062912,-0.014516,0.057592,0.0091954,-0.18439,-0.30424,0.010819
1379,-0.064536,-0.010293,0.046873,-0.0031473,-0.18731,-0.30782,0.0017248
1380,-0.056741,-0.0083442,0.034855,-0.0057458,-0.18147,-0.30522,0.0046481
1381,-0.043423,-0.013541,0.022837,0.00010078,-0.16588,-0.2945,0.01894
1382,-0.029132,-0.02361,0.013418,0.0088706,-0.14184,-0.27891,0.039402
1383,-0.019712,-0.033679,0.0056225,0.014717,-0.11196,-0.26039,0.054668
1384,-0.01614,-0.040175,-0.0018481,0.01829,-0.076554,-0.23831,0.061165
1385,-0.018088,-0.041799,-0.0099683,0.024137,-0.037902,-0.21622,0.063438
1386,-0.020687,-0.043423,-0.016789,0.033881,0.0039985,-0.19641,0.065387
1387,-0.022961,-0.042124,-0.021012,0.042975,0.040702,-0.17562,0.067011
1388,-0.022311,-0.036278,-0.02361,0.049796,0.06961,-0.15353,0.064413
1389,-0.017764,-0.027833,-0.027508,0.053694,0.089423,-0.12917,0.054993
1390,-0.014191,-0.021337,-0.032055,0.054993,0.10112,-0.10709,0.039402
1391,-0.012892,-0.018088,-0.036927,0.055968,0.10696,-0.089221,0.023487
1392,-0.010293,-0.015815,-0.038227,0.053044,0.10891,-0.077528,0.016341
1393,-0.0028225,-0.014516,-0.034978,0.044275,0.10599,-0.069408,0.018615
1394,0.0078962,-0.011592,-0.026858,0.030957,0.10144,-0.059339,0.02706
1395,0.016666,-0.0083442,-0.018738,0.01764,0.095594,-0.043423,0.03518
1396,0.015367,-0.0024977,-0.017114,0.008221,0.092021,-0.022311,0.037778
1397,0.0065969,0.0069217,-0.018738,0.00075039,0.088124,0.0049729,0.032257
1398,-0.00022403,0.01764,-0.021337,-0.0021729,0.079029,0.033231,0.019914
1399,-0.00022403,0.028684,-0.025884,-0.0021729,0.065062,0.059865,0.00075039
1400,0.0026992,0.042326,-0.033354,-0.0015233,0.049147,0.083576,-0.025884
1401,0.009845,0.059541,-0.040825,-0.0034721,0.034855,0.10209,-0.055116
1402,0.020239,0.076106,-0.047646,-0.0083442,0.026735,0.11054,-0.077528
1403,0.029658,0.08585,-0.052518,-0.0089938,0.02706,0.11151,-0.089871
1404,0.036154,0.082602,-0.055116,-0.0067202,0.036154,0.11118,-0.095068
1405,0.039727,0.065712,-0.055441,-0.0063954,0.047523,0.11508,-0.096367
1406,0.043625,0.046873,-0.053492,-0.0080194,0.05272,0.1232,-0.094093
1407,0.049147,0.034206,-0.048945,-0.012892,0.054019,0.13782,-0.090196
1408,0.055968,0.02641,-0.043423,-0.018088,0.05142,0.14951,-0.084999
1409,0.059541,0.024461,-0.0405,-0.018088,0.043625,0.15146,-0.082725
1410,0.059865,0.028359,-0.039201,-0.012892,0.032582,0.1336,-0.080776
1411,0.058891,0.037129,-0.039201,-0.0057458,0.021863,0.091696,-0.080451
1412,0.055643,0.044275,-0.038227,-0.0011985,0.015042,0.029983,-0.076229
1413,0.051745,0.044924,-0.038551,0.00010078,0.009845,-0.038876,-0.06681
1414,0.046548,0.042326,-0.043099,-0.00054884,-0.0031473,-0.10644,-0.048296
1415,0.04395,0.040052,-0.04927,-0.00087364,-0.02426,-0.1701,-0.021661
1416,0.044599,0.041027,-0.059339,0.00075039,-0.047321,-0.22694,0.003024
1417,0.049472,0.047847,-0.072006,0.0039985,-0.062912,-0.26949,0.018615
1418,0.055643,0.058566,-0.082076,0.0039985,-0.064211,-0.29223,0.023162
1419,0.057917,0.06961,-0.085648,-0.0018481,-0.053168,-0.29807,0.021863
1420,0.052395,0.072208,-0.080127,-0.012567,-0.034978,-0.29125,0.019914
1421,0.038753,0.065062,-0.069408,-0.022961,-0.018413,-0.27599,0.023487
1422,0.019589,0.054019,-0.053817,-0.026858,-0.0067202,-0.25487,0.028684
1423,0.0020496,0.043625,-0.036278,-0.026209,0.0023744,-0.22434,0.031607
1424,-0.0073698,0.034855,-0.020687,-0.023285,0.01017,-0.18439,0.030957
1425,-0.0076946,0.02641,-0.0080194,-0.019063,0.015042,-0.14119,0.025111
1426,-0.0028225,0.019589,0.0020496,-0.015165,0.015692,-0.10026,0.016341
1427,0.0036737,0.013418,0.010495,-0.0089938,0.011469,-0.063561,0.0085458
1428,0.0088706,0.0065969,0.015692,0.00075039,0.0023744,-0.028482,0.0052977
1429,0.0072465,-0.0021729,0.014068,0.0088706,-0.010618,0.0095202,0.0036737
1430,0.00075039,-0.0096434,0.0075714,0.012443,-0.018088,0.049147,0.0017248
1431,-0.0076946,-0.013866,0.0020496,0.012768,-0.020037,0.0852,-0.00022403
1432,-0.015815,-0.012892,0.003024,0.015367,-0.017439,0.11606,0.00042559
1433,-0.019712,-0.0054209,0.012768,0.019914,-0.013216,0.14854,0.0033489
1434,-0.017764,0.0069217,0.031282,0.025111,-0.0054209,0.17939,0.0095202
1435,-0.010618,0.019264,0.056292,0.02706,0.0026992,0.19856,0.021213
1436,-0.0031473,0.028034,0.080003,0.023487,0.0088706,0.19888,0.033881
1437,0.0010752,0.029658,0.095269,0.015042,0.0075714,0.17745,0.042001
1438,-0.0021729,0.024461,0.10112,0.0059473,0.00075039,0.14204,0.047198
1439,-0.014191,0.01764,0.10177,-0.0044465,-0.0024977,0.10242,0.046223
1440,-0.03173,0.013418,0.10047,-0.013866,0.0020496,0.071558,0.041351
1441,-0.050894,0.0095202,0.098842,-0.020037,0.0091954,0.054344,0.036804
1442,-0.06616,0.0046481,0.095594,-0.024909,0.014717,0.050446,0.036154
1443,-0.072656,-0.0015233,0.093321,-0.030106,0.01829,0.053044,0.035505
1444,-0.068109,-0.0060706,0.09462,-0.034654,0.017965,0.059216,0.033881
1445,-0.055116,-0.011917,0.10404,-0.037577,0.016341,0.069285,0.03583
1446,-0.0405,-0.015815,0.11898,-0.034004,0.018615,0.085525,0.042326
1447,-0.028807,-0.016789,0.13132,-0.021337,0.024786,0.10826,0.054668
1448,-0.021986,-0.012892,0.13132,-0.0034721,0.032582,0.13879,0.065712
1449,-0.019712,-0.0076946,0.11606,0.013093,0.0433,0.17257,0.067011
1450,-0.022311,-0.0076946,0.092671,0.023487,0.057267,0.20213,0.057917
1451,-0.025884,-0.012892,0.072533,0.026735,0.072533,0.22259,0.046548
1452,-0.028482,-0.018413,0.059216,0.024461,0.090397,0.22649,0.042001
1453,-0.031081,-0.022961,0.053369,0.022188,0.10989,0.21252,0.044924
1454,-0.035303,-0.026209,0.054344,0.019914,0.12255,0.18427,0.050121
1455,-0.040825,-0.027833,0.055968,0.01764,0.12255,0.14204,0.053369
1456,-0.047321,-0.027508,0.055643,0.014717,0.10794,0.089423,0.054019
1457,-0.052843,-0.029132,0.050771,0.008221,0.084226,0.033881,0.047523
1458,-0.054792,-0.033354,0.040702,-0.0024977,0.061165,-0.019063,0.032582
1459,-0.052193,-0.038227,0.028359,-0.012242,0.046873,-0.064861,0.011794
1460,-0.046996,-0.038551,0.016016,-0.019388,0.042651,-0.10124,-0.0083442
1461,-0.037577,-0.035303,0.0059473,-0.025559,0.042651,-0.12657,-0.018413
1462,-0.024585,-0.025559,0.00010078,-0.031406,0.038753,-0.14509,-0.013541
1463,-0.011267,-0.008669,0.00042559,-0.034329,0.031607,-0.15938,0.003024
1464,0.0017248,0.0088706,0.0039985,-0.028482,0.024137,-0.17107,0.020239
1465,0.012443,0.021538,0.0062721,-0.013216,0.016666,-0.18212,0.029983
1466,0.022512,0.029009,0.0085458,0.0091954,0.0043233,-0.19154,0.029658
1467,0.028359,0.033556,0.0091954,0.033881,-0.010943,-0.20128,0.023487
1468,0.034206,0.038428,0.0049729,0.053694,-0.028807,-0.2146,0.020888
1469,0.041676,0.0433,-0.0037969,0.063113,-0.044723,-0.23279,0.022188
1470,0.052395,0.047198,-0.012242,0.060515,-0.056091,-0.25682,0.025111
1471,0.062464,0.05272,-0.015815,0.048172,-0.062912,-0.27988,0.029658
1472,0.065387,0.064088,-0.01484,0.035505,-0.071357,-0.29807,0.03518
1473,0.056942,0.077405,-0.016464,0.029983,-0.082076,-0.31074,0.036479
1474,0.042326,0.085525,-0.022961,0.031932,-0.092794,-0.32146,0.031282
1475,0.031607,0.087799,-0.032705,0.038753,-0.10384,-0.33023,0.020888
1476,0.027385,0.0852,-0.036927,0.047198,-0.11423,-0.33672,0.0059473
1477,0.02706,0.079029,-0.034654,0.054019,-0.12203,-0.3364,-0.010618
1478,0.024461,0.069934,-0.026533,0.054344,-0.12722,-0.32373,-0.020362
1479,0.01894,0.06084,-0.017764,0.047847,-0.13275,-0.2945,-0.018738
1480,0.014392,0.054993,-0.012567,0.042326,-0.13762,-0.2565,-0.0054209
1481,0.016016,0.05272,-0.0083442,0.0433,-0.13924,-0.21785,0.0078962
1482,0.022188,0.055318,-0.0063954,0.049796,-0.13859,-0.18244,0.012768
1483,0.028684,0.056942,-0.0060706,0.056292,-0.13534,-0.14249,0.0095202
1484,0.029983,0.055968,-0.010618,0.062139,-0.13275,-0.081101,0.0052977
1485,0.025761,0.051745,-0.01484,0.062789,-0.1282,0.010495,0.00010078
1486,0.024461,0.04395,-0.015165,0.055643,-0.12073,0.12775,-0.0028225
1487,0.028034,0.036479,-0.011267,0.042326,-0.10806,0.2541,-0.0018481
1488,0.030957,0.034206,-0.0015233,0.024137,-0.092145,0.37753,0.003024
1489,0.033231,0.037778,0.0088706,0.0072465,-0.072981,0.49803,0.0065969
1490,0.03518,0.042326,0.016991,-0.00087364,-0.053492,0.61074,0.003024
1491,0.03583,0.049472,0.017965,0.00075039,-0.036278,0.69876,-0.0080194
1492,0.037778,0.056292,0.0065969,0.0088706,-0.025559,0.73936,-0.021986
1493,0.043625,0.061489,-0.014191,0.016666,-0.023285,0.72215,-0.032705
1494,0.047847,0.062464,-0.035953,0.020888,-0.028157,0.65556,-0.036927
1495,0.050771,0.061165,-0.048945,0.019264,-0.033679,0.56104,-0.038876
1496,0.050771,0.055968,-0.051544,0.01829,-0.039201,0.46165,-0.042449
1497,0.046223,0.05272,-0.044723,0.020239,-0.040175,0.37103,-0.047321
1498,0.038428,0.054344,-0.029132,0.025111,-0.036602,0.29308,-0.050569
1499,0.032257,0.060515,-0.012567,0.031282,-0.027833,0.22682,-0.046022
1500,0.029658,0.067986,-0.0037969,0.033881,-0.019063,0.17842,-0.030756
1501,0.029009,0.073832,-0.0060706,0.032906,-0.010293,0.15179,-0.0099683
1502,0.02706,0.073507,-0.01484,0.029333,-0.0031473,0.15016,0.012119
1503,0.020239,0.063763,-0.026533,0.025761,0.0085458,0.17095,0.034855
1504,0.0091954,0.042326,-0.033354,0.024786,0.025761,0.21512,0.055643
1505,-0.0050961,0.018615,-0.03238,0.025761,0.046873,0.28073,0.06831
1506,-0.016464,-0.00087364,-0.024909,0.025436,0.066362,0.34959,0.06896
1507,-0.021986,-0.013216,-0.01614,0.025436,0.078055,0.3889,0.061489
1508,-0.021337,-0.018413,-0.012242,0.024786,0.080978,0.37525,0.05142
1509,-0.01484,-0.017439,-0.014516,0.023162,0.07708,0.30315,0.041676
1510,-0.010618,-0.011592,-0.021337,0.01894,0.066037,0.18589,0.034206
1511,-0.015815,-0.007045,-0.028157,0.015042,0.051096,0.05207,0.025111
1512,-0.027833,-0.0099683,-0.032705,0.012119,0.038428,-0.071682,0.016666
1513,-0.037252,-0.017439,-0.034329,0.0072465,0.03518,-0.16003,0.012119
1514,-0.037577,-0.026209,-0.031406,-0.0011985,0.040702,-0.2055,0.014392
1515,-0.030106,-0.034329,-0.027833,-0.0093186,0.050121,-0.22304,0.020239
1516,-0.018738,-0.041475,-0.026533,-0.013541,0.055968,-0.22824,0.024461
1517,-0.0080194,-0.04862,-0.030756,-0.011917,0.058891,-0.23474,0.022188
1518,-0.0024977,-0.056416,-0.038876,-0.0096434,0.058241,-0.2461,0.015042
1519,-0.0047713,-0.063886,-0.043099,-0.0096434,0.054668,-0.26169,0.0091954
1520,-0.011592,-0.072656,-0.038227,-0.010618,0.048822,-0.27664,0.009845
1521,-0.016464,-0.078503,-0.026533,-0.013216,0.045899,-0.28865,0.015692
1522,-0.016789,-0.079152,-0.012892,-0.014191,0.046548,-0.29353,0.024786
1523,-0.0096434,-0.076554,-0.0050961,-0.0096434,0.050121,-0.29125,0.02706
1524,0.0052977,-0.070382,-0.0054209,0.0014,0.054668,-0.2854,0.02706
1525,0.019589,-0.061613,-0.013216,0.010819,0.053694,-0.27631,0.031282
1526,0.026085,-0.053492,-0.025559,0.015367,0.045574,-0.27014,0.039727
1527,0.022837,-0.046022,-0.037577,0.015042,0.03583,-0.27339,0.045574
1528,0.014717,-0.037902,-0.046671,0.010495,0.029009,-0.27988,0.047847
1529,0.0069217,-0.030106,-0.052193,0.0017248,0.023487,-0.27793,0.050446
1530,0.0020496,-0.025884,-0.055766,-0.0083442,0.01829,-0.24545,0.053694
1531,-0.0031473,-0.027508,-0.057715,-0.014191,0.012443,-0.17042,0.059216
1532,-0.0067202,-0.033679,-0.057065,-0.014516,0.0039985,-0.053817,0.066037
1533,-0.0089938,-0.041475,-0.055766,-0.010293,-0.0041217,0.074157,0.070584
1534,-0.0044465,-0.046022,-0.053168,0.00042559,-0.0096434,0.17192,0.070584
1535,0.0043233,-0.046996,-0.048296,0.014068,-0.011267,0.20018,0.066037
1536,0.011794,-0.045372,-0.039526,0.024786,-0.010618,0.14854,0.059541
1537,0.014392,-0.041475,-0.027833,0.02641,-0.0096434,0.037129,0.057267
1538,0.014717,-0.034004,-0.01484,0.020888,-0.011917,-0.093444,0.062139
1539,0.015367,-0.024909,-0.0011985,0.020888,-0.018738,-0.2042,0.073507
1540,0.016991,-0.016464,0.009845,0.031607,-0.025559,-0.27339,0.083901
1541,0.020564,-0.007045,0.017316,0.048822,-0.029132,-0.30327,0.082602
1542,0.025761,0.0043233,0.024786,0.062789,-0.029132,-0.30977,0.065712
1543,0.028359,0.015367,0.03518,0.066686,-0.025559,-0.30912,0.039727
1544,0.028359,0.022512,0.042001,0.059541,-0.021012,-0.30619,0.010495
1545,0.028359,0.019589,0.039078,0.044275,-0.020037,-0.30327,-0.018413
1546,0.027709,0.009845,0.027385,0.031282,-0.025559,-0.30165,-0.042449
1547,0.030957,0.00042559,0.012443,0.028684,-0.037577,-0.29905,-0.057065
1548,0.041676,-0.0057458,0.00010078,0.035505,-0.051868,-0.29353,-0.062262
1549,0.056942,-0.0083442,-0.0083442,0.041351,-0.065835,-0.28281,-0.063561
1550,0.074157,-0.0037969,-0.017439,0.039402,-0.077853,-0.26819,-0.064211
1551,0.082277,0.0075714,-0.028157,0.030308,-0.084999,-0.2539,-0.065835
1552,0.07773,0.022188,-0.041475,0.021213,-0.082725,-0.23896,-0.062912
1553,0.064413,0.033556,-0.055116,0.01764,-0.072331,-0.22304,-0.053492
1554,0.049796,0.03583,-0.06551,0.01894,-0.04927,-0.20063,-0.041799
1555,0.038428,0.032906,-0.070058,0.021213,-0.022636,-0.1701,-0.030106
1556,0.036479,0.032582,-0.067134,0.026735,-0.0021729,-0.12333,-0.024585
1557,0.044275,0.036479,-0.058689,0.03453,0.0078962,-0.059664,-0.028482
1558,0.056617,0.040377,-0.050244,0.042651,0.012443,0.015692,-0.034654
1559,0.067986,0.041676,-0.043748,0.048822,0.0095202,0.099817,-0.038227
1560,0.072533,0.042326,-0.031406,0.053369,-0.00022403,0.18654,-0.036602
1561,0.071234,0.0433,-0.018088,0.056292,-0.010618,0.27554,-0.032055
1562,0.064737,0.041351,-0.0076946,0.058891,-0.013541,0.36194,-0.025884
1563,0.06019,0.037454,-0.0073698,0.059865,-0.0099683,0.43729,-0.019388
1564,0.059541,0.031932,-0.018088,0.059541,-0.0024977,0.49251,-0.016789
1565,0.06019,0.026735,-0.032055,0.055643,0.0059473,0.52824,-0.017764
1566,0.062464,0.022837,-0.038551,0.049796,0.010819,0.55455,-0.017439
1567,0.058566,0.024461,-0.030106,0.04395,0.0078962,0.57566,-0.013866
1568,0.046223,0.029333,-0.0096434,0.039727,-0.00087364,0.588,-0.010618
1569,0.029333,0.036154,0.013418,0.036479,-0.010618,0.58735,-0.0096434
1570,0.012119,0.043625,0.029009,0.032906,-0.017114,0.57046,-0.012242
1571,-0.0011985,0.043625,0.033881,0.028684,-0.018738,0.53051,-0.01549
1572,-0.010293,0.036804,0.027709,0.02641,-0.01484,0.46717,-0.019388
1573,-0.012242,0.025111,0.01764,0.022837,-0.007045,0.38175,-0.02361
1574,-0.010618,0.013418,0.0075714,0.016341,0.0039985,0.27229,-0.025234
1575,-0.0037969,0.0059473,0.00010078,0.0091954,0.015042,0.14854,-0.025234
1576,0.0052977,0.0043233,-0.007045,0.0023744,0.02706,0.02706,-0.02426
1577,0.013093,0.0046481,-0.015165,-0.0057458,0.036804,-0.075255,-0.024909
1578,0.018615,0.0049729,-0.024585,-0.014191,0.042651,-0.14769,-0.028807
1579,0.022837,0.0017248,-0.028807,-0.022636,0.042326,-0.18959,-0.03238
1580,0.021863,-0.0044465,-0.026858,-0.029782,0.03583,-0.20388,-0.034654
1581,0.018615,-0.010943,-0.019063,-0.035628,0.028034,-0.19836,-0.033679
1582,0.012119,-0.014191,-0.0067202,-0.038227,0.020888,-0.17822,-0.036278
1583,0.003024,-0.01549,0.0088706,-0.034329,0.016341,-0.14769,-0.044398
1584,-0.0060706,-0.012242,0.025761,-0.02426,0.016991,-0.11326,-0.054467
1585,-0.012242,-0.0037969,0.038753,-0.010618,0.021863,-0.08305,-0.062262
1586,-0.017764,0.0062721,0.044924,-0.00054884,0.030957,-0.061613,-0.062262
1587,-0.024909,0.016341,0.044275,0.0059473,0.038428,-0.047646,-0.05804
1588,-0.034329,0.026735,0.040052,0.0091954,0.040377,-0.036602,-0.052193
1589,-0.043748,0.036154,0.03453,0.011469,0.037454,-0.027833,-0.04115
1590,-0.051868,0.041027,0.032906,0.015692,0.034206,-0.016789,-0.027508
1591,-0.054142,0.040052,0.036479,0.017965,0.029983,-0.00087364,-0.01549
1592,-0.053168,0.033881,0.049472,0.021863,0.020888,0.021538,-0.0080194
1593,-0.058365,0.028034,0.067011,0.031282,0.0065969,0.045249,-0.0037969
1594,-0.073631,0.028034,0.082277,0.041676,-0.0060706,0.06831,0.00010078
1595,-0.091495,0.033231,0.091696,0.046873,-0.010293,0.088124,0.0052977
1596,-0.10091,0.041027,0.096893,0.046873,-0.0063954,0.10112,0.009845
1597,-0.098316,0.046548,0.10144,0.041676,0.0033489,0.10306,0.016666
1598,-0.084999,0.047523,0.10859,0.030957,0.014068,0.092996,0.027709
1599,-0.065835,0.04395,0.11378,0.015042,0.025111,0.073832,0.041351
1600,-0.047646,0.036479,0.11118,-0.0057458,0.034855,0.047198,0.056942
1601,-0.038227,0.027385,0.10144,-0.025559,0.042651,0.014392,0.073182
1602,-0.04115,0.023487,0.092346,-0.039201,0.046873,-0.020362,0.089098
1603,-0.04992,0.021863,0.089748,-0.041475,0.048822,-0.056741,0.10436
1604,-0.057065,0.021213,0.092346,-0.030756,0.046873,-0.093444,0.11866
1605,-0.057715,0.01829,0.097543,-0.012567,0.040052,-0.1308,0.12775
1606,-0.050894,0.015042,0.10079,0.0072465,0.031607,-0.16653,0.13002
1607,-0.039201,0.012119,0.099167,0.022837,0.022837,-0.19543,0.12515
1608,-0.025559,0.0078962,0.091696,0.033231,0.016666,-0.21622,0.11508
1609,-0.013541,0.0017248,0.081952,0.038103,0.0088706,-0.23279,0.10469
1610,-0.0041217,-0.0076946,0.069285,0.038428,0.003024,-0.24708,0.098193
1611,0.0017248,-0.018088,0.058566,0.036479,-0.00054884,-0.25715,0.091047
1612,0.00075039,-0.02426,0.050771,0.034206,0.0014,-0.26007,0.076755
1613,-0.0044465,-0.026209,0.050121,0.030957,0.0091954,-0.26039,0.054668
1614,-0.0096434,-0.022961,0.059865,0.027709,0.022512,-0.25422,0.029658
1615,-0.01549,-0.01614,0.075456,0.026085,0.035505,-0.23019,0.012768
1616,-0.021661,-0.0057458,0.090722,0.025761,0.047198,-0.17465,0.011794
1617,-0.025559,0.0062721,0.099817,0.033556,0.057917,-0.075255,0.020888
1618,-0.025884,0.014717,0.10404,0.050446,0.067986,0.066037,0.03518
1619,-0.024585,0.019589,0.10859,0.072533,0.071558,0.23039,0.048497
1620,-0.023935,0.022837,0.11216,0.097868,0.065387,0.38402,0.054668
1621,-0.026533,0.020888,0.11313,0.11963,0.054668,0.49088,0.05207
1622,-0.030756,0.018615,0.11443,0.131,0.041676,0.52889,0.039402
1623,-0.03303,0.019589,0.11768,0.13197,0.030308,0.49641,0.020564
1624,-0.03303,0.026735,0.11931,0.12483,0.018615,0.40838,0.0036737
1625,-0.03173,0.03518,0.11606,0.11313,0.00075039,0.2921,-0.0096434
1626,-0.030431,0.041351,0.10599,0.097543,-0.026533,0.1716,-0.015815
1627,-0.027833,0.044599,0.092346,0.081627,-0.053817,0.069285,-0.012567
1628,-0.022636,0.046548,0.078055,0.067986,-0.068109,0.00042559,-0.0050961
1629,-0.013866,0.048822,0.068635,0.053044,-0.064211,-0.037577,0.0033489
1630,-0.0031473,0.050121,0.064088,0.03583,-0.047321,-0.054467,0.008221
1631,0.0069217,0.049472,0.062464,0.020888,-0.027183,-0.060963,0.0095202
1632,0.010819,0.048822,0.059541,0.011794,-0.010293,-0.064536,0.0069217
1633,0.0095202,0.050446,0.054993,0.0065969,0.0026992,-0.068109,0.0017248
1634,0.009845,0.054993,0.050446,0.0059473,0.013093,-0.072981,-0.0037969
1635,0.013093,0.060515,0.046548,0.0085458,0.01764,-0.079802,-0.0083442
1636,0.020888,0.063113,0.041676,0.012768,0.018615,-0.089546,-0.013541
1637,0.029009,0.055318,0.033881,0.014717,0.023487,-0.10774,-0.021986
1638,0.037129,0.040052,0.018615,0.015692,0.02706,-0.13047,-0.031081
1639,0.04395,0.028034,0.00010078,0.014392,0.024137,-0.15158,-0.038876
1640,0.049472,0.028034,-0.015815,0.0085458,0.012768,-0.16977,-0.0405
1641,0.054019,0.039402,-0.028482,-0.00022403,-0.0024977,-0.18829,-0.037252
1642,0.055318,0.055318,-0.043099,-0.0073698,-0.015815,-0.2068,-0.030431
1643,0.054993,0.067986,-0.061288,-0.010293,-0.029782,-0.22272,-0.024909
1644,0.053694,0.072533,-0.081101,-0.011917,-0.043748,-0.23668,-0.023285
1645,0.049796,0.071883,-0.09994,-0.017439,-0.056741,-0.24903,-0.026533
1646,0.048497,0.071883,-0.10968,-0.025884,-0.063237,-0.2591,-0.033679
1647,0.056942,0.073832,-0.10611,-0.035953,-0.062912,-0.26397,-0.042449
1648,0.072858,0.074482,-0.095068,-0.044398,-0.054467,-0.26332,-0.046671
1649,0.089423,0.073507,-0.085973,-0.046347,-0.042124,-0.26169,-0.043748
1650,0.099492,0.070909,-0.081751,-0.041475,-0.036602,-0.25942,-0.034978
1651,0.10079,0.066362,-0.080776,-0.034329,-0.042774,-0.25325,-0.026209
1652,0.09462,0.059216,-0.082725,-0.029132,-0.055766,-0.24675,-0.021012
1653,0.080653,0.053694,-0.086298,-0.025234,-0.065835,-0.23831,-0.019388
1654,0.062139,0.053044,-0.092469,-0.023285,-0.063561,-0.22499,-0.020037
1655,0.046223,0.055643,-0.098965,-0.025559,-0.048296,-0.20615,-0.018738
1656,0.038753,0.059865,-0.097666,-0.030756,-0.029132,-0.18407,-0.014516
1657,0.039727,0.063438,-0.087272,-0.039851,-0.012567,-0.15776,-0.0034721
1658,0.044924,0.061814,-0.07493,-0.046671,-0.0037969,-0.12365,0.013743
1659,0.047198,0.051096,-0.065835,-0.047321,-0.0011985,-0.084024,0.030957
1660,0.047523,0.032906,-0.061613,-0.042449,-0.0034721,-0.042449,0.041351
1661,0.049796,0.013418,-0.056091,-0.036602,-0.0057458,-0.00022403,0.044599
1662,0.053694,-0.0024977,-0.046022,-0.035303,-0.0057458,0.037129,0.041351
1663,0.054019,-0.011267,-0.033354,-0.039526,-0.007045,0.065712,0.032257
1664,0.05142,-0.011267,-0.019388,-0.045047,-0.0099683,0.089098,0.017316
1665,0.046548,-0.0041217,-0.0076946,-0.051544,-0.014516,0.11508,0.0039985
1666,0.038428,0.0026992,0.0010752,-0.059989,-0.021012,0.14042,-0.0031473
1667,0.029009,0.0039985,0.0039985,-0.067459,-0.026209,0.16088,-0.0041217
1668,0.019589,-0.0024977,0.0026992,-0.072331,-0.027508,0.17712,-0.0050961
1669,0.011469,-0.011267,-0.0021729,-0.072331,-0.022961,0.19921,-0.012892
1670,0.0056225,-0.016464,-0.0067202,-0.068109,-0.019063,0.23948,-0.029782
1671,0.00075039,-0.017764,-0.0067202,-0.061937,-0.018413,0.3012,-0.048945
1672,-0.0041217,-0.023285,-0.0024977,-0.056741,-0.018413,0.38662,-0.057065
1673,-0.0060706,-0.031406,0.0059473,-0.053817,-0.01484,0.48861,-0.04862
1674,-0.0057458,-0.039201,0.016341,-0.051544,-0.0047713,0.58638,-0.02426
1675,-0.0050961,-0.047321,0.025436,-0.049595,0.014392,0.65004,0.0033489
1676,-0.0067202,-0.059989,0.030308,-0.051219,0.035505,0.65719,0.02706
1677,-0.012567,-0.077853,0.029333,-0.055116,0.046548,0.61074,0.0433
1678,-0.020037,-0.098316,0.024786,-0.058689,0.045899,0.52272,0.049472
1679,-0.029132,-0.11456,0.021863,-0.058365,0.038753,0.41098,0.05207
1680,-0.038876,-0.12365,0.023812,-0.053817,0.02641,0.28821,0.058891
1681,-0.04927,-0.12365,0.030957,-0.04992,0.011794,0.16413,0.06896
1682,-0.055766,-0.11943,0.039727,-0.054142,0.00042559,0.047523,0.07773
1683,-0.057065,-0.11423,0.047523,-0.069083,-0.0060706,-0.056091,0.0865
1684,-0.053817,-0.10838,0.047523,-0.089871,-0.010618,-0.13729,0.091047
1685,-0.047321,-0.10221,0.036804,-0.10579,-0.016464,-0.18991,0.087149
1686,-0.039851,-0.094418,0.020888,-0.11098,-0.023285,-0.21752,0.072533
1687,-0.031406,-0.085648,0.0091954,-0.10481,-0.028807,-0.23084,0.052395
1688,-0.022636,-0.078178,0.0065969,-0.090521,-0.03303,-0.23636,0.030633
1689,-0.011592,-0.072006,0.016666,-0.072006,-0.036278,-0.23896,0.01017
1690,-0.00087364,-0.064861,0.032257,-0.052843,-0.042774,-0.2435,-0.0054209
1691,0.0091954,-0.055766,0.044599,-0.036602,-0.054792,-0.25552,-0.0096434
1692,0.01894,-0.047971,0.048172,-0.021012,-0.070382,-0.27144,-0.0050961
1693,0.02641,-0.044398,0.04395,-0.0057458,-0.086298,-0.28346,0.0046481
1694,0.030957,-0.043099,0.037778,0.01017,-0.097666,-0.28053,0.010819
1695,0.033556,-0.035303,0.03453,0.025761,-0.10611,-0.26234,0.012768
1696,0.03453,-0.017439,0.040052,0.035505,-0.11001,-0.23149,0.011469
1697,0.033556,0.0088706,0.048172,0.040377,-0.10774,-0.2016,0.013093
1698,0.030308,0.038103,0.050446,0.044924,-0.10124,-0.18666,0.01829
1699,0.023812,0.064088,0.047847,0.055643,-0.091495,-0.18731,0.026085
1700,0.014717,0.081303,0.045574,0.06961,-0.085648,-0.19673,0.031932
1701,0.0036737,0.087149,0.047198,0.079679,-0.084674,-0.20908,0.030957
1702,-0.0060706,0.081627,0.044924,0.084226,-0.08305,-0.22109,0.022512
1703,-0.013541,0.070259,0.039402,0.082602,-0.077203,-0.23311,0.0085458
1704,-0.020362,0.06084,0.030308,0.075781,-0.070707,-0.24415,-0.0047713
1705,-0.029782,0.056292,0.018615,0.06961,-0.065835,-0.2539,-0.016464
1706,-0.038876,0.053044,0.0072465,0.066362,-0.064211,-0.25812,-0.025234
1707,-0.046996,0.045574,-0.0034721,0.067336,-0.064211,-0.25552,-0.031406
1708,-0.051544,0.031932,-0.013866,0.06961,-0.060963,-0.25292,-0.037577
1709,-0.046022,0.016991,-0.024909,0.06896,-0.052518,-0.2474,-0.043748
1710,-0.03238,0.0065969,-0.03173,0.062789,-0.043099,-0.23831,-0.050894
1711,-0.017764,0.0036737,-0.032705,0.053369,-0.03303,-0.22597,-0.054792
