0.17214   -0.043272     0.23232  -0.0097279    0.054401  0.00046697   -0.013674
0.2139   -0.033078     0.19943  -0.0041372    0.097483    0.015595  -0.0077547
0.23857   -0.018607     0.16786  0.00046697     0.14714    0.024803  -0.0047949
0.2435   0.0014536     0.14221   0.0070443     0.20272    0.029736  -0.0031506
0.22804    0.019541     0.12346    0.017897     0.25698    0.032038  0.00046697
0.19253    0.028421     0.11458    0.029736     0.30007    0.035327   0.0063866
0.14155    0.020528     0.10932    0.037958     0.32276    0.038287    0.010991
0.084657  -0.0038083    0.098798    0.043877     0.31782    0.037958    0.013293
0.027105   -0.033078    0.075778    0.047824     0.28691    0.036971    0.013622
-0.024198   -0.054454    0.044864    0.047166     0.23824    0.034669    0.010004
-0.063662   -0.062676   0.0096753    0.042891     0.18003    0.031052      0.0054
-0.086025   -0.057414   -0.022225    0.037629     0.12807    0.023159   0.0034268
-0.092603   -0.042286   -0.042615    0.033025    0.091563   0.0093464   0.0047422
-0.094576   -0.025185    -0.04985    0.031709    0.070845  -0.0090702   0.0073732
-0.1051  -0.0084125   -0.049192    0.036971    0.061965   -0.024856   0.0083598
-0.12812   0.0063866   -0.050507    0.046508    0.059005   -0.032091   0.0083598
-0.15542    0.019541   -0.057414    0.059005    0.052757   -0.027158    0.010991
-0.17877    0.030065   -0.069582    0.068214    0.035985    -0.01203    0.020528
-0.1906    0.040918    -0.08471     0.07512    0.002769   0.0077021    0.033683
-0.19126    0.053086   -0.094576    0.073804   -0.044259    0.023159    0.044864
-0.18863    0.065254   -0.091945    0.064596   -0.097207    0.031052    0.047166
-0.19126    0.073147   -0.076817     0.04618    -0.15246     0.02875    0.041904
-0.20409    0.071831   -0.053796    0.020199    -0.20475    0.020857    0.032367
-0.23467    0.057361    -0.02946  -0.0087413    -0.24881    0.012635    0.024145
-0.27841    0.021843  -0.0054526   -0.034722     -0.2771   0.0044134    0.017897
-0.32248   -0.040313    0.014608   -0.051494    -0.28335  -0.0031506    0.014937
-0.34912    -0.13174    0.029736   -0.059387    -0.27348  -0.0084125    0.016253
-0.34451    -0.24289    0.046837   -0.058729     -0.2498  -0.0074258    0.020528
-0.30538    -0.34484    0.063938    -0.04985    -0.21724   0.0017824    0.024803
-0.24191    -0.40568    0.072818   -0.032091    -0.18469    0.013951    0.030065
-0.15739    -0.40042    0.066898   -0.010386    -0.15838    0.025461    0.034669
-0.04985    -0.32248    0.055059   0.0017824    -0.13766    0.032038    0.035327
0.07512    -0.19324    0.046837  -0.0051238    -0.11891    0.027105    0.030723
0.20206   -0.051494    0.045193   -0.028802    -0.10148    0.012306    0.021843
0.30763    0.074462    0.041575   -0.061689   -0.086354  -0.0038083    0.012635
0.3688     0.17016    0.025132   -0.091287    -0.06728   -0.012688   0.0096753
0.37209     0.23199   -0.011043    -0.10576   -0.038339   -0.011701    0.015924
0.32901     0.25731   -0.074844    -0.10346   0.0047422  -0.0051238    0.026776
0.26915     0.24843    -0.16791     -0.0903    0.062623  0.00079584    0.035985
0.22574     0.21324    -0.27019    -0.07879     0.12379    0.002769    0.034669
0.22508     0.16687    -0.35109   -0.072542      0.1751   0.0011247    0.026447
0.27441     0.12248     -0.3876   -0.072542     0.20667  -0.0028217    0.015924
0.35301    0.090248    -0.36293   -0.074515     0.21818  -0.0047949    0.011977
0.43095    0.074133    -0.28663   -0.072213     0.21883  -0.0054526    0.015266
0.48324     0.07808    -0.18008   -0.063333     0.22212  -0.0061104    0.024803
0.49048    0.097812   -0.068595   -0.044917     0.23758  -0.0061104    0.034669
0.44904     0.12248    0.026776   -0.020909     0.26817   -0.004466    0.038616
0.3665      0.1455    0.095181   0.0070443       0.305   -0.002164    0.033683
0.26257     0.16326     0.13793    0.031381     0.33262   0.0011247    0.022501
0.16457     0.17477     0.15734    0.051441     0.33493  0.00079584    0.010991
0.098141     0.18069     0.15569     0.06624      0.3073   0.0011247   0.0044134
0.076764     0.18726     0.13267    0.073804     0.24942 -0.00019077   0.0014536
0.10143     0.18989      0.1011     0.07216     0.17575  -0.0054526   0.0017824
0.15931     0.18332    0.080382    0.064596    0.099456   -0.016963    0.002769
0.23331     0.16819    0.081697    0.053415    0.033354   -0.031762   0.0040845
0.30566     0.15043     0.10406    0.042233   -0.021238   -0.046561   0.0063866
0.36189     0.13432     0.13333    0.028092   -0.065635   -0.058071    0.011648
0.39017      0.1307     0.15471   0.0037556    -0.10477   -0.063333    0.020528
0.38853     0.16128     0.15865   -0.028802    -0.14193   -0.063004    0.029078
0.36189     0.24416     0.14254   -0.063991    -0.17581   -0.051823    0.033025
0.31322     0.36715     0.11919   -0.090629    -0.20113   -0.033406    0.033025
0.24712     0.49212    0.095181    -0.10937    -0.21297   -0.018278    0.028092
0.16654     0.56875    0.069529    -0.11891    -0.21823   -0.012359     0.01691
0.081039     0.56776    0.038616    -0.11825    -0.22251   -0.014003  -0.0011774
0.0070443     0.49344  -0.0018351    -0.11233    -0.22711   -0.019265   -0.018278
-0.046232     0.37143   -0.051494    -0.10773    -0.23303   -0.026171   -0.031433
-0.081092     0.23133    -0.10181    -0.11102    -0.23369   -0.036037   -0.038011
-0.10378    0.097483    -0.12089    -0.12549    -0.23138   -0.043601   -0.041299
-0.12286   -0.018936    -0.07583    -0.14193    -0.22546   -0.045903   -0.038011
-0.1416    -0.11201    0.047166    -0.14588    -0.21067   -0.042615   -0.028144
-0.15772     -0.1883     0.22278    -0.12319    -0.18436   -0.034064   -0.015976
-0.16693    -0.25276     0.37439    -0.07287    -0.14983   -0.018278 -0.00051963
-0.16594    -0.30933      0.4224  -0.0084125    -0.11694   0.0024402    0.016581
-0.15377    -0.35471     0.33821    0.049468   -0.095562    0.023159    0.029736
-0.13864    -0.37839      0.1626    0.079395   -0.086683    0.036314    0.033354
-0.13009    -0.37378   -0.040641    0.068871   -0.089972    0.035327    0.026447
-0.13371    -0.34484    -0.21198    0.021514    -0.10082     0.01987    0.012635
-0.15443    -0.28466    -0.31459    -0.04393    -0.11529  -0.0024928   -0.002164
-0.18797    -0.16364    -0.33958   -0.098522    -0.13272   -0.026829   -0.016634
-0.22218    0.036642    -0.29551    -0.11727    -0.14818   -0.049521   -0.026829
-0.24914     0.29415    -0.21428   -0.087012    -0.15476   -0.061689   -0.030447
-0.2669     0.54803    -0.15114   -0.016963    -0.14917   -0.058071   -0.032749
-0.27414     0.73055    -0.15015    0.066569    -0.13437   -0.039984    -0.03538
-0.26789     0.79008    -0.21165     0.13563    -0.11891   -0.013674   -0.034722
-0.25441     0.71641    -0.28894     0.16687    -0.10872    0.011977   -0.029131
-0.24289     0.53126     -0.3261     0.15799    -0.10313    0.029407   -0.022883
-0.23895     0.27014    -0.29683     0.12281   -0.093589    0.035327    -0.01499
-0.24059   -0.028802    -0.21034     0.08663   -0.077803    0.024474  -0.0061104
-0.24059    -0.33629    -0.10115    0.062623   -0.054125   0.0021113   0.0021113
-0.23434     -0.6257  -0.0034794    0.055388   -0.030118   -0.021567   0.0086887
-0.22349    -0.87629    0.072818    0.059334   -0.010057   -0.034393    0.014937
-0.20573      -1.073     0.11754    0.065254   0.0017824   -0.034722    0.017568
-0.18238     -1.2038     0.11689    0.064596   0.0040845   -0.026829    0.014608
-0.15903     -1.2568    0.073147    0.052099 -0.00051963   -0.012688   0.0030979
-0.14193     -1.2137   0.0073732    0.029078  -0.0054526   -0.002164  -0.0093991
-0.13338     -1.0674   -0.055112   0.0001381  -0.0080836  -0.0024928    -0.01795
-0.13042    -0.83847   -0.087998   -0.033406  -0.0084125   -0.014332   -0.022883
-0.12746    -0.57045   -0.071555   -0.063004  -0.0067681   -0.025185   -0.022883
-0.12089     -0.3113  -0.0038083   -0.083065  -0.0034794   -0.027487   -0.020909
-0.10641    -0.09918    0.094194   -0.091287   0.0047422   -0.021896    -0.01499
-0.088327    0.057032     0.19253   -0.087669    0.013951  -0.0090702   -0.007097
-0.073199     0.16523     0.26718   -0.072213    0.023159   0.0030979  0.00046697
-0.068924     0.23561     0.30401   -0.050836    0.033683   0.0086887   0.0070443
-0.073528     0.27639     0.29875   -0.030118    0.044864   0.0017824    0.010991
-0.081421     0.29842     0.25665   -0.011701    0.052757    -0.01203    0.015595
-0.090958     0.32276     0.18496      0.0054     0.05473     -0.0265     0.01987
-0.098522     0.37044     0.10011     0.01691    0.050126   -0.034393    0.018555
-0.10609     0.44542    0.015266    0.020857    0.042891   -0.032091    0.012635
-0.11891     0.52797   -0.062347    0.016581    0.038616   -0.026829   0.0024402
-0.13799     0.58289    -0.13864   0.0077021    0.040918   -0.023211  -0.0093991
-0.16166     0.58486    -0.21527  -0.0018351     0.04618   -0.027487   -0.021238
-0.18337      0.5306    -0.29025  -0.0080836    0.047495   -0.039984   -0.029131
-0.19587     0.43687    -0.35043   -0.013674    0.042891   -0.054783   -0.028144
-0.20113     0.32637     -0.3797   -0.020252    0.032367   -0.065964   -0.018278
-0.19718     0.21949    -0.36622   -0.025185    0.020528   -0.072213   -0.011372
-0.18666     0.12873    -0.31426   -0.028473     0.01132   -0.073528  -0.0090702
-0.16397    0.043877    -0.24257    -0.03242  0.00079584   -0.069253  -0.0077547
-0.12746   -0.049192    -0.17383   -0.036037   -0.007097     -0.0584  -0.0064392
-0.082736    -0.16331    -0.12812   -0.041957  -0.0084125   -0.041299  -0.0054526
-0.038997    -0.31294    -0.11266   -0.051165  -0.0054526   -0.024527  -0.0051238
-0.0041372    -0.49711    -0.11825   -0.064649  -0.0041372   -0.013345  -0.0034794
0.018884    -0.68917    -0.13174    -0.07583  -0.0041372   -0.011043   0.0014536
0.028421     -0.8319    -0.13897   -0.082408  -0.0018351   -0.015648   0.0050711
0.030723     -0.8707    -0.12746    -0.08175   0.0024402   -0.020909   0.0050711
0.032367    -0.78947   -0.086683   -0.072542   0.0073732    -0.02354   0.0017824
0.034998    -0.61452  -0.0084125   -0.056756    0.012635   -0.022225  -0.0011774
0.034998    -0.40042    0.098469   -0.034722    0.019541   -0.018607  -0.0018351
0.028421    -0.19916     0.18825   -0.010057    0.033025    -0.01203   0.0001381
0.020199   -0.046561     0.20108    0.022172    0.050455  -0.0061104   0.0014536
0.017568    0.052757     0.10965    0.060979    0.069858   0.0001381   0.0044134
0.01691     0.11886   -0.057085    0.097812    0.086959   0.0080309   0.0050711
0.013293     0.17115    -0.23796     0.12182    0.098798     0.01691    0.002769
0.00079584     0.22837    -0.36326     0.12905      0.1011    0.025132  -0.0031506
-0.023211     0.30204    -0.37444      0.1159    0.090905    0.030065   -0.010386
-0.053138     0.38919    -0.23138    0.087288    0.073147    0.029407   -0.018278
-0.085039     0.47371    0.065254    0.049797    0.054072    0.023817   -0.027487
-0.11464     0.53225     0.42635    0.018226    0.043549    0.018226   -0.033078
-0.14062     0.55132     0.70293  -0.0018351    0.043877    0.017239   -0.033735
-0.15575     0.53126     0.78317   -0.010715    0.050126     0.02579   -0.026171
-0.1564     0.47502     0.64998   -0.014661    0.059005    0.039602   -0.010057
-0.14358     0.39116     0.38294   -0.021567    0.068871    0.050784   0.0080309
-0.12089      0.2879     0.10439   -0.035051    0.074791    0.052757    0.017897
-0.094576     0.17608   -0.090629   -0.054454    0.072818    0.043877    0.021186
-0.073199    0.067885    -0.17219    -0.07583    0.062952    0.030065    0.014937
-0.058729   -0.021567    -0.16068   -0.091945    0.051113    0.023488   0.0030979
-0.046561    -0.07287    -0.11299   -0.098193    0.042562    0.027434  -0.0084125
-0.022554   -0.074515   -0.082079   -0.094576    0.037958    0.036314   -0.014332
0.02283   -0.031104   -0.092603   -0.084052    0.036314    0.043549   -0.014332
0.095181    0.044535     -0.1199   -0.068266    0.033354     0.04322   -0.010057
0.19154     0.13333    -0.11036   -0.043272    0.027763    0.035327  -0.0047949
0.28855     0.21522   -0.036695   -0.010386    0.020528    0.022172  -0.0024928
0.36584     0.27343    0.074462    0.020857    0.013622   0.0063866  -0.0015062
0.40958     0.29908     0.17279    0.043549   0.0037556   -0.004466  0.00079584
0.42109     0.29579     0.21226     0.05473  -0.0031506   -0.013017    0.002769
0.41484      0.2754     0.18233    0.055388  -0.0051238   -0.021896   0.0014536
0.41089     0.25534     0.11195    0.049139   -0.002164   -0.032091   -0.002164
0.41912     0.25074    0.052428    0.042562   0.0060577   -0.037682  -0.0057815
0.43589     0.26882    0.041575    0.038616    0.017239   -0.034722  -0.0047949
0.44181     0.29974    0.090248    0.036314    0.025461   -0.024198 -0.00019077
0.41583     0.32572     0.17773     0.03434    0.029407   -0.012359   0.0024402
0.35367     0.33229     0.26619    0.032038    0.030723  -0.0054526  0.00046697
0.27244     0.30796     0.31454      0.0373    0.031381  -0.0047949  -0.0031506
0.19746     0.25074     0.30434    0.055388    0.032038  -0.0077547  -0.0031506
0.14813     0.17411     0.25139    0.084328    0.032696  -0.0061104   0.0060577
0.13004    0.096167     0.18463     0.11393    0.030723    0.002769    0.022172
0.13333    0.024145     0.11458     0.13366    0.025132    0.014608    0.036971
0.14122    -0.05281    0.024803     0.13037    0.013951    0.021186    0.044206
0.13596     -0.1416    -0.10115    0.099456   0.0021113    0.016581    0.043877
0.10702    -0.23138    -0.25079    0.045522  -0.0080836   0.0001381    0.034669
0.061636    -0.30341    -0.38595   -0.017621   -0.014661   -0.019594    0.020199
0.0080309    -0.33596    -0.46389   -0.068266   -0.015648    -0.03538   0.0044134
-0.038997    -0.31294    -0.45567   -0.090629   -0.013017   -0.041299  -0.0077547
-0.067609    -0.23106    -0.35175   -0.082408  -0.0051238   -0.036695    -0.01499
-0.067937    -0.10609    -0.17646   -0.049521   0.0077021   -0.023869   -0.016963
-0.042944     0.02579   0.0057288  -0.0097279    0.026119  -0.0024928  -0.0090702
-0.004466     0.12544     0.10998    0.028092    0.045193    0.026447   0.0093464
0.033683     0.16983    0.072489    0.057032    0.057032    0.052428    0.031052
0.063281     0.16293   -0.093589    0.071173    0.055388     0.06065    0.049797
0.083013     0.11689    -0.29946    0.067885    0.038287    0.048482    0.061636
0.090905    0.053086    -0.44416    0.046837   0.0067154    0.024474    0.062623
0.086959  -0.0084125    -0.47804    0.013951   -0.034393  -0.0011774    0.056703
0.077751   -0.062676    -0.41752   -0.022883   -0.075501   -0.019923    0.047495
0.066569    -0.11233    -0.30768   -0.054783    -0.10806   -0.026171    0.036642
0.053086    -0.16068     -0.1962   -0.076817    -0.12582   -0.022225     0.02579
0.032367    -0.19784    -0.10872   -0.087341    -0.13305   -0.017621    0.017568
0.0044134    -0.21494   -0.051165   -0.085696    -0.13404   -0.016634   0.0083598
-0.027487    -0.20244   -0.011043   -0.068595    -0.13437   -0.019594 -0.00019077
-0.058729    -0.16627    0.027105   -0.039655    -0.13536   -0.025514  -0.0057815
-0.081092    -0.12286    0.066898  -0.0061104    -0.13305   -0.033735  -0.0080836
-0.098193   -0.081421     0.10143    0.023159    -0.12582   -0.038997  -0.0064392
-0.11562   -0.047877     0.12281    0.045851    -0.11464   -0.037353   -0.002164
-0.13864     -0.0265     0.12281    0.064596    -0.10115   -0.028802   0.0017824
-0.16397   -0.014661     0.10834    0.086959   -0.087998   -0.019594    0.002769
-0.19258  -0.0097279     0.08959     0.11228   -0.077146   -0.012359   0.0014536
-0.22645  -0.0057815    0.074791     0.13366   -0.068924  -0.0077547  -0.0041372
-0.26263   0.0017824    0.064267     0.14418   -0.064978  -0.0067681   -0.016305
-0.29288    0.015266    0.064267     0.14056   -0.062018  -0.0061104   -0.031104
-0.31163    0.039931    0.083342     0.12577   -0.054783  -0.0018351   -0.044588
-0.31327    0.077093     0.12149     0.10538   -0.037682   0.0034268   -0.053467
-0.29946     0.12609      0.1649    0.088275   -0.011701   0.0047422     -0.0584
-0.27973     0.17378     0.18989    0.082684    0.017897  0.00046697   -0.061031
-0.2623     0.20206     0.18102    0.090248    0.039931   -0.004466   -0.060702
-0.25737     0.19614     0.13629     0.10636    0.051441   -0.011372   -0.056098
-0.26427     0.16819    0.070187      0.1284    0.051441   -0.024856   -0.047548
-0.28006     0.16227   0.0011247      0.1501    0.042562   -0.041957   -0.036695
-0.29354     0.21883   -0.045903     0.16589    0.033354   -0.055112   -0.026171
-0.29387     0.33229   -0.054783     0.16819    0.026447    -0.05544   -0.013345
-0.27447     0.45957   -0.027487     0.15372    0.024474   -0.042286  -0.0024928
-0.22316     0.54211   0.0093464     0.12544    0.027763   -0.023211   0.0083598
-0.13108       0.526     0.01691    0.093536    0.035656  -0.0051238    0.021186
0.0086887      0.3905   -0.020581    0.064267    0.043549   0.0060577    0.035985
0.18562     0.16293   -0.084381    0.043549    0.047495    0.010991    0.051441
0.37669   -0.099838    -0.13207    0.028421    0.047166    0.012964    0.063281
0.55231    -0.32413    -0.11891    0.014937    0.042562    0.015595    0.069529
0.68418    -0.46225   -0.021238   -0.004466    0.035985    0.019212    0.073147
0.75555    -0.51684     0.13267   -0.029131    0.028421    0.022172    0.073804
0.76377    -0.52802     0.29119   -0.064978    0.019212    0.022501    0.068871
0.71214    -0.54019     0.40629    -0.10937   0.0040845    0.014608    0.059663
0.6115    -0.57801     0.45036     -0.1564   -0.019594  -0.0024928    0.050126
0.47436    -0.64674     0.42799    -0.19422   -0.045903   -0.023869    0.041247
0.32407    -0.73554     0.35005    -0.21395   -0.069253   -0.040641    0.035327
0.1797    -0.81216     0.21061    -0.21724   -0.086683   -0.044259    0.031381
0.057032    -0.84374   -0.004466    -0.20869    -0.09622   -0.033406     0.02579
-0.038997    -0.81644    -0.29716      -0.186   -0.098522   -0.016634    0.020528
-0.10872    -0.75494    -0.60925    -0.14917   -0.097207   0.0011247    0.019212
-0.15476    -0.70495     -0.8171   -0.091287   -0.092274     0.01132    0.020528
-0.1814    -0.70199    -0.81743   -0.016305   -0.081421    0.013951    0.022501
-0.19718    -0.75428    -0.62043    0.053743   -0.068595    0.014279    0.021843
-0.20508    -0.83255    -0.34517     0.08959   -0.058071    0.012964    0.017568
-0.20343    -0.86709    -0.12056    0.083013   -0.057414   0.0090175    0.010333
-0.19784    -0.76316  -0.0090702    0.044206    -0.06728   0.0030979   0.0017824
-0.19685    -0.45173   0.0011247  -0.0038083   -0.086025  -0.0054526  -0.0077547
-0.19916    0.052099    -0.04393   -0.047219    -0.10773   -0.014332   -0.019923
-0.19718     0.63288     -0.1051   -0.077803    -0.12746   -0.023211   -0.032091
-0.18962      1.1242    -0.15575   -0.098851    -0.14292   -0.033735   -0.044259
-0.17548       1.408    -0.17712    -0.11266    -0.16035   -0.039326   -0.054454
-0.15443      1.4386    -0.16101     -0.1176    -0.17877   -0.036695   -0.059387
-0.12319      1.2485    -0.10674    -0.11135    -0.19554   -0.028802   -0.055112
-0.088327      0.9111  -0.0038083   -0.092274    -0.20376   -0.017292   -0.038339
-0.057085     0.50659     0.16523   -0.058729     -0.1962  -0.0041372    -0.01499
-0.034722    0.091892     0.40234   -0.016963    -0.17318      0.0054   0.0077021
-0.019594    -0.30143      0.6536    0.024803    -0.13799   0.0083598    0.024145
-0.01203    -0.65497     0.81573    0.054401    -0.10017   0.0070443    0.031709
-0.017621      -0.947     0.75851    0.064267   -0.064649   0.0050711    0.028421
-0.035051     -1.1483     0.42701    0.052428   -0.033735   0.0037556     0.01987
-0.065964     -1.2423   -0.082079    0.024803   -0.010057  0.00079584     0.01132
-0.10806     -1.2325    -0.55071  -0.0080836   0.0086887  -0.0051238   0.0040845
-0.15443     -1.1289    -0.79408   -0.039655    0.024474   -0.017292  -0.0041372
-0.19521     -0.9493     -0.7579   -0.064978    0.042233   -0.032749   -0.016634
-0.22415    -0.71548    -0.51553   -0.085367    0.058676    -0.04985   -0.031762
-0.24125    -0.45501    -0.20244    -0.10477    0.070187   -0.065307    -0.04393
-0.2498    -0.20409    0.062623    -0.12253    0.075778   -0.078461   -0.047877
-0.25638   0.0021113     0.21489    -0.13897    0.076106   -0.085039   -0.045903
-0.26394     0.14024     0.24679    -0.15213    0.074133   -0.085039   -0.042615
-0.27282     0.20798     0.17246    -0.16495    0.073147   -0.080434   -0.042286
-0.27578     0.22015    0.024145    -0.17318    0.074791   -0.070568   -0.044588
-0.26427     0.20732    -0.14818    -0.16989    0.077093   -0.060045   -0.044917
-0.24059     0.20963    -0.29782    -0.14851    0.079724   -0.049521   -0.040313
-0.21001      0.2606    -0.39549    -0.11431     0.08367   -0.039984   -0.034064
-0.17712     0.36781    -0.43265   -0.078132    0.086959   -0.034064   -0.025514
-0.14259     0.51416    -0.41489   -0.044917    0.087946   -0.025185   -0.013674
-0.099509      0.6582    -0.34024   -0.010057     0.08663   -0.014332   -0.002164
-0.045246     0.75916    -0.19422    0.032696    0.081697  -0.0047949      0.0054
0.0096753     0.79139    0.044864    0.080711    0.073804   0.0050711   0.0093464
0.054401     0.74864     0.36584     0.12182    0.066569     0.01691    0.013293
0.080382     0.63617     0.69635     0.14484     0.06361    0.029736    0.022172
0.088603     0.47371     0.90979     0.14352    0.065912    0.039931    0.035985
0.09255     0.30237     0.89926     0.11393    0.070845    0.045522    0.051441
0.1034     0.19285     0.66445    0.067556    0.070516    0.043549    0.062294
0.12379      0.2116      0.3096    0.023817    0.059005    0.039931    0.066569
0.14912     0.36946   -0.024527  -0.0031506    0.030723    0.038944    0.063938
0.16786     0.61282    -0.24684   -0.013017   -0.017292    0.039931    0.050784
0.17214     0.85782    -0.36194   -0.010715   -0.082079    0.038287    0.030065
0.16063      1.0269    -0.43561   -0.011701    -0.15114    0.031052   0.0086887
0.13925      1.0788    -0.51684   -0.022225    -0.20869     0.01691  -0.0077547
0.10899      1.0098      -0.603   -0.040641    -0.24585  -0.0024928    -0.01795
0.077093     0.84894    -0.67075   -0.055112    -0.25177   -0.021238   -0.019923
0.048482      0.6365    -0.69871   -0.054783    -0.22711   -0.033078   -0.019594
0.023817     0.40629    -0.65036   -0.039984    -0.17778   -0.035708    -0.01795
-0.00051963     0.18529    -0.46356    -0.01795    -0.11661   -0.028802   -0.011701
-0.027487    -0.02354     -0.1199   0.0047422   -0.054125   -0.014332  -0.0015062
-0.062347    -0.22711     0.30993    0.025461   0.0001381   0.0017824    0.010004
-0.1051    -0.42739     0.70622    0.036642    0.043549    0.014937    0.015924
-0.1541    -0.61978     0.96569    0.030723    0.076764     0.02579    0.014937
-0.20277    -0.78717      1.0614    0.013293     0.10636    0.034011    0.010662
-0.24355    -0.90326      1.0285  -0.0011774     0.13793    0.041247   0.0014536
-0.26296    -0.94799     0.93149   0.0047422     0.16983    0.049468  -0.0090702
-0.25276    -0.91609     0.84533    0.033683     0.19812     0.05769   -0.012359
-0.21494    -0.82072      0.8029    0.073804     0.21522    0.058348  -0.0074258
-0.15739    -0.68325     0.77265     0.10603     0.21324    0.049139   0.0034268
-0.089643    -0.52638     0.68813      0.1159     0.18957    0.031381    0.010333
-0.025185    -0.35339     0.50495      0.1034     0.15142    0.014279   0.0093464
0.030394    -0.16956     0.24449    0.080053     0.11261   0.0073732   0.0073732
0.080382    0.010333   -0.029789    0.058676     0.08367   0.0070443      0.0054
0.12149      0.1626    -0.25506    0.042233     0.07216   0.0060577   0.0070443
0.14418     0.26225    -0.39023    0.026447     0.07216   0.0034268   0.0096753
0.15207     0.30039    -0.42443   0.0073732    0.076106  -0.0011774    0.013622
0.15734     0.28823    -0.37247   -0.012359    0.074791  -0.0024928    0.020528
0.16918     0.24547    -0.25901   -0.029789    0.066569 -0.00019077    0.033683
0.1945     0.19779     -0.1222   -0.041628    0.051113   0.0060577    0.045522
0.23035     0.17246   -0.012688   -0.045574    0.032367    0.011977    0.049797
0.26521     0.18661    0.037958   -0.046561    0.013293    0.016581    0.045851
0.28165     0.23265    0.022172   -0.047548 -0.00019077    0.012306    0.035985
0.27178     0.28362   -0.043601   -0.047219  -0.0090702   0.0021113    0.024145
0.23824      0.3073     -0.1245   -0.045574   -0.013017   -0.007097    0.013293
0.1922     0.28461    -0.18238   -0.044259   -0.015976   -0.013345   0.0011247
0.14385     0.22706    -0.20047   -0.045903   -0.022225   -0.015319   -0.013017
0.099127     0.16063    -0.17942   -0.054454   -0.032749   -0.014003   -0.026171
0.059663     0.10603    -0.14325   -0.061689   -0.042615   -0.011372   -0.031104
0.021843    0.073476    -0.12154   -0.057743   -0.049192   -0.011043   -0.026829
-0.014332    0.065254    -0.12976   -0.042286   -0.052481   -0.018607   -0.019594
-0.045903    0.074133     -0.1541   -0.022225   -0.054125    -0.03242    -0.01499
-0.070568    0.092879    -0.17844  -0.0054526   -0.054783   -0.045903   -0.014661
-0.08471     0.11261    -0.19521   0.0044134   -0.054454   -0.056098   -0.015319
-0.085039     0.12445    -0.20606   0.0093464   -0.053138   -0.061689   -0.015648
-0.079777     0.11919    -0.21034    0.011977   -0.051494   -0.063991   -0.013674
-0.073528    0.099127    -0.21724    0.017239   -0.048534   -0.065635  -0.0067681
-0.070568    0.074133    -0.23862    0.026447   -0.042286    -0.06432    0.002769
-0.073528    0.057361    -0.28104      0.0373   -0.030118   -0.060045   0.0080309
-0.082736    0.053415    -0.33202     0.05177   -0.012688   -0.054454   0.0073732
-0.094576    0.059334     -0.3557     0.07512   0.0086887    -0.04393  0.00079584
-0.10872    0.070516    -0.31722     0.10735    0.024145   -0.031433  -0.0077547
-0.12121    0.082026    -0.20902     0.13991    0.025132    -0.02354   -0.014003
-0.12615     0.08959   -0.057743     0.16359    0.011977   -0.016963   -0.014332
-0.1268    0.096825    0.091234     0.17279  -0.0080836   -0.010386  -0.0077547
-0.12417     0.11097     0.19647     0.17246   -0.027158  -0.0061104   0.0063866
-0.11891     0.14352     0.23528      0.1751   -0.039326  -0.0077547    0.018884
-0.10477     0.19384     0.20798     0.18989   -0.045574   -0.014003    0.027434
-0.080434     0.24646     0.13991     0.21555    -0.04689   -0.019265    0.029407
-0.054454     0.27376    0.064267     0.24218    -0.04393   -0.020252    0.021514
-0.036366     0.26027  -0.0008485     0.25731   -0.042286   -0.016634   0.0090175
-0.030775     0.20864   -0.048534     0.25337   -0.043272   -0.011372  -0.0051238
-0.036366     0.12905   -0.079777      0.2264   -0.047877  -0.0051238    -0.01499
-0.047219    0.037629   -0.095891      0.1797   -0.056427   -0.002164   -0.018936
-0.057743   -0.048863   -0.098522     0.12544   -0.068266 -0.00051963   -0.017621
-0.059716    -0.12023   -0.095891    0.075449   -0.085039   -0.004466   -0.014003
-0.038011    -0.18008   -0.092603    0.038616    -0.10543   -0.013017   -0.011701
0.024474    -0.22842    -0.10181    0.018555     -0.1268   -0.020909   -0.013017
0.13201    -0.26131    -0.12286    0.011977    -0.14423   -0.021896   -0.011372
0.27376    -0.27578     -0.1518     0.01691    -0.15147   -0.014003  -0.0028217
0.4201    -0.26657    -0.17613    0.027434    -0.15213  -0.0041372   0.0090175
0.53126    -0.23928    -0.19093    0.036642    -0.14917   0.0060577     0.01987
0.57368    -0.21395    -0.19817    0.036642    -0.14917    0.014279    0.025132
0.53586    -0.20968    -0.20442     0.01987     -0.1518    0.017897     0.02283
0.43918    -0.22546     -0.2179   -0.014003    -0.15805    0.013622    0.014608
0.31881    -0.25013    -0.24125   -0.056098    -0.16166   0.0047422   0.0044134
0.20667    -0.26657    -0.26526   -0.097207    -0.16627   -0.004466  -0.0038083
0.11754    -0.26559    -0.27184    -0.12516    -0.17416   -0.010057   -0.011372
0.05177    -0.24881    -0.25145      -0.137     -0.1837  -0.0087413   -0.019265
0.0080309    -0.22119    -0.20606    -0.13897    -0.18567  -0.0008485   -0.026171
-0.019265    -0.18732    -0.14687      -0.137    -0.18008    0.012635   -0.036037
-0.033078    -0.15114   -0.095891    -0.13338     -0.1666     0.02875   -0.042286
-0.038011     -0.1199   -0.071884    -0.13174    -0.13897     0.04026   -0.041628
-0.038997    -0.10082   -0.076159    -0.13108   -0.095233    0.043877   -0.037024
-0.038668     -0.1005   -0.095562    -0.12582   -0.037353    0.038616     -0.0265
-0.044588     -0.1097    -0.11102    -0.10641    0.033025    0.024474   -0.010386
-0.061031     -0.1176    -0.11036   -0.073528     0.11491    0.010991   0.0090175
-0.08175    -0.11628   -0.096549   -0.033078     0.20864   0.0077021    0.026776
-0.098851    -0.10674   -0.077475   0.0057288     0.30664    0.015595    0.036642
-0.10609    -0.09622    -0.05544    0.034998     0.40497    0.022501    0.035656
-0.10313   -0.085039   -0.033735    0.052099     0.50495    0.024803    0.033354
-0.092931   -0.069911   -0.013345    0.058348     0.60032    0.021514    0.034669
-0.081421   -0.053796   0.0086887    0.058019     0.67366    0.016581    0.036642
-0.079448    -0.04097    0.038287     0.05177     0.70063    0.011648    0.037629
-0.087012    -0.03242    0.092221    0.044864     0.66675    0.010662    0.039931
-0.097536   -0.029789     0.19088     0.04322     0.57105    0.012306    0.041575
-0.097207   -0.029131     0.32637    0.052099     0.43391    0.013951     0.04026
-0.085367   -0.033406     0.45266    0.067556     0.28198    0.013293     0.03434
-0.06432   -0.045903     0.51712    0.080382     0.14352    0.011648    0.030065
-0.038339    -0.06432     0.49804    0.080711      0.0373   0.0086887    0.029407
-0.014661   -0.082736     0.41155    0.061965   -0.033078   0.0040845    0.031709
0.0021113   -0.094247      0.2925    0.027763   -0.073528 -0.00051963    0.033354
0.01132   -0.093918     0.16983  -0.0097279   -0.095562  -0.0008485    0.030394
0.014608   -0.085039    0.058019   -0.037682    -0.10444   0.0017824    0.024474
0.013951   -0.075173   -0.043272   -0.051165    -0.10937   0.0037556    0.015924
0.0083598   -0.071226    -0.13305   -0.056756    -0.11924  -0.0008485   0.0037556
-0.0067681   -0.069911    -0.20113   -0.063333    -0.13832   -0.011701  -0.0093991
-0.032091   -0.061031    -0.23402    -0.07583    -0.16364   -0.025842   -0.019265
-0.066293   -0.037353    -0.22086   -0.089314     -0.1883   -0.037024   -0.023869
-0.099838   0.0024402    -0.17054   -0.097536    -0.20442   -0.044588   -0.026829
-0.12779     0.04881    -0.10477   -0.097207    -0.21198   -0.051165   -0.028802
-0.14851    0.090248   -0.054454    -0.09326    -0.21363   -0.059058   -0.031433
-0.16265      0.1159   -0.041299   -0.094247    -0.21001    -0.06432   -0.036037
-0.16758     0.11985   -0.064978    -0.10641    -0.20606   -0.066622   -0.039984
-0.16791     0.10998     -0.1051    -0.12516    -0.20212   -0.062018   -0.039326
-0.16166     0.10077    -0.13042    -0.14785    -0.19948    -0.05281    -0.03242
-0.1495     0.10176    -0.11858    -0.16956    -0.19883   -0.039326   -0.022883
-0.13141     0.11754   -0.069582    -0.18173    -0.19817   -0.025842   -0.013017
-0.11003     0.14451   0.0021113     -0.1837    -0.19455   -0.019265  -0.0087413
-0.086683     0.16819    0.093536    -0.17877    -0.18666   -0.019594  -0.0097279
-0.058729     0.16589     0.22541    -0.16758    -0.17811   -0.021896  -0.0090702
-0.025842     0.12741      0.4224    -0.15048    -0.16758   -0.019594   -0.004466
0.011977    0.059992     0.67793    -0.12549    -0.15377   -0.012359   0.0057288
0.057361   -0.013345     0.94037   -0.089643      -0.137 -0.00051963    0.019212
0.1057   -0.068266      1.1275   -0.038668    -0.11628    0.010991    0.033025
0.14648     -0.0903       1.162     0.02579   -0.087998    0.019212    0.045522
0.17312    -0.07879      1.0107    0.093865   -0.057414    0.024474    0.053086
0.18397   -0.046232      0.7049     0.14944   -0.027816    0.029736    0.053743
0.17773   -0.011043     0.31914     0.17115  -0.0067681    0.037629    0.047495
0.15339   0.0096753   -0.057085      0.1501   0.0014536    0.045522    0.035985
0.11294   0.0057288    -0.36754    0.088603  -0.0077547    0.046837    0.020528
0.062623   -0.020581    -0.59807   0.0014536   -0.034722    0.039602   0.0073732
0.010004   -0.066622    -0.75659     -0.0903   -0.071226    0.024803   -0.002164
-0.04097    -0.12089    -0.85492    -0.16134    -0.10773   0.0050711   -0.013017
-0.088656    -0.16134    -0.89931    -0.20179    -0.13799   -0.014332   -0.028802
-0.1268    -0.16857    -0.88912    -0.21165    -0.15805   -0.028473   -0.044917
-0.14654    -0.12549    -0.82039     -0.2008     -0.1689   -0.034064   -0.055112
-0.14752   -0.023211     -0.6964    -0.17844    -0.17054    -0.03242   -0.053796
-0.13207     0.14681    -0.53197     -0.1541     -0.1689   -0.027487   -0.044588
-0.10905     0.38097    -0.35076    -0.13338    -0.16693   -0.024198   -0.034064
-0.084052     0.64768    -0.18501     -0.1176    -0.16923    -0.02354   -0.025842
-0.059716     0.88512   -0.057414    -0.10905    -0.17383    -0.02354   -0.021567
-0.040641      1.0252    0.030723    -0.10674    -0.17745   -0.021896   -0.022225
-0.030447      1.0246    0.096167    -0.10641     -0.1735   -0.021896   -0.021238
-0.027816      0.8815     0.16128    -0.10247    -0.15936   -0.022883    -0.01499
-0.031104     0.62762     0.22903   -0.092931    -0.13799   -0.025514   -0.007097
-0.034393     0.31454     0.28559   -0.079119    -0.11135   -0.031433  -0.0018351
-0.036366  -0.0074258     0.31256    -0.06432    -0.07879   -0.039655  0.00046697
-0.034064    -0.31196     0.28198   -0.049192   -0.043272   -0.044259  0.00046697
-0.031762     -0.5836     0.16983   -0.035051  -0.0067681   -0.041957   0.0021113
-0.033078    -0.81414   -0.021896   -0.018607    0.026119   -0.034722   0.0024402
-0.04393    -0.99666    -0.25506  -0.0011774    0.053415   -0.026829  -0.0024928
-0.065307     -1.1282    -0.46028    0.014279    0.068871   -0.021567   -0.011701
-0.098193     -1.2025    -0.57406    0.026447     0.06624   -0.019594   -0.020909
-0.1347     -1.2015    -0.57505    0.032696    0.053743   -0.020252   -0.027816
-0.15969     -1.1068    -0.48494     0.03434    0.042233   -0.022225    -0.02354
-0.16462    -0.92102    -0.34978    0.038287    0.040589   -0.018278  -0.0077547
-0.15081    -0.66944    -0.21593    0.048153    0.049139   -0.010386    0.012635
-0.1268    -0.40009    -0.11365    0.061307    0.061636   0.0017824    0.031381
-0.10576    -0.16298   -0.061689    0.073147    0.068543     0.01691    0.043549
-0.097536      0.0054   -0.050507    0.073147    0.069529    0.028421    0.045522
-0.10806    0.092221   -0.050836    0.062952    0.064267    0.026119    0.036971
-0.12976     0.10702   -0.040313    0.049139    0.057032   0.0090175    0.022172
-0.15377    0.080053   -0.017292    0.036642    0.043877   -0.015648   0.0060577
-0.17153    0.044535    0.010991    0.024474    0.027763   -0.039326  -0.0067681
-0.17087    0.024803    0.039602    0.018555    0.013622   -0.055112   -0.014661
-0.14588    0.029407    0.066569    0.022501   0.0063866   -0.061689   -0.018607
-0.095891    0.052099    0.088275    0.036971   0.0047422     -0.0584   -0.015648
-0.022554    0.083013     0.10899    0.059663   0.0073732    -0.04985  -0.0080836
0.070845     0.11623      0.1307    0.082026    0.010333   -0.044588 -0.00051963
0.17181     0.15175     0.15372    0.094852    0.013951   -0.042944   0.0044134
0.26257     0.18233     0.17115    0.098141    0.019541   -0.046561   0.0070443
0.32045      0.1968      0.1672    0.092879    0.028092    -0.04985    0.012306
0.32835     0.18825     0.14089    0.079724    0.035985   -0.046232    0.018555
0.27935     0.15602     0.10702    0.061965    0.040918   -0.038011    0.020199
0.18167     0.10669    0.083013    0.041904    0.042233   -0.030447    0.017239
0.056703    0.048153    0.072489    0.018884    0.042562   -0.025185     0.01132
-0.067937  -0.0077547    0.064267 -0.00051963    0.040918   -0.020252   0.0034268
-0.16791   -0.051494    0.046508    -0.01499    0.040918   -0.015648  -0.0024928
-0.22974   -0.081092    0.021843   -0.024856    0.044206   -0.013345  -0.0074258
-0.25276   -0.095233   0.0030979   -0.024856     0.05473   -0.011701   -0.017292
-0.25375   -0.086025   0.0044134   -0.012359    0.067885   -0.014003   -0.033078
-0.2498   -0.047219     0.03434    0.012306     0.07808   -0.021238   -0.046232
-0.24914    0.023817    0.088275    0.038944    0.082026   -0.030775    -0.04985
-0.24585     0.11031     0.15142     0.05769    0.080382    -0.03538   -0.043272
-0.2327     0.19253     0.20502    0.063938     0.07512   -0.033078   -0.030118
-0.20442     0.25172     0.23758    0.061965    0.069858   -0.027816   -0.019594
-0.15936     0.28888     0.24613    0.061965    0.065583   -0.021238  -0.0087413
-0.094905     0.30829     0.23626    0.067556    0.063281   -0.013674   0.0001381
-0.0093991     0.32506     0.21226    0.077422     0.06624  -0.0024928      0.0054
0.094523     0.34117     0.18167    0.091234     0.07512    0.011648   0.0086887
0.21061      0.3517     0.14747      0.1034    0.086959    0.025132    0.011977
0.3267     0.34676     0.11458     0.10965    0.096167     0.03434    0.015595
0.42668     0.32572    0.084986      0.1057    0.097154    0.033683    0.020199
0.49541     0.29447    0.058676    0.093865    0.086301    0.027763    0.026119
0.52369     0.26422    0.039602    0.079395     0.06624    0.017239    0.033354
0.50988     0.24317    0.031052    0.065254    0.039931      0.0054    0.036314
0.45693      0.2264    0.026447    0.055717    0.014279  -0.0038083    0.032038
0.37669     0.20963   0.0093464     0.05177   -0.007097  -0.0080836    0.023159
0.28921     0.19351   -0.038011    0.051441   -0.019265  -0.0093991    0.014279
0.22081     0.18332     -0.1176    0.051441   -0.019594  -0.0077547    0.010004
0.19779     0.18299    -0.21297    0.050455    -0.01203  -0.0064392    0.011648
0.22377     0.19318    -0.30242    0.045851  -0.0038083  -0.0077547    0.020857
0.28264       0.207    -0.37148    0.035656  0.00046697  -0.0074258    0.029736
0.34907     0.22311    -0.41522    0.019541    0.002769  -0.0028217    0.034998
0.39675     0.24054    -0.42739   0.0030979   0.0073732    0.010333    0.034998
0.41221     0.25665    -0.40667  -0.0077547    0.015595    0.023817    0.033354
0.38853     0.26323    -0.33596  -0.0077547    0.034669    0.029078    0.031381
0.32835     0.26027    -0.17449   0.0030979    0.064596    0.026119    0.025461
0.24942     0.25041     0.10899    0.021843    0.098469    0.018226    0.016581
0.17246     0.23528     0.46877    0.044206     0.12313   0.0086887   0.0086887
0.10472     0.21522      0.7881    0.067885     0.13497      0.0054   0.0073732
0.053086     0.18957     0.96273    0.084986     0.13432   0.0077021    0.012306
0.013293     0.16194     0.94793    0.091892     0.12281    0.017897    0.017897
-0.021896     0.13563      0.7812    0.092879     0.10242     0.03434    0.019541
-0.061689     0.10669     0.55527    0.094523    0.076764    0.053086    0.017897
-0.11398    0.068214     0.36485     0.10044    0.052099    0.067556    0.015924
-0.17318    0.021514     0.25238     0.10538    0.033025    0.068871    0.014608
-0.22875   -0.025514      0.2014     0.10603    0.019541    0.054401    0.010662
-0.27151   -0.071555     0.17444      0.1011    0.010333    0.034011   0.0057288
-0.29749    -0.11299     0.14254    0.088603    0.002769     0.01691   -0.002164
-0.30834    -0.15311    0.097812      0.0692  -0.0061104   0.0080309  -0.0090702
-0.30933    -0.19192    0.041904    0.047166   -0.018936   0.0073732   -0.010386
-0.30735    -0.22546   -0.024527    0.027434   -0.027816    0.010991  -0.0061104
-0.30012     -0.2521   -0.090629    0.010662   -0.032091    0.011648  -0.0031506
-0.28795    -0.26756    -0.13897  0.00079584   -0.031104    0.010004 -0.00019077
-0.26822    -0.26756    -0.15081   0.0021113   -0.029131   0.0093464   0.0040845
-0.24224    -0.25506    -0.10773    0.015924   -0.028802    0.010333    0.012635
-0.21363    -0.24059  -0.0041372    0.037629   -0.026829    0.017239    0.024145
-0.18995     -0.2373      0.1353    0.054072   -0.026171    0.025461    0.032367
-0.17581    -0.25506     0.26915    0.057032   -0.032091    0.028092    0.034998
-0.16956    -0.29518     0.36452    0.047824   -0.045903    0.021843    0.029736
-0.15936    -0.35274     0.40432    0.035656   -0.063991   0.0086887    0.022501
-0.13174    -0.40667     0.39511    0.030065   -0.079448   -0.010057    0.015595
-0.080106    -0.43594     0.35992    0.032038   -0.085367   -0.021567    0.010004
-0.012688    -0.43134     0.31947    0.035656   -0.083394   -0.020252   0.0083598
0.056703    -0.39286     0.28527    0.036642    -0.07287    -0.01203   0.0096753
0.10538    -0.33498     0.25435    0.032696   -0.058729  -0.0041372     0.01132
0.11458    -0.28071     0.21719    0.024145   -0.041957  -0.0028217    0.011648
0.075778    -0.23665     0.15997    0.015266   -0.026171  -0.0034794    0.010991
0.00046697    -0.20508    0.073804    0.010004   -0.012688  -0.0057815    0.010333
-0.087341    -0.17778   -0.049521    0.011977  -0.0024928   -0.010386   0.0096753
-0.16199    -0.14489    -0.21132    0.018555   0.0021113   -0.018278    0.010004
-0.21363   -0.099509    -0.39582    0.021843   0.0001381   -0.024856    0.011648
-0.23994    -0.04689     -0.5688    0.015924   -0.007097   -0.028144    0.015924
-0.24651   0.0037556    -0.68752  -0.0031506   -0.013674   -0.026829    0.023817
-0.23796    0.050784    -0.73159   -0.033735   -0.021567   -0.022554    0.028092
-0.21626    0.095181    -0.70989   -0.071226   -0.038339   -0.018936    0.023488
-0.18074     0.13267    -0.65135    -0.10641   -0.063991   -0.019923    0.012306
-0.13141     0.15767    -0.57768    -0.12976   -0.087669   -0.026829  -0.0041372
-0.076159     0.17148    -0.50632    -0.13832   -0.098851   -0.037682   -0.016634
-0.023211     0.17542    -0.44285    -0.13601   -0.097207   -0.045246   -0.021896
0.020528     0.17049    -0.38036    -0.12746   -0.090958   -0.046561   -0.020252
0.052099     0.15569    -0.32018    -0.11595   -0.088327   -0.043272    -0.01795
0.069529     0.13004    -0.27151     -0.1028   -0.093589   -0.039326    -0.01499
0.069529     0.10044    -0.23961   -0.088985    -0.10346   -0.037353   -0.012359
0.055717    0.087617    -0.22349   -0.074515    -0.11365   -0.037024  -0.0097279
0.042891      0.1057    -0.22119   -0.059716    -0.12352   -0.037024  -0.0057815
0.045522     0.15405     -0.2281   -0.047877    -0.13568   -0.032091  -0.0031506
0.069858     0.21916    -0.24026   -0.040641    -0.14884   -0.024527   -0.002164
0.10834     0.27672    -0.25243   -0.039326    -0.15838   -0.016305   -0.002164
0.14846     0.30434    -0.25046   -0.045246    -0.16002  -0.0090702  -0.0011774
0.1797     0.29086    -0.22678   -0.053138    -0.15903  -0.0051238  0.00079584
0.19351     0.22278    -0.18008   -0.062347    -0.16068  -0.0054526   0.0014536
0.18693     0.10143    -0.11168   -0.073199    -0.15838   -0.011043  -0.0018351
0.16687   -0.043272     -0.0265   -0.082736    -0.14818   -0.021238  -0.0080836
0.14714    -0.16495    0.068214   -0.092274    -0.13009   -0.032091   -0.014661
0.13728    -0.22842      0.1649   -0.098522    -0.10477   -0.037682   -0.018936
0.13497    -0.22974     0.25994   -0.098851    -0.07583   -0.037682   -0.019923
0.13201    -0.18567     0.34841   -0.089643   -0.050836   -0.037024   -0.017292
0.11524    -0.11924     0.42471   -0.072542    -0.03242   -0.038997   -0.013017
0.080382   -0.046232     0.48555   -0.052481    -0.01795   -0.040641   -0.010386
0.029736    0.017239     0.49804   -0.036037  -0.0067681   -0.037682  -0.0097279
-0.02354    0.055059     0.39412   -0.025185   0.0014536   -0.029789  -0.0090702
-0.070568    0.055717     0.10735   -0.022225   0.0070443   -0.017621   -0.010057
-0.10609     0.02283    -0.35011   -0.023869    0.017568  -0.0061104   -0.010057
-0.13042   -0.026829    -0.85262   -0.025842    0.033683   0.0030979   -0.012688
-0.14292    -0.07024     -1.2101   -0.023869    0.054072   0.0040845    -0.01499
-0.14193   -0.091616     -1.2894   -0.010715    0.075778  -0.0015062   -0.012359
-0.1324   -0.085696      -1.092    0.013951    0.091234   -0.007097  -0.0054526
-0.12089   -0.059058    -0.73061    0.041904     0.10011  -0.0051238  0.00079584
-0.11266   -0.024198    -0.34583    0.064596     0.10866    0.002769   0.0034268
-0.10905   0.0067154   -0.041299    0.066569     0.11754    0.010991   0.0011247
-0.11135    0.027434     0.14155    0.042233     0.12708    0.012306  -0.0038083
-0.12187    0.028092     0.21916  -0.0067681     0.13333   0.0083598  -0.0084125
-0.14259    0.012635      0.2481   -0.063004     0.13333  -0.0011774   -0.011701
-0.1666    -0.01203     0.28198    -0.10247     0.12478   -0.011701   -0.016634
-0.18337   -0.041957     0.32966    -0.11201     0.10801   -0.021896   -0.025185
-0.1906   -0.071226     0.35531    -0.09622    0.081368   -0.025842   -0.035051
-0.19225   -0.095562     0.31585    -0.07287     0.04618   -0.024198   -0.039655
-0.19028   -0.096878     0.20338   -0.062018   0.0030979   -0.022883   -0.036695
-0.18337   -0.047877    0.059005   -0.070568   -0.038668   -0.020252   -0.028473
-0.17153    0.054072    -0.04985   -0.092274   -0.071884   -0.014332   -0.020581
-0.1518     0.18628   -0.073199    -0.11168   -0.094247  -0.0054526   -0.017621
-0.12582     0.31782  -0.0054526    -0.11661    -0.10576   0.0030979   -0.016634
-0.096549     0.42076     0.11787    -0.10247    -0.11003   0.0096753   -0.013345
-0.06728     0.48522     0.25238   -0.073857    -0.10641    0.014937  -0.0057815
-0.037353     0.50955     0.36189   -0.038011   -0.095562    0.017239   0.0050711
-0.0090702     0.48752     0.42635   -0.010057   -0.078461    0.019212    0.014937
0.013293     0.42043     0.43227   0.0040845   -0.063004    0.020528    0.020199
0.026776     0.31454     0.37768   0.0096753   -0.044588    0.020199    0.020857
0.034998     0.17016     0.27145    0.010004    -0.02354    0.015924    0.020199
0.040589   -0.018278     0.11294      0.0054  -0.0093991    0.011648    0.024803
0.05177    -0.24651    -0.11793 -0.00019077   -0.004466    0.013293     0.03434
0.067227    -0.48757    -0.41325   -0.004466  -0.0090702    0.020199    0.045193
0.083342    -0.70693    -0.70594  -0.0080836   -0.019594     0.02579    0.053086
0.093536    -0.86807    -0.90293   -0.012688   -0.030775    0.020857    0.053415
0.098469     -0.9424    -0.95851   -0.014661   -0.043272      0.0054     0.04322
0.10209    -0.92431    -0.89866   -0.011701   -0.057414   -0.011701    0.025132
0.10603    -0.83124    -0.78849  -0.0031506   -0.069911   -0.021567   0.0063866
0.10834    -0.68884    -0.67996    0.014608   -0.073857   -0.020909  -0.0051238
0.10242    -0.51454    -0.58985    0.039602   -0.066293   -0.016305  -0.0077547
0.088932    -0.32248    -0.50862    0.064925   -0.050507    -0.01203  -0.0018351
0.070187    -0.13009    -0.41654    0.086301   -0.033406  -0.0077547   0.0050711
0.051441     0.04026    -0.29157     0.10176   -0.020252  -0.0074258   0.0063866
0.037958     0.15964     -0.1176     0.11787  -0.0097279   -0.012359   0.0034268
0.034011     0.21127     0.12017     0.13925   0.0001381   -0.019594  -0.0008485
0.037958     0.20568     0.43128     0.16194    0.012635    -0.02354  -0.0057815
0.039273     0.17082     0.79205     0.17312    0.027105   -0.021567    -0.01203
0.030723     0.15898       1.136      0.1626    0.035656   -0.019594    -0.01795
0.013622     0.22739      1.3715     0.13037    0.037958   -0.015319   -0.022554
-0.0051238     0.39905      1.4228    0.090248    0.035985  -0.0093991   -0.026171
-0.020581     0.63683      1.2791    0.055059    0.033025  -0.0064392   -0.024856
-0.02946     0.86966     0.99332    0.039931    0.033354  -0.0041372   -0.020581
-0.026829      1.0315     0.64307     0.04618    0.037629 -0.00051963   -0.015319
-0.01203      1.0821     0.29875    0.064267    0.042233   0.0040845   -0.010715
0.0096753      1.0167    0.021514    0.081697    0.047166   0.0030979  -0.0047949
0.031709     0.85125    -0.14785    0.090248    0.047495  -0.0054526   0.0021113
0.046837     0.61413    -0.21034     0.09255    0.047824   -0.013345    0.010333
0.051113     0.32999    -0.20212    0.084986    0.047166   -0.011701    0.018884
0.047495    0.011648    -0.17153    0.064267    0.046837  -0.0024928    0.027434
0.04026     -0.3261    -0.15213    0.033683    0.047495   0.0083598    0.028092
0.028092    -0.65957    -0.14884   0.0001381     0.04881    0.012635    0.018884
0.0093464    -0.94667    -0.14522   -0.030447    0.047495   0.0086887   0.0096753
-0.014661     -1.1443    -0.12516   -0.059716    0.042891 -0.00019077   0.0047422
-0.038997      -1.239   -0.077146   -0.082408    0.037629   -0.010715   0.0083598
-0.061689      -1.243  -0.0064392   -0.095562    0.032038   -0.018278    0.014608
-0.07879      -1.168    0.067556   -0.097536    0.030394    -0.02354     0.01987
-0.091616     -1.0266     0.12412   -0.087669    0.030394   -0.026171    0.021514
-0.10313    -0.83025     0.13892    -0.06728    0.028092   -0.024198    0.017568
-0.11595    -0.59939     0.10077   -0.039326    0.026119   -0.020581    0.010004
-0.12384    -0.36227    0.030723  -0.0074258    0.025132   -0.017292   0.0017824
-0.12056    -0.14884   -0.039655    0.020857    0.026447   -0.015648  -0.0024928
-0.1074    0.013951   -0.089314    0.040589    0.032367   -0.016305   0.0021113
-0.088985     0.11656     -0.1074    0.046837    0.040918   -0.014661    0.010991
-0.068595      0.1672   -0.093589    0.044206    0.049468   -0.007097    0.018555
-0.045903     0.17904   -0.057085      0.0373    0.054401   0.0037556     0.01987
-0.023211     0.16128  -0.0064392    0.033683    0.056374    0.011977    0.014937
-0.00019077     0.12215    0.058019    0.034998    0.055717    0.010991   0.0090175
0.01987    0.069529     0.12379    0.039273    0.050784  0.00046697   0.0050711
0.035985    0.012306     0.17115      0.0373    0.038944   -0.015648   0.0034268
0.053086   -0.034064     0.18299    0.026776     0.01987   -0.031433   0.0047422
0.074133    -0.04985     0.16095    0.012964  -0.0051238   -0.042615   0.0090175
0.10077   -0.017621     0.12445  -0.0018351   -0.034722   -0.045246    0.013293
0.13366    0.071502    0.097483   -0.015976   -0.063662   -0.042944    0.018555
0.16622     0.20535    0.091234   -0.033735   -0.083065   -0.034064    0.026447
0.19055     0.35597    0.098798   -0.051165   -0.089643   -0.023211    0.034998
0.19779     0.48949    0.099127   -0.064978   -0.082736   -0.013017    0.039931
0.18102     0.58585    0.073476   -0.072213   -0.065964  -0.0051238    0.039602
0.13563     0.63715     0.01987   -0.070568   -0.048205  -0.0061104    0.031052
0.072818      0.6411   -0.029789   -0.057085   -0.034722   -0.014661     0.01691
0.015924     0.59901  -0.0015062   -0.033078   -0.020581   -0.023211   0.0034268
-0.02354      0.5181     0.17641  -0.0018351   -0.002164   -0.020909   -0.007097
-0.042615     0.40267     0.48489    0.027763     0.01691  -0.0080836   -0.013674
-0.047219     0.26257      0.8131     0.04322    0.030394   0.0093464   -0.013017
-0.045574     0.10406      1.0144    0.033354    0.032038    0.024145  -0.0054526
-0.042615   -0.058729      0.9874   0.0011247    0.018555    0.030394   0.0024402
-0.044259    -0.20639     0.73088   -0.039655   -0.004466    0.027105   0.0057288
-0.055112    -0.29814     0.34808   -0.070568   -0.024527    0.017568    0.002769
-0.07024    -0.29058   -0.024198   -0.089643   -0.036037   0.0083598  -0.0051238
-0.081092    -0.17778    -0.30505     -0.1005   -0.039984   0.0017824   -0.012688
-0.087341      0.0054    -0.50632     -0.1097   -0.042944  -0.0008485   -0.014003
-0.0903     0.20996    -0.69015    -0.12154   -0.049521   -0.004466   -0.013017
-0.090958     0.38853    -0.92464    -0.13864   -0.060373  -0.0090702   -0.010386
-0.09622     0.50331     -1.2305    -0.16134   -0.073528    -0.01499   -0.013017
-0.10609     0.53586     -1.5469    -0.18337    -0.08471   -0.022554   -0.020909
-0.10839     0.48916     -1.7882    -0.19225   -0.091287   -0.027487   -0.030118
-0.082736     0.37834     -1.8978    -0.17482   -0.087998   -0.029131   -0.034064
-0.022225     0.22969     -1.8652    -0.13174   -0.079119   -0.027816    -0.02946
0.052757    0.066569     -1.6833   -0.071884   -0.068266   -0.021238   -0.021896
0.11327   -0.093589     -1.3094  -0.0090702   -0.059058   -0.011372   -0.016305
0.14254    -0.23632    -0.71285    0.045522    -0.05281   -0.002164   -0.015648
0.14254    -0.35701    0.060321    0.083342   -0.048205  0.00079584   -0.017292
0.11656    -0.44877     0.85223     0.10209   -0.048205  -0.0064392   -0.016963
0.074133    -0.50467      1.4843     0.10307   -0.052152   -0.020252   -0.018278
0.021514    -0.52309      1.8234    0.095181   -0.060045   -0.036695   -0.027816
-0.032749     -0.5027      1.8211    0.087617   -0.071226   -0.047219   -0.042286
-0.080106    -0.43726      1.5304    0.089261   -0.077146   -0.049192   -0.052481
-0.11069    -0.33136      1.0963     0.10373    -0.07024   -0.039984   -0.055769
-0.12615    -0.20376     0.67432     0.12248   -0.051823   -0.027487   -0.051494
-0.12713    -0.08471     0.36354      0.1376   -0.031762   -0.018278   -0.042944
-0.11201 -0.00019077     0.18299     0.14122   -0.014332   -0.014332   -0.034393
-0.081421    0.038616    0.090905     0.12905  0.00079584   -0.013345   -0.027158
-0.041299    0.035656      0.0373     0.10636    0.017568   -0.011043   -0.020252
0.00079584    0.011648  -0.0067681    0.081039    0.039273  -0.0047949   -0.011372
0.045522  -0.0080836   -0.048205    0.068214    0.069529   0.0080309  -0.0018351
0.10439  -0.0028217   -0.087012    0.068543     0.10636    0.024474   0.0083598
0.19088    0.035985    -0.11891    0.076435     0.14024    0.039273    0.015924
0.305     0.10176    -0.13437    0.082026     0.16161    0.048482     0.01987
0.4303     0.18134    -0.13141    0.083013     0.16391    0.049139    0.020857
0.53159     0.25797    -0.10641    0.080053     0.14616    0.046837    0.022501
0.57303     0.31651   -0.049521    0.075449     0.11458    0.043549     0.02579
0.53981     0.34709    0.057361    0.067227    0.077751    0.035327    0.029078
0.4474     0.34808     0.20568    0.051441    0.040589    0.020528    0.027434
0.32637     0.32473     0.35597     0.02579   0.0047422   0.0014536    0.016581
0.20404     0.28165     0.44773  -0.0077547   -0.031104   -0.015648  0.00079584
0.10702     0.22147     0.43918    -0.04985   -0.064978   -0.025842   -0.010715
0.042233     0.14944     0.34545   -0.090629   -0.090958   -0.028473    -0.01499
0.0034268    0.079724     0.23626    -0.11595    -0.10707   -0.024198   -0.014661
-0.025185    0.029736     0.18595    -0.11825    -0.11365    -0.01499  -0.0093991
-0.051165    0.010004      0.1991    -0.09326     -0.1074  -0.0038083  -0.0031506
-0.070568    0.021843     0.21127   -0.042944   -0.087012   0.0073732   0.0034268
-0.079777    0.061307     0.14188    0.023817   -0.055769    0.017897    0.010662
-0.080763     0.11097   -0.040313    0.090577   -0.018607    0.029736    0.018226
-0.08175     0.14648    -0.29979     0.13629    0.016253    0.042562    0.021843
-0.088985     0.14714    -0.54874      0.1455    0.035327    0.050126     0.01691
-0.10115      0.1057    -0.69805     0.11952     0.03434    0.049468   0.0067154
-0.10905    0.030065     -0.6964    0.074462    0.017239     0.04322  -0.0034794
-0.11365   -0.060373    -0.56749    0.021186  -0.0087413    0.034998  -0.0067681
-0.11661    -0.14325    -0.39187   -0.032091   -0.042944     0.02579  -0.0047949
-0.12023    -0.19159    -0.25145   -0.079777   -0.079777    0.016253  0.00046697
-0.12549    -0.19028    -0.18765    -0.11365    -0.10872   0.0067154   0.0050711
-0.12911    -0.13601    -0.19093    -0.12911    -0.12483  -0.0018351      0.0054
-0.12516   -0.043272    -0.22415     -0.1245    -0.12648   -0.010386   0.0044134
-0.11168     0.06361    -0.24849    -0.10674    -0.11727   -0.019265  0.00046697
-0.095233     0.15964    -0.24717   -0.086683     -0.1005   -0.026829  -0.0061104
-0.075501      0.2264    -0.22645   -0.069582    -0.07879   -0.032091   -0.014003
-0.051494     0.26225     -0.2031   -0.056756   -0.058729   -0.038668   -0.020909
-0.02354     0.26817    -0.18863    -0.05281    -0.04985   -0.046561   -0.024198
-0.0008485      0.2481    -0.18469   -0.055769     -0.0584   -0.055112   -0.023869
0.012306      0.2116    -0.18403   -0.063333   -0.077803     -0.0584   -0.020581
0.016581     0.20239    -0.17054   -0.069253   -0.094905    -0.05281   -0.013674
0.021186     0.27639    -0.13338   -0.069911    -0.10181   -0.037682  -0.0028217
0.03434     0.46877   -0.078132   -0.065964   -0.094576   -0.018278    0.012306
0.057361     0.76048   -0.021567   -0.057414   -0.073528 -0.00019077    0.031052
0.084986       1.088    0.024474   -0.040313   -0.038339    0.013293    0.047824
0.10801      1.3771    0.059992    -0.01203   0.0040845    0.022172    0.061965
0.11721      1.5698    0.088275    0.025132    0.042891    0.024145    0.070187
0.10801      1.6336     0.10472    0.061965    0.071173    0.022501    0.071173
0.079066      1.5409     0.10209    0.084328    0.084657    0.019541    0.064925
0.031709      1.2798    0.076435    0.082026    0.088275    0.015595    0.052428
-0.024527     0.85684    0.029407    0.053086    0.091563    0.012964      0.0373
-0.075501     0.29645   -0.035051   0.0093464     0.10899     0.01132    0.020857
-0.11431    -0.34583     -0.1074   -0.028802     0.14616   0.0093464   0.0077021
-0.13963     -0.9891    -0.17252   -0.050836     0.20009   0.0083598 -0.00019077
-0.15476      -1.559    -0.21955   -0.051165      0.2583   0.0047422   0.0017824
-0.16298      -2.006    -0.24388   -0.036037     0.29875  -0.0038083   0.0060577
-0.16693     -2.3131    -0.25079   -0.019923     0.30302   -0.014661   0.0070443
-0.17285     -2.4785    -0.24947   -0.010715     0.26948   -0.024856  -0.0008485
-0.18633     -2.5111    -0.24914    -0.01203     0.21094    -0.03242    -0.01499
-0.20409     -2.4223    -0.25572   -0.021896     0.14912   -0.038668   -0.028144
-0.22251      -2.222    -0.26131   -0.033735    0.099456    -0.04097   -0.035708
-0.23237     -1.9155    -0.25605   -0.039655    0.067227    -0.04097   -0.035708
-0.23007     -1.5275    -0.21987   -0.034722    0.043877   -0.041299   -0.027487
-0.21626     -1.1006    -0.12648    -0.01203    0.021843   -0.040313   -0.014003
-0.1962    -0.69279    0.044535    0.029407  -0.0084125   -0.034064  -0.0015062
-0.17613    -0.35537     0.27376    0.082355    -0.04985   -0.025842   0.0070443
-0.15575    -0.11694     0.49739     0.13234    -0.09918   -0.017292    0.011977
-0.13667    0.026447     0.64307      0.1626    -0.15081  -0.0093991    0.015924
-0.12056    0.098469     0.67596     0.16391    -0.19948  -0.0041372    0.021186
-0.10411     0.13563     0.60295     0.13432    -0.23796  0.00046697    0.028092
-0.087998     0.16359     0.46351    0.084657    -0.26065   0.0060577    0.038287
-0.072542     0.19022     0.30533    0.033683    -0.25934    0.010333    0.050784
-0.059387     0.21555     0.16293  -0.0051238    -0.24257    0.013293    0.057361
-0.04985     0.23396    0.052757   -0.026171    -0.21724    0.013622    0.052428
-0.045903      0.2435   -0.015648   -0.030447    -0.19028    0.012306    0.034011
-0.049192     0.24383   -0.049192   -0.021567    -0.16298    0.010004    0.010333
-0.060045     0.23495   -0.063662  -0.0084125    -0.13536   0.0090175  -0.0074258
-0.076488     0.21916   -0.069911   0.0021113    -0.11003   0.0086887   -0.014661
-0.094247     0.19877   -0.071555   0.0080309   -0.085696   0.0080309   -0.013674
-0.11431     0.17641   -0.067937    0.010662   -0.061031   0.0024402  -0.0093991
-0.13733     0.15207   -0.065635    0.010662   -0.039984  -0.0080836  -0.0041372
-0.16561      0.1205   -0.081421   0.0083598   -0.023211   -0.015976  0.00079584
-0.20047    0.080053    -0.12516   0.0040845   -0.010057   -0.016305      0.0054
-0.235    0.035327    -0.19258   0.0017824  -0.0024928   -0.012359   0.0077021
-0.26131   -0.010715    -0.27118   0.0030979  -0.0064392  -0.0090702   0.0077021
-0.27644   -0.055769      -0.358   0.0014536   -0.026829   -0.011701   0.0047422
-0.2817   -0.095562    -0.44975  -0.0077547     -0.0584   -0.024527 -0.00019077
-0.27282    -0.12812    -0.54019   -0.025185   -0.092274   -0.039326  -0.0041372
-0.2373    -0.14983    -0.61484   -0.044259    -0.12187   -0.048205   -0.002164
-0.17285    -0.15311    -0.65168   -0.063004    -0.14719   -0.049192   0.0083598
-0.089643     -0.1176    -0.60892   -0.076817    -0.16199   -0.042615    0.020199
-0.0064392   -0.028144    -0.43956   -0.082079    -0.16528   -0.036366    0.027434
0.06361     0.12478    -0.14588   -0.079448    -0.15509   -0.028802    0.031381
0.11886     0.32966     0.18036   -0.072213    -0.13338   -0.018936     0.03434
0.16194     0.55099     0.41287   -0.065307    -0.10543   -0.004466    0.039602
0.19877     0.73746     0.47305   -0.053467   -0.074844    0.011977     0.04618
0.22771     0.84631     0.38195   -0.034722   -0.047219    0.026447    0.052099
0.25074     0.86407     0.25205  -0.0084125    -0.02354    0.033025    0.055388
0.27145      0.8131     0.22147    0.024803   -0.007097    0.030723    0.058348
0.29349     0.73614     0.37242    0.064267   0.0070443    0.023817    0.062952
0.31026     0.67465     0.67333      0.1136    0.020528     0.01691    0.065912
0.3119     0.64274      1.0015      0.1695    0.036314    0.012635    0.064267
0.28954     0.62729       1.216      0.2162    0.050455    0.012635    0.054401
0.24218     0.60854      1.2324     0.24153    0.057361    0.012635     0.03434
0.17641     0.57368      1.0601     0.23429    0.054401   0.0063866    0.010004
0.10472     0.51843     0.77659     0.19614    0.045522  -0.0074258   -0.014003
0.037629     0.44773     0.48916      0.1376    0.037629   -0.024527   -0.028144
-0.014332     0.36354     0.27836    0.073804    0.031709   -0.042286   -0.028144
-0.04689     0.27737     0.16819    0.020199    0.031381   -0.055112   -0.017621
-0.057743     0.20239     0.13859   -0.014661    0.040918   -0.061031   -0.004466
-0.054125     0.14517     0.14352    -0.03242     0.06065   -0.059716   0.0090175
-0.040641     0.10538     0.13859   -0.041957    0.096496   -0.054783    0.017568
-0.024198     0.07808     0.10505   -0.049192     0.14912    -0.04985    0.019212
-0.0087413     0.05177    0.050126   -0.050836     0.20765   -0.042615    0.012635
0.0040845    0.020857  -0.0093991   -0.046561     0.25172   -0.031104   0.0037556
0.015595   -0.010386   -0.062018   -0.038997     0.26915   -0.020909   0.0001381
0.018555   -0.038339    -0.10609   -0.032091     0.25929    -0.01795   0.0001381
0.0090175   -0.064978    -0.14259   -0.028473     0.23067   -0.024198  -0.0018351
-0.014332   -0.096549    -0.17186   -0.032091     0.19351    -0.03242  -0.0097279
-0.045246    -0.12944    -0.19192   -0.042286     0.15471   -0.038997   -0.025185
-0.085039    -0.16166    -0.19916   -0.055769     0.11754   -0.041957   -0.041299
-0.13305     -0.1906    -0.19422   -0.063662    0.087288   -0.042944   -0.054454
-0.18567    -0.22349    -0.17613   -0.066293     0.06065   -0.045903   -0.061031
-0.22908    -0.26756    -0.14818   -0.063662    0.034669   -0.053467   -0.057743
-0.24914    -0.32413    -0.13141   -0.056098   0.0086887   -0.060045   -0.049192
-0.2373    -0.37773    -0.15607   -0.038339   -0.013674   -0.059716   -0.035051
-0.20014     -0.4024    -0.24585    -0.01203   -0.026171   -0.050507   -0.017621
-0.15509    -0.37839    -0.39911    0.016581   -0.027816   -0.033078  -0.0051238
-0.12187    -0.30538    -0.57637    0.040589   -0.022225    -0.01499   0.0014536
-0.11299    -0.20573    -0.71811    0.048153   -0.016634 -0.00019077   0.0021113
-0.12384    -0.11201    -0.78355    0.035656   -0.017292    0.011977   -0.002164
-0.14358   -0.044588    -0.76514   0.0070443   -0.027816    0.019212  -0.0061104
-0.16298  -0.0041372    -0.67963    -0.02354   -0.045246    0.020199  -0.0090702
-0.17613     0.01987    -0.55499   -0.042944   -0.061689    0.016581   -0.010715
-0.17745    0.038944    -0.41884   -0.041957   -0.071884   0.0060577   -0.012359
-0.15575    0.056703    -0.28861   -0.025514    -0.07583  -0.0087413    -0.01499
-0.099838    0.075778    -0.17482  -0.0067681    -0.07583   -0.020581   -0.020581
0.0054     0.10439   -0.081092   0.0021113   -0.078132   -0.023869   -0.031104
0.17312     0.15109  -0.0097279  0.00046697    -0.08471   -0.021238   -0.045246
0.40037     0.21785    0.034669  -0.0077547    -0.09622   -0.019265   -0.058071
0.66741     0.29546     0.05177   -0.016305    -0.11365   -0.018607   -0.061031
0.92787     0.36913    0.049468   -0.026171     -0.1324    -0.01795   -0.051823
1.1308     0.42536    0.029078   -0.032749    -0.14423   -0.016963   -0.036695
1.2413     0.43753  -0.0051238    -0.03242    -0.14621   -0.012359   -0.022225
1.237     0.39642   -0.047219   -0.029131    -0.14259   -0.007097   -0.013017
1.1239     0.31289   -0.089972   -0.028144    -0.13634  -0.0031506   -0.011372
0.92426     0.21061    -0.12516   -0.033078    -0.12878   -0.002164   -0.012359
0.67925      0.1159    -0.14456   -0.042286    -0.11825  -0.0038083   -0.013017
0.43293    0.046837     -0.1518   -0.052481    -0.10247  -0.0057815   -0.015976
0.22212   0.0040845    -0.15673   -0.063662   -0.085039  -0.0047949   -0.022225
0.065583   -0.019265    -0.16561   -0.082408   -0.068595  -0.0031506   -0.028144
-0.038011    -0.03538    -0.17712    -0.10674    -0.05544  -0.0011774   -0.030118
-0.09918   -0.052481    -0.18501    -0.12779   -0.043601   0.0011247   -0.030775
-0.1347    -0.07583    -0.18271    -0.13667   -0.036037  0.00046697   -0.028802
-0.1541    -0.10214    -0.17153    -0.12911   -0.034393  -0.0008485     -0.0265
-0.16726     -0.1222    -0.15673    -0.10872   -0.034064  -0.0018351   -0.025842
-0.17942     -0.1324    -0.13536   -0.083723   -0.032091  -0.0034794   -0.030447
-0.19258    -0.12911   -0.095233   -0.064649   -0.025514  -0.0067681    -0.03538
-0.20212    -0.11661   -0.034393   -0.056098   -0.010715   -0.010057   -0.034393
-0.20277    -0.10017    0.030065   -0.060373   0.0073732  -0.0087413   -0.023869
-0.19521   -0.086025    0.070845   -0.066293    0.023488  -0.0031506  -0.0074258
-0.18304   -0.074844    0.074462   -0.063333    0.033025   0.0063866   0.0083598
-0.1712    -0.06728    0.064267   -0.044917    0.037958    0.015924    0.020199
-0.16331   -0.062676    0.091892  -0.0077547    0.042891    0.017239    0.024474
-0.16002    -0.06136     0.19253    0.046837     0.04618   0.0093464    0.023817
-0.16364   -0.062676     0.34611     0.10636     0.04881  -0.0038083    0.020199
-0.17449   -0.066293      0.4964     0.15142    0.052099   -0.012359    0.016253
-0.18995   -0.071555     0.58881     0.16753    0.056374   -0.011372    0.013951
-0.21034   -0.081092     0.60394     0.15701    0.055717 -0.00051963    0.011977
-0.2327   -0.093918     0.55658     0.12905    0.050455    0.015595      0.0054
-0.25671    -0.10872     0.47601    0.093536    0.040918    0.033025  -0.0054526
-0.27874    -0.13437     0.38985    0.061636     0.02875    0.047166   -0.011701
-0.29453    -0.18403     0.31848    0.038616    0.019541    0.056374  -0.0097279
-0.29749    -0.26361     0.26652    0.026776    0.017897    0.061965   0.0021113
-0.28828    -0.36556     0.23298    0.025132    0.026119    0.064267    0.018555
-0.27512    -0.46948     0.21094    0.032696    0.040918    0.059992    0.032696
-0.2692    -0.53986     0.19384    0.047824     0.05473    0.049797    0.035985
-0.28236    -0.55335      0.1751    0.067227    0.062623    0.035656    0.024474
-0.32084    -0.50763     0.14879    0.086301    0.066898    0.027105   0.0070443
-0.3774    -0.42443     0.11689    0.097483    0.067227    0.023488  -0.0077547
-0.43528    -0.32873    0.086959    0.095839    0.063938    0.022172   -0.016963
-0.48099    -0.23928    0.061965    0.080711    0.054072    0.018884   -0.022225
-0.50303    -0.16923    0.041904    0.056046    0.037958     0.01691    -0.02354
-0.49908    -0.12023    0.014937    0.030394    0.014937     0.01691   -0.021238
-0.47212   -0.083394   -0.034064    0.013951  -0.0015062    0.019541   -0.014003
-0.42509   -0.051494    -0.11727    0.012964   -0.002164    0.027105   -0.004466
-0.35997   -0.022883    -0.22283    0.029078    0.014608    0.038287   0.0090175
-0.28236   -0.002164    -0.32676    0.051441    0.038287    0.045851    0.020857
-0.19521   0.0080309    -0.40601     0.06624    0.054401    0.045522    0.027763
-0.10806   0.0063866    -0.45074    0.062294    0.053415    0.039931    0.032038
-0.0265  -0.0031506    -0.46159    0.033683    0.035327    0.031709    0.035985
0.045851   -0.018936    -0.45271   -0.013674   0.0037556    0.024145    0.037629
0.10866   -0.036037    -0.43397   -0.069911   -0.030118    0.014608    0.034011
0.16194   -0.050507    -0.41259    -0.11924     -0.0584   0.0024402    0.026776
0.21916   -0.056756    -0.39911    -0.14719   -0.076488   -0.012688    0.020528
0.29151   -0.054454     -0.3945    -0.15015   -0.086025   -0.025842    0.022172
0.37899   -0.051165    -0.38266    -0.12976   -0.086683   -0.032091    0.030065
0.4645   -0.056756    -0.34715   -0.098193   -0.085367   -0.031104    0.042891
0.52369   -0.068266     -0.2748   -0.066293   -0.085696   -0.025185    0.058348
0.53257   -0.067937    -0.15344   -0.042286   -0.088327   -0.017292    0.068871
0.48127   -0.033735    0.018884   -0.028473     -0.0903    -0.01203    0.065254
0.37603    0.033354     0.22804   -0.028144   -0.087012    -0.01203    0.047495
0.23429     0.11919     0.44016   -0.040641    -0.08175   -0.014332    0.022501
0.079395     0.19647     0.61249   -0.059387   -0.079448   -0.019594 -0.00051963
-0.069253      0.2435     0.69997   -0.076817   -0.077803   -0.024856   -0.015648
-0.18995     0.25435     0.65393   -0.084052    -0.07287    -0.02946   -0.016963
-0.26493     0.23824     0.45825   -0.079777   -0.058071   -0.029789  -0.0041372
-0.28762     0.21226     0.15471   -0.062347   -0.030447   -0.024856    0.015924
-0.26526     0.18661    -0.16035   -0.035708   0.0040845   -0.010715     0.03434
-0.21494     0.16391    -0.37214  -0.0031506     0.03434   0.0083598    0.043549
-0.14719     0.13826     -0.4116    0.029078    0.053743     0.02579    0.043877
-0.062347     0.10209     -0.3011    0.049797     0.05769     0.03434      0.0373
0.038616    0.056374     -0.1268    0.056374    0.051113    0.034011     0.02875
0.14616   0.0047422    0.021186    0.051441    0.033683    0.027434    0.023488
0.23791   -0.049192    0.082026    0.040589    0.010333    0.015924    0.018884
0.29743    -0.10115    0.050126    0.027434   -0.014661  -0.0015062    0.010991
0.32144    -0.15246    -0.04097    0.014937   -0.031433    -0.02354   0.0014536
0.3096    -0.19554    -0.13042   0.0047422   -0.035708   -0.047548  -0.0087413
0.26981    -0.22382    -0.16528   -0.004466   -0.028473   -0.069253   -0.019594
0.21522    -0.22678    -0.13667   -0.010715   -0.019265   -0.080763     -0.0265
0.15997    -0.19718   -0.068595   -0.011701   -0.011701   -0.079777   -0.028144
0.12215    -0.14555   0.0073732  -0.0034794   -0.004466   -0.068924   -0.020581
0.11064   -0.088656    0.059992    0.014279   0.0011247   -0.051823  -0.0077547
0.11952   -0.043601    0.047824    0.032696    0.002769   -0.032749   0.0083598
0.12741   -0.017621   -0.081421    0.040918   -0.002164   -0.018607    0.023488
0.11886  -0.0074258    -0.35372    0.032696   -0.018607   -0.010386    0.029407
0.087617  -0.0054526    -0.71153     0.01132   -0.046232   -0.011372    0.027105
0.034669  -0.0034794     -1.0318   -0.018278   -0.077146   -0.024856    0.018884
-0.02946  -0.0008485     -1.2006   -0.049521    -0.10477   -0.049521   0.0080309
-0.08471   0.0080309     -1.1723   -0.074844     -0.1245   -0.076488   -0.007097
-0.12154    0.027105    -0.97726   -0.092274     -0.1324    -0.09326   -0.018607
-0.13667    0.055717    -0.68424   -0.097536    -0.12976   -0.095891   -0.023869
-0.13996    0.089919    -0.36227   -0.091616    -0.11628   -0.082079   -0.021567
-0.13733     0.12445   -0.052152   -0.072542   -0.095891   -0.062347    -0.01499
-0.13009     0.15339     0.23298   -0.044917   -0.069911   -0.044917  -0.0087413
-0.12154      0.1751     0.51613   -0.015976   -0.039984   -0.033735  -0.0028217
-0.11398     0.19351     0.80948   0.0093464   -0.011372   -0.025185  -0.0015062
-0.10477     0.21324      1.0713    0.020857    0.014608   -0.019594  -0.0034794
-0.091945     0.23298      1.2169     0.01691    0.039602   -0.014003  -0.0090702
-0.076817     0.24449       1.186  -0.0024928    0.059334   -0.014661    -0.01499
-0.063991     0.24843      1.0061   -0.027487      0.0692   -0.022225   -0.017621
-0.055769     0.24942     0.76311    -0.04393    0.073476   -0.030118    -0.01795
-0.054125      0.2481     0.54606   -0.048863    0.076764   -0.035051   -0.018278
-0.059387     0.24843     0.40728   -0.049521    0.083013   -0.039326   -0.015319
-0.069253     0.24712     0.34972   -0.051823    0.091234   -0.039984   -0.011701
-0.080106     0.23659     0.35038   -0.061689    0.099456   -0.037353  -0.0074258
-0.0903      0.2139     0.37439   -0.071226     0.10505    -0.03242  -0.0034794
-0.10378     0.17016     0.38754   -0.068595     0.10768   -0.028473  -0.0024928
-0.1199    0.099785     0.35762   -0.047219     0.10307   -0.025514  -0.0067681
-0.137    0.010662     0.26751  -0.0074258    0.090905   -0.023211  -0.0084125
-0.14719   -0.088327     0.13399    0.039273    0.076106   -0.018936  -0.0008485
-0.13963    -0.17975   -0.016305    0.084328    0.058676  -0.0087413    0.012635
-0.1199    -0.24585    -0.16035      0.1182    0.041575   0.0050711    0.029736
-0.098851    -0.28598    -0.28532      0.1307    0.022501    0.018226    0.041247
-0.087341     -0.3159    -0.38036     0.11656 -0.00051963    0.024803    0.043877
-0.089314    -0.35405    -0.44318    0.081697    -0.02354    0.020528     0.04026
-0.10543     -0.4024    -0.48856    0.041575   -0.044259   0.0077021    0.033025
-0.12779    -0.44745    -0.54019   0.0090175   -0.056098  -0.0051238    0.021843
-0.14325    -0.46751     -0.5984  -0.0064392   -0.054783   -0.012359   0.0083598
-0.14423    -0.45896    -0.62964   -0.007097   -0.041628   -0.013674  -0.0028217
-0.12976     -0.4264    -0.57801    0.002769   -0.021567   -0.011372   -0.011701
-0.11201    -0.37707    -0.39549    0.018884  -0.0024928  -0.0074258   -0.018936
-0.095233    -0.30801   -0.080106    0.037629    0.011977  -0.0061104   -0.021896
-0.07879    -0.20475     0.30467    0.058019    0.024474  -0.0051238   -0.020581
-0.055112    -0.06136     0.63485     0.08663    0.035985   0.0001381   -0.014003
-0.022883     0.11064     0.79402      0.1307     0.04881   0.0077021  -0.0024928
0.018226     0.27737     0.72069     0.18661    0.063281     0.01691    0.012306
0.05769     0.39511     0.44214     0.23594    0.072489    0.028092    0.030065
0.082684      0.4395    0.080382     0.26257    0.069858    0.039273    0.047166
0.08959      0.4178    -0.21363     0.25534    0.050455    0.046508    0.056046
0.077751     0.35466    -0.35471      0.2139    0.014279    0.042233    0.055059
0.057032     0.28132    -0.35175     0.14879   -0.030775    0.030723    0.045522
0.042562     0.23002    -0.26559    0.077422   -0.076488    0.017897    0.031709
0.038616     0.21489    -0.16035    0.015266     -0.1176    0.010004    0.012306
0.041575     0.22903   -0.077475   -0.031104    -0.14983   0.0014536   -0.010386
0.04618      0.2629     -0.0265   -0.056427    -0.16857  -0.0077547   -0.030447
0.047824     0.32933   0.0040845   -0.061689    -0.17022   -0.017292   -0.041957
0.051113      0.4543    0.031381    -0.04985    -0.15344    -0.02354   -0.043601
0.062623     0.64242    0.062294   -0.032091    -0.12352   -0.024527    -0.03538
0.080711     0.86605    0.090248   -0.011043     -0.0903   -0.016963   -0.021896
0.1057      1.0745     0.10801   0.0037556   -0.059716  -0.0041372  -0.0097279
0.13103      1.2239     0.10932   0.0044134   -0.038339   0.0077021  -0.0038083
0.14681      1.2867     0.10077   -0.010715   -0.031104    0.010991  -0.0031506
0.15043      1.2554    0.083013   -0.036695   -0.033406   0.0017824  -0.0074258
0.14287      1.1301    0.056046   -0.066622   -0.038997   -0.013017   -0.011701
0.13004     0.92195    0.021514   -0.093918    -0.04393     -0.0265   -0.017621
0.11327     0.64176   -0.011372    -0.10937   -0.051165   -0.032749   -0.020581
0.089261     0.29151   -0.035708    -0.10543   -0.063662   -0.028802   -0.019923
0.058676    -0.10872   -0.051165   -0.086025   -0.075173   -0.018278   -0.019594
0.027105    -0.51092   -0.060702   -0.066951   -0.078132  -0.0087413   -0.023211
0.0014536    -0.85262   -0.065635   -0.058071   -0.071884  -0.0067681   -0.027816
-0.012688      -1.092   -0.064978   -0.059058     -0.0584   -0.014332   -0.032749
-0.014003     -1.2328   -0.057414   -0.057743   -0.042286   -0.028473    -0.03538
-0.0084125     -1.2894   -0.038011    -0.04689   -0.024856    -0.04097   -0.034722
-0.0064392     -1.2759    0.002769   -0.018936  -0.0064392   -0.046232   -0.029789
-0.017292     -1.2022    0.063938    0.024145    0.011977   -0.045903   -0.023211
-0.036695     -1.0832     0.13432    0.074462    0.028421    -0.04393    -0.01499
-0.059058    -0.94503      0.1922      0.1182     0.04026   -0.042286  -0.0077547
-0.077475    -0.81447     0.21719     0.14648    0.047166   -0.041299  -0.0028217
-0.085039    -0.71054     0.19088     0.15964    0.053415   -0.034722   0.0030979
-0.076488    -0.63359     0.10307     0.16063    0.065912   -0.019594    0.012964
-0.051494     -0.5836   -0.033078     0.15109    0.083013   0.0017824    0.022172
-0.020581    -0.55499    -0.16035     0.13629    0.096496    0.023159    0.025132
0.0044134    -0.54151    -0.18863     0.12182     0.10077     0.04026     0.02579
0.0067154     -0.5392   -0.080434     0.10702    0.091563    0.049139    0.023817
-0.024198    -0.54512     0.10603    0.085315    0.070845     0.04618    0.018884
-0.086354    -0.54282     0.25863    0.049139    0.042562    0.033683   0.0086887
-0.16199    -0.51355     0.30138  -0.0028217    0.014279    0.017568  -0.0038083
-0.22908    -0.43989     0.23166   -0.059387    -0.01203  0.00079584   -0.015319
-0.27611    -0.32906     0.10406    -0.10872   -0.032749   -0.017621   -0.024198
-0.30242    -0.20968  -0.0097279    -0.14687   -0.044588   -0.034722   -0.031433
-0.31393    -0.11497    -0.06728    -0.17318   -0.050836   -0.045246   -0.037353
-0.31261     -0.0584   -0.070897    -0.18929   -0.054454   -0.048205   -0.039984
-0.29782   -0.030447   -0.055769    -0.19784   -0.054125   -0.043272   -0.033406
-0.2692  -0.0084125   -0.058071     -0.1962   -0.046232   -0.033406   -0.015648
-0.22974    0.035656   -0.094905    -0.17778   -0.033078   -0.013345   0.0090175
-0.17844     0.12215    -0.14095    -0.13536   -0.013674    0.012635    0.036642
-0.11233     0.24909    -0.14588   -0.072542    0.013951    0.041904    0.061307
-0.03538     0.38853    -0.09622  -0.0097279    0.047495    0.066569    0.078409
0.038944     0.48982   -0.057743    0.021514    0.072818    0.081039    0.083013
0.10044     0.51449    -0.12845   0.0024402    0.082026    0.083342    0.077751
0.15635     0.45365    -0.36918   -0.056427    0.065912    0.071502    0.067556
0.21686     0.33427    -0.74343    -0.12352    0.032367     0.04881     0.05473
0.29382     0.19285     -1.1193    -0.16956   -0.007097    0.015924    0.039931
0.37866     0.06065     -1.3453    -0.17449   -0.043601    -0.01795    0.023817
0.45595   -0.025514     -1.3416    -0.13141    -0.07583   -0.041628      0.0054
0.50396   -0.034722       -1.12   -0.045574    -0.10181   -0.050507   -0.015976
0.51087    0.062623    -0.74804    0.064267    -0.11727   -0.046232   -0.032749
0.47568     0.27902    -0.28762     0.17575    -0.12154   -0.034722    -0.04097
0.40497     0.59703      0.2241     0.26356    -0.11825   -0.020909   -0.037682
0.31421     0.96372     0.72299     0.31026    -0.11266  -0.0077547   -0.030118
0.21752      1.2949      1.1176     0.30894    -0.11168   0.0017824   -0.022554
0.12346       1.506      1.3439     0.26784    -0.11957   0.0050711   -0.020581
0.036642      1.5468      1.3791      0.1991    -0.13437   0.0017824   -0.023211
-0.033078      1.4083      1.2337     0.12412    -0.14818  -0.0061104   -0.028473
-0.077146      1.1222     0.94596    0.059334    -0.15279   -0.014003   -0.032749
-0.088985     0.74173     0.59374    0.013293    -0.14719   -0.018278   -0.028473
-0.073528     0.31651     0.26817    -0.01499     -0.1324   -0.016963   -0.016963
-0.041957    -0.11266    0.031052   -0.024856     -0.1097   -0.011043  -0.0024928
-0.00051963     -0.5129    -0.10641   -0.016963   -0.081092   -0.002164    0.011648
0.046837    -0.85755    -0.17022   0.0024402   -0.045903   0.0073732    0.023159
0.099127     -1.1275    -0.20047     0.02283   -0.011372    0.012635    0.031381
0.15175     -1.3055    -0.22086    0.041247    0.020857    0.014608    0.036971
0.19943     -1.3742    -0.23994    0.055388    0.050784    0.014279    0.042233
0.23725     -1.3232    -0.26164    0.065912    0.085315    0.016253     0.04618
0.26553     -1.1522    -0.28236    0.070187     0.12544    0.018884    0.047495
0.28527    -0.88452    -0.28795    0.070845     0.17641    0.019541    0.044535
0.29184    -0.56025    -0.25835    0.067227     0.23462    0.017897    0.037958
0.28198    -0.23566    -0.17087    0.062294     0.29415    0.017568    0.031709
0.25665     0.04322   -0.018278    0.055388     0.33986    0.020857    0.031052
0.21785     0.25337     0.17542    0.044206     0.35499    0.024474     0.03434
0.17214     0.39807     0.34709    0.026119     0.33591    0.023159    0.036642
0.12807     0.49739     0.43523   0.0060577     0.29086    0.019541    0.037629
0.096496     0.56119     0.41122   -0.011701     0.23232    0.013293    0.033354
0.080711     0.58881     0.29809   -0.025185     0.17279    0.002769    0.024145
0.076106     0.57664     0.15043    -0.03538      0.1182   -0.012688    0.013293
0.074133     0.53257    0.022501   -0.045903    0.069858   -0.030447   0.0021113
0.074462     0.47305    -0.05281     -0.0584    0.025461   -0.042944   -0.007097
0.074462     0.41056   -0.074515    -0.07583   -0.013345   -0.047219   -0.014661
0.07808     0.34775   -0.068266   -0.097864   -0.045246   -0.043272   -0.023211
0.077093     0.28559   -0.056756    -0.12187   -0.065307   -0.038339   -0.028144
0.061965     0.22574   -0.056756    -0.14259   -0.075501   -0.035051   -0.023869
0.025132     0.17148   -0.074844    -0.15147   -0.080106   -0.032749   -0.012359
-0.02354     0.12379    -0.11036    -0.14654   -0.078461   -0.031433 -0.00051963
-0.076817    0.079395    -0.15344    -0.13963   -0.070568   -0.028144    0.011977
-0.12812     0.04026    -0.19324    -0.13601   -0.059387   -0.021238    0.018226
-0.16923   0.0077021    -0.22481    -0.13536   -0.044917   -0.010715    0.014937
-0.20113   -0.011701     -0.2452    -0.13733   -0.030447   0.0030979      0.0054
-0.22612  -0.0057815    -0.25605    -0.13832    -0.02354    0.015595  -0.0074258
-0.24289     0.04618    -0.26164    -0.13272   -0.025185    0.021514   -0.017621
-0.24224     0.15372    -0.26361    -0.12549   -0.033735    0.018884   -0.023869
-0.23138     0.30434    -0.26493    -0.11891   -0.048534   0.0096753   -0.024527
-0.22316     0.46614    -0.27151    -0.11529   -0.068266  -0.0015062   -0.022554
-0.22514     0.59966    -0.28532    -0.11628   -0.089972   -0.010715    -0.01795
-0.22974     0.67136    -0.30308    -0.11694    -0.10905   -0.016305    -0.01203
-0.23138     0.66182    -0.31229    -0.11529    -0.12286    -0.01795  -0.0064392
-0.22349     0.56875    -0.30341    -0.10905    -0.12911    -0.01499 -0.00051963
-0.21034     0.41188    -0.27743    -0.09622    -0.12746  -0.0054526   0.0034268
-0.1985     0.23232    -0.23369   -0.076817    -0.11793   0.0093464   0.0021113
-0.18567    0.092879    -0.17285   -0.051823    -0.10313    0.022172  -0.0028217
-0.17285    0.061307     -0.1005   -0.022554   -0.087012    0.027434  -0.0077547
-0.16166     0.15931   -0.026829   0.0073732   -0.074515    0.028092   -0.010057
-0.15279     0.34052    0.032038    0.031709   -0.063004    0.023159  -0.0028217
-0.14654     0.50594    0.063938    0.047495   -0.051823    0.015266   0.0093464
-0.1416     0.56941    0.054072    0.053086    -0.04689   0.0080309     0.01691
-0.14588     0.49969  -0.0028217    0.052099   -0.054454   0.0057288    0.015595
-0.15607      0.3119   -0.096549     0.04618    -0.07287   0.0073732   0.0047422
-0.16857    0.048482    -0.21132    0.034998   -0.096878   0.0093464   -0.011043
-0.17515    -0.25046     -0.3261    0.021514     -0.1176   0.0080309   -0.019594
-0.17778    -0.55631    -0.41555    0.010991    -0.12845   0.0014536   -0.019594
-0.17844    -0.86117    -0.46159   0.0080309    -0.12812  -0.0077547   -0.010057
-0.17778     -1.1637    -0.45205   0.0083598    -0.11924   -0.016634    0.002769
-0.17646     -1.4498    -0.36786   0.0080309    -0.10641    -0.02354    0.010333
-0.1712     -1.6853    -0.18205   0.0011247   -0.096549   -0.026171   0.0093464
-0.16166      -1.832     0.10932   -0.013345   -0.088327   -0.023211   0.0040845
-0.15246     -1.8662     0.42931   -0.038011   -0.080763   -0.018607   -0.002164
-0.14719      -1.779     0.65886   -0.069582   -0.076488   -0.015648  -0.0084125
-0.14785     -1.5742      0.7151     -0.1051   -0.075173   -0.011701   -0.014003
-0.15015     -1.2785     0.61611    -0.13207    -0.07583  -0.0064392   -0.018936
-0.14917    -0.93023     0.46417    -0.13634   -0.076488  -0.0034794   -0.024527
-0.14522    -0.57768     0.36715    -0.11661   -0.076159  -0.0057815   -0.021567
-0.13503    -0.27085     0.36025   -0.082079   -0.076159   -0.011043   -0.016305
-0.11727   -0.045574     0.40991   -0.049521   -0.075173   -0.017292   -0.010715
-0.087669    0.090905     0.45496   -0.026829   -0.066293     -0.0265  -0.0051238
-0.04393     0.14747     0.44542  -0.0084125   -0.048205    -0.03538 -0.00019077
0.01132     0.15635     0.37406    0.013951   -0.021896   -0.039326   0.0060577
0.067556     0.14977     0.26751    0.042562   0.0077021    -0.03538    0.013293
0.11524     0.15471     0.15273     0.07808    0.036642   -0.023869    0.023488
0.14287     0.17806    0.044864     0.11458    0.058019   -0.010715    0.032038
0.14879      0.2116   -0.036037      0.1432    0.069858   0.0017824    0.039273
0.1353     0.24054   -0.076159     0.15931    0.068871    0.010333    0.042891
0.10636     0.25863   -0.083723     0.16194    0.058348    0.010333    0.035656
0.073476     0.26817   -0.076488     0.15372    0.042562  -0.0008485    0.019541
0.045522     0.27408   -0.069911       0.133    0.023817   -0.016963 -0.00051963
0.024474     0.28264   -0.056098     0.10373      0.0054   -0.028144   -0.020581
0.0073732     0.29217   -0.027816    0.074791   -0.011701   -0.032749   -0.036695
-0.016305     0.29283    0.020199    0.053086   -0.025514   -0.031762    -0.04985
-0.049521     0.27441    0.090248    0.041247   -0.031762   -0.031104   -0.059058
-0.094905     0.23199     0.17444    0.037958   -0.033406    -0.03242   -0.062018
-0.14062     0.17148     0.25238    0.034669   -0.034064   -0.037682   -0.059716
-0.1735     0.10669     0.29875     0.02875   -0.038997   -0.046561   -0.054783
-0.18797    0.055717     0.30007    0.021186    -0.04689   -0.056756    -0.04985
-0.18436    0.039273     0.26225    0.013622    -0.05281   -0.066293   -0.046232
-0.16989     0.06361     0.20831   0.0073732   -0.054454    -0.07024   -0.041957
-0.15607     0.11393     0.16194   0.0047422   -0.050836   -0.070897   -0.036366
-0.15805     0.16227     0.13136   0.0014536   -0.042286   -0.066951    -0.02946
-0.18436     0.18858     0.10373  -0.0031506   -0.027158   -0.059716   -0.019594
-0.22316     0.19647    0.060979   -0.011372  -0.0057815   -0.049521  -0.0084125
-0.26065      0.1991  -0.0067681   -0.017621    0.020199   -0.038997   -0.004466
-0.28631      0.2014   -0.092931   -0.019923    0.045522   -0.029789  -0.0074258
-0.30012     0.20009    -0.17745   -0.015319      0.0692   -0.019923   -0.013674
-0.30472     0.19549     -0.2452  -0.0038083    0.090577   -0.010057   -0.021896
-0.30012     0.19022    -0.28598    0.013951     0.10965   0.0014536   -0.026829
-0.28565     0.19055    -0.30341    0.029407     0.13169    0.010991   -0.026171
-0.24881      0.1922    -0.30374     0.04026     0.15865    0.016253   -0.019594
-0.18008      0.1968    -0.28795    0.047495     0.18825    0.015595  -0.0067681
-0.076817       0.231    -0.26164    0.054072     0.21357    0.010991    0.010333
0.056046     0.33756    -0.24651    0.059992     0.22443   0.0060577    0.027434
0.19581     0.52271    -0.26164     0.06065     0.21259   0.0050711    0.041247
0.3119     0.74404    -0.30768    0.051441     0.17838   0.0067154    0.048482
0.38162     0.93182    -0.37346    0.034669     0.12873      0.0054     0.04322
0.39544      1.0341    -0.43627    0.012306    0.070516  -0.0011774    0.028421
0.36321      1.0397     -0.4754   -0.012688     0.01987   -0.011701    0.010662
0.31552      0.9703    -0.47935   -0.033406   -0.014332   -0.019594 -0.00051963
0.29349     0.84566    -0.45041   -0.042286   -0.028144   -0.019923  -0.0034794
0.32703     0.68089    -0.39845   -0.032749   -0.025185   -0.010386   0.0030979
0.41089     0.48883    -0.33235  -0.0047949   -0.014332   0.0040845     0.01691
0.51975     0.28329    -0.25737    0.026776  -0.0097279    0.014608    0.031052
0.61578    0.057032    -0.18501    0.040918   -0.021567    0.014937    0.039273
0.66577    -0.19521    -0.12582    0.028092   -0.050507   0.0063866    0.038616
0.65722    -0.46126   -0.085039  -0.0047949   -0.085367  -0.0051238    0.031381
0.59309    -0.71416   -0.063333   -0.039984    -0.11957   -0.014003    0.016253
0.49311    -0.92102   -0.059058   -0.063662    -0.15114   -0.019265  -0.0054526
0.38162     -1.0529   -0.069253   -0.072542    -0.17515   -0.017292   -0.022883
0.28165     -1.1016   -0.089972   -0.066622    -0.18633   -0.014661   -0.028144
0.20338     -1.0733    -0.11398   -0.054783    -0.18173   -0.016305   -0.022883
0.14648     -0.9789    -0.13141   -0.040313    -0.16561    -0.02354   -0.010057
0.10801    -0.82663    -0.13536   -0.032749    -0.14391   -0.034064   0.0050711
0.086301     -0.6257    -0.12121   -0.026829    -0.12121   -0.040641    0.018555
0.079724    -0.40207   -0.080763   -0.017292   -0.097864   -0.038011    0.026776
0.082684    -0.18403    -0.01499   -0.004466   -0.075173   -0.025842    0.030065
0.098469   0.0021113    0.066898   0.0060577    -0.05281  -0.0097279     0.03434
0.12577     0.13695      0.1478    0.015266   -0.027158    0.010004    0.041247
0.15405     0.20831      0.2093    0.027763   0.0014536    0.030723    0.050784
0.16622     0.21456     0.25172    0.042233    0.026776    0.049139    0.059992
0.15734     0.16885      0.2879    0.052428    0.046837    0.057361    0.065912
0.13234     0.10077     0.31552    0.055388    0.058019    0.052757     0.06624
0.095839    0.038616     0.32276    0.052757    0.059334    0.038616    0.058348
0.044864  -0.0038083     0.30401    0.047166    0.053086    0.025461    0.045522
-0.016634   -0.022225     0.26619    0.041904    0.041247    0.017897    0.030065
-0.07879   -0.025185     0.21061    0.039931    0.029407    0.015924    0.019541
-0.13568   -0.016963     0.13728    0.041575     0.01987    0.015595    0.015266
-0.17712 -0.00051963    0.062623    0.044535    0.015595    0.010662    0.014608
-0.19587    0.026119   0.0093464    0.048153    0.013622   0.0014536    0.012964
-0.186    0.057032  -0.0051238    0.055059    0.010991  -0.0093991    0.013293
-0.15673     0.08367   0.0060577    0.061965   0.0057288   -0.015648    0.017239
-0.12384    0.090905    0.018555    0.061965  -0.0008485   -0.018278    0.021186
-0.10346    0.071502    0.017239    0.054401    -0.01203   -0.022225    0.017239
-0.10346    0.030394  -0.0031506      0.0373   -0.025514   -0.028802   0.0083598
-0.11562   -0.011372   -0.035051    0.013622    -0.04097   -0.035051  0.00046697
-0.13174   -0.036695   -0.064978  -0.0067681   -0.055769   -0.034722  -0.0024928
-0.14423   -0.041957   -0.079777   -0.014661   -0.063333   -0.024527   0.0011247
-0.15048   -0.031433   -0.074844   -0.013674   -0.057743    -0.01203    0.010004
-0.1495  -0.0097279   -0.051823  -0.0087413   -0.041628  -0.0057815    0.024474
-0.14719    0.015595   -0.018278  -0.0054526   -0.020581  -0.0097279    0.040918
-0.14325    0.036314    0.021843  -0.0038083   0.0024402    -0.02354    0.051113
-0.13305    0.044864    0.067885  -0.0011774    0.024803   -0.038997    0.050784
-0.11825    0.042891      0.1159   0.0021113    0.039602   -0.047548    0.039602
-0.10214    0.035656     0.15142   0.0047422    0.045193   -0.048205    0.026776
-0.085367    0.029078      0.1626    0.010333    0.045193   -0.043272    0.016253
-0.073199    0.026447     0.14221     0.01987     0.04618   -0.037682    0.013293
-0.071226    0.027763     0.10143    0.034669    0.046837   -0.031433    0.013622
-0.084052    0.031052    0.058348    0.050455    0.047495   -0.025514    0.014937
-0.11332    0.033025     0.02875     0.06361    0.046837   -0.019923    0.017897
-0.14851    0.026776    0.019541    0.071502    0.047166   -0.016305    0.018226
-0.18041    0.013951    0.033354    0.075449    0.047824   -0.013674    0.020199
-0.19948    0.002769    0.052099    0.076435    0.052099   -0.011372    0.020528
-0.20212  -0.0015062    0.061965    0.081697    0.057361  -0.0067681    0.019541
-0.18962   0.0047422    0.066898    0.091892    0.059992   0.0001381    0.017897
-0.16923    0.021186    0.087288     0.10603    0.062952   0.0073732     0.01987
-0.15147    0.044535     0.13728     0.11491    0.065912    0.014937    0.026119
-0.13963    0.067885     0.20239     0.10735    0.061636    0.023159    0.028092
-0.13503    0.081368     0.24613    0.074133    0.045522    0.029736    0.018884
-0.13832    0.081368     0.23166    0.020857    0.018884     0.02875  -0.0008485
-0.14884    0.071502     0.15668   -0.039326   -0.014003    0.021843   -0.021896
-0.15838    0.051441     0.05177   -0.088985   -0.046232    0.013622   -0.033078
-0.15903    0.026447   -0.038668    -0.11727   -0.071884   0.0024402   -0.033735
-0.14489   0.0037556   -0.087998    -0.12253   -0.087012   -0.014661   -0.029131
-0.11398    -0.01203   -0.099838    -0.11825   -0.089643   -0.030118   -0.024198
-0.073857   -0.024198   -0.097207    -0.11233   -0.082408   -0.037353   -0.021238
-0.035051   -0.039984   -0.096878     -0.1051   -0.067609   -0.032091   -0.024856
-0.0034794     -0.0584    -0.10707   -0.094247   -0.049192   -0.016305   -0.032091
0.015266   -0.069253    -0.12154   -0.083394   -0.033406  0.00079584   -0.039326
0.017239   -0.067609    -0.13536   -0.072542   -0.025842    0.015266   -0.047548
0.0047422   -0.053467    -0.15443   -0.063333   -0.026829    0.026776    -0.05281
-0.013017   -0.034064    -0.17877   -0.055112    -0.03538    0.036971   -0.053467
-0.023869   -0.016305    -0.19521   -0.052481   -0.045903    0.043549   -0.050179
-0.027816   -0.007097    -0.17613   -0.050836   -0.056756    0.041904   -0.041957
-0.025514  -0.0057815   -0.099509   -0.042615   -0.069911    0.032038   -0.028473
-0.018936  -0.0067681    0.029736   -0.022554   -0.086683     0.01691   -0.013017
-0.015319  -0.0051238     0.17904   0.0060577    -0.10214   0.0030979  -0.0011774
-0.019923 -0.00051963     0.29974    0.032367    -0.10905  -0.0034794   0.0021113
-0.029789   0.0060577     0.36025    0.047495    -0.10609   0.0001381 -0.00051963
-0.038997   0.0057288     0.34512     0.04322    -0.09622   0.0093464  -0.0084125
-0.050179  -0.0041372     0.25863    0.022501   -0.086683    0.015924   -0.015648
-0.065307   -0.022225     0.13333  -0.0051238   -0.082079    0.018226   -0.019594
-0.077475   -0.041299   0.0040845   -0.029131   -0.080763    0.015924   -0.021567
-0.079119   -0.054454    -0.09918   -0.041299   -0.076817    0.015266   -0.019265
-0.069582   -0.060373    -0.16364   -0.045246   -0.066951    0.012635   -0.018278
-0.052152   -0.059716     -0.1837   -0.044917   -0.051823   0.0050711   -0.019594
-0.042944   -0.052481    -0.16166   -0.040641   -0.034722  -0.0031506   -0.021896
-0.049521   -0.045246   -0.097207   -0.033078    -0.02354  -0.0038083   -0.022883
-0.075501   -0.041957    0.021514    -0.02354   -0.016305   0.0011247   -0.021567
-0.11036   -0.042286     0.19746   -0.017621  -0.0077547   0.0073732   -0.019265
-0.14358   -0.044588     0.38886   -0.016305    0.010004    0.011977    -0.01499
-0.16495   -0.047219     0.50922   -0.012359    0.035327    0.014608   -0.007097
-0.17054   -0.045903     0.49607   0.0030979    0.068871     0.01691   0.0001381
-0.1587   -0.041299     0.36321     0.03434     0.10669    0.019212   0.0063866
-0.13108   -0.036695     0.19055    0.089919     0.14714    0.017568   0.0080309
-0.10346   -0.034064    0.044535     0.16293     0.18266    0.015595   0.0077021
-0.087998   -0.038997   -0.074515     0.23166     0.21752    0.015595    0.010004
-0.091287   -0.053796    -0.18041     0.26981     0.25501    0.017897    0.013951
-0.10543   -0.071555    -0.25572     0.26192     0.28559    0.020199    0.017239
-0.12121   -0.083065     -0.2498     0.20963     0.29217    0.018884    0.018226
-0.13338    -0.08471    -0.13568     0.13037     0.26257    0.010662     0.01691
-0.13766    -0.07879    0.047495    0.048482     0.20173   -0.002164    0.014937
-0.12286    -0.06728     0.21094   -0.019265     0.12708   -0.015648    0.010662
-0.08471   -0.049192     0.27902   -0.070897     0.05769   -0.027487   0.0044134
-0.017621   -0.020252     0.23955    -0.10444   0.0034268    -0.03538  -0.0018351
0.079066    0.017239     0.12708     -0.1176   -0.031433   -0.039326  -0.0018351
0.20305    0.058676   -0.031762    -0.10905   -0.052481   -0.039655   0.0063866
0.33558    0.092221    -0.23632   -0.083065   -0.062347   -0.035708    0.018555
0.45134      0.1113    -0.47968   -0.048534   -0.063333   -0.031104    0.032038
0.53422      0.1182    -0.70627   -0.018936   -0.059387   -0.024856    0.041575
0.57401     0.11656    -0.83288  0.00046697   -0.053467   -0.013674    0.045851
0.56645     0.10603    -0.79539   0.0083598    -0.04985  -0.0015062    0.047166
0.51876    0.086301    -0.57078   0.0057288   -0.045574   0.0077021    0.046508
0.44345    0.052428    -0.19718  -0.0054526    -0.04097    0.011648    0.041904
0.354    0.011977     0.21193   -0.025842   -0.038668    0.010004    0.030723
0.26093   -0.027487      0.5135    -0.05544   -0.039326   0.0040845    0.011648
0.17378   -0.063333     0.62137    -0.09326   -0.041299  -0.0064392   -0.010715
0.095839   -0.099838      0.5408    -0.13141   -0.046232   -0.015976   -0.032749
0.034669    -0.14062     0.34874    -0.15805   -0.053796   -0.025514   -0.048863
-0.007097    -0.17318     0.14089    -0.16791     -0.0584   -0.036366   -0.056427
-0.029789    -0.18501   -0.030118     -0.1643   -0.058729   -0.046561   -0.057085
-0.030447     -0.1712    -0.17153    -0.15279    -0.05544   -0.053796   -0.048534
-0.015319    -0.13799    -0.31031    -0.13371   -0.054454   -0.056756   -0.030775
0.0070443    -0.10346      -0.456    -0.10411   -0.060373   -0.051494  -0.0080836
0.020199   -0.089972    -0.59084   -0.068924   -0.071555   -0.042615   0.0086887
0.015924     -0.1097    -0.68259   -0.038339   -0.089643   -0.034722    0.013293
-0.0054526     -0.1495    -0.69969   -0.023869    -0.11529   -0.032749   0.0037556
-0.03242    -0.17482    -0.63918   -0.031104    -0.14029    -0.03538   -0.013017
-0.057414    -0.15377    -0.50862   -0.047548    -0.15575   -0.034722   -0.030447
-0.072542   -0.079119    -0.31952   -0.052481    -0.15377   -0.027816   -0.040313
-0.068266    0.025461    -0.10148   -0.032091    -0.13371   -0.018936   -0.036695
-0.04689     0.11623    0.092879   0.0034268    -0.10115   -0.011043   -0.025514
-0.016963     0.16523     0.22278    0.033025    -0.06728  -0.0041372   -0.011701
0.010991     0.17016     0.26422    0.039602   -0.037682   0.0014536  -0.0015062
0.029407     0.16424       0.231    0.022172   -0.014332   0.0047422   0.0040845
0.042562     0.18529     0.15438  -0.0064392   0.0047422   0.0047422   0.0040845
0.052757     0.24712    0.066898   -0.037024    0.016581  0.00046697   0.0011247
0.060321     0.32868  -0.0038083   -0.062347    0.019212  -0.0038083   0.0001381
0.062623     0.39642   -0.046232    -0.08175    0.011977  -0.0087413   0.0024402
0.055388     0.42109   -0.063662   -0.092603  -0.0011774   -0.011701      0.0054
0.036971     0.38985   -0.067609   -0.091945   -0.020252   -0.011372   0.0034268
0.011648     0.31618   -0.069911    -0.08175   -0.039326   -0.010057  -0.0034794
-0.012688     0.22969    -0.07583   -0.068266   -0.054125   -0.007097   -0.012359
-0.029131     0.15175    -0.08175   -0.053138   -0.065964  -0.0064392   -0.019923
-0.036366    0.088603   -0.071226   -0.039326   -0.078132  -0.0038083   -0.024527
-0.036037    0.038616   -0.023869   -0.018936   -0.093918  -0.0018351     -0.0265
-0.02946   0.0034268    0.069858    0.012306    -0.10872  -0.0024928     -0.0265
-0.023211   -0.015319     0.18792     0.04881    -0.11529  -0.0084125   -0.022883
-0.027158    -0.01795     0.29415    0.080711     -0.1051   -0.019594   -0.014332
-0.044259  -0.0084125     0.35137    0.097483   -0.078132   -0.029789  -0.0008485
-0.0584   0.0017824     0.34282    0.096167    -0.04689   -0.031433    0.014937
-0.063991   0.0050711     0.27869    0.081697   -0.013674   -0.028473    0.026447
-0.063662  -0.0028217     0.19055    0.065254    0.017239   -0.021238    0.030394
-0.060045   -0.014661     0.11228     0.05473    0.044206   -0.014332    0.025132
-0.055112   -0.020581    0.065583     0.04618    0.061636   -0.011372    0.012306
-0.047548  0.00046697    0.058676    0.034998    0.067556   -0.015319   -0.002164
-0.044917    0.075449    0.079724    0.019212    0.064925   -0.022883   -0.013674
-0.053467     0.23265     0.11426   0.0040845    0.054072   -0.029789   -0.017621
-0.078461     0.48028     0.14879  -0.0057815     0.04026   -0.032749   -0.010386
-0.10839     0.79139     0.17181   -0.010057    0.026447   -0.034393   0.0011247
-0.12944      1.0995     0.18036   -0.011372    0.015266   -0.033406   0.0090175
-0.13141      1.3173     0.17608    -0.01203   0.0073732   -0.030118   0.0096753
-0.11628      1.3817      0.1672   -0.012359   0.0024402   -0.026829   0.0077021
-0.099509      1.2725     0.15799   -0.010057  -0.0038083   -0.028144      0.0054
-0.084052     0.99924     0.14813  -0.0028217    -0.01499   -0.038011   0.0073732
-0.069911     0.60098     0.13859   0.0047422   -0.029789   -0.052152   0.0096753
-0.058071      0.1307     0.12544    0.011977   -0.043272   -0.059058    0.013622
-0.052152    -0.35405     0.10176     0.01987   -0.045903   -0.051823     0.01987
-0.054454    -0.80065    0.066898    0.032696   -0.036695   -0.030447     0.02579
-0.067609     -1.1621    0.021843    0.046508   -0.020909  -0.0054526    0.028092
-0.090629     -1.4104   -0.027487    0.055717  -0.0067681    0.011977     0.02579
-0.11431     -1.5363   -0.081092    0.058348   0.0034268    0.017568    0.019212
-0.12483     -1.5442    -0.14456    0.055388   0.0090175    0.013293    0.013622
-0.11365     -1.4505    -0.21889    0.051441    0.014279   0.0047422    0.013622
-0.076817     -1.2667    -0.29255    0.044535     0.01987 -0.00019077    0.018884
-0.012359    -0.98153    -0.35043    0.031381    0.024145  0.00079584    0.024803
0.076435    -0.58261    -0.38036   0.0080309    0.024145   0.0080309    0.031381
0.18233     -0.1074     -0.3774   -0.021896    0.018226    0.011648    0.033025
0.2879     0.34775    -0.35043   -0.050836      0.0054   0.0080309    0.031381
0.37373     0.66774    -0.31261   -0.070568  -0.0067681 -0.00019077    0.027105
0.42339     0.78514    -0.28006   -0.080106   -0.014003  -0.0067681    0.023159
0.42701     0.69207    -0.25967   -0.079119   -0.012359  -0.0084125    0.018226
0.3882     0.43359    -0.24914   -0.071226  -0.0031506  -0.0031506    0.015595
0.31519    0.083999    -0.24553   -0.062018   0.0093464   0.0080309    0.016581
0.22574    -0.28532    -0.24224   -0.055112    0.021514    0.018555    0.018226
0.13366    -0.62701    -0.23599    -0.05544    0.031052    0.021843    0.019212
0.051441    -0.92332    -0.22251   -0.058071    0.036314    0.015924    0.017568
-0.012359      -1.168    -0.20573   -0.060702     0.03434   0.0040845    0.016253
-0.057743     -1.3462    -0.18501   -0.063991    0.024145   -0.010386    0.012635
-0.085367     -1.4482    -0.15673   -0.068924   0.0060577   -0.020581   0.0044134
-0.097207     -1.4781    -0.12023   -0.070568   -0.015319   -0.026829  -0.0090702
-0.10017     -1.4482   -0.073199    -0.06728   -0.037682   -0.030118   -0.022554
-0.10313     -1.3601   -0.019923   -0.059387   -0.057085   -0.028144   -0.032749
-0.11003     -1.1979    0.026447   -0.053796   -0.068595   -0.020252   -0.034722
-0.11661     -0.9493    0.045522   -0.053138   -0.069911   -0.011701   -0.026829
-0.12384    -0.63227    0.026119   -0.053467   -0.065964  -0.0054526   -0.013345
-0.12911     -0.2988   -0.019265   -0.053796   -0.059387  -0.0034794  -0.0015062
-0.13338  -0.0061104   -0.066293   -0.053467   -0.053796  -0.0047949   0.0017824
-0.13568     0.21127   -0.090629   -0.052481    -0.04985  -0.0067681  -0.0015062
-0.13536     0.34907   -0.075173   -0.049192   -0.050179   -0.014003  -0.0051238
-0.12944     0.42273   -0.018278    -0.04097   -0.054783   -0.022554  -0.0064392
-0.11825     0.45628    0.069529   -0.030447   -0.060702   -0.031433   -0.007097
-0.10378     0.46976     0.15997   -0.020909   -0.065307   -0.036366   -0.007097
-0.087341     0.47371     0.22804   -0.014003   -0.063333   -0.033735  -0.0038083
-0.071884      0.4691     0.27244  -0.0074258    -0.05281   -0.020909    0.002769
-0.063991     0.45562      0.3119   0.0070443   -0.037682  -0.0024928   0.0073732
-0.065307     0.43786     0.37209    0.038616    -0.01795    0.017568    0.010004
-0.076159     0.42076     0.47469    0.088275   0.0080309    0.033025    0.012635
-0.089972     0.40563     0.60065     0.15635    0.040589    0.042233    0.020528
-0.10181     0.38228      0.6776     0.23429    0.074133    0.048153    0.033025
-0.11135     0.33558     0.62104     0.30566      0.1057    0.053743     0.04618
-0.12319     0.26652     0.39873     0.34742     0.12938    0.059005    0.057361
-0.1393     0.19154    0.064925     0.34084     0.13859    0.061307    0.059663
-0.16693     0.14221    -0.25835     0.28691     0.12807    0.053086    0.051441
-0.20606     0.13991    -0.45074     0.20436     0.10077    0.032367    0.033683
-0.25145     0.19154    -0.45863     0.12642    0.065912   0.0077021    0.010662
-0.28992     0.28461    -0.30933    0.080382    0.032696   -0.015976  -0.0077547
-0.30933     0.39511   -0.087012     0.07808    0.013293   -0.028802   -0.013345
-0.29814     0.49739     0.10965     0.11426    0.014608   -0.026171   -0.007097
-0.26032     0.57631     0.21489     0.17411    0.036314   -0.011043   0.0060577
-0.21034     0.62433     0.21292     0.23002    0.063281   0.0060577    0.015595
-0.16068     0.63518     0.13169     0.25797    0.081697     0.01691    0.018555
-0.12056      0.6069    0.021514     0.24909    0.084986    0.025132    0.014608
-0.088656     0.55033   -0.085696     0.20996    0.074133    0.034011   0.0096753
-0.057743       0.477    -0.18041     0.15471    0.055717    0.043549   0.0096753
-0.021896     0.40004    -0.26361    0.096167     0.03434    0.050784    0.015924
0.017239     0.33361    -0.32577    0.045522    0.013622    0.053086    0.029078
0.057032     0.28264    -0.35603   0.0086887  -0.0034794    0.050784    0.041575
0.092221     0.24843    -0.34386   -0.011701   -0.016963     0.04322    0.044864
0.1205     0.22377    -0.29354   -0.022225   -0.028473    0.031052    0.033683
0.15865     0.20502    -0.21659   -0.032091   -0.038011    0.016581    0.018555
0.22147     0.19483    -0.12779   -0.044259   -0.048205   0.0037556   0.0067154
0.31355      0.1968    -0.04689   -0.060045   -0.060702   -0.010057  -0.0011774
0.41681     0.21686    0.012964   -0.070568    -0.07287   -0.022554  -0.0057815
0.50298     0.26093    0.039931   -0.070897   -0.082079   -0.033406   -0.010386
0.53981     0.32309    0.035656    -0.06136   -0.086354   -0.038997   -0.013017
0.51251     0.39313   0.0090175   -0.055112   -0.088656   -0.039984   -0.014661
0.43227     0.45825   -0.030447   -0.058729   -0.092931   -0.038668   -0.015648
0.32835     0.50298   -0.076817   -0.066951   -0.095891   -0.040313   -0.017292
0.22936     0.51909    -0.12187   -0.074515   -0.092931   -0.045903   -0.018278
0.15701     0.50594    -0.15443   -0.080106   -0.083394   -0.050179   -0.016963
0.11524     0.46483     -0.1643   -0.080763   -0.070568    -0.04985   -0.010386
0.10472     0.39708     -0.1416   -0.076817   -0.061031    -0.04393   0.0017824
0.11919     0.31059   -0.080763    -0.07024   -0.059387   -0.036037    0.013951
0.14813     0.21719    0.016253   -0.063662   -0.065635   -0.027816     0.01987
0.17411     0.12971      0.1307   -0.057085   -0.075173   -0.022554    0.020528
0.18167    0.056374     0.23922   -0.059058   -0.081092   -0.015648    0.017239
0.16819   0.0070443     0.31618   -0.075501   -0.082408  -0.0041372    0.014608
0.13695   -0.013017     0.32901     -0.1005   -0.078132    0.010004   0.0096753
0.096167  -0.0051238     0.24942    -0.12549   -0.073528    0.020528   0.0024402
0.052428    0.011977    0.082684    -0.14193   -0.073528    0.025461  -0.0031506
0.013622     0.01691    -0.11497    -0.14259   -0.078461     0.02283  -0.0031506
-0.016963  -0.0061104    -0.24881    -0.11957   -0.082408    0.014937   0.0001381
-0.038668   -0.054783    -0.24454   -0.068924   -0.079777      0.0054   0.0011247
-0.053138    -0.11365   -0.086354  0.00079584   -0.071884   -0.004466  -0.0018351
-0.065635    -0.16265     0.16622    0.071831   -0.059058   -0.012359  -0.0087413
-0.081421    -0.19324     0.41484     0.12149   -0.042615   -0.015648   -0.019923
-0.10411    -0.20277      0.5773     0.13596   -0.028144   -0.015319   -0.035051
-0.13108    -0.19817     0.62367     0.11623   -0.021567    -0.01499    -0.04985
-0.16068      -0.186     0.57039    0.077093   -0.027158   -0.016963   -0.061689
-0.18765    -0.17022     0.46384    0.034669   -0.041299   -0.023869   -0.064978
-0.20343    -0.15015     0.34775   -0.002164   -0.056098   -0.034064   -0.062676
-0.2054    -0.12286     0.25929   -0.026829   -0.065307   -0.045246   -0.056756
-0.19817   -0.090629     0.21489   -0.041628   -0.067609   -0.053467   -0.050179
-0.18501   -0.059058     0.20667   -0.052481   -0.064978   -0.057743   -0.042286
-0.17416   -0.044259     0.19943   -0.067937   -0.061689   -0.059387   -0.033735
-0.16923   -0.057085     0.15536   -0.087012   -0.057743   -0.054783   -0.025185
-0.17022    -0.10017    0.059992    -0.11266    -0.05544   -0.043272   -0.015976
-0.17449    -0.16594   -0.070897    -0.13568   -0.051823   -0.027158  -0.0047949
-0.17844    -0.24125     -0.2008    -0.14917   -0.042615  -0.0087413   0.0021113
-0.17811    -0.30867    -0.29617    -0.15344    -0.02354   0.0060577   0.0030979
-0.17515    -0.35504    -0.35504    -0.15443   0.0090175    0.011977  -0.0008485
-0.17581     -0.3751    -0.39845    -0.15575    0.061636   0.0070443  -0.0051238
-0.17942    -0.36589    -0.44252    -0.15311     0.14089   -0.004466  -0.0093991
-0.18173     -0.3238    -0.49448     -0.1393     0.24778  -0.0090702   -0.012359
-0.17745    -0.23961     -0.5471    -0.10082     0.37373  -0.0031506   -0.010057
-0.15673    -0.11694    -0.55696   -0.034064      0.4964    0.015595   0.0021113
-0.11135    0.021843    -0.44613    0.057032      0.5898    0.042562    0.025461
-0.051823     0.13859    -0.17022      0.1524     0.62663    0.073147    0.050455
0.0024402     0.19549     0.21719     0.22739     0.59736    0.098469    0.063281
0.030723     0.17246     0.56776     0.25797      0.5158     0.10834    0.062623
0.019541    0.074462     0.73055     0.22739      0.4007    0.097154    0.047824
-0.026829   -0.065307     0.64439     0.14089      0.2731    0.067227    0.020857
-0.095562    -0.19948     0.36419    0.019541     0.14944    0.025461   -0.013017
-0.1712     -0.2919    0.021514    -0.10115    0.043877   -0.013345   -0.043272
-0.24717    -0.32643    -0.24585    -0.18962   -0.036037   -0.040641    -0.06728
-0.3136    -0.30702     -0.3557    -0.23763   -0.088327   -0.056756   -0.077146
-0.358    -0.24717    -0.30308     -0.2475    -0.11793   -0.063991   -0.074515
-0.37247    -0.16693    -0.14029    -0.23237     -0.1324   -0.063991   -0.062676
-0.36293   -0.087998     0.05473    -0.20672    -0.14062   -0.060702   -0.046232
-0.34024   -0.035051     0.20206    -0.18008    -0.15015   -0.054454   -0.033735
-0.30933   -0.019923     0.25764     -0.1564    -0.16331    -0.04689   -0.031104
-0.28203    -0.04097     0.22673    -0.13305    -0.17416   -0.041628    -0.03538
-0.26131   -0.075501     0.15734    -0.10313    -0.17909   -0.040313   -0.039984
-0.24125     -0.1005     0.10373   -0.069253    -0.17975   -0.039984   -0.041957
-0.21527    -0.11102      0.1011   -0.038668    -0.17877   -0.039655   -0.037353
-0.1735     -0.1245     0.15306   -0.011372    -0.17909   -0.036037   -0.027816
-0.11628    -0.16561     0.23495    0.012964    -0.17975   -0.027158   -0.016305
-0.050836    -0.23106     0.30993    0.034669    -0.18238   -0.018278  -0.0034794
0.013293    -0.28302     0.32999    0.056703    -0.18666   -0.012688   0.0050711
0.065912    -0.27907     0.26948    0.080711    -0.18699   -0.015648    0.010333
0.11162    -0.20738     0.13728     0.10505    -0.18008    -0.02354    0.014937
0.15701     -0.0903   -0.041299     0.12609    -0.16824   -0.031762    0.024803
0.20535    0.029736     -0.2304     0.14024     -0.1587   -0.030118    0.036642
0.25567     0.11623    -0.38398     0.14616    -0.15607   -0.019594    0.052099
0.30401     0.15799    -0.48264     0.14681    -0.15607  -0.0067681    0.067556
0.33197     0.16786    -0.52046      0.1455    -0.15476  0.00079584    0.074791
0.31947     0.16326    -0.50895     0.14813    -0.15114   0.0030979    0.070516
0.25797     0.14714    -0.46389     0.15668    -0.14193   0.0021113    0.055059
0.16457     0.11228     -0.3968     0.15832    -0.12812 -0.00051963    0.035656
0.062294    0.044864     -0.3113     0.14352    -0.11332  -0.0061104    0.015924
-0.019923   -0.056427    -0.21231     0.11853   -0.099838   -0.019923  0.00046697
-0.059387    -0.17252     -0.1051     0.10011   -0.087998   -0.034393  -0.0064392
-0.048205    -0.26164   -0.002164      0.1034   -0.078461   -0.041957  -0.0097279
0.0017824    -0.28631    0.082684     0.12807   -0.072542   -0.044917   -0.012359
0.069529    -0.23204     0.13728      0.1626   -0.067937   -0.047548   -0.015319
0.14024    -0.10773     0.16227     0.18759   -0.063333   -0.044917   -0.016634
0.2093    0.056703     0.16194     0.18792   -0.056098   -0.037024   -0.016963
0.28033     0.21423     0.14155     0.16326   -0.048205   -0.031433   -0.017621
0.35762     0.32243      0.1136     0.12379   -0.040641   -0.031433   -0.020581
0.44345     0.36123    0.095181    0.079395   -0.036366   -0.036366   -0.024527
0.52929     0.33558    0.094523    0.042233   -0.032749   -0.044588   -0.026829
0.59013     0.26257     0.10965    0.019212   -0.031104   -0.050836   -0.024856
0.61413     0.14944     0.12642    0.011648    -0.03242   -0.050836   -0.016963
0.61019  -0.0024928     0.12708    0.011648   -0.034722   -0.045574  -0.0051238
0.59045    -0.19192    0.097812    0.011648   -0.037682    -0.03538   0.0034268
0.5602    -0.40568    0.031709   0.0070443    -0.04097    -0.02354    0.010004
0.5135    -0.60958   -0.061689   -0.004466   -0.045903   -0.013345    0.018226
0.44674    -0.76185    -0.16166   -0.020581   -0.051165  -0.0057815    0.026776
0.36288    -0.83124    -0.25441   -0.038339   -0.059058  -0.0018351    0.034998
0.26685    -0.81216     -0.3432   -0.057085   -0.068595  -0.0018351    0.041575
0.16457    -0.72929    -0.44383   -0.077803    -0.08471  -0.0047949    0.048153
0.062952    -0.61123    -0.56124   -0.098193     -0.1051  -0.0093991    0.050455
-0.028473    -0.47573    -0.68226    -0.11069    -0.12253   -0.014003    0.044864
-0.10346    -0.33531    -0.77171    -0.11628    -0.12878   -0.015648    0.033683
-0.15673    -0.19981    -0.78783    -0.11431    -0.12187    -0.01499     0.02283
-0.18469   -0.080763    -0.71153    -0.11168     -0.1028   -0.013017    0.018555
-0.17745   0.0090175    -0.56255    -0.11398   -0.077803   -0.014661    0.024803
-0.1324     0.06361    -0.38793     -0.1199   -0.051165   -0.015976    0.034669
-0.053467    0.083999    -0.22152    -0.12911   -0.024527   -0.010715    0.043549
0.040918    0.087946    -0.04393    -0.13207   0.0030979   0.0034268    0.044864
0.12708    0.098798     0.17838    -0.12154    0.029736    0.017897    0.037629
0.18299     0.13169     0.42569    -0.10017    0.049468    0.024145    0.027763
0.19351     0.18726     0.61972    -0.07287     0.06065    0.021843    0.020857
0.15701     0.24942     0.68484   -0.048205    0.063281    0.015595    0.020199
0.085315     0.29842     0.60197   -0.032749    0.062623    0.010333    0.024803
-0.0015062     0.31322     0.41747   -0.028144    0.062294    0.010662    0.029078
-0.080763     0.28527     0.21193   -0.033406    0.067556    0.015266    0.030065
-0.13897     0.22969    0.054401   -0.044588    0.072818    0.020528    0.029736
-0.1735     0.17214   -0.021896   -0.060045    0.077422     0.02283    0.030394
-0.1906     0.13366   -0.022883   -0.075173    0.079395    0.026776    0.029078
-0.20014     0.11721     0.02283   -0.086025    0.080053    0.031052    0.024803
-0.21001     0.12017    0.078409   -0.089314    0.074791    0.033683    0.016253
-0.22152     0.13958     0.11721   -0.085039    0.064267    0.032038   0.0073732
-0.23303     0.16819     0.12807   -0.076817     0.04881     0.02579    0.002769
-0.24059     0.19516     0.10932   -0.068924    0.030394    0.012635   0.0011247
-0.25112      0.2139    0.058348   -0.066951    0.011648   -0.002164    0.002769
-0.26361     0.22245   -0.019923   -0.071884  -0.0024928   -0.011372    0.002769
-0.2771     0.22048    -0.10905    -0.08471   -0.010057   -0.016305  -0.0018351
-0.28598     0.21226    -0.18567    -0.10477   -0.013674    -0.01795  -0.0090702
-0.29288     0.20469      -0.235    -0.12713   -0.015976   -0.016634   -0.016963
-0.30078     0.19812    -0.25112    -0.14489   -0.019923   -0.011701   -0.022883
-0.31196     0.19384    -0.22744    -0.15015   -0.024527  -0.0064392   -0.026829
-0.32314     0.19121    -0.14621    -0.13437   -0.025842  -0.0057815   -0.022883
-0.33169      0.1843    0.018555   -0.098851   -0.018607   -0.010715   -0.013674
-0.33465      0.1672     0.26257   -0.055112  -0.0051238   -0.015319  -0.0047949
-0.32774     0.13563     0.53751   -0.013674   0.0080309   -0.013674   0.0021113
-0.31031    0.094852      0.7664    0.021514    0.016253   -0.007097   0.0040845
-0.29025    0.041904     0.86703    0.049468    0.018884   0.0050711   0.0040845
-0.27216   -0.026171     0.79698      0.0692    0.015924    0.017897   0.0037556
-0.25638    -0.10872     0.56809    0.080711    0.012635     0.02875   0.0057288
-0.23533    -0.19324     0.24383    0.084328    0.012964    0.033683    0.011977
-0.20573    -0.26493   -0.080434    0.075449    0.017239    0.032696     0.01987
-0.17646    -0.30801    -0.31656    0.061307    0.022501    0.025132    0.023817
-0.15542    -0.30834    -0.44909    0.046508    0.019212    0.014608    0.021514
-0.14127    -0.25177     -0.5198    0.036314   0.0067154   0.0044134    0.016253
-0.1222    -0.13667     -0.5767    0.032038  -0.0057815  -0.0008485   0.0096753
