,channel_1,channel_2,channel_3,channel_4,channel_5,channel_6,channel_7
0,-0.11036,-1.142,-0.14818,-0.12187,0.058019,0.010662,-0.0077547
1,-0.12549,-1.1213,-0.11694,-0.11036,0.063281,0.01132,-0.018278
2,-0.11135,-1.0026,-0.060702,-0.083723,0.077751,0.016581,-0.020581
3,-0.070568,-0.79671,0.0040845,-0.042944,0.10176,0.018884,-0.011701
4,-0.020581,-0.54118,0.059334,0.0037556,0.12807,0.019212,-0.00019077
5,0.029078,-0.29091,0.098469,0.045522,0.15076,0.018884,0.0080309
6,0.079395,-0.087669,0.1159,0.072818,0.16095,0.015924,0.010991
7,0.14122,0.049468,0.11426,0.075449,0.15207,0.0090175,0.0070443
8,0.21949,0.12774,0.10406,0.048153,0.12708,0.002769,-0.002164
9,0.30533,0.16359,0.098469,0.0024402,0.087617,0.0014536,-0.01203
10,0.38557,0.17477,0.10373,-0.042944,0.044535,0.0040845,-0.019923
11,0.43687,0.17246,0.11261,-0.076488,-0.002164,0.0073732,-0.027487
12,0.43852,0.1649,0.1205,-0.10609,-0.057743,0.015595,-0.03242
13,0.38491,0.16391,0.12346,-0.13568,-0.12384,0.030394,-0.037682
14,0.28165,0.17674,0.12511,-0.15936,-0.19488,0.044206,-0.04985
15,0.14352,0.20831,0.12971,-0.1643,-0.25309,0.050126,-0.064978
16,-0.010057,0.2481,0.1376,-0.13009,-0.27973,0.042233,-0.078461
17,-0.15706,0.28592,0.14352,-0.054125,-0.26,0.024803,-0.090958
18,-0.27348,0.31355,0.14089,0.041247,-0.19718,0.0040845,-0.10247
19,-0.34715,0.32835,0.13234,0.12116,-0.11102,-0.013345,-0.11003
20,-0.38464,0.32868,0.12873,0.16326,-0.025842,-0.022554,-0.11233
21,-0.407,0.30796,0.14056,0.16753,0.035327,-0.02354,-0.1097
22,-0.43265,0.25929,0.15997,0.1478,0.068871,-0.019265,-0.10346
23,-0.45271,0.18628,0.17871,0.12182,0.090248,-0.015976,-0.092274
24,-0.44482,0.1034,0.19614,0.10143,0.12741,-0.011701,-0.08175
25,-0.39417,0.035327,0.2162,0.096825,0.21752,-0.0041372,-0.077146
26,-0.30242,-0.0015062,0.24021,0.11787,0.36683,0.00079584,-0.072542
27,-0.18929,-0.010386,0.26685,0.15799,0.52698,-0.0084125,-0.063333
28,-0.076488,-0.0097279,0.28625,0.18562,0.62071,-0.036366,-0.053138
29,0.015924,-0.025842,0.29415,0.1695,0.60032,-0.072213,-0.045246
30,0.083342,-0.059716,0.29119,0.10899,0.47436,-0.10017,-0.038339
31,0.13136,-0.08471,0.28954,0.032038,0.29908,-0.11431,-0.036366
32,0.16918,-0.062676,0.30467,-0.028473,0.14024,-0.10806,-0.036695
33,0.20667,0.020528,0.33953,-0.059058,0.043549,-0.085367,-0.032749
34,0.25139,0.1455,0.37307,-0.06432,0.014279,-0.050836,-0.018278
35,0.29546,0.27343,0.37439,-0.04985,0.024474,-0.011043,0.0080309
36,0.32045,0.36979,0.32177,-0.007097,0.035327,0.024145,0.0373
37,0.30862,0.4178,0.21719,0.066898,0.019541,0.050126,0.062952
38,0.25468,0.42339,0.083342,0.15635,-0.030447,0.061965,0.078737
39,0.16654,0.39478,-0.052481,0.22804,-0.099838,0.057361,0.080711
40,0.058348,0.33887,-0.17153,0.25501,-0.16462,0.041247,0.065254
41,-0.054454,0.26323,-0.26361,0.23331,-0.19981,0.024145,0.037958
42,-0.16298,0.18069,-0.31722,0.17904,-0.1962,0.019541,0.0093464
43,-0.25046,0.10538,-0.33037,0.11228,-0.16199,0.032696,-0.012688
44,-0.29288,0.047166,-0.30439,0.052099,-0.11233,0.055717,-0.0265
45,-0.27874,0.010004,-0.2452,0.0063866,-0.059716,0.074791,-0.025185
46,-0.21626,-0.0080836,-0.16298,-0.020909,-0.014003,0.084986,-0.0051238
47,-0.12384,-0.01795,-0.075173,-0.034064,0.019212,0.087617,0.021186
48,-0.024856,-0.026829,0.0030979,-0.036366,0.039931,0.08367,0.039273
49,0.059334,-0.04097,0.06065,-0.033735,0.048153,0.071502,0.05177
50,0.1136,-0.065635,0.094852,-0.0265,0.047166,0.055059,0.062952
51,0.13464,-0.11135,0.10307,-0.019265,0.042562,0.03434,0.076106
52,0.1307,-0.19093,0.091563,-0.016305,0.040589,0.013951,0.085644
53,0.12149,-0.29749,0.067885,-0.015319,0.045522,-0.0064392,0.09255
54,0.13037,-0.4093,0.041575,-0.0097279,0.056703,-0.024198,0.098141
55,0.15865,-0.50467,0.02283,0.0017824,0.071173,-0.039326,0.1011
56,0.18266,-0.57078,0.01691,0.017239,0.083342,-0.056098,0.09255
57,0.18069,-0.59741,0.016253,0.034998,0.079724,-0.080434,0.068871
58,0.1524,-0.57308,0.014608,0.044864,0.052099,-0.11102,0.036642
59,0.11524,-0.49218,0.012964,0.040589,0.0054,-0.137,0.0067154
60,0.081368,-0.35964,0.014937,0.02875,-0.043272,-0.15048,-0.013674
61,0.058348,-0.19521,0.023817,0.013293,-0.080763,-0.15048,-0.021567
62,0.048153,-0.030118,0.038616,-0.0051238,-0.10017,-0.13667,-0.015319
63,0.041247,0.10472,0.052757,-0.022225,-0.1074,-0.11299,0.0057288
64,0.019541,0.18726,0.060321,-0.031433,-0.10609,-0.08471,0.033025
65,-0.026829,0.21489,0.061307,-0.0265,-0.10444,-0.065635,0.056374
66,-0.088985,0.19877,0.054072,-0.0093991,-0.10313,-0.060373,0.074791
67,-0.14818,0.15799,0.038287,0.013951,-0.10247,-0.068266,0.089261
68,-0.18337,0.11294,0.0093464,0.035656,-0.099509,-0.083723,0.096167
69,-0.18732,0.083342,-0.028473,0.048153,-0.092931,-0.1005,0.096167
70,-0.1643,0.076106,-0.068924,0.049468,-0.08471,-0.11266,0.091892
71,-0.13667,0.09255,-0.10543,0.045851,-0.084381,-0.11825,0.083013
72,-0.1268,0.12281,-0.13766,0.044206,-0.093589,-0.11201,0.069858
73,-0.14062,0.15142,-0.16397,0.043549,-0.1074,-0.091945,0.056046
74,-0.16726,0.16095,-0.1814,0.042562,-0.12417,-0.05544,0.048153
75,-0.17975,0.15734,-0.18469,0.031709,-0.14522,-0.0047949,0.050784
76,-0.15706,0.15207,-0.17153,0.010333,-0.16627,0.058348,0.063938
77,-0.095562,0.16128,-0.14851,-0.01795,-0.17975,0.12971,0.082684
78,-0.015648,0.18759,-0.12056,-0.045246,-0.18896,0.1945,0.098798
79,0.060321,0.22443,-0.098522,-0.064649,-0.19324,0.23331,0.10406
80,0.11656,0.25863,-0.082079,-0.071555,-0.19685,0.23363,0.10143
81,0.1524,0.28,-0.070897,-0.068924,-0.1962,0.19253,0.092221
82,0.17115,0.28625,-0.063662,-0.058729,-0.18765,0.12149,0.074133
83,0.18036,0.28132,-0.060373,-0.045574,-0.16791,0.047495,0.050784
84,0.17871,0.26981,-0.063662,-0.034722,-0.14095,-0.011372,0.030394
85,0.16753,0.25074,-0.077803,-0.03242,-0.11102,-0.047219,0.020528
86,0.15175,0.22212,-0.095891,-0.034722,-0.08175,-0.060702,0.021514
87,0.13925,0.18365,-0.10937,-0.037024,-0.061689,-0.05544,0.014608
88,0.13464,0.13728,-0.11201,-0.036695,-0.050507,-0.04393,-0.0047949
89,0.13563,0.094852,-0.10346,-0.031762,-0.046561,-0.030118,-0.029131
90,0.13728,0.062623,-0.090629,-0.022554,-0.039655,-0.016634,-0.045903
91,0.13103,0.031052,-0.075501,-0.0087413,-0.012688,-0.0080836,-0.048205
92,0.10439,-0.0087413,-0.06136,0.0057288,0.059992,-0.0047949,-0.046232
93,0.052757,-0.062676,-0.050836,0.017568,0.19121,-0.0077547,-0.051823
94,-0.019265,-0.12384,-0.043601,0.02283,0.35334,-0.0077547,-0.067609
95,-0.094576,-0.17581,-0.035708,0.021514,0.49212,-0.0034794,-0.086354
96,-0.15114,-0.20244,-0.023869,0.014279,0.55296,0.0044134,-0.090958
97,-0.17581,-0.19488,-0.0090702,-0.00051963,0.5181,0.0093464,-0.077475
98,-0.16923,-0.15509,0.0037556,-0.019265,0.41056,0.0047422,-0.051823
99,-0.14259,-0.094576,0.010004,-0.033735,0.27145,-0.0077547,-0.027487
100,-0.10444,-0.025185,0.010991,-0.03538,0.14188,-0.018607,-0.01795
101,-0.057085,0.044535,0.0083598,-0.027487,0.044535,-0.017621,-0.026171
102,0.0067154,0.10899,0.0070443,-0.016634,-0.013674,-0.002164,-0.041957
103,0.094523,0.16852,0.0073732,-0.0034794,-0.034064,0.020528,-0.044588
104,0.19713,0.21982,0.0034268,0.0090175,-0.024856,0.040589,-0.027487
105,0.28691,0.25764,-0.0090702,0.020199,-0.0031506,0.047495,0.00046697
106,0.33854,0.27178,-0.030775,0.027763,0.014279,0.040589,0.025461
107,0.34216,0.25435,-0.054454,0.030065,0.015924,0.028092,0.04322
108,0.30434,0.20601,-0.069253,0.027434,0.0067154,0.016253,0.044864
109,0.24876,0.13267,-0.070897,0.027763,-0.0080836,0.0070443,0.024145
110,0.19746,0.044864,-0.058071,0.034998,-0.019265,0.0014536,-0.01203
111,0.15734,-0.039984,-0.034722,0.051113,-0.022225,-0.0018351,-0.046561
112,0.12017,-0.11102,-0.011372,0.071502,-0.018278,-0.0057815,-0.063333
113,0.076106,-0.15805,0.0080309,0.093865,-0.012359,-0.010715,-0.056756
114,0.025132,-0.17613,0.021843,0.11195,-0.0047949,-0.012359,-0.031104
115,-0.021238,-0.16857,0.027434,0.12017,0.0021113,-0.0097279,0.0017824
116,-0.051165,-0.15015,0.02283,0.10932,0.0017824,-0.0074258,0.029078
117,-0.058071,-0.12286,0.0093464,0.073804,-0.010715,-0.0090702,0.039931
118,-0.041628,-0.089972,-0.013345,0.011648,-0.035708,-0.011701,0.036314
119,-0.0054526,-0.047219,-0.040641,-0.063991,-0.064649,-0.015648,0.026447
120,0.045522,0.0017824,-0.066293,-0.13272,-0.088985,-0.023869,0.018884
121,0.096825,0.050784,-0.07879,-0.18008,-0.10444,-0.039326,0.013293
122,0.13991,0.093208,-0.075501,-0.20014,-0.11102,-0.063662,0.0063866
123,0.17378,0.1284,-0.056756,-0.19126,-0.10773,-0.089314,-0.00051963
124,0.20831,0.15767,-0.030118,-0.1587,-0.098193,-0.11266,-0.010715
125,0.24449,0.18102,-0.0028217,-0.11201,-0.081421,-0.12483,-0.019265
126,0.27968,0.19516,0.019212,-0.063004,-0.060373,-0.12319,-0.020909
127,0.30302,0.19253,0.033354,-0.018936,-0.038997,-0.11464,-0.015648
128,0.30533,0.17279,0.039602,0.014279,-0.021896,-0.10641,-0.007097
129,0.28494,0.14418,0.036642,0.034998,-0.010386,-0.10082,0.0011247
130,0.24646,0.12083,0.021186,0.050126,-0.004466,-0.0903,0.010004
131,0.19647,0.11426,-0.0054526,0.06624,-0.004466,-0.074186,0.025132
132,0.13925,0.12675,-0.036037,0.080382,-0.0090702,-0.051165,0.049468
133,0.072818,0.15109,-0.066293,0.087946,-0.013345,-0.023869,0.077093
134,-0.0018351,0.17312,-0.092931,0.089919,-0.016963,0.0021113,0.10274
135,-0.077146,0.18397,-0.11661,0.091563,-0.019265,0.017897,0.12182
136,-0.14292,0.1843,-0.13568,0.09551,-0.022225,0.018226,0.12708
137,-0.19258,0.17641,-0.15147,0.10373,-0.021896,0.0034268,0.11985
138,-0.23073,0.15635,-0.16068,0.12577,-0.01203,-0.023211,0.10669
139,-0.27184,0.11787,-0.15936,0.17214,0.016581,-0.057085,0.090248
140,-0.32906,0.053086,-0.14752,0.25074,0.060979,-0.091945,0.071173
141,-0.3922,-0.039984,-0.13568,0.36288,0.11689,-0.11793,0.050126
142,-0.43594,-0.14687,-0.12582,0.49475,0.18036,-0.1222,0.036642
143,-0.43726,-0.24224,-0.098851,0.59933,0.25271,-0.095562,0.044206
144,-0.38727,-0.3113,-0.037024,0.60624,0.30796,-0.050179,0.070187
145,-0.2942,-0.35372,0.055388,0.45529,0.29645,-0.002164,0.10603
146,-0.18567,-0.3751,0.13892,0.15668,0.17904,0.036642,0.13826
147,-0.0903,-0.37806,0.16983,-0.19389,-0.022225,0.06361,0.15109
148,-0.026829,-0.36589,0.1307,-0.46685,-0.23566,0.084657,0.1376
149,-0.0011774,-0.34123,0.042562,-0.59445,-0.38628,0.11919,0.1011
150,-0.004466,-0.30998,-0.061689,-0.59084,-0.44318,0.18167,0.058676
151,-0.024527,-0.28006,-0.14917,-0.51421,-0.41687,0.27343,0.025461
152,-0.053796,-0.25506,-0.1883,-0.41818,-0.33564,0.38261,0.014608
153,-0.091287,-0.23171,-0.15213,-0.32807,-0.23171,0.49311,0.01987
154,-0.12911,-0.20442,-0.020252,-0.24487,-0.13338,0.59276,0.024474
155,-0.1587,-0.16561,0.19845,-0.15969,-0.057743,0.67037,0.017897
156,-0.16923,-0.11464,0.44674,-0.072213,-0.0097279,0.72102,0.0050711
157,-0.16331,-0.062676,0.64373,0.012306,0.014937,0.73581,-0.002164
158,-0.1518,-0.019265,0.72924,0.081039,0.025461,0.71246,0.0014536
159,-0.14818,0.0050711,0.68912,0.13037,0.032696,0.65064,0.0073732
160,-0.15542,0.0070443,0.56086,0.15865,0.041247,0.5579,0.012964
161,-0.1712,-0.010386,0.39905,0.16786,0.05177,0.44214,0.024474
162,-0.18797,-0.038011,0.23791,0.16391,0.059992,0.32341,0.042562
163,-0.20475,-0.063004,0.084986,0.14912,0.059005,0.21851,0.060979
164,-0.22119,-0.068595,-0.058729,0.12905,0.050784,0.13103,0.071831
165,-0.23171,-0.049192,-0.18797,0.11195,0.041575,0.064925,0.076764
166,-0.2304,-0.011701,-0.2919,0.10077,0.038944,0.024474,0.076764
167,-0.21856,0.023817,-0.35767,0.099785,0.046837,0.0054,0.066898
168,-0.19981,0.037629,-0.38201,0.10669,0.075449,-0.0008485,0.043877
169,-0.17712,0.022501,-0.36951,0.1182,0.13004,-0.0015062,0.018884
170,-0.14687,-0.0087413,-0.32643,0.13366,0.21226,0.0001381,0.0030979
171,-0.10378,-0.027816,-0.26131,0.15569,0.31519,0.0083598,0.0014536
172,-0.035051,-0.0080836,-0.17581,0.17641,0.43161,0.02283,0.014937
173,0.060979,0.061307,-0.060702,0.16622,0.54474,0.04026,0.045522
174,0.17378,0.16128,0.10176,0.07808,0.61808,0.053415,0.083342
175,0.27178,0.25041,0.29776,-0.11168,0.60854,0.049139,0.11393
176,0.32539,0.29184,0.4816,-0.3307,0.49015,0.010991,0.12017
177,0.31881,0.28033,0.59341,-0.43364,0.27737,-0.065635,0.08959
178,0.2629,0.23429,0.59966,-0.32807,0.029078,-0.16594,0.019212
179,0.20108,0.18069,0.50791,-0.048534,-0.17712,-0.26098,-0.069253
180,0.16589,0.13563,0.35959,0.27244,-0.28598,-0.32807,-0.14325
181,0.16457,0.10702,0.20897,0.50725,-0.28631,-0.35701,-0.18271
182,0.18365,0.10406,0.092221,0.59966,-0.20475,-0.34879,-0.18337
183,0.19845,0.12971,0.024474,0.56382,-0.084052,-0.31492,-0.15377
184,0.18957,0.17641,0.0001381,0.44411,0.029407,-0.27184,-0.11332
185,0.15175,0.2264,0.0037556,0.2629,0.099456,-0.22777,-0.079448
186,0.098141,0.26882,0.016581,0.017568,0.10998,-0.19192,-0.055769
187,0.044864,0.30993,0.023817,-0.27315,0.048153,-0.16956,-0.035051
188,0.0021113,0.36617,0.018555,-0.52112,-0.084381,-0.16561,-0.024198
189,-0.026829,0.43161,0.0057288,-0.60202,-0.25802,-0.17811,-0.034722
190,-0.044917,0.48883,-0.012688,-0.45765,-0.42147,-0.2031,-0.063991
191,-0.055769,0.52106,-0.03242,-0.15015,-0.51783,-0.23171,-0.094576
192,-0.051494,0.52369,-0.047877,0.18069,-0.51947,-0.25145,-0.11529
193,-0.024856,0.49771,-0.057743,0.40563,-0.43923,-0.25802,-0.12253
194,0.029078,0.4395,-0.058729,0.46943,-0.31821,-0.25145,-0.11562
195,0.11097,0.33953,-0.045574,0.39609,-0.19817,-0.23599,-0.095891
196,0.207,0.18759,-0.019594,0.25304,-0.10247,-0.22349,-0.064649
197,0.29612,-0.0084125,0.011977,0.10801,-0.038668,-0.21823,-0.031433
198,0.35696,-0.21823,0.035985,0.0093464,0.00079584,-0.21724,-0.00019077
199,0.37768,-0.41062,0.036314,-0.027487,0.01987,-0.21691,0.028421
200,0.35367,-0.57176,-0.00051963,-0.019265,0.020199,-0.21659,0.050126
201,0.29776,-0.70166,-0.072542,0.0044134,0.0080309,-0.21165,0.063938
202,0.22048,-0.80756,-0.16199,0.023488,-0.0061104,-0.19817,0.066898
203,0.1376,-0.89997,-0.24355,0.029736,-0.013017,-0.17613,0.054401
204,0.061307,-0.97331,-0.30045,0.027763,-0.0057815,-0.14818,0.028421
205,0.00046697,-0.99863,-0.32248,0.027434,0.017897,-0.11727,0.0044134
206,-0.039984,-0.93779,-0.30801,0.035656,0.053415,-0.087012,0.0011247
207,-0.061689,-0.77402,-0.26427,0.046508,0.085315,-0.063662,0.019541
208,-0.081421,-0.53855,-0.2031,0.034669,0.091563,-0.050836,0.047495
209,-0.12154,-0.31031,-0.14193,-0.014003,0.064596,-0.044259,0.065912
210,-0.19324,-0.17022,-0.095891,-0.085039,0.012306,-0.037682,0.064925
211,-0.28795,-0.1495,-0.07583,-0.14983,-0.04689,-0.022883,0.050455
212,-0.3705,-0.2179,-0.084052,-0.18732,-0.092603,0.002769,0.036314
213,-0.39582,-0.30439,-0.11102,-0.18797,-0.10641,0.029736,0.023817
214,-0.33202,-0.34221,-0.13963,-0.15476,-0.087341,0.050784,0.018884
215,-0.18929,-0.30406,-0.1564,-0.10641,-0.037024,0.066898,0.017239
216,-0.013017,-0.20146,-0.15443,-0.060702,0.032696,0.080711,0.019212
217,0.1455,-0.069253,-0.13075,-0.027158,0.11524,0.09551,0.017897
218,0.25468,0.06065,-0.089972,-0.0038083,0.19581,0.11787,0.018555
219,0.30664,0.16523,-0.038011,0.010991,0.26619,0.14648,0.035656
220,0.30664,0.23561,0.014937,0.021843,0.32111,0.17871,0.065912
221,0.26586,0.27441,0.057361,0.030723,0.35663,0.20897,0.083013
222,0.19877,0.28921,0.087946,0.037958,0.36979,0.23265,0.072489
223,0.10866,0.29217,0.10899,0.047166,0.3586,0.24482,0.048482
224,0.0030979,0.29447,0.12445,0.056703,0.32078,0.24218,0.029078
225,-0.10674,0.29974,0.13991,0.067556,0.25764,0.22081,0.026776
226,-0.20869,0.30237,0.15372,0.075449,0.17444,0.18003,0.044535
227,-0.29551,0.28559,0.1626,0.080382,0.079066,0.12741,0.072489
228,-0.36392,0.23462,0.15536,0.081368,-0.014332,0.073476,0.090577
229,-0.41851,0.15438,0.12379,0.079395,-0.089314,0.026119,0.086959
230,-0.4583,0.061636,0.063938,0.077422,-0.13141,-0.0093991,0.062952
231,-0.47277,-0.022883,-0.017621,0.076764,-0.13667,-0.02946,0.033025
232,-0.4514,-0.085696,-0.10674,0.079395,-0.11825,-0.030775,0.01132
233,-0.39089,-0.12417,-0.18436,0.083013,-0.0903,-0.015976,0.0073732
234,-0.3113,-0.14884,-0.23632,0.090248,-0.059387,0.0070443,0.021843
235,-0.24158,-0.1735,-0.25704,0.099127,-0.02946,0.027105,0.045851
236,-0.2054,-0.2008,-0.25737,0.097154,-0.0097279,0.032038,0.063281
237,-0.21198,-0.22546,-0.25572,0.059992,-0.021238,0.012306,0.065912
238,-0.25046,-0.23073,-0.25802,-0.015648,-0.068266,-0.027816,0.054401
239,-0.29288,-0.19883,-0.25967,-0.1074,-0.137,-0.067609,0.030394
240,-0.30275,-0.12582,-0.24816,-0.18107,-0.19981,-0.092603,0.0057288
241,-0.25638,-0.021238,-0.22053,-0.21165,-0.23698,-0.099838,-0.012359
242,-0.15805,0.088603,-0.17844,-0.19652,-0.23632,-0.09918,-0.022225
243,-0.030118,0.18496,-0.12582,-0.1495,-0.20409,-0.098851,-0.026171
244,0.10406,0.25929,-0.066951,-0.092931,-0.15279,-0.10017,-0.027487
245,0.22607,0.31322,-0.010057,-0.042944,-0.1005,-0.10115,-0.022883
246,0.32341,0.35071,0.039602,-0.010386,-0.061689,-0.098522,-0.015648
247,0.39182,0.36979,0.075778,0.0063866,-0.038997,-0.090958,-0.013017
248,0.42635,0.36979,0.093865,0.013951,-0.023869,-0.076159,-0.016305
249,0.42799,0.35367,0.097812,0.020199,-0.014661,-0.053796,-0.02354
250,0.40103,0.32703,0.099456,0.025461,-0.012688,-0.033735,-0.027158
251,0.36025,0.29612,0.098469,0.028092,-0.022225,-0.022225,-0.027487
252,0.31355,0.26586,0.07808,0.027434,-0.04689,-0.017621,-0.028802
253,0.26751,0.23824,0.019212,0.024145,-0.082736,-0.016963,-0.03538
254,0.2264,0.2093,-0.07879,0.017568,-0.12121,-0.016963,-0.04985
255,0.19746,0.18496,-0.18797,0.0090175,-0.14785,-0.014003,-0.068266
256,0.17806,0.17674,-0.27216,0.00046697,-0.15344,-0.0064392,-0.082079
257,0.16424,0.19154,-0.30439,-0.0024928,-0.13766,0.0060577,-0.087669
258,0.15043,0.22739,-0.28532,0.002769,-0.1051,0.02579,-0.088327
259,0.13728,0.27408,-0.23434,0.014937,-0.060373,0.046837,-0.086025
260,0.12379,0.32013,-0.1735,0.026776,-0.0074258,0.063938,-0.079777
261,0.10899,0.35203,-0.1199,0.033354,0.050126,0.073476,-0.073857
262,0.095839,0.36058,-0.070897,0.038944,0.10472,0.076106,-0.063662
263,0.090905,0.34315,0.0047422,0.046837,0.15207,0.075449,-0.049192
264,0.096167,0.31092,0.14879,0.054401,0.18397,0.075778,-0.032091
265,0.10538,0.28296,0.39017,0.056374,0.19549,0.07808,-0.015976
266,0.10965,0.27244,0.71082,0.051113,0.18562,0.078409,-0.0011774
267,0.11294,0.28033,1.0361,0.039273,0.16227,0.072489,0.0083598
268,0.11919,0.29711,1.2643,0.025461,0.13267,0.062952,0.012306
269,0.12938,0.30368,1.3107,0.0024402,0.10176,0.049797,0.0096753
270,0.14089,0.27935,1.1515,-0.03538,0.070187,0.038616,0.0021113
271,0.14517,0.21061,0.83974,-0.081421,0.041904,0.031381,-0.0087413
272,0.13728,0.099785,0.47831,-0.12384,0.024474,0.029078,-0.01795
273,0.11985,-0.020581,0.17904,-0.15015,0.01987,0.033683,-0.022883
274,0.10176,-0.11365,0.0040845,-0.1541,0.021843,0.04322,-0.019594
275,0.088275,-0.1541,-0.039984,-0.1347,0.030723,0.050455,-0.0080836
276,0.080053,-0.14555,0.020528,-0.09622,0.042233,0.050784,0.010662
277,0.074462,-0.10872,0.14056,-0.051165,0.053086,0.04618,0.029736
278,0.068543,-0.069911,0.26553,-0.014003,0.060321,0.039931,0.043877
279,0.067227,-0.041957,0.35564,0.012964,0.062294,0.03434,0.054072
280,0.076106,-0.031104,0.39774,0.029736,0.062952,0.037958,0.057361
281,0.095181,-0.028473,0.39544,0.036642,0.065254,0.052099,0.055388
282,0.11886,-0.025514,0.35827,0.032038,0.070845,0.06624,0.050126
283,0.13859,-0.015319,0.29612,0.01691,0.078737,0.072489,0.04618
284,0.14484,-0.0011774,0.21357,-0.0087413,0.087288,0.067556,0.042233
285,0.13662,0.012306,0.11491,-0.040313,0.092221,0.057032,0.038944
286,0.1182,0.021186,0.00079584,-0.066951,0.095839,0.050455,0.037629
287,0.089919,0.024145,-0.13207,-0.084381,0.10011,0.051113,0.041247
288,0.05769,0.018884,-0.28269,-0.098851,0.10439,0.06065,0.051113
289,0.018884,0.0090175,-0.4412,-0.1199,0.10801,0.070516,0.065583
290,-0.031433,-0.004466,-0.58393,-0.14654,0.10702,0.07512,0.077093
291,-0.091616,-0.022883,-0.67832,-0.15936,0.099456,0.070187,0.083342
292,-0.15509,-0.039984,-0.70166,-0.13009,0.080711,0.059992,0.085644
293,-0.20968,-0.050507,-0.65102,-0.040641,0.052757,0.047824,0.087288
294,-0.24289,-0.045903,-0.5494,0.092221,0.026447,0.031381,0.091234
295,-0.24257,-0.025842,-0.43364,0.22541,0.011977,0.0096753,0.10011
296,-0.20508,0.0057288,-0.33596,0.31585,0.014937,-0.007097,0.11426
297,-0.14391,0.035327,-0.27151,0.34512,0.031381,-0.0093991,0.1284
298,-0.091945,0.052428,-0.23599,0.33229,0.054401,0.0070443,0.12708
299,-0.076159,0.055388,-0.21593,0.30631,0.079066,0.032696,0.10702
300,-0.10148,0.047495,-0.19916,0.27836,0.10274,0.050784,0.079066
301,-0.14719,0.033025,-0.17745,0.23298,0.10702,0.051441,0.051113
302,-0.18501,0.019212,-0.14785,0.14714,0.073147,0.034669,0.025132
303,-0.19356,0.0090175,-0.11661,0.021186,0.0044134,0.0024402,0.0024402
304,-0.16791,-0.0024928,-0.087341,-0.11003,-0.078461,-0.033406,-0.0064392
305,-0.11858,-0.018278,-0.061689,-0.20836,-0.14423,-0.06432,0.002769
306,-0.063662,-0.033735,-0.043601,-0.25605,-0.18074,-0.082408,0.025461
307,-0.019265,-0.047877,-0.030775,-0.25605,-0.19126,-0.083394,0.054072
308,0.0021113,-0.065307,-0.023211,-0.22546,-0.186,-0.07287,0.080382
309,0.0024402,-0.088327,-0.014661,-0.1814,-0.17318,-0.060045,0.09551
310,-0.020581,-0.12023,-0.0041372,-0.12812,-0.15739,-0.055769,0.092221
311,-0.059716,-0.15772,0.0090175,-0.063004,-0.13864,-0.059716,0.073147
312,-0.10674,-0.19916,0.018555,0.010991,-0.11398,-0.064978,0.049468
313,-0.15509,-0.24355,0.01987,0.085972,-0.084052,-0.065964,0.031381
314,-0.20606,-0.28598,0.015924,0.1501,-0.048534,-0.056427,0.018226
315,-0.25309,-0.3136,0.012635,0.19253,-0.016634,-0.028473,0.012964
316,-0.27611,-0.31525,0.014608,0.21028,0.0040845,0.014608,0.015595
317,-0.25638,-0.28499,0.023488,0.20667,0.0073732,0.071173,0.030065
318,-0.1906,-0.22514,0.033683,0.18957,-0.0024928,0.14024,0.057361
319,-0.093589,-0.14917,0.04026,0.16589,-0.02354,0.2093,0.087946
320,0.011648,-0.078461,0.040918,0.14089,-0.052481,0.25731,0.11064
321,0.10866,-0.024856,0.038944,0.11656,-0.082079,0.27277,0.1159
322,0.1843,0.010991,0.033683,0.089261,-0.099509,0.25764,0.10603
323,0.23265,0.031709,0.01987,0.061965,-0.092603,0.21785,0.084328
324,0.24975,0.041575,-0.0074258,0.036642,-0.059716,0.16457,0.059005
325,0.23561,0.039931,-0.044259,0.013951,-0.014332,0.10932,0.035656
326,0.20042,0.024145,-0.078132,-0.0077547,0.028421,0.064267,0.010333
327,0.15536,-0.0041372,-0.098522,-0.026829,0.063281,0.040918,-0.019265
328,0.11064,-0.039326,-0.097864,-0.040641,0.088275,0.047495,-0.048205
329,0.071502,-0.067937,-0.07583,-0.046232,0.10669,0.080382,-0.07583
330,0.044864,-0.07583,-0.042286,-0.042944,0.12248,0.12873,-0.092274
331,0.039602,-0.062676,-0.0084125,-0.026171,0.13991,0.18003,-0.092274
332,0.052757,-0.037024,0.019541,0.0040845,0.15635,0.21851,-0.077475
333,0.072489,-0.0080836,0.040918,0.041904,0.17016,0.23298,-0.055112
334,0.082355,0.016253,0.056046,0.075449,0.20108,0.21785,-0.036037
335,0.075778,0.029736,0.06361,0.092221,0.26981,0.17674,-0.027487
336,0.058348,0.033025,0.063281,0.093865,0.37242,0.12313,-0.038011
337,0.041904,0.026119,0.06065,0.086959,0.47371,0.069529,-0.062347
338,0.031709,0.013293,0.064596,0.076764,0.52633,0.025132,-0.085039
339,0.032367,-0.0028217,0.077751,0.069858,0.49706,-0.0074258,-0.088985
340,0.039273,-0.014661,0.096167,0.076106,0.38491,-0.030118,-0.065635
341,0.051441,-0.017292,0.11491,0.098469,0.22245,-0.045246,-0.030118
342,0.061636,-0.012359,0.1307,0.13234,0.050784,-0.056098,-0.0047949
343,0.063938,-0.0015062,0.14385,0.16293,-0.098193,-0.069582,-0.002164
344,0.054072,0.0080309,0.15076,0.17542,-0.20672,-0.088327,-0.022554
345,0.035656,0.013622,0.14846,0.15668,-0.27611,-0.11168,-0.04985
346,0.013951,0.014608,0.13859,0.10702,-0.30637,-0.13536,-0.069253
347,-0.0084125,0.013951,0.12281,0.043877,-0.30406,-0.16002,-0.070568
348,-0.033406,0.011648,0.10735,-0.014003,-0.27578,-0.18501,-0.053467
349,-0.06432,0.0070443,0.095181,-0.057743,-0.23237,-0.20113,-0.028144
350,-0.099509,-0.0024928,0.079724,-0.089314,-0.19192,-0.20376,-0.0031506
351,-0.12286,-0.014661,0.064267,-0.10543,-0.16101,-0.1883,0.019541
352,-0.12154,-0.021567,0.053086,-0.095233,-0.12812,-0.16199,0.034011
353,-0.089314,-0.016305,0.048482,-0.052152,-0.090958,-0.13272,0.031709
354,-0.035708,0.0037556,0.048153,0.0093464,-0.068595,-0.11694,0.0086887
355,0.016581,0.022501,0.045522,0.052428,-0.086683,-0.12187,-0.021238
356,0.047495,0.034011,0.041575,0.054072,-0.14687,-0.14917,-0.044917
357,0.048482,0.034998,0.038616,0.012306,-0.22316,-0.18436,-0.0584
358,0.02875,0.029407,0.036314,-0.060702,-0.27874,-0.20376,-0.061689
359,0.0083598,0.018555,0.034998,-0.14193,-0.28663,-0.1962,-0.053467
360,0.0067154,0.0086887,0.031381,-0.20672,-0.24651,-0.16824,-0.034722
361,0.026776,-0.00019077,0.023817,-0.24026,-0.17646,-0.13338,-0.013017
362,0.056703,-0.0054526,0.017239,-0.24914,-0.093918,-0.098522,0.0014536
363,0.082026,-0.0067681,0.018226,-0.24585,-0.020252,-0.065635,0.01132
364,0.094852,-0.0038083,0.026119,-0.23895,0.025132,-0.040313,0.013951
365,0.1034,0.0037556,0.035985,-0.21264,0.036642,-0.022554,0.01132
366,0.11754,0.018555,0.046508,-0.13832,0.021514,-0.014332,0.010991
367,0.14089,0.039273,0.059005,-0.0047949,-0.0034794,-0.015648,0.014937
368,0.16753,0.065912,0.0692,0.15832,-0.018278,-0.022883,0.020528
369,0.19121,0.089261,0.069529,0.29875,-0.01795,-0.030118,0.02579
370,0.19285,0.1011,0.056046,0.36913,-0.0087413,-0.032749,0.032696
371,0.15536,0.10143,0.031381,0.35466,-0.0034794,-0.031762,0.035656
372,0.076435,0.09551,0.0014536,0.27935,-0.0084125,-0.029131,0.034011
373,-0.018607,0.093208,-0.025185,0.17904,-0.021896,-0.024856,0.028421
374,-0.10378,0.10274,-0.044259,0.085972,-0.037353,-0.021238,0.026119
375,-0.16134,0.1159,-0.053467,0.020199,-0.052152,-0.019923,0.034011
376,-0.19192,0.11689,-0.056427,-0.017621,-0.060702,-0.020252,0.048153
377,-0.19916,0.095181,-0.058071,-0.036366,-0.063662,-0.02354,0.06065
378,-0.18666,0.055388,-0.061031,-0.041957,-0.061031,-0.029789,0.066569
379,-0.15476,0.011648,-0.063333,-0.041299,-0.059058,-0.037024,0.060321
380,-0.10806,-0.022554,-0.063662,-0.034393,-0.057414,-0.044917,0.049468
381,-0.055112,-0.041957,-0.061689,-0.026171,-0.053138,-0.048534,0.041247
382,-0.0061104,-0.054783,-0.0584,-0.016963,-0.04393,-0.041628,0.037958
383,0.026776,-0.069253,-0.053467,-0.0047949,-0.032091,-0.026829,0.043549
384,0.039602,-0.086354,-0.049192,0.0073732,-0.024856,-0.011701,0.053743
385,0.033683,-0.098851,-0.045574,0.015924,-0.026829,-0.004466,0.062952
386,0.017239,-0.10378,-0.041957,0.01691,-0.032091,-0.0077547,0.066569
387,-0.002164,-0.098193,-0.038011,0.0090175,-0.03242,-0.016305,0.069529
388,-0.017292,-0.078461,-0.031433,-0.0024928,-0.020252,-0.027487,0.070845
389,-0.030118,-0.050507,-0.020252,-0.011043,-0.0034794,-0.036695,0.066898
390,-0.042615,-0.02354,-0.0074258,-0.015976,0.010333,-0.043272,0.054401
391,-0.054125,0.0001381,0.0030979,-0.018278,0.019541,-0.042944,0.037958
392,-0.064978,0.019212,0.0044134,-0.01499,0.028092,-0.033078,0.025461
393,-0.071884,0.035985,-0.013017,-0.0038083,0.042891,-0.015976,0.025461
394,-0.07287,0.053415,-0.060045,0.01987,0.061636,0.0024402,0.031381
395,-0.066951,0.071173,-0.14325,0.050126,0.079724,0.020528,0.038616
396,-0.04985,0.08959,-0.25046,0.075449,0.093536,0.039931,0.048153
397,-0.021567,0.10866,-0.35833,0.083342,0.097483,0.05769,0.061307
398,0.0093464,0.12807,-0.44186,0.071831,0.092221,0.070845,0.070845
399,0.034998,0.14056,-0.48856,0.04618,0.081697,0.076435,0.071502
400,0.042562,0.14122,-0.5027,0.017239,0.068871,0.078737,0.063281
401,0.02875,0.12741,-0.49612,-0.012359,0.053743,0.08367,0.051441
402,0.002769,0.10077,-0.48231,-0.033735,0.036971,0.089919,0.038944
403,-0.019923,0.06624,-0.46028,-0.042615,0.024474,0.09551,0.031381
404,-0.028144,0.034998,-0.41489,-0.032091,0.018884,0.099456,0.034011
405,-0.016305,0.014937,-0.31557,-0.0051238,0.019212,0.10143,0.043549
406,0.0073732,0.0063866,-0.1324,0.030065,0.023817,0.097483,0.061307
407,0.032038,0.0080309,0.15339,0.067227,0.030394,0.083999,0.081039
408,0.046837,0.010662,0.51942,0.10011,0.039602,0.063281,0.086959
409,0.043877,0.002769,0.88315,0.11886,0.048153,0.038944,0.076435
410,0.028421,-0.021896,1.1416,0.11689,0.052099,0.017239,0.057032
411,0.0047422,-0.060045,1.2242,0.093208,0.048482,0.0044134,0.037958
412,-0.015648,-0.1051,1.1147,0.055717,0.041575,0.0040845,0.026119
413,-0.023869,-0.13634,0.8667,0.013951,0.029078,0.013293,0.023488
414,-0.012688,-0.14127,0.56546,-0.02354,0.016581,0.023159,0.02875
415,0.010004,-0.12286,0.29809,-0.051165,0.0083598,0.025461,0.029407
416,0.030723,-0.10082,0.11097,-0.067937,0.0070443,0.014937,0.024145
417,0.035656,-0.089643,0.010991,-0.078132,0.010004,-0.007097,0.012635
418,0.020857,-0.087998,-0.024856,-0.086683,0.013622,-0.033078,-0.0011774
419,-0.007097,-0.093918,-0.033735,-0.098193,0.017239,-0.052481,-0.018936
420,-0.036037,-0.1005,-0.040313,-0.1074,0.021186,-0.059058,-0.039326
421,-0.056098,-0.10181,-0.057085,-0.10346,0.031709,-0.051823,-0.062347
422,-0.060702,-0.092603,-0.079448,-0.077475,0.051113,-0.034393,-0.083065
423,-0.053796,-0.073528,-0.098193,-0.031762,0.078409,-0.012359,-0.09622
424,-0.043272,-0.044588,-0.10313,0.021843,0.10538,0.0060577,-0.10082
425,-0.033735,-0.011701,-0.091945,0.066898,0.12905,0.021514,-0.097864
426,-0.019923,0.01987,-0.069582,0.095181,0.14517,0.036642,-0.0903
427,0.0047422,0.049468,-0.043272,0.10801,0.1524,0.047495,-0.077803
428,0.0373,0.080053,-0.023211,0.11426,0.15372,0.052757,-0.064649
429,0.074462,0.11031,-0.013017,0.11064,0.14287,0.050784,-0.051165
430,0.10735,0.13826,-0.016634,0.083013,0.10998,0.045851,-0.040641
431,0.13497,0.16391,-0.031433,0.025461,0.051113,0.034669,-0.030447
432,0.15339,0.18496,-0.04689,-0.045574,-0.021238,0.019212,-0.024527
433,0.15964,0.20009,-0.059387,-0.099509,-0.085039,0.0096753,-0.022883
434,0.15503,0.20601,-0.063991,-0.11858,-0.11562,0.013622,-0.029131
435,0.14221,0.19351,-0.057414,-0.10346,-0.1074,0.032696,-0.034393
436,0.12313,0.1649,-0.038997,-0.06728,-0.067937,0.063938,-0.034393
437,0.10011,0.13629,-0.015319,-0.028802,-0.013674,0.10242,-0.028144
438,0.074462,0.12708,0.00046697,-0.0015062,0.035656,0.14221,-0.011372
439,0.045522,0.14254,-0.0015062,0.0077021,0.06624,0.17773,0.012306
440,0.012635,0.17049,-0.018278,-0.0015062,0.068871,0.20338,0.033025
441,-0.033406,0.19055,-0.039326,-0.02354,0.044535,0.21719,0.04618
442,-0.10017,0.18661,-0.059058,-0.044917,0.0030979,0.21489,0.049139
443,-0.18469,0.15865,-0.074515,-0.054454,-0.041628,0.19483,0.042891
444,-0.27808,0.11064,-0.091287,-0.050179,-0.076159,0.15536,0.027763
445,-0.35964,0.047824,-0.10839,-0.038339,-0.090958,0.10702,0.010662
446,-0.40832,-0.020252,-0.12056,-0.023211,-0.083723,0.059663,-0.0074258
447,-0.40963,-0.073199,-0.11957,-0.007097,-0.061689,0.024145,-0.025514
448,-0.36194,-0.094905,-0.10674,0.0096753,-0.030118,0.0024402,-0.04097
449,-0.27216,-0.073199,-0.092931,0.022501,0.0001381,-0.0047949,-0.048863
450,-0.15542,-0.012359,-0.086354,0.032367,0.029078,0.0073732,-0.040641
451,-0.024856,0.068871,-0.088327,0.042891,0.057361,0.042233,-0.012688
452,0.10768,0.14122,-0.098193,0.053415,0.088603,0.099127,0.031381
453,0.22903,0.18496,-0.11233,0.062952,0.11656,0.16556,0.079066
454,0.32605,0.2014,-0.12648,0.067885,0.1353,0.22245,0.11228
455,0.3836,0.19943,-0.13371,0.068543,0.13432,0.25074,0.11656
456,0.39774,0.19121,-0.12713,0.067556,0.11327,0.2412,0.092221
457,0.37834,0.1751,-0.10576,0.064925,0.082026,0.19976,0.049139
458,0.34742,0.14287,-0.079777,0.059663,0.049468,0.14056,0.0037556
459,0.32341,0.094852,-0.063004,0.052757,0.025461,0.079395,-0.028802
460,0.30796,0.034011,-0.06136,0.041575,0.015924,0.029078,-0.044917
461,0.29743,-0.024527,-0.069911,0.02875,0.022501,-0.0038083,-0.039655
462,0.28494,-0.066951,-0.083394,0.018555,0.038944,-0.01499,-0.011043
463,0.2629,-0.090629,-0.094247,0.015266,0.059663,-0.0077547,0.027763
464,0.22475,-0.10641,-0.10082,0.026447,0.081039,0.010991,0.059663
465,0.17214,-0.12779,-0.10247,0.062952,0.10538,0.027105,0.07512
466,0.11985,-0.15706,-0.095233,0.13432,0.13958,0.032367,0.073147
467,0.081039,-0.18534,-0.072213,0.2412,0.18989,0.028092,0.06065
468,0.064596,-0.19817,-0.029131,0.37702,0.26389,0.030723,0.047166
469,0.073476,-0.18896,0.036314,0.50659,0.36189,0.045522,0.043877
470,0.096496,-0.16232,0.11195,0.56217,0.44871,0.061965,0.05177
471,0.10702,-0.14127,0.16918,0.46976,0.46022,0.059663,0.067227
472,0.084328,-0.15015,0.18397,0.21127,0.34117,0.024474,0.080711
473,0.025132,-0.19389,0.15109,-0.13207,0.10636,-0.035051,0.07808
474,-0.054783,-0.25934,0.08959,-0.41917,-0.16528,-0.10346,0.06361
475,-0.13207,-0.31426,0.029407,-0.55663,-0.37247,-0.1643,0.049139
476,-0.18633,-0.32873,-0.0074258,-0.52868,-0.45699,-0.20343,0.044535
477,-0.21231,-0.29617,-0.01499,-0.38891,-0.41818,-0.21297,0.044535
478,-0.21395,-0.22875,-0.0041372,-0.21494,-0.30078,-0.20146,0.041904
479,-0.2008,-0.15246,0.0080309,-0.067937,-0.16791,-0.18469,0.032696
480,-0.18337,-0.092274,0.0070443,0.020857,-0.06728,-0.17087,0.015266
481,-0.16824,-0.056756,-0.011043,0.049139,-0.017292,-0.16134,-0.004466
482,-0.15476,-0.036366,-0.041299,0.036642,-0.0074258,-0.15443,-0.015648
483,-0.13536,-0.016963,-0.073528,0.010004,-0.017621,-0.15048,-0.011372
484,-0.10641,0.0063866,-0.10444,-0.010386,-0.032749,-0.15048,0.0024402
485,-0.075501,0.029078,-0.13207,-0.017621,-0.04689,-0.15476,0.019541
486,-0.052481,0.04618,-0.15607,-0.011043,-0.058729,-0.16035,0.032038
487,-0.043272,0.059005,-0.16956,0.0044134,-0.064978,-0.16134,0.026447
488,-0.041628,0.068871,-0.16791,0.026119,-0.062347,-0.15246,-0.0028217
489,-0.042286,0.078737,-0.14785,0.04881,-0.051823,-0.13503,-0.041957
490,-0.039326,0.093536,-0.10806,0.067885,-0.044588,-0.11825,-0.066622
491,-0.031104,0.11261,-0.056756,0.080382,-0.044588,-0.10773,-0.066293
492,-0.017621,0.133,-0.0067681,0.088603,-0.05281,-0.10214,-0.053796
493,-0.0034794,0.16556,0.028092,0.090905,-0.06432,-0.097207,-0.035708
494,0.0060577,0.2264,0.044206,0.084657,-0.08175,-0.088327,-0.017621
495,0.0093464,0.31585,0.046837,0.068543,-0.10641,-0.073857,-0.0051238
496,0.0057288,0.42339,0.046837,0.042562,-0.13075,-0.055112,-0.002164
497,-0.00019077,0.52238,0.056374,0.015924,-0.1416,-0.034064,-0.0051238
498,-0.0051238,0.59111,0.080053,-0.0008485,-0.13601,-0.015648,-0.0034794
499,-0.011372,0.61907,0.10636,-0.0041372,-0.11858,-0.00051963,0.0060577
500,-0.019265,0.60657,0.12609,0.0054,-0.099509,0.0090175,0.021514
501,-0.022554,0.55823,0.13826,0.022501,-0.088985,0.0080309,0.03434
502,-0.018607,0.477,0.14714,0.039602,-0.089643,-0.0031506,0.035327
503,-0.0074258,0.3563,0.15832,0.054401,-0.096878,-0.014661,0.027105
504,0.0067154,0.19647,0.16885,0.06624,-0.1074,-0.019923,0.015595
505,0.013951,0.011977,0.17181,0.071502,-0.12121,-0.020909,-0.0031506
506,0.0093464,-0.16758,0.16227,0.072818,-0.13207,-0.024527,-0.024527
507,-0.0077547,-0.31426,0.13497,0.07216,-0.13667,-0.031762,-0.041628
508,-0.028473,-0.41884,0.093865,0.064267,-0.13404,-0.038339,-0.053796
509,-0.043272,-0.49251,0.049797,0.045193,-0.12746,-0.041957,-0.063662
510,-0.051165,-0.54973,0.012964,0.017568,-0.11924,-0.038997,-0.072213
511,-0.058071,-0.58919,-0.0061104,-0.0067681,-0.11036,-0.027816,-0.081092
512,-0.064649,-0.5961,-0.0054526,-0.021567,-0.088656,-0.012688,-0.085696
513,-0.068924,-0.5517,0.0077021,-0.022883,-0.043601,0.0030979,-0.079777
514,-0.069911,-0.4514,0.027434,-0.010057,0.026776,0.016581,-0.061689
515,-0.064649,-0.31294,0.047824,0.017239,0.11393,0.031381,-0.037353
516,-0.054454,-0.16298,0.064267,0.035656,0.20272,0.049139,-0.013674
517,-0.038668,-0.03242,0.077093,0.0017824,0.26751,0.067227,0.0034268
518,-0.023869,0.059663,0.087288,-0.13108,0.28527,0.084328,0.024474
519,-0.018278,0.10702,0.093865,-0.34188,0.231,0.094523,0.049468
520,-0.022883,0.11689,0.092221,-0.51487,0.098469,0.090577,0.064267
521,-0.033078,0.10702,0.080382,-0.51585,-0.081421,0.066898,0.05769
522,-0.041299,0.094852,0.06065,-0.30209,-0.25375,0.027434,0.034998
523,-0.039326,0.094852,0.042562,0.044206,-0.36885,-0.012688,0.0063866
524,-0.026171,0.10801,0.033025,0.3711,-0.40141,-0.036037,-0.0097279
525,0.0030979,0.13201,0.042233,0.55987,-0.35767,-0.038339,-0.0051238
526,0.055059,0.16786,0.072489,0.57598,-0.26328,-0.021896,0.023159
527,0.12577,0.21456,0.11919,0.45989,-0.15279,0.0054,0.06361
528,0.20108,0.27606,0.1672,0.28461,-0.051165,0.034669,0.10307
529,0.26718,0.3517,0.2014,0.12412,0.028092,0.058019,0.1284
530,0.32045,0.43556,0.21226,0.023159,0.081697,0.067885,0.13662
531,0.35729,0.50955,0.19943,-0.012359,0.1182,0.068543,0.13267
532,0.37768,0.55823,0.17312,-0.002164,0.1478,0.061965,0.1205
533,0.38031,0.57631,0.1478,0.024803,0.1695,0.054072,0.10636
534,0.3688,0.56711,0.1353,0.050784,0.17904,0.050455,0.096167
535,0.3438,0.52139,0.1353,0.072818,0.17608,0.050126,0.099127
536,0.30566,0.43128,0.13695,0.086959,0.16654,0.050784,0.11754
537,0.25501,0.29119,0.12116,0.083013,0.15931,0.047824,0.1455
538,0.18661,0.11524,0.059992,0.051441,0.17674,0.041247,0.16852
539,0.096496,-0.069253,-0.06728,-0.0097279,0.24547,0.036642,0.17115
540,-0.01203,-0.23402,-0.25572,-0.082408,0.37044,0.042562,0.14944
541,-0.12253,-0.36293,-0.47244,-0.13536,0.51186,0.058676,0.1113
542,-0.21823,-0.45008,-0.66253,-0.1347,0.60854,0.08367,0.070845
543,-0.28795,-0.50171,-0.78026,-0.065635,0.61479,0.10209,0.046837
544,-0.3432,-0.5346,-0.80723,0.059334,0.53126,0.10603,0.041247
545,-0.40009,-0.56453,-0.75034,0.20075,0.39017,0.090905,0.04618
546,-0.47047,-0.59873,-0.62635,0.31421,0.23758,0.059992,0.042891
547,-0.554,-0.62603,-0.45666,0.37373,0.11393,0.029407,0.028421
548,-0.63129,-0.62175,-0.25342,0.37143,0.03434,0.012306,0.012964
549,-0.67667,-0.56387,-0.018607,0.30927,-0.014661,0.015924,0.0014536
550,-0.66976,-0.44613,0.24646,0.19976,-0.066951,0.034669,0.00046697
551,-0.60892,-0.27743,0.51613,0.065583,-0.14555,0.06065,0.011648
552,-0.505,-0.087998,0.73581,-0.058071,-0.23928,0.085644,0.029407
553,-0.37017,0.085972,0.85256,-0.14193,-0.31689,0.10472,0.044535
554,-0.21987,0.2139,0.84697,-0.17811,-0.3557,0.11524,0.056703
555,-0.063333,0.28888,0.74239,-0.18008,-0.35339,0.11162,0.06361
556,0.085644,0.31223,0.58158,-0.17383,-0.32676,0.094194,0.066569
557,0.20469,0.27935,0.40958,-0.17778,-0.29584,0.070187,0.066898
558,0.27145,0.18003,0.25271,-0.19685,-0.27545,0.043549,0.064596
559,0.27474,0.018555,0.12215,-0.21856,-0.26624,0.013293,0.059992
560,0.21982,-0.17482,0.02579,-0.22612,-0.25605,-0.020581,0.050455
561,0.12741,-0.35076,-0.039326,-0.21067,-0.2373,-0.051494,0.038287
562,0.031709,-0.46652,-0.07879,-0.17909,-0.20705,-0.068266,0.028092
563,-0.04097,-0.50007,-0.095891,-0.14588,-0.16857,-0.069582,0.01691
564,-0.068266,-0.45436,-0.097207,-0.11858,-0.12812,-0.056756,0.0047422
565,-0.053138,-0.34846,-0.091945,-0.095891,-0.091616,-0.041299,-0.0051238
566,-0.013345,-0.21461,-0.086025,-0.076817,-0.053796,-0.029131,-0.011372
567,0.024803,-0.084381,-0.078461,-0.054783,-0.0090702,-0.022225,-0.016305
568,0.044864,0.017568,-0.069253,-0.02946,0.040918,-0.018607,-0.021567
569,0.044535,0.080711,-0.063004,0.0014536,0.08959,-0.019265,-0.024856
570,0.035656,0.11426,-0.058071,0.031381,0.13497,-0.019923,-0.024856
571,0.033354,0.13234,-0.050179,0.059334,0.17641,-0.016305,-0.019923
572,0.046837,0.14681,-0.03242,0.082026,0.21292,-0.0080836,-0.014661
573,0.076764,0.16457,-0.0074258,0.099785,0.24218,-0.0011774,-0.016305
574,0.11787,0.18661,0.018226,0.10932,0.26422,0.0050711,-0.025842
575,0.15832,0.21127,0.038616,0.10801,0.27935,0.011648,-0.035708
576,0.18332,0.23199,0.04881,0.099785,0.28461,0.017897,-0.039655
577,0.18233,0.24251,0.045851,0.088275,0.28428,0.021514,-0.039655
578,0.1626,0.24021,0.031052,0.078409,0.28,0.023817,-0.037682
579,0.13826,0.23199,0.018884,0.065583,0.27441,0.029407,-0.033735
580,0.12412,0.22607,0.013951,0.055717,0.26948,0.049468,-0.032091
581,0.12905,0.22508,0.012306,0.052428,0.26126,0.088275,-0.033735
582,0.15109,0.2287,0.01132,0.05177,0.24251,0.1432,-0.039984
583,0.18332,0.23495,0.0093464,0.054401,0.20732,0.20371,-0.048534
584,0.21949,0.24021,0.0040845,0.059005,0.15372,0.25633,-0.053467
585,0.25074,0.24416,-0.0038083,0.061965,0.085315,0.28527,-0.054454
586,0.26455,0.2435,-0.0084125,0.061307,0.01132,0.28198,-0.053467
587,0.25074,0.23429,-0.007097,0.054401,-0.063004,0.2435,-0.048863
588,0.21423,0.2162,-0.0038083,0.04322,-0.13108,0.18134,-0.033078
589,0.16786,0.1922,-0.00019077,0.034669,-0.18732,0.10965,-0.016634
590,0.12577,0.16819,0.0001381,0.026447,-0.22448,0.049468,-0.010386
591,0.09551,0.14879,-0.0047949,0.017239,-0.23763,0.012306,-0.019265
592,0.075449,0.13662,-0.012359,0.0050711,-0.23073,-0.004466,-0.037682
593,0.063938,0.12774,-0.017292,-0.011372,-0.21527,-0.0077547,-0.052481
594,0.060321,0.12445,-0.016305,-0.029131,-0.20277,-0.014661,-0.056427
595,0.064925,0.12511,-0.014332,-0.045246,-0.19916,-0.028473,-0.04985
596,0.073147,0.13037,-0.016963,-0.055112,-0.19718,-0.044259,-0.043601
597,0.076764,0.13629,-0.024527,-0.053796,-0.18633,-0.056098,-0.045246
598,0.072818,0.1376,-0.034064,-0.042944,-0.15673,-0.063004,-0.05544
599,0.057361,0.13366,-0.046561,-0.028144,-0.11036,-0.06432,-0.063991
600,0.042891,0.12248,-0.054783,-0.012688,-0.060373,-0.063004,-0.063991
601,0.044864,0.10044,-0.059716,0.0001381,-0.020252,-0.061689,-0.06136
602,0.071173,0.065912,-0.062676,0.0073732,0.0047422,-0.059387,-0.056098
603,0.11228,0.019212,-0.07024,0.0050711,0.015266,-0.054783,-0.047877
604,0.14912,-0.029131,-0.083394,-0.0041372,0.016581,-0.051494,-0.035708
605,0.17312,-0.071226,-0.099838,-0.015976,0.014279,-0.053467,-0.019594
606,0.18299,-0.10082,-0.1074,-0.024198,0.013293,-0.060373,-0.0054526
607,0.18299,-0.11332,-0.10313,-0.021238,0.012964,-0.066293,0.002769
608,0.18069,-0.10017,-0.088985,-0.011701,0.010004,-0.069911,0.002769
609,0.17608,-0.057085,-0.070897,0.0001381,0.0021113,-0.070568,-0.0051238
610,0.17246,0.010333,-0.050836,0.010004,-0.0031506,-0.066622,-0.010715
611,0.18167,0.090577,-0.027158,0.01132,-0.002164,-0.056756,-0.0008485
612,0.20108,0.1672,-0.0024928,0.0080309,0.0014536,-0.044917,0.031709
613,0.20963,0.22179,0.019541,0.01132,0.0083598,-0.029789,0.079066
614,0.1797,0.2435,0.040589,0.027763,0.017897,-0.01203,0.12017
615,0.093536,0.23035,0.055717,0.050126,0.026119,0.0014536,0.13793
616,-0.043601,0.18628,0.059992,0.066569,0.026119,0.0086887,0.13103
617,-0.20442,0.1205,0.049139,0.06624,0.013951,0.0030979,0.1057
618,-0.33958,0.041904,0.025132,0.044864,-0.007097,-0.011701,0.072818
619,-0.41128,-0.033406,-0.0051238,0.010004,-0.033406,-0.030447,0.039931
620,-0.407,-0.0903,-0.031104,-0.022225,-0.054125,-0.046232,0.014937
621,-0.34945,-0.1245,-0.043601,-0.04097,-0.057743,-0.051494,-0.0015062
622,-0.28269,-0.14029,-0.038668,-0.046232,-0.043601,-0.042944,-0.013017
623,-0.24651,-0.14391,-0.023211,-0.040313,-0.021567,-0.022225,-0.015648
624,-0.25112,-0.13766,-0.0087413,-0.028144,-0.00019077,0.00079584,-0.0057815
625,-0.27578,-0.12648,0.0001381,-0.013674,0.013951,0.01987,0.017568
626,-0.28663,-0.11529,0.00079584,0.0017824,0.018884,0.029407,0.04322
627,-0.25901,-0.11266,-0.0064392,0.015266,0.016253,0.026119,0.058676
628,-0.19126,-0.12089,-0.020909,0.026447,0.014608,0.0086887,0.065583
629,-0.098522,-0.12944,-0.042944,0.033354,0.020528,-0.022554,0.068214
630,-0.0041372,-0.12976,-0.070568,0.034669,0.029736,-0.056427,0.069529
631,0.070187,-0.11858,-0.095891,0.030723,0.039273,-0.080434,0.073804
632,0.10735,-0.096878,-0.1097,0.023159,0.042233,-0.0903,0.077751
633,0.10373,-0.071226,-0.1074,0.014279,0.040589,-0.089643,0.077751
634,0.07216,-0.046232,-0.092274,0.0063866,0.039931,-0.082736,0.072489
635,0.031709,-0.024198,-0.068595,0.0077021,0.042233,-0.069253,0.061307
636,0.0034268,-0.0028217,-0.036037,0.02579,0.04618,-0.051823,0.047824
637,-0.004466,0.02579,0.0011247,0.058019,0.047495,-0.034722,0.035985
638,0.0040845,0.069529,0.033354,0.097154,0.048153,-0.018936,0.029078
639,0.01987,0.12511,0.050455,0.1376,0.06065,0.0011247,0.027105
640,0.033683,0.17082,0.048153,0.1751,0.089261,0.026447,0.029736
641,0.039931,0.17838,0.025461,0.19187,0.12412,0.049468,0.031709
642,0.032367,0.14155,-0.012688,0.15799,0.14089,0.059992,0.031052
643,0.0050711,0.069529,-0.059058,0.063938,0.11294,0.059005,0.034011
644,-0.037353,-0.018278,-0.10115,-0.064978,0.040589,0.050455,0.037958
645,-0.080763,-0.10115,-0.1347,-0.17909,-0.04393,0.041247,0.038944
646,-0.10214,-0.16561,-0.15706,-0.23862,-0.10378,0.033354,0.035985
647,-0.093589,-0.2031,-0.16594,-0.23303,-0.11891,0.022172,0.025461
648,-0.0584,-0.20606,-0.15936,-0.18173,-0.093918,0.0086887,0.014608
649,-0.01499,-0.17318,-0.14029,-0.11266,-0.048863,-0.0051238,0.0093464
650,0.019212,-0.11168,-0.11069,-0.048205,-0.0031506,-0.01499,0.0050711
651,0.035985,-0.02946,-0.076817,0.00079584,0.028092,-0.019594,-0.0015062
652,0.041247,0.06065,-0.044588,0.030394,0.0373,-0.023869,-0.0093991
653,0.043549,0.14254,-0.014661,0.043877,0.026447,-0.037024,-0.017621
654,0.049139,0.20239,0.013293,0.044864,0.0047422,-0.068266,-0.025185
655,0.058348,0.23561,0.039602,0.043549,-0.019594,-0.11365,-0.030118
656,0.064267,0.24416,0.065254,0.04322,-0.036366,-0.1643,-0.029131
657,0.062623,0.2287,0.087288,0.046508,-0.037024,-0.20573,-0.021896
658,0.056046,0.19417,0.10307,0.055717,-0.02354,-0.23171,-0.016963
659,0.052757,0.1432,0.1113,0.069529,-0.0067681,-0.23961,-0.018278
660,0.054072,0.077093,0.10143,0.079395,0.0001381,-0.23204,-0.026829
661,0.058348,-0.00051963,0.064925,0.080382,-0.0041372,-0.21494,-0.042944
662,0.065912,-0.08471,0.002769,0.069529,-0.012688,-0.19817,-0.056756
663,0.076764,-0.16364,-0.071555,0.050455,-0.019594,-0.18995,-0.062676
664,0.087946,-0.24092,-0.14489,0.027105,-0.02354,-0.19126,-0.062347
665,0.098141,-0.31393,-0.20672,-0.00051963,-0.027487,-0.19685,-0.063004
666,0.10307,-0.3728,-0.25112,-0.027158,-0.034064,-0.2031,-0.061689
667,0.10209,-0.4047,-0.27677,-0.055112,-0.043272,-0.20376,-0.05544
668,0.096167,-0.39615,-0.28104,-0.08471,-0.05544,-0.19192,-0.046232
669,0.08367,-0.35175,-0.27118,-0.10905,-0.064649,-0.16726,-0.040641
670,0.063938,-0.29124,-0.24684,-0.1222,-0.068924,-0.13174,-0.040313
671,0.037958,-0.23204,-0.2008,-0.11694,-0.066951,-0.089972,-0.041299
672,0.016581,-0.18337,-0.11497,-0.091287,-0.062676,-0.044588,-0.04097
673,0.013622,-0.14391,0.030394,-0.054125,-0.054783,-0.0031506,-0.034064
674,0.028421,-0.1005,0.23955,-0.018278,-0.045246,0.034998,-0.027158
675,0.047824,-0.04393,0.48555,0.0070443,-0.033078,0.067227,-0.023869
676,0.058348,0.02283,0.7026,0.019541,-0.016305,0.097483,-0.024198
677,0.059663,0.083999,0.81902,0.02283,0.0037556,0.13136,-0.024856
678,0.056703,0.12708,0.80159,0.021514,0.025461,0.16622,-0.017292
679,0.048153,0.14648,0.673,0.018226,0.055059,0.20404,-0.002164
680,0.024803,0.14583,0.49245,0.01691,0.089919,0.25304,0.013293
681,-0.020252,0.13037,0.31947,0.02283,0.13267,0.32933,0.024145
682,-0.073528,0.10603,0.19318,0.038287,0.18463,0.43885,0.034011
683,-0.11102,0.082684,0.12248,0.061965,0.24251,0.57171,0.04322
684,-0.11398,0.064596,0.096825,0.083999,0.29678,0.7174,0.05473
685,-0.088327,0.053743,0.096496,0.092221,0.3346,0.85618,0.06361
686,-0.053467,0.044535,0.098469,0.08959,0.33854,0.96142,0.063281
687,-0.04097,0.032696,0.089261,0.079395,0.30335,1.0025,0.052428
688,-0.07287,0.012635,0.065912,0.065254,0.23922,0.96142,0.03434
689,-0.14588,-0.013017,0.034998,0.055717,0.16622,0.84072,0.014937
690,-0.22744,-0.036366,0.0086887,0.054072,0.10274,0.66313,0.00079584
691,-0.27907,-0.046561,-0.0067681,0.059334,0.05769,0.46318,0.00046697
692,-0.27973,-0.038997,-0.01499,0.07216,0.030723,0.27672,0.013622
693,-0.23763,-0.015319,-0.022225,0.089919,0.019541,0.1284,0.030723
694,-0.16956,0.018555,-0.026171,0.1057,0.017568,0.026447,0.049139
695,-0.098851,0.053743,-0.028144,0.11491,0.013293,-0.037353,0.062294
696,-0.056098,0.078737,-0.030118,0.11491,0.0017824,-0.083394,0.071502
697,-0.062676,0.082026,-0.032749,0.10669,-0.019923,-0.12253,0.076764
698,-0.11102,0.062294,-0.041628,0.094852,-0.045574,-0.15607,0.076435
699,-0.17022,0.026447,-0.057743,0.080711,-0.064649,-0.1837,0.069858
700,-0.20376,-0.013017,-0.077803,0.066569,-0.07287,-0.20475,0.065254
701,-0.19225,-0.04689,-0.094905,0.056374,-0.074844,-0.21691,0.06624
702,-0.13733,-0.064978,-0.10543,0.055059,-0.077146,-0.22086,0.072489
703,-0.059716,-0.06432,-0.11529,0.063938,-0.078132,-0.22119,0.07808
704,0.026447,-0.04097,-0.1268,0.075449,-0.077475,-0.22086,0.078737
705,0.12379,0.010004,-0.13897,0.082355,-0.073857,-0.22152,0.079724
706,0.22969,0.078737,-0.15311,0.083999,-0.067609,-0.2202,0.084328
707,0.32769,0.14352,-0.17416,0.084657,-0.059387,-0.21757,0.092221
708,0.39149,0.18102,-0.20146,0.081039,-0.053467,-0.21395,0.093865
709,0.41221,0.17707,-0.23665,0.075449,-0.055112,-0.21428,0.081368
710,0.39149,0.13399,-0.2771,0.068214,-0.060373,-0.21724,0.057032
711,0.34183,0.074791,-0.31623,0.05473,-0.069253,-0.21823,0.030065
712,0.28066,0.022501,-0.3432,0.034669,-0.080106,-0.22152,0.012635
713,0.21489,-0.011701,-0.35043,0.0083598,-0.091616,-0.22711,0.010662
714,0.15175,-0.025842,-0.32544,-0.021238,-0.10214,-0.22842,0.01987
715,0.096167,-0.019923,-0.25671,-0.042286,-0.10872,-0.22119,0.034669
716,0.051113,0.0044134,-0.12286,-0.045903,-0.11003,-0.20705,0.043877
717,0.018555,0.042891,0.079724,-0.030118,-0.10477,-0.1883,0.041575
718,0.0017824,0.089261,0.3175,0.0057288,-0.094576,-0.16923,0.033683
719,-0.00051963,0.13267,0.52106,0.049797,-0.084381,-0.15279,0.029407
720,0.0037556,0.1626,0.62531,0.079395,-0.082408,-0.14127,0.028092
721,0.0077021,0.17542,0.60624,0.080382,-0.092603,-0.14062,0.023488
722,0.011977,0.17378,0.49081,0.056703,-0.11694,-0.1495,0.017897
723,0.021514,0.1626,0.32802,0.02283,-0.14851,-0.16068,0.015924
724,0.049797,0.14977,0.17148,-0.007097,-0.1837,-0.16397,0.019212
725,0.1011,0.13793,0.058676,-0.022554,-0.21034,-0.15673,0.026447
726,0.16786,0.12478,0.0037556,-0.022883,-0.21494,-0.14226,0.032367
727,0.21686,0.10932,-0.0064392,-0.0038083,-0.19291,-0.12713,0.026119
728,0.21193,0.085972,0.0040845,0.027434,-0.15344,-0.11628,0.0096753
729,0.13267,0.048153,0.017568,0.058019,-0.10576,-0.11233,-0.011372
730,-0.0034794,-0.0024928,0.026447,0.073804,-0.065964,-0.11398,-0.031104
731,-0.15311,-0.056756,0.029078,0.067227,-0.046232,-0.11595,-0.04393
732,-0.26296,-0.10017,0.033025,0.04322,-0.044588,-0.11069,-0.041299
733,-0.30374,-0.12089,0.042233,0.013293,-0.053467,-0.098193,-0.025514
734,-0.27447,-0.11266,0.055388,-0.0061104,-0.063004,-0.081421,-0.0054526
735,-0.1985,-0.075501,0.065254,-0.0051238,-0.063004,-0.062676,0.013293
736,-0.11266,-0.016963,0.060321,0.014279,-0.047219,-0.043272,0.023488
737,-0.058071,0.043877,0.037629,0.031709,-0.013017,-0.024527,0.021186
738,-0.063662,0.088932,0.0044134,0.031052,0.035656,-0.007097,0.015266
739,-0.13799,0.11261,-0.027816,0.0086887,0.11031,0.0090175,0.010004
740,-0.26197,0.11656,-0.045903,-0.022883,0.22015,0.021843,0.00046697
741,-0.40174,0.099785,-0.048205,-0.050179,0.35005,0.028092,-0.016634
742,-0.51454,0.059334,-0.039984,-0.067937,0.45693,0.024803,-0.038339
743,-0.56617,0.0017824,-0.034393,-0.080106,0.49673,0.0090175,-0.063004
744,-0.5392,-0.06136,-0.038011,-0.090629,0.44608,-0.020909,-0.088656
745,-0.43561,-0.10905,-0.049521,-0.099509,0.32341,-0.0584,-0.11464
746,-0.27743,-0.12746,-0.067609,-0.10378,0.16983,-0.089314,-0.12845
747,-0.1005,-0.11266,-0.089972,-0.10346,0.025461,-0.10477,-0.12286
748,0.063938,-0.068266,-0.11497,-0.094247,-0.080434,-0.10378,-0.1005
749,0.18661,-0.013017,-0.14062,-0.076159,-0.1347,-0.08471,-0.069253
750,0.25534,0.033683,-0.15772,-0.053467,-0.14029,-0.053467,-0.038997
751,0.27672,0.061636,-0.15805,-0.03242,-0.11464,-0.020909,-0.018278
752,0.26619,0.071502,-0.14062,-0.014661,-0.077146,0.0057288,-0.011701
753,0.24186,0.079395,-0.1097,0.0030979,-0.041299,0.031052,-0.015319
754,0.22015,0.10044,-0.074186,0.024145,-0.013674,0.058019,-0.020581
755,0.20831,0.14517,-0.046232,0.045851,0.0047422,0.083013,-0.020909
756,0.1991,0.20371,-0.035051,0.063938,0.013622,0.098798,-0.010057
757,0.17871,0.25172,-0.039326,0.070187,0.013622,0.10011,0.012635
758,0.1432,0.26849,-0.050507,0.06065,0.010662,0.093865,0.036971
759,0.096167,0.25074,-0.059058,0.036971,0.0060577,0.084986,0.057361
760,0.035985,0.20469,-0.058729,0.0047422,0.0021113,0.079066,0.062294
761,-0.039326,0.13629,-0.050836,-0.027816,-0.0018351,0.078737,0.051441
762,-0.12253,0.063281,-0.039326,-0.048863,-0.0031506,0.082355,0.03434
763,-0.1837,-0.0018351,-0.029131,-0.049192,-0.0061104,0.080382,0.021843
764,-0.1906,-0.048205,-0.024527,-0.034064,-0.012359,0.070187,0.017568
765,-0.13667,-0.072213,-0.024856,-0.011701,-0.01795,0.058676,0.023817
766,-0.044259,-0.087998,-0.023869,0.011977,-0.019265,0.054401,0.036971
767,0.051113,-0.11398,-0.024527,0.037629,-0.014661,0.057032,0.052757
768,0.11754,-0.1564,-0.028802,0.063281,-0.0090702,0.060321,0.068543
769,0.14681,-0.21593,-0.03538,0.083342,-0.0077547,0.06065,0.080382
770,0.14813,-0.27315,-0.041628,0.095181,-0.0067681,0.064925,0.086301
771,0.14221,-0.30341,-0.044917,0.10505,0.0063866,0.077093,0.082355
772,0.13859,-0.29124,-0.042944,0.1284,0.042233,0.096496,0.073147
773,0.13826,-0.23763,-0.036037,0.15701,0.088932,0.11458,0.064267
774,0.14089,-0.16364,-0.033078,0.15734,0.11458,0.11886,0.059005
775,0.14188,-0.091945,-0.037353,0.095181,0.083342,0.10406,0.060321
776,0.14122,-0.039326,-0.046561,-0.022883,-0.0011774,0.077751,0.060979
777,0.14188,-0.0093991,-0.051823,-0.14818,-0.098522,0.051441,0.065912
778,0.14714,0.0011247,-0.045903,-0.22711,-0.16265,0.036314,0.079395
779,0.15964,0.0037556,-0.02946,-0.23106,-0.17087,0.036971,0.10011
780,0.17214,0.0080309,-0.0067681,-0.16989,-0.13141,0.043549,0.11853
781,0.17806,0.019541,0.015924,-0.077475,-0.065635,0.046508,0.12313
782,0.1751,0.033025,0.041575,0.013951,-0.0018351,0.041904,0.11031
783,0.16819,0.04026,0.072818,0.080711,0.041904,0.032367,0.087617
784,0.15668,0.035985,0.10801,0.11623,0.050784,0.020857,0.062623
785,0.14648,0.02579,0.13662,0.11787,0.023488,0.0086887,0.044535
786,0.13859,0.015924,0.14977,0.090248,-0.028473,0.0044134,0.037629
787,0.13432,0.015924,0.14188,0.047824,-0.076817,0.012635,0.038616
788,0.13958,0.029078,0.11393,0.0060577,-0.097536,0.03434,0.035985
789,0.15668,0.053743,0.07808,-0.023869,-0.07583,0.062294,0.030394
790,0.18595,0.086959,0.050784,-0.04097,-0.021238,0.087288,0.021186
791,0.21818,0.12215,0.041904,-0.047219,0.044206,0.10472,0.011648
792,0.24186,0.14681,0.049468,-0.043272,0.10044,0.11064,0.0080309
793,0.25008,0.15602,0.063938,-0.030118,0.13728,0.10702,0.014608
794,0.23922,0.15372,0.0692,-0.013345,0.16523,0.099127,0.023817
795,0.21653,0.14451,0.058676,0.0086887,0.20272,0.094194,0.023817
796,0.18332,0.13004,0.032038,0.040589,0.25863,0.093536,0.015595
797,0.13892,0.10801,-0.0041372,0.080382,0.32144,0.097483,0.0073732
798,0.077751,0.076764,-0.038997,0.10965,0.3734,0.10439,0.0044134
799,0.0060577,0.039602,-0.071555,0.093865,0.40169,0.11721,0.0021113
800,-0.062018,-0.00019077,-0.098522,-0.0080836,0.39544,0.13399,0.00079584
801,-0.12023,-0.038339,-0.11332,-0.20475,0.3392,0.14813,0.0054
802,-0.17219,-0.07583,-0.11233,-0.41522,0.21818,0.14846,0.013293
803,-0.22908,-0.11628,-0.096878,-0.50007,0.0373,0.12609,0.017568
804,-0.29683,-0.16068,-0.068266,-0.36227,-0.16035,0.084657,0.011648
805,-0.38135,-0.20836,-0.035051,-0.033735,-0.31426,0.034998,-0.0038083
806,-0.47771,-0.25375,-0.0031506,0.33657,-0.38464,-0.0093991,-0.021896
807,-0.56321,-0.28367,0.027105,0.58848,-0.36622,-0.044588,-0.041957
808,-0.61024,-0.28466,0.058348,0.6457,-0.28828,-0.072213,-0.063004
809,-0.60136,-0.25112,0.08959,0.53323,-0.19389,-0.0903,-0.079448
810,-0.53592,-0.186,0.11261,0.33723,-0.12417,-0.091945,-0.083065
811,-0.42509,-0.096878,0.11721,0.14451,-0.09622,-0.082079,-0.075173
812,-0.28335,0.0030979,0.09551,0.0083598,-0.10313,-0.066951,-0.059387
813,-0.12615,0.097154,0.048482,-0.064649,-0.12549,-0.055769,-0.040313
814,0.02579,0.1672,-0.016305,-0.089643,-0.13996,-0.050179,-0.025185
815,0.15964,0.20667,-0.086683,-0.085367,-0.13305,-0.05281,-0.014661
816,0.26586,0.22212,-0.14785,-0.061689,-0.10806,-0.060702,-0.0097279
817,0.34282,0.22541,-0.17712,-0.018607,-0.076817,-0.066293,-0.0061104
818,0.38294,0.22212,-0.15936,0.041247,-0.049521,-0.06728,-0.0015062
819,0.37965,0.21226,-0.097864,0.10702,-0.025185,-0.068266,0.0044134
820,0.33591,0.19845,-0.0051238,0.15668,-0.0011774,-0.068595,0.0063866
821,0.26619,0.18825,0.10143,0.17016,0.026776,-0.059387,-0.0015062
822,0.20075,0.18661,0.20108,0.13004,0.062623,-0.036037,-0.01499
823,0.15405,0.18825,0.27244,0.039273,0.10044,0.0063866,-0.027487
824,0.12708,0.18365,0.30237,-0.069253,0.12642,0.060979,-0.032091
825,0.11327,0.16622,0.29349,-0.14127,0.13037,0.11228,-0.026171
826,0.10011,0.13826,0.25139,-0.13141,0.1136,0.1455,-0.01795
827,0.075778,0.10274,0.18365,-0.035708,0.08367,0.15405,-0.016305
828,0.034669,0.067885,0.097812,0.10242,0.053086,0.13826,-0.022225
829,-0.013345,0.035327,0.0080309,0.22541,0.038616,0.10899,-0.026829
830,-0.060373,0.010662,-0.07287,0.29217,0.04026,0.077093,-0.024198
831,-0.09622,-0.0041372,-0.13108,0.29513,0.053086,0.047824,-0.014332
832,-0.11266,-0.0041372,-0.16134,0.25074,0.06361,0.024803,0.0063866
833,-0.11365,0.0050711,-0.16265,0.18989,0.064596,0.011648,0.041247
834,-0.11431,0.012635,-0.1393,0.13366,0.059663,0.0080309,0.078409
835,-0.12911,0.012306,-0.1051,0.093536,0.05473,0.010662,0.10242
836,-0.16824,-0.0011774,-0.076159,0.064267,0.049468,0.010004,0.10143
837,-0.23073,-0.02946,-0.064649,0.039273,0.038616,-0.0028217,0.076106
838,-0.29387,-0.065635,-0.066293,0.014608,0.014279,-0.0265,0.034998
839,-0.32215,-0.094576,-0.068595,-0.011701,-0.030775,-0.058071,-0.0077547
840,-0.28861,-0.10148,-0.066622,-0.039326,-0.091945,-0.086683,-0.039984
841,-0.18699,-0.080763,-0.0584,-0.074515,-0.15246,-0.10609,-0.058729
842,-0.031762,-0.038011,-0.039655,-0.11891,-0.19554,-0.10872,-0.060702
843,0.13859,0.020528,-0.010715,-0.1643,-0.21461,-0.09622,-0.040313
844,0.27902,0.086959,0.030394,-0.19652,-0.20968,-0.073857,-0.0061104
845,0.3688,0.15767,0.076764,-0.2008,-0.18304,-0.050836,0.028421
846,0.41221,0.2287,0.11754,-0.16956,-0.13799,-0.033078,0.056046
847,0.41648,0.29941,0.14254,-0.11266,-0.082408,-0.018607,0.075449
848,0.38162,0.35827,0.15207,-0.048205,-0.0265,-0.0061104,0.088275
849,0.30894,0.39017,0.15076,0.0067154,0.024145,0.002769,0.090248
850,0.21061,0.38228,0.14254,0.040589,0.066569,0.0096753,0.080053
851,0.10274,0.33295,0.12708,0.050126,0.087946,0.015924,0.06624
852,-0.0011774,0.24679,0.1057,0.025132,0.077751,0.01987,0.052099
853,-0.092603,0.14122,0.079395,-0.038011,0.033025,0.018555,0.039602
854,-0.16101,0.033683,0.04881,-0.12352,-0.031433,0.011977,0.024803
855,-0.19652,-0.056756,0.016253,-0.20672,-0.091287,0.0040845,0.010333
856,-0.19521,-0.12089,-0.01499,-0.25769,-0.11957,-0.002164,0.0040845
857,-0.16265,-0.16364,-0.037353,-0.26263,-0.11003,-0.011372,0.0073732
858,-0.11069,-0.19718,-0.048534,-0.22415,-0.070897,-0.027487,0.017568
859,-0.055769,-0.23007,-0.04689,-0.1564,-0.019923,-0.046232,0.024803
860,-0.011043,-0.26263,-0.033735,-0.079119,0.030065,-0.063662,0.024803
861,0.016581,-0.28959,-0.015648,-0.012359,0.071831,-0.070568,0.025132
862,0.027434,-0.31294,0.0024402,0.035327,0.10373,-0.072213,0.028092
863,0.018884,-0.33037,0.015924,0.062952,0.12511,-0.076159,0.030394
864,-0.011372,-0.34057,0.019541,0.073804,0.13629,-0.087341,0.024803
865,-0.068595,-0.34682,0.010991,0.072489,0.14024,-0.10773,0.015266
866,-0.15246,-0.35043,-0.010386,0.064925,0.13662,-0.12944,0.0030979
867,-0.24388,-0.3455,-0.036366,0.058348,0.13399,-0.13864,-0.0077547
868,-0.31788,-0.32511,-0.053796,0.06361,0.13859,-0.13634,-0.0093991
869,-0.35471,-0.28367,-0.052152,0.093208,0.15701,-0.11727,-0.0015062
870,-0.34024,-0.22053,-0.032749,0.15339,0.18693,-0.079777,0.01132
871,-0.28039,-0.14423,-0.0084125,0.23857,0.22212,-0.026171,0.029736
872,-0.19225,-0.068595,0.015924,0.33788,0.25567,0.036971,0.052757
873,-0.10181,-0.0034794,0.036642,0.42109,0.28527,0.093536,0.070187
874,-0.024527,0.050126,0.050126,0.43326,0.29217,0.12149,0.073147
875,0.031052,0.088275,0.052099,0.30138,0.23528,0.10538,0.055388
876,0.06065,0.1113,0.032696,0.0034268,0.081039,0.040918,0.026119
877,0.067227,0.1205,-0.016634,-0.37905,-0.16068,-0.059058,-0.00051963
878,0.062294,0.12478,-0.091616,-0.69575,-0.41456,-0.16989,-0.018936
879,0.052428,0.12741,-0.18534,-0.8171,-0.58821,-0.26197,-0.029789
880,0.04881,0.12445,-0.28729,-0.70791,-0.62767,-0.31492,-0.03538
881,0.054401,0.11393,-0.3876,-0.43101,-0.53263,-0.32084,-0.035051
882,0.070187,0.096167,-0.47968,-0.10641,-0.34978,-0.28269,-0.027158
883,0.093208,0.073147,-0.56091,0.1501,-0.15311,-0.21264,-0.011701
884,0.11393,0.046837,-0.62076,0.26784,-0.0031506,-0.12812,0.0054
885,0.13037,0.023817,-0.64806,0.25304,0.076764,-0.048205,0.020528
886,0.15175,0.0096753,-0.63885,0.16622,0.10932,0.023488,0.035656
887,0.18496,0.0050711,-0.5938,0.081697,0.1307,0.09255,0.049139
888,0.231,0.0067154,-0.51684,0.045851,0.16128,0.16227,0.060979
889,0.27704,0.0090175,-0.40437,0.060321,0.19614,0.22541,0.07216
890,0.30763,0.0093464,-0.24816,0.099785,0.22179,0.27047,0.082355
891,0.30993,0.0090175,-0.058729,0.13169,0.22804,0.29447,0.089261
892,0.27737,0.0057288,0.12774,0.14221,0.21818,0.30302,0.083999
893,0.21324,0.0021113,0.28625,0.13497,0.20404,0.3027,0.065912
894,0.12412,0.0060577,0.42471,0.11426,0.19351,0.30072,0.039602
895,0.021843,0.022501,0.56908,0.086959,0.19088,0.30171,0.0093464
896,-0.074515,0.049468,0.73516,0.057032,0.18562,0.30796,-0.021896
897,-0.15344,0.083999,0.90683,0.01987,0.17477,0.32243,-0.049521
898,-0.21165,0.11557,1.038,-0.029789,0.16786,0.34315,-0.06432
899,-0.25605,0.13596,1.0887,-0.092603,0.16918,0.36387,-0.061689
900,-0.28762,0.14681,1.0525,-0.15772,0.17773,0.38064,-0.040313
901,-0.29913,0.15142,0.95583,-0.20475,0.18661,0.39017,-0.0093991
902,-0.28203,0.15635,0.82428,-0.21593,0.18858,0.38919,0.023488
903,-0.24454,0.15142,0.67366,-0.18469,0.1774,0.37636,0.052099
904,-0.21067,0.12412,0.50528,-0.12286,0.15076,0.34775,0.06624
905,-0.20179,0.068543,0.32637,-0.047548,0.11327,0.29809,0.053743
906,-0.22711,-0.0047949,0.15602,0.026447,0.074791,0.2241,0.019212
907,-0.27184,-0.078461,0.018226,0.090248,0.041904,0.13793,-0.018278
908,-0.30505,-0.1347,-0.071555,0.13497,0.019212,0.04618,-0.043272
909,-0.30406,-0.16265,-0.11332,0.15701,0.0017824,-0.040313,-0.048205
910,-0.26328,-0.15838,-0.10773,0.15799,-0.020252,-0.11562,-0.039326
911,-0.19488,-0.12384,-0.046232,0.14944,-0.051823,-0.17811,-0.027816
912,-0.11464,-0.064649,0.082684,0.14287,-0.091945,-0.22316,-0.014661
913,-0.03538,0.0096753,0.26488,0.14024,-0.12944,-0.24322,-0.00019077
914,0.037958,0.084657,0.45299,0.14122,-0.15542,-0.24026,0.015266
915,0.1034,0.14221,0.58026,0.13793,-0.17054,-0.22415,0.026447
916,0.16063,0.17345,0.59966,0.1205,-0.17942,-0.2054,0.030394
917,0.20963,0.18003,0.50725,0.09255,-0.18337,-0.19521,0.027105
918,0.24646,0.17477,0.3392,0.056703,-0.18074,-0.19587,0.014608
919,0.2708,0.17871,0.15635,0.021843,-0.17153,-0.20573,-0.0028217
920,0.29415,0.20404,0.0060577,-0.007097,-0.1541,-0.2179,-0.021896
921,0.33394,0.2458,-0.088985,-0.023869,-0.12779,-0.22645,-0.036695
922,0.40004,0.28954,-0.13075,-0.028144,-0.10313,-0.22875,-0.04985
923,0.48653,0.32177,-0.13634,-0.025514,-0.082079,-0.22053,-0.057414
924,0.57138,0.33723,-0.13108,-0.017292,-0.065964,-0.19916,-0.04985
925,0.6217,0.33328,-0.13437,-0.004466,-0.047548,-0.16758,-0.031104
926,0.6115,0.30927,-0.15903,0.0090175,-0.024198,-0.1324,-0.007097
927,0.53521,0.2606,-0.20376,0.020857,0.0037556,-0.10214,0.014279
928,0.40826,0.18661,-0.25605,0.032367,0.026447,-0.079777,0.027105
929,0.26323,0.091234,-0.30078,0.045522,0.038616,-0.067937,0.031381
930,0.12938,-0.010057,-0.32347,0.059992,0.042891,-0.063004,0.031052
931,0.02283,-0.098193,-0.31821,0.080711,0.048153,-0.05281,0.039602
932,-0.056427,-0.16134,-0.29354,0.11097,0.065583,-0.021896,0.05473
933,-0.11858,-0.20047,-0.27184,0.14616,0.093865,0.031052,0.0692
934,-0.16857,-0.22777,-0.26756,0.16326,0.11787,0.09255,0.079395
935,-0.20869,-0.25046,-0.28663,0.14451,0.11754,0.14648,0.08663
936,-0.24092,-0.27907,-0.3261,0.085972,0.091234,0.17674,0.090905
937,-0.26098,-0.32511,-0.36819,0.014937,0.04881,0.17904,0.090577
938,-0.2623,-0.38168,-0.39352,-0.039984,0.002769,0.16128,0.085644
939,-0.23566,-0.42542,-0.3899,-0.057414,-0.037024,0.13859,0.077093
940,-0.18534,-0.4218,-0.36227,-0.036695,-0.065307,0.12379,0.071173
941,-0.12319,-0.35603,-0.32149,0.0086887,-0.078461,0.11919,0.066898
942,-0.065307,-0.24355,-0.27841,0.057032,-0.082736,0.11393,0.060321
943,-0.028802,-0.11924,-0.24322,0.08959,-0.083065,0.099785,0.054072
944,-0.024856,-0.020581,-0.21856,0.10077,-0.08471,0.076106,0.051113
945,-0.048205,0.036971,-0.20475,0.095181,-0.086025,0.041904,0.05177
946,-0.082408,0.079066,-0.19587,0.079395,-0.083723,0.002769,0.051441
947,-0.11233,0.14188,-0.1883,0.060321,-0.074844,-0.034064,0.042562
948,-0.1324,0.23791,-0.18337,0.036971,-0.064649,-0.063004,0.022501
949,-0.14226,0.35301,-0.18238,0.010004,-0.05544,-0.083065,-0.0024928
950,-0.14226,0.45792,-0.18304,-0.020581,-0.052152,-0.094905,-0.026829
951,-0.13733,0.53027,-0.17877,-0.04393,-0.054125,-0.098522,-0.043272
952,-0.12516,0.56184,-0.16397,-0.045246,-0.053467,-0.095891,-0.044259
953,-0.10181,0.55231,-0.13832,-0.018607,-0.04393,-0.087341,-0.025185
954,-0.066951,0.50331,-0.11168,0.027105,-0.022225,-0.071555,0.0077021
955,-0.026829,0.41747,-0.0903,0.077093,0.0030979,-0.049192,0.037629
956,0.0057288,0.29283,-0.07583,0.11524,0.025461,-0.031762,0.054072
957,0.025461,0.12248,-0.065307,0.1284,0.034669,-0.031762,0.050126
958,0.025132,-0.07879,-0.060045,0.10669,0.025461,-0.04985,0.035656
959,0.0037556,-0.28302,-0.068266,0.05473,0.0011247,-0.077146,0.020199
960,-0.031104,-0.45271,-0.09326,-0.0051238,-0.030118,-0.10115,0.012306
961,-0.068924,-0.57012,-0.1347,-0.051823,-0.056756,-0.11431,0.010333
962,-0.093589,-0.64017,-0.18205,-0.073199,-0.076488,-0.11595,0.0093464
963,-0.088985,-0.67536,-0.22152,-0.071555,-0.091945,-0.10773,0.0063866
964,-0.045903,-0.67733,-0.24816,-0.051165,-0.10313,-0.097536,0.0093464
965,0.033354,-0.64214,-0.26624,-0.024198,-0.11036,-0.088656,0.022501
966,0.13201,-0.56025,-0.27743,0.0001381,-0.11069,-0.086354,0.04026
967,0.2241,-0.43068,-0.28335,0.014608,-0.10773,-0.097536,0.051441
968,0.28066,-0.27348,-0.28039,0.018555,-0.10247,-0.12516,0.047495
969,0.28395,-0.11924,-0.26394,0.014608,-0.1005,-0.16364,0.029736
970,0.23199,0.0040845,-0.23303,0.0093464,-0.099838,-0.20442,0.0067154
971,0.14681,0.078737,-0.18469,0.015266,-0.090958,-0.23796,-0.019594
972,0.063938,0.1057,-0.12483,0.034011,-0.063004,-0.25177,-0.045903
973,0.016581,0.10472,-0.056427,0.064596,-0.0084125,-0.23632,-0.068266
974,0.024803,0.10702,0.018226,0.10472,0.061965,-0.19356,-0.083065
975,0.089261,0.13366,0.089919,0.14122,0.13497,-0.13108,-0.084052
976,0.1991,0.18726,0.15569,0.1478,0.1945,-0.054454,-0.069911
977,0.32243,0.25238,0.21785,0.082684,0.22048,0.027105,-0.044917
978,0.41583,0.30927,0.28658,-0.076159,0.19285,0.095181,-0.019923
979,0.4451,0.34183,0.36683,-0.27184,0.093865,0.12445,-0.0034794
980,0.40958,0.34315,0.45792,-0.37674,-0.059058,0.10538,-0.0038083
981,0.32407,0.31552,0.55658,-0.28762,-0.21724,0.049797,-0.019923
982,0.21489,0.26882,0.64965,-0.02354,-0.32676,-0.022225,-0.041628
983,0.10899,0.21028,0.70983,0.28428,-0.358,-0.089972,-0.0584
984,0.02579,0.14352,0.70983,0.48292,-0.31919,-0.13338,-0.06728
985,-0.030118,0.077422,0.63715,0.49081,-0.23829,-0.13832,-0.063991
986,-0.051494,0.024474,0.51317,0.32901,-0.14851,-0.10346,-0.04689
987,-0.034064,-0.0008485,0.37702,0.08663,-0.086025,-0.042944,-0.017621
988,0.010662,0.013951,0.25665,-0.12746,-0.063662,0.027434,0.018226
989,0.053086,0.071173,0.15569,-0.24125,-0.068595,0.097483,0.054401
990,0.065912,0.15701,0.061636,-0.24355,-0.072213,0.16457,0.081039
991,0.037629,0.24646,-0.036037,-0.17219,-0.039984,0.2287,0.093536
992,-0.02946,0.31519,-0.14193,-0.077803,0.056703,0.28855,0.089919
993,-0.12779,0.33986,-0.25769,-0.0051238,0.21489,0.34249,0.067227
994,-0.24454,0.30434,-0.38825,0.034011,0.38721,0.3859,0.030723
995,-0.35372,0.21292,-0.52145,0.039273,0.51646,0.41846,-0.0028217
996,-0.42015,0.090248,-0.63063,0.020199,0.5648,0.43852,-0.019923
997,-0.41522,-0.037353,-0.67733,-0.010386,0.53192,0.44871,-0.016634
998,-0.34583,-0.15246,-0.6405,-0.041299,0.44148,0.45463,0.00079584
999,-0.23994,-0.2475,-0.53098,-0.07024,0.32703,0.45003,0.020528
1000,-0.13009,-0.31393,-0.3797,-0.098851,0.21686,0.43359,0.028092
1001,-0.045574,-0.34846,-0.21395,-0.13141,0.13103,0.40366,0.026447
1002,-0.004466,-0.36425,-0.06728,-0.17383,0.07512,0.36584,0.023817
1003,-0.0038083,-0.37937,0.031052,-0.21955,0.047824,0.32572,0.02283
1004,-0.031104,-0.40371,0.065254,-0.24618,0.047495,0.2879,0.023817
1005,-0.062018,-0.42311,0.045851,-0.23204,0.071173,0.25994,0.027763
1006,-0.078461,-0.41588,-0.0018351,-0.17679,0.11294,0.24383,0.039602
1007,-0.069582,-0.3603,-0.041628,-0.1028,0.16161,0.23298,0.051113
1008,-0.028802,-0.24816,-0.043272,-0.029131,0.20502,0.21916,0.053743
1009,0.04026,-0.092603,0.00046697,0.023817,0.22771,0.19318,0.051113
1010,0.11985,0.065254,0.070516,0.051113,0.22278,0.15076,0.051113
1011,0.17378,0.18397,0.13958,0.051441,0.1922,0.095839,0.056046
1012,0.16852,0.23758,0.18726,0.031052,0.1455,0.037958,0.06361
1013,0.10801,0.22706,0.20568,0.0001381,0.091234,-0.017621,0.070187
1014,0.027434,0.1751,0.1968,-0.028144,0.042233,-0.063991,0.071502
1015,-0.02946,0.10866,0.17345,-0.045903,0.00046697,-0.10082,0.065583
1016,-0.040313,0.04881,0.14813,-0.04393,-0.027816,-0.13207,0.061636
1017,-0.0064392,0.0021113,0.13037,-0.014003,-0.038339,-0.15607,0.065912
1018,0.04881,-0.030775,0.12774,0.03434,-0.024856,-0.1643,0.075778
1019,0.096825,-0.052481,0.13563,0.091563,0.0063866,-0.15969,0.084328
1020,0.12182,-0.055769,0.15142,0.14747,0.038616,-0.14621,0.087288
1021,0.12248,-0.043272,0.17444,0.1922,0.050126,-0.12779,0.087617
1022,0.099785,-0.026829,0.19976,0.21752,0.027105,-0.11036,0.091563
1023,0.050784,-0.024198,0.21916,0.22212,-0.028473,-0.10181,0.099456
1024,-0.022554,-0.043272,0.22311,0.20535,-0.1051,-0.11036,0.10406
1025,-0.11036,-0.080763,0.20108,0.17082,-0.1837,-0.13634,0.094194
1026,-0.20113,-0.12286,0.1478,0.12313,-0.25079,-0.17482,0.072818
1027,-0.284,-0.1564,0.062952,0.072489,-0.29946,-0.21757,0.047495
1028,-0.34912,-0.16989,-0.042286,0.028092,-0.32445,-0.25868,0.020528
1029,-0.38365,-0.16134,-0.14522,-0.0034794,-0.32314,-0.29124,-0.012359
1030,-0.38003,-0.13305,-0.21724,-0.018278,-0.30012,-0.31229,-0.041628
1031,-0.34123,-0.092603,-0.23961,-0.018278,-0.26032,-0.31886,-0.056098
1032,-0.28466,-0.050836,-0.21626,-0.0047949,-0.2156,-0.30933,-0.053467
1033,-0.22711,-0.014003,-0.16627,0.017897,-0.17449,-0.28631,-0.040641
1034,-0.17318,0.018555,-0.11266,0.041904,-0.14095,-0.25375,-0.024856
1035,-0.12746,0.045851,-0.069582,0.059334,-0.11398,-0.22579,-0.014332
1036,-0.087341,0.070516,-0.041628,0.07216,-0.089972,-0.20705,-0.011043
1037,-0.054454,0.099127,-0.018936,0.080053,-0.06728,-0.19291,-0.010386
1038,-0.020909,0.133,0.010991,0.08959,-0.042286,-0.17581,-0.0097279
1039,0.018226,0.17148,0.052099,0.10274,-0.020909,-0.15015,-0.0047949
1040,0.059992,0.21061,0.099456,0.12017,-0.0077547,-0.12187,0.0030979
1041,0.10209,0.24778,0.14352,0.14089,-0.0097279,-0.10346,0.014279
1042,0.14122,0.27639,0.16227,0.15536,-0.03242,-0.10115,0.023488
1043,0.17148,0.29283,0.13267,0.15109,-0.071884,-0.10937,0.021843
1044,0.18957,0.30007,0.049139,0.12182,-0.11299,-0.12352,0.0054
1045,0.19614,0.30697,-0.078461,0.0692,-0.1416,-0.13963,-0.016305
1046,0.19746,0.31519,-0.21987,-0.00051963,-0.14785,-0.15015,-0.031762
1047,0.19154,0.32539,-0.33728,-0.072542,-0.12911,-0.14423,-0.042944
1048,0.18628,0.33624,-0.39976,-0.11858,-0.078461,-0.11003,-0.05281
1049,0.18069,0.34841,-0.36754,-0.11661,0.0057288,-0.044917,-0.058729
1050,0.17937,0.35564,-0.20803,-0.059716,0.10866,0.047495,-0.055769
1051,0.18562,0.35663,0.10143,0.02283,0.19877,0.15734,-0.045574
1052,0.1945,0.35104,0.54836,0.079724,0.23659,0.26126,-0.039326
1053,0.20206,0.34216,1.0611,0.082355,0.20272,0.32506,-0.050836
1054,0.19845,0.32637,1.5123,0.043549,0.10735,0.33098,-0.082736
1055,0.17279,0.29711,1.7589,-0.0057815,-0.0090702,0.28231,-0.12713
1056,0.11985,0.24646,1.7165,-0.040313,-0.095233,0.20173,-0.17054
1057,0.045851,0.17345,1.3975,-0.043272,-0.10214,0.12313,-0.20014
1058,-0.034064,0.083999,0.91472,-0.0067681,-0.0008485,0.076106,-0.21165
1059,-0.1005,-0.0084125,0.41813,0.058676,0.1945,0.076435,-0.21297
1060,-0.13897,-0.08471,0.024803,0.11491,0.41056,0.12281,-0.20508
1061,-0.14621,-0.13503,-0.20935,0.1159,0.55823,0.1922,-0.18633
1062,-0.12582,-0.15443,-0.28433,0.046508,0.5819,0.25534,-0.15772
1063,-0.085039,-0.14456,-0.22086,-0.062676,0.48259,0.29349,-0.12319
1064,-0.033406,-0.10872,-0.042615,-0.15969,0.30598,0.29513,-0.09326
1065,0.023159,-0.04985,0.21292,-0.20475,0.11689,0.26521,-0.071884
1066,0.081697,0.025461,0.477,-0.19883,-0.0265,0.21653,-0.057743
1067,0.13563,0.097483,0.67366,-0.17022,-0.10477,0.16424,-0.051823
1068,0.17246,0.14254,0.74996,-0.14391,-0.12253,0.11787,-0.048863
1069,0.18825,0.14879,0.7003,-0.12319,-0.10806,0.081368,-0.045574
1070,0.18496,0.12412,0.56184,-0.10148,-0.084381,0.052757,-0.041628
1071,0.16753,0.081368,0.39182,-0.069253,-0.070897,0.033354,-0.041299
1072,0.14583,0.039602,0.2412,-0.026171,-0.080434,0.023817,-0.042615
1073,0.1205,0.011648,0.13267,0.018226,-0.10905,0.015595,-0.047548
1074,0.088603,0.0001381,0.069858,0.042562,-0.14785,0.0044134,-0.063004
1075,0.048153,-0.004466,0.048482,0.040589,-0.18567,-0.013017,-0.082408
1076,0.0040845,-0.0064392,0.052428,0.018884,-0.21461,-0.033078,-0.090629
1077,-0.039655,-0.012688,0.06065,-0.007097,-0.22579,-0.052152,-0.077146
1078,-0.076159,-0.024527,0.05177,-0.034393,-0.21626,-0.066622,-0.045246
1079,-0.10378,-0.035708,0.012306,-0.065635,-0.19422,-0.073528,-0.013674
1080,-0.12648,-0.04689,-0.059716,-0.10773,-0.1689,-0.07583,0.0011247
1081,-0.14785,-0.061031,-0.15147,-0.15081,-0.14818,-0.07583,-0.0008485
1082,-0.16495,-0.073528,-0.23402,-0.18074,-0.1324,-0.083065,-0.013674
1083,-0.16758,-0.082736,-0.28466,-0.1883,-0.11825,-0.095233,-0.030775
1084,-0.15443,-0.086025,-0.30176,-0.17548,-0.096549,-0.11233,-0.037024
1085,-0.13601,-0.083723,-0.30012,-0.15048,-0.063333,-0.13042,-0.024527
1086,-0.12121,-0.07583,-0.30538,-0.12911,-0.021238,-0.14588,0.0011247
1087,-0.1051,-0.060373,-0.33662,-0.12878,0.020199,-0.1587,0.030065
1088,-0.069582,-0.034722,-0.39779,-0.14719,0.045193,-0.16693,0.058676
1089,0.00046697,0.0067154,-0.47343,-0.16035,0.041904,-0.16528,0.088275
1090,0.098141,0.060979,-0.54085,-0.14029,0.010333,-0.15213,0.11064
1091,0.19581,0.11491,-0.5836,-0.083394,-0.037682,-0.13338,0.12083
1092,0.25041,0.14912,-0.60202,-0.007097,-0.08471,-0.11628,0.12116
1093,0.23265,0.14648,-0.60761,0.065254,-0.11135,-0.10313,0.11919
1094,0.14155,0.10636,-0.61419,0.11985,-0.10641,-0.090629,0.11721
1095,0.0083598,0.039273,-0.628,0.14648,-0.068266,-0.07024,0.11853
1096,-0.11497,-0.04097,-0.63819,0.15339,-0.01203,-0.046232,0.12281
1097,-0.18436,-0.11562,-0.62504,0.15799,0.039273,-0.028144,0.13596
1098,-0.18765,-0.17153,-0.55927,0.18595,0.067885,-0.02946,0.15438
1099,-0.13832,-0.19948,-0.42081,0.24186,0.069529,-0.051823,0.16391
1100,-0.062676,-0.2031,-0.21231,0.31158,0.048482,-0.090958,0.15767
1101,0.019541,-0.19093,0.025132,0.3688,0.022172,-0.13766,0.13826
1102,0.091563,-0.17186,0.23002,0.38919,0.0030979,-0.17482,0.11557
1103,0.13958,-0.1495,0.34216,0.36354,-0.002164,-0.18765,0.096825
1104,0.15898,-0.12878,0.33821,0.29842,0.0021113,-0.1735,0.080382
1105,0.1524,-0.11332,0.23528,0.21653,0.011648,-0.14391,0.059005
1106,0.12511,-0.10017,0.084328,0.14056,0.027105,-0.10378,0.040918
1107,0.081039,-0.087012,-0.060702,0.08663,0.04618,-0.054454,0.031052
1108,0.030065,-0.077146,-0.16298,0.060321,0.071173,0.00046697,0.037629
1109,-0.019265,-0.071884,-0.2156,0.057032,0.099785,0.056046,0.059992
1110,-0.059387,-0.07287,-0.23369,0.06065,0.12807,0.10768,0.090248
1111,-0.092931,-0.079119,-0.23895,0.057361,0.15701,0.1603,0.1182
1112,-0.12812,-0.092603,-0.24553,0.043549,0.19022,0.21423,0.14089
1113,-0.17153,-0.11266,-0.25737,0.027105,0.22377,0.27145,0.16293
1114,-0.2179,-0.13568,-0.26855,0.016253,0.24679,0.32802,0.18233
1115,-0.25342,-0.15114,-0.27085,0.017568,0.24909,0.37801,0.18957
1116,-0.26592,-0.15377,-0.26263,0.030065,0.23298,0.40859,0.18825
1117,-0.24914,-0.14325,-0.24717,0.045522,0.207,0.40234,0.18332
1118,-0.20705,-0.12483,-0.22974,0.055388,0.18332,0.35795,0.17542
1119,-0.14851,-0.10181,-0.21527,0.053743,0.16918,0.28757,0.16293
1120,-0.088327,-0.077146,-0.20508,0.041575,0.16589,0.20601,0.14681
1121,-0.033735,-0.051823,-0.19652,0.022172,0.16622,0.12873,0.13169
1122,0.012306,-0.025842,-0.1837,-0.0024928,0.16556,0.067556,0.12215
1123,0.047166,-0.0008485,-0.1666,-0.029131,0.15569,0.024803,0.12182
1124,0.069858,0.019212,-0.15015,-0.053138,0.13103,-0.0008485,0.12971
1125,0.080053,0.029736,-0.1393,-0.06728,0.08367,-0.015976,0.13793
1126,0.081039,0.030394,-0.13568,-0.069253,0.0073732,-0.028802,0.13136
1127,0.076106,0.022501,-0.1347,-0.046232,-0.089314,-0.04689,0.11097
1128,0.076764,0.013293,-0.13371,0.010662,-0.17975,-0.067937,0.088275
1129,0.089261,0.0086887,-0.12812,0.090577,-0.24553,-0.091616,0.072489
1130,0.11097,0.014608,-0.11529,0.17542,-0.27973,-0.11168,0.0692
1131,0.12905,0.024803,-0.092603,0.24087,-0.28236,-0.12779,0.075778
1132,0.13234,0.029407,-0.068924,0.27507,-0.26263,-0.14029,0.083999
1133,0.11491,0.025461,-0.052152,0.27277,-0.2304,-0.14752,0.088932
1134,0.084657,0.010662,-0.045246,0.24087,-0.1985,-0.14719,0.087617
1135,0.058348,-0.011372,-0.047548,0.18957,-0.17548,-0.13568,0.073804
1136,0.051113,-0.03538,-0.057414,0.13103,-0.15706,-0.10477,0.052099
1137,0.077093,-0.056427,-0.070897,0.075449,-0.13864,-0.051165,0.036314
1138,0.1376,-0.069582,-0.088656,0.025132,-0.11595,0.021186,0.031709
1139,0.21226,-0.072542,-0.11168,-0.018936,-0.086025,0.094852,0.038287
1140,0.26257,-0.071555,-0.13503,-0.054783,-0.046561,0.15405,0.040918
1141,0.25698,-0.069582,-0.15114,-0.085039,-0.002164,0.18825,0.031052
1142,0.19253,-0.063004,-0.15147,-0.10839,0.041575,0.19549,0.013622
1143,0.087617,-0.045246,-0.13207,-0.12187,0.07808,0.18266,-0.0028217
1144,-0.0265,-0.019265,-0.10017,-0.11595,0.10209,0.16128,-0.016634
1145,-0.12911,0.002769,-0.065307,-0.090958,0.11426,0.1501,-0.030118
1146,-0.21428,0.010662,-0.03538,-0.057743,0.11952,0.16161,-0.041957
1147,-0.28762,0.0040845,-0.014003,-0.025185,0.12313,0.19088,-0.051494
1148,-0.34978,-0.011372,0.0044134,0.0050711,0.12675,0.21686,-0.053467
1149,-0.39648,-0.032749,0.022501,0.028421,0.12609,0.21883,-0.051494
1150,-0.42805,-0.060702,0.036314,0.038616,0.11458,0.19253,-0.049192
1151,-0.44087,-0.088656,0.04026,0.034669,0.092879,0.14648,-0.044259
1152,-0.42015,-0.10148,0.032367,0.018555,0.063281,0.096167,-0.031762
1153,-0.3557,-0.082736,0.017568,0.0017824,0.033354,0.050455,-0.011701
1154,-0.25802,-0.031433,0.0050711,-0.013674,0.0070443,0.014937,0.011977
1155,-0.1587,0.046508,0.0017824,-0.025185,-0.0087413,-0.014661,0.027105
1156,-0.077475,0.13234,0.013951,-0.032091,-0.011701,-0.041628,0.028421
1157,-0.0084125,0.20502,0.041904,-0.033406,-0.0008485,-0.063333,0.025132
1158,0.075449,0.25468,0.083999,-0.028802,0.01987,-0.076159,0.026776
1159,0.19581,0.28033,0.13037,-0.023869,0.039931,-0.081092,0.038944
1160,0.34742,0.28724,0.16753,-0.020581,0.050126,-0.082408,0.052428
1161,0.50955,0.29086,0.19483,-0.013345,0.045193,-0.083394,0.055059
1162,0.6513,0.305,0.21423,-0.0015062,0.033354,-0.080763,0.04618
1163,0.74239,0.33164,0.22574,0.018555,0.023488,-0.076817,0.034011
1164,0.76903,0.36222,0.22771,0.051441,0.020199,-0.074515,0.021514
1165,0.72957,0.38064,0.21292,0.09255,0.017568,-0.077146,0.013622
1166,0.62663,0.37406,0.17575,0.12478,0.010333,-0.089314,0.014608
1167,0.47305,0.33229,0.12083,0.12741,-0.0034794,-0.10773,0.01987
1168,0.29053,0.26488,0.06361,0.094852,-0.020909,-0.12615,0.025461
1169,0.11097,0.19318,0.018884,0.039931,-0.035051,-0.1393,0.025461
1170,-0.034722,0.13728,-0.0084125,-0.013674,-0.039326,-0.1393,0.019541
1171,-0.12154,0.10702,-0.018278,-0.050179,-0.032091,-0.12878,0.012964
1172,-0.13897,0.099456,-0.013017,-0.060702,-0.015648,-0.11365,0.011977
1173,-0.095233,0.10899,0.010991,-0.046561,0.0060577,-0.10017,0.020528
1174,-0.015648,0.13464,0.048482,-0.01203,0.031709,-0.087998,0.037958
1175,0.070516,0.17477,0.093865,0.030065,0.058348,-0.073528,0.053415
1176,0.13925,0.21686,0.13991,0.063938,0.074791,-0.058729,0.059334
1177,0.17181,0.24613,0.17674,0.072818,0.065912,-0.049192,0.05177
1178,0.16687,0.25041,0.20009,0.061965,0.03434,-0.045574,0.035985
1179,0.13991,0.23265,0.20996,0.060979,0.0047422,-0.041628,0.017568
1180,0.10834,0.20601,0.2093,0.10077,0.0080309,-0.031433,0.0060577
1181,0.087946,0.18167,0.20732,0.18496,0.064925,-0.015319,0.0080309
1182,0.087946,0.16194,0.21094,0.27211,0.16786,0.0057288,0.019212
1183,0.10505,0.13728,0.2139,0.29217,0.26521,0.024145,0.03434
1184,0.12609,0.091234,0.1991,0.18134,0.27639,0.028421,0.045522
1185,0.13136,0.0093464,0.14879,-0.055112,0.15043,0.01132,0.047824
1186,0.11097,-0.11266,0.055717,-0.32676,-0.078132,-0.024198,0.039273
1187,0.065254,-0.26032,-0.073199,-0.52276,-0.30801,-0.0584,0.025132
1188,0.0044134,-0.41062,-0.21987,-0.57604,-0.4412,-0.076817,0.0086887
1189,-0.061689,-0.54019,-0.35537,-0.49086,-0.43331,-0.072542,-0.0057815
1190,-0.12056,-0.64148,-0.44646,-0.32248,-0.31327,-0.046561,-0.01499
1191,-0.16561,-0.70758,-0.47508,-0.14226,-0.15015,-0.012359,-0.012688
1192,-0.19652,-0.73159,-0.43594,-0.0061104,-0.014332,0.0083598,0.00079584
1193,-0.2202,-0.70824,-0.34188,0.066569,0.052757,0.0060577,0.018226
1194,-0.24651,-0.64017,-0.21659,0.084328,0.056046,-0.014003,0.030723
1195,-0.27973,-0.5323,-0.089314,0.068214,0.027434,-0.039655,0.035656
1196,-0.30965,-0.39615,0.016253,0.042562,-0.0008485,-0.061031,0.030723
1197,-0.31327,-0.24881,0.084657,0.022172,-0.010386,-0.072213,0.019541
1198,-0.2771,-0.10378,0.10801,0.0070443,-0.0018351,-0.069911,0.0044134
1199,-0.19685,0.029736,0.10209,-0.0031506,0.012635,-0.060702,-0.0041372
1200,-0.089643,0.13037,0.083342,-0.010386,0.030065,-0.051494,-0.004466
1201,0.017568,0.18496,0.068871,-0.014332,0.052099,-0.049521,-0.0028217
1202,0.096825,0.19812,0.066569,-0.0084125,0.082684,-0.050836,-0.0038083
1203,0.13267,0.1922,0.075449,0.010991,0.12741,-0.050179,-0.010057
1204,0.13004,0.18266,0.087946,0.049139,0.18167,-0.043601,-0.018607
1205,0.11261,0.18134,0.096496,0.08959,0.23725,-0.022225,-0.022225
1206,0.10242,0.19384,0.10209,0.093208,0.28132,0.021186,-0.014003
1207,0.11393,0.21259,0.10965,0.0073732,0.30105,0.08367,-0.0041372
1208,0.14122,0.2241,0.12577,-0.18337,0.27507,0.15503,-0.002164
1209,0.16391,0.21588,0.14517,-0.40568,0.18299,0.20864,-0.011701
1210,0.16194,0.18693,0.16391,-0.51618,0.0373,0.22673,-0.024527
1211,0.12215,0.14352,0.17806,-0.41358,-0.11628,0.20798,-0.038339
1212,0.039273,0.091563,0.18397,-0.1222,-0.22349,0.17477,-0.053138
1213,-0.077803,0.0373,0.18134,0.22311,-0.25342,0.14583,-0.068924
1214,-0.21264,-0.011701,0.16983,0.47469,-0.20442,0.133,-0.087998
1215,-0.33958,-0.048205,0.15503,0.56349,-0.10543,0.13103,-0.10773
1216,-0.43726,-0.067937,0.14188,0.50166,0.0040845,0.12905,-0.1245
1217,-0.49645,-0.07583,0.13136,0.35696,0.089261,0.12215,-0.13897
1218,-0.52934,-0.082408,0.12215,0.20009,0.13464,0.10998,-0.15344
1219,-0.54907,-0.088985,0.11228,0.078409,0.13728,0.093536,-0.16397
1220,-0.5665,-0.087669,0.10636,0.0086887,0.11393,0.07216,-0.16857
1221,-0.57735,-0.075501,0.10998,-0.018278,0.081697,0.044535,-0.16462
1222,-0.57242,-0.058729,0.11721,-0.020909,0.051441,0.016581,-0.15246
1223,-0.54151,-0.042615,0.12116,-0.014003,0.025461,-0.010386,-0.13305
1224,-0.47573,-0.02946,0.12215,-0.0034794,0.002769,-0.032749,-0.10773
1225,-0.38003,-0.011372,0.1284,0.010004,-0.016963,-0.049192,-0.080106
1226,-0.26493,0.030723,0.1501,0.031709,-0.030775,-0.0584,-0.06136
1227,-0.14588,0.11721,0.18496,0.062294,-0.037682,-0.064978,-0.054454
1228,-0.035708,0.24547,0.22311,0.097154,-0.039984,-0.074515,-0.05281
1229,0.055717,0.38886,0.25041,0.1284,-0.045574,-0.086354,-0.051494
1230,0.11952,0.51284,0.2606,0.15076,-0.055112,-0.094576,-0.051165
1231,0.15109,0.59769,0.25369,0.16063,-0.072213,-0.10017,-0.053467
1232,0.15503,0.63913,0.23166,0.15175,-0.097207,-0.11036,-0.063662
1233,0.13695,0.63847,0.19877,0.12017,-0.13042,-0.13536,-0.078461
1234,0.11064,0.59374,0.16063,0.070845,-0.16758,-0.17877,-0.088327
1235,0.089919,0.50396,0.12478,0.015924,-0.20113,-0.23599,-0.085039
1236,0.090248,0.37439,0.10209,-0.023869,-0.2202,-0.29157,-0.06728
1237,0.11327,0.21193,0.093865,-0.038011,-0.21691,-0.33465,-0.04097
1238,0.1432,0.027434,0.087617,-0.029131,-0.19324,-0.35931,-0.014332
1239,0.15602,-0.1587,0.069858,-0.01203,-0.15805,-0.3626,0.0034268
1240,0.14418,-0.32281,0.033025,0.00079584,-0.12286,-0.34123,0.0093464
1241,0.11393,-0.44416,-0.014661,0.0014536,-0.088656,-0.29157,0.0080309
1242,0.084986,-0.51092,-0.058071,-0.0087413,-0.056756,-0.21132,0.0063866
1243,0.071502,-0.53427,-0.089972,-0.025514,-0.028473,-0.10839,0.0093464
1244,0.071502,-0.5494,-0.11069,-0.048534,-0.0084125,0.0080309,0.010662
1245,0.07216,-0.58886,-0.12319,-0.077803,-0.0011774,0.1159,0.0080309
1246,0.057361,-0.65825,-0.12845,-0.10839,-0.0061104,0.19581,0.0030979
1247,0.027105,-0.72501,-0.11891,-0.13207,-0.01499,0.23988,-0.0061104
1248,-0.0077547,-0.74212,-0.092603,-0.13536,-0.019923,0.25534,-0.020581
1249,-0.030775,-0.6793,-0.048534,-0.11332,-0.01499,0.25633,-0.036366
1250,-0.028473,-0.53493,0.0073732,-0.067937,-0.0011774,0.26093,-0.043272
1251,-0.0011774,-0.33794,0.056703,-0.014003,0.021843,0.27968,-0.036366
1252,0.04026,-0.1324,0.081368,0.028092,0.053743,0.31585,-0.016963
1253,0.082026,0.042233,0.071831,0.047824,0.09255,0.36354,0.0070443
1254,0.11491,0.15964,0.035327,0.049139,0.12971,0.41616,0.030723
1255,0.13366,0.2162,-0.010057,0.040589,0.15997,0.47108,0.052099
1256,0.14451,0.22443,-0.044588,0.034998,0.17641,0.52665,0.069529
1257,0.15076,0.20864,-0.05544,0.039931,0.17477,0.575,0.083013
1258,0.15306,0.18989,-0.042944,0.053086,0.16293,0.59933,0.087946
1259,0.15175,0.18003,-0.0067681,0.069529,0.14681,0.58388,0.085972
1260,0.15339,0.18397,0.044864,0.077422,0.13103,0.52468,0.077751
1261,0.16227,0.19845,0.097154,0.076764,0.1113,0.42964,0.067556
1262,0.18003,0.21686,0.1432,0.070187,0.089919,0.31881,0.055059
1263,0.20601,0.23429,0.17806,0.060979,0.070187,0.20864,0.039273
1264,0.23561,0.24646,0.19581,0.041575,0.062952,0.11228,0.025461
1265,0.26192,0.25402,0.19121,0.01132,0.073147,0.032038,0.017239
1266,0.27803,0.25402,0.16194,-0.024527,0.09255,-0.029131,0.023488
1267,0.28296,0.24284,0.11393,-0.053467,0.1113,-0.068266,0.041247
1268,0.27704,0.22147,0.062294,-0.069253,0.12017,-0.08471,0.062623
1269,0.26586,0.19318,0.016253,-0.068266,0.12149,-0.083723,0.079066
1270,0.25665,0.16063,-0.027816,-0.052152,0.12215,-0.073199,0.091563
1271,0.25271,0.12511,-0.081421,-0.027487,0.12017,-0.064978,0.098141
1272,0.25139,0.087946,-0.14917,-0.010057,0.10702,-0.072213,0.09551
1273,0.2481,0.057361,-0.22612,-0.012359,0.080711,-0.095233,0.078409
1274,0.24284,0.037958,-0.29617,-0.031433,0.050455,-0.12648,0.053743
1275,0.24942,0.035327,-0.34747,-0.054125,0.027105,-0.15739,0.034669
1276,0.2731,0.045522,-0.37082,-0.066293,0.014937,-0.17877,0.030394
1277,0.30204,0.055388,-0.37082,-0.067937,0.0070443,-0.18863,0.036642
1278,0.30434,0.054401,-0.35734,-0.065635,-0.0061104,-0.18765,0.044206
1279,0.26817,0.034669,-0.33629,-0.06136,-0.02354,-0.17942,0.049139
1280,0.2014,0.0014536,-0.30308,-0.049192,-0.040641,-0.16462,0.047824
1281,0.12577,-0.032091,-0.24849,-0.025185,-0.057085,-0.14292,0.040918
1282,0.061965,-0.048205,-0.17087,0.011648,-0.070897,-0.11497,0.032367
1283,0.012635,-0.039984,-0.084052,0.052757,-0.080434,-0.085367,0.025461
1284,-0.034722,-0.01499,-0.010386,0.084328,-0.086683,-0.059387,0.025132
1285,-0.10181,0.011977,0.036971,0.09255,-0.094905,-0.039326,0.03434
1286,-0.19916,0.029736,0.055388,0.077751,-0.10247,-0.026829,0.051441
1287,-0.32347,0.036314,0.053415,0.04618,-0.1074,-0.020581,0.060321
1288,-0.45534,0.036971,0.041904,0.013293,-0.10773,-0.018278,0.055059
1289,-0.56749,0.041904,0.031052,-0.010057,-0.10378,-0.015648,0.036314
1290,-0.63655,0.050126,0.024474,-0.018936,-0.094576,-0.010057,0.014279
1291,-0.6497,0.056046,0.022501,-0.01499,-0.079777,-0.00019077,0.0034268
1292,-0.60728,0.053415,0.019212,-0.0087413,-0.060373,0.012306,0.00079584
1293,-0.51881,0.042891,0.011648,-0.010386,-0.037353,0.024474,0.0021113
1294,-0.40042,0.02875,0.00079584,-0.022883,-0.014661,0.034011,0.0017824
1295,-0.26986,0.019541,-0.0024928,-0.036366,0.0044134,0.0373,0.00046697
1296,-0.13864,0.025132,0.0093464,-0.037682,0.015924,0.030723,0.0011247
1297,-0.021238,0.048153,0.030723,-0.020909,0.018226,0.0090175,0.0083598
1298,0.068871,0.088275,0.056374,0.011977,0.013622,-0.0265,0.024145
1299,0.12412,0.13432,0.083342,0.051441,0.0040845,-0.069582,0.046837
1300,0.14879,0.1672,0.10209,0.084986,-0.011701,-0.11299,0.068543
1301,0.15207,0.17312,0.10702,0.10307,-0.028802,-0.15279,0.085315
1302,0.14451,0.15306,0.099127,0.10373,-0.048534,-0.18501,0.093865
1303,0.13629,0.12149,0.084328,0.091892,-0.068924,-0.20803,0.093865
1304,0.13169,0.096167,0.070187,0.076764,-0.089314,-0.22053,0.089261
1305,0.13169,0.085644,0.058019,0.062294,-0.10609,-0.22415,0.086959
1306,0.13234,0.088275,0.050784,0.050126,-0.1199,-0.22053,0.088603
1307,0.13103,0.09551,0.047495,0.041247,-0.12944,-0.20672,0.098469
1308,0.11787,0.09551,0.044206,0.040918,-0.13042,-0.17877,0.10834
1309,0.086301,0.085972,0.036642,0.047824,-0.11562,-0.13601,0.11689
1310,0.037958,0.068871,0.023488,0.063938,-0.087012,-0.080106,0.12741
1311,-0.014003,0.044535,0.0090175,0.084986,-0.053138,-0.017292,0.14155
1312,-0.04985,0.01691,-0.004466,0.10735,-0.025185,0.044535,0.15043
1313,-0.063662,-0.007097,-0.015976,0.12313,-0.0084125,0.097154,0.14583
1314,-0.05544,-0.020581,-0.029789,0.13234,-0.0034794,0.13004,0.12971
1315,-0.030775,-0.023211,-0.045903,0.1353,-0.010715,0.12938,0.11491
1316,0.0001381,-0.016634,-0.06728,0.13432,-0.025842,0.092221,0.10834
1317,0.023817,-0.0047949,-0.090629,0.1284,-0.041299,0.031709,0.10768
1318,0.038944,0.0067154,-0.11135,0.11458,-0.052481,-0.034722,0.10899
1319,0.04881,0.018555,-0.12878,0.091234,-0.058729,-0.087012,0.11064
1320,0.062952,0.030723,-0.14588,0.05473,-0.062347,-0.1176,0.11491
1321,0.086959,0.039931,-0.16528,0.015266,-0.066293,-0.13272,0.12313
1322,0.1136,0.04322,-0.18173,-0.0097279,-0.072542,-0.14423,0.13169
1323,0.13169,0.046837,-0.1883,-0.0077547,-0.07583,-0.15772,0.13695
1324,0.13695,0.055388,-0.18337,0.020528,-0.066622,-0.17186,0.14681
1325,0.13497,0.069858,-0.17054,0.061965,-0.036366,-0.18995,0.1649
1326,0.12609,0.086959,-0.15805,0.10538,0.013622,-0.20409,0.18825
1327,0.10866,0.10603,-0.1518,0.14517,0.075778,-0.20836,0.20601
1328,0.083999,0.12675,-0.15213,0.16918,0.133,-0.2008,0.2139
1329,0.06361,0.14352,-0.15279,0.1501,0.17542,-0.18436,0.21423
1330,0.055388,0.15306,-0.15114,0.042562,0.18595,-0.16035,0.21193
1331,0.058348,0.15109,-0.15772,-0.1564,0.14254,-0.12878,0.20634
1332,0.063281,0.13004,-0.18929,-0.35307,0.034011,-0.10082,0.1968
1333,0.058348,0.090248,-0.24783,-0.40601,-0.11595,-0.089643,0.1843
1334,0.042562,0.041247,-0.32117,-0.24224,-0.25671,-0.095233,0.17016
1335,0.029407,-0.0038083,-0.39121,0.077422,-0.33531,-0.10773,0.16095
1336,0.027434,-0.035051,-0.4389,0.4132,-0.3284,-0.11036,0.16589
1337,0.03434,-0.058729,-0.46258,0.63518,-0.25309,-0.096878,0.17937
1338,0.033354,-0.091287,-0.4685,0.69438,-0.14884,-0.077475,0.19121
1339,0.012964,-0.14555,-0.46652,0.60723,-0.055769,-0.06136,0.19253
1340,-0.02354,-0.21922,-0.46652,0.4372,0.0017824,-0.054125,0.18726
1341,-0.06432,-0.29683,-0.46948,0.26257,0.024474,-0.053138,0.1774
1342,-0.098193,-0.35866,-0.46126,0.13333,0.027105,-0.055769,0.15865
1343,-0.11069,-0.38793,-0.42311,0.06624,0.022501,-0.059716,0.13169
1344,-0.10115,-0.3751,-0.3261,0.056046,0.020528,-0.062347,0.10439
1345,-0.074844,-0.32248,-0.14654,0.077422,0.02283,-0.056427,0.087617
1346,-0.042944,-0.24224,0.10044,0.10505,0.031381,-0.034064,0.080053
1347,-0.01499,-0.15114,0.35466,0.12544,0.041904,-0.0015062,0.073476
1348,0.0021113,-0.06432,0.53521,0.13169,0.057032,0.029407,0.067227
1349,0.010991,0.002769,0.59374,0.12577,0.068871,0.055717,0.064267
1350,0.010662,0.042562,0.52961,0.10998,0.071173,0.075449,0.068214
1351,0.0096753,0.056046,0.38162,0.091234,0.0692,0.094852,0.07808
1352,0.010004,0.046508,0.20436,0.076435,0.074462,0.11754,0.084986
1353,0.0073732,0.026776,0.045851,0.06624,0.09255,0.14912,0.07512
1354,-0.0031506,0.0073732,-0.060045,0.059005,0.12182,0.19253,0.048482
1355,-0.018607,-0.0018351,-0.1051,0.053415,0.15405,0.24482,0.024474
1356,-0.031762,-0.0024928,-0.10313,0.045851,0.17707,0.30302,0.015595
1357,-0.03538,0.002769,-0.080434,0.034669,0.18463,0.36025,0.018884
1358,-0.026829,0.0037556,-0.058729,0.020199,0.17806,0.40497,0.025461
1359,-0.016963,-0.0041372,-0.04985,0.0044134,0.16391,0.42503,0.033354
1360,-0.015976,-0.024856,-0.056756,-0.01203,0.1455,0.41912,0.037629
1361,-0.025842,-0.054125,-0.070897,-0.025185,0.12708,0.38919,0.03434
1362,-0.046232,-0.086683,-0.079448,-0.032749,0.11031,0.34578,0.02283
1363,-0.067609,-0.11661,-0.079777,-0.038011,0.096825,0.30401,0.010333
1364,-0.07879,-0.14127,-0.07287,-0.04393,0.082355,0.26948,-0.0031506
1365,-0.080106,-0.16298,-0.062018,-0.053138,0.067227,0.24547,-0.015976
1366,-0.081421,-0.18436,-0.04985,-0.062676,0.057032,0.22771,-0.03242
1367,-0.08471,-0.19916,-0.033735,-0.066293,0.059992,0.22048,-0.056756
1368,-0.086354,-0.19159,-0.013017,-0.0584,0.074462,0.21916,-0.089643
1369,-0.079777,-0.14654,0.01132,-0.040313,0.094194,0.21522,-0.12417
1370,-0.057085,-0.060373,0.037958,-0.01795,0.10932,0.19976,-0.15377
1371,-0.026171,0.049139,0.070516,-0.0011774,0.1159,0.16885,-0.17383
1372,-0.0015062,0.15405,0.10505,0.0030979,0.11656,0.12281,-0.17942
1373,0.0090175,0.23232,0.13037,-0.0051238,0.11228,0.071173,-0.17712
1374,0.0070443,0.27014,0.13464,-0.024856,0.10636,0.023817,-0.18403
1375,-0.0067681,0.26225,0.10932,-0.049192,0.10373,-0.014003,-0.20179
1376,-0.028802,0.22114,0.05769,-0.069253,0.11031,-0.039326,-0.22481
1377,-0.052152,0.16622,-0.0087413,-0.079777,0.12774,-0.053138,-0.24783
1378,-0.07024,0.11031,-0.073528,-0.081421,0.1501,-0.056098,-0.26361
1379,-0.073528,0.054401,-0.11497,-0.07287,0.16654,-0.05281,-0.26559
1380,-0.060702,-0.0038083,-0.12023,-0.04985,0.16852,-0.046561,-0.25506
1381,-0.033406,-0.061689,-0.090629,-0.014003,0.14944,-0.038011,-0.24388
1382,0.0011247,-0.1097,-0.043601,0.022172,0.10373,-0.029131,-0.23829
1383,0.039931,-0.13963,0.002769,0.054072,0.043549,-0.022225,-0.23467
1384,0.082355,-0.14588,0.0373,0.082684,0.00046697,-0.014003,-0.22448
1385,0.12577,-0.12812,0.061965,0.10439,-0.011372,-0.0041372,-0.20244
1386,0.16819,-0.094576,0.072489,0.099127,-0.01499,0.002769,-0.17909
1387,0.21292,-0.050836,0.068871,0.041575,-0.048205,-0.0018351,-0.16528
1388,0.25633,0.002769,0.064596,-0.071226,-0.12417,-0.014332,-0.16857
1389,0.28527,0.075449,0.08663,-0.21132,-0.22448,-0.028473,-0.18666
1390,0.29184,0.16885,0.15109,-0.333,-0.3136,-0.040641,-0.21198
1391,0.26718,0.26323,0.24514,-0.40305,-0.36688,-0.047548,-0.23796
1392,0.21719,0.33032,0.32539,-0.42015,-0.37642,-0.053467,-0.26
1393,0.15569,0.34512,0.35236,-0.40437,-0.35833,-0.057743,-0.27578
1394,0.099456,0.30335,0.3198,-0.37543,-0.3284,-0.057414,-0.28203
1395,0.05473,0.22903,0.25304,-0.34353,-0.29223,-0.04985,-0.2771
1396,0.024145,0.15438,0.1991,-0.30406,-0.23336,-0.039326,-0.26361
1397,0.0014536,0.10143,0.21061,-0.25276,-0.1222,-0.02946,-0.24816
1398,-0.015976,0.080382,0.31684,-0.1883,0.077093,-0.019923,-0.23336
1399,-0.024198,0.083013,0.5112,-0.11233,0.36781,-0.015648,-0.21922
1400,-0.020909,0.096167,0.74141,-0.03538,0.68155,-0.018278,-0.20738
1401,-0.011701,0.10834,0.93774,0.029407,0.91143,-0.026171,-0.19948
1402,-0.0074258,0.10406,1.0367,0.067885,0.97983,-0.039655,-0.1906
1403,-0.011701,0.067885,1.0137,0.073147,0.87427,-0.054454,-0.17613
1404,-0.028802,-0.0034794,0.88117,0.04618,0.64044,-0.069582,-0.15114
1405,-0.060045,-0.096878,0.68024,0.0014536,0.35959,-0.085367,-0.11595
1406,-0.10411,-0.18501,0.45726,-0.04985,0.10965,-0.10181,-0.082408
1407,-0.15706,-0.24651,0.24942,-0.092603,-0.063004,-0.12023,-0.063333
1408,-0.21494,-0.27151,0.088275,-0.11694,-0.14358,-0.13601,-0.059058
1409,-0.27052,-0.26394,-0.0093991,-0.11431,-0.14029,-0.14818,-0.063004
1410,-0.31163,-0.2327,-0.044588,-0.087998,-0.077146,-0.15279,-0.068924
1411,-0.33432,-0.18765,-0.037353,-0.04985,0.0090175,-0.15279,-0.073199
1412,-0.34057,-0.13634,-0.019594,-0.015648,0.080711,-0.1518,-0.07287
1413,-0.33235,-0.089314,-0.012359,0.0054,0.10998,-0.15443,-0.064978
1414,-0.31261,-0.04985,-0.018936,0.0037556,0.08663,-0.16627,-0.047877
1415,-0.27841,-0.013017,-0.032749,-0.025842,0.024803,-0.18534,-0.026829
1416,-0.22316,0.024803,-0.040313,-0.076817,-0.052481,-0.20672,-0.0084125
1417,-0.14588,0.06361,-0.034722,-0.13009,-0.1176,-0.22711,-0.0024928
1418,-0.050836,0.097812,-0.0097279,-0.1643,-0.15739,-0.24487,-0.011372
1419,0.046837,0.11985,0.027763,-0.17548,-0.16923,-0.24947,-0.022883
1420,0.13103,0.12478,0.063281,-0.18107,-0.16364,-0.23073,-0.02354
1421,0.1843,0.10998,0.085315,-0.19652,-0.14884,-0.18732,-0.016963
1422,0.19877,0.078409,0.084328,-0.21461,-0.13634,-0.12516,-0.012359
1423,0.17707,0.033354,0.05769,-0.20508,-0.1347,-0.056427,-0.011043
1424,0.1307,-0.025185,0.010662,-0.14226,-0.14555,0.0057288,-0.011372
1425,0.074462,-0.096878,-0.04097,-0.038011,-0.16265,0.058019,-0.010715
1426,0.01987,-0.1643,-0.075173,0.073147,-0.1814,0.10472,-0.0051238
1427,-0.027816,-0.20212,-0.080434,0.15306,-0.2031,0.14616,0.0093464
1428,-0.060702,-0.19028,-0.058071,0.17542,-0.22481,0.19516,0.030394
1429,-0.070568,-0.12253,-0.023211,0.14024,-0.23402,0.26356,0.050784
1430,-0.048863,-0.012359,0.0080309,0.072489,-0.21691,0.34874,0.065912
1431,0.002769,0.11524,0.032696,0.002769,-0.16989,0.42799,0.076435
1432,0.083342,0.23758,0.049797,-0.043272,-0.10181,0.47535,0.085315
1433,0.18792,0.3438,0.063281,-0.056756,-0.033735,0.47075,0.087946
1434,0.30631,0.42109,0.074462,-0.040641,0.012306,0.41385,0.085315
1435,0.41188,0.45726,0.081039,-0.0087413,0.022172,0.31947,0.082026
1436,0.477,0.43852,0.085972,0.02283,-0.0024928,0.21752,0.079724
1437,0.49081,0.36222,0.091563,0.041904,-0.047548,0.13925,0.073147
1438,0.46581,0.2435,0.076435,0.040918,-0.096878,0.098469,0.062952
1439,0.42898,0.12412,0.025132,0.02283,-0.13503,0.094523,0.055717
1440,0.40234,0.039602,-0.0584,-0.002164,-0.15246,0.11721,0.050126
1441,0.39215,0.00046697,-0.1518,-0.020252,-0.14851,0.15536,0.045193
1442,0.39478,-0.0093991,-0.23007,-0.025842,-0.13108,0.19845,0.042233
1443,0.40892,-0.010715,-0.2817,-0.022225,-0.10576,0.24284,0.042562
1444,0.43523,-0.024527,-0.30834,-0.018278,-0.080763,0.28296,0.037958
1445,0.46088,-0.05544,-0.31459,-0.019594,-0.052481,0.31421,0.028092
1446,0.46121,-0.091945,-0.30242,-0.0265,-0.019594,0.32933,0.013622
1447,0.41944,-0.11168,-0.2771,-0.034064,0.017239,0.32835,-0.0057815
1448,0.33558,-0.098193,-0.23994,-0.028144,0.052757,0.31256,-0.021896
1449,0.21719,-0.053138,-0.17811,-0.0008485,0.082026,0.28231,-0.024527
1450,0.072489,-0.0047949,-0.065635,0.047166,0.10307,0.2389,-0.016305
1451,-0.092603,0.013293,0.11261,0.099456,0.11458,0.18397,-0.0008485
1452,-0.26822,-0.021238,0.34282,0.1376,0.11195,0.11787,0.01987
1453,-0.43101,-0.096549,0.57401,0.15635,0.096496,0.050784,0.036642
1454,-0.54841,-0.16528,0.74108,0.15635,0.070516,-0.011372,0.041575
1455,-0.60103,-0.17778,0.78876,0.13925,0.040918,-0.066951,0.037629
1456,-0.5984,-0.13141,0.69799,0.099456,0.01691,-0.11299,0.024803
1457,-0.57735,-0.051165,0.50166,0.039602,0.0047422,-0.15048,0.0040845
1458,-0.57867,0.036642,0.27869,-0.024198,0.0017824,-0.18074,-0.017292
1459,-0.61978,0.12445,0.11031,-0.074186,0.00079584,-0.20639,-0.036695
1460,-0.69246,0.20502,0.032367,-0.1005,-0.0038083,-0.23073,-0.054454
1461,-0.78092,0.26356,0.030723,-0.10214,-0.014661,-0.2521,-0.072213
1462,-0.86544,0.28296,0.061965,-0.085039,-0.024856,-0.26986,-0.086354
1463,-0.90523,0.25238,0.084328,-0.054454,-0.030118,-0.27874,-0.087012
1464,-0.85985,0.17608,0.085644,-0.018936,-0.025185,-0.27512,-0.069582
1465,-0.71778,0.064596,0.076764,0.017568,-0.007097,-0.25572,-0.04393
1466,-0.5073,-0.070897,0.067227,0.057032,0.021186,-0.22218,-0.016634
1467,-0.29025,-0.21034,0.057361,0.096167,0.050784,-0.18008,0.0086887
1468,-0.11891,-0.33465,0.042233,0.11524,0.063938,-0.14029,0.030394
1469,-0.021896,-0.43397,0.013951,0.093536,0.030723,-0.11727,0.045522
1470,0.0080309,-0.51125,-0.027158,0.027763,-0.059716,-0.11957,0.045851
1471,-0.0015062,-0.57834,-0.076488,-0.052152,-0.18534,-0.14423,0.029078
1472,-0.014003,-0.63589,-0.12154,-0.1005,-0.29913,-0.18008,0.0054
1473,-0.0080836,-0.67141,-0.14818,-0.0903,-0.36326,-0.20475,-0.010057
1474,0.017897,-0.66187,-0.15476,-0.028144,-0.36326,-0.20771,-0.0090702
1475,0.055717,-0.59413,-0.1495,0.051113,-0.30702,-0.18929,0.0077021
1476,0.090248,-0.4708,-0.13897,0.1182,-0.2156,-0.15443,0.030723
1477,0.10768,-0.32149,-0.1222,0.15734,-0.11891,-0.11365,0.053086
1478,0.10669,-0.17548,-0.10115,0.16687,-0.042286,-0.081421,0.078409
1479,0.092879,-0.05544,-0.070568,0.14484,-0.0087413,-0.071226,0.099456
1480,0.073476,0.024474,-0.033735,0.080711,-0.029131,-0.091287,0.10669
1481,0.051113,0.067227,0.0021113,-0.022225,-0.099509,-0.13009,0.095181
1482,0.034669,0.085972,0.027763,-0.13667,-0.18995,-0.17054,0.074462
1483,0.034998,0.10209,0.040589,-0.2202,-0.25901,-0.19028,0.063281
1484,0.065583,0.13333,0.048482,-0.24717,-0.27578,-0.17745,0.073147
1485,0.13169,0.18562,0.051441,-0.21955,-0.2304,-0.14259,0.10044
1486,0.23035,0.24679,0.032696,-0.16134,-0.14719,-0.10576,0.13629
1487,0.34545,0.29743,-0.021238,-0.10477,-0.054125,-0.080106,0.17016
1488,0.45102,0.32276,-0.11562,-0.077475,0.01987,-0.074186,0.19581
1489,0.5158,0.32341,-0.23204,-0.088656,0.059992,-0.087012,0.20765
1490,0.53455,0.31355,-0.33103,-0.12056,0.068543,-0.10313,0.20798
1491,0.51778,0.31355,-0.37905,-0.14785,0.059005,-0.10773,0.20404
1492,0.48489,0.33361,-0.36458,-0.15443,0.042891,-0.090629,0.20009
1493,0.44608,0.36715,-0.30275,-0.14325,0.024474,-0.050836,0.19351
1494,0.40333,0.40497,-0.22415,-0.1268,0.0077021,0.0067154,0.18496
1495,0.35466,0.44246,-0.15607,-0.11332,-0.0011774,0.073476,0.17871
1496,0.30105,0.477,-0.10641,-0.096878,0.0014536,0.14024,0.17082
1497,0.24383,0.50791,-0.069253,-0.058729,0.017239,0.19746,0.15503
1498,0.18628,0.53915,-0.038011,0.01987,0.04026,0.23265,0.13169
1499,0.1353,0.57039,-0.011701,0.14616,0.064925,0.23857,0.10505
1500,0.09551,0.59572,0.012306,0.29743,0.094523,0.22081,0.083999
1501,0.061307,0.58486,0.027105,0.42701,0.12905,0.18365,0.076435
1502,0.018884,0.49771,0.01987,0.49147,0.16457,0.13136,0.077093
1503,-0.046561,0.30894,-0.011043,0.47634,0.18825,0.075778,0.07512
1504,-0.13009,0.038616,-0.060045,0.40004,0.20075,0.026447,0.071831
1505,-0.21198,-0.23862,-0.11529,0.30335,0.19976,-0.0093991,0.067227
1506,-0.26131,-0.44219,-0.16265,0.21883,0.18562,-0.03242,0.068543
1507,-0.25737,-0.52145,-0.18765,0.16654,0.16523,-0.044259,0.073804
1508,-0.19389,-0.47705,-0.18534,0.14912,0.14517,-0.046232,0.078409
1509,-0.094576,-0.35208,-0.15903,0.15734,0.13169,-0.044588,0.079724
1510,0.0096753,-0.20146,-0.11628,0.17542,0.12281,-0.042944,0.078737
1511,0.095181,-0.066622,-0.068924,0.18266,0.1136,-0.040313,0.080711
1512,0.15799,0.036314,-0.033078,0.1649,0.10669,-0.038997,0.087946
1513,0.20009,0.10636,-0.022883,0.12577,0.1057,-0.039326,0.097154
1514,0.22443,0.15306,-0.050179,0.074133,0.11426,-0.034393,0.1034
1515,0.23067,0.18562,-0.10082,0.014608,0.12938,-0.025185,0.11031
1516,0.22048,0.21127,-0.14851,-0.052152,0.14451,-0.0077547,0.12774
1517,0.2014,0.23396,-0.16561,-0.10247,0.14879,0.017897,0.15142
1518,0.18562,0.24909,-0.13667,-0.093589,0.13464,0.045193,0.16622
1519,0.17246,0.24679,-0.076488,-0.0041372,0.1034,0.06361,0.16359
1520,0.14813,0.21588,-0.018936,0.14024,0.06624,0.064925,0.14714
1521,0.10274,0.15701,0.0047422,0.28625,0.042891,0.045851,0.12642
1522,0.039602,0.07808,-0.025514,0.38557,0.045522,0.017897,0.10735
1523,-0.024527,-0.0038083,-0.10148,0.41484,0.076435,-0.0031506,0.092221
1524,-0.084052,-0.07879,-0.18567,0.37702,0.12248,-0.0097279,0.074462
1525,-0.13667,-0.1416,-0.22546,0.29678,0.16128,-0.0038083,0.056046
1526,-0.17844,-0.18995,-0.17449,0.20897,0.18036,0.002769,0.037629
1527,-0.20047,-0.21955,-0.033735,0.1455,0.1797,0.00079584,0.017897
1528,-0.1906,-0.22514,0.14221,0.12116,0.16523,-0.007097,0.0001381
1529,-0.14489,-0.20606,0.27145,0.13103,0.14451,-0.013674,-0.0077547
1530,-0.080434,-0.17449,0.30138,0.15536,0.11524,-0.019265,-0.0041372
1531,-0.022225,-0.14588,0.23429,0.17246,0.07512,-0.020909,0.0080309
1532,0.014608,-0.12516,0.11458,0.16457,0.032367,-0.019594,0.013622
1533,0.027434,-0.11036,-0.0087413,0.13201,-0.0051238,-0.016634,0.0044134
1534,0.027763,-0.09622,-0.10576,0.076435,-0.039326,-0.015319,-0.017292
1535,0.027763,-0.079119,-0.17318,0.013293,-0.07024,-0.014661,-0.042286
1536,0.032038,-0.058071,-0.2202,-0.035708,-0.092603,-0.011701,-0.063991
1537,0.04322,-0.034064,-0.25079,-0.041299,-0.10115,-0.0031506,-0.073528
1538,0.060321,-0.014003,-0.26493,0.01132,-0.088327,0.012635,-0.067937
1539,0.085315,0.0021113,-0.25638,0.1159,-0.052481,0.032696,-0.058729
1540,0.11327,0.017239,-0.22283,0.23824,0.0077021,0.052099,-0.045903
1541,0.13596,0.034669,-0.16627,0.31421,0.077751,0.064267,-0.025514
1542,0.14616,0.047166,-0.094905,0.27145,0.11491,0.068871,-0.0034794
1543,0.13826,0.051113,-0.025842,0.088603,0.072489,0.061965,0.0086887
1544,0.11195,0.045522,0.024145,-0.17416,-0.051823,0.044864,-0.0011774
1545,0.077422,0.03434,0.042233,-0.41719,-0.2133,0.022501,-0.027816
1546,0.047495,0.021186,0.032038,-0.56288,-0.35175,0.0054,-0.055112
1547,0.034669,0.016581,0.011977,-0.58031,-0.42048,-0.00051963,-0.074844
1548,0.042562,0.022172,0.0001381,-0.48593,-0.40272,0.0057288,-0.084052
1549,0.061307,0.033683,0.0030979,-0.3261,-0.3136,0.020199,-0.07879
1550,0.079066,0.041247,0.011648,-0.15772,-0.18863,0.03434,-0.060702
1551,0.090905,0.037958,0.0047422,-0.022225,-0.060702,0.045522,-0.039326
1552,0.09255,0.019212,-0.034064,0.06361,0.042891,0.054072,-0.025842
1553,0.081039,-0.010057,-0.10839,0.094523,0.1034,0.051113,-0.02354
1554,0.05769,-0.04097,-0.19685,0.078409,0.1159,0.0373,-0.02946
1555,0.030394,-0.066622,-0.27052,0.036642,0.093208,0.018555,-0.034722
1556,0.010662,-0.085039,-0.31327,-0.010057,0.058019,0.0047422,-0.037024
1557,0.002769,-0.093918,-0.33333,-0.048205,0.034011,0.0044134,-0.03242
1558,0.0044134,-0.093589,-0.33564,-0.069911,0.032696,0.017897,-0.023211
1559,0.016253,-0.086354,-0.32708,-0.074844,0.052099,0.041575,-0.01203
1560,0.044535,-0.07024,-0.31294,-0.066951,0.079724,0.062623,0.002769
1561,0.086959,-0.040313,-0.28598,-0.051494,0.10274,0.069858,0.015924
1562,0.13103,0.0040845,-0.22349,-0.032749,0.11656,0.061307,0.023817
1563,0.16194,0.058348,-0.10674,-0.0097279,0.1205,0.046837,0.026119
1564,0.17312,0.11853,0.080053,0.02283,0.11524,0.03434,0.02283
1565,0.16128,0.18858,0.31947,0.072818,0.10801,0.02875,0.017897
1566,0.12971,0.2629,0.56612,0.13662,0.1011,0.029407,0.012635
1567,0.086301,0.32802,0.75259,0.1945,0.09551,0.032367,0.0021113
1568,0.031709,0.36452,0.82691,0.22147,0.091234,0.033683,-0.011372
1569,-0.047219,0.35367,0.77133,0.20206,0.078737,0.030723,-0.023869
1570,-0.15344,0.29217,0.61611,0.13859,0.057032,0.021843,-0.02946
1571,-0.27052,0.19483,0.41451,0.060979,0.03434,0.014608,-0.02354
1572,-0.37346,0.087288,0.22278,-0.0038083,0.01691,0.0083598,-0.011701
1573,-0.44778,-0.0090702,0.074133,-0.043272,0.0067154,0.0047422,0.0017824
1574,-0.48987,-0.084381,-0.020909,-0.057414,0.00079584,0.0086887,0.017897
1575,-0.50434,-0.13667,-0.07024,-0.048534,-0.0011774,0.019212,0.038944
1576,-0.49382,-0.17219,-0.086354,-0.022883,0.0040845,0.033025,0.06361
1577,-0.46324,-0.19554,-0.082736,0.013293,0.012635,0.050455,0.084986
1578,-0.40963,-0.21264,-0.063662,0.050784,0.024803,0.071173,0.098141
1579,-0.31952,-0.21889,-0.016963,0.081697,0.038616,0.1011,0.10274
1580,-0.18205,-0.20014,0.071173,0.099127,0.041247,0.133,0.10636
1581,0.0021113,-0.14292,0.20568,0.10636,0.025132,0.15175,0.10998
1582,0.20732,-0.049192,0.35696,0.1034,-0.0064392,0.14944,0.11097
1583,0.38524,0.060979,0.4668,0.090577,-0.039984,0.12708,0.10505
1584,0.48752,0.16457,0.48785,0.063938,-0.065307,0.089261,0.092879
1585,0.49475,0.24251,0.40826,0.01987,-0.07879,0.045851,0.074462
1586,0.42734,0.28329,0.25534,-0.038997,-0.082079,0.0096753,0.05177
1587,0.32703,0.28625,0.080711,-0.10247,-0.085039,-0.0064392,0.026776
1588,0.22607,0.25994,-0.063662,-0.15377,-0.087998,0.0060577,0.010991
1589,0.13695,0.22278,-0.14719,-0.17054,-0.082408,0.040918,0.0073732
1590,0.056703,0.19285,-0.16561,-0.14226,-0.061031,0.084986,0.0096753
1591,-0.019923,0.18365,-0.13272,-0.077803,-0.020252,0.12708,0.013293
1592,-0.092931,0.19187,-0.077146,0.0017824,0.033025,0.15207,0.012964
1593,-0.16594,0.19746,-0.028802,0.071173,0.081039,0.14846,0.01132
1594,-0.24947,0.18167,-0.0067681,0.11656,0.11097,0.1136,0.015266
1595,-0.33827,0.13991,-0.01203,0.133,0.11557,0.059005,0.022501
1596,-0.40963,0.080382,-0.031104,0.11985,0.095839,0.0037556,0.027434
1597,-0.42871,0.018555,-0.051494,0.087617,0.06065,-0.039326,0.030065
1598,-0.37543,-0.038011,-0.063991,0.05177,0.023817,-0.064649,0.032038
1599,-0.2669,-0.094247,-0.066622,0.023817,-0.0054526,-0.075501,0.033025
1600,-0.14193,-0.15509,-0.060373,0.010004,-0.028144,-0.075501,0.033025
1601,-0.047548,-0.22678,-0.058729,0.0093464,-0.043272,-0.073199,0.033354
1602,-0.0024928,-0.30374,-0.069911,0.015266,-0.052481,-0.075501,0.031381
1603,0.0034268,-0.37313,-0.094247,0.01691,-0.051823,-0.084381,0.023488
1604,-0.0028217,-0.42377,-0.12319,0.013293,-0.043272,-0.094247,0.011977
1605,0.0021113,-0.45436,-0.14292,0.0096753,-0.028144,-0.10017,0.0024402
1606,0.02579,-0.46784,-0.15147,0.0073732,-0.011043,-0.097536,-0.002164
1607,0.055388,-0.45797,-0.15081,0.0014536,0.010662,-0.087341,-0.0054526
1608,0.077422,-0.41522,-0.14621,-0.0093991,0.039931,-0.073857,-0.013674
1609,0.086959,-0.33596,-0.13601,-0.020581,0.071502,-0.058729,-0.022554
1610,0.084657,-0.23928,-0.12187,-0.030447,0.10176,-0.04393,-0.024527
1611,0.076435,-0.15903,-0.10378,-0.034722,0.12346,-0.033735,-0.017621
1612,0.064267,-0.1222,-0.079448,-0.027487,0.13464,-0.028802,-0.0080836
1613,0.054072,-0.13634,-0.056427,-0.01203,0.1353,-0.025514,0.00079584
1614,0.050126,-0.17942,-0.040641,0.0037556,0.12642,-0.021238,0.0073732
1615,0.055717,-0.21659,-0.038668,0.011977,0.11261,-0.01203,0.013951
1616,0.068543,-0.22251,-0.04689,0.012964,0.10307,0.0090175,0.024145
1617,0.084328,-0.19028,-0.056427,0.010991,0.097812,0.046508,0.036971
1618,0.098469,-0.1324,-0.0584,0.011977,0.094523,0.095181,0.044864
1619,0.10439,-0.064978,-0.047219,0.01691,0.090248,0.1478,0.044206
1620,0.096167,-0.0041372,-0.025514,0.025461,0.087288,0.19746,0.03434
1621,0.064925,0.038616,-0.0018351,0.032367,0.087288,0.24449,0.015266
1622,0.010662,0.061307,0.0090175,0.031381,0.08367,0.28823,-0.013674
1623,-0.053796,0.071173,0.010333,0.026447,0.074133,0.33295,-0.045574
1624,-0.10411,0.076106,0.0096753,0.020857,0.059334,0.37669,-0.069253
1625,-0.12516,0.081368,0.013293,0.021186,0.037629,0.41024,-0.07879
1626,-0.11891,0.096496,0.025132,0.026447,0.0083598,0.42175,-0.078132
1627,-0.092931,0.11853,0.045851,0.031381,-0.024198,0.39642,-0.076817
1628,-0.058729,0.14122,0.070187,0.036971,-0.053467,0.32736,-0.080763
1629,-0.028473,0.16095,0.093208,0.045193,-0.068266,0.22015,-0.088327
1630,-0.014332,0.17345,0.10834,0.041904,-0.065635,0.10209,-0.096549
1631,-0.018607,0.17904,0.1136,-0.012688,-0.047548,0.0077021,-0.10017
1632,-0.033735,0.17707,0.10603,-0.16035,-0.037353,-0.047219,-0.091616
1633,-0.051165,0.16326,0.087946,-0.37609,-0.069582,-0.06728,-0.066293
1634,-0.065307,0.13169,0.06361,-0.54019,-0.15607,-0.073528,-0.031104
1635,-0.066622,0.089261,0.036642,-0.52441,-0.27184,-0.083723,-0.0034794
1636,-0.050507,0.041247,0.0090175,-0.30275,-0.36589,-0.10872,0.0014536
1637,-0.01499,-0.0018351,-0.01499,0.029078,-0.39944,-0.14391,-0.018278
1638,0.033354,-0.026171,-0.035051,0.32637,-0.36556,-0.17646,-0.052481
1639,0.086959,-0.024527,-0.047877,0.48324,-0.28795,-0.19159,-0.085367
1640,0.133,-0.0057815,-0.051823,0.48193,-0.19652,-0.18534,-0.099838
1641,0.15471,0.018884,-0.044588,0.36781,-0.11036,-0.16397,-0.093918
1642,0.15306,0.04322,-0.034064,0.21292,-0.03538,-0.13503,-0.067609
1643,0.14089,0.070845,-0.026171,0.076435,0.032367,-0.10576,-0.03538
1644,0.13629,0.1011,-0.018607,-0.007097,0.09551,-0.081421,-0.0093991
1645,0.15602,0.13563,-0.0097279,-0.033078,0.14846,-0.067937,0.010991
1646,0.20897,0.16654,0.00046697,-0.020252,0.17806,-0.06728,0.038287
1647,0.27672,0.18891,0.0073732,0.0050711,0.17477,-0.079448,0.07512
1648,0.33361,0.19384,0.0086887,0.019212,0.14287,-0.095233,0.11162
1649,0.3517,0.1797,0.0054,0.019541,0.10077,-0.10576,0.13629
1650,0.3198,0.1478,-0.0051238,0.0086887,0.06065,-0.10937,0.14188
1651,0.24778,0.10439,-0.025842,-0.0074258,0.033354,-0.11036,0.12642
1652,0.1649,0.065254,-0.048863,-0.025514,0.015266,-0.12023,0.097483
1653,0.10735,0.038616,-0.06728,-0.040313,0.0011247,-0.14029,0.064596
1654,0.10011,0.032367,-0.076159,-0.045903,-0.014332,-0.16331,0.039602
1655,0.1376,0.040918,-0.07583,-0.035051,-0.035051,-0.18205,0.028421
1656,0.19088,0.054401,-0.071555,-0.010386,-0.065635,-0.1906,0.032696
1657,0.22377,0.058019,-0.078461,0.01987,-0.10543,-0.18567,0.047824
1658,0.21752,0.04618,-0.11365,0.046837,-0.15114,-0.17482,0.060321
1659,0.16819,0.018226,-0.18403,0.062294,-0.19652,-0.16693,0.069529
1660,0.084328,-0.014661,-0.28269,0.061965,-0.23434,-0.16594,0.077751
1661,-0.0265,-0.038011,-0.38332,0.048482,-0.26526,-0.16989,0.083342
1662,-0.16265,-0.04393,-0.4537,0.028092,-0.29025,-0.17745,0.077093
1663,-0.32182,-0.038997,-0.46883,0.0040845,-0.30768,-0.18962,0.06065
1664,-0.50171,-0.033078,-0.42279,-0.021567,-0.31492,-0.20146,0.041575
1665,-0.68522,-0.031104,-0.32314,-0.044588,-0.31689,-0.20902,0.031052
1666,-0.83584,-0.027487,-0.18797,-0.062018,-0.309,-0.20606,0.029078
1667,-0.92168,-0.013017,-0.034722,-0.068595,-0.28828,-0.19389,0.025132
1668,-0.93648,0.014937,0.12938,-0.061689,-0.25506,-0.17679,0.017568
1669,-0.89142,0.059334,0.31092,-0.041299,-0.20968,-0.16265,0.013293
1670,-0.80098,0.11919,0.51514,-0.0097279,-0.1495,-0.15607,0.015266
1671,-0.67371,0.19483,0.7174,0.023817,-0.07583,-0.15575,0.027763
1672,-0.5152,0.27836,0.86572,0.049139,0.013293,-0.15246,0.046508
1673,-0.34221,0.35762,0.91011,0.064596,0.1307,-0.13733,0.060979
1674,-0.17581,0.41385,0.83151,0.069529,0.28559,-0.11201,0.063281
1675,-0.026171,0.43457,0.64998,0.065254,0.45628,-0.075501,0.05177
1676,0.10505,0.40958,0.40793,0.055388,0.60098,-0.026829,0.035327
1677,0.22147,0.34084,0.1501,0.043549,0.68484,0.032038,0.022172
1678,0.32933,0.23955,-0.086683,0.0373,0.70556,0.099127,0.018555
1679,0.42339,0.12807,-0.26986,0.047495,0.68352,0.16819,0.023159
1680,0.49212,0.022501,-0.3774,0.080053,0.64242,0.22212,0.033354
1681,0.5306,-0.062676,-0.40897,0.1284,0.59802,0.25074,0.047166
1682,0.54606,-0.11891,-0.37839,0.16819,0.55132,0.25731,0.058019
1683,0.54672,-0.14884,-0.3113,0.15832,0.4964,0.25435,0.059005
1684,0.54014,-0.17219,-0.23138,0.050455,0.41944,0.25271,0.052099
1685,0.52041,-0.21132,-0.16199,-0.16462,0.30072,0.25567,0.04322
1686,0.47108,-0.27545,-0.11661,-0.41259,0.12248,0.25863,0.033683
1687,0.3836,-0.35734,-0.095562,-0.54874,-0.10115,0.25074,0.012306
1688,0.26586,-0.43199,-0.082736,-0.4685,-0.3136,0.22311,-0.01499
1689,0.1353,-0.47047,-0.062676,-0.186,-0.44712,0.18858,-0.036695
1690,0.0063866,-0.4514,-0.024527,0.17148,-0.46883,0.16556,-0.046232
1691,-0.11102,-0.37313,0.025132,0.45496,-0.39089,0.16523,-0.046561
1692,-0.1962,-0.24322,0.071502,0.57138,-0.25572,0.18792,-0.04097
1693,-0.235,-0.06432,0.097812,0.51909,-0.12187,0.22475,-0.032749
1694,-0.22218,0.13991,0.09551,0.35795,-0.028144,0.26093,-0.017621
1695,-0.16857,0.33065,0.071173,0.16359,0.0096753,0.26521,-0.0011774
1696,-0.097864,0.47009,0.040589,-0.0084125,-0.004466,0.22147,0.0021113
1697,-0.037353,0.53915,0.010991,-0.12582,-0.053467,0.13136,-0.0074258
1698,-0.011043,0.53751,-0.010715,-0.1837,-0.11595,0.01691,-0.019923
1699,-0.021567,0.48423,-0.021896,-0.19258,-0.17252,-0.093918,-0.026171
1700,-0.046561,0.403,-0.0265,-0.17449,-0.20738,-0.1666,-0.026829
1701,-0.057085,0.31125,-0.023869,-0.14785,-0.21856,-0.18403,-0.025185
1702,-0.039326,0.20897,-0.011043,-0.11825,-0.20508,-0.15048,-0.026829
1703,0.0017824,0.088932,0.010333,-0.087998,-0.16824,-0.080434,-0.034393
1704,0.054401,-0.044259,0.033354,-0.056427,-0.10872,0.0017824,-0.043601
1705,0.10801,-0.17877,0.049139,-0.021896,-0.016305,0.083013,-0.045246
1706,0.15536,-0.29782,0.05769,0.01132,0.11623,0.15569,-0.033735
1707,0.19154,-0.39089,0.059334,0.037958,0.26817,0.2139,-0.011372
1708,0.21061,-0.46652,0.05473,0.050126,0.39248,0.24679,0.01132
1709,0.20996,-0.53756,0.045193,0.049468,0.44312,0.24679,0.025461
1710,0.1843,-0.60827,0.029407,0.039931,0.39675,0.2116,0.027434
1711,0.13991,-0.65595,0.010004,0.021843,0.26915,0.14879,0.02283
1712,0.090577,-0.65201,-0.0067681,0.0060577,0.10998,0.071173,0.020528
1713,0.057032,-0.5767,-0.016634,-0.00051963,-0.030775,-0.00019077,0.02283
1714,0.058676,-0.43726,-0.016305,0.0034268,-0.1222,-0.051494,0.025461
1715,0.10044,-0.2623,-0.007097,0.011648,-0.1564,-0.077146,0.015595
1716,0.17115,-0.087998,0.0054,0.019541,-0.14522,-0.081421,-0.004466
1717,0.24975,0.056703,0.015924,0.027434,-0.1097,-0.079777,-0.016963
1718,0.30829,0.15471,0.021186,0.036971,-0.072213,-0.085039,-0.014003
1719,0.33065,0.20173,0.018555,0.043549,-0.047877,-0.10247,0.0030979
1720,0.31454,0.20864,0.0086887,0.050126,-0.043601,-0.12648,0.022501
1721,0.27606,0.19483,-0.0018351,0.056703,-0.057743,-0.15081,0.035656
1722,0.23594,0.18167,-0.0034794,0.064596,-0.079777,-0.16956,0.041247
1723,0.2139,0.18924,0.013951,0.071173,-0.09918,-0.17548,0.04026
1724,0.21357,0.22048,0.04618,0.073476,-0.1074,-0.17054,0.043549
1725,0.22081,0.25896,0.084986,0.073147,-0.10214,-0.16265,0.059005
1726,0.20732,0.27935,0.11393,0.068543,-0.086354,-0.15772,0.079395
1727,0.15175,0.26323,0.12379,0.058348,-0.069582,-0.15936,0.09255
1728,0.050784,0.20864,0.11426,0.043549,-0.063662,-0.16495,0.091563
1729,-0.071555,0.13695,0.091563,0.023817,-0.072213,-0.16726,0.077751
1730,-0.18469,0.069858,0.064596,0.0054,-0.095233,-0.16265,0.053415
1731,-0.27052,0.026119,0.042233,-0.0074258,-0.1245,-0.15311,0.030394
1732,-0.33103,0.0054,0.030065,-0.014003,-0.14621,-0.14193,0.017239
1733,-0.38299,-0.0008485,0.023488,-0.014661,-0.15575,-0.13075,0.012635
1734,-0.42903,0.0021113,0.015266,-0.01203,-0.15213,-0.11661,0.014937
1735,-0.45173,0.0093464,0.0030979,-0.0090702,-0.13568,-0.097864,0.023159
1736,-0.42476,0.021514,-0.0064392,-0.0038083,-0.11332,-0.075501,0.036971
1737,-0.33366,0.040589,-0.0038083,0.0024402,-0.093918,-0.050836,0.055717
1738,-0.19652,0.067556,0.0083598,0.0077021,-0.08175,-0.02946,0.075778
1739,-0.056756,0.099456,0.021186,0.010333,-0.073857,-0.0093991,0.091892
1740,0.050126,0.1353,0.028421,0.0090175,-0.065635,0.010004,0.10406
1741,0.10801,0.17082,0.025132,0.002769,-0.054125,0.026119,0.11261
1742,0.12215,0.19581,0.013293,-0.0061104,-0.037353,0.035985,0.11458
1743,0.1136,0.20568,-0.00051963,-0.013674,-0.01499,0.039931,0.10866
1744,0.10768,0.1991,-0.013674,-0.017292,0.012635,0.045522,0.096167
1745,0.11393,0.17674,-0.0265,-0.013017,0.045193,0.056374,0.076435
1746,0.13136,0.14517,-0.037682,0.0001381,0.085644,0.070845,0.04618
1747,0.14681,0.11327,-0.048534,0.021186,0.1353,0.087617,0.020528
1748,0.14517,0.086959,-0.056098,0.042562,0.19384,0.10472,0.0096753
1749,0.12511,0.066569,-0.058729,0.056046,0.24843,0.11623,0.013293
1750,0.098141,0.053415,-0.055112,0.060979,0.28296,0.12083,0.016581
1751,0.077751,0.046837,-0.046232,0.059663,0.28823,0.11985,0.012635
1752,0.068871,0.045193,-0.029789,0.055388,0.27343,0.11656,0.0054
1753,0.060321,0.049139,-0.0064392,0.044535,0.25238,0.11623,0.0011247
1754,0.044535,0.055388,0.021186,0.02875,0.23067,0.12346,0.0096753
1755,0.021514,0.057361,0.046508,0.0093464,0.20436,0.13464,0.029078
1756,-0.0034794,0.051113,0.065912,-0.007097,0.16457,0.14122,0.04881
1757,-0.026171,0.034998,0.074462,-0.0041372,0.10636,0.13432,0.059663
1758,-0.048534,0.013951,0.057361,0.037629,0.03434,0.11557,0.060979
1759,-0.069253,-0.007097,-0.0015062,0.12313,-0.040641,0.085644,0.056374
1760,-0.080434,-0.022225,-0.10181,0.2264,-0.1051,0.051441,0.048482
1761,-0.080434,-0.030118,-0.21626,0.3073,-0.14687,0.021843,0.04322
1762,-0.071884,-0.031762,-0.31525,0.33065,-0.1643,0.0044134,0.04322
1763,-0.061031,-0.02946,-0.38003,0.28954,-0.16693,-0.0011774,0.04881
1764,-0.047548,-0.025185,-0.40503,0.207,-0.16791,0.0017824,0.057032
1765,-0.031762,-0.019265,-0.40766,0.12083,-0.17219,0.0090175,0.064925
1766,-0.021238,-0.014332,-0.40733,0.06065,-0.17581,0.01987,0.066569
1767,-0.024527,-0.013674,-0.41621,0.039602,-0.1735,0.031709,0.059992
1768,-0.042615,-0.017292,-0.43035,0.04881,-0.16594,0.041247,0.039931
1769,-0.068595,-0.016963,-0.41884,0.070845,-0.15805,0.049797,0.0073732
1770,-0.088985,0.00046697,-0.33333,0.090577,-0.14325,0.054401,-0.032749
1771,-0.089972,0.04618,-0.13568,0.10176,-0.11562,0.055717,-0.07024
1772,-0.068595,0.11985,0.17016,0.10768,-0.076159,0.052099,-0.093918
1773,-0.031762,0.2093,0.5158,0.11195,-0.033406,0.048482,-0.10674
1774,0.0037556,0.28757,0.78745,0.11294,0.0030979,0.043877,-0.11036
1775,0.027763,0.33164,0.88315,0.094852,0.023817,0.038287,-0.10148
1776,0.042233,0.33854,0.76508,0.044864,0.028421,0.029407,-0.084052
1777,0.057032,0.31717,0.47634,-0.036366,0.021514,0.014608,-0.063991
1778,0.081697,0.28329,0.13366,-0.13568,0.0073732,-0.0051238,-0.046232
