,channel_1,channel_2,channel_3,channel_4,channel_5,channel_6,channel_7
0,0.28954,0.085972,0.045851,0.039931,0.06065,0.6046,0.19779
1,0.31519,0.088603,0.080382,0.073147,0.095181,0.60788,0.17608
2,0.3096,0.095181,0.11985,0.11787,0.13958,0.60821,0.15273
3,0.26915,0.097812,0.1524,0.15931,0.16786,0.60624,0.12807
4,0.19779,0.094852,0.16589,0.18496,0.15964,0.59045,0.10209
5,0.10439,0.083999,0.15931,0.18693,0.099127,0.53488,0.077422
6,-0.0008485,0.063938,0.13793,0.16885,-0.0064392,0.42273,0.051441
7,-0.1097,0.038287,0.11426,0.13826,-0.13108,0.25994,0.023159
8,-0.21264,0.011648,0.096496,0.10274,-0.24322,0.080382,-0.004466
9,-0.29716,-0.0093991,0.085315,0.075449,-0.30341,-0.078132,-0.030118
10,-0.3557,-0.027487,0.076764,0.065912,-0.28466,-0.19751,-0.059716
11,-0.38201,-0.044259,0.063281,0.077422,-0.1735,-0.2794,-0.094247
12,-0.37411,-0.054125,0.04322,0.098141,0.027105,-0.32445,-0.1245
13,-0.33925,-0.051494,0.017239,0.11623,0.28362,-0.32807,-0.14917
14,-0.28828,-0.034722,-0.0061104,0.1284,0.54474,-0.2748,-0.17054
15,-0.22908,-0.0084125,-0.015648,0.13333,0.76015,-0.14325,-0.1814
16,-0.16397,0.017897,-0.0087413,0.12741,0.88742,0.072818,-0.17252
17,-0.091945,0.038287,0.0073732,0.10834,0.90156,0.3369,-0.14884
18,-0.016634,0.049468,0.018226,0.079066,0.78251,0.57763,-0.1222
19,0.059992,0.053086,0.016581,0.046837,0.53619,0.72233,-0.099838
20,0.13366,0.052428,0.0040845,0.022172,0.2264,0.72858,-0.086683
21,0.19516,0.051441,-0.010386,0.011648,-0.042944,0.60295,-0.081092
22,0.23659,0.053086,-0.020909,0.017897,-0.18699,0.38952,-0.078461
23,0.25304,0.058676,-0.028144,0.032367,-0.18995,0.14155,-0.069911
24,0.24745,0.061965,-0.035051,0.046837,-0.10937,-0.088985,-0.056427
25,0.22903,0.058676,-0.041299,0.053086,-0.019594,-0.26,-0.036695
26,0.20667,0.053415,-0.046561,0.048482,0.028092,-0.34813,-0.011043
27,0.18529,0.046508,-0.047877,0.035656,0.023817,-0.3603,0.011977
28,0.16589,0.041904,-0.04689,0.016581,-0.017621,-0.32051,0.024145
29,0.14879,0.042562,-0.045246,-0.0038083,-0.067609,-0.2521,0.020528
30,0.13399,0.047495,-0.04393,-0.02354,-0.10707,-0.1689,0.011648
31,0.12116,0.054072,-0.044917,-0.047548,-0.12713,-0.086354,0.012306
32,0.10735,0.059992,-0.048534,-0.080106,-0.13305,-0.031104,0.027105
33,0.092879,0.063938,-0.052481,-0.11529,-0.13832,-0.027487,0.04618
34,0.076764,0.065254,-0.04985,-0.14522,-0.1541,-0.082408,0.059334
35,0.061307,0.062294,-0.036366,-0.15607,-0.18271,-0.17022,0.060979
36,0.043877,0.053743,-0.015319,-0.13832,-0.21363,-0.25046,0.050455
37,0.023488,0.037958,0.013293,-0.08175,-0.23402,-0.29354,0.031052
38,-0.0018351,0.017239,0.043877,0.0024402,-0.24322,-0.29354,0.017897
39,-0.030118,-0.0024928,0.069529,0.085315,-0.25177,-0.26032,0.017239
40,-0.055112,-0.016634,0.080711,0.13432,-0.27249,-0.21363,0.024803
41,-0.073199,-0.023211,0.076435,0.1376,-0.30571,-0.17877,0.033683
42,-0.080434,-0.027487,0.062623,0.10472,-0.33728,-0.16857,0.042233
43,-0.07583,-0.029789,0.044535,0.059005,-0.35471,-0.17844,0.051441
44,-0.063991,-0.031433,0.028421,0.018555,-0.35109,-0.19784,0.066898
45,-0.053138,-0.03242,0.01691,-0.011372,-0.32906,-0.21922,0.085644
46,-0.048534,-0.031433,0.0080309,-0.030775,-0.29321,-0.23369,0.10011
47,-0.048205,-0.028473,0.002769,-0.041957,-0.24881,-0.23796,0.10439
48,-0.047219,-0.025842,0.0034268,-0.048863,-0.19685,-0.23402,0.094852
49,-0.046561,-0.027158,0.0030979,-0.050507,-0.1416,-0.22251,0.083999
50,-0.042944,-0.028802,-0.00019077,-0.04689,-0.080106,-0.20376,0.079724
51,-0.038339,-0.031104,-0.0067681,-0.035708,-0.0038083,-0.17482,0.083013
52,-0.03242,-0.033406,-0.015319,-0.019923,0.098469,-0.137,0.092221
53,-0.022883,-0.03538,-0.020909,-0.0015062,0.22114,-0.089972,0.10143
54,-0.012359,-0.03242,-0.018936,0.017897,0.34874,-0.029789,0.1034
55,-0.0057815,-0.028144,-0.0087413,0.039273,0.46351,0.043877,0.10011
56,-0.0028217,-0.020909,0.0060577,0.06065,0.55033,0.12609,0.097154
57,-0.0061104,-0.01795,0.019212,0.077093,0.59605,0.20568,0.10373
58,-0.019594,-0.019594,0.027434,0.073804,0.59374,0.27244,0.11754
59,-0.038011,-0.020909,0.032038,0.033025,0.54836,0.3119,0.13234
60,-0.056098,-0.019594,0.03434,-0.047548,0.46088,0.31059,0.1432
61,-0.073199,-0.016305,0.033025,-0.13042,0.32111,0.25041,0.14221
62,-0.087669,-0.016963,0.027105,-0.14719,0.13103,0.12642,0.12313
63,-0.10017,-0.02354,0.018226,-0.057085,-0.078461,-0.053467,0.087288
64,-0.11102,-0.035051,0.011648,0.12083,-0.24322,-0.24684,0.042562
65,-0.11299,-0.039655,0.0080309,0.31552,-0.31853,-0.40272,0.0063866
66,-0.10411,-0.038668,0.0060577,0.44016,-0.31525,-0.49251,-0.012359
67,-0.086683,-0.032749,0.0001381,0.43391,-0.30242,-0.51388,-0.014661
68,-0.06728,-0.026171,-0.018278,0.2925,-0.3478,-0.48264,-0.011043
69,-0.045903,-0.019923,-0.048534,0.073147,-0.45863,-0.42081,-0.01203
70,-0.019923,-0.010057,-0.082079,-0.14259,-0.5813,-0.3478,-0.015648
71,0.014608,0.0017824,-0.11201,-0.28565,-0.64839,-0.2748,-0.01499
72,0.058348,0.015924,-0.13174,-0.32807,-0.62142,-0.20606,-0.002164
73,0.10932,0.029078,-0.13799,-0.27808,-0.50994,-0.13733,0.022501
74,0.16523,0.041904,-0.13404,-0.1814,-0.3603,-0.071555,0.044864
75,0.21686,0.050126,-0.12615,-0.087998,-0.22185,-0.010386,0.059334
76,0.256,0.049139,-0.12056,-0.030775,-0.11924,0.047824,0.0692
77,0.27704,0.036971,-0.12253,-0.012359,-0.054125,0.10702,0.07808
78,0.27145,0.017568,-0.12615,-0.021567,-0.0051238,0.17016,0.089919
79,0.23692,-0.0047949,-0.13108,-0.037024,0.050784,0.23035,0.10505
80,0.17641,-0.025514,-0.12911,-0.038668,0.13103,0.27211,0.11656
81,0.10242,-0.038997,-0.11529,-0.021567,0.23067,0.28625,0.11491
82,0.030723,-0.041957,-0.089643,-0.0018351,0.33821,0.27672,0.10439
83,-0.024527,-0.032749,-0.047548,0.0047422,0.42898,0.25961,0.097154
84,-0.049521,-0.0077547,0.013293,-0.013674,0.47338,0.23659,0.10406
85,-0.038011,0.031381,0.089919,-0.035708,0.43983,0.19812,0.12412
86,0.0021113,0.075778,0.17641,-0.012688,0.31092,0.1307,0.14616
87,0.052099,0.1136,0.25665,0.088932,0.10406,0.030723,0.15175
88,0.085644,0.1353,0.31355,0.24547,-0.11924,-0.088985,0.1205
89,0.08959,0.13826,0.32901,0.38623,-0.28959,-0.2031,0.05177
90,0.0692,0.12577,0.30138,0.44707,-0.36129,-0.28598,-0.038668
91,0.040589,0.11097,0.24712,0.40464,-0.33169,-0.31689,-0.1199
92,0.027434,0.11195,0.18661,0.28954,-0.235,-0.28631,-0.16824
93,0.04322,0.13399,0.13892,0.15076,-0.1268,-0.21034,-0.18765
94,0.085972,0.16654,0.11195,0.031709,-0.057414,-0.1268,-0.1906
95,0.14616,0.19713,0.099127,-0.043272,-0.045246,-0.071555,-0.19948
96,0.20272,0.21456,0.092221,-0.071226,-0.079777,-0.058729,-0.22579
97,0.23002,0.21456,0.085315,-0.063662,-0.13305,-0.070897,-0.26756
98,0.21127,0.20075,0.072489,-0.039655,-0.17646,-0.074844,-0.30965
99,0.15273,0.17773,0.05473,-0.01499,-0.18995,-0.045246,-0.33564
100,0.074133,0.15405,0.0373,-0.00051963,-0.1643,0.020857,-0.33794
101,-0.0034794,0.12873,0.01987,0.00079584,-0.11299,0.10636,-0.32084
102,-0.067937,0.10209,-0.00051963,-0.011043,-0.051165,0.1945,-0.28927
103,-0.12154,0.067556,-0.028802,-0.036037,0.020199,0.27408,-0.24454
104,-0.17318,0.022501,-0.062676,-0.071226,0.10505,0.33197,-0.19159
105,-0.22974,-0.028144,-0.091945,-0.10477,0.20009,0.36518,-0.13634
106,-0.284,-0.071555,-0.10543,-0.12089,0.29743,0.37439,-0.083723
107,-0.32215,-0.094576,-0.091945,-0.10115,0.39544,0.3586,-0.042286
108,-0.32873,-0.090958,-0.051165,-0.037353,0.51186,0.31322,-0.013345
109,-0.29025,-0.066951,0.002769,0.04026,0.67136,0.24482,0.0057288
110,-0.20902,-0.032091,0.050784,0.081368,0.86736,0.16523,0.026776
111,-0.10806,0.0037556,0.078409,0.047166,1.0509,0.084657,0.059992
112,-0.016963,0.034669,0.084328,-0.048534,1.1541,0.015266,0.10274
113,0.042233,0.054072,0.07808,-0.15147,1.1134,-0.040641,0.13958
114,0.058348,0.059005,0.071831,-0.19126,0.90485,-0.085039,0.15438
115,0.0373,0.049139,0.070845,-0.1347,0.56711,-0.11562,0.15306
116,-0.0047949,0.027763,0.07216,0.015266,0.17608,-0.12713,0.14451
117,-0.045246,0.0017824,0.068214,0.21916,-0.19324,-0.12023,0.133
118,-0.076817,-0.0265,0.055717,0.41616,-0.50632,-0.10937,0.11919
119,-0.10148,-0.054125,0.031052,0.54639,-0.75724,-0.10773,0.1034
120,-0.12253,-0.078132,-0.010057,0.57467,-0.93944,-0.12779,0.086301
121,-0.13536,-0.094576,-0.057085,0.50594,-1.0075,-0.16693,0.072818
122,-0.13634,-0.1005,-0.094247,0.38689,-0.93549,-0.21132,0.068543
123,-0.12056,-0.093589,-0.10806,0.27343,-0.73061,-0.24618,0.080382
124,-0.089643,-0.074844,-0.099509,0.20173,-0.43495,-0.25802,0.10011
125,-0.053796,-0.047219,-0.07879,0.17312,-0.11398,-0.24257,0.12215
126,-0.02354,-0.017621,-0.056756,0.17477,0.16885,-0.20047,0.13859
127,-0.010386,0.0057288,-0.036037,0.18233,0.35959,-0.14325,0.13892
128,-0.010386,0.019541,-0.024856,0.16622,0.42372,-0.084052,0.12609
129,-0.010715,0.026119,-0.023211,0.1057,0.36255,-0.031433,0.10932
130,0.0021113,0.030065,-0.024198,0.011977,0.24054,0.01987,0.098798
131,0.030723,0.0373,-0.023869,-0.087669,0.15142,0.086301,0.11064
132,0.066569,0.04881,-0.021896,-0.16298,0.12938,0.16424,0.14254
133,0.098141,0.057032,-0.021567,-0.20771,0.12346,0.231,0.17608
134,0.11524,0.056374,-0.027816,-0.22316,0.059005,0.26356,0.19088
135,0.11458,0.04618,-0.048205,-0.21297,-0.080434,0.26027,0.18069
136,0.098141,0.028092,-0.073199,-0.17975,-0.24585,0.23528,0.1524
137,0.071502,0.0073732,-0.089314,-0.1347,-0.36655,0.19943,0.11853
138,0.040589,-0.013674,-0.091287,-0.094576,-0.40601,0.15207,0.092879
139,0.01987,-0.032749,-0.080434,-0.069911,-0.37148,0.10439,0.087288
140,0.01691,-0.048534,-0.063333,-0.062347,-0.28927,0.075449,0.10209
141,0.034011,-0.057743,-0.044588,-0.063662,-0.18501,0.083342,0.12445
142,0.059005,-0.056427,-0.029131,-0.067937,-0.082736,0.12445,0.14089
143,0.081368,-0.044588,-0.021238,-0.067609,0.0040845,0.18102,0.14813
144,0.093536,-0.02354,-0.020252,-0.062676,0.069529,0.23133,0.1524
145,0.094852,0.002769,-0.023211,-0.05281,0.11458,0.256,0.15339
146,0.090248,0.02579,-0.028473,-0.045246,0.13826,0.25008,0.14188
147,0.08959,0.038616,-0.036695,-0.040641,0.14648,0.22311,0.11787
148,0.092221,0.041247,-0.044588,-0.035051,0.14714,0.18595,0.096496
149,0.093208,0.040589,-0.048205,-0.02946,0.14254,0.14747,0.087617
150,0.087288,0.043877,-0.042615,-0.022554,0.13662,0.11853,0.092879
151,0.077751,0.050784,-0.031104,-0.011372,0.12905,0.10307,0.10406
152,0.070187,0.056374,-0.019265,0.00046697,0.1182,0.09551,0.10932
153,0.063281,0.056703,-0.012359,0.0077021,0.10242,0.091234,0.10307
154,0.059663,0.05177,-0.010057,0.0060577,0.081697,0.091234,0.084328
155,0.065912,0.040918,-0.010715,-0.0038083,0.059992,0.094523,0.057361
156,0.088275,0.029078,-0.013674,-0.019923,0.041575,0.10011,0.030065
157,0.12248,0.019541,-0.014661,-0.031104,0.033683,0.10603,0.013293
158,0.15898,0.016253,-0.0093991,-0.032091,0.0373,0.11031,0.0073732
159,0.18562,0.024474,0.0054,-0.021567,0.045193,0.11097,0.0080309
160,0.19581,0.04618,0.031709,-0.00051963,0.050455,0.10834,0.013622
161,0.18825,0.071502,0.064267,0.025461,0.053086,0.10669,0.024474
162,0.16523,0.090905,0.092879,0.047166,0.054072,0.10406,0.038944
163,0.13333,0.093865,0.1057,0.059992,0.052099,0.097812,0.052757
164,0.10209,0.07808,0.099127,0.064596,0.046508,0.084657,0.06361
165,0.079724,0.057361,0.079066,0.069529,0.039602,0.068871,0.071502
166,0.075449,0.050455,0.057361,0.076435,0.033025,0.057032,0.079066
167,0.088275,0.055717,0.043549,0.081039,0.02875,0.059992,0.083999
168,0.10834,0.06624,0.038287,0.079066,0.029736,0.072818,0.084986
169,0.12215,0.074462,0.039602,0.071173,0.037629,0.074462,0.074791
170,0.11721,0.075449,0.041247,0.059005,0.047495,0.044535,0.047824
171,0.090905,0.063281,0.038287,0.041904,0.058348,-0.01795,0.015924
172,0.049468,0.039931,0.030723,0.022501,0.076106,-0.087998,-0.011701
173,0.0080309,0.014279,0.017897,0.0057288,0.10307,-0.1324,-0.039984
174,-0.021567,-0.0031506,0.0047422,-0.0034794,0.13728,-0.13568,-0.067937
175,-0.03538,-0.0064392,-0.0031506,-0.0074258,0.16786,-0.10641,-0.087669
176,-0.034064,0.0030979,-0.0011774,-0.0064392,0.1797,-0.072542,-0.096878
177,-0.017621,0.018884,0.0096753,-0.0024928,0.16753,-0.06432,-0.094905
178,0.0047422,0.035656,0.021514,-0.0018351,0.13333,-0.099838,-0.091287
179,0.021514,0.048482,0.031381,-0.0061104,0.083999,-0.18337,-0.091287
180,0.025132,0.04881,0.035656,-0.015976,0.024803,-0.30341,-0.098522
181,0.018555,0.037958,0.036314,-0.030118,-0.042615,-0.44811,-0.11102
182,0.0057288,0.021186,0.033354,-0.048205,-0.10872,-0.59643,-0.12056
183,-0.007097,0.0067154,0.029078,-0.066293,-0.16331,-0.7135,-0.12582
184,-0.021896,-0.004466,0.027763,-0.08175,-0.2008,-0.76547,-0.12516
185,-0.036037,-0.0090702,0.030723,-0.092931,-0.21691,-0.73192,-0.11793
186,-0.045246,-0.004466,0.033683,-0.098851,-0.20771,-0.61715,-0.10576
187,-0.044588,0.0034268,0.035656,-0.097207,-0.17449,-0.44581,-0.086025
188,-0.037024,0.010004,0.039602,-0.089643,-0.11924,-0.24914,-0.058729
189,-0.02354,0.012635,0.049139,-0.079448,-0.050179,-0.05544,-0.034064
190,-0.010057,0.0096753,0.062294,-0.068595,0.013951,0.12445,-0.021238
191,-0.0018351,0.0017824,0.073804,-0.055112,0.058019,0.29447,-0.022225
192,0.0017824,-0.0028217,0.080382,-0.039326,0.07808,0.45792,-0.034722
193,0.0030979,-0.0008485,0.079395,-0.025514,0.08367,0.6046,-0.050507
194,0.0057288,0.0070443,0.071502,-0.021896,0.090248,0.7174,-0.053467
195,0.0086887,0.012306,0.058676,-0.03242,0.12182,0.78514,-0.030447
196,0.0021113,0.011648,0.045522,-0.044917,0.20535,0.82,0.0086887
197,-0.018278,0.0017824,0.036642,-0.049521,0.34907,0.84566,0.04881
198,-0.05281,-0.013345,0.032367,-0.036037,0.53093,0.89301,0.080711
199,-0.089972,-0.026171,0.029078,-0.0034794,0.70523,0.992,0.10538
200,-0.1176,-0.033406,0.031709,0.043549,0.82033,1.1508,0.12609
201,-0.13042,-0.033406,0.045193,0.097154,0.83842,1.3357,0.14583
202,-0.13371,-0.0265,0.067227,0.1501,0.74535,1.4879,0.16457
203,-0.13437,-0.018278,0.092879,0.18989,0.5625,1.5376,0.18003
204,-0.13832,-0.018278,0.11426,0.21061,0.32999,1.4258,0.18266
205,-0.14654,-0.025842,0.12379,0.21324,0.094523,1.136,0.16457
206,-0.15377,-0.035051,0.11919,0.20897,-0.10576,0.70391,0.12675
207,-0.15476,-0.037024,0.10143,0.20371,-0.25737,0.21752,0.078737
208,-0.15081,-0.030118,0.076435,0.19022,-0.3626,-0.22382,0.030394
209,-0.14621,-0.019594,0.053743,0.16128,-0.42936,-0.55565,-0.012688
210,-0.13996,-0.012359,0.04026,0.11261,-0.47902,-0.7602,-0.057085
211,-0.12516,-0.011043,0.035656,0.042562,-0.5392,-0.86018,-0.10378
212,-0.092274,-0.007097,0.033025,-0.041628,-0.62701,-0.89438,-0.14752
213,-0.042286,0.0030979,0.026776,-0.11858,-0.73389,-0.89635,-0.17778
214,0.01691,0.014279,0.016581,-0.16594,-0.82729,-0.88945,-0.18962
215,0.071173,0.017897,0.014937,-0.1689,-0.8559,-0.87235,-0.18765
216,0.11195,0.015266,0.021514,-0.12878,-0.78257,-0.82828,-0.17679
217,0.13925,0.010333,0.032038,-0.04985,-0.59281,-0.74705,-0.16462
218,0.15997,0.0070443,0.041904,0.055059,-0.31064,-0.62471,-0.15969
219,0.18332,0.0093464,0.047824,0.16556,0.010004,-0.44811,-0.15542
220,0.20765,0.01691,0.046508,0.25435,0.32078,-0.20179,-0.14029
221,0.22443,0.029078,0.039273,0.30533,0.59045,0.11294,-0.10181
222,0.22837,0.044535,0.0373,0.31848,0.80356,0.45299,-0.04393
223,0.2162,0.06065,0.046837,0.30171,0.93873,0.74239,0.020199
224,0.18989,0.072818,0.061965,0.25468,0.94695,0.9065,0.074462
225,0.15273,0.077422,0.072818,0.17773,0.78153,0.90354,0.10965
226,0.10998,0.074462,0.070516,0.078409,0.44871,0.73549,0.12215
227,0.06361,0.062623,0.059992,-0.016634,0.035656,0.45069,0.11557
228,0.018555,0.045193,0.050455,-0.078132,-0.32676,0.12313,0.097483
229,-0.017621,0.031052,0.046508,-0.084381,-0.52375,-0.17975,0.082355
230,-0.040641,0.026119,0.047495,-0.04097,-0.49579,-0.41555,0.073476
231,-0.054783,0.034011,0.048153,0.02875,-0.25375,-0.56979,0.067227
232,-0.063662,0.050784,0.040918,0.082355,0.11524,-0.6474,0.052428
233,-0.068595,0.069858,0.02579,0.098798,0.47075,-0.65957,0.02283
234,-0.068595,0.080382,0.0096753,0.080053,0.69372,-0.61452,-0.019923
235,-0.063991,0.078409,0.0011247,0.037629,0.72562,-0.52079,-0.063991
236,-0.059387,0.067885,0.0017824,-0.011701,0.57993,-0.40634,-0.10082
237,-0.063333,0.057032,0.0060577,-0.055112,0.32933,-0.30242,-0.12845
238,-0.077146,0.054072,0.0080309,-0.085696,0.064267,-0.23434,-0.14062
239,-0.088985,0.063938,0.0096753,-0.1097,-0.14226,-0.20803,-0.13733
240,-0.086354,0.082355,0.017897,-0.12154,-0.27184,-0.21889,-0.1245
241,-0.061031,0.095181,0.033683,-0.11201,-0.33662,-0.25539,-0.10641
242,-0.029789,0.10011,0.049468,-0.073528,-0.36721,-0.30406,-0.087341
243,-0.011043,0.095839,0.053086,-0.018278,-0.38924,-0.34945,-0.075173
244,-0.011701,0.08367,0.041247,0.035327,-0.40864,-0.37872,-0.079448
245,-0.025842,0.064596,0.016253,0.071173,-0.42476,-0.38957,-0.098522
246,-0.035708,0.044206,-0.016305,0.083342,-0.42509,-0.38266,-0.11497
247,-0.027487,0.026776,-0.049192,0.072489,-0.40009,-0.35109,-0.10937
248,0.0063866,0.014937,-0.072213,0.049468,-0.34123,-0.27841,-0.07879
249,0.06065,0.0096753,-0.081421,0.024474,-0.26065,-0.16298,-0.029789
250,0.1205,0.010662,-0.082079,0.0054,-0.1814,-0.030447,0.027105
251,0.17049,0.017568,-0.082079,-0.0011774,-0.12319,0.080382,0.080382
252,0.1945,0.02579,-0.083394,0.002769,-0.091945,0.13596,0.12511
253,0.19253,0.029407,-0.085367,0.01132,-0.082736,0.1205,0.14155
254,0.17115,0.025132,-0.081092,0.022501,-0.088985,0.039602,0.12609
255,0.13826,0.014608,-0.072542,0.031381,-0.1051,-0.077803,0.089919
256,0.098798,-0.0011774,-0.060045,0.037629,-0.12286,-0.1962,0.048153
257,0.056374,-0.017621,-0.044917,0.043549,-0.14654,-0.28269,0.017568
258,0.015924,-0.030447,-0.027487,0.050126,-0.17613,-0.31886,0.0044134
259,-0.017621,-0.036695,-0.0087413,0.059334,-0.21297,-0.3067,0.0017824
260,-0.039655,-0.038011,0.0080309,0.073804,-0.24388,-0.26493,0.0067154
261,-0.054454,-0.033078,0.01987,0.088932,-0.25605,-0.22481,0.015266
262,-0.063662,-0.028802,0.022501,0.095181,-0.24487,-0.21034,0.01987
263,-0.069253,-0.024527,0.014608,0.085644,-0.2156,-0.22283,0.021843
264,-0.069911,-0.021567,-0.0011774,0.056046,-0.17482,-0.24092,0.02283
265,-0.062347,-0.013345,-0.016634,0.016253,-0.12582,-0.23171,0.026119
266,-0.043601,0.00046697,-0.0265,-0.024198,-0.06136,-0.17449,0.038944
267,-0.013674,0.018555,-0.030118,-0.055112,0.014937,-0.070568,0.067227
268,0.017897,0.033025,-0.031433,-0.077475,0.086959,0.049797,0.099127
269,0.036971,0.038616,-0.03242,-0.094905,0.13464,0.14648,0.12182
270,0.037958,0.030065,-0.033735,-0.11266,0.14385,0.18266,0.12905
271,0.026447,0.012306,-0.034064,-0.13305,0.11327,0.15503,0.13037
272,0.019541,-0.0041372,-0.03242,-0.15542,0.059005,0.08663,0.13563
273,0.031052,-0.011372,-0.027487,-0.17482,-0.002164,0.021514,0.14879
274,0.057032,-0.0038083,-0.015976,-0.18501,-0.053138,-0.007097,0.1649
275,0.087288,0.012306,0.0060577,-0.17515,-0.08175,0.01132,0.17806
276,0.11294,0.031709,0.037629,-0.12911,-0.087341,0.060321,0.182
277,0.12642,0.047824,0.074133,-0.048863,-0.079777,0.11853,0.17181
278,0.12642,0.055388,0.10801,0.044864,-0.068595,0.1695,0.15405
279,0.1159,0.056046,0.13037,0.12511,-0.058071,0.19614,0.13793
280,0.10011,0.055388,0.13892,0.17279,-0.051165,0.19351,0.12149
281,0.081368,0.053415,0.13234,0.18266,-0.040641,0.16326,0.10143
282,0.065583,0.052099,0.11228,0.16556,-0.019594,0.12215,0.077751
283,0.05473,0.049468,0.085315,0.13991,0.0086887,0.084986,0.053086
284,0.05177,0.046508,0.06361,0.12248,0.042233,0.065254,0.033354
285,0.054401,0.045522,0.050784,0.11327,0.078409,0.063938,0.024474
286,0.062952,0.046508,0.044864,0.10274,0.11294,0.072489,0.029736
287,0.077093,0.048153,0.040918,0.082355,0.1376,0.081039,0.044535
288,0.094852,0.047824,0.035656,0.047824,0.14287,0.078737,0.062294
289,0.1136,0.045193,0.028421,0.0021113,0.11952,0.056046,0.070516
290,0.12873,0.041575,0.021514,-0.049192,0.070187,0.012635,0.071831
291,0.13563,0.038616,0.015595,-0.094905,0.013293,-0.04097,0.079395
292,0.12905,0.0373,0.012964,-0.12911,-0.030447,-0.085039,0.096825
293,0.10702,0.035327,0.021186,-0.14654,-0.040641,-0.10313,0.11393
294,0.073147,0.030065,0.038287,-0.14226,-0.0097279,-0.090958,0.1182
295,0.035656,0.018555,0.058019,-0.12253,0.056046,-0.052152,0.10899
296,-0.0038083,0.0080309,0.068543,-0.094576,0.13629,0.0044134,0.095839
297,-0.042944,0.0024402,0.064596,-0.07024,0.20469,0.064596,0.085644
298,-0.077146,0.0014536,0.046837,-0.043601,0.24547,0.11853,0.077751
299,-0.10115,0.002769,0.023488,-0.0028217,0.25369,0.16194,0.072489
300,-0.11036,0.0080309,0.0034268,0.056046,0.23561,0.19088,0.068543
301,-0.10773,0.015924,-0.0087413,0.1205,0.20206,0.19943,0.067556
302,-0.096549,0.023817,-0.012359,0.16852,0.16523,0.18233,0.070845
303,-0.088327,0.032038,-0.011701,0.18562,0.13432,0.1432,0.074462
304,-0.089314,0.038616,-0.010386,0.1695,0.10965,0.10176,0.07216
305,-0.1005,0.038616,-0.014003,0.13563,0.084986,0.079724,0.063938
306,-0.11562,0.028421,-0.021567,0.10209,0.05177,0.086959,0.056046
307,-0.13207,0.010991,-0.031433,0.082684,0.01132,0.12544,0.055059
308,-0.14785,-0.007097,-0.042944,0.07216,-0.037353,0.18167,0.055059
309,-0.15969,-0.025514,-0.05544,0.063281,-0.087998,0.23396,0.057032
310,-0.16298,-0.047219,-0.069253,0.049797,-0.13075,0.25008,0.062294
311,-0.15147,-0.067937,-0.083065,0.026119,-0.15377,0.20864,0.069529
312,-0.12286,-0.082736,-0.095891,-0.002164,-0.15542,0.11721,0.083999
313,-0.083065,-0.084381,-0.10576,-0.028144,-0.13832,0.0080309,0.11031
314,-0.041628,-0.069253,-0.10839,-0.037682,-0.10937,-0.083394,0.13958
315,-0.002164,-0.039984,-0.10181,-0.022225,-0.074186,-0.13042,0.15438
316,0.032696,-0.0077547,-0.084052,0.014937,-0.038011,-0.12878,0.14484
317,0.06065,0.013293,-0.064649,0.056374,0.00079584,-0.089314,0.12083
318,0.083013,0.019212,-0.048205,0.091892,0.041904,-0.0265,0.097154
319,0.09551,0.01132,-0.038339,0.1113,0.080711,0.049797,0.081039
320,0.098469,0.00046697,-0.035051,0.10998,0.10801,0.13103,0.075449
321,0.099127,-0.0047949,-0.033078,0.095181,0.1136,0.2014,0.079066
322,0.099127,0.00079584,-0.025514,0.078409,0.092879,0.24054,0.084986
323,0.097812,0.019541,-0.010715,0.072489,0.052428,0.23988,0.085644
324,0.086959,0.046508,0.0063866,0.077093,0.0034268,0.2014,0.080382
325,0.06065,0.076435,0.024474,0.08663,-0.042944,0.13958,0.071831
326,0.024145,0.099456,0.041904,0.093536,-0.082079,0.080053,0.056703
327,-0.019594,0.10899,0.057032,0.096825,-0.11825,0.036642,0.032367
328,-0.060702,0.10965,0.066569,0.096167,-0.1587,0.0080309,-0.0008485
329,-0.086354,0.10209,0.069529,0.088275,-0.20442,-0.024856,-0.036695
330,-0.092603,0.084657,0.062623,0.073147,-0.25079,-0.079777,-0.072542
331,-0.090958,0.058348,0.042233,0.048482,-0.2919,-0.16232,-0.094905
332,-0.097207,0.023817,0.0090175,0.01987,-0.31459,-0.26592,-0.1074
333,-0.12253,-0.013017,-0.028144,-0.0034794,-0.30637,-0.37411,-0.12023
334,-0.15772,-0.043272,-0.05544,-0.013017,-0.25375,-0.46718,-0.14588
335,-0.18403,-0.055112,-0.063991,-0.0054526,-0.14423,-0.52112,-0.17942
336,-0.18567,-0.044588,-0.055112,0.018555,0.010662,-0.51487,-0.18929
337,-0.15805,-0.018936,-0.034722,0.052757,0.18266,-0.43528,-0.16331
338,-0.10641,0.0080309,-0.013674,0.083013,0.34183,-0.26986,-0.11102
339,-0.039655,0.025132,0.0037556,0.10011,0.47371,-0.0090702,-0.050507
340,0.029736,0.02875,0.014279,0.10603,0.59243,0.33328,-0.0038083
341,0.088603,0.019541,0.01987,0.10998,0.7095,0.72036,0.011977
342,0.12807,0.0080309,0.022172,0.1159,0.81803,1.093,0.0011247
343,0.14681,0.0001381,0.024803,0.12182,0.90189,1.3922,-0.024856
344,0.14648,-0.0008485,0.035327,0.12807,0.95254,1.5718,-0.050836
345,0.13432,0.0054,0.058676,0.13464,0.96931,1.6067,-0.068595
346,0.1136,0.010662,0.087946,0.14089,0.9578,1.4958,-0.075173
347,0.090905,0.012635,0.11261,0.14813,0.9259,1.2729,-0.073857
348,0.074791,0.010662,0.12675,0.15503,0.87525,0.98904,-0.067937
349,0.067556,0.0077021,0.13267,0.16391,0.80915,0.69142,-0.057414
350,0.061965,0.010991,0.13596,0.16918,0.74404,0.4178,-0.045903
351,0.059005,0.022501,0.13859,0.15175,0.67892,0.19253,-0.036695
352,0.057032,0.039273,0.13563,0.072818,0.57927,0.01987,-0.032749
353,0.057032,0.053743,0.11721,-0.082736,0.37834,-0.11497,-0.038997
354,0.054401,0.053415,0.083999,-0.26592,0.039931,-0.2281,-0.051823
355,0.044864,0.0373,0.042562,-0.38628,-0.37707,-0.32676,-0.067609
356,0.03434,0.013293,0.0047422,-0.3774,-0.74343,-0.40075,-0.085039
357,0.02875,-0.0057815,-0.018936,-0.25309,-0.94042,-0.4389,-0.098851
358,0.035327,-0.017621,-0.0265,-0.079777,-0.92825,-0.43495,-0.11036
359,0.055059,-0.014003,-0.015648,0.065254,-0.74573,-0.39483,-0.11694
360,0.083999,0.0034268,0.0073732,0.13859,-0.48461,-0.33465,-0.11135
361,0.12083,0.031052,0.03434,0.13958,-0.2452,-0.26789,-0.089643
362,0.15734,0.059005,0.057032,0.096167,-0.095891,-0.20902,-0.0584
363,0.18003,0.077751,0.073804,0.042233,-0.046232,-0.16331,-0.029131
364,0.18299,0.084328,0.082355,0.00079584,-0.063662,-0.12812,-0.0061104
365,0.17115,0.079395,0.083342,-0.017292,-0.093589,-0.086025,0.0054
366,0.1501,0.071831,0.077751,-0.018278,-0.1028,-0.028144,0.0037556
367,0.12807,0.06624,0.06624,-0.013017,-0.088985,0.046508,-0.012359
368,0.10834,0.064925,0.050455,-0.010386,-0.06432,0.133,-0.036366
369,0.095839,0.064596,0.03434,-0.014003,-0.04097,0.22673,-0.051823
370,0.088603,0.062294,0.02283,-0.023869,-0.031433,0.31289,-0.047219
371,0.081697,0.052428,0.015924,-0.033735,-0.045246,0.3665,-0.028473
372,0.064925,0.036642,0.012306,-0.036037,-0.083723,0.36091,-0.0077547
373,0.0373,0.015595,0.0040845,-0.034722,-0.14752,0.28329,-0.00051963
374,0.002769,-0.0054526,-0.0084125,-0.034722,-0.22711,0.14944,-0.0077547
375,-0.024198,-0.019594,-0.022554,-0.038997,-0.30637,-0.014003,-0.013674
376,-0.03538,-0.021238,-0.033735,-0.045903,-0.37017,-0.17679,-0.00051963
377,-0.027816,-0.013674,-0.040313,-0.054783,-0.41029,-0.31689,0.036314
378,-0.0077547,-0.0028217,-0.04393,-0.066951,-0.42969,-0.4218,0.085972
379,0.015924,0.0067154,-0.046232,-0.082408,-0.43002,-0.48757,0.1284
380,0.033025,0.01132,-0.043272,-0.094905,-0.41687,-0.52079,0.1478
381,0.0373,0.014608,-0.030775,-0.097536,-0.40009,-0.5323,0.14254
382,0.029736,0.017897,-0.012359,-0.086025,-0.38661,-0.54052,0.12511
383,0.019541,0.02579,0.010991,-0.062018,-0.37937,-0.55762,0.10702
384,0.014937,0.036314,0.031381,-0.03538,-0.3797,-0.58853,0.092221
385,0.018884,0.044864,0.037629,-0.018278,-0.3774,-0.6405,0.083013
386,0.027105,0.047166,0.028092,-0.011701,-0.3557,-0.71252,0.075449
387,0.030394,0.040589,0.0077021,-0.011043,-0.29255,-0.7829,0.069529
388,0.019541,0.034011,-0.014003,-0.010386,-0.17745,-0.82006,0.067885
389,-0.0061104,0.027105,-0.028802,-0.0067681,-0.020252,-0.79408,0.068214
390,-0.042615,0.023159,-0.038997,0.0030979,0.14813,-0.69311,0.066569
391,-0.085039,0.017568,-0.044588,0.020857,0.28888,-0.53131,0.061636
392,-0.11793,0.0093464,-0.047877,0.044864,0.36683,-0.33958,0.053086
393,-0.13437,-0.00051963,-0.047877,0.076435,0.3734,-0.15311,0.043877
394,-0.13371,-0.0093991,-0.044917,0.11097,0.32407,0.0034268,0.041575
395,-0.12253,-0.014661,-0.036695,0.14221,0.24942,0.11787,0.052428
396,-0.10641,-0.018936,-0.030118,0.15734,0.18003,0.18463,0.073476
397,-0.091945,-0.021238,-0.031433,0.1501,0.13201,0.20765,0.098469
398,-0.082079,-0.019594,-0.039326,0.12577,0.10406,0.2093,0.12412
399,-0.07287,-0.012359,-0.048863,0.094523,0.092221,0.22147,0.14912
400,-0.057085,-0.00051963,-0.054125,0.066898,0.10439,0.27277,0.16786
401,-0.025842,0.015595,-0.052152,0.052428,0.15734,0.38327,0.18102
402,0.019541,0.035327,-0.04097,0.060321,0.25896,0.56217,0.19187
403,0.068871,0.057361,-0.024527,0.087617,0.39215,0.79369,0.20601
404,0.11064,0.080053,-0.004466,0.11985,0.52139,1.0278,0.22508
405,0.13859,0.094523,0.012635,0.1353,0.6092,1.1992,0.24975
406,0.1478,0.096496,0.023488,0.1182,0.62795,1.2416,0.26817
407,0.14221,0.089919,0.023159,0.068871,0.57204,1.1288,0.27047
408,0.12774,0.077093,0.012306,-0.0061104,0.46022,0.87821,0.25402
409,0.1159,0.063938,-0.0047949,-0.10806,0.32309,0.54606,0.22147
410,0.11426,0.054401,-0.02354,-0.23402,0.18989,0.20765,0.18858
411,0.12248,0.052099,-0.039655,-0.35438,0.06624,-0.074844,0.17378
412,0.13037,0.056046,-0.04393,-0.40371,-0.05544,-0.27841,0.1751
413,0.12675,0.062623,-0.034393,-0.31656,-0.16627,-0.40963,0.17378
414,0.10735,0.069858,-0.014332,-0.085696,-0.24158,-0.4902,0.15043
415,0.07512,0.075778,0.010991,0.21094,-0.25605,-0.53263,0.097154
416,0.04322,0.07512,0.031381,0.46943,-0.21034,-0.5346,0.029736
417,0.022501,0.0692,0.042891,0.61709,-0.13338,-0.49382,-0.028144
418,0.019541,0.060321,0.04881,0.63189,-0.062676,-0.40996,-0.059058
419,0.026447,0.055059,0.054072,0.53619,-0.022883,-0.28927,-0.060702
420,0.034011,0.056046,0.062952,0.3734,-0.0047949,-0.15048,-0.045574
421,0.038287,0.062623,0.072489,0.19713,0.011977,-0.016634,-0.024198
422,0.037958,0.0692,0.076435,0.049797,0.023159,0.081039,0.0001381
423,0.032367,0.064596,0.065583,-0.048863,0.00046697,0.12675,0.024803
424,0.024474,0.043877,0.039602,-0.10378,-0.065307,0.12346,0.042233
425,0.015595,0.01691,0.0093464,-0.12549,-0.14522,0.10603,0.046837
426,0.0077021,-0.0028217,-0.011372,-0.12352,-0.20146,0.11064,0.039931
427,-0.0011774,-0.0093991,-0.015976,-0.10707,-0.21297,0.14385,0.027105
428,-0.018278,-0.0067681,-0.0051238,-0.083723,-0.18337,0.1774,0.0096753
429,-0.043601,-0.004466,0.0083598,-0.061689,-0.13272,0.1751,-0.013017
430,-0.077146,-0.0087413,0.013622,-0.043272,-0.079777,0.12182,-0.042286
431,-0.11069,-0.020909,0.0083598,-0.022554,-0.032091,0.029078,-0.074844
432,-0.13338,-0.038011,-0.0011774,0.01132,0.018226,-0.072213,-0.1074
433,-0.14127,-0.050507,-0.0038083,0.06361,0.088603,-0.14522,-0.13404
434,-0.13272,-0.049192,0.012635,0.12774,0.19154,-0.17285,-0.14456
435,-0.11135,-0.033735,0.046837,0.17937,0.32243,-0.15838,-0.13437
436,-0.078461,-0.0067681,0.089261,0.18693,0.44214,-0.1245,-0.11628
437,-0.041628,0.021843,0.1205,0.12478,0.47338,-0.095562,-0.10609
438,-0.011701,0.039931,0.12182,-0.0090702,0.33525,-0.098193,-0.11233
439,0.0001381,0.045851,0.097483,-0.17712,0.013293,-0.137,-0.13075
440,-0.004466,0.04618,0.066569,-0.31886,-0.40009,-0.19324,-0.1587
441,-0.019594,0.052099,0.050784,-0.38595,-0.75823,-0.24454,-0.1883
442,-0.039655,0.070187,0.061307,-0.36392,-0.94503,-0.27315,-0.20738
443,-0.0584,0.092221,0.09255,-0.27414,-0.92497,-0.27282,-0.20968
444,-0.065635,0.10538,0.12807,-0.16824,-0.74343,-0.2498,-0.19817
445,-0.054454,0.10242,0.15372,-0.086025,-0.4833,-0.22119,-0.18271
446,-0.029789,0.088275,0.15569,-0.043601,-0.22448,-0.19981,-0.1712
447,-0.0015062,0.068214,0.13859,-0.036695,-0.020252,-0.19455,-0.15969
448,0.019541,0.048153,0.10965,-0.055769,0.1159,-0.19685,-0.14818
449,0.031709,0.032367,0.079066,-0.095562,0.18957,-0.18995,-0.13437
450,0.037958,0.025132,0.058019,-0.14358,0.20535,-0.16857,-0.11957
451,0.037629,0.027105,0.049468,-0.15969,0.15931,-0.1393,-0.10247
452,0.028421,0.033354,0.047495,-0.10115,0.061965,-0.11497,-0.088656
453,0.013293,0.037629,0.049139,0.039602,-0.038997,-0.1051,-0.082079
454,-0.00019077,0.038616,0.055717,0.20963,-0.09622,-0.10872,-0.077475
455,-0.0074258,0.038616,0.061636,0.33032,-0.10115,-0.11464,-0.066951
456,-0.0015062,0.034998,0.055717,0.34512,-0.096549,-0.12089,-0.048863
457,0.016253,0.027434,0.034011,0.25074,-0.13207,-0.13174,-0.027816
458,0.042891,0.01987,0.002769,0.094852,-0.21889,-0.14127,-0.0087413
459,0.073804,0.010991,-0.030775,-0.054125,-0.31097,-0.13963,0.0070443
460,0.10242,0.00046697,-0.053796,-0.14358,-0.34451,-0.13009,0.023488
461,0.12379,-0.0097279,-0.0584,-0.15509,-0.28795,-0.11694,0.043549
462,0.13366,-0.017621,-0.044588,-0.10641,-0.15739,-0.10346,0.063281
463,0.13695,-0.016634,-0.013345,-0.02946,-0.0034794,-0.091945,0.079724
464,0.13859,-0.007097,0.027763,0.042891,0.11557,-0.081092,0.088603
465,0.13892,0.0067154,0.06361,0.088275,0.1695,-0.074515,0.087946
466,0.1353,0.017239,0.078737,0.10044,0.16654,-0.067609,0.079395
467,0.11886,0.017568,0.070516,0.088603,0.13333,-0.059716,0.06361
468,0.090577,0.0047422,0.044206,0.065254,0.10538,-0.053138,0.047166
469,0.061636,-0.015976,0.0093464,0.040918,0.10373,-0.043272,0.034011
470,0.038287,-0.035051,-0.025185,0.018555,0.12873,-0.022225,0.028421
471,0.021186,-0.046561,-0.053138,0.0040845,0.16589,0.011648,0.041247
472,0.0083598,-0.04985,-0.071555,-0.0031506,0.19943,0.052757,0.07512
473,-0.0008485,-0.04689,-0.08471,-0.0057815,0.22311,0.090248,0.11623
474,-0.0028217,-0.04097,-0.096549,-0.0024928,0.23791,0.1205,0.15339
475,-0.0018351,-0.037353,-0.11003,0.0060577,0.24317,0.14616,0.17904
476,-0.00019077,-0.040641,-0.1268,0.015266,0.23429,0.16457,0.18726
477,0.00046697,-0.052481,-0.14456,0.021514,0.21193,0.17707,0.17806
478,-0.002164,-0.072542,-0.15969,0.025132,0.18299,0.18562,0.15997
479,-0.0093991,-0.088985,-0.16265,0.024145,0.1751,0.19187,0.14451
480,-0.023211,-0.089972,-0.14654,0.01987,0.21489,0.20272,0.13958
481,-0.036037,-0.069253,-0.10543,0.01691,0.30138,0.21489,0.14912
482,-0.041299,-0.028473,-0.040641,0.018884,0.40859,0.21851,0.17444
483,-0.036695,0.023159,0.031709,0.015266,0.49278,0.20009,0.20601
484,-0.028802,0.0692,0.093208,-0.024856,0.49771,0.15734,0.22147
485,-0.032091,0.090248,0.12346,-0.11825,0.37077,0.092879,0.20371
486,-0.057414,0.076764,0.11195,-0.22711,0.091563,0.014937,0.15898
487,-0.097207,0.033354,0.061965,-0.26888,-0.29058,-0.060702,0.10505
488,-0.13832,-0.021896,-0.0028217,-0.17679,-0.6622,-0.11891,0.055388
489,-0.16331,-0.069582,-0.0584,0.03434,-0.90984,-0.14884,0.019541
490,-0.16397,-0.097536,-0.087998,0.27376,-0.97824,-0.14259,-0.00019077
491,-0.1416,-0.098193,-0.087341,0.44148,-0.87564,-0.10313,-0.0051238
492,-0.10444,-0.076817,-0.063991,0.49015,-0.64378,-0.03538,-0.0047949
493,-0.065964,-0.041628,-0.02946,0.42964,-0.3386,0.048482,-0.0041372
494,-0.032091,0.0017824,0.0057288,0.30335,-0.002164,0.13925,-0.0064392
495,0.0044134,0.049139,0.04026,0.14944,0.33756,0.22541,-0.010057
496,0.053743,0.096825,0.082684,-0.012359,0.66379,0.30204,-0.0077547
497,0.11294,0.1432,0.13826,-0.14851,0.93675,0.36715,0.00079584
498,0.16128,0.18529,0.20108,-0.21067,1.0798,0.41056,0.0073732
499,0.17378,0.21324,0.25172,-0.16134,1.0127,0.40991,-0.0074258
500,0.13826,0.21719,0.27474,-0.01499,0.72233,0.35301,-0.056098
501,0.066898,0.19845,0.2629,0.16523,0.29546,0.25797,-0.12812
502,-0.012688,0.16654,0.22837,0.31125,-0.10839,0.16457,-0.19126
503,-0.075173,0.12971,0.1843,0.37143,-0.3455,0.11031,-0.2156
504,-0.11102,0.094852,0.13991,0.33295,-0.3649,0.11689,-0.19422
505,-0.12417,0.064596,0.094194,0.22443,-0.20968,0.17148,-0.14029
506,-0.11497,0.038616,0.051113,0.095839,0.02579,0.2287,-0.075173
507,-0.087341,0.019212,0.014937,-0.007097,0.23955,0.24021,-0.017621
508,-0.048863,0.0054,-0.0034794,-0.060045,0.37176,0.18266,0.023159
509,-0.013017,-0.0024928,-0.0034794,-0.055769,0.41089,0.064267,0.046837
510,0.012306,-0.004466,0.01132,-0.0015062,0.38031,-0.078461,0.06065
511,0.019541,-0.0011774,0.034011,0.081368,0.31223,-0.19587,0.0692
512,0.010991,0.0073732,0.06065,0.16622,0.2389,-0.24388,0.074133
513,-0.0084125,0.017239,0.08367,0.22114,0.17345,-0.20212,0.06624
514,-0.027158,0.026447,0.09255,0.23133,0.11195,-0.069911,0.048482
515,-0.039326,0.026447,0.085972,0.19877,0.041575,0.12544,0.030723
516,-0.047877,0.015595,0.068214,0.14418,-0.042615,0.32999,0.016581
517,-0.04985,-0.0047949,0.047824,0.086959,-0.1416,0.48259,0.0037556
518,-0.045574,-0.026171,0.030394,0.036314,-0.24849,0.5283,-0.011372
519,-0.035708,-0.041299,0.018884,-0.0008485,-0.35307,0.44871,-0.028144
520,-0.021238,-0.045574,0.010004,-0.024198,-0.43824,0.27408,-0.041299
521,-0.0031506,-0.038668,0.0021113,-0.035708,-0.48593,0.065912,-0.04985
522,0.01132,-0.026829,-0.0028217,-0.036695,-0.49152,-0.11332,-0.04985
523,0.023488,-0.01795,-0.0031506,-0.027816,-0.45863,-0.22448,-0.034064
524,0.03434,-0.017292,0.0001381,-0.011701,-0.39713,-0.26394,-0.0084125
525,0.047166,-0.022225,0.0054,0.0077021,-0.31393,-0.24388,0.01691
526,0.059663,-0.031104,0.0083598,0.02579,-0.20705,-0.19093,0.032038
527,0.064596,-0.045903,0.0073732,0.035656,-0.072213,-0.12549,0.033683
528,0.059005,-0.059387,-0.0018351,0.035656,0.089919,-0.066951,0.031709
529,0.052099,-0.063991,-0.01795,0.025132,0.25304,-0.02354,0.029078
530,0.05177,-0.053796,-0.03538,0.0054,0.37373,-0.00051963,0.030394
531,0.060979,-0.033406,-0.049192,-0.024198,0.41155,0.0037556,0.044206
532,0.078409,-0.010386,-0.058071,-0.065635,0.35433,-0.0038083,0.075449
533,0.098141,0.0037556,-0.06136,-0.11102,0.23561,-0.011043,0.11097
534,0.10735,0.0047422,-0.059716,-0.14062,0.11689,0.0014536,0.13892
535,0.10242,-0.0064392,-0.057085,-0.13996,0.05473,0.050455,0.15438
536,0.079724,-0.02354,-0.057743,-0.10707,0.080053,0.14846,0.15931
537,0.046837,-0.036366,-0.060702,-0.050179,0.1843,0.3119,0.16063
538,0.012635,-0.038668,-0.061689,0.02283,0.32605,0.54014,0.16753
539,-0.0054526,-0.028473,-0.057085,0.095181,0.45266,0.79567,0.1797
540,0.0014536,-0.0097279,-0.04985,0.1524,0.53126,1.0216,0.19351
541,0.038944,0.011977,-0.045246,0.1843,0.55691,1.1433,0.20798
542,0.098141,0.034669,-0.046561,0.18891,0.54112,1.1068,0.21818
543,0.1626,0.058348,-0.054454,0.16622,0.49475,0.92064,0.21916
544,0.21193,0.077422,-0.065635,0.12478,0.42142,0.65064,0.20173
545,0.23626,0.088603,-0.074844,0.074133,0.31815,0.37636,0.17082
546,0.2389,0.095181,-0.078461,0.024145,0.17838,0.15043,0.13958
547,0.22574,0.10406,-0.076488,-0.02354,0.0077021,-0.02354,0.1182
548,0.21324,0.11491,-0.07287,-0.063333,-0.17449,-0.17383,0.10603
549,0.21193,0.12511,-0.067609,-0.087998,-0.33498,-0.32051,0.097154
550,0.22443,0.13432,-0.057085,-0.09326,-0.44186,-0.46324,0.081039
551,0.23857,0.14089,-0.044259,-0.080763,-0.48889,-0.60268,0.051441
552,0.23857,0.14089,-0.030447,-0.058729,-0.49283,-0.73357,0.010004
553,0.21456,0.13004,-0.016305,-0.02946,-0.48363,-0.84768,-0.030447
554,0.16918,0.11064,-0.0015062,0.0030979,-0.48165,-0.93187,-0.058071
555,0.11228,0.081697,0.010004,0.028421,-0.48527,-0.97495,-0.069253
556,0.054401,0.045851,0.015924,0.042562,-0.47771,-0.96706,-0.060702
557,-0.0024928,0.0086887,0.014279,0.048153,-0.44909,-0.90096,-0.038011
558,-0.058729,-0.02354,0.0073732,0.045851,-0.40272,-0.77895,-0.014332
559,-0.11168,-0.045903,-0.00051963,0.035656,-0.35635,-0.61616,-0.0031506
560,-0.15903,-0.06136,-0.011043,0.013293,-0.32478,-0.42311,-0.0074258
561,-0.19324,-0.073857,-0.025185,-0.017292,-0.31426,-0.2156,-0.021238
562,-0.20639,-0.084052,-0.045903,-0.052481,-0.31492,-0.015319,-0.033406
563,-0.19784,-0.0903,-0.072213,-0.085367,-0.31623,0.14188,-0.031762
564,-0.1735,-0.090958,-0.091945,-0.10674,-0.30768,0.2264,-0.01499
565,-0.14391,-0.08471,-0.09622,-0.10839,-0.2817,0.24054,0.0077021
566,-0.11332,-0.07583,-0.080106,-0.094576,-0.235,0.22344,0.027763
567,-0.08471,-0.066951,-0.05281,-0.070897,-0.17252,0.21259,0.043877
568,-0.066622,-0.057414,-0.023211,-0.042286,-0.10115,0.23035,0.05177
569,-0.064649,-0.045246,0.0017824,-0.0090702,-0.021567,0.26751,0.050455
570,-0.076159,-0.027487,0.022172,0.024145,0.065912,0.29809,0.043877
571,-0.091287,-0.0097279,0.039931,0.057361,0.16918,0.29908,0.035327
572,-0.10346,0.002769,0.053743,0.092221,0.30072,0.26619,0.027434
573,-0.11036,0.0083598,0.061307,0.12478,0.46845,0.21851,0.017897
574,-0.1074,0.010333,0.060979,0.15273,0.6582,0.18628,0.0011247
575,-0.090629,0.0093464,0.05473,0.17378,0.84138,0.19713,-0.023211
576,-0.063662,0.0093464,0.047495,0.18167,0.97161,0.25238,-0.04689
577,-0.035708,0.010004,0.043877,0.16128,1.0012,0.32933,-0.062676
578,-0.01203,0.0090175,0.042562,0.099785,0.88841,0.39281,-0.072542
579,0.0083598,0.0083598,0.039602,-0.0024928,0.63058,0.40662,-0.085367
580,0.026776,0.0086887,0.031381,-0.12286,0.28165,0.354,-0.10115
581,0.040589,0.010004,0.020857,-0.22481,-0.053467,0.24416,-0.11365
582,0.044535,0.013293,0.011648,-0.27677,-0.28236,0.10044,-0.1199
583,0.035985,0.020857,0.010333,-0.2669,-0.36359,-0.041957,-0.11562
584,0.021186,0.035656,0.017897,-0.20212,-0.31788,-0.1587,-0.10017
585,0.011977,0.053086,0.036971,-0.10872,-0.19718,-0.23434,-0.076159
586,0.01691,0.067227,0.063938,-0.013674,-0.057414,-0.26427,-0.050836
587,0.04026,0.080053,0.093865,0.062294,0.070516,-0.25375,-0.027487
588,0.078737,0.092221,0.11656,0.10307,0.16786,-0.22283,-0.0093991
589,0.11952,0.098141,0.12346,0.099785,0.20601,-0.20902,-0.0038083
590,0.14056,0.092879,0.1113,0.04618,0.14385,-0.23533,-0.015648
591,0.133,0.07216,0.076435,-0.049521,-0.04097,-0.2988,-0.043272
592,0.098798,0.039602,0.023488,-0.15903,-0.31031,-0.38365,-0.076488
593,0.059334,0.0021113,-0.031104,-0.24651,-0.56782,-0.45271,-0.10477
594,0.033025,-0.027487,-0.070897,-0.27973,-0.71219,-0.46883,-0.11793
595,0.024474,-0.042615,-0.082736,-0.25671,-0.68621,-0.41489,-0.11168
596,0.030723,-0.041957,-0.06432,-0.18995,-0.50566,-0.29749,-0.084381
597,0.043549,-0.026171,-0.025514,-0.10937,-0.24947,-0.15213,-0.04097
598,0.058019,0.0017824,0.016581,-0.037024,-0.012359,-0.01499,0.0034268
599,0.0692,0.033354,0.051441,0.013622,0.13991,0.088275,0.032367
600,0.075449,0.059663,0.074133,0.041575,0.19121,0.14681,0.041247
601,0.073476,0.082684,0.093208,0.056374,0.16391,0.16128,0.034669
602,0.066898,0.10538,0.1205,0.070516,0.097812,0.13991,0.017897
603,0.055388,0.12938,0.15306,0.088603,0.032038,0.10011,-0.0015062
604,0.037629,0.15142,0.18102,0.1057,-0.012688,0.061307,-0.017292
605,0.014279,0.16654,0.19154,0.1136,-0.028802,0.031052,-0.027487
606,-0.01203,0.16885,0.1751,0.10965,-0.015319,0.014279,-0.028473
607,-0.037682,0.15471,0.13464,0.095181,0.023488,0.017239,-0.02354
608,-0.056098,0.12971,0.087288,0.081039,0.077093,0.039273,-0.016963
609,-0.063991,0.10505,0.04881,0.074462,0.13234,0.07512,-0.015648
610,-0.059387,0.087946,0.027105,0.070845,0.17345,0.11393,-0.014661
611,-0.045574,0.080711,0.02283,0.066569,0.19055,0.14418,-0.010386
612,-0.027158,0.079066,0.035327,0.056703,0.1797,0.15109,-0.004466
613,-0.0047949,0.081697,0.054072,0.041904,0.13826,0.13037,-0.0031506
614,0.020528,0.082684,0.064596,0.025132,0.073804,0.094852,-0.0077547
615,0.048153,0.081039,0.059663,0.0080309,0.0034268,0.055059,-0.014332
616,0.079395,0.076106,0.043877,-0.004466,-0.048534,0.023488,-0.014003
617,0.11064,0.068871,0.02283,-0.0074258,-0.072213,0.0080309,-0.0024928
618,0.1307,0.056374,0.0050711,0.0054,-0.071884,0.0080309,0.023817
619,0.13563,0.042562,-0.0057815,0.030723,-0.052481,0.0073732,0.05473
620,0.12741,0.032367,-0.0047949,0.060979,-0.014003,-0.0054526,0.076435
621,0.10801,0.027434,0.0030979,0.081039,0.039931,-0.032091,0.085644
622,0.081368,0.02579,0.012635,0.083013,0.1011,-0.065307,0.084657
623,0.053743,0.024474,0.016581,0.06065,0.15471,-0.09622,0.081697
624,0.031709,0.023817,0.010662,0.0077021,0.1922,-0.11365,0.08367
625,0.020199,0.024145,-0.007097,-0.082079,0.2014,-0.10444,0.095181
626,0.016581,0.023159,-0.033406,-0.18863,0.16391,-0.073528,0.11491
627,0.010662,0.014608,-0.061031,-0.24783,0.069529,-0.039984,0.12478
628,-0.0064392,-0.0038083,-0.083065,-0.19652,-0.063662,-0.016634,0.1113
629,-0.031104,-0.030447,-0.090958,-0.031762,-0.18205,-0.0067681,0.079724
630,-0.052481,-0.055769,-0.082736,0.18365,-0.23632,-0.0051238,0.050784
631,-0.062676,-0.067937,-0.060702,0.35729,-0.20935,-0.0031506,0.039273
632,-0.059058,-0.062347,-0.037024,0.43161,-0.12154,-0.00019077,0.045851
633,-0.042944,-0.044588,-0.023869,0.40464,-0.015648,0.00046697,0.056703
634,-0.021567,-0.027816,-0.025185,0.31552,0.066569,0.0021113,0.069858
635,-0.0011774,-0.020252,-0.035708,0.21324,0.10636,0.0080309,0.081368
636,0.010662,-0.022883,-0.04985,0.13563,0.10603,0.023159,0.087946
637,0.0060577,-0.034722,-0.060045,0.09551,0.084657,0.040589,0.090248
638,-0.01795,-0.054783,-0.063662,0.079724,0.048482,0.050784,0.094523
639,-0.059716,-0.07583,-0.06136,0.075449,0.0011247,0.042562,0.1034
640,-0.11266,-0.090958,-0.059387,0.07216,-0.054783,0.015924,0.11557
641,-0.16199,-0.097207,-0.063333,0.064925,-0.11003,-0.020909,0.13103
642,-0.19192,-0.091287,-0.070897,0.056374,-0.15311,-0.058071,0.15339
643,-0.19422,-0.074515,-0.073528,0.049468,-0.17646,-0.080763,0.18661
644,-0.16989,-0.047219,-0.065964,0.052757,-0.17811,-0.080763,0.22278
645,-0.12779,-0.014332,-0.044588,0.069529,-0.16002,-0.062676,0.25369
646,-0.083394,0.018226,-0.016634,0.091563,-0.13305,-0.040313,0.26784
647,-0.050179,0.043877,0.0090175,0.10768,-0.10346,-0.022225,0.25435
648,-0.032091,0.058348,0.016581,0.10702,-0.07024,-0.016305,0.2116
649,-0.022225,0.06361,0.0063866,0.083999,-0.024856,-0.028144,0.15471
650,-0.010715,0.059005,-0.0097279,0.043877,0.033683,-0.071226,0.10307
651,0.0090175,0.04881,-0.021896,-0.0054526,0.097812,-0.14687,0.067556
652,0.04618,0.044864,-0.023869,-0.064978,0.15175,-0.24289,0.054401
653,0.097154,0.058676,-0.014332,-0.14391,0.18496,-0.33564,0.055717
654,0.15635,0.091892,0.0080309,-0.24092,0.182,-0.40503,0.055717
655,0.21752,0.13497,0.0373,-0.31788,0.12741,-0.45008,0.045522
656,0.26718,0.17575,0.069858,-0.30735,0.015924,-0.48724,0.014937
657,0.29447,0.19943,0.096496,-0.17054,-0.14259,-0.53361,-0.034064
658,0.28921,0.20009,0.10998,0.053743,-0.31557,-0.58393,-0.098851
659,0.25435,0.17904,0.10472,0.27112,-0.46126,-0.62537,-0.16495
660,0.19845,0.14122,0.076435,0.39149,-0.54907,-0.63918,-0.21659
661,0.14122,0.094194,0.032038,0.38294,-0.56716,-0.60498,-0.24618
662,0.10044,0.049797,-0.014003,0.27573,-0.51717,-0.51059,-0.24717
663,0.079395,0.014937,-0.043601,0.12609,-0.42048,-0.36984,-0.22251
664,0.069858,-0.01203,-0.049521,-0.0093991,-0.30867,-0.20738,-0.18666
665,0.060979,-0.026829,-0.036366,-0.094247,-0.21034,-0.041957,-0.14917
666,0.045522,-0.029789,-0.011701,-0.11858,-0.13042,0.11294,-0.11562
667,0.02283,-0.023211,0.018555,-0.091616,-0.047877,0.24613,-0.082408
668,-0.0024928,-0.013674,0.050126,-0.038668,0.0692,0.354,-0.04097
669,-0.028473,-0.0064392,0.079395,0.013951,0.23824,0.44608,0.012306
670,-0.052152,-0.00051963,0.10538,0.051113,0.44115,0.53751,0.072818
671,-0.067937,0.0057288,0.12807,0.079724,0.62696,0.64538,0.12938
672,-0.070568,0.014608,0.14385,0.11162,0.73943,0.77627,0.16457
673,-0.059716,0.022172,0.15405,0.14681,0.74765,0.91899,0.17477
674,-0.041628,0.025132,0.15964,0.1774,0.65491,1.0394,0.1649
675,-0.031433,0.024145,0.16424,0.19516,0.50035,1.0818,0.14681
676,-0.039326,0.019541,0.16786,0.19516,0.32901,0.99759,0.12774
677,-0.063662,0.0093464,0.16391,0.17542,0.1751,0.78218,0.10669
678,-0.092603,-0.0047949,0.14616,0.13991,0.052757,0.48785,0.077751
679,-0.11003,-0.016963,0.11787,0.096825,-0.029131,0.1945,0.041575
680,-0.10806,-0.024198,0.086959,0.056703,-0.0584,-0.031433,0.0040845
681,-0.091287,-0.025842,0.062623,0.029078,-0.030447,-0.16331,-0.024856
682,-0.070568,-0.024527,0.04881,0.019212,0.042562,-0.21823,-0.042615
683,-0.055769,-0.021896,0.045522,0.028421,0.13859,-0.2304,-0.054125
684,-0.047877,-0.020581,0.045193,0.054072,0.2264,-0.24026,-0.058071
685,-0.040641,-0.017621,0.045522,0.09551,0.3027,-0.25375,-0.04393
686,-0.028144,-0.010057,0.047166,0.14517,0.37932,-0.23862,-0.0077547
687,-0.0084125,0.0021113,0.052428,0.18825,0.46976,-0.13864,0.045193
688,0.014937,0.016581,0.056046,0.19779,0.55066,0.085315,0.10439
689,0.038616,0.028421,0.054401,0.15142,0.56415,0.40892,0.15799
690,0.05769,0.032038,0.041575,0.038616,0.45628,0.747,0.19384
691,0.071831,0.025461,0.020857,-0.11266,0.23692,1.0124,0.20667
692,0.087288,0.015266,-0.0018351,-0.24717,-0.015319,1.1492,0.20239
693,0.10669,0.0093464,-0.019265,-0.31525,-0.20409,1.1512,0.19088
694,0.12445,0.014937,-0.028473,-0.30078,-0.26361,1.0545,0.18036
695,0.14024,0.028092,-0.030447,-0.22283,-0.19422,0.91702,0.17773
696,0.15503,0.037629,-0.027158,-0.11793,-0.054454,0.77331,0.18134
697,0.16523,0.035656,-0.02354,-0.02354,0.080053,0.64044,0.18562
698,0.16589,0.023817,-0.021567,0.040589,0.16128,0.51942,0.18233
699,0.15372,0.0090175,-0.021238,0.072489,0.1774,0.4053,0.16852
700,0.13267,-0.0057815,-0.022554,0.083342,0.14221,0.29546,0.14714
701,0.10801,-0.017292,-0.025514,0.082684,0.086301,0.19318,0.12807
702,0.08367,-0.019923,-0.025842,0.081697,0.037629,0.10439,0.11491
703,0.059663,-0.014661,-0.021567,0.087288,0.010662,0.031052,0.10669
704,0.033025,-0.0057815,-0.013674,0.10274,0.0040845,-0.031104,0.096496
705,-0.0008485,0.00079584,-0.0057815,0.12248,0.0054,-0.093589,0.075778
706,-0.040641,0.0034268,-0.0031506,0.13991,0.0024402,-0.16397,0.041575
707,-0.079448,0.0063866,-0.0090702,0.14517,-0.010057,-0.23829,-0.0061104
708,-0.10839,0.0086887,-0.020909,0.13136,-0.031762,-0.30045,-0.065635
709,-0.12648,0.0067154,-0.039326,0.095839,-0.053467,-0.32972,-0.12417
710,-0.13404,-0.00019077,-0.061031,0.047166,-0.067609,-0.31229,-0.1712
711,-0.13305,-0.011043,-0.081092,-0.002164,-0.067937,-0.24224,-0.19718
712,-0.12812,-0.016634,-0.093589,-0.039984,-0.057414,-0.11957,-0.19587
713,-0.12483,-0.013345,-0.094576,-0.059716,-0.044917,0.04026,-0.17416
714,-0.13338,-0.0034794,-0.088656,-0.061031,-0.038339,0.20338,-0.14588
715,-0.14884,0.0054,-0.078461,-0.049521,-0.043272,0.3175,-0.11431
716,-0.16199,0.0086887,-0.061689,-0.034722,-0.054454,0.3438,-0.084381
717,-0.16298,0.0050711,-0.035708,-0.025514,-0.067609,0.27441,-0.063004
718,-0.14687,-0.0047949,-0.0047949,-0.017292,-0.079448,0.13859,-0.056427
719,-0.12154,-0.01499,0.02875,-0.011043,-0.090958,-0.015976,-0.068266
720,-0.090958,-0.021238,0.053086,-0.0097279,-0.10543,-0.14851,-0.0903
721,-0.060702,-0.021896,0.059005,-0.014661,-0.12319,-0.23796,-0.11003
722,-0.032091,-0.015319,0.045193,-0.024198,-0.14193,-0.28795,-0.11398
723,-0.0061104,-0.007097,0.01691,-0.030775,-0.16166,-0.31097,-0.09622
724,0.015266,0.0050711,-0.01499,-0.028144,-0.17975,-0.32281,-0.070897
725,0.033683,0.020199,-0.041957,-0.0087413,-0.19159,-0.33662,-0.049521
726,0.050126,0.035656,-0.056756,0.024145,-0.18666,-0.36392,-0.034064
727,0.06361,0.049797,-0.057743,0.065583,-0.15246,-0.40338,-0.02946
728,0.076106,0.05769,-0.043601,0.10603,-0.08471,-0.45205,-0.038339
729,0.085644,0.058019,-0.021567,0.13201,0.0040845,-0.50467,-0.060045
730,0.09255,0.052428,-0.0018351,0.12577,0.077751,-0.55137,-0.082736
731,0.09551,0.042562,0.0067154,0.067885,0.079066,-0.5859,-0.096549
732,0.088932,0.033354,0.0001381,-0.045574,-0.038997,-0.61221,-0.099838
733,0.071831,0.02283,-0.021896,-0.18896,-0.2669,-0.63129,-0.10115
734,0.047824,0.011977,-0.052481,-0.31919,-0.52769,-0.6405,-0.098193
735,0.023817,0.0001381,-0.077803,-0.39549,-0.72074,-0.63754,-0.082079
736,0.0080309,-0.011043,-0.087998,-0.40141,-0.77961,-0.62076,-0.057085
737,0.0001381,-0.022225,-0.08175,-0.34123,-0.69607,-0.59314,-0.027487
738,0.0017824,-0.027158,-0.060045,-0.24289,-0.51914,-0.56518,0.002769
739,0.0057288,-0.024527,-0.032091,-0.137,-0.31196,-0.53789,0.028092
740,0.0083598,-0.014003,-0.0074258,-0.047548,-0.12615,-0.49053,0.041575
741,0.0063866,0.0014536,0.01132,0.012635,0.010991,-0.4047,0.042233
742,-0.0011774,0.020199,0.02579,0.042562,0.093536,-0.27677,0.035985
743,-0.014003,0.033025,0.038287,0.050455,0.12905,-0.13009,0.029407
744,-0.028802,0.030723,0.049468,0.049468,0.12971,-0.0041372,0.02283
745,-0.042615,0.013622,0.057361,0.047495,0.11524,0.072489,0.014608
746,-0.052481,-0.0080836,0.064267,0.050455,0.10735,0.1034,0.0080309
747,-0.062347,-0.026829,0.071173,0.060979,0.12083,0.11064,0.0063866
748,-0.070897,-0.032091,0.07808,0.077751,0.15701,0.11787,0.002769
749,-0.072542,-0.022554,0.079395,0.09551,0.20272,0.12807,-0.0084125
750,-0.062018,-0.0051238,0.073476,0.10702,0.23594,0.11886,-0.024856
751,-0.039984,0.012306,0.061965,0.11064,0.23429,0.062623,-0.039984
752,-0.0093991,0.02579,0.04881,0.10439,0.18661,-0.056756,-0.047219
753,0.023488,0.032038,0.04322,0.09255,0.098141,-0.22316,-0.04393
754,0.053415,0.035327,0.044206,0.083342,-0.010057,-0.39615,-0.035051
755,0.082684,0.037629,0.048153,0.078409,-0.1097,-0.52835,-0.031762
756,0.11327,0.04026,0.053415,0.074462,-0.17482,-0.58656,-0.037024
757,0.14484,0.044535,0.060979,0.067556,-0.20508,-0.55828,-0.048534
758,0.17378,0.050455,0.065912,0.055717,-0.21264,-0.45107,-0.056098
759,0.19845,0.058019,0.065583,0.039931,-0.20639,-0.29584,-0.051494
760,0.21193,0.06361,0.060979,0.01987,-0.19028,-0.13174,-0.034722
761,0.21522,0.06361,0.055388,0.00046697,-0.16594,0.0047422,-0.015976
762,0.21226,0.060979,0.046837,-0.014003,-0.1324,0.096496,-0.0067681
763,0.20305,0.057032,0.041904,-0.020581,-0.088327,0.14648,-0.011372
764,0.19088,0.05473,0.039931,-0.015319,-0.027487,0.17378,-0.020581
765,0.17773,0.056703,0.041904,0.0030979,0.063281,0.20108,-0.017292
766,0.15832,0.062294,0.048482,0.032367,0.20272,0.24087,0.0021113
767,0.13037,0.065912,0.059005,0.066898,0.38162,0.29086,0.024474
768,0.096167,0.06361,0.071173,0.10307,0.55724,0.33098,0.033025
769,0.062294,0.057032,0.082684,0.13136,0.67958,0.34512,0.021843
770,0.033354,0.052757,0.091892,0.14451,0.7322,0.32703,0.0073732
771,0.013293,0.052428,0.094852,0.13464,0.7368,0.28296,0.0070443
772,0.0047422,0.056046,0.083999,0.10406,0.72595,0.23035,0.021514
773,0.0057288,0.058348,0.056703,0.064596,0.70095,0.18562,0.041575
774,0.011648,0.053743,0.020857,0.031052,0.6411,0.15668,0.059992
775,0.020528,0.045851,-0.0077547,0.012635,0.5329,0.14122,0.070845
776,0.028092,0.042562,-0.017292,0.010662,0.39346,0.13201,0.07216
777,0.030065,0.047495,-0.0090702,0.023817,0.25764,0.1205,0.063938
778,0.02283,0.055717,0.0093464,0.044206,0.16227,0.10505,0.056046
779,0.0093464,0.059663,0.027763,0.065254,0.11294,0.091234,0.053743
780,-0.0093991,0.056046,0.039273,0.080053,0.095839,0.082355,0.049139
781,-0.02946,0.045851,0.033354,0.079724,0.093536,0.078409,0.041904
782,-0.049192,0.031052,0.010004,0.060979,0.10439,0.080053,0.044206
783,-0.064978,0.013293,-0.020252,0.029736,0.13103,0.087617,0.061307
784,-0.075501,-0.00051963,-0.041299,-0.0008485,0.17542,0.092879,0.087946
785,-0.081092,-0.0038083,-0.038668,-0.017621,0.23955,0.091234,0.1159
786,-0.076159,0.0070443,-0.012688,-0.017292,0.32736,0.089919,0.14418
787,-0.0584,0.031381,0.031709,-0.014661,0.41846,0.10143,0.17279
788,-0.034393,0.059334,0.080382,-0.02946,0.4622,0.12807,0.19614
789,-0.016634,0.077093,0.11426,-0.051165,0.39083,0.15471,0.19845
790,-0.01499,0.076435,0.11853,-0.045246,0.16128,0.16227,0.17279
791,-0.033406,0.056703,0.092221,0.010991,-0.20508,0.14451,0.12478
792,-0.063991,0.032367,0.04881,0.10669,-0.61583,0.10209,0.073147
793,-0.0903,0.013622,0.0057288,0.20765,-0.95029,0.042891,0.037958
794,-0.098193,0.0044134,-0.027487,0.25929,-1.1246,-0.022883,0.027105
795,-0.083394,0.0017824,-0.053467,0.22377,-1.12,-0.076488,0.036971
796,-0.051494,-0.0018351,-0.077475,0.10866,-0.97726,-0.098193,0.054401
797,-0.0084125,-0.0077547,-0.1005,-0.038997,-0.75395,-0.075173,0.066569
798,0.036642,-0.0090702,-0.11431,-0.17613,-0.50303,-0.0051238,0.073804
799,0.078737,-0.0015062,-0.11003,-0.2919,-0.27052,0.10768,0.088932
800,0.1182,0.017568,-0.083394,-0.3899,-0.10214,0.23922,0.11721
801,0.1501,0.039602,-0.041299,-0.45765,-0.041299,0.34907,0.1501
802,0.17049,0.056703,-0.0034794,-0.45271,-0.10707,0.40333,0.17115
803,0.17279,0.061636,0.015924,-0.33958,-0.26394,0.39248,0.16687
804,0.15799,0.053743,0.015266,-0.13667,-0.43331,0.33723,0.13793
805,0.1284,0.036314,0.0030979,0.090248,-0.53855,0.26882,0.092221
806,0.091563,0.023159,-0.013017,0.26159,-0.52737,0.20897,0.044206
807,0.055388,0.01691,-0.024527,0.32933,-0.38825,0.16983,0.0096753
808,0.022172,0.019541,-0.027487,0.29283,-0.14456,0.15602,0.0011247
809,-0.010057,0.02875,-0.020252,0.19022,0.14122,0.16852,0.016581
810,-0.039326,0.040918,-0.0067681,0.061307,0.40169,0.20634,0.050455
811,-0.063333,0.050455,0.0040845,-0.078132,0.57401,0.26159,0.097483
812,-0.078461,0.054401,0.0083598,-0.21363,0.59999,0.31717,0.14056
813,-0.088985,0.049139,0.00046697,-0.30867,0.44904,0.34315,0.16128
814,-0.094247,0.033354,-0.016963,-0.30242,0.15306,0.31717,0.1524
815,-0.094247,0.010991,-0.037353,-0.15936,-0.18732,0.23035,0.11623
816,-0.086354,-0.01203,-0.053467,0.085972,-0.45797,0.097812,0.0692
817,-0.071884,-0.034722,-0.060045,0.33361,-0.58163,-0.047877,0.031709
818,-0.056098,-0.04985,-0.055112,0.49015,-0.5471,-0.16857,0.013293
819,-0.044259,-0.050507,-0.042286,0.51679,-0.40009,-0.24191,0.013293
820,-0.032091,-0.034064,-0.024856,0.43753,-0.21363,-0.26592,0.016581
821,-0.020909,-0.0051238,-0.0064392,0.31125,-0.047877,-0.25506,0.012964
822,-0.007097,0.028092,0.0096753,0.1991,0.0692,-0.22514,0.010991
823,0.0077021,0.052428,0.023817,0.13004,0.14188,-0.18797,0.014937
824,0.018555,0.061307,0.02875,0.099127,0.18562,-0.14226,0.020199
825,0.020528,0.052099,0.023817,0.08959,0.21292,-0.071884,0.014608
826,0.0093464,0.027105,0.0083598,0.078409,0.2241,0.035327,-0.0080836
827,-0.0057815,-0.0054526,-0.0093991,0.058348,0.21883,0.16687,-0.041299
828,-0.015319,-0.03242,-0.023869,0.031709,0.20075,0.29875,-0.069253
829,-0.014661,-0.041957,-0.028144,0.0070443,0.1797,0.41122,-0.080434
830,-0.0064392,-0.033078,-0.017621,-0.0064392,0.16885,0.49311,-0.070568
831,0.0050711,-0.013674,0.0040845,-0.0024928,0.18134,0.53981,-0.045903
832,0.012306,0.0090175,0.022172,0.015924,0.21522,0.54474,-0.018607
833,0.010004,0.024803,0.031052,0.044206,0.25337,0.51514,0.00046697
834,-0.0080836,0.026447,0.027434,0.081039,0.27902,0.46318,-0.00019077
835,-0.031104,0.017897,0.020857,0.11919,0.28395,0.40201,-0.022883
836,-0.046561,0.010333,0.02579,0.14912,0.27277,0.3517,-0.050836
837,-0.041957,0.010662,0.04881,0.15536,0.26027,0.32276,-0.070897
838,-0.016305,0.017568,0.077751,0.13037,0.24613,0.30862,-0.075173
839,0.022172,0.027763,0.096496,0.076106,0.20338,0.28855,-0.067937
840,0.060979,0.038287,0.09551,0.0057288,0.10636,0.24843,-0.050179
841,0.091563,0.045193,0.074791,-0.063662,-0.02946,0.18825,-0.029789
842,0.10834,0.046508,0.043877,-0.11562,-0.15114,0.11886,-0.014003
843,0.10834,0.042891,0.013622,-0.14127,-0.20935,0.047166,-0.0041372
844,0.088603,0.033683,-0.0064392,-0.13996,-0.19521,-0.022883,0.0040845
845,0.05177,0.01987,-0.015319,-0.12154,-0.13634,-0.095891,0.014279
846,0.0086887,0.0021113,-0.015648,-0.10378,-0.072213,-0.17186,0.023488
847,-0.027487,-0.01499,-0.016634,-0.10313,-0.032749,-0.25046,0.026776
848,-0.04689,-0.028144,-0.01795,-0.12582,-0.023211,-0.32445,0.024145
849,-0.048534,-0.032749,-0.016963,-0.15969,-0.0265,-0.38365,0.020199
850,-0.042944,-0.027158,-0.0097279,-0.1814,-0.0031506,-0.42147,0.018226
851,-0.04097,-0.01499,0.0040845,-0.16627,0.077422,-0.43824,0.020857
852,-0.053138,0.0030979,0.023159,-0.10346,0.21916,-0.43693,0.031052
853,-0.081421,0.020199,0.045522,-0.0087413,0.38064,-0.42344,0.047166
854,-0.11365,0.032696,0.068871,0.084657,0.50002,-0.40766,0.065583
855,-0.13963,0.034011,0.084986,0.14122,0.52633,-0.40568,0.076764
856,-0.15443,0.025461,0.084986,0.13695,0.44477,-0.43199,0.069858
857,-0.15805,0.0077021,0.069529,0.074462,0.27672,-0.49119,0.044206
858,-0.15739,-0.01499,0.044864,-0.015319,0.068543,-0.56683,0.011977
859,-0.15081,-0.036366,0.016253,-0.10115,-0.11891,-0.61583,-0.0064392
860,-0.13568,-0.04985,-0.013345,-0.16035,-0.23665,-0.58064,-0.0034794
861,-0.1051,-0.047877,-0.038011,-0.17975,-0.26427,-0.42015,0.014937
862,-0.053796,-0.031433,-0.048534,-0.14687,-0.22349,-0.14358,0.039931
863,0.014937,-0.0024928,-0.033078,-0.069911,-0.15114,0.1797,0.058348
864,0.099456,0.036314,0.010662,0.025461,-0.083723,0.45661,0.067556
865,0.19253,0.084986,0.070845,0.10735,-0.047219,0.60131,0.067556
866,0.28198,0.1376,0.12741,0.1478,-0.045574,0.56776,0.062952
867,0.35762,0.18299,0.16523,0.13728,-0.064649,0.38327,0.055717
868,0.41056,0.2116,0.18036,0.079395,-0.074844,0.13366,0.044864
869,0.43589,0.22245,0.18167,-0.0051238,-0.048205,-0.080434,0.027763
870,0.42471,0.2116,0.17049,-0.07879,0.017897,-0.21001,0.0030979
871,0.37801,0.18102,0.14846,-0.082736,0.10505,-0.25802,-0.026171
872,0.30862,0.13695,0.12248,0.027434,0.20963,-0.24355,-0.056427
873,0.23331,0.091563,0.10209,0.23232,0.33525,-0.19028,-0.081092
874,0.16852,0.053743,0.089261,0.45036,0.46187,-0.12812,-0.094247
875,0.12445,0.025132,0.078737,0.5773,0.53553,-0.076159,-0.086354
876,0.10176,0.0030979,0.061965,0.55329,0.51449,-0.035051,-0.060045
877,0.092221,-0.011372,0.0373,0.3984,0.42175,0.012306,-0.02354
878,0.082684,-0.020909,0.0070443,0.19121,0.34512,0.083999,0.017239
879,0.061965,-0.024198,-0.018607,0.018555,0.35236,0.182,0.059334
880,0.030394,-0.021896,-0.03242,-0.071555,0.44016,0.28198,0.095181
881,-0.0074258,-0.015319,-0.030775,-0.078461,0.54507,0.34742,0.12017
882,-0.041299,-0.0047949,-0.016634,-0.028144,0.60756,0.35531,0.13793
883,-0.062347,0.0080309,0.0021113,0.040589,0.5921,0.31519,0.15043
884,-0.065307,0.016253,0.012635,0.097154,0.4987,0.25468,0.15799
885,-0.056427,0.015266,0.0080309,0.12281,0.35564,0.2093,0.16095
886,-0.045246,0.0080309,-0.0097279,0.11754,0.19713,0.20667,0.15668
887,-0.031104,0.0034268,-0.030775,0.092879,0.046837,0.25863,0.14648
888,-0.012688,0.0057288,-0.04393,0.065254,-0.090629,0.34117,0.13563
889,0.0054,0.015924,-0.049192,0.042891,-0.22349,0.39741,0.12905
890,0.013293,0.023159,-0.052481,0.024145,-0.358,0.37768,0.12741
891,0.0093464,0.016253,-0.061031,0.002769,-0.4879,0.26619,0.12774
892,-0.0067681,-0.0087413,-0.079448,-0.023211,-0.59084,0.095839,0.12116
893,-0.024198,-0.040313,-0.10477,-0.054454,-0.6497,-0.081092,0.10143
894,-0.034393,-0.066293,-0.12549,-0.085039,-0.66023,-0.21987,0.072489
895,-0.035708,-0.07879,-0.13075,-0.10806,-0.62537,-0.29453,0.041904
896,-0.034064,-0.080106,-0.11825,-0.11793,-0.55861,-0.31261,0.019541
897,-0.034064,-0.072542,-0.09326,-0.12056,-0.4754,-0.30374,0.0021113
898,-0.037682,-0.060702,-0.066622,-0.12023,-0.39352,-0.29486,-0.011043
899,-0.047548,-0.048534,-0.041628,-0.11858,-0.32314,-0.30143,-0.020581
900,-0.060373,-0.034393,-0.016963,-0.10707,-0.25375,-0.32149,-0.025185
901,-0.072542,-0.018278,0.010991,-0.075501,-0.16726,-0.34254,-0.030118
902,-0.078132,0.0040845,0.039273,-0.017621,-0.053796,-0.35734,-0.036366
903,-0.076817,0.029078,0.070516,0.072818,0.084657,-0.36359,-0.041957
904,-0.065964,0.055388,0.11097,0.18595,0.23988,-0.35109,-0.041299
905,-0.047548,0.082355,0.15832,0.2879,0.40497,-0.31163,-0.029131
906,-0.020252,0.10702,0.20042,0.3198,0.55231,-0.23994,-0.0097279
907,0.0096753,0.12577,0.21851,0.25369,0.62334,-0.14752,0.002769
908,0.026447,0.12938,0.20601,0.11195,0.53882,-0.068266,-0.0028217
909,0.017239,0.11228,0.16063,-0.037353,0.26126,-0.038011,-0.030447
910,-0.015648,0.07808,0.09551,-0.1416,-0.16791,-0.072213,-0.07287
911,-0.060373,0.031709,0.033354,-0.18041,-0.62635,-0.15114,-0.11793
912,-0.10346,-0.013017,-0.010386,-0.17449,-0.9766,-0.23632,-0.15147
913,-0.13305,-0.046561,-0.033078,-0.15048,-1.1302,-0.28762,-0.1666
914,-0.14818,-0.067609,-0.042615,-0.13141,-1.0746,-0.28565,-0.16134
915,-0.14851,-0.083723,-0.04097,-0.12549,-0.86873,-0.23566,-0.13897
916,-0.14358,-0.095891,-0.033078,-0.12549,-0.60037,-0.15969,-0.1097
917,-0.13568,-0.097864,-0.024527,-0.1268,-0.3455,-0.087012,-0.085039
918,-0.12582,-0.08471,-0.01499,-0.1222,-0.14752,-0.032749,-0.07287
919,-0.11431,-0.063991,-0.0067681,-0.10905,-0.0057815,0.010333,-0.070568
920,-0.10313,-0.044588,-0.0015062,-0.090958,0.098469,0.059334,-0.076159
921,-0.095891,-0.032749,-0.00051963,-0.071884,0.17806,0.11985,-0.08471
922,-0.0903,-0.028802,-0.0031506,-0.055769,0.22739,0.18299,-0.087012
923,-0.08175,-0.029789,-0.0018351,-0.046232,0.23988,0.23232,-0.08471
924,-0.066622,-0.027487,0.00079584,-0.046561,0.21752,0.24975,-0.076159
925,-0.046561,-0.01795,0.002769,-0.055769,0.17378,0.23133,-0.06136
926,-0.026171,-0.002164,0.002769,-0.067609,0.12873,0.18529,-0.042944
927,-0.01203,0.012635,0.0017824,-0.071226,0.09551,0.13004,-0.032091
928,-0.007097,0.022501,0.0040845,-0.067937,0.07808,0.087617,-0.03538
929,-0.0077547,0.030723,0.0070443,-0.057743,0.073476,0.065583,-0.048534
930,-0.004466,0.04322,0.011977,-0.042615,0.074462,0.05769,-0.0584
931,0.0077021,0.056703,0.018555,-0.026829,0.077751,0.055717,-0.053138
932,0.030723,0.071173,0.024474,-0.0064392,0.08367,0.05473,-0.025185
933,0.062623,0.084657,0.026776,0.016253,0.090248,0.058019,0.017239
934,0.099456,0.091563,0.027105,0.036314,0.094852,0.059005,0.060979
935,0.13333,0.08367,0.019541,0.047166,0.09255,0.051441,0.096167
936,0.15602,0.06065,0.00046697,0.043877,0.080053,0.032038,0.11623
937,0.1603,0.027434,-0.029789,0.030394,0.057361,0.0070443,0.11886
938,0.14977,-0.0051238,-0.061031,0.013622,0.031381,-0.019923,0.10538
939,0.13399,-0.028802,-0.086354,0.0017824,0.010991,-0.041628,0.085972
940,0.12017,-0.04097,-0.10181,-0.0028217,-0.00051963,-0.047877,0.07216
941,0.11458,-0.040641,-0.10444,0.0047422,0.0030979,-0.040641,0.073476
942,0.12182,-0.028802,-0.093918,0.030394,0.021514,-0.030775,0.086959
943,0.13695,-0.0084125,-0.07287,0.070516,0.046508,-0.038011,0.11162
944,0.14879,0.013293,-0.050179,0.11294,0.061965,-0.073857,0.13826
945,0.15175,0.032696,-0.023869,0.14155,0.055388,-0.13733,0.1501
946,0.14484,0.053743,0.0067154,0.15372,0.023817,-0.21395,0.13563
947,0.13103,0.070845,0.0373,0.1478,-0.023211,-0.2942,0.099127
948,0.10998,0.080711,0.054401,0.12544,-0.080763,-0.37543,0.056703
949,0.086959,0.074462,0.046508,0.09255,-0.13733,-0.45107,0.024145
950,0.069529,0.05473,0.015266,0.063281,-0.18337,-0.50303,0.0093464
951,0.058348,0.029736,-0.025514,0.039931,-0.21724,-0.51947,0.013622
952,0.047166,0.012306,-0.065964,0.020528,-0.23467,-0.49119,0.036971
953,0.035656,0.0054,-0.090629,0.0034268,-0.23171,-0.42114,0.067556
954,0.025132,0.0067154,-0.091945,-0.0093991,-0.21297,-0.32248,0.093208
955,0.014279,0.015266,-0.072542,-0.0097279,-0.1814,-0.21527,0.10636
956,0.0060577,0.024803,-0.041628,0.0096753,-0.14292,-0.10872,0.10307
957,0.00046697,0.032367,-0.012688,0.049139,-0.096549,0.0011247,0.090905
958,-0.0061104,0.037629,0.0077021,0.099127,-0.028802,0.12116,0.082355
959,-0.017292,0.037629,0.016253,0.14681,0.076435,0.25764,0.084328
960,-0.033078,0.030394,0.013293,0.17904,0.21982,0.4201,0.094523
961,-0.050836,0.017239,0.0024402,0.19483,0.38031,0.60229,0.10505
962,-0.063662,0.0030979,-0.0061104,0.20502,0.53159,0.7858,0.11261
963,-0.07287,-0.0031506,-0.0041372,0.22245,0.65853,0.95122,0.11261
964,-0.077146,0.0021113,0.0093464,0.25139,0.75818,1.0805,0.10801
965,-0.079448,0.012964,0.026447,0.2731,0.81507,1.1538,0.097483
966,-0.082079,0.021843,0.037958,0.25698,0.796,1.1591,0.079395
967,-0.088327,0.021843,0.034669,0.19055,0.69273,1.1015,0.053743
968,-0.095233,0.013293,0.021843,0.094194,0.53356,0.99529,0.024145
969,-0.10115,-0.0018351,0.0096753,0.002769,0.36288,0.85388,-0.00019077
970,-0.1005,-0.01795,0.0014536,-0.054783,0.2162,0.66905,-0.012688
971,-0.088985,-0.027158,-0.0041372,-0.07287,0.10801,0.43655,-0.015648
972,-0.06136,-0.025514,-0.0077547,-0.062347,0.035985,0.17148,-0.013017
973,-0.014332,-0.012359,-0.011043,-0.040313,-0.0084125,-0.083065,-0.016963
974,0.043549,0.0057288,-0.014661,-0.021567,-0.033078,-0.26624,-0.033078
975,0.10538,0.022501,-0.014332,-0.0090702,-0.045574,-0.33564,-0.051165
976,0.15964,0.038944,-0.010057,-0.0061104,-0.051165,-0.27216,-0.058729
977,0.19384,0.056703,-0.0038083,-0.012359,-0.053796,-0.11036,-0.050836
978,0.20371,0.071831,0.0040845,-0.016305,-0.057743,0.075449,-0.032749
979,0.19581,0.083999,0.017239,-0.0090702,-0.066951,0.20535,-0.015319
980,0.18036,0.092879,0.034669,0.0086887,-0.077803,0.23495,-0.0051238
981,0.1649,0.098798,0.056703,0.030065,-0.090629,0.17049,0.00046697
982,0.15635,0.10373,0.078409,0.049797,-0.10214,0.053415,0.0063866
983,0.14912,0.10834,0.094523,0.062623,-0.11464,-0.066293,0.011648
984,0.14254,0.11294,0.10077,0.061965,-0.12944,-0.1541,0.01132
985,0.13333,0.1159,0.097154,0.044864,-0.13963,-0.19422,0.0014536
986,0.12149,0.11623,0.088275,0.010991,-0.14358,-0.19455,-0.015319
987,0.10209,0.11294,0.079395,-0.030118,-0.14719,-0.17548,-0.03242
988,0.071502,0.10538,0.074791,-0.063004,-0.14884,-0.15607,-0.042944
989,0.033354,0.091234,0.07512,-0.07879,-0.13996,-0.14226,-0.04393
990,-0.004466,0.07512,0.080053,-0.076159,-0.11069,-0.12746,-0.038997
991,-0.033406,0.059334,0.085644,-0.059058,-0.06136,-0.10773,-0.029789
992,-0.047548,0.048153,0.090577,-0.035708,-0.0057815,-0.084381,-0.01499
993,-0.046232,0.044206,0.093208,-0.015648,0.040589,-0.063991,0.0063866
994,-0.033406,0.041904,0.093536,0.0014536,0.070187,-0.048534,0.021843
995,-0.020581,0.034669,0.089261,0.015595,0.082026,-0.039984,0.025461
996,-0.01499,0.022172,0.07808,0.028092,0.086301,-0.036037,0.015595
997,-0.017621,0.0096753,0.065912,0.037629,0.089919,-0.038668,0.00046697
998,-0.023869,0.0014536,0.058019,0.045851,0.099127,-0.052481,-0.0087413
999,-0.028473,-0.0054526,0.053415,0.051113,0.10998,-0.075501,0.0014536
1000,-0.029789,-0.0097279,0.04881,0.050126,0.11097,-0.10609,0.027434
1001,-0.028144,-0.011043,0.041904,0.044206,0.095839,-0.137,0.054072
1002,-0.025514,-0.0087413,0.035656,0.034669,0.06624,-0.16364,0.072489
1003,-0.018278,-0.0031506,0.030394,0.022501,0.024474,-0.186,0.08367
1004,-0.0018351,0.0093464,0.029736,0.010662,-0.020909,-0.20475,0.091563
1005,0.023159,0.026447,0.035985,0.0001381,-0.058071,-0.21198,0.10242
1006,0.054072,0.040589,0.04322,-0.0067681,-0.083394,-0.20244,0.11491
1007,0.084657,0.046508,0.045193,-0.0077547,-0.099838,-0.17942,0.11985
1008,0.10406,0.043877,0.042562,-0.0064392,-0.11661,-0.14983,0.1113
1009,0.10603,0.035656,0.035985,-0.0051238,-0.14029,-0.12187,0.098141
1010,0.092879,0.024145,0.03434,-0.0008485,-0.16726,-0.10806,0.085315
1011,0.06624,0.013293,0.040589,0.015924,-0.18633,-0.11332,0.081697
1012,0.035656,0.0044134,0.048153,0.041575,-0.19093,-0.13207,0.086959
1013,0.0063866,-0.0011774,0.047495,0.073147,-0.17844,-0.15673,0.089261
1014,-0.019923,-0.0028217,0.041575,0.10636,-0.15147,-0.17811,0.079395
1015,-0.040641,0.0017824,0.033025,0.12708,-0.11661,-0.19718,0.061965
1016,-0.054454,0.010991,0.027763,0.12412,-0.080763,-0.22514,0.046837
1017,-0.060702,0.019541,0.024474,0.085315,-0.063991,-0.27447,0.043549
1018,-0.062676,0.022172,0.018226,0.010662,-0.097207,-0.34583,0.048482
1019,-0.064649,0.017897,0.0040845,-0.084381,-0.18797,-0.41785,0.048482
1020,-0.067937,0.0086887,-0.014003,-0.17679,-0.3067,-0.44745,0.04026
1021,-0.071226,-0.00019077,-0.0265,-0.23928,-0.39385,-0.38957,0.034998
1022,-0.072542,-0.0028217,-0.031104,-0.26032,-0.39779,-0.22316,0.038944
1023,-0.066622,0.0034268,-0.030118,-0.24355,-0.3011,0.034011,0.048482
1024,-0.04985,0.012306,-0.027487,-0.19883,-0.12286,0.32605,0.052099
1025,-0.027487,0.020857,-0.022883,-0.13733,0.087617,0.57533,0.046837
1026,-0.0064392,0.027434,-0.014332,-0.062018,0.27014,0.72134,0.039931
1027,0.0080309,0.034998,0.00046697,0.023488,0.37538,0.74535,0.033683
1028,0.012306,0.043549,0.018226,0.10603,0.3859,0.67563,0.029078
1029,0.010991,0.050126,0.032367,0.17115,0.32177,0.56612,0.026447
1030,0.0086887,0.050784,0.04026,0.20436,0.22344,0.4668,0.029736
1031,0.0070443,0.04322,0.038287,0.19943,0.12609,0.40695,0.032038
1032,0.0044134,0.027105,0.026447,0.16326,0.054401,0.39182,0.028421
1033,-0.0028217,0.0083598,0.010333,0.11491,0.018884,0.40892,0.019541
1034,-0.012688,-0.0067681,-0.0041372,0.072489,0.016253,0.43457,0.010662
1035,-0.023869,-0.015648,-0.014332,0.045851,0.035656,0.44542,0.0073732
1036,-0.032749,-0.020909,-0.020252,0.034011,0.063938,0.42635,0.011977
1037,-0.03538,-0.025842,-0.025185,0.033354,0.088603,0.36452,0.02283
1038,-0.027816,-0.027816,-0.029789,0.039931,0.098141,0.26225,0.031381
1039,-0.014332,-0.023869,-0.035051,0.051441,0.083999,0.12642,0.034011
1040,0.0001381,-0.011043,-0.038339,0.063938,0.047824,-0.032749,0.035327
1041,0.010991,0.0037556,-0.042615,0.070187,0.0001381,-0.19356,0.041575
1042,0.015266,0.015266,-0.047877,0.062294,-0.044588,-0.33399,0.047495
1043,0.015924,0.024474,-0.050507,0.040589,-0.074844,-0.43166,0.04618
1044,0.015595,0.029736,-0.048863,0.014279,-0.082408,-0.47244,0.035656
1045,0.014279,0.030723,-0.041957,-0.0028217,-0.068266,-0.44548,0.025132
1046,0.013293,0.026776,-0.03242,-0.002164,-0.038011,-0.35964,0.02283
1047,0.0083598,0.020199,-0.020252,0.012964,0.0011247,-0.24059,0.02875
1048,-0.0024928,0.015924,-0.007097,0.032367,0.040589,-0.12878,0.038616
1049,-0.018936,0.017239,0.002769,0.050126,0.0692,-0.058729,0.045851
1050,-0.036037,0.019212,0.0083598,0.063281,0.080711,-0.04097,0.048153
1051,-0.04985,0.018555,0.0073732,0.070187,0.068871,-0.071555,0.043549
1052,-0.057085,0.011977,0.0037556,0.070516,0.04322,-0.12483,0.031709
1053,-0.056427,0.0024402,0.0017824,0.06624,0.022501,-0.16726,0.020199
1054,-0.054783,-0.0034794,0.0057288,0.059334,0.026447,-0.16758,0.012306
1055,-0.0584,-0.0057815,0.014608,0.057032,0.065583,-0.11069,0.011977
1056,-0.064978,-0.0061104,0.020857,0.063281,0.13859,0.0001381,0.020528
1057,-0.066622,-0.0084125,0.021843,0.075778,0.22607,0.1307,0.032367
1058,-0.055112,-0.013345,0.015266,0.087288,0.29776,0.23561,0.041575
1059,-0.026829,-0.018936,0.0057288,0.089261,0.3244,0.28461,0.045193
1060,0.015595,-0.019594,-0.0011774,0.079395,0.29612,0.26784,0.044206
1061,0.061307,-0.01203,-0.0074258,0.059005,0.21916,0.19351,0.044864
1062,0.099785,0.0017824,-0.016305,0.030065,0.11458,0.083013,0.053086
1063,0.12971,0.013622,-0.030447,0.0001381,0.0057288,-0.041628,0.067556
1064,0.15273,0.024145,-0.038668,-0.020909,-0.086025,-0.15706,0.076435
1065,0.17444,0.038616,-0.026171,-0.025514,-0.15048,-0.25079,0.06624
1066,0.19614,0.062623,0.0063866,-0.013345,-0.19093,-0.3261,0.038287
1067,0.2116,0.089261,0.044535,0.0077021,-0.22349,-0.39023,0.00046697
1068,0.21686,0.10932,0.076435,0.02875,-0.25704,-0.45041,-0.037353
1069,0.21127,0.1136,0.087617,0.04026,-0.29617,-0.50599,-0.066951
1070,0.18463,0.099785,0.076106,0.044206,-0.3409,-0.5517,-0.087669
1071,0.13826,0.076764,0.053415,0.054401,-0.38858,-0.57966,-0.10148
1072,0.076106,0.052428,0.029078,0.080053,-0.43232,-0.58656,-0.1051
1073,0.013293,0.030723,0.013622,0.11656,-0.46028,-0.57078,-0.097536
1074,-0.041299,0.013622,0.013293,0.14254,-0.46126,-0.5323,-0.08471
1075,-0.079448,-0.0038083,0.026776,0.13859,-0.43101,-0.47212,-0.075501
1076,-0.1028,-0.022883,0.042891,0.097154,-0.37148,-0.39911,-0.079119
1077,-0.12648,-0.041299,0.049468,0.021186,-0.27677,-0.32413,-0.095233
1078,-0.16134,-0.059716,0.04026,-0.073857,-0.14127,-0.25145,-0.11858
1079,-0.20672,-0.073528,0.01987,-0.16758,0.029407,-0.16561,-0.13075
1080,-0.2521,-0.078461,0.0014536,-0.23796,0.2139,-0.041628,-0.12286
1081,-0.2817,-0.072213,-0.0038083,-0.26953,0.39577,0.14681,-0.09622
1082,-0.28598,-0.059387,0.0093464,-0.25802,0.5556,0.39642,-0.055112
1083,-0.26032,-0.043601,0.036971,-0.20771,0.67793,0.66807,-0.0097279
1084,-0.21132,-0.023211,0.075449,-0.12516,0.75094,0.90617,0.021186
1085,-0.15114,0.0034268,0.11656,-0.031433,0.76739,1.065,0.028421
1086,-0.089972,0.02875,0.14977,0.045522,0.73549,1.1094,0.010991
1087,-0.037024,0.045193,0.16293,0.08663,0.67826,1.02,-0.02946
1088,-0.0047949,0.044864,0.14912,0.087617,0.62531,0.80784,-0.091945
1089,0.010991,0.031709,0.11426,0.05769,0.61117,0.52501,-0.16166
1090,0.021186,0.016253,0.075449,0.010662,0.65195,0.25008,-0.21099
1091,0.036314,0.011977,0.046508,-0.055112,0.72792,0.043877,-0.21593
1092,0.057361,0.023159,0.03434,-0.13897,0.78284,-0.067609,-0.17054
1093,0.081039,0.041247,0.030394,-0.2054,0.7516,-0.099838,-0.10181
1094,0.10603,0.051441,0.025132,-0.20113,0.60032,-0.094905,-0.040641
1095,0.13497,0.04881,0.018555,-0.098193,0.35564,-0.086683,-0.0054526
1096,0.17181,0.039602,0.014279,0.062623,0.098141,-0.088985,0.0070443
1097,0.21324,0.031709,0.017239,0.20404,-0.092274,-0.099509,0.0093464
1098,0.25337,0.029078,0.024803,0.27343,-0.18271,-0.11628,0.012306
1099,0.28395,0.029078,0.027434,0.2754,-0.20212,-0.14193,0.021186
1100,0.30237,0.029078,0.01987,0.25567,-0.20244,-0.18995,0.036314
1101,0.30763,0.030723,0.0063866,0.24482,-0.20146,-0.25671,0.056703
1102,0.30138,0.039273,-0.0087413,0.22673,-0.18337,-0.3261,0.088932
1103,0.28428,0.056374,-0.025185,0.15536,-0.15509,-0.37576,0.12971
1104,0.256,0.075449,-0.047219,0.010333,-0.16824,-0.39911,0.16063
1105,0.21522,0.085972,-0.075501,-0.15509,-0.28466,-0.39648,0.16326
1106,0.1695,0.081697,-0.098522,-0.23796,-0.50106,-0.35997,0.13333
1107,0.12905,0.062623,-0.1051,-0.17318,-0.7362,-0.28104,0.077422
1108,0.10439,0.034669,-0.09326,0.01132,-0.89109,-0.14687,0.013293
1109,0.097154,0.010333,-0.072213,0.2162,-0.91082,0.048482,-0.039326
1110,0.096496,-0.0034794,-0.057743,0.34841,-0.8092,0.28691,-0.066951
1111,0.08959,-0.0064392,-0.057414,0.37373,-0.63721,0.51843,-0.068595
1112,0.072489,-0.0028217,-0.070568,0.30631,-0.46093,0.6776,-0.051165
1113,0.04322,-0.00051963,-0.091287,0.18661,-0.33037,0.71838,-0.024198
1114,0.0090175,-0.00051963,-0.11201,0.060979,-0.2646,0.63946,0.0011247
1115,-0.025185,0.00046697,-0.12516,-0.04097,-0.25967,0.47798,0.021186
1116,-0.057743,0.002769,-0.12911,-0.10806,-0.30045,0.28855,0.035327
1117,-0.083723,0.0077021,-0.12549,-0.14687,-0.36589,0.11787,0.043877
1118,-0.10115,0.014937,-0.11529,-0.16331,-0.44054,-0.019594,0.055388
1119,-0.1097,0.023159,-0.098193,-0.15706,-0.51947,-0.12549,0.074133
1120,-0.11168,0.032367,-0.074844,-0.1176,-0.58853,-0.19718,0.092221
1121,-0.1097,0.040918,-0.04985,-0.041957,-0.61649,-0.22185,0.10636
1122,-0.10609,0.04618,-0.025185,0.050455,-0.56058,-0.19389,0.11557
1123,-0.10247,0.045851,-0.0047949,0.13925,-0.39713,-0.11529,0.12149
1124,-0.1005,0.040589,0.0073732,0.19877,-0.1541,0.0060577,0.1284
1125,-0.10247,0.031709,0.010662,0.21292,0.098469,0.14714,0.14089
1126,-0.10674,0.020528,0.0054,0.18397,0.28461,0.2708,0.15668
1127,-0.11003,0.010991,-0.0077547,0.12971,0.36518,0.33525,0.1672
1128,-0.11299,0.0050711,-0.022883,0.072489,0.34907,0.31815,0.16391
1129,-0.11299,0.00079584,-0.03538,0.026119,0.27277,0.23035,0.14616
1130,-0.1051,-0.00019077,-0.043272,-0.0057815,0.18167,0.11426,0.12708
1131,-0.08471,0.0054,-0.045246,-0.019265,0.11261,0.018555,0.11985
1132,-0.049521,0.020528,-0.044917,-0.018278,0.089919,-0.017292,0.12412
1133,-0.0028217,0.040589,-0.041957,-0.0097279,0.10998,0.018884,0.12708
1134,0.039602,0.058676,-0.03242,0.0030979,0.15043,0.10669,0.11787
1135,0.068871,0.073147,-0.012688,0.019541,0.18529,0.21292,0.090905
1136,0.080382,0.082355,0.013293,0.036971,0.20239,0.31256,0.054072
1137,0.078409,0.086301,0.038616,0.049139,0.20272,0.40169,0.023817
1138,0.068871,0.085644,0.056374,0.052757,0.19614,0.48127,0.0093464
1139,0.058348,0.079395,0.065912,0.045193,0.18726,0.54507,0.0080309
1140,0.045193,0.067556,0.067556,0.032038,0.17707,0.56842,0.013951
1141,0.030723,0.049797,0.061636,0.015924,0.15767,0.52205,0.022172
1142,0.015266,0.029078,0.051441,0.002769,0.1159,0.39412,0.023159
1143,0.0021113,0.0080309,0.047495,-0.011701,0.053415,0.1968,0.012635
1144,-0.007097,-0.0087413,0.050455,-0.026829,-0.011372,-0.02946,-0.0047949
1145,-0.0077547,-0.019265,0.057032,-0.039326,-0.062018,-0.23434,-0.02354
1146,-0.00019077,-0.02354,0.060979,-0.043272,-0.087012,-0.37905,-0.038011
1147,0.01132,-0.023869,0.062952,-0.038339,-0.087669,-0.45534,-0.048534
1148,0.017897,-0.021567,0.062294,-0.024856,-0.070568,-0.47836,-0.057414
1149,0.018555,-0.019594,0.063281,-0.0093991,-0.042615,-0.46751,-0.064649
1150,0.016253,-0.016634,0.065254,-0.00051963,-0.007097,-0.43528,-0.069253
1151,0.010991,-0.011701,0.064596,0.0021113,0.031381,-0.39253,-0.072213
1152,0.0050711,-0.0084125,0.058019,0.0067154,0.07512,-0.33991,-0.067609
1153,0.00079584,-0.0041372,0.050126,0.019212,0.14254,-0.27808,-0.054454
1154,-0.0028217,-0.0008485,0.049797,0.047166,0.25764,-0.20113,-0.034393
1155,-0.0093991,-0.0034794,0.06065,0.096167,0.42503,-0.11201,-0.011701
1156,-0.025514,-0.010715,0.079066,0.16227,0.61676,-0.025185,0.011648
1157,-0.049521,-0.024527,0.099785,0.23429,0.78482,0.03434,0.028092
1158,-0.076159,-0.039326,0.11919,0.29645,0.88249,0.053415,0.036642
1159,-0.1005,-0.051494,0.13333,0.32341,0.87558,0.034011,0.036971
1160,-0.12319,-0.057085,0.13563,0.28921,0.7322,-0.021238,0.030065
1161,-0.14785,-0.060373,0.11721,0.18003,0.45332,-0.10609,0.022501
1162,-0.17449,-0.062018,0.080711,0.01691,0.096167,-0.20573,0.016253
1163,-0.19587,-0.060373,0.036971,-0.15048,-0.23665,-0.28927,0.0086887
1164,-0.20442,-0.051823,0.0030979,-0.26822,-0.45008,-0.33892,0.0067154
1165,-0.19324,-0.033406,-0.010715,-0.30867,-0.50237,-0.35504,0.018555
1166,-0.16199,-0.0031506,-0.0024928,-0.27611,-0.41226,-0.35405,0.049139
1167,-0.11069,0.036314,0.028092,-0.2008,-0.24125,-0.35504,0.090577
1168,-0.045574,0.077422,0.068871,-0.1245,-0.065964,-0.36885,0.13037
1169,0.023817,0.1159,0.10603,-0.073199,0.056046,-0.39516,0.16095
1170,0.086959,0.14648,0.12708,-0.055112,0.1057,-0.42936,0.1843
1171,0.13497,0.15997,0.12807,-0.063004,0.096496,-0.46389,0.2014
1172,0.16687,0.15076,0.11195,-0.083065,0.05473,-0.48856,0.20404
1173,0.19253,0.12248,0.08367,-0.10313,0.0073732,-0.49415,0.18365
1174,0.21818,0.090577,0.050126,-0.11825,-0.025514,-0.45896,0.14451
1175,0.23955,0.06361,0.018226,-0.12549,-0.036037,-0.34682,0.10176
1176,0.24712,0.048482,-0.0031506,-0.12352,-0.025514,-0.14719,0.071831
1177,0.24449,0.042562,-0.012359,-0.11529,-0.0067681,0.12149,0.068543
1178,0.23626,0.040918,-0.012359,-0.10477,0.010662,0.40958,0.084328
1179,0.22179,0.042233,-0.010715,-0.091616,0.023159,0.65754,0.10307
1180,0.19976,0.044206,-0.010715,-0.07583,0.028421,0.81968,0.10899
1181,0.17312,0.044864,-0.014332,-0.059716,0.026119,0.87854,0.10044
1182,0.14648,0.041575,-0.018936,-0.04393,0.013622,0.84467,0.079395
1183,0.12248,0.035985,-0.023211,-0.027487,-0.0008485,0.74371,0.052757
1184,0.10406,0.029078,-0.02354,-0.011372,-0.0061104,0.60525,0.023159
1185,0.091563,0.021186,-0.015319,0.0034268,-0.0031506,0.45398,0.00046697
1186,0.086301,0.013951,-0.0028217,0.015924,0.0021113,0.3119,-0.0047949
1187,0.083342,0.0080309,0.0057288,0.02283,0.0011247,0.19746,0.0034268
1188,0.082684,0.0021113,0.0070443,0.027105,-0.010386,0.12116,0.01691
1189,0.087288,-0.0041372,0.0021113,0.028092,-0.024856,0.085644,0.029736
1190,0.099785,-0.0074258,-0.0047949,0.025132,-0.036695,0.079395,0.045522
1191,0.11853,-0.0031506,-0.0097279,0.020528,-0.041628,0.083342,0.058348
1192,0.14287,0.0060577,-0.0097279,0.02283,-0.038997,0.080382,0.065583
1193,0.16161,0.021843,-0.0051238,0.036971,-0.029789,0.068871,0.067885
1194,0.16753,0.040589,0.0001381,0.058348,-0.018278,0.049468,0.070516
1195,0.15997,0.054072,0.0044134,0.076435,-0.0080836,0.024803,0.070187
1196,0.13991,0.058676,0.0040845,0.084328,-0.0024928,-0.0047949,0.059334
1197,0.10406,0.05177,-0.0018351,0.084328,-0.0031506,-0.031433,0.03434
1198,0.056046,0.029078,-0.013017,0.073147,-0.0041372,-0.041628,-0.0057815
1199,0.0037556,-0.0028217,-0.030118,0.058019,0.00079584,-0.026171,-0.049521
1200,-0.041628,-0.035708,-0.048205,0.044535,0.020528,0.018884,-0.086354
1201,-0.07879,-0.057085,-0.057743,0.04026,0.060321,0.088603,-0.1097
1202,-0.1028,-0.0584,-0.051165,0.047495,0.11524,0.16326,-0.11562
1203,-0.11562,-0.04097,-0.024198,0.070516,0.16852,0.21357,-0.10017
1204,-0.11924,-0.0087413,0.014937,0.1034,0.20502,0.21094,-0.069582
1205,-0.1199,0.030065,0.05473,0.14254,0.22739,0.15109,-0.041957
1206,-0.1199,0.058676,0.08367,0.17674,0.2458,0.050455,-0.024527
1207,-0.12384,0.065912,0.094194,0.1968,0.26422,-0.065635,-0.022225
1208,-0.13601,0.051113,0.086301,0.19318,0.27178,-0.18041,-0.038011
1209,-0.15081,0.029078,0.062623,0.1649,0.25468,-0.27775,-0.065964
1210,-0.15772,0.010004,0.031381,0.12248,0.20798,-0.35076,-0.090958
1211,-0.14226,-0.0011774,0.0021113,0.082684,0.14056,-0.39713,-0.10148
1212,-0.10181,-0.0018351,-0.013345,0.058348,0.061965,-0.4218,-0.091287
1213,-0.04689,0.0093464,-0.016634,0.053743,-0.0097279,-0.42476,-0.069253
1214,0.00079584,0.02579,-0.017621,0.062623,-0.066951,-0.41391,-0.044917
1215,0.024145,0.036971,-0.024198,0.076764,-0.10313,-0.4024,-0.028802
1216,0.015924,0.039273,-0.034064,0.094194,-0.10905,-0.40108,-0.018278
1217,-0.010057,0.034011,-0.04097,0.11426,-0.073199,-0.40305,-0.011372
1218,-0.035051,0.02579,-0.038339,0.13234,0.018555,-0.39121,-0.011701
1219,-0.045246,0.018884,-0.022883,0.13925,0.17444,-0.35241,-0.01795
1220,-0.038668,0.016253,0.002769,0.12116,0.36156,-0.29486,-0.025514
1221,-0.022554,0.021843,0.024474,0.056703,0.4941,-0.23533,-0.027487
1222,-0.0074258,0.03434,0.031709,-0.078461,0.48061,-0.17712,-0.020909
1223,0.0034268,0.046508,0.020199,-0.28762,0.28362,-0.12713,-0.007097
1224,0.010991,0.051441,0.0014536,-0.5198,-0.057743,-0.090958,0.012964
1225,0.010333,0.042562,-0.013017,-0.67667,-0.45896,-0.080434,0.030394
1226,-0.004466,0.020199,-0.017621,-0.66516,-0.81973,-0.10181,0.031381
1227,-0.032091,-0.011701,-0.011701,-0.45008,-1.0539,-0.15081,0.020528
1228,-0.062347,-0.043601,0.0021113,-0.0903,-1.1137,-0.20902,0.010004
1229,-0.082736,-0.065635,0.020528,0.28,-1.0003,-0.25506,0.011648
1230,-0.093589,-0.074515,0.034011,0.52633,-0.77303,-0.27282,0.027434
1231,-0.1005,-0.069582,0.036642,0.58815,-0.51816,-0.26131,0.04881
1232,-0.10641,-0.055112,0.033354,0.49147,-0.3113,-0.22514,0.063938
1233,-0.1074,-0.033078,0.035327,0.3175,-0.18666,-0.16758,0.070187
1234,-0.1051,-0.011043,0.042891,0.14484,-0.1324,-0.091616,0.06361
1235,-0.10148,0.0054,0.053743,0.024803,-0.11727,0.0021113,0.043877
1236,-0.10181,0.01691,0.063938,-0.025185,-0.11727,0.10735,0.016253
1237,-0.10214,0.024145,0.073147,-0.020252,-0.11398,0.21883,-0.015976
1238,-0.099838,0.032696,0.083999,0.017568,-0.090629,0.33065,-0.048534
1239,-0.090958,0.045522,0.098798,0.068214,-0.037682,0.43128,-0.073528
1240,-0.075173,0.059334,0.11327,0.1182,0.038287,0.50429,-0.084381
1241,-0.062018,0.066569,0.11491,0.14385,0.1113,0.54803,-0.081421
1242,-0.057085,0.065254,0.098469,0.13728,0.14846,0.57763,-0.077475
1243,-0.056756,0.057361,0.064596,0.097154,0.13267,0.60361,-0.079777
1244,-0.050836,0.047824,0.025132,0.035985,0.074133,0.62729,-0.087669
1245,-0.031104,0.036971,-0.0067681,-0.025514,0.0086887,0.63058,-0.095233
1246,-0.0015062,0.027105,-0.023211,-0.07024,-0.031762,0.58947,-0.086683
1247,0.032367,0.02283,-0.02354,-0.089972,-0.036366,0.49903,-0.062018
1248,0.0692,0.027105,-0.014003,-0.086025,-0.0084125,0.37439,-0.025842
1249,0.10669,0.034998,-0.0008485,-0.063991,0.037958,0.24514,0.014608
1250,0.13925,0.035656,0.0090175,-0.033078,0.091892,0.15339,0.050455
1251,0.16194,0.026119,0.013951,-0.0015062,0.14484,0.11195,0.082684
1252,0.16885,0.014608,0.014608,0.02283,0.1945,0.10735,0.10669
1253,0.15997,0.0093464,0.013951,0.041247,0.23955,0.11524,0.1182
1254,0.1376,0.0070443,0.014937,0.056046,0.27968,0.12017,0.11985
1255,0.10669,0.0083598,0.013951,0.07216,0.31486,0.12281,0.12248
1256,0.070187,0.016581,0.0073732,0.088603,0.3438,0.13234,0.12807
1257,0.033025,0.028092,-0.0047949,0.096496,0.36419,0.15503,0.13136
1258,0.00079584,0.039931,-0.020581,0.088603,0.37636,0.18957,0.13432
1259,-0.025185,0.045522,-0.031762,0.062952,0.38097,0.23035,0.13859
1260,-0.044588,0.04322,-0.037682,0.019541,0.37274,0.26225,0.14352
1261,-0.055112,0.035656,-0.042615,-0.033078,0.34249,0.27376,0.14221
1262,-0.054783,0.026776,-0.050179,-0.086025,0.28625,0.25731,0.14122
1263,-0.039984,0.014608,-0.061689,-0.12812,0.20338,0.21818,0.14254
1264,-0.014003,-0.0008485,-0.069582,-0.1495,0.10603,0.16227,0.1455
1265,0.018555,-0.01795,-0.067937,-0.14095,0.014937,0.09551,0.15175
1266,0.051113,-0.033735,-0.050179,-0.096549,-0.054454,0.026447,0.16194
1267,0.080053,-0.040641,-0.017292,-0.017292,-0.09326,-0.030118,0.17641
1268,0.098141,-0.038668,0.023817,0.078409,-0.096878,-0.056098,0.19154
1269,0.097154,-0.03242,0.06065,0.15997,-0.065964,-0.044588,0.19253
1270,0.076435,-0.030775,0.08367,0.207,-0.011043,0.0040845,0.1695
1271,0.042562,-0.032749,0.08959,0.21127,0.053086,0.077751,0.13004
1272,0.010662,-0.034064,0.07808,0.18924,0.11261,0.16161,0.086301
1273,-0.0041372,-0.032749,0.058019,0.16424,0.15898,0.2412,0.050784
1274,0.0057288,-0.026829,0.040918,0.15438,0.18759,0.30401,0.03434
1275,0.03434,-0.011701,0.038616,0.16556,0.20371,0.3517,0.042562
1276,0.065583,0.010662,0.052099,0.17773,0.21028,0.38097,0.068214
1277,0.081697,0.041575,0.0692,0.16457,0.20436,0.38557,0.087946
1278,0.066898,0.074791,0.082684,0.11886,0.15997,0.35433,0.081039
1279,0.02283,0.10143,0.090248,0.050126,0.038616,0.2708,0.04322
1280,-0.033406,0.11721,0.09255,-0.025185,-0.16528,0.13695,-0.013017
1281,-0.079448,0.12412,0.090577,-0.085039,-0.39023,-0.021896,-0.069253
1282,-0.10214,0.12544,0.087288,-0.1097,-0.54644,-0.1712,-0.11135
1283,-0.10181,0.11919,0.082026,-0.095233,-0.56255,-0.28335,-0.13963
1284,-0.080763,0.10538,0.068871,-0.051165,-0.41654,-0.35011,-0.15969
1285,-0.040641,0.088275,0.049139,-0.0028217,-0.14292,-0.37707,-0.17811
1286,0.019212,0.074791,0.030065,0.031052,0.17904,-0.3797,-0.19093
1287,0.098469,0.068871,0.015266,0.044535,0.45726,-0.3728,-0.18995
1288,0.18299,0.069858,0.0057288,0.040589,0.61742,-0.36754,-0.17252
1289,0.2583,0.077093,-0.0031506,0.028421,0.63518,-0.36885,-0.14391
1290,0.31158,0.083013,-0.014661,0.017239,0.53356,-0.37247,-0.11168
1291,0.33591,0.081368,-0.031762,0.013293,0.36946,-0.37148,-0.078132
1292,0.32769,0.071173,-0.054454,0.019541,0.20009,-0.36129,-0.043601
1293,0.28823,0.053086,-0.075501,0.036642,0.068543,-0.34254,-0.017621
1294,0.22311,0.034998,-0.089314,0.063281,-0.013674,-0.31755,-0.0077547
1295,0.14484,0.020857,-0.097207,0.090577,-0.052152,-0.28631,-0.0057815
1296,0.066898,0.010004,-0.10247,0.10143,-0.0584,-0.2498,-0.00051963
1297,0.0060577,0.0060577,-0.1074,0.088603,-0.048863,-0.21067,0.014279
1298,-0.026171,0.0080309,-0.11299,0.056046,-0.032749,-0.17252,0.030723
1299,-0.030775,0.016581,-0.1176,0.014279,-0.020581,-0.13832,0.041247
1300,-0.016963,0.028421,-0.11891,-0.022554,-0.01795,-0.10543,0.04618
1301,0.0014536,0.039931,-0.1176,-0.046561,-0.027487,-0.072542,0.048153
1302,0.011648,0.045522,-0.11398,-0.051823,-0.050836,-0.037682,0.049139
1303,0.010991,0.043549,-0.10543,-0.044588,-0.084381,-0.0074258,0.041247
1304,0.0030979,0.036642,-0.089643,-0.036037,-0.12352,0.017239,0.019541
1305,-0.0061104,0.024145,-0.068266,-0.032749,-0.15903,0.02875,-0.011043
1306,-0.010057,0.0093464,-0.045903,-0.035051,-0.18205,0.025132,-0.038668
1307,0.0017824,0.0034268,-0.0265,-0.038997,-0.19258,0.010991,-0.053138
1308,0.02579,0.01132,-0.01203,-0.042615,-0.19916,-0.0034794,-0.053467
1309,0.053415,0.026447,-0.0057815,-0.043272,-0.20508,-0.017292,-0.039984
1310,0.076435,0.042233,-0.0051238,-0.041299,-0.21626,-0.032749,-0.015976
1311,0.08959,0.047495,-0.0057815,-0.043272,-0.22481,-0.056098,0.0063866
1312,0.095181,0.039602,-0.0047949,-0.049521,-0.22283,-0.091945,0.026447
1313,0.095839,0.026447,-0.0038083,-0.05544,-0.20573,-0.13536,0.04026
1314,0.085315,0.01691,-0.0031506,-0.057085,-0.17548,-0.17679,0.043549
1315,0.066569,0.013951,-0.0031506,-0.054454,-0.1416,-0.20902,0.034669
1316,0.039602,0.017897,-0.00051963,-0.046232,-0.10872,-0.23895,0.018226
1317,0.013293,0.024145,0.010004,-0.033735,-0.079777,-0.27644,-0.0038083
1318,-0.0087413,0.02875,0.027763,-0.015648,-0.055112,-0.32347,-0.023211
1319,-0.023211,0.028421,0.048482,0.0057288,-0.034064,-0.36556,-0.041299
1320,-0.033406,0.018226,0.062623,0.026119,-0.016634,-0.38299,-0.062676
1321,-0.042286,0.0014536,0.068543,0.044206,0.00079584,-0.37082,-0.087341
1322,-0.051494,-0.015976,0.068871,0.064596,0.02283,-0.3307,-0.1028
1323,-0.058071,-0.027487,0.067556,0.087946,0.06361,-0.26361,-0.10674
1324,-0.060373,-0.030118,0.068214,0.11426,0.13958,-0.16331,-0.099509
1325,-0.057414,-0.021238,0.070516,0.13136,0.24153,-0.029131,-0.085696
1326,-0.051494,-0.0051238,0.074791,0.12116,0.33098,0.13662,-0.066293
1327,-0.051823,0.010004,0.077422,0.071502,0.35729,0.31421,-0.046561
1328,-0.0584,0.019212,0.075778,-0.0087413,0.30039,0.48456,-0.030447
1329,-0.063004,0.018226,0.068543,-0.094247,0.18069,0.61841,-0.018936
1330,-0.061031,0.0083598,0.05473,-0.16166,0.037958,0.67366,-0.015319
1331,-0.048863,-0.0041372,0.038944,-0.19521,-0.082736,0.62301,-0.01203
1332,-0.027158,-0.015648,0.031709,-0.19159,-0.15838,0.47436,-0.0057815
1333,-0.0067681,-0.020909,0.0373,-0.15838,-0.19028,0.26257,0.0044134
1334,-0.0015062,-0.018936,0.053743,-0.11233,-0.19652,0.019541,0.01691
1335,-0.01499,-0.013674,0.072489,-0.067609,-0.2008,-0.22678,0.026447
1336,-0.04097,-0.011372,0.085315,-0.033406,-0.2156,-0.44515,0.031052
1337,-0.070568,-0.016634,0.08663,-0.012359,-0.23303,-0.60629,0.039931
1338,-0.094576,-0.028802,0.079066,-0.0051238,-0.24388,-0.69246,0.055388
1339,-0.10773,-0.041957,0.067885,-0.0087413,-0.25112,-0.69969,0.076106
1340,-0.10806,-0.051494,0.056374,-0.017292,-0.25638,-0.63721,0.099785
1341,-0.098522,-0.051823,0.043549,-0.024527,-0.25769,-0.52079,0.11919
1342,-0.079448,-0.044917,0.031381,-0.026829,-0.2521,-0.3728,0.12708
1343,-0.054125,-0.035051,0.021843,-0.028473,-0.23961,-0.21165,0.12346
1344,-0.026171,-0.025842,0.014279,-0.028473,-0.21691,-0.051165,0.11524
1345,0.0001381,-0.018607,0.0047422,-0.030447,-0.18534,0.10538,0.1159
1346,0.024145,-0.01499,-0.010057,-0.036037,-0.14456,0.25961,0.12708
1347,0.046508,-0.016634,-0.031433,-0.047877,-0.091945,0.40991,0.14287
1348,0.064596,-0.019265,-0.051823,-0.069582,-0.025514,0.55658,0.16161
1349,0.071831,-0.018936,-0.065307,-0.097864,0.059005,0.69536,0.18167
1350,0.065912,-0.014003,-0.063333,-0.11694,0.16326,0.81639,0.20272
1351,0.049797,-0.0051238,-0.040641,-0.099509,0.28559,0.90189,0.21916
1352,0.02579,0.0070443,0.0044134,-0.029131,0.42076,0.94366,0.22245
1353,-0.0031506,0.020857,0.06065,0.087288,0.56974,0.95056,0.21324
1354,-0.026829,0.033683,0.11195,0.21357,0.73088,0.94892,0.19877
1355,-0.036695,0.041247,0.14254,0.30927,0.88907,0.96142,0.18562
1356,-0.030447,0.046508,0.15076,0.34084,1.0084,0.98181,0.17641
1357,-0.013345,0.052757,0.14056,0.28,1.0453,0.98345,0.17246
1358,0.00079584,0.061307,0.12215,0.12609,0.96306,0.93017,0.17246
1359,-0.00019077,0.071502,0.099127,-0.072213,0.74436,0.79534,0.16326
1360,-0.02354,0.077751,0.069529,-0.21889,0.4076,0.58158,0.13333
1361,-0.066951,0.071831,0.03434,-0.23138,0.032696,0.32868,0.083013
1362,-0.11299,0.050784,0.0014536,-0.095891,-0.26855,0.09551,0.021514
1363,-0.14127,0.022172,-0.020252,0.11327,-0.41752,-0.068924,-0.031762
1364,-0.13832,-0.0031506,-0.028802,0.27803,-0.41325,-0.15311,-0.060373
1365,-0.10346,-0.01499,-0.029131,0.3096,-0.32511,-0.1712,-0.058071
1366,-0.047877,-0.0097279,-0.026829,0.21094,-0.25112,-0.15575,-0.035051
1367,0.014937,0.0067154,-0.026829,0.082026,-0.25605,-0.14259,-0.0064392
1368,0.070516,0.022501,-0.02354,0.040918,-0.33136,-0.15344,0.015924
1369,0.10735,0.031381,-0.015976,0.14944,-0.41029,-0.18732,0.021843
1370,0.11853,0.034998,-0.0074258,0.36419,-0.42739,-0.22481,0.015924
1371,0.10899,0.037629,-0.007097,0.57631,-0.3728,-0.24783,0.0080309
1372,0.087946,0.040589,-0.022225,0.68089,-0.29223,-0.25112,0.0021113
1373,0.064267,0.043877,-0.050507,0.6365,-0.23566,-0.23533,-0.00051963
1374,0.046837,0.045193,-0.082408,0.47305,-0.20573,-0.20639,0.0017824
1375,0.04026,0.041575,-0.10905,0.25534,-0.18238,-0.18337,0.013293
1376,0.04026,0.032367,-0.13042,0.04618,-0.16462,-0.18534,0.036971
1377,0.041904,0.019212,-0.14555,-0.11694,-0.16758,-0.22283,0.060321
1378,0.044206,0.0080309,-0.15377,-0.21691,-0.18633,-0.28466,0.067885
1379,0.049797,-0.00051963,-0.14917,-0.25605,-0.17877,-0.34912,0.056046
1380,0.059334,-0.0024928,-0.12976,-0.24059,-0.10773,-0.39976,0.031709
1381,0.067556,0.0030979,-0.10247,-0.186,0.01987,-0.43232,0.010991
1382,0.071831,0.01691,-0.073857,-0.11464,0.15668,-0.44877,0.0001381
1383,0.07216,0.033025,-0.047219,-0.044917,0.24876,-0.45732,-0.0034794
1384,0.070845,0.048482,-0.0265,0.0080309,0.26225,-0.46488,-0.007097
1385,0.071173,0.05769,-0.01499,0.036642,0.19845,-0.47606,-0.013017
1386,0.075449,0.062623,-0.0093991,0.043877,0.089261,-0.48889,-0.024527
1387,0.080711,0.061636,-0.00019077,0.038944,-0.019923,-0.49645,-0.037353
1388,0.083013,0.057361,0.010004,0.032367,-0.096549,-0.48757,-0.046232
1389,0.082355,0.050784,0.020528,0.027434,-0.13108,-0.45995,-0.04689
1390,0.079066,0.049468,0.028421,0.021514,-0.13634,-0.41654,-0.040641
1391,0.077422,0.051441,0.0373,0.012964,-0.13305,-0.35899,-0.038668
1392,0.074791,0.058348,0.045851,-0.0008485,-0.13174,-0.29453,-0.038668
1393,0.072818,0.063938,0.05473,-0.018278,-0.13536,-0.22612,-0.030775
1394,0.068871,0.06624,0.061307,-0.030775,-0.13141,-0.1541,-0.019923
1395,0.060979,0.067227,0.064596,-0.031104,-0.10411,-0.07287,-0.020252
1396,0.049139,0.067885,0.063281,-0.015319,-0.041628,0.025461,-0.033735
1397,0.037958,0.064925,0.05769,0.010662,0.051113,0.13563,-0.050507
1398,0.034011,0.060321,0.054072,0.034669,0.15175,0.23988,-0.06136
1399,0.035985,0.05769,0.053086,0.04322,0.23035,0.31618,-0.060702
1400,0.037629,0.056046,0.053086,0.030394,0.26488,0.34413,-0.044588
1401,0.033683,0.05473,0.05177,0.0047422,0.24843,0.32013,-0.013674
1402,0.022501,0.051113,0.047166,-0.021896,0.19581,0.26126,0.015924
1403,0.0067154,0.042562,0.044206,-0.038668,0.13136,0.19483,0.028421
1404,-0.0074258,0.027105,0.047166,-0.044588,0.079066,0.14451,0.021514
1405,-0.014661,0.010004,0.054401,-0.044588,0.052428,0.12281,0.0093464
1406,-0.012688,-0.0024928,0.061307,-0.03538,0.050784,0.12905,0.0034268
1407,-0.0054526,-0.0074258,0.063281,-0.022554,0.057361,0.14418,0.0063866
1408,-0.00051963,-0.0084125,0.058348,-0.0080836,0.058676,0.14747,0.013293
1409,-0.0024928,-0.0074258,0.052099,0.0021113,0.053415,0.12774,0.018226
1410,-0.014332,-0.010057,0.044206,0.002769,0.050126,0.09255,0.019212
1411,-0.036366,-0.016634,0.036971,-0.00019077,0.059005,0.061307,0.023488
1412,-0.06728,-0.027487,0.028421,-0.0008485,0.075778,0.046837,0.028092
1413,-0.098851,-0.038339,0.021514,0.0047422,0.098469,0.048153,0.024474
1414,-0.12319,-0.042615,0.02283,0.015595,0.11985,0.05177,0.011648
1415,-0.12746,-0.037024,0.031381,0.023817,0.12741,0.045193,-0.010386
1416,-0.11299,-0.023869,0.038287,0.022172,0.11327,0.021514,-0.036695
1417,-0.083723,-0.012688,0.039273,0.0054,0.080382,-0.011043,-0.060373
1418,-0.048205,-0.0074258,0.034011,-0.026829,0.041904,-0.038339,-0.07024
1419,-0.020909,-0.0074258,0.025461,-0.057414,0.011977,-0.043272,-0.057743
1420,-0.0018351,-0.0080836,0.01691,-0.07287,-0.004466,-0.025185,-0.026171
1421,0.012635,-0.011043,0.012306,-0.06728,-0.011701,0.012635,0.0086887
1422,0.021514,-0.010715,0.014608,-0.046232,-0.016634,0.060321,0.030394
1423,0.022501,-0.010386,0.027434,-0.020252,-0.026171,0.10406,0.033354
1424,0.020199,-0.011043,0.040918,-0.00019077,-0.040641,0.13399,0.022172
1425,0.017568,-0.014661,0.049139,0.0044134,-0.062347,0.14385,0.0070443
1426,0.018226,-0.022225,0.052757,-0.0034794,-0.087998,0.13366,-0.0077547
1427,0.021186,-0.028473,0.054072,-0.015319,-0.11957,0.11524,-0.016963
1428,0.028092,-0.028144,0.054401,-0.025842,-0.15706,0.098141,-0.014003
1429,0.039602,-0.018936,0.055388,-0.031104,-0.1906,0.083013,-0.0031506
1430,0.056703,-0.0054526,0.053086,-0.030775,-0.20869,0.070187,0.015924
1431,0.07808,0.0047422,0.04618,-0.024198,-0.20014,0.061636,0.04026
1432,0.096167,0.010333,0.036314,-0.012688,-0.16232,0.059334,0.06065
1433,0.10702,0.014937,0.027434,0.0021113,-0.10346,0.062623,0.073147
1434,0.10768,0.020199,0.020528,0.017568,-0.042286,0.068214,0.076435
1435,0.099127,0.028092,0.017897,0.030065,0.0090175,0.072489,0.079724
1436,0.085972,0.036642,0.021514,0.035656,0.044535,0.071502,0.084328
1437,0.070845,0.047166,0.032696,0.036971,0.061965,0.064267,0.087617
1438,0.057032,0.056703,0.044864,0.035985,0.061636,0.053086,0.08959
1439,0.040918,0.058019,0.052428,0.030065,0.04881,0.044206,0.088603
1440,0.016581,0.049797,0.052428,0.015924,0.031709,0.034998,0.078737
1441,-0.013017,0.035656,0.043877,-0.0015062,0.015924,0.0096753,0.059334
1442,-0.038011,0.01987,0.029078,-0.019265,0.0034268,-0.047548,0.042891
1443,-0.048863,0.0086887,0.010662,-0.027816,-0.0077547,-0.13272,0.043549
1444,-0.044588,0.0057288,-0.0077547,-0.022225,-0.015976,-0.22316,0.064596
1445,-0.029789,0.014608,-0.020252,-0.0038083,-0.015976,-0.28894,0.092221
1446,-0.011372,0.030723,-0.024856,0.018226,-0.0093991,-0.30768,0.11228
1447,0.010004,0.046837,-0.021238,0.036971,-0.0018351,-0.27414,0.11919
1448,0.029078,0.060979,-0.010386,0.053415,0.002769,-0.20771,0.11426
1449,0.040918,0.070187,0.0040845,0.068543,0.0001381,-0.13733,0.10406
1450,0.044535,0.073476,0.015924,0.079724,-0.013017,-0.082736,0.098141
1451,0.043877,0.070516,0.021514,0.082026,-0.032749,-0.046232,0.10044
1452,0.047495,0.067556,0.016253,0.071502,-0.048863,-0.022554,0.10669
1453,0.059992,0.065912,-0.0008485,0.047824,-0.057085,-0.0061104,0.11031
1454,0.073147,0.064925,-0.028802,0.019541,-0.059387,0.0057288,0.10899
1455,0.079724,0.068871,-0.056427,-0.0028217,-0.055112,0.019541,0.1034
1456,0.074133,0.074133,-0.068924,-0.012359,-0.048205,0.048482,0.098798
1457,0.059992,0.079066,-0.06136,-0.0093991,-0.036695,0.08959,0.093208
1458,0.0373,0.080711,-0.040641,0.0021113,-0.023211,0.1284,0.080382
1459,0.0040845,0.079724,-0.019923,0.016581,-0.0018351,0.14714,0.05177
1460,-0.039984,0.074462,-0.0067681,0.031052,0.03434,0.1353,0.012306
1461,-0.081421,0.06361,0.0030979,0.045193,0.088603,0.090577,-0.027158
1462,-0.10576,0.051113,0.013293,0.057032,0.15372,0.027105,-0.056756
1463,-0.11036,0.042562,0.026776,0.059663,0.21522,-0.039984,-0.068266
1464,-0.096549,0.039273,0.038944,0.050126,0.26849,-0.09326,-0.06136
1465,-0.070897,0.038287,0.045851,0.026119,0.29842,-0.12615,-0.041957
1466,-0.042944,0.035656,0.042233,-0.011701,0.27244,-0.15246,-0.025842
1467,-0.024527,0.026119,0.02875,-0.050507,0.17016,-0.18403,-0.024198
1468,-0.020581,0.0086887,0.013293,-0.06728,0.0080309,-0.21132,-0.044917
1469,-0.022883,-0.0084125,0.0096753,-0.04985,-0.1416,-0.20409,-0.077146
1470,-0.021896,-0.020252,0.023817,-0.0077547,-0.19225,-0.13272,-0.097536
1471,-0.0097279,-0.026171,0.050126,0.035985,-0.097864,0.011977,-0.09622
1472,0.010662,-0.028144,0.078737,0.072818,0.12511,0.21193,-0.079119
1473,0.024803,-0.030775,0.10044,0.10899,0.39313,0.42767,-0.062347
1474,0.013293,-0.038668,0.11261,0.13958,0.60262,0.61512,-0.054783
1475,-0.031104,-0.054783,0.1113,0.13695,0.69043,0.747,-0.069253
1476,-0.1005,-0.077475,0.099785,0.064925,0.65426,0.82691,-0.09918
1477,-0.17811,-0.10214,0.083013,-0.068924,0.53849,0.86999,-0.13207
1478,-0.24158,-0.12089,0.073804,-0.19883,0.38162,0.88084,-0.15443
1479,-0.27874,-0.12483,0.081697,-0.23171,0.2116,0.85454,-0.15673
1480,-0.28762,-0.11201,0.11031,-0.12286,0.061965,0.78482,-0.1393
1481,-0.26723,-0.086354,0.15339,0.090905,-0.029131,0.67201,-0.10641
1482,-0.22185,-0.056427,0.19581,0.32539,-0.030118,0.52468,-0.076488
1483,-0.16331,-0.02946,0.22015,0.49936,0.064596,0.35663,-0.066293
1484,-0.095891,-0.013017,0.22179,0.55855,0.22903,0.19845,-0.073199
1485,-0.021896,-0.0080836,0.20173,0.49443,0.40925,0.088603,-0.082736
1486,0.057361,-0.0011774,0.16885,0.3494,0.5454,0.05177,-0.085039
1487,0.13169,0.016581,0.1353,0.20765,0.57631,0.087288,-0.081421
1488,0.19351,0.042233,0.10669,0.13925,0.45989,0.1649,-0.074186
1489,0.23199,0.059005,0.083013,0.14254,0.18529,0.22673,-0.065307
1490,0.24942,0.062952,0.050784,0.1455,-0.20836,0.23002,-0.0584
1491,0.25008,0.054401,-0.0034794,0.081039,-0.64181,0.16622,-0.052152
1492,0.24218,0.041904,-0.071884,-0.062347,-1.0082,0.055717,-0.041957
1493,0.23232,0.034011,-0.13404,-0.22875,-1.2157,-0.06432,-0.029789
1494,0.22541,0.040918,-0.17745,-0.34846,-1.2154,-0.16068,-0.015976
1495,0.22673,0.062952,-0.19422,-0.37937,-1.0391,-0.21889,0.0040845
1496,0.23495,0.087617,-0.18666,-0.32281,-0.76086,-0.24026,0.02579
1497,0.24547,0.1011,-0.16331,-0.21494,-0.46685,-0.23862,0.044535
1498,0.24251,0.096496,-0.13437,-0.10148,-0.22415,-0.2281,0.052428
1499,0.21489,0.078409,-0.11135,-0.015319,-0.068266,-0.21165,0.049139
1500,0.16523,0.053086,-0.098193,0.032038,0.0017824,-0.19587,0.036971
1501,0.10603,0.032696,-0.097536,0.047495,0.002769,-0.1883,0.020199
1502,0.055059,0.024803,-0.10181,0.045851,-0.03242,-0.19948,0.010991
1503,0.016253,0.02579,-0.10082,0.043549,-0.074186,-0.23336,0.019212
1504,-0.014003,0.027763,-0.089314,0.050126,-0.10181,-0.28762,0.040918
1505,-0.034064,0.027763,-0.071555,0.063281,-0.11365,-0.35405,0.06624
1506,-0.041957,0.027434,-0.054454,0.076435,-0.11464,-0.41851,0.087617
1507,-0.038011,0.028092,-0.045903,0.082355,-0.11233,-0.46685,0.099127
1508,-0.0265,0.027105,-0.048863,0.073804,-0.10905,-0.49316,0.10669
1509,-0.014661,0.026119,-0.057743,0.052757,-0.10313,-0.49744,0.11721
1510,-0.007097,0.026119,-0.068924,0.025132,-0.087998,-0.48363,0.13201
1511,-0.007097,0.027763,-0.081421,0.0011247,-0.07024,-0.45403,0.14056
1512,-0.014661,0.031709,-0.089643,-0.016963,-0.053467,-0.41489,0.13563
1513,-0.022554,0.035985,-0.089314,-0.031433,-0.039326,-0.37477,0.11754
1514,-0.027158,0.042562,-0.080106,-0.045246,-0.027487,-0.34419,0.095839
1515,-0.026171,0.053743,-0.066622,-0.056756,-0.015319,-0.32643,0.083013
1516,-0.021567,0.063281,-0.054454,-0.061689,-0.0008485,-0.32643,0.085972
1517,-0.013017,0.067885,-0.045903,-0.059058,0.017897,-0.34057,0.10274
1518,-0.0028217,0.065912,-0.042286,-0.057085,0.038616,-0.36129,0.12807
1519,0.010662,0.061307,-0.041957,-0.057085,0.06624,-0.3774,0.15306
1520,0.024145,0.056046,-0.042944,-0.054783,0.1034,-0.37707,0.16885
1521,0.035327,0.057361,-0.036037,-0.045903,0.15635,-0.34978,0.17181
1522,0.042233,0.067227,-0.02354,-0.025185,0.22212,-0.28236,0.16589
1523,0.047824,0.079724,-0.011372,0.013951,0.29349,-0.16232,0.1626
1524,0.048482,0.087617,-0.0061104,0.077422,0.35663,0.0040845,0.16556
1525,0.042562,0.081697,-0.0077547,0.15142,0.40136,0.18792,0.17575
1526,0.029736,0.063938,-0.0097279,0.21061,0.41484,0.34216,0.18792
1527,0.012635,0.042891,-0.010715,0.23495,0.39346,0.42273,0.1922
1528,-0.0011774,0.024803,-0.010386,0.22245,0.3392,0.40793,0.17378
1529,-0.0064392,0.012635,-0.011372,0.18299,0.26225,0.30796,0.13399
1530,0.0024402,0.010004,-0.014003,0.13234,0.182,0.15799,0.089919
1531,0.01987,0.013293,-0.016634,0.084328,0.11228,0.0017824,0.062623
1532,0.039273,0.016253,-0.016963,0.046837,0.059005,-0.11694,0.053743
1533,0.050126,0.013293,-0.014332,0.021514,0.016253,-0.16857,0.050784
1534,0.052428,0.0070443,-0.0097279,0.0060577,-0.018278,-0.16068,0.046837
1535,0.051113,0.00079584,-0.0074258,-0.004466,-0.049521,-0.12713,0.038944
1536,0.04881,-0.0028217,-0.011043,-0.015319,-0.076488,-0.10313,0.029078
1537,0.041575,-0.0031506,-0.019594,-0.025842,-0.098193,-0.10609,0.017568
1538,0.030723,-0.0008485,-0.031762,-0.03242,-0.1097,-0.13075,0.0040845
1539,0.022501,0.0030979,-0.042944,-0.033406,-0.11332,-0.16331,-0.012688
1540,0.016581,0.0040845,-0.048205,-0.027158,-0.10905,-0.18238,-0.023869
1541,0.011648,0.0001381,-0.043272,-0.015648,-0.098851,-0.17416,-0.027816
1542,0.0054,-0.0074258,-0.030775,-0.0008485,-0.07879,-0.13733,-0.028144
1543,-0.0011774,-0.014332,-0.016305,0.01132,-0.041628,-0.080763,-0.028144
1544,-0.0054526,-0.01795,-0.0028217,0.019212,0.014608,-0.017292,-0.02946
1545,-0.0067681,-0.015648,0.0090175,0.023817,0.08663,0.04618,-0.029789
1546,-0.0077547,-0.0064392,0.021186,0.023159,0.15832,0.10307,-0.026171
1547,-0.0084125,0.0073732,0.02875,0.013951,0.21752,0.14648,-0.021896
1548,-0.0090702,0.018555,0.032696,-0.0011774,0.25961,0.17904,-0.020909
1549,-0.0090702,0.023488,0.036971,-0.013674,0.29184,0.20404,-0.021238
1550,-0.011372,0.021514,0.043877,-0.021238,0.31585,0.22278,-0.021896
1551,-0.014003,0.01132,0.056374,-0.019923,0.3221,0.22739,-0.021238
1552,-0.015648,-0.0031506,0.069529,-0.014332,0.29941,0.2162,-0.01203
1553,-0.014332,-0.013674,0.080382,-0.0080836,0.25172,0.1922,0.0034268
1554,-0.010386,-0.017621,0.087288,-0.0061104,0.19121,0.16194,0.015266
1555,-0.0038083,-0.011043,0.093536,-0.012688,0.13333,0.12905,0.014279
1556,-0.0018351,0.0017824,0.09551,-0.024198,0.087946,0.10011,0.0030979
1557,-0.0084125,0.016581,0.092221,-0.032091,0.057361,0.082684,-0.0047949
1558,-0.02354,0.027434,0.084328,-0.03538,0.041904,0.077093,-0.0034794
1559,-0.042615,0.030723,0.076435,-0.03538,0.036314,0.082684,0.0050711
1560,-0.062676,0.024145,0.071502,-0.035708,0.035656,0.094194,0.012635
1561,-0.07879,0.013951,0.071173,-0.039655,0.035985,0.10801,0.016581
1562,-0.085367,0.0067154,0.074791,-0.04689,0.035327,0.12281,0.023488
1563,-0.082736,0.0047422,0.079724,-0.054125,0.029736,0.14287,0.036642
1564,-0.073199,0.0073732,0.081039,-0.05544,0.017568,0.17378,0.055717
1565,-0.060373,0.011977,0.075449,-0.057743,-0.0008485,0.21785,0.070845
1566,-0.04985,0.015266,0.061307,-0.069911,-0.020581,0.26751,0.074133
1567,-0.041628,0.011648,0.037629,-0.10313,-0.039984,0.31421,0.062294
1568,-0.037024,0.0034268,0.01132,-0.15114,-0.057085,0.34972,0.036642
1569,-0.034393,-0.0061104,-0.013017,-0.19883,-0.068924,0.37077,0.012306
1570,-0.032091,-0.016963,-0.030775,-0.23073,-0.068266,0.38162,-0.0011774
1571,-0.025514,-0.024198,-0.032749,-0.22974,-0.0584,0.38557,-0.002164
1572,-0.0074258,-0.021896,-0.019594,-0.18863,-0.038997,0.37801,0.0037556
1573,0.021843,-0.007097,0.0037556,-0.10839,-0.018936,0.3415,0.013951
1574,0.055388,0.014279,0.031381,0.00079584,-0.0090702,0.25665,0.023817
1575,0.082026,0.035327,0.061965,0.11886,-0.011043,0.12379,0.030065
1576,0.092221,0.045851,0.089261,0.21489,-0.010386,-0.038011,0.029078
1577,0.084328,0.047166,0.10932,0.27014,0.013951,-0.20014,0.01987
1578,0.059005,0.044535,0.12017,0.28362,0.075449,-0.33432,0.00046697
1579,0.025132,0.045522,0.12412,0.25863,0.16654,-0.4195,-0.016963
1580,-0.0041372,0.05473,0.12248,0.19285,0.25797,-0.44679,-0.017292
1581,-0.015976,0.073147,0.11754,0.092879,0.30862,-0.42377,0.00046697
1582,-0.0087413,0.089261,0.11195,-0.0011774,0.27441,-0.38464,0.022172
1583,0.0077021,0.093208,0.10077,-0.033406,0.13695,-0.36852,0.032038
1584,0.017897,0.081039,0.084328,0.026119,-0.071884,-0.39319,0.020528
1585,0.014608,0.056703,0.064267,0.14451,-0.29782,-0.44383,-0.0087413
1586,0.0021113,0.026447,0.042891,0.25172,-0.49579,-0.48987,-0.039655
1587,-0.013017,-0.0018351,0.019212,0.28757,-0.65036,-0.50204,-0.056098
1588,-0.024527,-0.025842,-0.010057,0.23495,-0.75428,-0.46389,-0.054454
1589,-0.028802,-0.041957,-0.04097,0.12675,-0.77566,-0.35833,-0.042944
1590,-0.017292,-0.043601,-0.061031,0.020857,-0.677,-0.1689,-0.027816
1591,0.013951,-0.025842,-0.059058,-0.040313,-0.46028,0.098469,-0.012688
1592,0.064267,0.013622,-0.033078,-0.041957,-0.17548,0.40399,0.002769
1593,0.12905,0.065912,0.013293,0.0011247,0.090905,0.68583,0.018555
1594,0.19483,0.11919,0.068871,0.061965,0.25041,0.88907,0.029407
1595,0.2458,0.1626,0.11853,0.10998,0.25797,0.9897,0.028092
1596,0.26915,0.18693,0.14879,0.12642,0.133,0.99825,0.013293
1597,0.26422,0.19121,0.14846,0.10735,-0.0584,0.93873,-0.014003
1598,0.23824,0.17115,0.11656,0.067227,-0.23763,0.83283,-0.052481
1599,0.20108,0.13037,0.067885,0.026447,-0.34583,0.69471,-0.088985
1600,0.15898,0.077422,0.015595,-0.0028217,-0.36721,0.54014,-0.11266
1601,0.11426,0.024145,-0.027816,-0.014661,-0.32347,0.37702,-0.11562
1602,0.068543,-0.018936,-0.050507,-0.01499,-0.25375,0.20963,-0.10444
1603,0.024474,-0.044259,-0.051823,-0.010715,-0.19258,0.044535,-0.0903
1604,-0.015648,-0.051494,-0.042286,-0.0077547,-0.14785,-0.10707,-0.080434
1605,-0.04985,-0.046561,-0.036366,-0.0077547,-0.097207,-0.23204,-0.075501
1606,-0.076159,-0.038011,-0.039984,-0.010386,-0.0077547,-0.32248,-0.069582
1607,-0.092603,-0.034064,-0.047219,-0.011043,0.13136,-0.38793,-0.054454
1608,-0.1005,-0.038668,-0.053467,-0.0054526,0.29119,-0.43758,-0.027816
1609,-0.10115,-0.048534,-0.053467,0.0067154,0.42438,-0.47244,0.0040845
1610,-0.098522,-0.057085,-0.047877,0.021186,0.51284,-0.49185,0.037958
1611,-0.09326,-0.060045,-0.037353,0.026119,0.56513,-0.50303,0.071831
1612,-0.086354,-0.051823,-0.022883,0.015266,0.59868,-0.51816,0.097812
1613,-0.077803,-0.034393,-0.0097279,-0.012688,0.61545,-0.53986,0.10965
1614,-0.063991,-0.016305,-0.0018351,-0.065635,0.60986,-0.56617,0.1034
1615,-0.042615,-0.0028217,-0.0015062,-0.15509,0.55494,-0.58064,0.082355
1616,-0.015976,0.0021113,-0.0093991,-0.26526,0.4132,-0.56486,0.055059
1617,0.0057288,-0.0031506,-0.021567,-0.33596,0.17049,-0.50796,0.02579
1618,0.016581,-0.015648,-0.02946,-0.2919,-0.12713,-0.40832,-0.00051963
1619,0.014279,-0.032091,-0.031104,-0.10674,-0.39056,-0.27644,-0.022225
1620,0.0030979,-0.046232,-0.025514,0.16293,-0.53624,-0.12615,-0.039655
1621,-0.0097279,-0.04985,-0.01499,0.39971,-0.53953,0.028092,-0.04985
1622,-0.021567,-0.044917,-0.0011774,0.51482,-0.43594,0.17838,-0.051823
1623,-0.034064,-0.036695,0.014937,0.48686,-0.29321,0.31454,-0.045903
1624,-0.043272,-0.02946,0.023159,0.35959,-0.17581,0.43194,-0.032749
1625,-0.041299,-0.024856,0.02283,0.20469,-0.10806,0.52896,-0.01499
1626,-0.029131,-0.019594,0.018226,0.079395,-0.07879,0.5921,0.0021113
1627,-0.013017,-0.014661,0.015266,0.013293,-0.071555,0.60427,0.019212
1628,-0.0008485,-0.014003,0.012635,-0.0024928,-0.076817,0.56809,0.034011
1629,0.0057288,-0.016305,0.0077021,0.0057288,-0.098193,0.51843,0.043549
1630,0.0096753,-0.019923,0.0021113,0.012306,-0.12648,0.50396,0.044206
1631,0.01691,-0.01795,-0.0018351,0.0093464,-0.14325,0.55987,0.041575
1632,0.025461,-0.0054526,-0.00051963,0.0030979,-0.12878,0.68747,0.049139
1633,0.034011,0.017568,0.012964,-0.0015062,-0.077475,0.83875,0.067885
1634,0.041247,0.04618,0.034998,0.0017824,0.0037556,0.95024,0.084657
1635,0.04618,0.071173,0.060321,0.011648,0.092221,0.98181,0.091892
1636,0.041247,0.085972,0.087617,0.029078,0.16063,0.92623,0.083342
1637,0.025461,0.091563,0.11195,0.042891,0.19253,0.79797,0.066569
1638,-0.0008485,0.091892,0.12971,0.046508,0.18661,0.61413,0.053086
1639,-0.030447,0.092221,0.1353,0.040589,0.16095,0.39248,0.042891
1640,-0.050179,0.095181,0.1307,0.029078,0.14616,0.16293,0.031381
1641,-0.056427,0.09255,0.11721,0.010991,0.17082,-0.046232,0.010333
1642,-0.055112,0.076435,0.092221,-0.010715,0.2389,-0.21165,-0.018278
1643,-0.059058,0.050455,0.06065,-0.036366,0.32506,-0.32347,-0.050179
1644,-0.068924,0.017239,0.030394,-0.06432,0.38886,-0.38497,-0.075173
1645,-0.079777,-0.015319,0.0021113,-0.085696,0.39873,-0.4047,-0.084381
1646,-0.086683,-0.040641,-0.022883,-0.092931,0.34512,-0.39286,-0.076159
1647,-0.086354,-0.057414,-0.04097,-0.087341,0.24482,-0.36129,-0.056427
1648,-0.077803,-0.066293,-0.053796,-0.075501,0.12971,-0.32511,-0.032749
1649,-0.061689,-0.063991,-0.060702,-0.064649,0.030723,-0.29091,-0.010057
1650,-0.042286,-0.052481,-0.059387,-0.054125,-0.02354,-0.25769,0.017897
1651,-0.020581,-0.032749,-0.045574,-0.038997,-0.028802,-0.21626,0.054072
1652,0.0021113,-0.011372,-0.021896,-0.014661,0.00079584,-0.16693,0.09551
1653,0.021186,0.0077021,0.0034268,0.012635,0.042233,-0.12154,0.12938
1654,0.033354,0.020528,0.024803,0.036314,0.076435,-0.092931,0.14813
1655,0.038616,0.028092,0.034998,0.048153,0.096825,-0.08471,0.14648
1656,0.035985,0.029078,0.035985,0.042891,0.10538,-0.088656,0.12675
1657,0.02579,0.025132,0.029736,0.023817,0.10768,-0.093589,0.090905
1658,0.013622,0.024474,0.023817,0.0017824,0.10768,-0.10115,0.045522
1659,-0.0028217,0.02875,0.020528,-0.010386,0.094523,-0.12615,-0.0034794
1660,-0.024527,0.035985,0.021843,-0.0067681,0.056046,-0.18074,-0.050179
1661,-0.047548,0.038944,0.026119,0.0037556,-0.0067681,-0.26263,-0.081421
1662,-0.062347,0.032696,0.02875,0.012635,-0.079119,-0.34846,-0.088656
1663,-0.06432,0.017897,0.024474,0.011977,-0.14456,-0.41095,-0.071226
1664,-0.04985,0.0034268,0.0096753,0.002769,-0.1962,-0.44022,-0.027158
1665,-0.021567,-0.0028217,-0.011372,-0.0064392,-0.23106,-0.43627,0.036971
1666,0.0090175,-0.0008485,-0.0265,-0.0077547,-0.24585,-0.40832,0.10176
1667,0.030394,0.0067154,-0.035051,-0.0067681,-0.24783,-0.36523,0.14517
1668,0.039273,0.016581,-0.039984,-0.010715,-0.23994,-0.31459,0.15569
1669,0.039931,0.02283,-0.044588,-0.014332,-0.22514,-0.25802,0.13826
1670,0.041575,0.01987,-0.051823,-0.012688,-0.20508,-0.19817,0.11097
1671,0.047495,0.012306,-0.056098,-0.0047949,-0.17548,-0.14193,0.091892
1672,0.055717,0.0054,-0.057085,0.0093464,-0.14095,-0.1005,0.092879
1673,0.061636,0.0073732,-0.052152,0.027434,-0.11069,-0.080106,0.1057
1674,0.065583,0.015924,-0.040641,0.042891,-0.092274,-0.073857,0.12412
1675,0.067885,0.029736,-0.026829,0.050126,-0.089314,-0.07583,0.13629
1676,0.072489,0.050126,-0.016634,0.046508,-0.10181,-0.079777,0.13826
1677,0.081368,0.071831,-0.010057,0.036314,-0.1222,-0.086683,0.13563
1678,0.091234,0.084657,-0.0041372,0.023488,-0.14259,-0.093918,0.13399
1679,0.1011,0.082684,-0.0024928,0.0083598,-0.14983,-0.1005,0.13793
1680,0.10899,0.069529,-0.0054526,-0.007097,-0.13897,-0.10937,0.15372
1681,0.11228,0.054072,-0.011701,-0.018278,-0.11661,-0.12384,0.17871
1682,0.10373,0.042233,-0.019265,-0.020581,-0.092931,-0.14983,0.20009
1683,0.080053,0.033354,-0.02354,-0.014003,-0.076817,-0.18173,0.20436
1684,0.052099,0.028421,-0.019594,0.0017824,-0.067937,-0.21428,0.18989
1685,0.030394,0.026119,-0.0084125,0.024474,-0.056756,-0.2327,0.16753
1686,0.021843,0.023159,0.0054,0.050126,-0.033078,-0.22842,0.14418
1687,0.026447,0.016581,0.014608,0.0692,0.018555,-0.20014,0.12741
1688,0.033354,0.0073732,0.016253,0.080711,0.11754,-0.15509,0.11491
1689,0.034011,-0.0018351,0.012306,0.081368,0.26619,-0.10313,0.1034
1690,0.025132,-0.0077547,0.0011247,0.0692,0.43819,-0.058729,0.089919
1691,0.013622,-0.0090702,-0.01499,0.04618,0.58519,-0.037353,0.07808
1692,0.012306,-0.0067681,-0.033406,0.014608,0.66281,-0.040641,0.072489
1693,0.023159,-0.0018351,-0.05281,-0.037353,0.65294,-0.060045,0.064596
1694,0.041247,0.0083598,-0.07287,-0.12154,0.56513,-0.076159,0.05177
1695,0.055717,0.022501,-0.090629,-0.22251,0.41287,-0.078132,0.036971
1696,0.059663,0.036971,-0.10115,-0.28071,0.21259,-0.057414,0.02579
1697,0.052757,0.048482,-0.094905,-0.23204,0.0001381,-0.0047949,0.027434
1698,0.042233,0.055388,-0.071555,-0.069911,-0.17548,0.093208,0.044535
1699,0.037958,0.054401,-0.043272,0.14616,-0.27973,0.23692,0.07216
1700,0.037629,0.042891,-0.024856,0.32736,-0.29486,0.40432,0.097812
1701,0.031709,0.023488,-0.022554,0.40826,-0.23369,0.5454,0.11623
1702,0.011977,0.002769,-0.03242,0.37669,-0.1347,0.60295,0.12478
1703,-0.023211,-0.014332,-0.040641,0.27014,-0.040313,0.55198,0.12544
1704,-0.061031,-0.018278,-0.036366,0.1478,0.021514,0.4132,0.11557
1705,-0.091945,-0.0054526,-0.010386,0.059005,0.044206,0.2389,0.1034
1706,-0.11233,0.019541,0.030065,0.027434,0.030394,0.085315,0.089919
1707,-0.11858,0.042891,0.075778,0.048153,-0.016305,-0.017621,0.064267
1708,-0.11497,0.05473,0.11557,0.10044,-0.073199,-0.068266,0.018555
1709,-0.1074,0.047495,0.14089,0.15438,-0.11727,-0.081421,-0.049521
1710,-0.095562,0.027763,0.14747,0.18891,-0.13009,-0.071884,-0.12549
1711,-0.074844,0.0090175,0.13728,0.19417,-0.10674,-0.046561,-0.18666
1712,-0.038997,0.0060577,0.12346,0.17246,-0.060373,-0.0087413,-0.21757
1713,0.011977,0.025132,0.11853,0.13892,-0.014332,0.039273,-0.2156
1714,0.069858,0.058019,0.1205,0.1034,0.014937,0.090905,-0.19455
1715,0.12379,0.092879,0.12248,0.075778,0.019212,0.1353,-0.17416
1716,0.1695,0.12017,0.12313,0.060321,0.0054,0.16589,-0.1666
1717,0.21522,0.1353,0.12248,0.052428,-0.016305,0.17838,-0.17416
1718,0.26553,0.13859,0.12149,0.042233,-0.036695,0.17049,-0.18995
1719,0.31322,0.13695,0.1182,0.023159,-0.049192,0.1432,-0.20179
1720,0.34972,0.13333,0.10965,-0.0061104,-0.057743,0.096825,-0.20606
1721,0.36913,0.12544,0.098469,-0.039326,-0.069582,0.037958,-0.20705
1722,0.37143,0.1159,0.085644,-0.068924,-0.083723,-0.02354,-0.20672
1723,0.36189,0.10373,0.071173,-0.087998,-0.094576,-0.076817,-0.20277
1724,0.33953,0.092879,0.05473,-0.095233,-0.098522,-0.1176,-0.19422
1725,0.30401,0.083999,0.038944,-0.095891,-0.090629,-0.14917,-0.18107
1726,0.25205,0.077422,0.026776,-0.094576,-0.077475,-0.18238,-0.16364
1727,0.18529,0.071831,0.017568,-0.091287,-0.063662,-0.22185,-0.14917
1728,0.10834,0.06361,0.0086887,-0.086683,-0.0584,-0.26,-0.14818
1729,0.03434,0.049797,-0.004466,-0.085039,-0.068266,-0.29058,-0.16101
1730,-0.031104,0.029078,-0.018936,-0.087341,-0.092931,-0.30801,-0.17383
1731,-0.080106,0.0054,-0.033406,-0.091616,-0.12812,-0.30867,-0.17186
1732,-0.10576,-0.019923,-0.04689,-0.091616,-0.16758,-0.2919,-0.14719
1733,-0.11003,-0.038011,-0.056098,-0.083394,-0.20014,-0.25901,-0.10707
1734,-0.10313,-0.045246,-0.060045,-0.068595,-0.21691,-0.21099,-0.057414
1735,-0.091287,-0.039984,-0.0584,-0.046561,-0.20836,-0.14983,-0.0097279
1736,-0.083065,-0.028802,-0.055112,-0.023869,-0.17844,-0.078132,0.032696
1737,-0.082736,-0.020252,-0.049192,-0.0097279,-0.1393,-0.0018351,0.071831
1738,-0.092603,-0.020581,-0.040313,-0.010386,-0.096878,0.07216,0.10439
1739,-0.11036,-0.028144,-0.031433,-0.021567,-0.050836,0.13234,0.12873
1740,-0.13042,-0.040313,-0.025842,-0.028473,0.0014536,0.17477,0.13958
1741,-0.14917,-0.055112,-0.027816,-0.024856,0.063281,0.20667,0.13234
1742,-0.16397,-0.068924,-0.034722,-0.011043,0.1455,0.24087,0.11426
1743,-0.17186,-0.077146,-0.042286,0.0070443,0.24975,0.27935,0.099127
1744,-0.16726,-0.078132,-0.047219,0.023817,0.37472,0.32539,0.089261
1745,-0.15772,-0.07287,-0.044588,0.036314,0.50265,0.37373,0.087617
1746,-0.14785,-0.062676,-0.034064,0.047495,0.60821,0.40925,0.09551
1747,-0.14095,-0.048534,-0.021896,0.063281,0.66412,0.41188,0.10735
1748,-0.13371,-0.030447,-0.013017,0.087288,0.6605,0.3734,0.11426
1749,-0.12549,-0.010386,-0.010057,0.11524,0.60624,0.30533,0.11195
1750,-0.11661,0.0086887,-0.0054526,0.13596,0.52271,0.22443,0.10406
1751,-0.1097,0.024803,0.0060577,0.14122,0.43227,0.15471,0.08959
1752,-0.10477,0.036642,0.030394,0.12807,0.3563,0.11393,0.07216
1753,-0.09918,0.045193,0.06624,0.10636,0.30302,0.10538,0.054401
1754,-0.089314,0.055388,0.1057,0.08959,0.25172,0.11458,0.034011
1755,-0.072213,0.067556,0.13629,0.08367,0.16457,0.11754,0.010333
1756,-0.048534,0.079395,0.15043,0.086959,0.038944,0.10011,-0.018278
1757,-0.016305,0.083342,0.14517,0.097812,-0.079777,0.073147,-0.044917
1758,0.021843,0.074462,0.12905,0.10669,-0.13437,0.055388,-0.056427
1759,0.060979,0.054401,0.1057,0.098469,-0.11332,0.058348,-0.045903
1760,0.088275,0.034011,0.076106,0.058676,-0.072542,0.072489,-0.017621
1761,0.093865,0.01691,0.043549,-0.01203,-0.083065,0.084657,0.0086887
1762,0.077093,0.0014536,0.011648,-0.096549,-0.16989,0.085644,0.015266
1763,0.042891,-0.013017,-0.017621,-0.1689,-0.30406,0.079395,0.0017824
1764,0.002769,-0.023869,-0.041628,-0.20343,-0.41687,0.075449,-0.021567
1765,-0.030118,-0.02946,-0.054454,-0.1906,-0.4514,0.080382,-0.033078
1766,-0.043272,-0.028144,-0.054454,-0.14423,-0.39121,0.10669,-0.027158
1767,-0.039984,-0.020909,-0.039655,-0.087012,-0.26164,0.1626,-0.0057815
1768,-0.020252,-0.0097279,-0.015648,-0.037353,-0.10839,0.24679,0.022172
