,channel_1,channel_2,channel_3,channel_4,channel_5,channel_6,channel_7
0,0.10406,0.054401,0.30401,0.12083,0.089919,0.072489,0.077751
1,0.11195,0.071173,0.42175,0.075778,0.20009,0.12248,0.11294
2,0.11327,0.093208,0.53389,0.058019,0.29382,0.12938,0.14122
3,0.11294,0.11656,0.6115,0.069858,0.34644,0.10143,0.15109
4,0.11195,0.1353,0.62795,0.10011,0.3438,0.061636,0.14747
5,0.11195,0.13958,0.57237,0.12445,0.29316,0.026776,0.13662
6,0.10965,0.12642,0.45398,0.11623,0.20732,0.0037556,0.11985
7,0.098469,0.098798,0.3027,0.064267,0.10406,-0.013017,0.093536
8,0.071831,0.064596,0.15043,-0.021567,-0.0084125,-0.032091,0.058019
9,0.036642,0.027763,0.02283,-0.1176,-0.1199,-0.060045,0.017568
10,0.0044134,-0.0064392,-0.068266,-0.1985,-0.2156,-0.090629,-0.014003
11,-0.01499,-0.031433,-0.12483,-0.2498,-0.27512,-0.11201,-0.024527
12,-0.019594,-0.036695,-0.15048,-0.26,-0.28795,-0.12056,-0.014661
13,-0.01499,-0.025842,-0.15246,-0.22875,-0.25177,-0.11299,-0.00051963
14,-0.0067681,-0.0015062,-0.13766,-0.15936,-0.17449,-0.093589,0.0077021
15,0.0040845,0.025132,-0.11365,-0.065307,-0.082408,-0.062018,0.011648
16,0.019212,0.049797,-0.088985,0.030394,0.0034268,-0.016963,0.024145
17,0.034998,0.071173,-0.070897,0.099456,0.073147,0.039273,0.051441
18,0.049468,0.086959,-0.059058,0.13201,0.13464,0.1011,0.084657
19,0.061636,0.096825,-0.04985,0.13432,0.1922,0.15339,0.11294
20,0.068543,0.10176,-0.04393,0.11689,0.23363,0.18266,0.12412
21,0.066898,0.10011,-0.046232,0.096496,0.25172,0.18102,0.11656
22,0.056703,0.087288,-0.05544,0.088603,0.24942,0.15405,0.088603
23,0.041247,0.062952,-0.067937,0.10011,0.24218,0.12313,0.054072
24,0.02283,0.038616,-0.079777,0.1205,0.23232,0.10998,0.027763
25,0.0001381,0.018555,-0.088656,0.1284,0.20667,0.11787,0.012964
26,-0.027487,-0.00051963,-0.1005,0.097812,0.1478,0.13234,0.00046697
27,-0.06136,-0.023211,-0.11924,0.025461,0.05473,0.13563,-0.018278
28,-0.095233,-0.048534,-0.14752,-0.071884,-0.052152,0.12708,-0.04097
29,-0.12154,-0.071226,-0.17844,-0.15903,-0.1416,0.11327,-0.056756
30,-0.12944,-0.085696,-0.19784,-0.20113,-0.18008,0.10735,-0.057085
31,-0.11497,-0.083394,-0.19455,-0.17942,-0.15443,0.11623,-0.042286
32,-0.085039,-0.062676,-0.16561,-0.10115,-0.074186,0.13464,-0.022883
33,-0.047219,-0.028144,-0.1199,0.0044134,0.027434,0.16161,-0.0074258
34,-0.015319,0.0067154,-0.066951,0.098141,0.10965,0.19318,0.00079584
35,0.0060577,0.033354,-0.020581,0.15306,0.15701,0.22114,0.0063866
36,0.019541,0.047166,0.0047422,0.15635,0.17016,0.24482,0.020199
37,0.029078,0.049139,0.010333,0.11228,0.16819,0.26225,0.039602
38,0.039602,0.040918,0.0040845,0.042233,0.16359,0.26619,0.056046
39,0.050784,0.029407,-0.0047949,-0.032091,0.1603,0.24778,0.071173
40,0.055717,0.017897,-0.010715,-0.097207,0.14221,0.20469,0.082355
41,0.050455,0.010004,-0.010057,-0.14785,0.097154,0.14221,0.087288
42,0.039602,0.0054,-0.0061104,-0.17548,0.031052,0.07216,0.082355
43,0.029078,0.0050711,-0.0008485,-0.1735,-0.030118,0.0070443,0.066569
44,0.023159,0.0080309,0.0044134,-0.14029,-0.069911,-0.039326,0.041904
45,0.021514,0.011648,0.0090175,-0.087998,-0.084052,-0.062676,0.015595
46,0.024145,0.012964,0.0093464,-0.039655,-0.081092,-0.062347,-0.0077547
47,0.026447,0.012964,0.002769,-0.011701,-0.073857,-0.045574,-0.018936
48,0.02579,0.013951,-0.0067681,0.00079584,-0.070568,-0.024198,-0.014661
49,0.026776,0.014608,-0.013017,0.0096753,-0.070897,-0.0074258,-0.0015062
50,0.032696,0.016581,-0.012359,0.032367,-0.060373,0.0073732,0.01132
51,0.044864,0.01987,-0.010386,0.075449,-0.02354,0.027763,0.024145
52,0.058348,0.024803,-0.012688,0.12708,0.036314,0.052757,0.0373
53,0.067885,0.034998,-0.02354,0.15503,0.087288,0.071831,0.049797
54,0.070187,0.048153,-0.046232,0.12807,0.097812,0.072818,0.057361
55,0.06624,0.064267,-0.074515,0.048482,0.059334,0.048482,0.05769
56,0.054401,0.083013,-0.097536,-0.050507,-0.0074258,0.00079584,0.048153
57,0.039602,0.10044,-0.098851,-0.12483,-0.064649,-0.053467,0.030723
58,0.028092,0.11689,-0.070897,-0.14818,-0.086025,-0.089314,0.012635
59,0.021843,0.13201,-0.022883,-0.11529,-0.068266,-0.099509,0.002769
60,0.01691,0.14484,0.024803,-0.043272,-0.027487,-0.089314,0.0054
61,0.011648,0.14944,0.05769,0.03434,0.013951,-0.073199,0.011977
62,0.0060577,0.13991,0.072489,0.085644,0.038287,-0.063333,0.012964
63,-0.0018351,0.11952,0.071173,0.09551,0.037629,-0.06136,0.0070443
64,-0.010386,0.094194,0.058676,0.068214,0.011648,-0.062018,0.0017824
65,-0.017621,0.070845,0.044206,0.023817,-0.028802,-0.0584,0.0037556
66,-0.019594,0.052099,0.033354,-0.020909,-0.069911,-0.051823,0.011977
67,-0.014003,0.041247,0.026447,-0.052481,-0.10609,-0.048534,0.018226
68,-0.0024928,0.03434,0.024145,-0.064978,-0.13568,-0.05544,0.018226
69,0.010991,0.028092,0.021843,-0.062018,-0.16758,-0.070897,0.011648
70,0.017897,0.018555,0.020528,-0.053467,-0.20508,-0.090958,-0.0008485
71,0.018226,0.0063866,0.024474,-0.043601,-0.24553,-0.11793,-0.018936
72,0.01132,-0.0057815,0.033025,-0.03538,-0.26953,-0.14917,-0.043272
73,0.0011247,-0.016634,0.039931,-0.022554,-0.24717,-0.17022,-0.07287
74,-0.0067681,-0.023211,0.04322,0.010662,-0.16002,-0.16068,-0.092931
75,-0.011372,-0.026171,0.043549,0.072818,-0.015976,-0.11661,-0.092274
76,-0.011043,-0.025842,0.046837,0.15668,0.1478,-0.051165,-0.065964
77,-0.0031506,-0.022554,0.055059,0.23922,0.28395,0.016581,-0.022554
78,0.0077021,-0.016634,0.06624,0.29349,0.35268,0.07216,0.022501
79,0.017239,-0.010057,0.077093,0.30434,0.34019,0.10801,0.046508
80,0.020199,-0.0080836,0.082026,0.27178,0.26126,0.1159,0.040918
81,0.01987,-0.013674,0.078737,0.20502,0.13991,0.09551,0.013951
82,0.014608,-0.027816,0.067227,0.12511,0.0014536,0.055388,-0.019265
83,0.0054,-0.047219,0.053086,0.052757,-0.12286,0.0093464,-0.04985
84,-0.0047949,-0.064649,0.041247,0.0030979,-0.20968,-0.023211,-0.069582
85,-0.015648,-0.074844,0.036314,-0.01795,-0.24914,-0.032091,-0.067937
86,-0.023869,-0.080434,0.036971,-0.019265,-0.24454,-0.017621,-0.041299
87,-0.029789,-0.084052,0.042891,-0.0074258,-0.1906,0.018884,0.0057288
88,-0.027158,-0.088656,0.053743,0.031709,-0.068924,0.07216,0.061307
89,-0.013017,-0.085039,0.070516,0.10439,0.12182,0.13234,0.10373
90,0.010991,-0.065307,0.086301,0.19154,0.33788,0.18036,0.11557
91,0.034998,-0.038011,0.091234,0.25468,0.49903,0.18858,0.097154
92,0.045193,-0.016963,0.07512,0.24218,0.53422,0.14879,0.06065
93,0.039602,-0.007097,0.0373,0.13136,0.42109,0.071173,0.024145
94,0.027434,-0.0018351,-0.010715,-0.04689,0.20831,-0.017621,-0.0031506
95,0.015924,0.0050711,-0.049521,-0.21659,-0.011043,-0.081092,-0.016634
96,0.0093464,0.01691,-0.065635,-0.30439,-0.15607,-0.099509,-0.014003
97,0.010333,0.03434,-0.056098,-0.28663,-0.19883,-0.073528,-0.0011774
98,0.013622,0.053086,-0.030775,-0.18863,-0.16002,-0.031433,0.014608
99,0.016253,0.0692,-0.0018351,-0.072213,-0.078132,0.002769,0.026447
100,0.017239,0.07808,0.020528,-0.00019077,0.013293,0.017239,0.032696
101,0.015266,0.082684,0.033354,0.0017824,0.090248,0.015266,0.032367
102,0.017568,0.081697,0.036971,-0.042615,0.13497,0.00079584,0.027763
103,0.032696,0.078409,0.038287,-0.086683,0.14418,-0.024856,0.016581
104,0.056046,0.082026,0.041904,-0.095233,0.12017,-0.063004,-0.0031506
105,0.07808,0.094852,0.050126,-0.061689,0.07216,-0.10674,-0.020252
106,0.090577,0.11524,0.061965,0.00079584,0.013951,-0.14884,-0.027816
107,0.092879,0.13563,0.072489,0.068214,-0.037024,-0.17613,-0.027816
108,0.085315,0.14648,0.077751,0.11228,-0.06136,-0.16693,-0.01499
109,0.071173,0.14221,0.075449,0.11721,-0.041299,-0.11233,0.013622
110,0.052757,0.12478,0.068543,0.085972,0.020857,-0.028802,0.058348
111,0.030394,0.099456,0.057032,0.0373,0.10538,0.050784,0.11031
112,0.0070443,0.071173,0.045522,-0.0080836,0.18036,0.099456,0.15306
113,-0.0097279,0.047824,0.039602,-0.031104,0.21719,0.10801,0.17148
114,-0.015976,0.033354,0.033354,-0.030118,0.20469,0.081039,0.1626
115,-0.020252,0.026447,0.025461,-0.016305,0.1501,0.030065,0.13136
116,-0.029131,0.027105,0.015924,-0.004466,0.074462,-0.028144,0.084657
117,-0.039326,0.031052,0.0060577,-0.0031506,-0.0008485,-0.076159,0.034011
118,-0.045903,0.035985,-0.0024928,-0.012359,-0.059058,-0.10444,-0.0093991
119,-0.04689,0.041575,-0.0034794,-0.022225,-0.09326,-0.11003,-0.035051
120,-0.042286,0.045522,0.0063866,-0.021238,-0.10477,-0.098851,-0.042615
121,-0.030118,0.044206,0.024803,-0.004466,-0.099509,-0.084052,-0.038997
122,-0.014661,0.040918,0.049139,0.023488,-0.077146,-0.070568,-0.035051
123,-0.00019077,0.041247,0.074462,0.053086,-0.04393,-0.052152,-0.03242
124,0.0086887,0.05177,0.097812,0.076764,-0.0008485,-0.022554,-0.024527
125,0.012635,0.07216,0.11195,0.087288,0.036314,0.013622,-0.0087413
126,0.014937,0.096825,0.12083,0.082684,0.050455,0.047824,0.01132
127,0.021186,0.1182,0.12577,0.06065,0.038616,0.068214,0.035985
128,0.031381,0.12807,0.12675,0.030723,0.0073732,0.070845,0.065912
129,0.042233,0.12281,0.11952,0.0017824,-0.02946,0.06065,0.093865
130,0.047495,0.10834,0.10866,-0.020252,-0.057743,0.043549,0.1182
131,0.044206,0.094194,0.099456,-0.031762,-0.072213,0.025132,0.13267
132,0.03434,0.088275,0.098798,-0.028473,-0.073199,0.0086887,0.1353
133,0.020857,0.090905,0.10899,-0.013017,-0.066622,-0.0090702,0.12675
134,0.0057288,0.095839,0.12938,0.0073732,-0.064978,-0.02946,0.10899
135,-0.0061104,0.094852,0.15602,0.032038,-0.074515,-0.047877,0.086301
136,-0.011701,0.086959,0.1774,0.059663,-0.091945,-0.061689,0.063938
137,-0.011043,0.071173,0.18792,0.088932,-0.11069,-0.06728,0.046508
138,-0.0097279,0.046508,0.18365,0.11162,-0.12483,-0.065307,0.033683
139,-0.011043,0.012635,0.16326,0.1159,-0.12549,-0.055769,0.020528
140,-0.014003,-0.024527,0.1307,0.10406,-0.1028,-0.032091,0.011977
141,-0.011701,-0.056098,0.093208,0.085644,-0.053138,0.014608,0.015266
142,-0.0018351,-0.070568,0.058019,0.071502,0.012306,0.076435,0.030065
143,0.010004,-0.068595,0.025132,0.067227,0.070516,0.13333,0.05473
144,0.017239,-0.055112,-0.0047949,0.070516,0.10274,0.15372,0.079724
145,0.015924,-0.038011,-0.034393,0.066898,0.10373,0.12675,0.093865
146,0.0093464,-0.027487,-0.060373,0.045193,0.081039,0.071502,0.090248
147,0.0024402,-0.026829,-0.076488,0.014937,0.049797,0.017239,0.065912
148,0.00046697,-0.040313,-0.084381,0.00046697,0.025461,-0.018936,0.033025
149,0.0057288,-0.06432,-0.082408,0.032038,0.016581,-0.037024,0.0067154
150,0.015924,-0.086354,-0.071226,0.12412,0.025132,-0.048863,-0.0061104
151,0.028421,-0.097864,-0.051494,0.2583,0.050126,-0.059387,-0.0084125
152,0.043549,-0.092931,-0.028802,0.39215,0.089919,-0.06136,-0.0034794
153,0.060979,-0.076817,-0.011043,0.47371,0.13366,-0.04097,0.0090175
154,0.079724,-0.058071,-0.0061104,0.46549,0.16161,0.0057288,0.027434
155,0.096167,-0.038668,-0.011701,0.36452,0.15898,0.063281,0.047495
156,0.11426,-0.017292,-0.020909,0.20272,0.12313,0.1057,0.058348
157,0.13037,0.00079584,-0.026829,0.034011,0.060321,0.11261,0.062623
158,0.13793,0.012306,-0.029789,-0.093918,-0.014332,0.083999,0.060979
159,0.13201,0.012306,-0.04097,-0.1564,-0.07879,0.03434,0.052428
160,0.10965,-0.00051963,-0.071555,-0.16134,-0.11628,-0.017292,0.033683
161,0.076106,-0.023211,-0.11825,-0.1347,-0.11102,-0.051494,0.0017824
162,0.040918,-0.048534,-0.17383,-0.099838,-0.058729,-0.052481,-0.029789
163,0.01132,-0.070897,-0.21922,-0.067937,0.028092,-0.024198,-0.050507
164,-0.0067681,-0.083723,-0.23665,-0.04097,0.12379,0.017897,-0.054125
165,-0.015319,-0.086025,-0.21724,-0.020909,0.20075,0.063281,-0.040641
166,-0.017621,-0.073857,-0.17153,-0.012688,0.23429,0.10735,-0.019265
167,-0.016963,-0.048863,-0.11464,-0.022554,0.2093,0.14254,-0.0057815
168,-0.013674,-0.016634,-0.06136,-0.049521,0.13037,0.16654,-0.0057815
169,-0.0093991,0.013293,-0.021238,-0.083394,0.024145,0.17773,-0.010715
170,-0.0047949,0.037958,0.0047422,-0.10872,-0.076488,0.18693,-0.014332
171,0.002769,0.054072,0.021186,-0.11365,-0.14522,0.20108,-0.016305
172,0.010662,0.063938,0.038616,-0.094576,-0.16857,0.2264,-0.01203
173,0.019541,0.067227,0.062294,-0.060045,-0.14555,0.26553,0.0044134
174,0.023159,0.065912,0.087617,-0.022225,-0.090629,0.31256,0.02875
175,0.024803,0.061965,0.10669,0.0083598,-0.02354,0.35729,0.055717
176,0.025461,0.058676,0.11393,0.030723,0.036642,0.3836,0.07512
177,0.028421,0.059334,0.1113,0.049139,0.07512,0.38656,0.085315
178,0.031381,0.062952,0.10406,0.062623,0.086959,0.3665,0.086959
179,0.033683,0.06624,0.096496,0.073147,0.071831,0.32473,0.080382
180,0.031052,0.068543,0.089919,0.078409,0.033025,0.26389,0.068543
181,0.024803,0.072818,0.078409,0.068871,-0.012688,0.19812,0.052099
182,0.015595,0.079724,0.05769,0.042562,-0.047548,0.14122,0.032696
183,0.0096753,0.086959,0.027763,0.0054,-0.051823,0.10834,0.017568
184,0.0093464,0.093865,0.0011247,-0.022883,-0.013017,0.10998,0.016253
185,0.013293,0.10242,-0.013017,-0.019265,0.060321,0.14024,0.036642
186,0.018884,0.11228,-0.011701,0.017897,0.13563,0.18134,0.069529
187,0.026776,0.11524,-0.0028217,0.068871,0.17279,0.20436,0.10077
188,0.035327,0.1113,0.0050711,0.10669,0.15471,0.1922,0.12215
189,0.041575,0.10274,0.0047422,0.12017,0.096825,0.14056,0.13201
190,0.041575,0.089261,-0.00051963,0.11426,0.02579,0.059992,0.13037
191,0.03434,0.074791,-0.011701,0.096496,-0.02946,-0.022225,0.12083
192,0.02579,0.058676,-0.02354,0.077093,-0.055769,-0.085367,0.10176
193,0.020857,0.041904,-0.030775,0.064596,-0.0584,-0.11562,0.077751
194,0.018555,0.029407,-0.037682,0.065912,-0.049521,-0.10806,0.056374
195,0.018226,0.026119,-0.044588,0.08367,-0.036366,-0.07024,0.042891
196,0.019212,0.032367,-0.048863,0.10801,-0.022554,-0.016634,0.038616
197,0.018555,0.044864,-0.051165,0.11754,-0.011701,0.035656,0.034669
198,0.015595,0.054072,-0.056756,0.088275,-0.0031506,0.071502,0.021843
199,0.014279,0.056046,-0.068595,0.010662,-0.0018351,0.076435,0.0017824
200,0.017568,0.049468,-0.077803,-0.090958,-0.0090702,0.047495,-0.018936
201,0.02283,0.039931,-0.076817,-0.18074,-0.0265,-0.0054526,-0.031104
202,0.028092,0.034011,-0.065964,-0.23007,-0.056427,-0.063991,-0.028473
203,0.031381,0.033683,-0.045574,-0.22941,-0.087341,-0.11464,-0.01203
204,0.03434,0.036642,-0.015648,-0.18271,-0.091945,-0.14423,0.0077021
205,0.038944,0.040918,0.020528,-0.10214,-0.045903,-0.14062,0.024474
206,0.044864,0.043549,0.059005,-0.0015062,0.050784,-0.1005,0.038616
207,0.051441,0.045522,0.093208,0.093208,0.15997,-0.041957,0.054072
208,0.054401,0.047495,0.11853,0.16523,0.2435,0.0063866,0.066898
209,0.05473,0.050126,0.12971,0.20568,0.28,0.025132,0.073147
210,0.056046,0.053086,0.13004,0.21456,0.27211,0.012635,0.073147
211,0.057361,0.054401,0.12149,0.20042,0.23166,-0.021567,0.065583
212,0.058019,0.053743,0.10538,0.16918,0.17082,-0.0584,0.05473
213,0.057032,0.047824,0.077751,0.13432,0.1011,-0.083394,0.047166
214,0.055059,0.034669,0.039273,0.10636,0.032038,-0.087669,0.043877
215,0.049139,0.01132,-0.0047949,0.084657,-0.038339,-0.086683,0.047166
216,0.032367,-0.019265,-0.049521,0.059005,-0.11365,-0.09918,0.047824
217,0.0001381,-0.052481,-0.088985,0.021186,-0.18896,-0.13009,0.036642
218,-0.039326,-0.078132,-0.12187,-0.021238,-0.23369,-0.17054,0.012306
219,-0.070897,-0.086025,-0.14062,-0.046561,-0.20343,-0.19652,-0.010715
220,-0.077475,-0.071884,-0.14226,-0.040313,-0.077475,-0.19356,-0.02354
221,-0.057743,-0.04097,-0.12417,0.00079584,0.11656,-0.16397,-0.021238
222,-0.021896,-0.0064392,-0.097536,0.065912,0.3096,-0.12615,-0.002164
223,0.0083598,0.02283,-0.072542,0.13136,0.42898,-0.099509,0.021514
224,0.022501,0.040589,-0.059716,0.17542,0.43457,-0.099509,0.033025
225,0.018555,0.046508,-0.061689,0.1843,0.32901,-0.1268,0.027763
226,0.0083598,0.043549,-0.069253,0.15273,0.15668,-0.1689,0.0044134
227,0.0017824,0.037958,-0.074186,0.093536,-0.021567,-0.20869,-0.030775
228,0.0080309,0.038944,-0.066293,0.032696,-0.15344,-0.23007,-0.062347
229,0.022501,0.045522,-0.041957,-0.0080836,-0.21724,-0.23138,-0.076159
230,0.034669,0.053086,0.002769,-0.021567,-0.22777,-0.22119,-0.069911
231,0.037958,0.059663,0.067885,-0.01795,-0.21165,-0.20573,-0.051165
232,0.034998,0.063281,0.14517,-0.0097279,-0.19455,-0.19028,-0.031104
233,0.030394,0.067556,0.23396,0.0021113,-0.18929,-0.17778,-0.015648
234,0.031381,0.07808,0.33821,0.020199,-0.1962,-0.16561,-0.0097279
235,0.0373,0.09551,0.44773,0.039273,-0.20968,-0.15246,-0.010057
236,0.044864,0.11261,0.54047,0.052757,-0.21231,-0.13634,-0.011701
237,0.048482,0.12478,0.59637,0.060321,-0.18929,-0.11694,-0.0093991
238,0.044864,0.13037,0.60229,0.064267,-0.12713,-0.094576,-0.0077547
239,0.035656,0.12774,0.55362,0.064596,-0.028473,-0.065964,-0.0074258
240,0.021186,0.11426,0.45496,0.058348,0.086301,-0.033735,-0.0077547
241,0.0093464,0.091892,0.31618,0.050784,0.18924,0.0011247,-0.01203
242,0.0050711,0.063938,0.15964,0.041247,0.256,0.034998,-0.020909
243,0.0050711,0.030394,0.012306,0.032367,0.2777,0.068543,-0.033078
244,0.0083598,-0.0084125,-0.10707,0.023817,0.26093,0.11064,-0.039655
245,0.013622,-0.045574,-0.18436,0.018555,0.22311,0.16063,-0.030447
246,0.023159,-0.072542,-0.21823,0.017897,0.1797,0.20765,-0.0031506
247,0.029078,-0.088985,-0.22053,0.023817,0.13464,0.24745,0.031052
248,0.026447,-0.098522,-0.20376,0.030065,0.086959,0.27474,0.061307
249,0.015595,-0.10411,-0.18238,0.028092,0.033354,0.27803,0.081697
250,0.00079584,-0.1074,-0.16232,0.01691,-0.033078,0.25271,0.081697
251,-0.011372,-0.10674,-0.14358,0.0047422,-0.10872,0.20404,0.062952
252,-0.016963,-0.1005,-0.12417,0.0040845,-0.18074,0.1478,0.038944
253,-0.014003,-0.088327,-0.1028,0.014279,-0.23138,0.10044,0.026119
254,-0.0064392,-0.074844,-0.083065,0.025132,-0.24454,0.068543,0.031709
255,0.00079584,-0.063662,-0.065964,0.027434,-0.22283,0.043877,0.043877
256,0.0030979,-0.051494,-0.054783,0.013622,-0.17975,0.01691,0.04881
257,-0.0024928,-0.038668,-0.051494,-0.0097279,-0.12384,-0.011372,0.041904
258,-0.013674,-0.025514,-0.053467,-0.036366,-0.058729,-0.036366,0.027434
259,-0.024856,-0.016305,-0.056427,-0.053796,-0.0008485,-0.05544,0.012964
260,-0.032091,-0.0097279,-0.052481,-0.060373,0.030723,-0.065635,0.0034268
261,-0.031433,0.0040845,-0.033406,-0.058071,0.021514,-0.06728,0.0001381
262,-0.025185,0.026776,0.01691,-0.048205,-0.02354,-0.062018,0.0054
263,-0.013345,0.060979,0.10998,-0.025842,-0.082736,-0.053467,0.013951
264,0.0070443,0.10406,0.23232,0.016581,-0.12713,-0.042944,0.023159
265,0.029407,0.14846,0.34874,0.07512,-0.13503,-0.029789,0.034998
266,0.04322,0.18003,0.42043,0.12708,-0.094576,-0.010057,0.047824
267,0.050126,0.18924,0.43391,0.14287,-0.007097,0.018884,0.058019
268,0.052757,0.17707,0.39938,0.10603,0.10998,0.058676,0.065583
269,0.056374,0.15175,0.34907,0.02579,0.22114,0.10011,0.076764
270,0.06065,0.12412,0.30631,-0.066951,0.28691,0.12708,0.092221
271,0.06361,0.10209,0.27474,-0.13272,0.28625,0.12675,0.10472
272,0.058348,0.08663,0.24514,-0.15147,0.23331,0.1034,0.10307
273,0.043549,0.073804,0.20206,-0.1222,0.16687,0.071831,0.091892
274,0.023817,0.061965,0.14056,-0.067937,0.11228,0.044206,0.07808
275,0.012306,0.051441,0.063281,-0.016963,0.067227,0.026119,0.070516
276,0.015595,0.042562,-0.020909,0.0073732,0.019541,0.015924,0.073476
277,0.027105,0.032367,-0.099838,0.0014536,-0.034722,0.010004,0.081368
278,0.036642,0.020528,-0.16199,-0.020252,-0.08175,0.0080309,0.084986
279,0.039931,0.0083598,-0.20113,-0.038339,-0.10937,0.012635,0.078737
280,0.034998,-0.0024928,-0.22316,-0.049192,-0.10937,0.021186,0.068543
281,0.025132,-0.013674,-0.23566,-0.054783,-0.077146,0.038616,0.059992
282,0.017239,-0.026171,-0.24026,-0.058729,-0.022554,0.065254,0.05473
283,0.0093464,-0.036037,-0.23961,-0.059058,0.041247,0.09551,0.049797
284,0.0060577,-0.043601,-0.2373,-0.058071,0.097812,0.1205,0.04322
285,0.0077021,-0.04689,-0.23369,-0.0584,0.13497,0.12807,0.037629
286,0.01132,-0.045903,-0.22349,-0.059058,0.14813,0.11524,0.034011
287,0.012306,-0.041957,-0.20803,-0.059058,0.14024,0.091563,0.033683
288,0.012635,-0.037353,-0.18929,-0.054454,0.11524,0.06624,0.030723
289,0.01132,-0.033406,-0.17153,-0.043601,0.080053,0.037629,0.017897
290,0.01132,-0.030775,-0.1587,-0.031104,0.036971,0.010333,-0.0011774
291,0.013293,-0.030118,-0.1495,-0.022554,-0.0051238,-0.011701,-0.013017
292,0.014279,-0.028802,-0.14127,-0.018278,-0.031433,-0.020581,-0.012688
293,0.010991,-0.027487,-0.13174,-0.016963,-0.033735,-0.0093991,-0.0074258
294,0.0001381,-0.024527,-0.1199,-0.016963,-0.015976,0.020528,-0.0011774
295,-0.013017,-0.021238,-0.10576,-0.013017,0.015266,0.067227,0.0083598
296,-0.023211,-0.018607,-0.087012,-0.0031506,0.051113,0.12182,0.024145
297,-0.026829,-0.014003,-0.063333,0.011977,0.082684,0.17279,0.04322
298,-0.025514,-0.0041372,-0.035051,0.033683,0.10307,0.207,0.056046
299,-0.021567,0.0093464,-0.011043,0.059992,0.10406,0.2139,0.060979
300,-0.012359,0.024474,0.0014536,0.095839,0.085644,0.18661,0.056703
301,0.0030979,0.042562,0.0044134,0.14024,0.06624,0.1307,0.049468
302,0.020528,0.059334,0.0054,0.19253,0.064267,0.06361,0.048482
303,0.037958,0.072489,0.0057288,0.23988,0.083999,0.0070443,0.056046
304,0.05177,0.079066,0.0034268,0.25961,0.10735,-0.031104,0.066569
305,0.059334,0.078409,-0.0038083,0.23035,0.10505,-0.053796,0.072489
306,0.06065,0.068543,-0.017292,0.15668,0.068214,-0.070897,0.0692
307,0.05473,0.056046,-0.033078,0.068214,0.010991,-0.091616,0.054401
308,0.044864,0.04618,-0.041957,-0.0067681,-0.047877,-0.11793,0.029078
309,0.034998,0.039931,-0.041299,-0.051823,-0.091616,-0.14029,0.0044134
310,0.029078,0.035985,-0.028802,-0.059058,-0.10839,-0.14917,-0.010057
311,0.026776,0.033025,-0.011043,-0.034722,-0.096549,-0.13042,-0.0038083
312,0.025132,0.031709,0.0057288,0.0063866,-0.059716,-0.080434,0.020528
313,0.019541,0.026119,0.010004,0.049139,-0.0093991,-0.01203,0.053743
314,0.0077021,0.021186,0.0011247,0.086301,0.044864,0.057032,0.080711
315,-0.007097,0.020199,-0.016634,0.11458,0.091563,0.11097,0.085315
316,-0.018936,0.026119,-0.029789,0.12774,0.12313,0.14155,0.057032
317,-0.020581,0.034011,-0.030447,0.12478,0.1376,0.1524,0.0021113
318,-0.011701,0.044206,-0.020581,0.10965,0.12971,0.15339,-0.063004
319,0.0044134,0.051441,-0.0061104,0.088932,0.094194,0.14681,-0.12056
320,0.015924,0.05473,0.0054,0.064267,0.035327,0.13103,-0.15081
321,0.015266,0.052428,0.010662,0.041247,-0.031762,0.10603,-0.14884
322,0.0093464,0.047495,0.010333,0.021514,-0.091616,0.079724,-0.11595
323,0.0054,0.043877,0.0083598,0.012306,-0.12121,0.061965,-0.068266
324,0.0090175,0.040589,0.0080309,0.016253,-0.10148,0.059992,-0.021567
325,0.02283,0.038287,0.013951,0.036971,-0.024856,0.072818,0.011977
326,0.040918,0.037958,0.024803,0.066569,0.082684,0.088932,0.028421
327,0.058019,0.03434,0.030723,0.087946,0.17378,0.092221,0.031381
328,0.068543,0.026776,0.024803,0.084328,0.20239,0.074462,0.021514
329,0.066898,0.015924,0.011648,0.050455,0.15372,0.036314,0.0080309
330,0.051113,0.0057288,-0.0024928,-0.0031506,0.048482,-0.010386,-0.0047949
331,0.02579,-0.0015062,-0.0077547,-0.057085,-0.068266,-0.050179,-0.014332
332,-0.0008485,-0.007097,0.0001381,-0.091945,-0.1587,-0.072213,-0.016963
333,-0.020909,-0.012688,0.015266,-0.10115,-0.20738,-0.076817,-0.011043
334,-0.027487,-0.019594,0.029736,-0.087669,-0.21231,-0.070568,-0.0028217
335,-0.02354,-0.025185,0.036971,-0.057414,-0.18074,-0.06136,0.0040845
336,-0.015976,-0.029789,0.032038,-0.017292,-0.12384,-0.050836,0.010004
337,-0.0067681,-0.030118,0.018226,0.023817,-0.053138,-0.036366,0.019541
338,0.0044134,-0.024198,0.0001381,0.059005,0.0080309,-0.018607,0.030394
339,0.017568,-0.014003,-0.020909,0.079724,0.043877,0.0014536,0.041904
340,0.023817,-0.0057815,-0.041628,0.080382,0.053743,0.025132,0.049139
341,0.024803,-0.0038083,-0.059058,0.06624,0.047824,0.053415,0.05177
342,0.02283,-0.0067681,-0.062676,0.049139,0.041247,0.079724,0.056703
343,0.021843,-0.011043,-0.04689,0.044864,0.04618,0.1011,0.057361
344,0.023817,-0.010715,-0.0084125,0.05473,0.055717,0.11195,0.045522
345,0.02579,-0.0054526,0.045851,0.072818,0.05769,0.11031,0.024803
346,0.018555,0.0034268,0.097483,0.08663,0.042233,0.095839,0.0073732
347,0.0050711,0.014279,0.12971,0.090248,0.020528,0.072818,0.00079584
348,-0.0077547,0.026119,0.13728,0.084657,0.013951,0.052099,0.0014536
349,-0.01499,0.036314,0.12609,0.074133,0.036642,0.045193,0.0077021
350,-0.011372,0.044206,0.10274,0.063938,0.082684,0.051113,0.020199
351,0.0011247,0.050126,0.081368,0.055717,0.1284,0.057032,0.037958
352,0.016581,0.05473,0.068871,0.042562,0.1501,0.054072,0.053743
353,0.028421,0.055059,0.062294,0.022501,0.1353,0.042233,0.05769
354,0.032367,0.051441,0.059334,0.002769,0.090248,0.024803,0.050784
355,0.030394,0.041575,0.06065,-0.0054526,0.03434,0.0044134,0.042233
356,0.026776,0.02875,0.067885,0.0050711,-0.010386,-0.013345,0.04026
357,0.02579,0.018226,0.080053,0.032367,-0.037024,-0.027816,0.044206
358,0.030394,0.01691,0.095839,0.065583,-0.054125,-0.041628,0.047495
359,0.040589,0.028092,0.11458,0.094523,-0.069253,-0.057414,0.048153
360,0.05473,0.047166,0.13497,0.11064,-0.082736,-0.073528,0.041575
361,0.068871,0.061965,0.15372,0.10965,-0.095891,-0.086683,0.030723
362,0.078737,0.065912,0.1672,0.091234,-0.10609,-0.095233,0.02283
363,0.083342,0.061965,0.17477,0.064267,-0.11135,-0.098193,0.024474
364,0.081697,0.053415,0.17838,0.042233,-0.10576,-0.094905,0.033354
365,0.077751,0.04881,0.1797,0.038616,-0.080763,-0.087012,0.040589
366,0.074462,0.050784,0.18134,0.055717,-0.038668,-0.076488,0.046837
367,0.074791,0.058348,0.18102,0.085644,-0.00019077,-0.069582,0.050126
368,0.077093,0.06624,0.17575,0.10834,0.0070443,-0.07024,0.045851
369,0.077751,0.068871,0.16128,0.10636,-0.031104,-0.079777,0.032696
370,0.075449,0.064267,0.13859,0.079066,-0.099509,-0.087341,0.014937
371,0.071173,0.053086,0.11426,0.032696,-0.16002,-0.076817,-0.00051963
372,0.068871,0.035656,0.088932,-0.020909,-0.17811,-0.039326,-0.010057
373,0.061307,0.013622,0.066569,-0.064978,-0.1393,0.017897,-0.010386
374,0.047824,-0.0061104,0.049139,-0.075173,-0.047877,0.080711,0.0011247
375,0.030723,-0.021567,0.038944,-0.044588,0.070187,0.13432,0.018884
376,0.014608,-0.028144,0.03434,0.011648,0.17181,0.16852,0.035985
377,0.0014536,-0.02354,0.02283,0.064596,0.22278,0.17937,0.044206
378,-0.012359,-0.0087413,-0.0041372,0.093208,0.21423,0.16326,0.038287
379,-0.025842,0.01132,-0.053138,0.086301,0.14912,0.12478,0.013951
380,-0.036037,0.034998,-0.11858,0.05473,0.048482,0.073804,-0.01499
381,-0.036037,0.058676,-0.18633,0.0090175,-0.056098,0.02283,-0.035051
382,-0.023211,0.082684,-0.24388,-0.034064,-0.1347,-0.018278,-0.035708
383,-0.00019077,0.1034,-0.28499,-0.062676,-0.15903,-0.044917,-0.023211
384,0.025461,0.12116,-0.30406,-0.068595,-0.1268,-0.053796,-0.0054526
385,0.043549,0.13399,-0.30045,-0.05544,-0.059058,-0.044588,0.013293
386,0.051113,0.14254,-0.27841,-0.030447,0.0080309,-0.021896,0.027763
387,0.049468,0.14583,-0.24289,-0.007097,0.055388,0.010004,0.042233
388,0.04322,0.13991,-0.20935,0.0063866,0.081697,0.047495,0.06065
389,0.036314,0.12215,-0.18633,0.0017824,0.10011,0.084986,0.07512
390,0.032038,0.092221,-0.17416,-0.027158,0.11294,0.11031,0.074791
391,0.032038,0.056046,-0.16199,-0.072542,0.11721,0.11031,0.061636
392,0.034669,0.019212,-0.13832,-0.11793,0.10801,0.080382,0.048153
393,0.039931,-0.0097279,-0.09622,-0.1393,0.091892,0.027763,0.042562
394,0.045522,-0.027158,-0.03538,-0.12779,0.079066,-0.025514,0.041247
395,0.048482,-0.033406,0.032367,-0.090958,0.071502,-0.063004,0.03434
396,0.044864,-0.033735,0.096825,-0.046561,0.063281,-0.08175,0.023817
397,0.038944,-0.034064,0.15734,-0.0064392,0.045522,-0.088656,0.012635
398,0.034011,-0.036037,0.2162,0.023817,0.015266,-0.09326,0.0017824
399,0.030394,-0.038668,0.27902,0.049797,-0.020581,-0.09918,-0.0087413
400,0.028421,-0.042286,0.34183,0.07808,-0.053467,-0.10313,-0.016305
401,0.028421,-0.052152,0.39544,0.10373,-0.082408,-0.10641,-0.016305
402,0.027105,-0.072213,0.42701,0.12577,-0.10181,-0.10181,-0.002164
403,0.021843,-0.099838,0.42405,0.1501,-0.09918,-0.076159,0.024803
404,0.015595,-0.1199,0.39116,0.1843,-0.066293,-0.023211,0.056703
405,0.010333,-0.13075,0.34117,0.22443,-0.0093991,0.050784,0.087288
406,0.0060577,-0.13634,0.28329,0.24547,0.050455,0.12412,0.11162
407,0.0001381,-0.13799,0.22443,0.21456,0.086959,0.16753,0.11985
408,-0.0084125,-0.13305,0.16885,0.12741,0.08663,0.16852,0.10538
409,-0.021238,-0.12154,0.11853,0.017239,0.056374,0.13169,0.077751
410,-0.032749,-0.10313,0.078409,-0.07583,0.023159,0.081697,0.047166
411,-0.035708,-0.082736,0.046508,-0.12483,0.01987,0.04618,0.025461
412,-0.031762,-0.056756,0.013293,-0.12944,0.067885,0.047824,0.014608
413,-0.026829,-0.021896,-0.022225,-0.10115,0.15569,0.09255,0.016581
414,-0.025185,0.017897,-0.054783,-0.056756,0.24679,0.16194,0.027105
415,-0.025842,0.056374,-0.076488,-0.011701,0.30894,0.23561,0.036642
416,-0.027816,0.087288,-0.078132,0.023817,0.33065,0.29546,0.038944
417,-0.02946,0.10899,-0.061031,0.044206,0.31223,0.32736,0.032038
418,-0.02946,0.1205,-0.033078,0.049468,0.26192,0.32605,0.024803
419,-0.0265,0.12412,-0.0090702,0.039931,0.19187,0.29645,0.023159
420,-0.015976,0.12149,0.0037556,0.019541,0.12379,0.25534,0.023817
421,-0.0018351,0.11491,0.0060577,0.0024402,0.070187,0.21785,0.021843
422,0.0070443,0.10735,0.0080309,0.0014536,0.036971,0.1991,0.019541
423,0.0077021,0.099456,0.015266,0.017239,0.020199,0.19549,0.019212
424,0.0014536,0.093865,0.032038,0.038616,0.01691,0.18825,0.019541
425,-0.0077547,0.088603,0.052428,0.053415,0.022172,0.16786,0.018555
426,-0.015976,0.082026,0.066898,0.052099,0.038944,0.13596,0.013293
427,-0.017621,0.074791,0.070187,0.0373,0.073804,0.10176,0.0037556
428,-0.014332,0.068543,0.062623,0.01987,0.11952,0.074462,-0.0015062
429,-0.0087413,0.066898,0.046837,0.0093464,0.15799,0.053743,0.0017824
430,-0.00051963,0.072489,0.032038,0.010004,0.17411,0.033683,0.013622
431,0.011977,0.085972,0.023817,0.017568,0.16128,0.011977,0.031381
432,0.02875,0.10209,0.022501,0.028092,0.12478,-0.011701,0.049797
433,0.046837,0.12182,0.023159,0.037629,0.079395,-0.036037,0.062294
434,0.059005,0.14122,0.01987,0.050126,0.034669,-0.0584,0.064596
435,0.058019,0.15306,0.0083598,0.064596,-0.0047949,-0.081092,0.062294
436,0.048153,0.15405,-0.0080836,0.079066,-0.038997,-0.10477,0.061307
437,0.035985,0.15043,-0.020909,0.087617,-0.069582,-0.12944,0.061636
438,0.026776,0.14616,-0.025514,0.086959,-0.10017,-0.15048,0.056046
439,0.019541,0.14484,-0.029131,0.078409,-0.12812,-0.16035,0.043549
440,0.017568,0.13892,-0.035708,0.059992,-0.15048,-0.15081,0.03434
441,0.020528,0.12708,-0.048205,0.030723,-0.1643,-0.12319,0.038287
442,0.027105,0.10834,-0.063333,-0.0097279,-0.16265,-0.081092,0.058676
443,0.033354,0.08663,-0.071884,-0.057414,-0.13042,-0.036695,0.08663
444,0.033025,0.065254,-0.072213,-0.09326,-0.066951,-0.00019077,0.11261
445,0.028092,0.050126,-0.065307,-0.091616,0.010333,0.026776,0.13399
446,0.026119,0.04322,-0.056756,-0.050836,0.07808,0.039931,0.14747
447,0.030723,0.038616,-0.053467,0.011977,0.11985,0.0373,0.15503
448,0.0373,0.036314,-0.055112,0.070845,0.12577,0.024145,0.15668
449,0.044206,0.036971,-0.058729,0.10899,0.099785,0.0044134,0.14714
450,0.050784,0.038616,-0.063662,0.11426,0.050126,-0.020581,0.1284
451,0.056703,0.03434,-0.070568,0.08959,-0.01203,-0.050179,0.10603
452,0.06065,0.024474,-0.081421,0.04881,-0.076159,-0.083394,0.077093
453,0.058348,0.012635,-0.09326,0.0080309,-0.13338,-0.12023,0.046508
454,0.048153,-0.0008485,-0.1005,-0.017292,-0.17186,-0.1564,0.025132
455,0.029736,-0.019594,-0.10115,-0.018936,-0.17646,-0.186,0.019212
456,0.011648,-0.042286,-0.094905,-0.0028217,-0.14719,-0.20014,0.02283
457,-0.0028217,-0.063662,-0.085039,0.020528,-0.10477,-0.19389,0.023159
458,-0.015319,-0.081421,-0.077475,0.036971,-0.079448,-0.17844,0.011977
459,-0.026171,-0.087341,-0.076817,0.042891,-0.091287,-0.17022,-0.0061104
460,-0.031762,-0.079777,-0.077475,0.044864,-0.137,-0.17877,-0.022883
461,-0.032749,-0.063004,-0.077475,0.053086,-0.19784,-0.20508,-0.036037
462,-0.028144,-0.046561,-0.073528,0.069529,-0.24881,-0.24191,-0.049521
463,-0.016634,-0.036037,-0.064978,0.086959,-0.27973,-0.28006,-0.06728
464,-0.0034794,-0.035051,-0.056098,0.087617,-0.28828,-0.30472,-0.088327
465,0.0086887,-0.044588,-0.047877,0.059005,-0.27282,-0.30637,-0.10609
466,0.010991,-0.055112,-0.035708,0.0067154,-0.23928,-0.28039,-0.1097
467,0.0044134,-0.059058,-0.015319,-0.045246,-0.19817,-0.22941,-0.099509
468,-0.007097,-0.051494,0.013951,-0.07583,-0.15279,-0.15673,-0.074844
469,-0.017292,-0.037024,0.050126,-0.083723,-0.096549,-0.067937,-0.042615
470,-0.02354,-0.019594,0.084328,-0.082736,-0.032091,0.030394,-0.0090702
471,-0.022883,-0.004466,0.11327,-0.09326,0.037629,0.12708,0.015595
472,-0.01203,0.01132,0.14188,-0.11464,0.11491,0.20963,0.030723
473,0.0060577,0.031052,0.18365,-0.12713,0.20667,0.27672,0.049468
474,0.029407,0.056046,0.23758,-0.11201,0.31125,0.32933,0.076106
475,0.053415,0.080382,0.29447,-0.071884,0.40892,0.36584,0.10801
476,0.073804,0.10274,0.33821,-0.018607,0.47239,0.3813,0.1376
477,0.085315,0.11721,0.35696,0.034011,0.48094,0.36452,0.15306
478,0.087946,0.12281,0.34479,0.076435,0.43326,0.31223,0.14977
479,0.083013,0.11853,0.30138,0.10373,0.34808,0.23626,0.12971
480,0.07216,0.10176,0.23331,0.1159,0.24843,0.15142,0.10143
481,0.06065,0.07808,0.15799,0.11097,0.14912,0.076764,0.069529
482,0.048482,0.051441,0.09255,0.095839,0.054072,0.018555,0.040918
483,0.038616,0.027434,0.046837,0.085315,-0.038011,-0.027158,0.020199
484,0.032367,0.010991,0.021843,0.093208,-0.12713,-0.068924,0.0034268
485,0.025461,0.0017824,0.0057288,0.11919,-0.20179,-0.10872,-0.013017
486,0.016581,-0.0034794,-0.011372,0.15043,-0.2452,-0.14391,-0.03242
487,0.0040845,-0.0077547,-0.031762,0.17049,-0.23665,-0.16561,-0.04689
488,-0.0038083,-0.013674,-0.047219,0.17279,-0.15344,-0.16002,-0.05281
489,0.00046697,-0.022225,-0.057743,0.15602,-0.0011774,-0.11957,-0.050836
490,0.015924,-0.025842,-0.067937,0.12116,0.17378,-0.054125,-0.037682
491,0.039273,-0.020581,-0.081092,0.07216,0.30664,0.015266,-0.018936
492,0.06624,-0.0047949,-0.094905,0.022501,0.35729,0.072489,-0.0011774
493,0.089261,0.013293,-0.10378,-0.0090702,0.32045,0.10538,0.0057288
494,0.10176,0.030723,-0.11069,-0.012688,0.22278,0.10866,-0.004466
495,0.099456,0.040589,-0.12417,0.0034268,0.10735,0.086959,-0.028802
496,0.082355,0.039931,-0.14785,0.026119,0.014279,0.055059,-0.059716
497,0.056046,0.02875,-0.1735,0.045851,-0.037353,0.037629,-0.077146
498,0.025132,0.012306,-0.186,0.058348,-0.040641,0.039602,-0.069253
499,-0.002164,-0.0061104,-0.18008,0.062623,-0.0047949,0.05473,-0.040313
500,-0.022554,-0.026171,-0.1564,0.062952,0.05177,0.07512,-0.0067681
501,-0.031433,-0.039984,-0.11562,0.059334,0.098798,0.099785,0.017239
502,-0.029789,-0.045246,-0.065307,0.05473,0.11458,0.12609,0.026447
503,-0.025185,-0.04393,-0.018936,0.048153,0.090905,0.15306,0.027434
504,-0.022883,-0.037353,0.012964,0.036314,0.036314,0.17542,0.026776
505,-0.023869,-0.0265,0.024145,0.016581,-0.031433,0.18562,0.032038
506,-0.022554,-0.010386,0.017897,-0.012688,-0.091616,0.17477,0.037958
507,-0.012359,0.011648,0.0014536,-0.042615,-0.12648,0.14879,0.04322
508,0.0067154,0.034011,-0.020909,-0.062347,-0.1324,0.11919,0.052099
509,0.030065,0.051113,-0.047548,-0.068266,-0.11431,0.092221,0.064925
510,0.05177,0.059992,-0.076159,-0.061031,-0.072542,0.070845,0.078409
511,0.067556,0.062952,-0.10378,-0.038668,-0.0041372,0.057032,0.087288
512,0.073804,0.06065,-0.12023,0.0001381,0.082355,0.054072,0.087288
513,0.073147,0.056703,-0.11036,0.044864,0.16424,0.059334,0.077751
514,0.069529,0.055059,-0.063991,0.083013,0.21193,0.069529,0.062294
515,0.064596,0.056703,0.023488,0.10472,0.20765,0.077093,0.04618
516,0.058019,0.063281,0.13991,0.10406,0.15635,0.073476,0.028421
517,0.04881,0.075778,0.25863,0.085972,0.081697,0.05769,0.010333
518,0.038944,0.091234,0.34907,0.061307,0.01132,0.034669,-0.0015062
519,0.030723,0.099127,0.3859,0.039602,-0.038668,0.010333,-0.007097
520,0.030723,0.094194,0.35992,0.026119,-0.058729,-0.0097279,-0.010057
521,0.037629,0.080053,0.28329,0.01987,-0.048863,-0.019594,-0.011372
522,0.043877,0.062623,0.18299,0.015924,-0.018278,-0.015976,-0.007097
523,0.041575,0.045522,0.08663,0.011648,0.017239,0.0001381,0.0034268
524,0.02875,0.029407,0.010662,0.0096753,0.037629,0.021843,0.016253
525,0.0086887,0.011648,-0.039984,0.010004,0.027763,0.039931,0.020528
526,-0.018278,-0.0047949,-0.067609,0.013622,-0.01499,0.041247,0.0086887
527,-0.04393,-0.015648,-0.071884,0.018884,-0.081092,0.016581,-0.013674
528,-0.062347,-0.016305,-0.056756,0.023488,-0.14884,-0.034722,-0.03538
529,-0.069911,-0.0051238,-0.018936,0.025461,-0.19521,-0.095233,-0.049192
530,-0.06728,0.014608,0.041904,0.029736,-0.20935,-0.14226,-0.053467
531,-0.055769,0.039273,0.133,0.038944,-0.19093,-0.16002,-0.048863
532,-0.036037,0.066898,0.24449,0.054401,-0.15213,-0.14851,-0.033406
533,-0.01499,0.095181,0.34611,0.065583,-0.10411,-0.11858,-0.0064392
534,0.0034268,0.11689,0.403,0.067885,-0.044588,-0.082408,0.023159
535,0.020199,0.12313,0.4007,0.062294,0.024145,-0.048534,0.043549
536,0.034669,0.11261,0.34479,0.049468,0.087288,-0.020252,0.053415
537,0.047166,0.090905,0.25665,0.034669,0.12412,0.0030979,0.057361
538,0.054072,0.069529,0.16128,0.020857,0.11623,0.018555,0.060321
539,0.053743,0.04881,0.076106,0.010662,0.065583,0.022172,0.061307
540,0.043877,0.028421,0.0080309,0.0037556,-0.0087413,0.014279,0.058676
541,0.025132,0.0060577,-0.046232,-0.0061104,-0.082079,0.0047422,0.054401
542,0.0054,-0.018936,-0.089643,-0.019594,-0.13305,0.0073732,0.051441
543,-0.0093991,-0.043601,-0.12187,-0.038668,-0.15081,0.02579,0.05177
544,-0.020581,-0.062018,-0.14456,-0.061031,-0.13338,0.058348,0.055388
545,-0.027158,-0.067609,-0.15476,-0.079777,-0.090629,0.094523,0.067556
546,-0.02946,-0.058071,-0.15476,-0.092603,-0.037024,0.11919,0.081039
547,-0.027158,-0.04097,-0.14654,-0.0903,0.021843,0.12807,0.088932
548,-0.021567,-0.022225,-0.13207,-0.069253,0.080711,0.12478,0.088603
549,-0.014003,-0.0067681,-0.11529,-0.031762,0.12577,0.12017,0.08959
550,-0.0077547,0.0030979,-0.095233,0.0077021,0.14813,0.11985,0.095181
551,-0.0011774,0.0054,-0.077475,0.038287,0.14648,0.1182,0.10439
552,0.0047422,0.00046697,-0.070568,0.04618,0.12905,0.10834,0.11195
553,0.0086887,-0.0064392,-0.077146,0.025132,0.10669,0.093208,0.11195
554,0.0057288,-0.012359,-0.090629,-0.019923,0.081697,0.070845,0.10044
555,-0.0064392,-0.016963,-0.10477,-0.072542,0.055717,0.03434,0.070187
556,-0.02354,-0.02354,-0.11266,-0.1176,0.029078,-0.013345,0.028421
557,-0.036695,-0.031762,-0.11365,-0.14917,0.0014536,-0.061031,-0.016634
558,-0.037682,-0.040641,-0.10543,-0.16923,-0.020252,-0.092603,-0.047877
559,-0.030447,-0.048205,-0.089314,-0.17613,-0.027158,-0.10411,-0.064649
560,-0.022554,-0.049521,-0.068595,-0.15607,-0.015319,-0.098193,-0.066293
561,-0.018278,-0.041957,-0.047548,-0.090958,0.0060577,-0.084052,-0.056756
562,-0.01795,-0.028473,-0.032749,0.033354,0.023817,-0.072542,-0.042944
563,-0.016634,-0.015976,-0.021238,0.19581,0.031381,-0.067937,-0.035051
564,-0.013017,-0.0090702,-0.01203,0.34808,0.027434,-0.070897,-0.02946
565,-0.0067681,-0.0093991,-0.0047949,0.43885,0.014937,-0.075501,-0.022225
566,0.002769,-0.011372,-0.00051963,0.44871,0.0021113,-0.070897,-0.0087413
567,0.013622,-0.0077547,0.00079584,0.40136,0.0040845,-0.042944,0.011977
568,0.026776,0.0070443,-0.0024928,0.33854,0.035656,0.011648,0.035656
569,0.040918,0.026776,-0.0041372,0.29941,0.094852,0.085644,0.056046
570,0.053743,0.043549,-0.002164,0.28231,0.1649,0.16359,0.071173
571,0.062294,0.051441,0.0001381,0.26586,0.21653,0.23396,0.077751
572,0.062294,0.052428,-0.0038083,0.22245,0.22278,0.28329,0.074791
573,0.056046,0.050126,-0.015319,0.14846,0.17937,0.29842,0.067556
574,0.046508,0.045522,-0.028144,0.063938,0.10373,0.27178,0.053743
575,0.035327,0.036642,-0.038668,-0.013674,0.018226,0.20042,0.036971
576,0.025132,0.022501,-0.047548,-0.077146,-0.063662,0.090248,0.020199
577,0.012306,0.0034268,-0.05544,-0.12746,-0.13634,-0.042286,0.0034268
578,-0.00019077,-0.016305,-0.063004,-0.1518,-0.19521,-0.17383,-0.012359
579,-0.012688,-0.030118,-0.069253,-0.137,-0.24454,-0.27315,-0.025842
580,-0.022883,-0.036695,-0.067937,-0.087669,-0.27808,-0.32084,-0.038997
581,-0.024527,-0.038997,-0.057085,-0.014332,-0.27743,-0.31097,-0.048205
582,-0.014332,-0.033735,-0.035708,0.061636,-0.22612,-0.24454,-0.045246
583,0.0077021,-0.018607,-0.0093991,0.1057,-0.12812,-0.14127,-0.024198
584,0.031381,0.002769,0.0086887,0.088932,-0.007097,-0.034722,0.0083598
585,0.04881,0.025132,0.010662,0.010662,0.094852,0.04026,0.035656
586,0.052757,0.036642,-0.002164,-0.0903,0.14681,0.066569,0.049139
587,0.046837,0.037629,-0.01795,-0.16758,0.13892,0.053415,0.052099
588,0.0373,0.034669,-0.026171,-0.18863,0.089261,0.027434,0.045851
589,0.030723,0.036642,-0.021896,-0.14785,0.021514,0.0054,0.045193
590,0.028092,0.04322,-0.0051238,-0.07287,-0.044588,-0.0064392,0.053086
591,0.028421,0.055388,0.017239,-0.0041372,-0.0903,-0.007097,0.061307
592,0.033354,0.069529,0.036971,0.019541,-0.10477,0.0057288,0.067227
593,0.044864,0.076435,0.052428,-0.0034794,-0.086354,0.031381,0.074462
594,0.060321,0.074462,0.06065,-0.045574,-0.040313,0.062623,0.087617
595,0.071502,0.064925,0.064925,-0.06432,0.026776,0.098469,0.10505
596,0.071502,0.055388,0.074133,-0.032749,0.10735,0.13728,0.12116
597,0.059663,0.049468,0.093536,0.050455,0.19154,0.18134,0.12675
598,0.04322,0.049139,0.12017,0.16063,0.25501,0.22147,0.12313
599,0.028092,0.049468,0.1432,0.25205,0.27014,0.23791,0.10801
600,0.018226,0.045522,0.15207,0.28066,0.22574,0.21818,0.083999
601,0.012964,0.035327,0.14221,0.22936,0.1307,0.16687,0.05177
602,0.0073732,0.02283,0.11491,0.11853,0.01132,0.10538,0.015924
603,0.00046697,0.013622,0.074133,-0.0084125,-0.098522,0.05473,-0.015648
604,-0.0034794,0.010662,0.03434,-0.10346,-0.16726,0.020528,-0.031104
605,-0.0018351,0.017568,0.0037556,-0.1393,-0.17581,0.0040845,-0.019594
606,0.0057288,0.02875,-0.012688,-0.12549,-0.12713,0.0001381,0.010333
607,0.018226,0.035656,-0.019265,-0.086683,-0.045903,0.0034268,0.041904
608,0.030394,0.034669,-0.020909,-0.047219,0.038287,0.012635,0.069529
609,0.043877,0.027763,-0.024198,-0.018936,0.10242,0.023159,0.08959
610,0.056046,0.022172,-0.031104,-0.0047949,0.13464,0.031052,0.10176
611,0.065583,0.022501,-0.041299,0.0021113,0.14221,0.030065,0.10801
612,0.074462,0.028421,-0.051165,0.010004,0.1353,0.026447,0.10801
613,0.083013,0.035327,-0.061031,0.01987,0.11853,0.024145,0.10472
614,0.093536,0.040589,-0.069253,0.029407,0.08959,0.014279,0.1011
615,0.10406,0.045851,-0.065964,0.035327,0.043877,-0.0051238,0.094852
616,0.11195,0.050126,-0.049192,0.034998,-0.015319,-0.02946,0.083013
617,0.11524,0.053086,-0.02354,0.021843,-0.077803,-0.054454,0.067885
618,0.11195,0.051441,-0.002164,-0.0074258,-0.13042,-0.073857,0.057361
619,0.099127,0.044206,0.0073732,-0.036037,-0.15969,-0.076488,0.049797
620,0.080382,0.033683,0.0060577,-0.047877,-0.15213,-0.0584,0.036642
621,0.058019,0.021843,0.00046697,-0.03538,-0.10839,-0.021896,0.019212
622,0.037629,0.0080309,-0.0028217,-0.0031506,-0.045246,0.018555,0.002769
623,0.023817,-0.004466,-0.0041372,0.027434,0.0086887,0.039273,-0.013017
624,0.015595,-0.010057,-0.0057815,0.038287,0.034669,0.031052,-0.024856
625,0.012635,-0.0015062,-0.0080836,0.024803,0.04322,0.0034268,-0.033406
626,0.013951,0.017897,-0.0090702,-0.0024928,0.059663,-0.025514,-0.041299
627,0.018555,0.042562,-0.0077547,-0.029131,0.095181,-0.040313,-0.048863
628,0.026776,0.067885,-0.0034794,-0.045574,0.13563,-0.037682,-0.046232
629,0.043549,0.088275,0.0024402,-0.047877,0.15175,-0.021896,-0.028802
630,0.065254,0.10176,0.010991,-0.037024,0.12445,-0.0034794,0.00079584
631,0.08367,0.10702,0.021186,-0.020581,0.052099,0.0070443,0.027105
632,0.090577,0.10538,0.031052,-0.012359,-0.052152,0.0001381,0.0373
633,0.080711,0.099785,0.039602,-0.019594,-0.15969,-0.020909,0.022501
634,0.058019,0.088603,0.043877,-0.029131,-0.22974,-0.048534,-0.0061104
635,0.034011,0.072489,0.04322,-0.014332,-0.22579,-0.064649,-0.033078
636,0.017897,0.056703,0.041575,0.036314,-0.14193,-0.058729,-0.038668
637,0.010333,0.04618,0.044864,0.10866,-0.0061104,-0.034722,-0.021238
638,0.0083598,0.039602,0.054072,0.17279,0.13464,-0.007097,0.010004
639,0.0077021,0.029078,0.062952,0.19614,0.23002,0.0030979,0.0373
640,0.0017824,0.013293,0.065583,0.16523,0.25106,-0.01203,0.046508
641,-0.0087413,0.00046697,0.06065,0.099127,0.20173,-0.041957,0.038616
642,-0.019265,-0.0011774,0.053743,0.033354,0.11985,-0.077803,0.021514
643,-0.028144,0.010991,0.05473,-0.0041372,0.052428,-0.10576,0.0044134
644,-0.034064,0.029736,0.068214,-0.0047949,0.023159,-0.11924,-0.0074258
645,-0.037024,0.047166,0.091892,0.021843,0.031381,-0.11529,-0.011701
646,-0.037682,0.05769,0.11919,0.050784,0.053086,-0.095562,-0.0087413
647,-0.037682,0.056046,0.13826,0.063281,0.066569,-0.069911,-0.0087413
648,-0.040641,0.042562,0.14056,0.050455,0.061965,-0.051823,-0.021567
649,-0.050507,0.024803,0.12807,0.020857,0.046837,-0.044917,-0.042615
650,-0.064978,0.012964,0.10866,-0.0067681,0.035656,-0.041299,-0.060373
651,-0.076159,0.016581,0.091234,-0.013674,0.031052,-0.026829,-0.060702
652,-0.072213,0.031052,0.083013,0.0024402,0.030065,0.010991,-0.044259
653,-0.053796,0.050126,0.085315,0.034998,0.029736,0.071173,-0.022883
654,-0.031762,0.06624,0.099456,0.076106,0.030394,0.14056,-0.0024928
655,-0.014332,0.077093,0.11886,0.10998,0.03434,0.20206,0.0073732
656,-0.0047949,0.081368,0.1307,0.12905,0.041904,0.25074,0.0063866
657,-0.00051963,0.082355,0.12313,0.12774,0.049797,0.28362,0.0030979
658,0.00046697,0.083999,0.095181,0.11261,0.053086,0.29776,0.0050711
659,-0.0015062,0.086301,0.05473,0.087617,0.053086,0.29382,0.015924
660,-0.0067681,0.085644,0.015266,0.062952,0.051113,0.27277,0.033025
661,-0.011701,0.083999,-0.01499,0.045522,0.053086,0.23955,0.050455
662,-0.01203,0.085972,-0.031762,0.039931,0.061636,0.20601,0.064596
663,-0.0057815,0.093865,-0.036366,0.046837,0.074462,0.17477,0.065912
664,0.0063866,0.1057,-0.03242,0.057032,0.090248,0.14352,0.052757
665,0.017897,0.11721,-0.024856,0.057361,0.10801,0.11064,0.031709
666,0.026119,0.12379,-0.01795,0.041575,0.12248,0.079395,0.019541
667,0.032038,0.12412,-0.018278,0.017239,0.12708,0.051113,0.021186
668,0.033354,0.12116,-0.028802,-0.0028217,0.11491,0.023817,0.026119
669,0.029078,0.11261,-0.04097,-0.012359,0.086959,-0.0051238,0.028092
670,0.023159,0.096167,-0.045574,-0.0090702,0.051441,-0.038668,0.025132
671,0.015595,0.0692,-0.038339,0.0080309,0.020199,-0.067937,0.018884
672,0.0054,0.035656,-0.021896,0.035985,0.0050711,-0.086683,0.0060577
673,-0.0057815,0.0017824,-0.004466,0.070187,0.011977,-0.082079,-0.011701
674,-0.013017,-0.027158,0.016253,0.10274,0.035656,-0.054454,-0.027816
675,-0.01203,-0.04985,0.044864,0.12445,0.057032,-0.015648,-0.030118
676,-0.0018351,-0.067937,0.085315,0.12281,0.06065,0.013951,-0.019594
677,0.014279,-0.085367,0.133,0.093208,0.041247,0.024145,-0.0051238
678,0.030065,-0.10346,0.17871,0.037629,0.0070443,0.022501,0.0067154
679,0.039931,-0.1199,0.20404,-0.022883,-0.020909,0.027763,0.015924
680,0.041247,-0.13174,0.20042,-0.066293,-0.023869,0.049797,0.026447
681,0.037629,-0.14029,0.16391,-0.075501,-0.002164,0.08367,0.036642
682,0.031052,-0.14983,0.10176,-0.055112,0.029407,0.11097,0.041904
683,0.023159,-0.16462,0.026447,-0.024527,0.047824,0.1136,0.039273
684,0.016581,-0.1837,-0.043272,-0.0008485,0.038287,0.090577,0.030065
685,0.010662,-0.2008,-0.095891,0.0080309,0.0083598,0.049139,0.015924
686,0.0073732,-0.20935,-0.12845,0.0021113,-0.023211,0.0067154,0.0054
687,0.01132,-0.20771,-0.14423,-0.0087413,-0.03538,-0.019594,0.0040845
688,0.016253,-0.1962,-0.14555,-0.019594,-0.020909,-0.020581,0.013622
689,0.015266,-0.17877,-0.13371,-0.027158,0.0050711,-0.0031506,0.031709
690,0.0044134,-0.15246,-0.11661,-0.030775,0.020528,0.015924,0.04881
691,-0.013345,-0.11957,-0.099509,-0.029789,0.015595,0.019212,0.053086
692,-0.028802,-0.084381,-0.08471,-0.022883,-0.0067681,-0.0018351,0.039602
693,-0.032749,-0.050836,-0.06728,-0.0084125,-0.038011,-0.03538,0.018884
694,-0.020909,-0.016634,-0.041628,0.0073732,-0.070897,-0.071555,0.0021113
695,-0.00019077,0.023488,-0.0047949,0.018884,-0.093918,-0.10148,-0.0031506
696,0.021843,0.067227,0.043549,0.020528,-0.10082,-0.1199,0.002769
697,0.036314,0.10834,0.10209,0.012964,-0.087998,-0.12516,0.010991
698,0.044206,0.14221,0.17444,0.0050711,-0.060373,-0.12056,0.011648
699,0.049468,0.1649,0.25271,0.0077021,-0.028144,-0.11003,0.0080309
700,0.057032,0.17904,0.32572,0.017568,-0.0034794,-0.092603,0.0080309
701,0.06624,0.18463,0.37373,0.02579,0.0054,-0.071884,0.021186
702,0.076764,0.18562,0.3813,0.026119,-0.0024928,-0.050179,0.047824
703,0.083999,0.18463,0.34972,0.022172,-0.018278,-0.030447,0.077751
704,0.084328,0.17937,0.29119,0.015924,-0.036037,-0.013674,0.10077
705,0.075449,0.16622,0.22179,0.010991,-0.04689,-0.0028217,0.11162
706,0.059334,0.14583,0.15339,0.012964,-0.051494,0.0070443,0.10735
707,0.039273,0.12379,0.093865,0.023488,-0.047219,0.015266,0.094194
708,0.022501,0.10472,0.04322,0.040918,-0.028473,0.025132,0.074133
709,0.013622,0.092221,0.0030979,0.059992,0.0044134,0.032696,0.053415
710,0.012964,0.085315,-0.02354,0.071831,0.040589,0.034011,0.039931
711,0.016253,0.084328,-0.042615,0.072489,0.069858,0.026447,0.03434
712,0.023817,0.087617,-0.059058,0.056374,0.082355,0.010333,0.035656
713,0.032696,0.093208,-0.078132,0.026119,0.072489,-0.0087413,0.034011
714,0.042562,0.096167,-0.09918,-0.014003,0.045522,-0.018936,0.026119
715,0.051113,0.094852,-0.12286,-0.056756,0.0050711,-0.018278,0.012964
716,0.05473,0.089919,-0.14095,-0.090629,-0.038997,-0.013017,-0.0011774
717,0.054072,0.083342,-0.14884,-0.10905,-0.079777,-0.011701,-0.014003
718,0.048153,0.076106,-0.14391,-0.10444,-0.11431,-0.019923,-0.029131
719,0.037629,0.066569,-0.13108,-0.075501,-0.13832,-0.033735,-0.050179
720,0.027763,0.049468,-0.11299,-0.028473,-0.14423,-0.046232,-0.068595
721,0.021843,0.026776,-0.09326,0.021514,-0.12713,-0.054454,-0.076817
722,0.018555,0.0047422,-0.074515,0.063281,-0.095562,-0.057743,-0.07583
723,0.015924,-0.0087413,-0.059058,0.091563,-0.063004,-0.059387,-0.06728
724,0.013293,-0.018278,-0.047219,0.11721,-0.042944,-0.062676,-0.051823
725,0.0060577,-0.026171,-0.038668,0.15043,-0.045903,-0.072542,-0.035051
726,-0.0064392,-0.032091,-0.033735,0.18628,-0.066293,-0.087998,-0.027158
727,-0.01499,-0.032749,-0.033735,0.19417,-0.0903,-0.1005,-0.030447
728,-0.014003,-0.025842,-0.042944,0.14648,-0.099838,-0.10082,-0.041957
729,-0.0024928,-0.016963,-0.060045,0.044535,-0.08175,-0.082408,-0.046232
730,0.015595,-0.0090702,-0.080763,-0.077146,-0.027158,-0.041299,-0.029789
731,0.039602,-0.0011774,-0.094576,-0.16331,0.060321,0.020857,0.0077021
732,0.062623,0.0083598,-0.095891,-0.18304,0.17049,0.10406,0.050455
733,0.074133,0.017568,-0.079448,-0.14062,0.27408,0.20042,0.086959
734,0.073804,0.027105,-0.04985,-0.064978,0.34315,0.29119,0.10965
735,0.06624,0.031709,-0.015648,0.01132,0.35959,0.3563,0.12807
736,0.057032,0.031709,0.0093464,0.06065,0.31486,0.37866,0.14648
737,0.048482,0.024145,0.014608,0.07512,0.23166,0.3563,0.16391
738,0.034998,0.0083598,0.0021113,0.075449,0.15503,0.30204,0.17542
739,0.017897,-0.011043,-0.015648,0.08367,0.11853,0.24087,0.17279
740,-0.0034794,-0.02946,-0.032749,0.1057,0.12083,0.18924,0.1501
741,-0.026829,-0.043272,-0.045246,0.1284,0.1353,0.15175,0.10965
742,-0.050836,-0.051823,-0.057085,0.13399,0.1353,0.12675,0.061307
743,-0.068266,-0.057414,-0.074515,0.10801,0.1113,0.10472,0.021514
744,-0.076159,-0.056756,-0.099509,0.055717,0.069529,0.078737,0.0067154
745,-0.074844,-0.051165,-0.13207,-0.0031506,0.022501,0.044864,0.020857
746,-0.065964,-0.045246,-0.16462,-0.047548,-0.021567,0.010333,0.04618
747,-0.051823,-0.039326,-0.18469,-0.062676,-0.054125,-0.015648,0.06065
748,-0.031433,-0.029131,-0.18501,-0.047219,-0.067609,-0.0265,0.060321
749,-0.0080836,-0.014003,-0.16364,-0.012359,-0.066622,-0.023869,0.054401
750,0.010333,0.0030979,-0.12911,0.026447,-0.06136,-0.010715,0.052428
751,0.021843,0.019541,-0.094247,0.053743,-0.060373,0.0054,0.054401
752,0.026776,0.030723,-0.070568,0.064267,-0.063004,0.01987,0.061636
753,0.032367,0.037629,-0.061689,0.057361,-0.06728,0.029078,0.072489
754,0.0373,0.04026,-0.063991,0.039931,-0.076488,0.030394,0.078409
755,0.038287,0.042562,-0.07024,0.02579,-0.089643,0.028421,0.071502
756,0.03434,0.045522,-0.071555,0.031709,-0.098193,0.027763,0.058019
757,0.028092,0.049139,-0.058729,0.066569,-0.091616,0.030723,0.04026
758,0.025461,0.054072,-0.030447,0.11919,-0.071226,0.036642,0.025132
759,0.026119,0.063938,0.0073732,0.15734,-0.047877,0.038616,0.017239
760,0.030394,0.079724,0.046508,0.15273,-0.033406,0.042233,0.016581
761,0.040589,0.098798,0.075449,0.10439,-0.026171,0.054401,0.029407
762,0.056374,0.11557,0.091234,0.042233,-0.014003,0.077751,0.056703
763,0.067885,0.12905,0.099785,-0.002164,0.0086887,0.10044,0.093865
764,0.070187,0.13399,0.11031,-0.013674,0.035985,0.10965,0.12905
765,0.062294,0.13399,0.13728,0.0077021,0.056374,0.098141,0.1524
766,0.048153,0.13267,0.19088,0.050784,0.06624,0.067227,0.15799
767,0.035327,0.12708,0.26948,0.097812,0.062623,0.02579,0.14648
768,0.02579,0.11754,0.35564,0.13563,0.047495,-0.013674,0.12511
769,0.01987,0.10899,0.42273,0.15734,0.030723,-0.039984,0.097812
770,0.017239,0.10472,0.44904,0.17016,0.023159,-0.053467,0.073147
771,0.017568,0.10011,0.42799,0.17871,0.02283,-0.056756,0.050126
772,0.025461,0.088603,0.36617,0.17937,0.023159,-0.060373,0.030065
773,0.038944,0.066898,0.28165,0.15964,0.012306,-0.076488,0.01132
774,0.052757,0.041575,0.19483,0.11458,-0.018278,-0.10609,-0.004466
775,0.058019,0.017897,0.12708,0.05769,-0.053138,-0.14391,-0.0093991
776,0.050784,-0.0028217,0.087946,0.014279,-0.079777,-0.18008,-0.002164
777,0.035327,-0.016305,0.074133,0.0001381,-0.096549,-0.20968,0.010991
778,0.020199,-0.021896,0.068214,0.010004,-0.10872,-0.22612,0.021843
779,0.0096753,-0.021567,0.056046,0.024803,-0.12976,-0.235,0.031052
780,0.0030979,-0.020581,0.035327,0.023817,-0.15575,-0.24191,0.039931
781,-0.0015062,-0.022883,0.0077021,-0.00051963,-0.17285,-0.25013,0.041247
782,-0.0051238,-0.026829,-0.019594,-0.038668,-0.15969,-0.25112,0.025461
783,-0.0054526,-0.025842,-0.038997,-0.065307,-0.10872,-0.235,-0.0034794
784,-0.0057815,-0.022554,-0.040641,-0.054783,-0.032091,-0.20508,-0.027158
785,-0.0064392,-0.015976,-0.023869,-0.0047949,0.043877,-0.17153,-0.029789
786,-0.0057815,-0.0077547,0.0001381,0.063281,0.091892,-0.1416,-0.015976
787,-0.0015062,0.0001381,0.020528,0.11886,0.10209,-0.1176,-0.0084125
788,0.0047422,0.0054,0.032038,0.14484,0.08663,-0.093918,-0.013674
789,0.010991,0.0090175,0.032696,0.14056,0.068214,-0.065635,-0.02354
790,0.017239,0.013951,0.022501,0.11524,0.061636,-0.028473,-0.022554
791,0.026119,0.019541,0.0067154,0.073476,0.061636,0.0080309,-0.010057
792,0.035985,0.024145,-0.010057,0.019212,0.052099,0.036314,0.0050711
793,0.044864,0.024145,-0.026171,-0.042615,0.02875,0.054072,0.010333
794,0.050126,0.020199,-0.041628,-0.095562,-0.0047949,0.061307,-0.0018351
795,0.051441,0.014279,-0.056098,-0.1245,-0.040641,0.067227,-0.019923
796,0.046837,0.0070443,-0.067609,-0.12352,-0.071884,0.085972,-0.034064
797,0.037629,-0.0028217,-0.072213,-0.10082,-0.097207,0.12182,-0.039984
798,0.02579,-0.0074258,-0.066951,-0.069911,-0.11661,0.16556,-0.038997
799,0.013951,-0.0018351,-0.050507,-0.039326,-0.11727,0.20535,-0.03242
800,0.0024402,0.010991,-0.029789,-0.016963,-0.087341,0.23857,-0.016634
801,-0.0054526,0.024474,-0.0074258,-0.0077547,-0.021567,0.26093,0.0086887
802,-0.0061104,0.030723,0.0086887,-0.0057815,0.068871,0.2708,0.034669
803,0.0014536,0.028421,0.018555,0.0037556,0.16753,0.27014,0.051113
804,0.010333,0.017897,0.02579,0.030394,0.26093,0.26126,0.059334
805,0.011648,0.0014536,0.035327,0.067227,0.33098,0.24482,0.061307
806,0.0037556,-0.019923,0.044864,0.092221,0.3517,0.21851,0.054072
807,-0.0080836,-0.038668,0.044864,0.085972,0.30598,0.17806,0.04026
808,-0.020252,-0.049192,0.033683,0.044864,0.20173,0.12544,0.020528
809,-0.024527,-0.050507,0.013951,-0.021567,0.0692,0.065583,-0.0041372
810,-0.019923,-0.044917,-0.011043,-0.089972,-0.051823,0.0080309,-0.031104
811,-0.0067681,-0.037353,-0.035051,-0.13766,-0.12089,-0.033735,-0.051494
812,0.0077021,-0.027487,-0.048205,-0.15114,-0.12549,-0.049521,-0.057743
813,0.015924,-0.020252,-0.047219,-0.13832,-0.08175,-0.035708,-0.054125
814,0.014937,-0.016634,-0.032091,-0.099509,-0.016963,0.0011247,-0.045574
815,0.0073732,-0.011701,-0.0057815,-0.040641,0.044206,0.046508,-0.02946
816,-0.0011774,-0.0097279,0.020528,0.027105,0.078409,0.085644,-0.010715
817,-0.0077547,-0.010057,0.03434,0.079066,0.075778,0.10965,0.0021113
818,-0.01203,-0.012688,0.02875,0.098469,0.048482,0.11524,0.010004
819,-0.012688,-0.015648,0.0067154,0.083999,0.025461,0.10143,0.013951
820,-0.010057,-0.015648,-0.020909,0.050784,0.028421,0.071502,0.013951
821,-0.0028217,-0.0087413,-0.043272,0.024474,0.062623,0.03434,0.0080309
822,0.0073732,0.002769,-0.05544,0.017568,0.11491,0.002769,-0.0011774
823,0.019541,0.016253,-0.058071,0.025461,0.16161,-0.011372,-0.0097279
824,0.030723,0.029407,-0.053138,0.036971,0.18365,-0.0034794,-0.0074258
825,0.0373,0.04026,-0.048205,0.038616,0.17575,0.02283,0.0070443
826,0.038944,0.047495,-0.04985,0.023488,0.14517,0.058019,0.027105
827,0.039273,0.047495,-0.056427,-0.00051963,0.1034,0.088275,0.04322
828,0.036314,0.039602,-0.062347,-0.023869,0.06065,0.10011,0.053743
829,0.030723,0.023817,-0.067937,-0.043601,0.029407,0.085972,0.060321
830,0.022501,0.0047422,-0.073857,-0.059058,0.017568,0.051113,0.06065
831,0.016253,-0.011043,-0.076817,-0.060045,0.031381,0.015266,0.055059
832,0.011977,-0.015976,-0.069582,-0.04393,0.067556,-0.0031506,0.047824
833,0.011977,-0.0084125,-0.051165,-0.011043,0.11393,0.00046697,0.044864
834,0.014608,0.0040845,-0.024856,0.031709,0.15701,0.015595,0.050126
835,0.01987,0.016253,0.0011247,0.071502,0.18069,0.024145,0.056703
836,0.028092,0.027434,0.022501,0.096825,0.17707,0.023159,0.057032
837,0.038944,0.036642,0.04026,0.10176,0.1501,0.022172,0.049468
838,0.050784,0.045522,0.049797,0.089919,0.10998,0.029078,0.04322
839,0.059334,0.054401,0.049797,0.070516,0.072489,0.045193,0.04026
840,0.059663,0.063938,0.043549,0.058348,0.04322,0.06361,0.041904
841,0.050455,0.071502,0.036971,0.056703,0.021514,0.078409,0.045522
842,0.034011,0.07512,0.038287,0.062294,0.0034268,0.079066,0.047166
843,0.017897,0.074133,0.046837,0.064596,-0.017292,0.059663,0.044535
844,0.0080309,0.071173,0.057032,0.055059,-0.04689,0.018555,0.034998
845,0.0021113,0.067556,0.065254,0.033025,-0.094247,-0.037024,0.018226
846,-0.0034794,0.060979,0.066569,0.0001381,-0.16199,-0.098522,-0.0064392
847,-0.011701,0.050126,0.059334,-0.032749,-0.23665,-0.15048,-0.036037
848,-0.020581,0.035985,0.045851,-0.056427,-0.29486,-0.18469,-0.062347
849,-0.028802,0.024145,0.032038,-0.062676,-0.30209,-0.18863,-0.073857
850,-0.029789,0.019541,0.024474,-0.042944,-0.23994,-0.15673,-0.066951
851,-0.022225,0.02579,0.024803,0.0054,-0.11727,-0.10181,-0.045246
852,-0.0084125,0.0373,0.027105,0.075778,0.023159,-0.041299,-0.013674
853,0.0054,0.046508,0.018884,0.14451,0.13366,0.0070443,0.019541
854,0.014937,0.050126,-0.0077547,0.18463,0.18134,0.033025,0.040589
855,0.020528,0.045193,-0.048205,0.17838,0.16819,0.032696,0.045522
856,0.02283,0.035327,-0.087341,0.13267,0.12182,0.0070443,0.041904
857,0.025461,0.027434,-0.11595,0.068871,0.071502,-0.033078,0.039602
858,0.028421,0.028421,-0.12516,0.01691,0.031709,-0.074186,0.038287
859,0.031381,0.039602,-0.11497,-0.0097279,0.0044134,-0.10313,0.034669
860,0.032696,0.056046,-0.1005,-0.0087413,-0.014003,-0.11661,0.02875
861,0.032367,0.0692,-0.093918,0.014279,-0.023869,-0.11825,0.020199
862,0.030723,0.0692,-0.094905,0.047166,-0.028802,-0.11135,0.01132
863,0.026776,0.05177,-0.097207,0.075778,-0.03538,-0.1005,0.002769
864,0.022172,0.026776,-0.090958,0.091234,-0.041957,-0.084052,-0.0028217
865,0.019541,0.0034268,-0.070568,0.093208,-0.044259,-0.06728,-0.0064392
866,0.021514,-0.0097279,-0.038339,0.095181,-0.03538,-0.048534,-0.010715
867,0.026447,-0.011701,-0.002164,0.10472,-0.011372,-0.026171,-0.016305
868,0.031709,-0.0067681,0.036314,0.1205,0.026447,0.0024402,-0.021567
869,0.03434,0.002769,0.074462,0.13432,0.0692,0.040918,-0.02354
870,0.034998,0.014608,0.10834,0.14583,0.10636,0.098141,-0.015648
871,0.036642,0.025461,0.13136,0.15109,0.13169,0.17904,0.0034268
872,0.039931,0.033025,0.13793,0.13826,0.1376,0.26948,0.024474
873,0.041575,0.038944,0.13464,0.099785,0.12083,0.34446,0.035985
874,0.042891,0.046508,0.13892,0.041575,0.078409,0.3813,0.035985
875,0.042891,0.062623,0.17279,-0.02354,0.018226,0.37011,0.033354
876,0.04322,0.094194,0.23791,-0.076488,-0.050507,0.32144,0.038616
877,0.04322,0.13563,0.31717,-0.09918,-0.11365,0.25238,0.055059
878,0.042233,0.17148,0.3813,-0.091945,-0.16627,0.18332,0.07512
879,0.037958,0.19154,0.40662,-0.068595,-0.21132,0.12675,0.085972
880,0.031709,0.1945,0.39083,-0.042615,-0.2452,0.089919,0.078409
881,0.02579,0.18529,0.35795,-0.022883,-0.25408,0.071502,0.055388
882,0.023817,0.17049,0.33295,-0.016305,-0.21297,0.065254,0.025461
883,0.023488,0.15898,0.3221,-0.025185,-0.10444,0.065583,0.0037556
884,0.026776,0.15043,0.31651,-0.047877,0.054401,0.067885,-0.0064392
885,0.032038,0.14385,0.30434,-0.065307,0.21489,0.070187,0.0014536
886,0.0373,0.13563,0.27507,-0.059058,0.32835,0.069529,0.024145
887,0.041575,0.12116,0.22245,-0.022554,0.36683,0.061965,0.058019
888,0.045522,0.098798,0.14583,0.028421,0.33131,0.043877,0.088932
889,0.049468,0.070516,0.05473,0.073476,0.24514,0.011648,0.10538
890,0.055717,0.041247,-0.027816,0.09551,0.13958,-0.029789,0.10209
891,0.065254,0.019541,-0.086354,0.088932,0.040918,-0.069253,0.087288
892,0.07216,0.0093464,-0.11661,0.054401,-0.033078,-0.10247,0.069858
893,0.073804,0.0083598,-0.12779,0.0047422,-0.074186,-0.12812,0.05769
894,0.070516,0.011977,-0.13503,-0.042286,-0.080106,-0.14489,0.05473
895,0.064267,0.012635,-0.1518,-0.070568,-0.059058,-0.15246,0.054401
896,0.056046,0.0096753,-0.17909,-0.071555,-0.024198,-0.15114,0.052099
897,0.044206,0.0057288,-0.20771,-0.051823,0.012964,-0.14127,0.048482
898,0.029407,-0.0008485,-0.22842,-0.023211,0.045193,-0.12056,0.052428
899,0.013293,-0.010057,-0.23698,0.0024402,0.066569,-0.09326,0.065254
900,-0.0028217,-0.026829,-0.23369,0.015924,0.074791,-0.072213,0.081697
901,-0.017292,-0.050507,-0.2202,0.015924,0.060321,-0.063333,0.087946
902,-0.0265,-0.076488,-0.20212,0.010004,0.014937,-0.071555,0.076435
903,-0.03242,-0.098851,-0.18469,0.0024402,-0.051823,-0.094905,0.050455
904,-0.036695,-0.1176,-0.16791,-0.0084125,-0.11924,-0.12516,0.02283
905,-0.034722,-0.13207,-0.1541,-0.024856,-0.15936,-0.14555,0.0090175
906,-0.0265,-0.1393,-0.14127,-0.044588,-0.1587,-0.14423,0.013951
907,-0.017292,-0.13832,-0.12845,-0.061689,-0.12417,-0.12549,0.029407
908,-0.0077547,-0.12812,-0.11464,-0.068924,-0.082408,-0.094576,0.046508
909,0.002769,-0.10543,-0.096878,-0.058729,-0.053138,-0.059716,0.05473
910,0.013293,-0.077475,-0.073857,-0.034064,-0.048863,-0.028802,0.052428
911,0.024474,-0.050507,-0.04689,-0.0061104,-0.060702,-0.0047949,0.046508
912,0.032367,-0.030118,-0.022554,0.012306,-0.076159,0.014608,0.043549
913,0.031381,-0.020909,-0.0097279,0.0067154,-0.094247,0.026776,0.039931
914,0.013293,-0.031433,-0.012359,-0.026171,-0.12253,0.01987,0.030723
915,-0.018607,-0.059387,-0.025514,-0.071884,-0.14588,-0.0090702,0.012306
916,-0.0584,-0.095562,-0.039655,-0.10346,-0.14226,-0.047219,-0.0084125
917,-0.094247,-0.12582,-0.050836,-0.10247,-0.10082,-0.076817,-0.025185
918,-0.1176,-0.14095,-0.04985,-0.068595,-0.031104,-0.086354,-0.030118
919,-0.12319,-0.14325,-0.026829,-0.010386,0.047824,-0.079777,-0.022554
920,-0.10905,-0.13733,0.02283,0.058019,0.12149,-0.064649,-0.002164
921,-0.082408,-0.12648,0.090905,0.12281,0.17378,-0.043601,0.023817
922,-0.048863,-0.1097,0.15767,0.16753,0.19022,-0.018936,0.046508
923,-0.020581,-0.088985,0.20469,0.18628,0.16654,-0.0054526,0.058019
924,-0.0064392,-0.06432,0.22508,0.18562,0.11524,-0.010715,0.056374
925,-0.0084125,-0.041628,0.21489,0.17707,0.049468,-0.031104,0.042233
926,-0.017621,-0.023869,0.182,0.17279,-0.015319,-0.052481,0.020199
927,-0.022225,-0.0051238,0.1376,0.17937,-0.064978,-0.058071,0.0001381
928,-0.014003,0.012635,0.093536,0.18924,-0.093589,-0.045903,-0.011701
929,0.0030979,0.026447,0.054072,0.17707,-0.10543,-0.024527,-0.014332
930,0.018884,0.031052,0.018226,0.11228,-0.10641,-0.002164,-0.0084125
931,0.029078,0.031709,-0.015648,-0.0061104,-0.096878,0.021186,0.0083598
932,0.033683,0.03434,-0.041957,-0.1347,-0.067937,0.049139,0.031381
933,0.040918,0.045522,-0.056098,-0.21626,-0.018936,0.08367,0.050126
934,0.052428,0.069529,-0.050507,-0.2202,0.041247,0.11919,0.061636
935,0.064267,0.10176,-0.024527,-0.15739,0.098798,0.14385,0.067227
936,0.071502,0.12905,0.012635,-0.062676,0.13958,0.1501,0.071173
937,0.076106,0.14188,0.04618,0.029736,0.1478,0.13333,0.071831
938,0.077093,0.13629,0.06624,0.10932,0.12248,0.10373,0.065583
939,0.076106,0.11754,0.064267,0.17279,0.07808,0.080053,0.05177
940,0.072818,0.095181,0.042233,0.21555,0.034998,0.069858,0.034998
941,0.065254,0.073804,0.0083598,0.23561,0.0047422,0.069529,0.021186
942,0.054401,0.055059,-0.023869,0.22936,-0.0077547,0.071502,0.017239
943,0.042562,0.038287,-0.047219,0.20173,-0.012359,0.072818,0.029407
944,0.036314,0.028421,-0.060373,0.15767,-0.016634,0.073147,0.054072
945,0.038616,0.02283,-0.07024,0.10965,-0.020252,0.072489,0.073804
946,0.045193,0.018226,-0.078132,0.071502,-0.016634,0.071502,0.075778
947,0.047166,0.017897,-0.08471,0.053743,0.002769,0.074462,0.058019
948,0.035656,0.021843,-0.088656,0.051113,0.0373,0.086301,0.026119
949,0.010662,0.030065,-0.089314,0.05473,0.081697,0.10472,-0.0067681
950,-0.018936,0.043549,-0.085039,0.062294,0.12412,0.12971,-0.026829
951,-0.039326,0.057361,-0.076159,0.070516,0.1524,0.15471,-0.034722
952,-0.042944,0.070516,-0.062676,0.069529,0.15799,0.17345,-0.030118
953,-0.02946,0.080382,-0.048205,0.05177,0.13859,0.18233,-0.020581
954,-0.004466,0.088275,-0.038011,0.023488,0.10176,0.18069,-0.014661
955,0.018226,0.093536,-0.036695,-0.00051963,0.064925,0.17115,-0.018278
956,0.032696,0.094852,-0.037024,-0.0087413,0.042562,0.15306,-0.03242
957,0.04026,0.093536,-0.027158,0.0057288,0.0373,0.12708,-0.048205
958,0.045522,0.09551,-0.00051963,0.042233,0.047166,0.096496,-0.058071
959,0.053743,0.10077,0.037629,0.088603,0.067885,0.064596,-0.056756
960,0.063281,0.10899,0.076764,0.12248,0.088603,0.039931,-0.045246
961,0.068871,0.11656,0.10866,0.12905,0.10505,0.02875,-0.023211
962,0.070516,0.12215,0.13169,0.11426,0.11952,0.0373,0.0083598
963,0.068871,0.12642,0.15372,0.088603,0.13103,0.065254,0.043549
964,0.064925,0.12675,0.18595,0.057032,0.14254,0.098141,0.066898
965,0.05769,0.12149,0.23462,0.021843,0.14977,0.11656,0.070845
966,0.046508,0.11393,0.29283,-0.011043,0.14747,0.11031,0.057032
967,0.031052,0.10801,0.3438,-0.036695,0.13201,0.079395,0.038616
968,0.014937,0.10899,0.37077,-0.056756,0.10965,0.035656,0.028421
969,0.0050711,0.11853,0.35926,-0.06432,0.092221,0.00079584,0.031052
970,0.0011247,0.13629,0.3073,-0.054125,0.088275,-0.01203,0.050126
971,0.00046697,0.15207,0.22739,-0.02946,0.091892,0.0001381,0.074462
972,-0.00051963,0.15536,0.13728,-0.0015062,0.088275,0.029407,0.092221
973,-0.0024928,0.14188,0.053415,0.0060577,0.066569,0.054401,0.097154
974,-0.010386,0.11097,-0.012688,-0.020252,0.028092,0.062294,0.088932
975,-0.023211,0.069529,-0.06136,-0.069253,-0.022883,0.043877,0.069858
976,-0.038339,0.029736,-0.095233,-0.1176,-0.072213,0.0070443,0.048482
977,-0.05281,-0.0011774,-0.11332,-0.14456,-0.10674,-0.030118,0.031381
978,-0.061689,-0.018278,-0.11233,-0.13799,-0.12023,-0.047877,0.02283
979,-0.061689,-0.017621,-0.0903,-0.10115,-0.11497,-0.04393,0.016581
980,-0.051165,-0.002164,-0.055112,-0.057085,-0.10214,-0.033735,0.014279
981,-0.031433,0.019212,-0.016963,-0.033078,-0.0903,-0.030447,0.017239
982,-0.0074258,0.04026,0.01691,-0.037682,-0.083723,-0.031433,0.023159
983,0.013622,0.058348,0.041247,-0.062018,-0.078132,-0.031104,0.026119
984,0.029078,0.073147,0.049139,-0.089643,-0.06432,-0.024856,0.023488
985,0.041247,0.083342,0.041575,-0.10609,-0.032091,-0.014003,0.018884
986,0.050784,0.084657,0.025461,-0.10148,0.01691,-0.0015062,0.017897
987,0.059334,0.07808,0.0096753,-0.07287,0.070187,0.011977,0.021514
988,0.066898,0.069529,0.0054,-0.025185,0.11261,0.022501,0.023817
989,0.07216,0.060979,0.017568,0.031709,0.13103,0.027434,0.023159
990,0.068543,0.052428,0.042233,0.082684,0.11426,0.024803,0.024474
991,0.055388,0.044206,0.067556,0.1159,0.067556,0.01987,0.023817
992,0.037629,0.037629,0.075778,0.12708,0.0034268,0.012306,0.01691
993,0.020199,0.033354,0.061965,0.12445,-0.057743,-0.0015062,0.0083598
994,0.0073732,0.030723,0.034011,0.12215,-0.094905,-0.016305,0.0080309
995,-0.002164,0.022172,0.0040845,0.12412,-0.10115,-0.027487,0.01987
996,-0.0074258,0.0070443,-0.019923,0.12379,-0.088656,-0.033078,0.040918
997,-0.0051238,-0.010715,-0.038668,0.11195,-0.069911,-0.036366,0.065583
998,0.0040845,-0.027487,-0.055112,0.091892,-0.04985,-0.036037,0.08663
999,0.016581,-0.036695,-0.071226,0.073147,-0.029789,-0.032749,0.099785
1000,0.027763,-0.037353,-0.084381,0.065912,-0.0041372,-0.028802,0.10669
1001,0.033683,-0.035051,-0.091945,0.068214,0.02579,-0.022225,0.10932
1002,0.029407,-0.033406,-0.094247,0.07808,0.051113,-0.01203,0.1113
1003,0.017568,-0.033406,-0.094247,0.088275,0.063938,-0.0008485,0.11491
1004,0.0057288,-0.037682,-0.0903,0.093865,0.056703,0.010662,0.1182
1005,0.0014536,-0.04689,-0.079448,0.090905,0.029407,0.016253,0.11689
1006,0.0093464,-0.05281,-0.069582,0.083999,-0.0087413,0.0073732,0.11031
1007,0.026119,-0.054125,-0.066293,0.082684,-0.042944,-0.017621,0.096167
1008,0.041247,-0.05281,-0.070897,0.095839,-0.063004,-0.04393,0.075449
1009,0.049797,-0.053796,-0.082079,0.11754,-0.069911,-0.055769,0.053086
1010,0.051441,-0.057743,-0.097207,0.12905,-0.067937,-0.05281,0.036642
1011,0.047824,-0.06432,-0.11003,0.10768,-0.065307,-0.044259,0.03434
1012,0.040589,-0.066951,-0.11332,0.055059,-0.066293,-0.042944,0.043549
1013,0.032696,-0.063991,-0.10641,-0.012688,-0.071555,-0.056098,0.052757
1014,0.02875,-0.059387,-0.088327,-0.065635,-0.076159,-0.076817,0.058348
1015,0.031381,-0.053138,-0.060373,-0.074186,-0.07583,-0.099838,0.061307
1016,0.037629,-0.043272,-0.025842,-0.029789,-0.070568,-0.12319,0.05769
1017,0.045193,-0.027487,0.010333,0.054401,-0.060045,-0.14391,0.043877
1018,0.050126,-0.0074258,0.043877,0.15076,-0.044588,-0.15377,0.026447
1019,0.049139,0.011648,0.071173,0.23528,-0.016305,-0.14423,0.013293
1020,0.045193,0.02579,0.092221,0.2925,0.027434,-0.11661,0.010991
1021,0.044206,0.031709,0.099456,0.30763,0.081697,-0.079448,0.016581
1022,0.047495,0.028092,0.08959,0.26915,0.12807,-0.039655,0.018226
1023,0.047824,0.015924,0.061307,0.17214,0.14089,-0.0074258,0.0096753
1024,0.041904,-0.0015062,0.021514,0.026776,0.10373,0.010991,-0.0077547
1025,0.029078,-0.017292,-0.017292,-0.13272,0.021514,0.016253,-0.026829
1026,0.017897,-0.027158,-0.040313,-0.26394,-0.077475,0.010004,-0.045574
1027,0.012964,-0.026171,-0.043272,-0.33695,-0.16265,-0.002164,-0.063004
1028,0.014279,-0.014661,-0.028144,-0.34254,-0.21132,-0.020909,-0.077803
1029,0.014937,0.0014536,-0.0067681,-0.30143,-0.22185,-0.04097,-0.091616
1030,0.014608,0.017239,0.0067154,-0.24289,-0.20573,-0.056098,-0.094247
1031,0.010991,0.025461,0.0093464,-0.18337,-0.17745,-0.061031,-0.087341
1032,0.0037556,0.023159,0.0080309,-0.12845,-0.14423,-0.058071,-0.07879
1033,-0.0097279,0.012635,0.0096753,-0.076817,-0.10905,-0.050507,-0.073528
1034,-0.022225,0.0001381,0.015924,-0.024198,-0.066293,-0.033406,-0.066293
1035,-0.025185,-0.0077547,0.029078,0.033025,-0.011701,0.0017824,-0.051494
1036,-0.016963,-0.0077547,0.047166,0.096167,0.05473,0.058019,-0.034393
1037,-0.0047949,-0.0011774,0.068543,0.15142,0.12248,0.133,-0.020909
1038,0.0057288,0.0073732,0.087288,0.17937,0.17904,0.21851,-0.013017
1039,0.011977,0.0096753,0.098469,0.1672,0.22212,0.30566,-0.0015062
1040,0.010333,0.0040845,0.099127,0.12248,0.24778,0.3836,0.016253
1041,0.0001381,-0.0051238,0.092221,0.06624,0.25337,0.44214,0.035327
1042,-0.013674,-0.0093991,0.08367,0.020528,0.23528,0.47436,0.052099
1043,-0.025185,-0.0034794,0.078737,-0.0008485,0.19581,0.47601,0.061636
1044,-0.029789,0.0063866,0.077751,-0.0031506,0.1353,0.44378,0.057361
1045,-0.028473,0.015924,0.077422,-0.0041372,0.061307,0.38557,0.040918
1046,-0.019923,0.024474,0.078737,-0.011372,-0.0064392,0.31717,0.019212
1047,-0.0061104,0.030065,0.078409,-0.013674,-0.041957,0.25665,0.0017824
1048,0.014608,0.031052,0.076435,0.0070443,-0.017292,0.21456,-0.0057815
1049,0.039602,0.030394,0.076764,0.062623,0.07512,0.18463,0.0017824
1050,0.062952,0.032696,0.085315,0.14681,0.2093,0.15898,0.025132
1051,0.08367,0.041575,0.10143,0.23495,0.33065,0.12774,0.052099
1052,0.096825,0.05473,0.1159,0.29776,0.38327,0.08367,0.067227
1053,0.10011,0.064267,0.1205,0.30927,0.35137,0.031052,0.062294
1054,0.094194,0.065583,0.11458,0.26257,0.2629,-0.020909,0.044535
1055,0.082355,0.05769,0.10143,0.17049,0.16194,-0.060045,0.027763
1056,0.067227,0.042233,0.082355,0.059992,0.073804,-0.078132,0.019541
1057,0.056046,0.030065,0.058019,-0.041957,0.0014536,-0.073857,0.015266
1058,0.053743,0.025461,0.028421,-0.11595,-0.054454,-0.055112,0.0073732
1059,0.060979,0.031381,-0.00019077,-0.15114,-0.095562,-0.030118,0.0001381
1060,0.07216,0.040589,-0.022883,-0.15213,-0.12878,-0.015976,-0.0041372
1061,0.081697,0.048153,-0.039984,-0.1324,-0.16232,-0.018936,-0.0057815
1062,0.082355,0.052757,-0.050836,-0.11628,-0.19422,-0.038339,-0.0015062
1063,0.072489,0.053086,-0.05544,-0.11595,-0.2054,-0.065964,0.0070443
1064,0.054072,0.047824,-0.056427,-0.11793,-0.16824,-0.091287,0.019212
1065,0.032038,0.033683,-0.054454,-0.10148,-0.07583,-0.10773,0.023817
1066,0.0086887,0.013293,-0.04985,-0.059058,0.051441,-0.11891,0.012964
1067,-0.010386,-0.0077547,-0.044588,-0.0024928,0.16983,-0.13042,-0.013345
1068,-0.025514,-0.025842,-0.041628,0.042891,0.22903,-0.14851,-0.045246
1069,-0.037353,-0.038339,-0.043601,0.055717,0.20601,-0.1712,-0.075173
1070,-0.048205,-0.046561,-0.047877,0.029078,0.11656,-0.19126,-0.091945
1071,-0.057414,-0.05281,-0.057085,-0.020909,0.0034268,-0.20146,-0.088985
1072,-0.056098,-0.055112,-0.069911,-0.06728,-0.083394,-0.19554,-0.069582
1073,-0.041957,-0.051494,-0.081421,-0.089643,-0.12121,-0.16693,-0.044917
1074,-0.012359,-0.043601,-0.085696,-0.084052,-0.11266,-0.12549,-0.023211
1075,0.022172,-0.030447,-0.08175,-0.057085,-0.078132,-0.092931,-0.0018351
1076,0.052099,-0.014332,-0.073199,-0.021896,-0.046561,-0.081421,0.018555
1077,0.067885,-0.00051963,-0.059716,0.0093464,-0.039326,-0.091287,0.032696
1078,0.067885,0.010662,-0.045246,0.031052,-0.056756,-0.10806,0.038287
1079,0.059663,0.023817,-0.031762,0.040918,-0.088327,-0.11398,0.034669
1080,0.047495,0.039931,-0.021238,0.04026,-0.11299,-0.098851,0.028092
1081,0.033025,0.05177,-0.010715,0.039931,-0.12023,-0.061689,0.020199
1082,0.015266,0.055059,0.002769,0.045851,-0.1005,-0.015976,0.015595
1083,-0.0034794,0.050455,0.021186,0.059992,-0.049192,0.014937,0.014937
1084,-0.019923,0.039602,0.038287,0.069529,0.031052,0.018226,0.016253
1085,-0.030118,0.025132,0.049468,0.067885,0.11919,-0.0034794,0.01987
1086,-0.030447,0.012964,0.05473,0.05473,0.19121,-0.030775,0.030394
1087,-0.024527,0.0040845,0.053086,0.032696,0.22739,-0.039326,0.042562
1088,-0.012688,-0.00051963,0.040589,0.0077021,0.22344,-0.019265,0.053743
1089,0.0001381,-0.0047949,0.014279,-0.010386,0.19022,0.025461,0.061965
1090,0.0090175,-0.004466,-0.024198,-0.016963,0.14352,0.074791,0.066898
1091,0.013622,0.00046697,-0.063662,-0.0077547,0.092879,0.10669,0.0692
1092,0.014608,0.0090175,-0.091945,0.010662,0.040589,0.10998,0.065583
1093,0.014608,0.013951,-0.1028,0.030065,-0.007097,0.087617,0.055388
1094,0.015266,0.013293,-0.098522,0.048482,-0.04097,0.054072,0.043549
1095,0.017897,0.010991,-0.084381,0.070845,-0.051823,0.030394,0.034011
1096,0.024803,0.01132,-0.067937,0.10702,-0.038011,0.024145,0.027434
1097,0.036314,0.017568,-0.050179,0.15635,0.002769,0.039602,0.024803
1098,0.045193,0.029736,-0.036366,0.1991,0.059663,0.075778,0.032367
1099,0.047824,0.042891,-0.03242,0.20535,0.11853,0.12708,0.048482
1100,0.041575,0.057361,-0.038011,0.15569,0.16326,0.17904,0.060321
1101,0.027434,0.070516,-0.048534,0.071173,0.19022,0.22114,0.060979
1102,0.0086887,0.07512,-0.062347,-0.011043,0.19483,0.24547,0.053086
1103,-0.011043,0.070187,-0.074844,-0.059058,0.17575,0.25106,0.040589
1104,-0.022883,0.060321,-0.084381,-0.063991,0.13399,0.23922,0.030394
1105,-0.023869,0.052099,-0.089643,-0.03538,0.073804,0.21226,0.027105
1106,-0.015976,0.050126,-0.088656,0.0030979,0.0093464,0.16589,0.031381
1107,-0.0031506,0.060321,-0.062676,0.039602,-0.05281,0.096825,0.038944
1108,0.0070443,0.080382,0.002769,0.068871,-0.10905,0.017897,0.042233
1109,0.011977,0.10866,0.10735,0.092221,-0.15147,-0.053796,0.039931
1110,0.011648,0.13859,0.2389,0.10932,-0.17449,-0.10444,0.03434
1111,0.010991,0.15964,0.36518,0.1182,-0.17087,-0.12746,0.029407
1112,0.013293,0.16556,0.45003,0.11294,-0.14259,-0.12746,0.029736
1113,0.017239,0.15405,0.46845,0.090577,-0.10247,-0.11628,0.034998
1114,0.019541,0.13103,0.41912,0.052428,-0.06432,-0.10641,0.039931
1115,0.017897,0.1011,0.32111,0.0057288,-0.038668,-0.098851,0.039931
1116,0.011977,0.075449,0.21094,-0.038997,-0.026829,-0.095233,0.038944
1117,0.0070443,0.059992,0.11689,-0.07287,-0.022883,-0.089314,0.038944
1118,0.0063866,0.058676,0.053415,-0.088656,-0.011701,-0.07879,0.037958
1119,0.0070443,0.065254,0.02283,-0.084052,0.010004,-0.062018,0.034998
1120,0.0080309,0.071831,0.019541,-0.058729,0.037958,-0.038668,0.032696
1121,0.0030979,0.069529,0.032038,-0.020252,0.057361,-0.014661,0.030394
1122,-0.0074258,0.058676,0.052099,0.016253,0.052757,-0.0024928,0.02875
1123,-0.020581,0.04618,0.077093,0.039602,0.023817,-0.0061104,0.029407
1124,-0.030447,0.040918,0.10176,0.047495,-0.019923,-0.024198,0.030065
1125,-0.037024,0.044864,0.12412,0.040918,-0.065964,-0.045903,0.025461
1126,-0.036695,0.060979,0.15273,0.02283,-0.10477,-0.058729,0.015595
1127,-0.025514,0.084986,0.20436,-0.00019077,-0.12746,-0.062676,0.0060577
1128,-0.002164,0.11426,0.27441,-0.01499,-0.12582,-0.062676,-0.0031506
1129,0.025132,0.14089,0.34084,-0.018607,-0.098522,-0.059058,-0.0087413
1130,0.04026,0.15898,0.3757,-0.01203,-0.050507,-0.045246,-0.0024928
1131,0.041904,0.16161,0.36222,-0.0011774,0.002769,-0.022225,0.013951
1132,0.035656,0.14714,0.29908,0.0047422,0.041904,0.00046697,0.035985
1133,0.028421,0.12215,0.20469,-0.002164,0.057032,0.012306,0.05769
1134,0.01987,0.090905,0.10406,-0.021896,0.046837,0.012306,0.067885
1135,0.0090175,0.054401,0.016581,-0.045574,0.018555,0.0021113,0.065254
1136,-0.0038083,0.020199,-0.044917,-0.063333,-0.021567,-0.016963,0.050784
1137,-0.017292,-0.0074258,-0.082736,-0.069911,-0.065964,-0.039655,0.027763
1138,-0.0265,-0.027816,-0.097864,-0.059058,-0.10378,-0.058729,0.0050711
1139,-0.030775,-0.04097,-0.097864,-0.033406,-0.13174,-0.069911,-0.0090702
1140,-0.031433,-0.046561,-0.090629,-0.0011774,-0.14752,-0.077803,-0.014003
1141,-0.027487,-0.047548,-0.083723,0.024474,-0.14588,-0.086683,-0.015648
1142,-0.019594,-0.044588,-0.080434,0.036971,-0.12352,-0.098522,-0.016963
1143,-0.0064392,-0.041628,-0.081092,0.042233,-0.085039,-0.10839,-0.013017
1144,0.012306,-0.039326,-0.082408,0.045522,-0.040641,-0.11069,-0.0008485
1145,0.030394,-0.038011,-0.079777,0.052099,-0.0038083,-0.10609,0.017897
1146,0.044206,-0.038011,-0.067609,0.062952,0.014937,-0.093589,0.028092
1147,0.056046,-0.041299,-0.047877,0.077093,0.02283,-0.071555,0.024145
1148,0.067227,-0.046561,-0.026829,0.098141,0.030723,-0.042286,0.015595
1149,0.079066,-0.051165,-0.01499,0.13004,0.043549,-0.016305,0.011977
1150,0.087617,-0.050507,-0.017621,0.17838,0.060979,0.0011247,0.020857
1151,0.090577,-0.047548,-0.029789,0.23857,0.078737,0.013293,0.036642
1152,0.084986,-0.037024,-0.042286,0.30467,0.091563,0.025132,0.053415
1153,0.070187,-0.022554,-0.04985,0.3688,0.099785,0.041247,0.070187
1154,0.050784,-0.0093991,-0.056756,0.42536,0.1182,0.064925,0.092221
1155,0.030394,-0.0018351,-0.064978,0.45003,0.15306,0.095839,0.1205
1156,0.012306,0.0001381,-0.079777,0.41352,0.19154,0.13103,0.14056
1157,0.0011247,-0.0041372,-0.10872,0.30007,0.21028,0.15635,0.14385
1158,-0.004466,-0.01795,-0.1541,0.1307,0.18924,0.15997,0.1307
1159,-0.0077547,-0.039984,-0.21001,-0.053138,0.12478,0.14254,0.10538
1160,-0.0090702,-0.06136,-0.26624,-0.20771,0.029078,0.10998,0.071831
1161,-0.0077547,-0.073528,-0.31229,-0.30637,-0.079777,0.074462,0.0373
1162,-0.0074258,-0.073199,-0.34188,-0.33958,-0.17811,0.050455,0.015595
1163,-0.0061104,-0.062018,-0.35109,-0.31229,-0.24026,0.041904,0.015266
1164,-0.00051963,-0.044588,-0.34156,-0.24158,-0.24914,0.05177,0.035656
1165,0.010991,-0.028473,-0.31952,-0.1666,-0.20146,0.07808,0.064267
1166,0.023488,-0.020909,-0.29288,-0.11957,-0.11168,0.1136,0.088275
1167,0.033025,-0.022225,-0.27184,-0.11497,-0.00019077,0.14813,0.093536
1168,0.036971,-0.024527,-0.25473,-0.13272,0.10603,0.17773,0.079066
1169,0.037958,-0.019594,-0.23994,-0.14259,0.1843,0.20075,0.054401
1170,0.036314,-0.0054526,-0.22842,-0.12286,0.21982,0.21719,0.034998
1171,0.033683,0.01691,-0.2156,-0.06728,0.22475,0.22574,0.035327
1172,0.030394,0.042891,-0.18995,0.010991,0.2116,0.22673,0.052428
1173,0.031052,0.062623,-0.14588,0.083999,0.19022,0.22048,0.07512
1174,0.036642,0.07216,-0.086683,0.12445,0.15438,0.20996,0.091892
1175,0.045851,0.077422,-0.020252,0.12017,0.10274,0.19351,0.096167
1176,0.05769,0.084657,0.048153,0.081039,0.036642,0.16819,0.090248
1177,0.071173,0.093536,0.12741,0.026119,-0.038011,0.13432,0.076435
1178,0.076764,0.10735,0.22377,-0.025842,-0.11299,0.10242,0.062952
1179,0.070187,0.11458,0.33558,-0.059716,-0.1712,0.085644,0.051113
1180,0.052099,0.11491,0.43359,-0.064978,-0.18995,0.091892,0.037629
1181,0.031381,0.11064,0.48982,-0.028144,-0.1518,0.11754,0.026119
1182,0.013951,0.10274,0.4862,0.043877,-0.050836,0.15175,0.020199
1183,-0.00051963,0.091563,0.42832,0.12511,0.085972,0.17806,0.019212
1184,-0.018278,0.075449,0.33295,0.17904,0.21522,0.18233,0.018884
1185,-0.041628,0.051441,0.22508,0.18365,0.29645,0.15799,0.016581
1186,-0.065964,0.022501,0.12938,0.14221,0.31585,0.1113,0.014937
1187,-0.079119,-0.0051238,0.061636,0.078737,0.28428,0.055059,0.01132
1188,-0.074844,-0.0265,0.030065,0.021514,0.22771,0.0014536,0.0034268
1189,-0.056427,-0.04097,0.033354,-0.014003,0.16819,-0.039984,-0.0041372
1190,-0.027158,-0.051823,0.060979,-0.026171,0.11162,-0.067609,-0.010057
1191,-0.0011774,-0.062347,0.11064,-0.020909,0.062952,-0.081092,-0.016963
1192,0.015266,-0.065635,0.17608,-0.0054526,0.025461,-0.087669,-0.026171
1193,0.018884,-0.061031,0.24087,0.013622,-0.0011774,-0.0903,-0.034393
1194,0.013951,-0.051165,0.2879,0.02875,-0.01499,-0.087341,-0.039984
1195,0.0096753,-0.046561,0.30335,0.037958,-0.018936,-0.078461,-0.040313
1196,0.0096753,-0.051165,0.28362,0.052757,-0.012688,-0.074515,-0.035708
1197,0.012306,-0.063991,0.23298,0.07216,0.0024402,-0.077146,-0.025842
1198,0.010004,-0.08471,0.1649,0.098798,0.026776,-0.077803,-0.018607
1199,0.0034268,-0.11003,0.092879,0.12807,0.055717,-0.064649,-0.014003
1200,-0.0047949,-0.13503,0.030723,0.15536,0.07808,-0.042286,-0.01203
1201,-0.0097279,-0.15279,-0.016305,0.17312,0.085972,-0.018278,-0.0064392
1202,-0.012359,-0.15772,-0.048205,0.17312,0.071831,0.00079584,0.0037556
1203,-0.011043,-0.14752,-0.068595,0.14846,0.031381,0.0093464,0.016253
1204,-0.0047949,-0.12516,-0.082736,0.10011,-0.027158,0.0077021,0.027105
1205,0.00079584,-0.094247,-0.091945,0.037629,-0.086354,-0.0041372,0.031052
1206,0.0047422,-0.065307,-0.092603,-0.020581,-0.12845,-0.017292,0.030723
1207,0.0070443,-0.042944,-0.082408,-0.054125,-0.13832,-0.022883,0.02579
1208,0.0096753,-0.026171,-0.065635,-0.051823,-0.11201,-0.012359,0.01987
1209,0.013951,-0.014661,-0.043601,-0.015976,-0.064649,0.013293,0.021186
1210,0.021186,-0.0015062,-0.021238,0.046508,-0.013017,0.04322,0.029407
1211,0.031709,0.016581,-0.0034794,0.1182,0.027763,0.062623,0.037629
1212,0.04026,0.041904,0.0070443,0.18233,0.053415,0.06624,0.034669
1213,0.039273,0.067885,0.0057288,0.21982,0.06361,0.058348,0.017568
1214,0.027763,0.087617,-0.0024928,0.21423,0.06361,0.046837,-0.007097
1215,0.015924,0.10209,-0.01203,0.16293,0.058676,0.035656,-0.034064
1216,0.0090175,0.11557,-0.016305,0.081368,0.04618,0.028092,-0.055112
1217,0.0060577,0.13201,-0.017621,-0.0038083,0.023817,0.02283,-0.066951
1218,0.0083598,0.14747,-0.018607,-0.069582,-0.0087413,0.015266,-0.07024
1219,0.018226,0.15569,-0.021896,-0.10346,-0.042944,0.0047422,-0.063004
1220,0.035985,0.15799,-0.030118,-0.10543,-0.067609,-0.0067681,-0.047219
1221,0.053415,0.15503,-0.039326,-0.084381,-0.069911,-0.014003,-0.029131
1222,0.070187,0.14616,-0.051494,-0.047877,-0.045574,-0.012359,-0.014661
1223,0.081368,0.13563,-0.059716,-0.002164,-0.0015062,-0.002164,-0.0057815
1224,0.083999,0.13103,-0.063991,0.04026,0.043877,0.012964,0.010004
1225,0.077422,0.13695,-0.068595,0.0692,0.073804,0.028421,0.033025
1226,0.068214,0.14879,-0.077146,0.077093,0.078737,0.039273,0.055059
1227,0.058676,0.15767,-0.093589,0.065912,0.057361,0.045851,0.070516
1228,0.048482,0.15569,-0.11497,0.036314,0.019541,0.052099,0.080053
1229,0.038287,0.14451,-0.13601,-0.0041372,-0.024856,0.054072,0.087288
1230,0.029736,0.133,-0.14752,-0.041299,-0.063004,0.047495,0.087617
1231,0.020199,0.12478,-0.14489,-0.064978,-0.086683,0.03434,0.080382
1232,0.017568,0.1113,-0.12812,-0.079119,-0.10115,0.019212,0.068214
1233,0.02283,0.091563,-0.10576,-0.094247,-0.11562,0.0054,0.052757
1234,0.031709,0.068543,-0.083723,-0.11595,-0.13733,-0.0090702,0.035327
1235,0.039931,0.05177,-0.065635,-0.13404,-0.1541,-0.024198,0.021186
1236,0.045522,0.044535,-0.052152,-0.137,-0.14555,-0.034722,0.018884
1237,0.05473,0.045522,-0.036366,-0.11431,-0.099838,-0.036037,0.030394
1238,0.067556,0.052099,-0.010715,-0.063662,-0.025842,-0.024527,0.048482
1239,0.080053,0.063281,0.025132,0.0044134,0.054072,-0.0034794,0.064596
1240,0.082684,0.071831,0.063938,0.076106,0.12149,0.021843,0.066569
1241,0.065583,0.067556,0.09551,0.13629,0.16095,0.046508,0.055059
1242,0.03434,0.047824,0.10899,0.16753,0.16589,0.061965,0.036642
1243,-0.0034794,0.021514,0.10077,0.15569,0.13629,0.061636,0.01987
1244,-0.036695,-0.00051963,0.078409,0.1034,0.084986,0.045522,0.010004
1245,-0.053796,-0.010386,0.052757,0.031709,0.032367,0.01691,0.0057288
1246,-0.048863,-0.0080836,0.036971,-0.036037,-0.0051238,-0.014661,0.0057288
1247,-0.028144,0.0014536,0.0373,-0.084381,-0.020909,-0.038339,0.0073732
1248,-0.0011774,0.015595,0.05177,-0.1051,-0.019923,-0.051165,0.0090175
1249,0.01987,0.029078,0.07216,-0.097864,-0.012359,-0.053796,0.010662
1250,0.032367,0.037629,0.093208,-0.069911,-0.0015062,-0.046561,0.010662
1251,0.035985,0.039931,0.11064,-0.02946,0.012964,-0.039326,0.011977
1252,0.037958,0.041247,0.12577,0.017239,0.032696,-0.039326,0.014608
1253,0.045851,0.041904,0.13136,0.060321,0.056046,-0.045574,0.022501
1254,0.057032,0.037629,0.13004,0.092221,0.073804,-0.05281,0.032696
1255,0.064596,0.031709,0.12609,0.10538,0.078409,-0.059387,0.038287
1256,0.060979,0.026119,0.1205,0.095181,0.067227,-0.069911,0.035656
1257,0.046837,0.023159,0.10932,0.067556,0.036971,-0.087998,0.02579
1258,0.030065,0.023488,0.095181,0.033683,-0.013017,-0.11398,0.013622
1259,0.015924,0.026776,0.083342,0.0077021,-0.065635,-0.13766,0.0037556
1260,0.010333,0.033683,0.07512,0.0030979,-0.092603,-0.15081,0.0044134
1261,0.015266,0.044535,0.062294,0.021186,-0.069582,-0.14621,0.013622
1262,0.030723,0.057032,0.04026,0.053086,-0.0038083,-0.12121,0.026447
1263,0.048153,0.065912,0.0037556,0.077751,0.073804,-0.079777,0.032367
1264,0.055717,0.066898,-0.038339,0.084657,0.13201,-0.029131,0.031709
1265,0.052757,0.056703,-0.071884,0.073147,0.15339,0.021843,0.034011
1266,0.042233,0.038287,-0.094247,0.04881,0.14122,0.061636,0.036314
1267,0.027434,0.018884,-0.1051,0.017568,0.10472,0.089261,0.028092
1268,0.013293,0.010662,-0.10806,-0.0061104,0.071173,0.10669,0.010333
1269,0.0030979,0.018884,-0.10411,-0.0074258,0.061307,0.11985,-0.00051963
1270,-0.00019077,0.040918,-0.092274,0.015924,0.074133,0.13037,0.0017824
1271,0.0024402,0.065254,-0.07287,0.053415,0.094194,0.13695,0.015924
1272,0.010004,0.082355,-0.049192,0.088275,0.10505,0.13958,0.032696
1273,0.020528,0.088932,-0.028802,0.10406,0.095181,0.13859,0.042562
1274,0.030394,0.082355,-0.014332,0.081697,0.059334,0.14122,0.048482
1275,0.034669,0.069858,-0.0034794,0.019212,0.0060577,0.1478,0.051441
1276,0.030394,0.049797,0.0057288,-0.063991,-0.04985,0.15964,0.051441
1277,0.017239,0.021843,0.023817,-0.13075,-0.086354,0.17246,0.050126
1278,-0.0024928,-0.0074258,0.052757,-0.14983,-0.091616,0.17838,0.04881
1279,-0.023869,-0.02946,0.088932,-0.11529,-0.062018,0.17279,0.044535
1280,-0.038997,-0.036366,0.12116,-0.051823,-0.0018351,0.15175,0.036642
1281,-0.043272,-0.030775,0.14221,0.012635,0.070845,0.1205,0.02579
1282,-0.033735,-0.016305,0.14879,0.060321,0.13432,0.081697,0.013293
1283,-0.01795,-0.0018351,0.1432,0.085315,0.16424,0.038944,0.0034268
1284,-0.0047949,0.0030979,0.12971,0.090905,0.15536,-0.0015062,-0.00051963
1285,0.0001381,-0.007097,0.11097,0.080711,0.12149,-0.025185,-0.0008485
1286,-0.0080836,-0.022554,0.092221,0.061965,0.082026,-0.032091,0.002769
1287,-0.021238,-0.035708,0.078409,0.036314,0.04881,-0.032091,0.0083598
1288,-0.033078,-0.042615,0.074462,0.0090175,0.023817,-0.036037,0.015595
1289,-0.034064,-0.042286,0.075449,-0.015319,0.0001381,-0.046561,0.020528
1290,-0.02354,-0.039984,0.077093,-0.039326,-0.033735,-0.068595,0.01987
1291,-0.0084125,-0.039326,0.076106,-0.067937,-0.083394,-0.10313,0.014279
1292,0.0014536,-0.037024,0.071502,-0.10378,-0.13897,-0.13799,0.00046697
1293,0.0060577,-0.027158,0.067885,-0.13207,-0.18337,-0.15969,-0.01499
1294,0.01132,-0.0047949,0.068214,-0.12483,-0.20146,-0.16134,-0.026171
1295,0.022501,0.034011,0.070845,-0.062676,-0.1962,-0.14752,-0.022225
1296,0.035656,0.080382,0.074133,0.042891,-0.18567,-0.12713,-0.0054526
1297,0.044535,0.11853,0.07216,0.15602,-0.17712,-0.10872,0.01691
1298,0.045522,0.13497,0.060979,0.23396,-0.16199,-0.094576,0.037958
1299,0.040589,0.12774,0.044206,0.26356,-0.12615,-0.082079,0.051113
1300,0.0373,0.10209,0.029078,0.25468,-0.071884,-0.069911,0.056374
1301,0.038616,0.066569,0.020528,0.2241,-0.0084125,-0.057414,0.058348
1302,0.040589,0.029736,0.018884,0.18693,0.044206,-0.041957,0.053086
1303,0.035985,-0.0024928,0.018555,0.15043,0.062952,-0.02354,0.036642
1304,0.028092,-0.028144,0.016253,0.12313,0.046837,-0.0018351,0.013293
1305,0.01987,-0.049192,0.010662,0.10735,0.021843,0.018884,-0.0054526
1306,0.011648,-0.070568,0.0021113,0.10307,0.0080309,0.030394,-0.013674
1307,0.0040845,-0.095233,-0.0087413,0.10866,0.0070443,0.026119,-0.019265
1308,-0.0024928,-0.1199,-0.021238,0.12577,0.013622,0.010333,-0.028144
1309,-0.011043,-0.14062,-0.034064,0.15997,0.026119,-0.0047949,-0.039326
1310,-0.021567,-0.15147,-0.044259,0.20305,0.046508,-0.0090702,-0.050507
1311,-0.027487,-0.14851,-0.048205,0.23725,0.07808,0.0070443,-0.054783
1312,-0.023211,-0.1347,-0.044259,0.23232,0.11491,0.049468,-0.040313
1313,-0.0074258,-0.11825,-0.033406,0.16852,0.1501,0.11491,-0.0008485
1314,0.017897,-0.10477,-0.025185,0.055388,0.17411,0.18299,0.051113
1315,0.044864,-0.097536,-0.023869,-0.072213,0.17871,0.22739,0.097483
1316,0.066898,-0.097207,-0.031433,-0.16956,0.16819,0.22804,0.12412
1317,0.077093,-0.10378,-0.043601,-0.20935,0.15734,0.18792,0.12807
1318,0.077751,-0.11102,-0.055112,-0.18534,0.16227,0.12379,0.11491
1319,0.073147,-0.1074,-0.061689,-0.11497,0.18562,0.060321,0.092879
1320,0.065912,-0.091287,-0.060045,-0.037682,0.21226,0.015924,0.071502
1321,0.056703,-0.068924,-0.054783,0.0054,0.231,0.0034268,0.062294
1322,0.049468,-0.046232,-0.055112,-0.007097,0.23594,0.027434,0.067885
1323,0.040918,-0.02946,-0.060702,-0.056427,0.22673,0.074791,0.081697
1324,0.032367,-0.018607,-0.065635,-0.10773,0.20436,0.12938,0.086301
1325,0.027105,-0.013345,-0.06432,-0.13174,0.17312,0.18595,0.07512
1326,0.024145,-0.010715,-0.05544,-0.11628,0.13464,0.22804,0.057361
1327,0.019212,-0.0084125,-0.045246,-0.072542,0.089261,0.23528,0.042233
1328,0.010004,-0.0051238,-0.035708,-0.027487,0.04026,0.19516,0.030723
1329,-0.0018351,0.002769,-0.027487,-0.0008485,-0.010386,0.11952,0.018226
1330,-0.013017,0.016581,-0.022225,0.0014536,-0.056427,0.029078,0.0073732
1331,-0.020581,0.035656,-0.018607,-0.012688,-0.092931,-0.051165,-0.0051238
1332,-0.025514,0.058348,-0.01795,-0.031762,-0.11628,-0.10806,-0.018607
1333,-0.027487,0.079066,-0.019265,-0.049521,-0.13174,-0.14062,-0.027158
1334,-0.023211,0.091892,-0.024856,-0.066622,-0.14588,-0.15147,-0.023869
1335,-0.01499,0.095181,-0.034064,-0.089972,-0.16693,-0.14489,-0.0064392
1336,-0.004466,0.090905,-0.04097,-0.11661,-0.19192,-0.13272,0.016581
1337,0.0063866,0.08367,-0.039655,-0.13305,-0.21363,-0.1268,0.036642
1338,0.016253,0.076435,-0.031104,-0.12779,-0.22218,-0.13075,0.047495
1339,0.022172,0.067885,-0.016963,-0.097207,-0.21363,-0.13667,0.045851
1340,0.024803,0.057361,-0.0057815,-0.048863,-0.18929,-0.13766,0.028421
1341,0.024474,0.04618,-0.0015062,0.00079584,-0.1564,-0.13305,0.0067154
1342,0.01987,0.038616,-0.0024928,0.038944,-0.11891,-0.12319,-0.0061104
1343,0.013293,0.036971,-0.0074258,0.059663,-0.084381,-0.10839,-0.0054526
1344,0.0093464,0.048153,-0.018278,0.059005,-0.058071,-0.090629,0.0047422
1345,0.013622,0.064925,-0.027158,0.04618,-0.04393,-0.073199,0.015924
1346,0.026119,0.081697,-0.025514,0.027434,-0.039984,-0.057085,0.014608
1347,0.039602,0.089919,-0.012359,0.010333,-0.041299,-0.039655,0.0037556
1348,0.049139,0.094194,0.0057288,0.0034268,-0.036366,-0.016305,-0.0087413
1349,0.057361,0.098469,0.019212,0.015595,-0.01499,0.019541,-0.01203
1350,0.063281,0.10077,0.026119,0.044535,0.023817,0.064596,-0.0034794
1351,0.062294,0.1034,0.032367,0.077093,0.070845,0.10801,0.012635
1352,0.049468,0.10702,0.042891,0.096496,0.10439,0.13991,0.026447
1353,0.030394,0.1159,0.059005,0.09551,0.11097,0.15175,0.033683
1354,0.013293,0.12478,0.080711,0.081368,0.096496,0.1455,0.034998
1355,0.0054,0.12511,0.10538,0.06361,0.082355,0.13464,0.036971
1356,0.0080309,0.11754,0.12807,0.050455,0.08663,0.12774,0.04618
1357,0.01691,0.10899,0.1501,0.044206,0.11228,0.12905,0.062294
1358,0.030065,0.10143,0.17674,0.048153,0.14616,0.13596,0.083013
1359,0.041247,0.097483,0.21982,0.064267,0.17378,0.13629,0.095839
1360,0.047166,0.10011,0.28658,0.092879,0.18003,0.11985,0.096167
1361,0.046508,0.11064,0.36189,0.12445,0.16161,0.085972,0.089261
1362,0.047495,0.1205,0.41813,0.14714,0.1182,0.049139,0.083013
1363,0.053743,0.12412,0.42635,0.14912,0.058676,0.026447,0.074791
1364,0.063281,0.11689,0.37636,0.11787,-0.0077547,0.02579,0.059005
1365,0.064925,0.098141,0.28165,0.049139,-0.065964,0.048482,0.036971
1366,0.053415,0.071502,0.16983,-0.04393,-0.10082,0.092221,0.017239
1367,0.029736,0.041247,0.068214,-0.13832,-0.10313,0.14846,0.0050711
1368,0.0001381,0.015595,-0.0051238,-0.2031,-0.081421,0.1991,-0.0015062
1369,-0.0265,-0.0015062,-0.043272,-0.22283,-0.055769,0.21851,-0.0041372
1370,-0.045903,-0.01203,-0.054125,-0.1985,-0.044588,0.20272,-0.0038083
1371,-0.054125,-0.011701,-0.050836,-0.14983,-0.051165,0.16095,-0.0031506
1372,-0.05281,0.00046697,-0.041299,-0.092931,-0.068595,0.10866,-0.0051238
1373,-0.049192,0.018555,-0.026829,-0.044588,-0.086025,0.060979,-0.0093991
1374,-0.04985,0.033025,-0.010057,-0.0038083,-0.087669,0.026119,-0.017621
1375,-0.051494,0.038944,0.0077021,0.040918,-0.054454,0.0093464,-0.024856
1376,-0.04689,0.041904,0.027434,0.10077,0.01987,0.0086887,-0.021238
1377,-0.031433,0.047495,0.04881,0.18167,0.11721,0.015266,-0.0057815
1378,-0.0034794,0.062952,0.066569,0.27211,0.19055,0.015595,0.021186
1379,0.028421,0.08367,0.076106,0.34315,0.1991,-0.0015062,0.047495
1380,0.053086,0.10044,0.0692,0.36288,0.12478,-0.037353,0.058019
1381,0.064596,0.10176,0.044535,0.31651,-0.021238,-0.088985,0.048153
1382,0.064925,0.082026,0.0037556,0.20996,-0.19685,-0.14719,0.022501
1383,0.05769,0.045522,-0.050836,0.070187,-0.35372,-0.19587,-0.0077547
1384,0.042233,0.0024402,-0.1097,-0.068266,-0.44844,-0.22185,-0.034722
1385,0.017568,-0.036037,-0.16594,-0.17054,-0.45797,-0.21955,-0.048863
1386,-0.013345,-0.062676,-0.21461,-0.21626,-0.38398,-0.1962,-0.045574
1387,-0.042944,-0.071884,-0.24881,-0.19948,-0.25737,-0.16002,-0.034722
1388,-0.059058,-0.063662,-0.25967,-0.13207,-0.11233,-0.11497,-0.022883
1389,-0.055769,-0.039984,-0.24914,-0.029789,0.020199,-0.063662,-0.0090702
1390,-0.033735,-0.0031506,-0.21626,0.083013,0.12346,-0.018607,0.011648
1391,-0.0034794,0.041247,-0.16331,0.18069,0.18365,0.0050711,0.037629
1392,0.025461,0.083999,-0.099838,0.24087,0.1991,0.0030979,0.060979
1393,0.043877,0.11952,-0.047548,0.25731,0.1843,-0.018278,0.074462
1394,0.045193,0.13958,-0.028473,0.22771,0.1626,-0.045574,0.077751
1395,0.031052,0.13695,-0.057085,0.15602,0.15372,-0.065307,0.076435
1396,0.0083598,0.11031,-0.12911,0.062623,0.17049,-0.066951,0.076435
1397,-0.014003,0.074462,-0.21757,-0.022225,0.20765,-0.047219,0.080053
1398,-0.028473,0.044864,-0.28927,-0.076159,0.24613,-0.014003,0.085315
1399,-0.030447,0.027763,-0.32018,-0.094247,0.26323,0.022501,0.096167
1400,-0.0265,0.020199,-0.30078,-0.084381,0.24547,0.050784,0.10965
1401,-0.023869,0.016253,-0.24651,-0.062676,0.1968,0.062623,0.11853
1402,-0.024856,0.012964,-0.18337,-0.043601,0.13728,0.061965,0.11919
1403,-0.026171,0.0093464,-0.13141,-0.031104,0.096496,0.059992,0.11327
1404,-0.025185,0.0040845,-0.095891,-0.013017,0.092879,0.069858,0.10932
1405,-0.016963,-0.0015062,-0.071555,0.017239,0.12971,0.096167,0.11064
1406,-0.0031506,-0.0090702,-0.054783,0.058348,0.18529,0.13234,0.11524
1407,0.016581,-0.01795,-0.044588,0.098798,0.22706,0.16654,0.12281
1408,0.035656,-0.027158,-0.042286,0.12609,0.231,0.19022,0.12642
1409,0.04881,-0.030775,-0.048863,0.13201,0.18924,0.20042,0.12182
1410,0.052757,-0.030775,-0.056427,0.11952,0.11294,0.19384,0.10998
1411,0.049139,-0.026829,-0.054454,0.099127,0.026447,0.17312,0.091234
1412,0.042891,-0.021896,-0.041957,0.076435,-0.054125,0.13991,0.06624
1413,0.031381,-0.019594,-0.016634,0.055388,-0.10872,0.1011,0.038287
1414,0.018226,-0.024198,0.022501,0.040918,-0.12253,0.065912,0.017239
1415,0.0093464,-0.034064,0.088275,0.040918,-0.094905,0.047824,0.0060577
1416,0.0070443,-0.041628,0.19647,0.06065,-0.043601,0.047495,-0.0024928
1417,0.010991,-0.036037,0.33788,0.093536,0.0040845,0.058348,-0.018936
1418,0.01987,-0.013017,0.47798,0.12313,0.031052,0.0692,-0.043601
1419,0.028092,0.024474,0.56513,0.13826,0.032696,0.078409,-0.06136
1420,0.034669,0.068214,0.56447,0.13169,0.011648,0.085644,-0.066293
1421,0.0373,0.10209,0.47667,0.10538,-0.019594,0.088932,-0.062018
1422,0.03434,0.11689,0.32736,0.068543,-0.050507,0.087946,-0.053138
1423,0.028092,0.11426,0.16359,0.028421,-0.075173,0.086301,-0.042286
1424,0.021186,0.097812,0.024474,-0.0084125,-0.096549,0.080053,-0.033078
1425,0.013951,0.072818,-0.069253,-0.039326,-0.11694,0.062623,-0.029789
1426,0.0067154,0.043877,-0.11858,-0.06136,-0.13733,0.039602,-0.036695
1427,0.0011247,0.018555,-0.13864,-0.076817,-0.15344,0.01691,-0.064978
1428,-0.0041372,0.00079584,-0.14193,-0.088656,-0.16232,-0.0061104,-0.10378
1429,-0.0093991,-0.0097279,-0.1393,-0.090629,-0.16134,-0.030447,-0.13272
1430,-0.015648,-0.018936,-0.13207,-0.084052,-0.14917,-0.05281,-0.13667
1431,-0.017292,-0.029789,-0.1097,-0.068595,-0.12812,-0.06432,-0.11562
1432,-0.011701,-0.040641,-0.071226,-0.050179,-0.097864,-0.061689,-0.083065
1433,-0.0038083,-0.051494,-0.021238,-0.034064,-0.054125,-0.048205,-0.047548
1434,0.0073732,-0.063333,0.038287,-0.016634,0.0047422,-0.030447,-0.014003
1435,0.021514,-0.069911,0.10702,0.012306,0.073476,-0.010715,0.018226
1436,0.032038,-0.073857,0.18397,0.055059,0.13399,0.010991,0.04881
1437,0.034669,-0.076817,0.26521,0.098141,0.16753,0.030723,0.070845
1438,0.026776,-0.076159,0.34676,0.12609,0.17049,0.040918,0.080382
1439,0.013622,-0.073199,0.42175,0.13464,0.15043,0.039602,0.075778
1440,-0.00051963,-0.065964,0.4816,0.12774,0.1182,0.031709,0.060979
1441,-0.0084125,-0.052481,0.5135,0.11097,0.085644,0.028421,0.050784
1442,-0.0077547,-0.034064,0.50626,0.08959,0.058348,0.029407,0.049139
1443,-0.002164,-0.014661,0.45299,0.065583,0.032367,0.026776,0.052099
1444,0.0054,-0.0008485,0.35827,0.038287,0.0060577,0.0083598,0.052099
1445,0.012635,0.0070443,0.23988,0.0093464,-0.024198,-0.026171,0.045193
1446,0.023159,0.0090175,0.12248,-0.018278,-0.057414,-0.069253,0.029078
1447,0.037629,0.0080309,0.025132,-0.038339,-0.089972,-0.11201,0.0014536
1448,0.055717,0.0054,-0.04393,-0.042944,-0.1074,-0.14654,-0.026829
1449,0.073147,0.0073732,-0.079448,-0.032749,-0.097864,-0.16528,-0.042944
1450,0.085972,0.014608,-0.086025,-0.01203,-0.064978,-0.16561,-0.038011
1451,0.088932,0.024803,-0.073857,0.0083598,-0.019265,-0.14983,-0.015319
1452,0.08367,0.032367,-0.053138,0.019212,0.023817,-0.12352,0.011648
1453,0.077093,0.040918,-0.03538,0.023488,0.054072,-0.096878,0.027434
1454,0.071502,0.051441,-0.026171,0.025132,0.065583,-0.076488,0.026776
1455,0.066569,0.065254,-0.028473,0.02875,0.062623,-0.063991,0.018555
1456,0.059992,0.079066,-0.038997,0.038944,0.052099,-0.058729,0.012635
1457,0.05177,0.087946,-0.051165,0.055059,0.042233,-0.056756,0.013951
1458,0.041575,0.086959,-0.061689,0.070845,0.034998,-0.053138,0.021843
1459,0.032367,0.076435,-0.066951,0.075449,0.030394,-0.046232,0.032696
1460,0.027763,0.06361,-0.070897,0.06361,0.024474,-0.036037,0.042562
1461,0.032367,0.055059,-0.076817,0.038287,0.0086887,-0.020252,0.047166
1462,0.040918,0.050455,-0.086025,0.002769,-0.018278,-0.0074258,0.047495
1463,0.050126,0.047495,-0.098851,-0.034064,-0.049521,-0.0057815,0.048153
1464,0.053415,0.045851,-0.11529,-0.063004,-0.07287,-0.013345,0.050784
1465,0.047824,0.045193,-0.13338,-0.078461,-0.076159,-0.015319,0.057032
1466,0.039602,0.043877,-0.15048,-0.081092,-0.055112,-0.002164,0.065583
1467,0.031381,0.042233,-0.16364,-0.072542,-0.013345,0.02283,0.064925
1468,0.024803,0.038944,-0.16923,-0.052481,0.035656,0.050784,0.051441
1469,0.021843,0.034669,-0.16726,-0.030118,0.079724,0.07512,0.037629
1470,0.023488,0.029736,-0.16002,-0.01203,0.11327,0.085644,0.033683
1471,0.027434,0.021843,-0.15246,-0.0018351,0.13201,0.082026,0.042233
1472,0.02875,0.012635,-0.14358,0.0054,0.13201,0.0692,0.055717
1473,0.027105,0.0090175,-0.13634,0.012306,0.10932,0.052099,0.067556
1474,0.027105,0.013951,-0.12878,0.023159,0.066569,0.03434,0.0692
1475,0.029407,0.02579,-0.11431,0.039273,0.013951,0.019541,0.064267
1476,0.030065,0.037629,-0.095562,0.06361,-0.03538,0.0073732,0.052757
1477,0.029078,0.049139,-0.079777,0.083342,-0.079119,-0.0093991,0.036314
1478,0.026119,0.056046,-0.077146,0.075778,-0.12056,-0.036037,0.017568
1479,0.020857,0.054401,-0.086354,0.038616,-0.15344,-0.068266,0.0050711
1480,0.013951,0.045193,-0.098851,-0.0034794,-0.16134,-0.090629,0.0030979
1481,0.0080309,0.034669,-0.10346,-0.019594,-0.13338,-0.096549,0.014279
1482,0.0050711,0.02579,-0.095562,0.0090175,-0.082408,-0.083723,0.031709
1483,0.0030979,0.023159,-0.079119,0.067885,-0.026171,-0.060373,0.044535
1484,0.00046697,0.027434,-0.060702,0.11787,0.030723,-0.026171,0.050455
1485,-0.0038083,0.034011,-0.049521,0.12412,0.091234,0.020199,0.056374
1486,-0.007097,0.035656,-0.04393,0.079724,0.15076,0.074791,0.070516
1487,-0.0087413,0.02875,-0.041299,-0.00019077,0.18858,0.12544,0.088275
1488,-0.0097279,0.016581,-0.04097,-0.086354,0.19384,0.15865,0.098141
1489,-0.0097279,0.0054,-0.041957,-0.13799,0.18069,0.17674,0.099785
1490,-0.0087413,0.0021113,-0.038997,-0.12878,0.17378,0.18397,0.097812
1491,-0.0057815,0.0073732,-0.028144,-0.06728,0.18299,0.18365,0.089919
1492,0.0001381,0.021186,-0.014332,0.01691,0.20535,0.1751,0.074791
1493,0.014279,0.037629,0.0021113,0.097812,0.22739,0.16095,0.053743
1494,0.029736,0.049139,0.018226,0.15734,0.23594,0.14385,0.036314
1495,0.042233,0.055059,0.036314,0.19549,0.22837,0.12445,0.031381
1496,0.050455,0.056374,0.055388,0.22147,0.21259,0.10669,0.03434
1497,0.054072,0.057361,0.071502,0.24087,0.19483,0.091234,0.034669
1498,0.051441,0.055388,0.084328,0.23824,0.1695,0.074791,0.028421
1499,0.042233,0.045193,0.088275,0.18562,0.12215,0.057032,0.015595
1500,0.029736,0.027763,0.082026,0.074133,0.047824,0.043877,-0.002164
1501,0.013622,0.0063866,0.065583,-0.066951,-0.035708,0.037629,-0.015648
1502,0.0021113,-0.012688,0.04618,-0.1814,-0.095891,0.040918,-0.018278
1503,-0.0038083,-0.022883,0.032038,-0.22612,-0.11135,0.051441,-0.010715
1504,-0.0047949,-0.021238,0.023817,-0.19258,-0.080106,0.061965,0.0024402
1505,-0.0024928,-0.012688,0.022172,-0.10937,-0.024198,0.06065,0.020857
1506,0.00046697,-0.004466,0.025132,-0.01499,0.02579,0.044864,0.028421
1507,0.0014536,-0.0024928,0.026776,0.059992,0.047824,0.017239,0.019212
1508,0.0030979,-0.004466,0.025132,0.10373,0.041575,-0.016305,-0.0034794
1509,0.0054,-0.0067681,0.021843,0.11754,0.013951,-0.050179,-0.030447
1510,0.0086887,-0.007097,0.01987,0.11228,-0.024198,-0.077146,-0.051494
1511,0.011648,-0.0034794,0.018555,0.10209,-0.064649,-0.091945,-0.06136
1512,0.015595,0.0030979,0.020528,0.098141,-0.093589,-0.092274,-0.062347
1513,0.023159,0.012306,0.027763,0.10834,-0.10148,-0.077803,-0.053796
1514,0.03434,0.020199,0.037629,0.13366,-0.083723,-0.050836,-0.039655
1515,0.046508,0.02579,0.044535,0.15964,-0.054454,-0.02354,-0.01795
1516,0.057361,0.030723,0.046508,0.16852,-0.043601,-0.0047949,0.0077021
1517,0.065912,0.032696,0.041575,0.14352,-0.071226,0.002769,0.027763
1518,0.071173,0.029736,0.033025,0.084328,-0.11924,0.0054,0.038616
1519,0.074133,0.02283,0.025132,0.0096753,-0.14687,0.015924,0.04026
1520,0.072818,0.014937,0.022172,-0.0584,-0.12089,0.044535,0.033354
1521,0.068871,0.0080309,0.022172,-0.10313,-0.045246,0.087617,0.023817
1522,0.059334,0.0011247,0.019541,-0.11595,0.055059,0.13103,0.014279
1523,0.041904,-0.0067681,0.014279,-0.10346,0.15273,0.15931,0.0063866
1524,0.020199,-0.014661,0.0060577,-0.084381,0.2287,0.16523,0.0021113
1525,0.0014536,-0.021238,0.0001381,-0.073528,0.26915,0.15569,-0.0011774
1526,-0.0028217,-0.020909,0.0047422,-0.076488,0.26751,0.13925,0.0024402
1527,0.0037556,-0.011372,0.019212,-0.094576,0.22245,0.12478,0.011977
1528,0.015266,0.0070443,0.040589,-0.11891,0.14681,0.1159,0.023817
1529,0.024474,0.023817,0.060979,-0.13832,0.061307,0.10636,0.031052
1530,0.029078,0.031052,0.073804,-0.14489,-0.010715,0.094852,0.033354
1531,0.027434,0.024145,0.080711,-0.14095,-0.056427,0.077751,0.032367
1532,0.02283,0.010004,0.082684,-0.12615,-0.071226,0.055388,0.030723
1533,0.017897,0.00046697,0.082355,-0.1005,-0.057743,0.029407,0.033683
1534,0.016581,0.0024402,0.085644,-0.059716,-0.017621,0.0083598,0.038287
1535,0.020528,0.013293,0.093536,-0.0057815,0.039931,0.00079584,0.040589
1536,0.025132,0.030394,0.10472,0.052099,0.094852,0.0073732,0.041247
1537,0.027105,0.047166,0.11426,0.10044,0.13037,0.02283,0.048153
1538,0.025132,0.058019,0.12116,0.12873,0.13859,0.042891,0.057032
1539,0.022172,0.060979,0.12445,0.13958,0.12313,0.063938,0.062294
1540,0.018884,0.058019,0.12609,0.13629,0.09551,0.078409,0.057361
1541,0.014608,0.05473,0.12083,0.12445,0.064596,0.082355,0.04881
1542,0.011977,0.055717,0.10735,0.10406,0.033354,0.074462,0.044535
1543,0.012306,0.067885,0.083999,0.073476,0.0067154,0.059992,0.048482
1544,0.016253,0.088275,0.052428,0.038944,-0.010386,0.047495,0.055717
1545,0.020199,0.10603,0.020528,0.010991,-0.021238,0.038616,0.062294
1546,0.024145,0.1159,-0.0057815,-0.0067681,-0.031104,0.028092,0.063281
1547,0.027763,0.11458,-0.024198,-0.0097279,-0.046232,0.010662,0.057361
1548,0.028092,0.10472,-0.034722,0.0021113,-0.064649,-0.015648,0.045851
1549,0.025132,0.08959,-0.028473,0.028092,-0.080434,-0.04985,0.032696
1550,0.025461,0.076435,-0.0031506,0.060979,-0.093589,-0.084381,0.022172
1551,0.029736,0.071173,0.03434,0.084986,-0.10872,-0.11135,0.012306
1552,0.036314,0.071502,0.071502,0.093208,-0.12878,-0.13141,0.0057288
1553,0.041904,0.076435,0.09551,0.084986,-0.15246,-0.14851,0.0044134
1554,0.045193,0.081697,0.10899,0.071173,-0.18107,-0.16331,0.00079584
1555,0.048482,0.078737,0.11787,0.05769,-0.21132,-0.17449,-0.0093991
1556,0.050784,0.064925,0.12642,0.049139,-0.23796,-0.1814,-0.020581
1557,0.047166,0.040589,0.13037,0.040589,-0.25572,-0.18469,-0.023869
1558,0.035327,0.012964,0.12445,0.035985,-0.26131,-0.18337,-0.012359
1559,0.014279,-0.010386,0.11064,0.039602,-0.25243,-0.17548,0.0096753
1560,-0.010715,-0.023211,0.09255,0.049139,-0.23402,-0.16495,0.034011
1561,-0.029131,-0.026171,0.071173,0.06065,-0.21659,-0.16035,0.050126
1562,-0.037682,-0.025514,0.051441,0.063281,-0.20179,-0.16495,0.052757
1563,-0.038011,-0.025842,0.03434,0.055388,-0.17942,-0.1735,0.038944
1564,-0.033735,-0.030118,0.020857,0.049797,-0.14292,-0.17909,0.010991
1565,-0.026829,-0.040313,0.0086887,0.055717,-0.091945,-0.17581,-0.01499
1566,-0.022883,-0.058729,-0.0011774,0.07808,-0.032091,-0.15903,-0.027487
1567,-0.022883,-0.083394,-0.010715,0.10801,0.026776,-0.12779,-0.020581
1568,-0.027158,-0.10444,-0.018936,0.13169,0.075778,-0.085696,0.0034268
1569,-0.035051,-0.1176,-0.02354,0.13432,0.10603,-0.04393,0.031709
1570,-0.043601,-0.11924,-0.027158,0.11228,0.11919,-0.0034794,0.057361
1571,-0.048205,-0.10641,-0.030447,0.073147,0.13004,0.049468,0.07808
1572,-0.048205,-0.081421,-0.032749,0.034011,0.16359,0.12938,0.090248
1573,-0.04689,-0.049521,-0.033078,0.0086887,0.2287,0.23199,0.089919
1574,-0.045246,-0.018936,-0.03242,0.0044134,0.31717,0.34512,0.083342
1575,-0.042944,0.0040845,-0.028473,0.019212,0.40169,0.45134,0.080711
1576,-0.041628,0.020528,-0.02354,0.043877,0.44806,0.53093,0.086959
1577,-0.041628,0.030723,-0.018936,0.068871,0.43687,0.56151,0.09551
1578,-0.041628,0.032367,-0.010715,0.088275,0.36979,0.53257,0.090905
1579,-0.041299,0.029736,0.0047422,0.10011,0.26849,0.45365,0.073476
1580,-0.038668,0.028421,0.025132,0.10439,0.15602,0.3494,0.049139
1581,-0.034064,0.034011,0.043549,0.098469,0.055717,0.24646,0.029407
1582,-0.026171,0.041247,0.056374,0.081039,-0.013017,0.16391,0.022501
1583,-0.016963,0.047495,0.061965,0.05473,-0.036037,0.10932,0.029407
1584,-0.0054526,0.052428,0.062294,0.027763,-0.01203,0.087288,0.042562
1585,0.0067154,0.055059,0.059005,0.0086887,0.047824,0.096825,0.054401
1586,0.021186,0.056703,0.055717,0.0017824,0.11853,0.13169,0.057361
1587,0.03434,0.055717,0.052428,0.0030979,0.17181,0.16819,0.047495
1588,0.038944,0.049468,0.04618,0.0073732,0.19088,0.19581,0.024803
1589,0.032038,0.039602,0.033354,0.011648,0.17773,0.20469,-0.0034794
1590,0.015924,0.030394,0.017897,0.01691,0.13629,0.19549,-0.028144
1591,0.0011247,0.029407,0.0017824,0.018884,0.07216,0.16359,-0.039655
1592,-0.0064392,0.04026,-0.010715,0.013293,-0.0087413,0.10965,-0.038668
1593,-0.0061104,0.058019,-0.020581,-0.0038083,-0.094247,0.033683,-0.032749
1594,-0.0008485,0.076764,-0.027487,-0.031433,-0.1689,-0.057743,-0.026829
1595,0.0086887,0.089261,-0.034722,-0.063004,-0.22382,-0.15081,-0.021238
1596,0.017239,0.092879,-0.040641,-0.087669,-0.2521,-0.22908,-0.018278
1597,0.023488,0.086959,-0.04097,-0.092931,-0.24454,-0.28071,-0.016305
1598,0.028092,0.075449,-0.029789,-0.065307,-0.20113,-0.29979,-0.011372
1599,0.033683,0.065912,-0.0074258,-0.0024928,-0.13174,-0.29223,-0.0064392
1600,0.036642,0.059334,0.015924,0.076764,-0.055769,-0.26888,-0.0061104
1601,0.034669,0.053415,0.027434,0.13695,0.0040845,-0.24092,-0.0090702
1602,0.027105,0.045522,0.017239,0.1524,0.039273,-0.21626,-0.0087413
1603,0.019541,0.036971,-0.011372,0.11919,0.047166,-0.19817,0.0037556
1604,0.016253,0.027763,-0.047548,0.053743,0.030394,-0.19093,0.029407
1605,0.01691,0.020528,-0.082079,-0.021238,-0.0074258,-0.19948,0.05177
1606,0.017897,0.017897,-0.10543,-0.081421,-0.057085,-0.22514,0.063281
1607,0.013951,0.016581,-0.11233,-0.11102,-0.1074,-0.26065,0.061965
1608,0.0040845,0.013293,-0.10082,-0.11431,-0.14654,-0.29321,0.054401
1609,-0.0074258,0.0054,-0.076817,-0.1028,-0.17252,-0.30965,0.039931
1610,-0.014003,-0.0034794,-0.04985,-0.086025,-0.1883,-0.29946,0.021843
1611,-0.014332,-0.0054526,-0.025842,-0.070568,-0.19587,-0.26427,0.0044134
1612,-0.011701,-0.0024928,-0.0077547,-0.052481,-0.19521,-0.21165,-0.0061104
1613,-0.0041372,0.0017824,0.0057288,-0.024856,-0.18173,-0.15542,-0.0087413
1614,0.0050711,0.0083598,0.017239,0.014608,-0.16035,-0.10543,-0.007097
1615,0.011977,0.01691,0.028421,0.061636,-0.13404,-0.061689,-0.0061104
1616,0.0093464,0.027434,0.039602,0.10998,-0.097536,-0.027487,-0.0041372
1617,0.00079584,0.037629,0.047824,0.15536,-0.045246,0.0014536,-0.0008485
1618,-0.0077547,0.042233,0.050455,0.18825,0.01691,0.031709,0.0001381
1619,-0.012688,0.038616,0.047824,0.19187,0.075449,0.068543,-0.0084125
1620,-0.014003,0.029407,0.041247,0.16391,0.12182,0.11097,-0.022883
1621,-0.010386,0.018884,0.034669,0.1182,0.15339,0.15503,-0.032091
1622,-0.00051963,0.010662,0.028092,0.068543,0.17575,0.19121,-0.033735
1623,0.0060577,0.0034268,0.017568,0.025461,0.19253,0.2093,-0.027487
1624,0.01132,-0.0011774,0.0040845,-0.007097,0.20009,0.20996,-0.01499
1625,0.018555,-0.004466,-0.0038083,-0.028473,0.19253,0.19483,0.0054
1626,0.027105,-0.0054526,-0.0038083,-0.039326,0.16753,0.16852,0.032696
1627,0.033683,-0.0047949,-0.0041372,-0.042615,0.12379,0.13333,0.05177
1628,0.037958,-0.0031506,-0.016305,-0.037353,0.058019,0.092221,0.047495
1629,0.043549,0.0037556,-0.044259,-0.028144,-0.022225,0.052428,0.027105
1630,0.052099,0.01132,-0.081421,-0.020909,-0.1005,0.014937,0.002769
1631,0.06624,0.014937,-0.12056,-0.018278,-0.15936,-0.01795,-0.011043
1632,0.078737,0.013293,-0.15246,-0.024856,-0.18732,-0.039984,-0.004466
1633,0.088603,0.010004,-0.16594,-0.034393,-0.18074,-0.04689,0.020857
1634,0.095839,0.0073732,-0.15443,-0.038339,-0.14522,-0.031433,0.058019
1635,0.10044,0.0080309,-0.12549,-0.030118,-0.083394,0.0011247,0.092879
1636,0.098469,0.0090175,-0.097207,-0.0057815,-0.0008485,0.041247,0.10768
1637,0.087617,0.0040845,-0.079448,0.038944,0.084328,0.077422,0.095839
1638,0.067227,-0.0077547,-0.072542,0.1034,0.15306,0.10472,0.070187
1639,0.041575,-0.018278,-0.069253,0.1751,0.19318,0.11623,0.041904
1640,0.021186,-0.024856,-0.064978,0.21883,0.19877,0.10899,0.016253
1641,0.010004,-0.025514,-0.063004,0.19187,0.17345,0.084328,-0.0031506
1642,0.010004,-0.022883,-0.065307,0.083342,0.12511,0.051113,-0.0090702
1643,0.019212,-0.016634,-0.070897,-0.071555,0.064596,0.020199,-0.0041372
1644,0.033025,-0.0041372,-0.073857,-0.21132,0.0054,-0.002164,0.0060577
1645,0.042891,0.015924,-0.066622,-0.29091,-0.042286,-0.015648,0.011977
1646,0.044206,0.039602,-0.045903,-0.29749,-0.06728,-0.019594,0.013293
1647,0.035985,0.062623,-0.018278,-0.24322,-0.068595,-0.012359,0.013622
1648,0.024145,0.081039,0.012635,-0.15575,-0.046561,0.0040845,0.018226
1649,0.018555,0.095839,0.045522,-0.063333,-0.0015062,0.02579,0.028421
1650,0.020528,0.10965,0.087288,0.012635,0.061965,0.049139,0.042891
1651,0.029407,0.12774,0.13695,0.065912,0.1307,0.071502,0.059334
1652,0.039273,0.14681,0.19318,0.10077,0.18463,0.086301,0.074791
1653,0.045522,0.16128,0.24186,0.12412,0.20469,0.088932,0.083342
1654,0.045522,0.16654,0.27376,0.13596,0.18825,0.073804,0.085644
1655,0.037958,0.15898,0.28033,0.13333,0.14451,0.049797,0.082355
1656,0.029736,0.14155,0.26257,0.11557,0.09255,0.027434,0.07512
1657,0.02283,0.11985,0.23429,0.087617,0.051113,0.013622,0.063938
1658,0.021514,0.099127,0.21456,0.05473,0.027105,0.012635,0.051113
1659,0.02283,0.085972,0.21061,0.025461,0.015266,0.018226,0.044206
1660,0.024145,0.083342,0.21851,0.0037556,0.013293,0.028421,0.04322
1661,0.026119,0.087946,0.21916,-0.0080836,0.018226,0.037958,0.042233
1662,0.027105,0.088603,0.19483,-0.011701,0.025132,0.046508,0.037958
1663,0.027763,0.080053,0.13596,-0.016634,0.032038,0.053743,0.03434
1664,0.026776,0.061636,0.047495,-0.026171,0.034998,0.058676,0.042562
1665,0.024803,0.033354,-0.045574,-0.041628,0.031381,0.059992,0.055717
1666,0.020528,0.00046697,-0.11924,-0.055112,0.022501,0.055717,0.059005
1667,0.015266,-0.034722,-0.16035,-0.063991,0.0060577,0.04618,0.04881
1668,0.0093464,-0.070568,-0.17054,-0.073199,-0.01795,0.032367,0.034669
1669,0.0040845,-0.10148,-0.15969,-0.085696,-0.051165,0.015266,0.017239
1670,0.00046697,-0.12253,-0.12483,-0.097207,-0.091616,-0.0034794,-0.0024928
1671,0.0014536,-0.13108,-0.059387,-0.1051,-0.13371,-0.021567,-0.021896
1672,0.0080309,-0.12615,0.036971,-0.1051,-0.16495,-0.037353,-0.03538
1673,0.018555,-0.10937,0.14648,-0.090629,-0.17482,-0.048534,-0.040641
1674,0.033025,-0.085039,0.24087,-0.056756,-0.16068,-0.047219,-0.032749
1675,0.044206,-0.056427,0.29842,-0.011043,-0.12154,-0.028802,-0.012359
1676,0.051441,-0.0265,0.30631,0.033025,-0.066293,0.0044134,0.013951
1677,0.05177,0.0021113,0.26126,0.062623,-0.007097,0.042562,0.036971
1678,0.049139,0.024803,0.17641,0.071502,0.046837,0.073476,0.050784
1679,0.043549,0.035656,0.070845,0.06065,0.084657,0.087617,0.051113
1680,0.037958,0.034669,-0.031762,0.030723,0.08959,0.082684,0.041904
1681,0.031052,0.022501,-0.1097,-0.015319,0.051441,0.06065,0.038944
1682,0.023817,0.0040845,-0.14884,-0.066293,-0.026171,0.030394,0.041904
1683,0.018555,-0.01203,-0.14785,-0.10872,-0.11793,0.0034268,0.046508
1684,0.016253,-0.018936,-0.11825,-0.12878,-0.1814,-0.0097279,0.048482
1685,0.019212,-0.013017,-0.073528,-0.12056,-0.18403,-0.0051238,0.044864
1686,0.02579,0.0054,-0.030447,-0.075501,-0.11891,0.01691,0.041575
1687,0.035327,0.027763,-0.0011774,0.0070443,-0.0090702,0.050126,0.04881
1688,0.044206,0.046837,0.0070443,0.12215,0.10702,0.078737,0.057361
1689,0.049468,0.057032,-0.0034794,0.24679,0.18661,0.091892,0.056374
1690,0.048153,0.058676,-0.025514,0.3415,0.20371,0.085644,0.044206
1691,0.039273,0.05177,-0.04985,0.37636,0.16654,0.065254,0.028092
1692,0.024803,0.039273,-0.072213,0.3517,0.11228,0.04322,0.021514
1693,0.0060577,0.021843,-0.086354,0.2925,0.080382,0.034011,0.025132
1694,-0.013674,0.0024402,-0.087341,0.23331,0.08663,0.038944,0.032696
1695,-0.031433,-0.018278,-0.074186,0.18825,0.11721,0.048153,0.037958
1696,-0.046232,-0.036695,-0.046561,0.15931,0.15109,0.052757,0.036314
1697,-0.056098,-0.04985,-0.0087413,0.14221,0.17279,0.049797,0.030394
1698,-0.058729,-0.054454,0.036642,0.1376,0.17937,0.040589,0.026119
1699,-0.052481,-0.049192,0.098469,0.13991,0.17674,0.031709,0.030065
1700,-0.041299,-0.031762,0.18891,0.14155,0.16983,0.02875,0.036971
1701,-0.02946,-0.0011774,0.3027,0.13596,0.15832,0.033025,0.038287
1702,-0.020252,0.037629,0.41024,0.12182,0.13958,0.040918,0.032367
1703,-0.010057,0.07216,0.47732,0.10373,0.11623,0.048153,0.02283
1704,0.0001381,0.094194,0.48489,0.088275,0.097483,0.054072,0.014937
1705,0.011977,0.10307,0.43983,0.078409,0.090248,0.062623,0.012306
1706,0.025461,0.10472,0.37636,0.07216,0.08959,0.073804,0.013293
1707,0.037958,0.10406,0.31585,0.065254,0.087946,0.085972,0.013951
1708,0.046837,0.10307,0.26389,0.05473,0.07808,0.090248,0.012964
1709,0.053415,0.098798,0.21324,0.042562,0.05769,0.084986,0.013951
1710,0.059005,0.088932,0.15734,0.032367,0.027434,0.072818,0.01691
1711,0.062952,0.07216,0.093208,0.024145,-0.0031506,0.058348,0.017568
1712,0.061965,0.053086,0.021843,0.017239,-0.022883,0.048153,0.015924
1713,0.057361,0.036314,-0.053796,0.013293,-0.022554,0.04618,0.0096753
1714,0.048482,0.024474,-0.12549,0.0086887,-0.0067681,0.048153,-0.0011774
1715,0.0373,0.014608,-0.19291,0.00046697,0.0093464,0.047166,-0.0077547
1716,0.024474,0.0060577,-0.25309,-0.014332,0.015924,0.04026,-0.0057815
1717,0.013293,0.00046697,-0.29847,-0.035708,0.0057288,0.027763,0.0070443
1718,0.0054,-0.0057815,-0.32281,-0.056756,-0.017292,0.015595,0.022172
1719,0.0030979,-0.011701,-0.32478,-0.067937,-0.043272,0.0047422,0.030065
1720,0.0047422,-0.015976,-0.3067,-0.063991,-0.063662,-0.004466,0.027434
1721,0.0093464,-0.016634,-0.27808,-0.049521,-0.073528,-0.011701,0.018884
1722,0.013951,-0.014661,-0.24684,-0.02946,-0.074186,-0.017292,0.010991
1723,0.013951,-0.0097279,-0.21757,-0.0090702,-0.068266,-0.022883,0.0080309
1724,0.0083598,0.00046697,-0.19422,0.0063866,-0.059716,-0.032749,0.014608
1725,0.0047422,0.017239,-0.17712,0.015924,-0.046232,-0.044588,0.028092
1726,0.0086887,0.039931,-0.16134,0.020199,-0.030118,-0.056098,0.045522
1727,0.017568,0.066569,-0.14423,0.021843,-0.01203,-0.061031,0.059663
1728,0.027434,0.090905,-0.12352,0.026776,0.0011247,-0.058729,0.064925
1729,0.033683,0.10735,-0.10082,0.034669,0.0057288,-0.050179,0.057361
1730,0.034011,0.10998,-0.079448,0.045522,-0.0011774,-0.037353,0.043877
1731,0.033025,0.099456,-0.063662,0.060321,-0.013017,-0.021896,0.026776
1732,0.02875,0.080053,-0.053138,0.076435,-0.023869,-0.0064392,0.0044134
1733,0.025132,0.053743,-0.045903,0.084328,-0.032749,0.0054,-0.01795
1734,0.020857,0.029078,-0.041299,0.077751,-0.039655,0.0096753,-0.031762
1735,0.017897,0.011977,-0.039984,0.056046,-0.043272,0.0054,-0.029131
1736,0.015595,0.0047422,-0.041957,0.026119,-0.041957,-0.0080836,-0.015976
1737,0.010333,0.0063866,-0.046561,0.0011247,-0.037682,-0.025842,0.0014536
1738,0.0060577,0.012635,-0.047877,-0.0077547,-0.032749,-0.044917,0.017239
1739,0.0011247,0.018884,-0.045903,-0.0034794,-0.028802,-0.061689,0.033354
1740,-0.002164,0.02283,-0.041957,0.0067154,-0.031104,-0.074186,0.050784
1741,-0.004466,0.02579,-0.033735,0.015924,-0.038011,-0.077146,0.064925
1742,-0.0054526,0.027105,-0.026171,0.015924,-0.051494,-0.071884,0.071502
1743,-0.0067681,0.025461,-0.019265,0.0093464,-0.062676,-0.057085,0.069529
1744,-0.0057815,0.01987,-0.015648,-0.00051963,-0.057085,-0.033735,0.069529
1745,0.0017824,0.017897,-0.010057,-0.0047949,-0.02354,-0.0031506,0.071173
1746,0.013951,0.024145,-0.002164,-0.0011774,0.028092,0.031052,0.070187
1747,0.021186,0.034669,0.0030979,0.0030979,0.074791,0.051441,0.061965
1748,0.017239,0.040589,0.0044134,-0.0018351,0.095839,0.055388,0.043877
1749,0.0057288,0.036642,0.0011247,-0.019594,0.086301,0.042233,0.022172
1750,-0.0084125,0.019212,-0.010057,-0.047548,0.058019,0.01691,-0.0008485
