,channel_1,channel_2,channel_3,channel_4,channel_5,channel_6,channel_7
0,0.048153,0.050126,0.0037556,0.0014536,-0.0074258,0.015266,0.055059
1,0.052428,0.047824,0.0030979,0.0083598,0.002769,0.015266,0.042233
2,0.054072,0.039602,0.0014536,0.016253,0.0090175,0.016253,0.031381
3,0.049797,0.02875,0.0030979,0.023817,0.0086887,0.017897,0.025132
4,0.041247,0.021186,0.0083598,0.031709,0.0063866,0.021843,0.024145
5,0.032367,0.017568,0.014279,0.037629,0.0044134,0.028421,0.025132
6,0.026447,0.012635,0.017239,0.040589,0.0047422,0.036642,0.023817
7,0.024474,0.0083598,0.018884,0.037958,0.0054,0.037629,0.02283
8,0.026776,0.0073732,0.020528,0.033354,0.0090175,0.029736,0.029407
9,0.02875,0.012964,0.018884,0.030723,0.013951,0.014937,0.036971
10,0.023817,0.022501,0.014279,0.030723,0.018226,0.0040845,0.036642
11,0.012964,0.031381,0.0073732,0.032696,0.022172,0.00079584,0.028421
12,0.002769,0.033683,-0.0024928,0.036642,0.026447,0.0054,0.02283
13,0.00079584,0.032367,-0.013345,0.041904,0.028092,0.011977,0.025132
14,0.0073732,0.02579,-0.022883,0.047824,0.023817,0.014937,0.038616
15,0.01691,0.019212,-0.0265,0.053743,0.014608,0.014608,0.053415
16,0.023159,0.015266,-0.024527,0.055717,0.0047422,0.013622,0.062294
17,0.025461,0.015595,-0.019265,0.050455,-0.0015062,0.012306,0.064925
18,0.021514,0.019541,-0.013674,0.044206,-0.0008485,0.0070443,0.058676
19,0.014608,0.02283,-0.0097279,0.041247,0.0050711,0.0040845,0.044206
20,0.0086887,0.021186,-0.012359,0.039931,0.010991,0.0077021,0.031709
21,0.0073732,0.011648,-0.018607,0.036314,0.012306,0.015924,0.032696
22,0.0093464,0.0014536,-0.023211,0.030065,0.0080309,0.02283,0.046508
23,0.018555,-0.0041372,-0.020252,0.02283,0.0014536,0.023159,0.065583
24,0.029078,-0.00019077,-0.013674,0.018884,-0.004466,0.017897,0.080711
25,0.04026,0.0093464,-0.0067681,0.020199,-0.0024928,0.011648,0.083013
26,0.044206,0.020528,-0.0047949,0.023817,0.0080309,0.010662,0.0692
27,0.043877,0.030394,-0.0038083,0.027105,0.019541,0.014608,0.04618
28,0.039931,0.034669,-0.004466,0.028421,0.023159,0.024145,0.022501
29,0.034998,0.03434,-0.00019077,0.026447,0.021843,0.033354,0.010004
30,0.029736,0.030394,0.0050711,0.023159,0.020857,0.039273,0.012306
31,0.022501,0.025132,0.0080309,0.020199,0.020199,0.038944,0.023488
32,0.015595,0.019541,0.0054,0.018226,0.020199,0.032367,0.036314
33,0.010333,0.013951,-0.0011774,0.018555,0.019212,0.025132,0.050784
34,0.0070443,0.011977,-0.0067681,0.02283,0.02283,0.022501,0.059663
35,-0.00051963,0.011648,-0.0090702,0.030723,0.029078,0.022172,0.055717
36,-0.0067681,0.011648,-0.007097,0.039931,0.035656,0.023159,0.040589
37,-0.0084125,0.012306,-0.0034794,0.043877,0.038616,0.021186,0.021186
38,-0.0047949,0.017568,-0.00051963,0.041575,0.039273,0.018226,0.010333
39,0.0021113,0.021186,0.0034268,0.038287,0.036971,0.020199,0.0096753
40,0.011648,0.018884,0.0080309,0.035656,0.030723,0.029736,0.010662
41,0.020199,0.0096753,0.013951,0.033354,0.025461,0.041575,0.010662
42,0.027763,-0.00051963,0.015595,0.031381,0.021186,0.052428,0.0080309
43,0.029407,-0.002164,0.0093464,0.029736,0.01691,0.05769,0.0047422
44,0.02579,0.0047422,-0.0008485,0.030394,0.013293,0.05473,0.0067154
45,0.02283,0.013951,-0.004466,0.033025,0.011648,0.042891,0.017239
46,0.02579,0.021843,-0.0008485,0.034998,0.0093464,0.031381,0.028421
47,0.032367,0.02579,0.0090175,0.033354,0.0047422,0.024474,0.026447
48,0.037629,0.024803,0.018555,0.02875,0.0017824,0.019212,0.010662
49,0.039273,0.014279,0.025132,0.022172,0.0021113,0.014608,-0.0041372
50,0.037958,-0.0015062,0.026776,0.01691,0.0011247,0.011648,-0.013345
51,0.037629,-0.011372,0.023817,0.014608,0.0044134,0.010662,-0.013017
52,0.037958,-0.010057,0.024145,0.015924,0.013622,0.012306,-0.0011774
53,0.039273,0.00079584,0.027434,0.024145,0.02875,0.015266,0.019212
54,0.038616,0.014279,0.032696,0.039273,0.043877,0.016253,0.034998
55,0.036642,0.024474,0.035327,0.054072,0.054401,0.01691,0.039602
56,0.033025,0.031381,0.036642,0.059992,0.061636,0.020857,0.034011
57,0.028421,0.033683,0.040589,0.054401,0.06624,0.027434,0.025132
58,0.02579,0.031709,0.050126,0.035656,0.0692,0.030065,0.019212
59,0.024474,0.026776,0.064596,0.0057288,0.069529,0.027105,0.015924
60,0.024803,0.021514,0.079395,-0.025514,0.061965,0.019212,0.0093464
61,0.025132,0.018226,0.086301,-0.048534,0.045851,0.011648,-0.0038083
62,0.024474,0.020199,0.08959,-0.051494,0.021514,0.010004,-0.019923
63,0.021186,0.022501,0.09551,-0.033406,-0.0038083,0.010333,-0.027487
64,0.01987,0.020528,0.10373,-0.007097,-0.023869,0.012306,-0.028802
65,0.023817,0.016581,0.10702,0.014608,-0.036366,0.011977,-0.030118
66,0.029078,0.016253,0.10176,0.024474,-0.039984,0.010991,-0.033406
67,0.030394,0.020857,0.094852,0.024145,-0.038339,0.011977,-0.038339
68,0.020199,0.029407,0.09255,0.015595,-0.033406,0.014608,-0.041957
69,0.0040845,0.036314,0.093208,0.0047422,-0.026171,0.017239,-0.043272
70,-0.0077547,0.042891,0.088932,-0.002164,-0.017621,0.020199,-0.044588
71,-0.010386,0.051113,0.078409,-0.0057815,-0.0064392,0.023817,-0.044588
72,-0.0087413,0.058019,0.06624,-0.0090702,0.0040845,0.026776,-0.041957
73,-0.0064392,0.059005,0.055717,-0.010386,0.010662,0.032696,-0.043601
74,-0.002164,0.056374,0.052099,-0.0080836,0.013293,0.038287,-0.04985
75,0.0057288,0.053743,0.056046,0.0011247,0.011648,0.042562,-0.055112
76,0.012306,0.050455,0.060979,0.011977,0.0073732,0.046508,-0.051823
77,0.014937,0.046508,0.059663,0.015266,0.0011247,0.042891,-0.033406
78,0.012306,0.040589,0.051441,0.0096753,-0.0038083,0.033354,-0.00019077
79,0.002769,0.036971,0.040589,0.0030979,-0.0041372,0.025461,0.042233
80,-0.011043,0.038944,0.032038,-0.0018351,0.0011247,0.02283,0.084986
81,-0.01795,0.04322,0.028421,-0.0041372,0.0057288,0.027763,0.11228
82,-0.010715,0.045193,0.027434,-0.0047949,0.0040845,0.037629,0.11031
83,0.0021113,0.041247,0.027763,-0.0047949,-0.0041372,0.048482,0.084328
84,0.012306,0.032696,0.030394,-0.0015062,-0.011701,0.05177,0.053086
85,0.015924,0.022172,0.034669,0.0037556,-0.011043,0.04618,0.032367
86,0.015595,0.015924,0.034998,0.0093464,-0.0018351,0.032038,0.027434
87,0.013293,0.017239,0.031709,0.010004,0.01132,0.017239,0.029078
88,0.0083598,0.021186,0.024145,0.0080309,0.017568,0.0080309,0.032696
89,0.0030979,0.022501,0.01691,0.0063866,0.013622,0.0060577,0.038944
90,0.0030979,0.019212,0.0086887,0.0080309,0.0037556,0.0086887,0.04618
91,0.012635,0.015924,0.002769,0.015266,-0.0024928,0.013951,0.051113
92,0.025132,0.013622,0.002769,0.024803,-0.0041372,0.017239,0.058019
93,0.04026,0.012306,0.0063866,0.032038,0.00079584,0.016253,0.064925
94,0.055059,0.0083598,0.010004,0.034998,0.0093464,0.013293,0.070516
95,0.062294,0.0014536,0.01132,0.037629,0.017897,0.011977,0.074133
96,0.061307,-0.0067681,0.0054,0.037958,0.021186,0.012964,0.074133
97,0.056046,-0.013345,-0.0077547,0.035656,0.020199,0.012964,0.068543
98,0.050455,-0.015976,-0.020252,0.032367,0.015924,0.013951,0.058019
99,0.045193,-0.011372,-0.026829,0.033354,0.010004,0.016253,0.047824
100,0.039602,-0.0008485,-0.027158,0.035327,0.0077021,0.019541,0.038944
101,0.034011,0.0093464,-0.024527,0.034998,0.01132,0.02579,0.034998
102,0.028092,0.017239,-0.021238,0.031709,0.021186,0.039273,0.035656
103,0.021843,0.021843,-0.022225,0.029078,0.032367,0.058019,0.042233
104,0.015924,0.02283,-0.026171,0.032696,0.041247,0.075449,0.048482
105,0.011648,0.01691,-0.029131,0.041904,0.043549,0.080711,0.048482
106,0.011977,0.010662,-0.027487,0.055388,0.040918,0.071502,0.045522
107,0.019541,0.0067154,-0.021238,0.066898,0.036642,0.051441,0.043549
108,0.029407,0.0063866,-0.015976,0.074133,0.036642,0.027434,0.041247
109,0.036971,0.010991,-0.014003,0.074462,0.036314,0.0096753,0.038944
110,0.039931,0.017897,-0.020909,0.067556,0.033683,0.0040845,0.037629
111,0.038287,0.025461,-0.030118,0.057032,0.025132,0.010004,0.041575
112,0.033354,0.031052,-0.035708,0.047166,0.016581,0.019541,0.053086
113,0.026447,0.031052,-0.038011,0.038944,0.014608,0.029078,0.071502
114,0.017239,0.026119,-0.039655,0.035656,0.018884,0.0373,0.083013
115,0.0073732,0.015595,-0.042615,0.034998,0.025132,0.037629,0.081039
116,-0.0024928,0.0021113,-0.043272,0.033683,0.028421,0.034011,0.072818
117,-0.0084125,-0.0057815,-0.039655,0.029078,0.027434,0.026447,0.065254
118,-0.01203,-0.0051238,-0.033078,0.02579,0.021843,0.01691,0.063938
119,-0.013017,0.0030979,-0.026171,0.026447,0.013622,0.0086887,0.064925
120,-0.01203,0.010662,-0.016634,0.028421,0.0073732,0.0034268,0.056374
121,-0.010057,0.01132,-0.0077547,0.030723,0.0040845,0.00046697,0.038944
122,-0.0054526,0.0073732,-0.0031506,0.02579,0.0057288,0.00079584,0.02579
123,-0.0018351,0.0014536,-0.007097,0.014937,0.01132,0.0037556,0.024145
124,-0.00019077,-0.0015062,-0.016963,0.002769,0.015595,0.0050711,0.02875
125,-0.0024928,-0.0031506,-0.028473,-0.0047949,0.015266,0.0060577,0.036971
126,-0.0077547,-0.00019077,-0.035708,-0.0034794,0.0093464,0.0086887,0.04322
127,-0.014003,0.0080309,-0.036366,0.002769,0.0054,0.011648,0.04881
128,-0.017292,0.021514,-0.03242,0.010662,0.010991,0.0096753,0.054072
129,-0.016963,0.032367,-0.028144,0.018226,0.022501,0.0021113,0.05769
130,-0.013017,0.035656,-0.026829,0.024145,0.033025,-0.011043,0.057032
131,-0.0087413,0.034669,-0.026171,0.025461,0.035985,-0.028144,0.049139
132,-0.002164,0.030394,-0.021896,0.023817,0.034998,-0.047219,0.034998
133,0.0083598,0.02579,-0.01203,0.022501,0.031709,-0.060702,0.021186
134,0.019541,0.023817,-0.0018351,0.021843,0.028421,-0.060702,0.011977
135,0.02283,0.022172,0.0030979,0.023817,0.021514,-0.046561,0.0001381
136,0.016253,0.01987,0.0021113,0.027434,0.012635,-0.0265,-0.014332
137,0.0024402,0.017239,-0.0015062,0.031709,0.0077021,-0.0084125,-0.02946
138,-0.0090702,0.014937,-0.0011774,0.034669,0.0093464,-0.00019077,-0.036695
139,-0.01499,0.011977,0.0040845,0.033354,0.01691,0.00046697,-0.030118
140,-0.016305,0.0063866,0.013293,0.028092,0.025461,-0.0028217,-0.016305
141,-0.013017,0.0021113,0.022501,0.024145,0.034011,-0.007097,-0.0047949
142,-0.0057815,0.0011247,0.031052,0.024803,0.038287,-0.013017,0.00079584
143,0.0037556,0.0086887,0.042562,0.031381,0.03434,-0.017292,-0.0008485
144,0.014608,0.020199,0.056374,0.039273,0.022172,-0.019923,-0.0031506
145,0.022501,0.030065,0.071502,0.046508,0.010333,-0.018278,-0.0015062
146,0.025132,0.032367,0.082355,0.047495,0.0030979,-0.013017,0.0030979
147,0.024474,0.030394,0.089261,0.038287,-0.0008485,-0.0051238,0.0050711
148,0.02283,0.029736,0.091563,0.020528,-0.004466,0.0017824,0.0070443
149,0.021514,0.033025,0.091563,0.0050711,-0.0090702,0.0077021,0.0047422
150,0.020528,0.039273,0.088275,-0.0015062,-0.012359,0.0083598,-0.0061104
151,0.021514,0.044864,0.083013,0.0014536,-0.014332,0.0040845,-0.024198
152,0.02283,0.048153,0.075449,0.0060577,-0.015319,-0.00019077,-0.04097
153,0.020199,0.048153,0.070845,0.0086887,-0.017621,0.0001381,-0.047548
154,0.013293,0.049797,0.068871,0.0057288,-0.018936,0.010004,-0.041628
155,0.0057288,0.053086,0.071173,-0.002164,-0.016634,0.027105,-0.027816
156,0.0014536,0.057032,0.077422,-0.011043,-0.013017,0.043549,-0.014332
157,-0.00019077,0.058348,0.08367,-0.017292,-0.010386,0.047824,-0.0054526
158,0.0037556,0.052757,0.088932,-0.016305,-0.011701,0.038616,0.002769
159,0.0093464,0.041247,0.088603,-0.0064392,-0.018278,0.020199,0.011977
160,0.014279,0.031381,0.081039,0.0073732,-0.022225,0.0017824,0.018226
161,0.012964,0.021843,0.071173,0.018226,-0.017621,-0.0074258,0.015266
162,0.0054,0.011648,0.061965,0.023817,-0.0077547,-0.0024928,0.0040845
163,-0.0015062,0.0030979,0.053415,0.025461,0.0040845,0.01132,-0.0074258
164,-0.0015062,0.0034268,0.043549,0.027105,0.013293,0.026447,-0.012688
165,0.0011247,0.015924,0.029736,0.028092,0.01987,0.041904,-0.010715
166,0.0037556,0.036971,0.01691,0.024803,0.023488,0.055059,0.00046697
167,0.0080309,0.054072,0.010333,0.017239,0.026776,0.064267,0.017897
168,0.013293,0.059005,0.012635,0.0080309,0.029736,0.064925,0.033354
169,0.020199,0.052757,0.015924,0.0014536,0.032696,0.059992,0.039273
170,0.023488,0.039602,0.016253,-0.0008485,0.035327,0.04881,0.036314
171,0.021186,0.025132,0.013951,-0.00051963,0.034669,0.034998,0.027763
172,0.014608,0.015924,0.01132,0.0044134,0.031381,0.020528,0.020199
173,0.0070443,0.013951,0.0077021,0.014608,0.025461,0.0096753,0.015266
174,0.0063866,0.016581,0.0044134,0.025461,0.01987,0.0040845,0.0086887
175,0.015266,0.023159,-0.0008485,0.03434,0.014937,0.0034268,0.002769
176,0.029736,0.030723,-0.0034794,0.038287,0.014279,0.010004,-0.0011774
177,0.042891,0.039602,-0.004466,0.040589,0.018555,0.019212,-0.0011774
178,0.051113,0.045522,-0.0067681,0.04322,0.024803,0.02579,-0.0011774
179,0.052099,0.049139,-0.011043,0.044864,0.032696,0.025132,0.0024402
180,0.045851,0.052428,-0.016634,0.04322,0.034998,0.017568,0.010004
181,0.033683,0.05177,-0.020252,0.041904,0.032367,0.0093464,0.017239
182,0.018555,0.044535,-0.020909,0.042233,0.027763,0.0054,0.015924
183,0.0083598,0.032696,-0.02354,0.044535,0.021843,0.0040845,0.0063866
184,0.0030979,0.022172,-0.0265,0.050784,0.020528,0.0030979,0.0014536
185,0.0021113,0.01987,-0.029789,0.057361,0.025132,0.0054,0.0040845
186,0.00079584,0.02579,-0.030775,0.060979,0.032696,0.014937,0.012306
187,0.0021113,0.033025,-0.02946,0.059663,0.035656,0.027105,0.018226
188,0.0057288,0.039931,-0.024856,0.053415,0.032038,0.036642,0.017897
189,0.010991,0.04618,-0.017621,0.043877,0.02283,0.038287,0.016253
190,0.01691,0.047824,-0.010386,0.034998,0.016581,0.034998,0.014937
191,0.022501,0.044206,-0.0031506,0.029078,0.013293,0.031709,0.010991
192,0.02875,0.0373,0.0011247,0.028092,0.010991,0.029407,0.0044134
193,0.033025,0.031052,0.002769,0.027763,0.0060577,0.025461,0.0034268
194,0.031052,0.024474,0.0034268,0.027763,-0.00019077,0.017897,0.011977
195,0.023159,0.019212,0.0030979,0.028421,-0.0061104,0.0090175,0.026119
196,0.018226,0.013951,-0.0008485,0.027434,-0.0084125,0.0011247,0.042233
197,0.021843,0.010662,-0.0077547,0.02579,-0.0090702,0.0014536,0.056046
198,0.029736,0.0096753,-0.011043,0.024145,-0.0084125,0.012635,0.065583
199,0.035985,0.013622,-0.015648,0.025132,-0.0057815,0.030723,0.071502
200,0.0373,0.019541,-0.022554,0.025132,-0.002164,0.044535,0.074462
201,0.031381,0.024145,-0.027816,0.029078,0.0021113,0.047166,0.080053
202,0.027763,0.02283,-0.030447,0.034669,0.0070443,0.041247,0.088275
203,0.032696,0.015924,-0.027816,0.041575,0.0080309,0.028092,0.093865
204,0.043877,0.0060577,-0.021567,0.049797,0.0037556,0.01691,0.09551
205,0.054401,-0.0031506,-0.014332,0.055717,-0.0018351,0.0080309,0.094523
206,0.062294,-0.0097279,-0.0077547,0.056046,-0.00051963,0.0040845,0.090577
207,0.062623,-0.012688,-0.0047949,0.044535,0.0086887,0.0024402,0.083013
208,0.055388,-0.010386,-0.0064392,0.023817,0.021843,-0.0015062,0.071831
209,0.042233,-0.0028217,-0.013017,-0.007097,0.035985,-0.0041372,0.062294
210,0.029078,0.0083598,-0.020909,-0.037024,0.044535,-0.00051963,0.055388
211,0.024145,0.020857,-0.031762,-0.059058,0.047824,0.0086887,0.051113
212,0.035327,0.030394,-0.042944,-0.075501,0.049468,0.020199,0.048153
213,0.054401,0.034669,-0.045246,-0.093918,0.051441,0.028421,0.048482
214,0.069529,0.034998,-0.037353,-0.11825,0.055388,0.034011,0.049797
215,0.072818,0.032367,-0.0265,-0.1416,0.057361,0.041904,0.04618
216,0.064596,0.029078,-0.018936,-0.15015,0.051441,0.048482,0.039602
217,0.05177,0.02283,-0.014332,-0.1222,0.039931,0.047495,0.032367
218,0.041904,0.015924,-0.0077547,-0.043272,0.022501,0.041247,0.02283
219,0.038944,0.0070443,0.0001381,0.07808,0.0034268,0.034011,0.01132
220,0.036642,0.0024402,0.0037556,0.20535,-0.013674,0.026119,0.0037556
221,0.031381,0.0021113,0.00046697,0.29316,-0.022554,0.016581,0.0054
222,0.024145,0.0017824,-0.0064392,0.31815,-0.019594,0.0063866,0.014279
223,0.016253,-0.0015062,-0.011043,0.28494,-0.0031506,-0.00019077,0.024803
224,0.0093464,-0.004466,-0.0064392,0.21883,0.018884,0.00079584,0.030394
225,0.0034268,-0.0061104,0.002769,0.14747,0.035656,0.0057288,0.021514
226,-0.0028217,-0.0024928,0.014937,0.088275,0.043877,0.012635,0.0034268
227,-0.010057,0.0073732,0.028092,0.049139,0.044864,0.019212,-0.011701
228,-0.011701,0.023817,0.040918,0.025461,0.043549,0.023817,-0.019594
229,-0.007097,0.039931,0.05177,0.013622,0.042233,0.021843,-0.019923
230,-0.0008485,0.046508,0.05769,0.0083598,0.039273,0.019212,-0.015319
231,0.0011247,0.041247,0.058676,0.0060577,0.03434,0.01987,-0.0080836
232,0.0001381,0.029407,0.05769,0.002769,0.025461,0.025132,-0.0074258
233,-0.00019077,0.01691,0.059663,-0.0011774,0.014937,0.029078,-0.018278
234,0.0017824,0.0073732,0.06624,-0.0051238,0.0054,0.030394,-0.036366
235,0.0037556,-0.0008485,0.071502,-0.0067681,-0.0038083,0.02875,-0.052481
236,0.0030979,-0.0074258,0.073147,-0.0057815,-0.01203,0.024145,-0.058729
237,0.00079584,-0.012359,0.073147,-0.004466,-0.015319,0.021843,-0.060373
238,-0.007097,-0.014003,0.074133,-0.0011774,-0.012688,0.022172,-0.057085
239,-0.016305,-0.010386,0.075449,0.0037556,-0.0090702,0.026119,-0.053796
240,-0.0265,-0.00051963,0.076764,0.01132,-0.0090702,0.030394,-0.048534
241,-0.028802,0.013951,0.079395,0.01987,-0.013017,0.033025,-0.039655
242,-0.02354,0.029078,0.079724,0.026776,-0.019923,0.031052,-0.027158
243,-0.014003,0.036642,0.07512,0.028092,-0.02354,0.022501,-0.01203
244,-0.0024928,0.033354,0.066569,0.020528,-0.019594,0.011977,0.0024402
245,0.0054,0.026119,0.056703,0.0080309,-0.0054526,0.0001381,0.0090175
246,0.0093464,0.017897,0.050784,0.00079584,0.012306,-0.011701,0.012635
247,0.0096753,0.011977,0.051113,0.0011247,0.02579,-0.01795,0.01691
248,0.0060577,0.0073732,0.057032,0.0030979,0.032038,-0.018278,0.023488
249,-0.00051963,0.0080309,0.067227,0.00079584,0.029078,-0.016963,0.031709
250,-0.0051238,0.016253,0.077422,-0.0041372,0.021186,-0.013345,0.04618
251,-0.0061104,0.027105,0.08663,-0.0054526,0.014937,-0.0034794,0.062294
252,-0.0064392,0.034011,0.094523,-0.00019077,0.010991,0.0090175,0.07216
253,-0.010057,0.035327,0.099456,0.0057288,0.0073732,0.020857,0.076106
254,-0.013674,0.029078,0.097154,0.0073732,0.0060577,0.029078,0.077093
255,-0.014003,0.020199,0.087617,0.0057288,0.0077021,0.027763,0.081697
256,-0.010057,0.014608,0.071831,0.0037556,0.0080309,0.020199,0.083013
257,-0.0015062,0.0093464,0.053743,0.0050711,0.0034268,0.0086887,0.074462
258,0.010991,0.0070443,0.038616,0.010662,-0.0031506,-0.0067681,0.059005
259,0.017568,0.0054,0.029407,0.015266,-0.0057815,-0.018278,0.047824
260,0.015924,0.0063866,0.025132,0.016581,-0.0034794,-0.023869,0.044864
261,0.0070443,0.0040845,0.021843,0.017568,0.0017824,-0.025514,0.046837
262,-0.0011774,-0.0024928,0.016253,0.015266,0.0080309,-0.026171,0.050784
263,-0.0031506,-0.0080836,0.010004,0.010004,0.012964,-0.025185,0.055388
264,0.0021113,-0.010057,0.0047422,0.0050711,0.012635,-0.018278,0.061965
265,0.0093464,-0.0067681,0.0017824,0.0030979,0.010662,-0.0097279,0.06624
266,0.015924,-0.00019077,-0.0011774,0.0037556,0.010991,-0.00051963,0.062623
267,0.022172,0.0083598,-0.0047949,0.0070443,0.019212,0.0047422,0.056046
268,0.02579,0.015595,-0.0074258,0.010662,0.033683,0.0047422,0.05473
269,0.024145,0.01987,-0.0084125,0.014608,0.04881,0.002769,0.056046
270,0.020199,0.021514,-0.007097,0.015595,0.059992,0.0001381,0.056046
271,0.015595,0.021843,-0.0051238,0.010333,0.059334,-0.0011774,0.053086
272,0.011977,0.025461,-0.0084125,-0.0015062,0.04881,-0.0031506,0.049797
273,0.0096753,0.033025,-0.01499,-0.013674,0.032367,-0.010386,0.045851
274,0.0073732,0.040589,-0.022225,-0.021238,0.014937,-0.018607,0.035985
275,0.0054,0.045522,-0.027158,-0.018278,-0.00019077,-0.022554,0.02283
276,0.0077021,0.047824,-0.03242,-0.0061104,-0.0080836,-0.020581,0.014608
277,0.010991,0.04618,-0.036695,0.011648,-0.007097,-0.014332,0.017897
278,0.015924,0.041904,-0.037353,0.02579,-0.0011774,-0.007097,0.033683
279,0.021514,0.036314,-0.030775,0.033354,0.002769,-0.002164,0.058019
280,0.029078,0.027763,-0.020581,0.035327,0.002769,0.00046697,0.082026
281,0.035327,0.023159,-0.010386,0.032696,-0.00051963,0.0017824,0.09551
282,0.035985,0.024803,-0.0064392,0.02875,-0.0034794,0.0057288,0.092879
283,0.030394,0.033025,-0.0097279,0.024145,-0.004466,0.010333,0.079066
284,0.020528,0.04322,-0.018936,0.018226,-0.0057815,0.012635,0.065254
285,0.014608,0.050455,-0.031433,0.013293,-0.0047949,0.012635,0.059992
286,0.016581,0.052428,-0.039984,0.012635,0.00079584,0.011648,0.066569
287,0.022501,0.05177,-0.038339,0.014608,0.0090175,0.010333,0.080382
288,0.028421,0.047495,-0.021238,0.019212,0.016581,0.0086887,0.092221
289,0.029078,0.04026,-0.0011774,0.026119,0.01987,0.010991,0.095181
290,0.026119,0.032696,0.01132,0.03434,0.018555,0.020199,0.085972
291,0.01987,0.029407,0.012635,0.040589,0.018226,0.036642,0.072818
292,0.010333,0.030394,0.0021113,0.042562,0.023159,0.051441,0.063281
293,0.0021113,0.032038,-0.010715,0.04026,0.030394,0.058019,0.060321
294,0.0001381,0.031709,-0.019265,0.037629,0.037958,0.051441,0.059005
295,0.0063866,0.029078,-0.020252,0.034669,0.045522,0.037629,0.054401
296,0.014608,0.022501,-0.014332,0.028092,0.053086,0.027105,0.044864
297,0.018555,0.015266,-0.002164,0.022172,0.052757,0.027434,0.031381
298,0.020199,0.012964,0.01132,0.022172,0.047824,0.036642,0.015924
299,0.021843,0.017239,0.028092,0.030723,0.038616,0.047495,0.0014536
300,0.026119,0.026119,0.04618,0.037958,0.031381,0.056046,-0.012688
301,0.032038,0.033025,0.064596,0.036314,0.027763,0.059663,-0.020581
302,0.038616,0.035656,0.076435,0.024145,0.028092,0.058019,-0.022883
303,0.045522,0.034011,0.080053,0.0060577,0.032367,0.053415,-0.024527
304,0.048153,0.033683,0.073476,-0.0093991,0.036314,0.047166,-0.026171
305,0.046508,0.03434,0.06065,-0.015976,0.035985,0.038616,-0.024856
306,0.039273,0.0373,0.048482,-0.012688,0.033683,0.03434,-0.019923
307,0.030394,0.041904,0.039602,0.00046697,0.026447,0.035327,-0.016305
308,0.02283,0.046508,0.037629,0.017897,0.015266,0.038616,-0.017292
309,0.013951,0.047824,0.041904,0.033683,0.0044134,0.041247,-0.025514
310,0.0073732,0.048153,0.048153,0.043549,-0.0008485,0.04322,-0.031762
311,0.0070443,0.04881,0.05473,0.04881,-0.0008485,0.043549,-0.031433
312,0.0090175,0.051113,0.057361,0.04618,0.0014536,0.041904,-0.023211
313,0.011977,0.051441,0.056703,0.039931,-0.00051963,0.038944,-0.014661
314,0.013622,0.050126,0.055388,0.031381,-0.0090702,0.039602,-0.012688
315,0.010004,0.047495,0.055059,0.025461,-0.021896,0.046837,-0.01203
316,-0.00019077,0.047166,0.05473,0.023817,-0.032749,0.052099,-0.0090702
317,-0.0093991,0.04618,0.054072,0.023488,-0.037353,0.052428,-0.0067681
318,-0.011372,0.042562,0.050126,0.024474,-0.036037,0.049797,-0.0090702
319,-0.0057815,0.035985,0.043549,0.028421,-0.027158,0.048482,-0.018607
320,-0.0015062,0.028092,0.036314,0.032038,-0.013017,0.050784,-0.032749
321,-0.0015062,0.021843,0.030065,0.034011,0.0001381,0.05473,-0.043601
322,-0.0077547,0.015595,0.026119,0.02875,0.0086887,0.058019,-0.045246
323,-0.016963,0.012306,0.020857,0.019541,0.010004,0.061636,-0.042944
324,-0.020909,0.01132,0.013622,0.011648,0.0083598,0.063281,-0.037682
325,-0.018936,0.011648,0.0086887,0.01132,0.0096753,0.059334,-0.031762
326,-0.0090702,0.01132,0.0057288,0.017897,0.015595,0.052757,-0.028802
327,0.002769,0.0086887,0.0044134,0.025461,0.023488,0.043877,-0.033735
328,0.011977,0.00079584,0.002769,0.032367,0.033683,0.035985,-0.041628
329,0.015595,-0.007097,-0.004466,0.036971,0.042891,0.028421,-0.043272
330,0.012635,-0.015976,-0.016305,0.040918,0.04618,0.024803,-0.032091
331,0.0060577,-0.021238,-0.028802,0.041247,0.039273,0.020857,-0.010386
332,0.0044134,-0.022554,-0.035708,0.039273,0.028092,0.017239,0.012964
333,0.0093464,-0.016634,-0.03538,0.034998,0.017239,0.015924,0.027434
334,0.019212,-0.0090702,-0.031433,0.028421,0.0086887,0.021186,0.024803
335,0.029078,0.0017824,-0.028473,0.022501,0.0060577,0.028421,0.0083598
336,0.03434,0.013951,-0.031762,0.021186,0.013293,0.030394,-0.0087413
337,0.033683,0.023817,-0.040641,0.026447,0.024803,0.024145,-0.019594
338,0.029736,0.02579,-0.051494,0.036971,0.03434,0.012964,-0.022883
339,0.024803,0.01987,-0.057743,0.048482,0.038944,0.00046697,-0.018607
340,0.021186,0.011977,-0.056756,0.05769,0.035656,-0.014003,-0.0093991
341,0.021186,0.0070443,-0.04985,0.059334,0.027763,-0.02354,0.0030979
342,0.023488,0.0034268,-0.041299,0.053086,0.01987,-0.022554,0.018555
343,0.024145,0.0011247,-0.032091,0.042891,0.010004,-0.016634,0.035985
344,0.023159,-0.00051963,-0.02354,0.034998,-0.0015062,-0.01203,0.053743
345,0.024145,-0.0064392,-0.013674,0.034998,-0.010715,-0.01203,0.067885
346,0.027434,-0.014003,-0.0087413,0.042233,-0.015319,-0.016634,0.075449
347,0.034011,-0.022554,-0.011372,0.054401,-0.016963,-0.024198,0.071502
348,0.041247,-0.025185,-0.020909,0.065912,-0.017292,-0.031762,0.05769
349,0.046837,-0.020252,-0.031104,0.073804,-0.017292,-0.031433,0.041575
350,0.050784,-0.0090702,-0.035051,0.07512,-0.012688,-0.024856,0.033025
351,0.049139,0.0030979,-0.02946,0.067556,-0.0054526,-0.016305,0.039931
352,0.04322,0.0090175,-0.020581,0.056046,-0.00019077,-0.0077547,0.059334
353,0.038944,0.0073732,-0.01203,0.045193,0.0001381,-0.002164,0.081368
354,0.037958,0.0011247,-0.0064392,0.037958,-0.0034794,-0.0034794,0.097483
355,0.038944,-0.0038083,-0.0018351,0.032038,-0.014003,-0.016634,0.10044
356,0.036314,-0.0047949,-0.0008485,0.029078,-0.022554,-0.037353,0.091234
357,0.034998,-0.0018351,-0.0051238,0.027434,-0.025842,-0.053467,0.080711
358,0.035656,0.0050711,-0.013345,0.026447,-0.022225,-0.054454,0.075778
359,0.036642,0.011977,-0.016634,0.024474,-0.01499,-0.042615,0.074791
360,0.038287,0.012964,-0.013345,0.020528,-0.0087413,-0.030118,0.070187
361,0.037958,0.011977,-0.0087413,0.012306,-0.0067681,-0.020252,0.059663
362,0.038944,0.014937,-0.0057815,0.0040845,-0.0031506,-0.012359,0.043549
363,0.041575,0.022501,-0.0067681,-0.0015062,0.0054,-0.0047949,0.02875
364,0.043877,0.030065,-0.011372,-0.0024928,0.015266,0.0011247,0.021843
365,0.044864,0.035327,-0.016305,0.0017824,0.019212,0.002769,0.026776
366,0.043549,0.035985,-0.019923,0.0086887,0.021514,0.0017824,0.039931
367,0.040589,0.034669,-0.020581,0.015266,0.026119,0.00046697,0.050126
368,0.038616,0.035327,-0.018278,0.021843,0.032367,0.00079584,0.053415
369,0.038616,0.038616,-0.016634,0.027434,0.034998,0.0014536,0.052428
370,0.039602,0.045522,-0.01499,0.029078,0.033354,-0.0015062,0.047166
371,0.040918,0.050784,-0.0080836,0.027763,0.031052,-0.010386,0.036971
372,0.04026,0.049797,0.0057288,0.023817,0.02875,-0.021896,0.024474
373,0.038944,0.041904,0.021514,0.01987,0.028092,-0.028473,0.013293
374,0.033354,0.034998,0.032038,0.018226,0.030394,-0.024198,0.0093464
375,0.024474,0.032038,0.030065,0.015924,0.031381,-0.011043,0.0093464
376,0.013293,0.033354,0.01987,0.012306,0.030723,0.0077021,0.0096753
377,0.0014536,0.038616,0.01132,0.0060577,0.025461,0.024803,0.0096753
378,-0.0077547,0.050455,0.010991,-0.0011774,0.01691,0.035985,0.010991
379,-0.018278,0.061636,0.018884,-0.0067681,0.0073732,0.038287,0.015266
380,-0.030118,0.068871,0.031709,-0.01203,0.0014536,0.032696,0.017568
381,-0.041299,0.068543,0.045851,-0.01795,0.0037556,0.020857,0.015595
382,-0.050507,0.061307,0.058348,-0.023869,0.014608,0.0073732,0.0093464
383,-0.056098,0.048482,0.067885,-0.024856,0.027105,-0.00051963,-0.0011774
384,-0.05544,0.030723,0.075449,-0.017621,0.034669,-0.0038083,-0.007097
385,-0.051165,0.014279,0.079066,-0.0084125,0.038944,-0.0034794,-0.0051238
386,-0.044259,0.0070443,0.078737,-0.00051963,0.040589,-0.0008485,-0.0015062
387,-0.036695,0.0090175,0.075778,0.0034268,0.038287,0.0037556,-0.0034794
388,-0.02946,0.014937,0.071502,0.0044134,0.034998,0.010004,-0.0080836
389,-0.021238,0.019541,0.070516,0.0014536,0.031381,0.013622,-0.010386
390,-0.015648,0.019541,0.072489,-0.0028217,0.026776,0.012306,-0.011372
391,-0.014332,0.014279,0.074791,-0.0057815,0.01987,0.0086887,-0.011701
392,-0.015648,0.0070443,0.074462,-0.004466,0.013293,0.0077021,-0.015319
393,-0.016634,0.0014536,0.073804,-0.002164,0.0073732,0.012964,-0.021238
394,-0.015976,-0.0041372,0.073476,0.002769,0.0021113,0.020528,-0.02354
395,-0.011701,-0.0087413,0.072489,0.0090175,0.00079584,0.024145,-0.01795
396,-0.0057815,-0.012688,0.068214,0.012635,0.0017824,0.026447,-0.007097
397,0.0011247,-0.015319,0.06065,0.017897,0.0073732,0.030723,0.0083598
398,0.0093464,-0.013017,0.053743,0.029078,0.013293,0.035985,0.028092
399,0.017568,-0.0061104,0.050784,0.044535,0.018555,0.038944,0.048153
400,0.020857,0.0011247,0.048153,0.058348,0.017568,0.038287,0.068871
401,0.019212,0.0057288,0.044535,0.069858,0.014937,0.032038,0.086301
402,0.010333,0.0060577,0.039602,0.069858,0.013622,0.023488,0.1011
403,-0.0024928,0.0057288,0.034011,0.060979,0.012964,0.015924,0.11228
404,-0.011372,0.010004,0.027105,0.04881,0.0096753,0.0096753,0.11294
405,-0.01203,0.022172,0.023817,0.04026,0.0044134,0.0054,0.10077
406,-0.0024928,0.037958,0.024145,0.036971,0.0034268,0.00046697,0.074791
407,0.01132,0.047495,0.027434,0.035327,0.010004,-0.0008485,0.043877
408,0.029078,0.048153,0.032696,0.031052,0.020528,0.0034268,0.01987
409,0.041904,0.039931,0.037629,0.024474,0.028092,0.0080309,0.01132
410,0.048482,0.026776,0.042233,0.020528,0.032038,0.0096753,0.015924
411,0.051441,0.013293,0.042891,0.023817,0.032367,0.010004,0.024145
412,0.046837,0.002769,0.040589,0.027763,0.031709,0.013293,0.031052
413,0.036314,-0.0015062,0.036314,0.030394,0.034011,0.020199,0.036642
414,0.02283,0.0030979,0.031709,0.031052,0.033354,0.026776,0.037629
415,0.010662,0.011977,0.026776,0.02875,0.027434,0.024145,0.034998
416,0.0014536,0.019541,0.022501,0.024145,0.015595,0.013951,0.035327
417,-0.0015062,0.021186,0.018226,0.022172,0.0054,0.0001381,0.039931
418,0.0017824,0.021843,0.0077021,0.023817,-0.0028217,-0.0074258,0.045851
419,0.0067154,0.024474,-0.0061104,0.029736,-0.0080836,-0.0067681,0.04618
420,0.011977,0.031709,-0.018936,0.035327,-0.013017,0.0011247,0.042562
421,0.015924,0.039931,-0.027158,0.037958,-0.013345,0.010991,0.039931
422,0.017239,0.044864,-0.034064,0.038944,-0.0077547,0.018884,0.048482
423,0.022501,0.044206,-0.043601,0.035656,0.002769,0.027105,0.065912
424,0.032696,0.039931,-0.053138,0.029736,0.011977,0.034011,0.081368
425,0.048153,0.035985,-0.057085,0.023817,0.018884,0.037629,0.088275
426,0.059334,0.036642,-0.053467,0.023817,0.025132,0.036971,0.080711
427,0.059992,0.041904,-0.044588,0.031709,0.029078,0.033683,0.058676
428,0.052757,0.042891,-0.036366,0.041575,0.028092,0.030065,0.028092
429,0.042562,0.039602,-0.027816,0.045522,0.025132,0.029407,-0.00051963
430,0.036314,0.037958,-0.023869,0.041904,0.021843,0.026119,-0.015976
431,0.035985,0.041575,-0.024856,0.03434,0.018555,0.018884,-0.015648
432,0.036971,0.047495,-0.026829,0.031381,0.020199,0.010662,-0.002164
433,0.036642,0.052757,-0.028473,0.0373,0.023817,0.0063866,0.01132
434,0.032038,0.052428,-0.025842,0.044206,0.026776,0.0090175,0.017568
435,0.02283,0.04618,-0.021896,0.043877,0.027434,0.020528,0.014279
436,0.012635,0.03434,-0.014003,0.036314,0.027763,0.035327,0.002769
437,0.0073732,0.02283,-0.007097,0.02875,0.028092,0.04881,-0.0087413
438,0.0093464,0.011648,-0.002164,0.02579,0.025461,0.055717,-0.010057
439,0.015924,0.0034268,0.0011247,0.029078,0.017897,0.056703,0.00046697
440,0.020528,-0.002164,0.00079584,0.035985,0.0024402,0.055059,0.013622
441,0.020857,-0.0034794,-0.0041372,0.04322,-0.015976,0.052428,0.020528
442,0.012635,-0.0024928,-0.011043,0.042562,-0.02946,0.048482,0.015924
443,-0.0011774,0.0014536,-0.017292,0.030723,-0.028802,0.045851,0.0040845
444,-0.016963,0.0054,-0.017292,0.014937,-0.013017,0.045193,-0.0093991
445,-0.025514,0.0054,-0.01203,0.0037556,0.0060577,0.046837,-0.016963
446,-0.024527,0.0001381,-0.0018351,0.0011247,0.021514,0.050126,-0.014332
447,-0.016963,-0.0097279,0.0077021,0.0011247,0.027434,0.050455,-0.010057
448,-0.0093991,-0.016305,0.015595,0.0014536,0.021843,0.042891,-0.0057815
449,-0.0051238,-0.01499,0.016581,-0.0008485,0.012635,0.032038,0.0044134
450,-0.0031506,-0.0024928,0.010333,-0.0028217,0.0054,0.022501,0.01691
451,-0.0008485,0.017239,0.0001381,-0.0038083,0.0047422,0.01132,0.025461
452,0.0034268,0.038616,-0.010715,-0.0038083,0.0090175,-0.0024928,0.029407
453,0.010004,0.055388,-0.019594,-0.0015062,0.01691,-0.012359,0.028421
454,0.018226,0.063281,-0.020252,0.0047422,0.02579,-0.015976,0.024803
455,0.029736,0.064596,-0.01203,0.012964,0.030394,-0.014003,0.020857
456,0.041904,0.062294,0.0037556,0.015595,0.028421,-0.0087413,0.018555
457,0.047495,0.059663,0.020857,0.013293,0.022172,-0.0008485,0.020857
458,0.042891,0.055388,0.031709,0.0096753,0.012964,0.0054,0.027105
459,0.031709,0.04618,0.032038,0.0063866,0.0054,0.0063866,0.025132
460,0.021843,0.034011,0.028092,0.0063866,0.0017824,0.0044134,0.012306
461,0.015924,0.021186,0.027434,0.0096753,0.0001381,0.0037556,-0.0054526
462,0.013951,0.011648,0.031709,0.013951,-0.0018351,0.0060577,-0.019265
463,0.013622,0.0067154,0.0373,0.016581,-0.0061104,0.0077021,-0.021896
464,0.013951,0.0063866,0.041247,0.018226,-0.012359,0.0034268,-0.012359
465,0.014608,0.010991,0.042562,0.015924,-0.016305,0.0001381,0.0037556
466,0.014608,0.016253,0.040918,0.012964,-0.018278,0.00046697,0.014937
467,0.013622,0.018884,0.0373,0.010004,-0.016963,0.0073732,0.014279
468,0.013293,0.016253,0.034998,0.011977,-0.013345,0.020199,0.0050711
469,0.017568,0.0093464,0.04026,0.019541,-0.010386,0.037629,-0.0031506
470,0.024474,0.0014536,0.047166,0.029736,-0.007097,0.053086,-0.004466
471,0.033683,-0.0028217,0.053743,0.03434,0.0021113,0.064267,0.00079584
472,0.041904,-0.002164,0.058019,0.036971,0.015266,0.064925,0.0060577
473,0.045851,0.0021113,0.064925,0.035327,0.026119,0.054401,0.010662
474,0.046508,0.0073732,0.074791,0.031709,0.031381,0.040918,0.013293
475,0.047824,0.010333,0.083999,0.028421,0.029407,0.033025,0.012964
476,0.049797,0.010004,0.087946,0.028092,0.022172,0.034011,0.013622
477,0.049139,0.0073732,0.083999,0.030394,0.012964,0.039602,0.016253
478,0.041247,0.0044134,0.073147,0.034998,0.0063866,0.042891,0.017239
479,0.028421,0.0011247,0.061965,0.035985,0.0011247,0.044535,0.017897
480,0.013951,-0.0015062,0.05769,0.029736,-0.0024928,0.044535,0.018884
481,0.0044134,-0.0034794,0.059992,0.019212,-0.0028217,0.045193,0.020528
482,0.0030979,-0.0024928,0.062623,0.012306,0.0001381,0.04618,0.023159
483,0.0047422,0.0044134,0.058019,0.011977,0.0060577,0.043549,0.025132
484,0.0073732,0.017897,0.047495,0.017239,0.013622,0.040918,0.024145
485,0.0073732,0.029078,0.032038,0.023488,0.021843,0.035656,0.023488
486,0.0080309,0.029078,0.01691,0.023159,0.029736,0.025461,0.021843
487,0.010662,0.021514,0.0060577,0.013951,0.035656,0.014937,0.015924
488,0.015595,0.011977,-0.0008485,-0.00051963,0.035327,0.010004,0.0063866
489,0.022172,0.0037556,-0.0041372,-0.013345,0.031709,0.0067154,0.0024402
490,0.029078,-0.0031506,-0.0015062,-0.021238,0.029736,0.0021113,0.0073732
491,0.035985,-0.0077547,0.0050711,-0.023869,0.031052,-0.0011774,0.016253
492,0.042233,-0.0054526,0.010991,-0.022554,0.034669,-0.0008485,0.025132
493,0.044864,0.0040845,0.01691,-0.018278,0.040589,0.0080309,0.031381
494,0.043877,0.016253,0.024474,-0.010057,0.045851,0.021843,0.032367
495,0.041247,0.024145,0.033025,-0.0015062,0.044206,0.036971,0.031381
496,0.039602,0.02283,0.0373,0.0044134,0.033683,0.05177,0.033354
497,0.038616,0.017568,0.034669,0.0070443,0.024803,0.061307,0.04322
498,0.034669,0.012964,0.029407,0.0070443,0.021186,0.06361,0.06065
499,0.027434,0.0093464,0.024803,0.0083598,0.017239,0.058676,0.079395
500,0.017239,0.0080309,0.021186,0.01132,0.011648,0.050455,0.090905
501,0.0093464,0.0067154,0.016253,0.017897,0.0037556,0.04322,0.090248
502,0.0057288,0.0070443,0.010662,0.024803,-0.0054526,0.037958,0.076435
503,0.0050711,0.010991,0.0067154,0.029736,-0.013017,0.03434,0.055388
504,0.0034268,0.016253,0.0057288,0.031381,-0.016963,0.028421,0.036314
505,0.0024402,0.020528,0.0067154,0.032038,-0.019594,0.023817,0.028092
506,0.0017824,0.023817,0.0090175,0.031052,-0.021567,0.023817,0.031381
507,0.0017824,0.027105,0.0093464,0.030723,-0.023869,0.02579,0.039602
508,0.0044134,0.032696,0.0070443,0.02875,-0.023211,0.028421,0.042233
509,0.01132,0.039602,0.0034268,0.027105,-0.018936,0.030723,0.039273
510,0.023817,0.045851,-0.00051963,0.026776,-0.013017,0.030065,0.038287
511,0.034998,0.04881,-0.0057815,0.032038,-0.0061104,0.028092,0.042891
512,0.037629,0.047166,-0.0087413,0.042562,0.0014536,0.024474,0.049797
513,0.028092,0.04322,-0.010386,0.055388,0.012635,0.023159,0.059334
514,0.011648,0.040918,-0.011043,0.067227,0.027763,0.022501,0.067885
515,-0.002164,0.040918,-0.013674,0.074791,0.040589,0.02283,0.066569
516,-0.0077547,0.041904,-0.018278,0.07512,0.045522,0.01691,0.060979
517,-0.007097,0.044206,-0.021896,0.070187,0.044206,0.0054,0.055388
518,-0.0057815,0.045522,-0.023869,0.063938,0.041904,-0.0064392,0.053086
519,-0.0047949,0.044864,-0.025185,0.059334,0.040589,-0.013345,0.053086
520,-0.0018351,0.037629,-0.025185,0.054072,0.037958,-0.017621,0.052757
521,0.0073732,0.025461,-0.023869,0.04881,0.032038,-0.021896,0.051113
522,0.017568,0.015924,-0.018278,0.046508,0.02283,-0.028802,0.051441
523,0.021514,0.012306,-0.010057,0.04618,0.012964,-0.039326,0.052099
524,0.014279,0.010991,-0.0038083,0.04618,0.0070443,-0.05281,0.047166
525,0.00079584,0.011977,-0.0011774,0.044206,0.0083598,-0.061689,0.034669
526,-0.014003,0.018884,-0.0041372,0.045193,0.015266,-0.062676,0.022501
527,-0.026829,0.030723,-0.0090702,0.04881,0.022501,-0.060702,0.017239
528,-0.031762,0.042562,-0.0097279,0.049797,0.028421,-0.054454,0.020528
529,-0.031433,0.05177,-0.0028217,0.045522,0.032367,-0.043272,0.026447
530,-0.026829,0.057361,0.0090175,0.036642,0.033025,-0.030447,0.027434
531,-0.020581,0.06361,0.018884,0.026447,0.031709,-0.01795,0.026776
532,-0.012688,0.070845,0.023817,0.018555,0.028421,-0.0093991,0.029407
533,-0.0028217,0.075449,0.023817,0.017568,0.018884,-0.0061104,0.030723
534,0.002769,0.073147,0.018226,0.021186,0.0047422,-0.0077547,0.019541
535,0.0014536,0.064925,0.012306,0.026776,-0.007097,-0.012688,-0.0018351
536,-0.0090702,0.055059,0.012306,0.028421,-0.013674,-0.01499,-0.022554
537,-0.021567,0.04618,0.014937,0.027105,-0.013017,-0.01499,-0.034064
538,-0.026829,0.04026,0.016253,0.023488,-0.0051238,-0.016305,-0.035708
539,-0.018607,0.036971,0.014608,0.020199,0.002769,-0.022554,-0.031762
540,-0.0034794,0.034011,0.010991,0.019212,0.0073732,-0.035708,-0.028144
541,0.011648,0.029407,0.0077021,0.016253,0.0083598,-0.045574,-0.024198
542,0.020857,0.022501,0.0040845,0.010004,0.0073732,-0.047219,-0.020252
543,0.023817,0.017239,0.0037556,0.0021113,0.0080309,-0.040641,-0.015319
544,0.024145,0.020199,0.0037556,-0.004466,0.0083598,-0.030447,-0.0084125
545,0.023817,0.029736,0.0054,-0.0038083,0.0044134,-0.014332,-0.0077547
546,0.023817,0.040589,0.0083598,0.0034268,-0.0041372,0.0001381,-0.016634
547,0.026119,0.046837,0.014608,0.01132,-0.012359,0.0060577,-0.028473
548,0.032038,0.046508,0.023817,0.014608,-0.014332,0.0050711,-0.033735
549,0.040589,0.043549,0.033354,0.014608,-0.014332,0.0063866,-0.031104
550,0.045193,0.037958,0.036971,0.01691,-0.013674,0.0080309,-0.024198
551,0.045522,0.035656,0.035985,0.020528,-0.015976,0.002769,-0.012688
552,0.037629,0.037629,0.035985,0.02283,-0.020909,-0.0057815,-0.0008485
553,0.029078,0.04026,0.038616,0.018884,-0.025514,-0.010715,0.0083598
554,0.01987,0.034669,0.044535,0.01132,-0.027816,-0.010386,0.01132
555,0.010662,0.023817,0.047495,0.0040845,-0.023869,-0.0047949,0.010004
556,0.0057288,0.0073732,0.043549,0.00046697,-0.018278,0.0060577,0.0073732
557,0.0057288,-0.0077547,0.034011,0.0001381,-0.014661,0.018226,0.013293
558,0.0073732,-0.014003,0.024474,0.0044134,-0.013674,0.030723,0.030065
559,0.0086887,-0.010386,0.018555,0.011977,-0.014332,0.042562,0.042562
560,0.0080309,-0.0041372,0.015924,0.01987,-0.011372,0.047495,0.044864
561,0.0080309,0.0021113,0.017897,0.02579,-0.0054526,0.044535,0.037629
562,0.01132,0.0077021,0.021186,0.030065,-0.002164,0.035656,0.028092
563,0.014608,0.010991,0.026119,0.032038,-0.0054526,0.027434,0.019212
564,0.01691,0.0080309,0.028092,0.029407,-0.0087413,0.027105,0.010662
565,0.017568,-0.0031506,0.023488,0.021514,-0.0041372,0.03434,0.0073732
566,0.018555,-0.016963,0.015924,0.014608,0.011648,0.042562,0.011648
567,0.019212,-0.022883,0.0077021,0.014608,0.031381,0.046508,0.023159
568,0.017568,-0.018278,-0.0008485,0.023488,0.042562,0.044206,0.038944
569,0.011977,-0.0061104,-0.0057815,0.034998,0.040918,0.042891,0.056046
570,0.0083598,0.0077021,-0.0061104,0.043877,0.032367,0.044864,0.06624
571,0.012964,0.020857,-0.0008485,0.04618,0.020528,0.050784,0.066569
572,0.021186,0.027434,0.0077021,0.042233,0.0086887,0.058348,0.055717
573,0.030065,0.028092,0.014279,0.034998,-0.0011774,0.068214,0.041247
574,0.036642,0.028092,0.013622,0.030394,-0.0074258,0.076764,0.032696
575,0.038287,0.028092,0.0080309,0.030723,-0.0067681,0.07808,0.029736
576,0.034011,0.031052,-0.0018351,0.034669,0.0047422,0.0692,0.030723
577,0.02875,0.032696,-0.012359,0.038287,0.020199,0.05473,0.038287
578,0.023159,0.030065,-0.020909,0.039931,0.032367,0.041575,0.046837
579,0.019541,0.023817,-0.026171,0.040918,0.040918,0.031709,0.055717
580,0.018226,0.017239,-0.029789,0.040589,0.043549,0.022501,0.059334
581,0.018884,0.010004,-0.034722,0.034998,0.040918,0.010991,0.051441
582,0.017239,0.0063866,-0.039984,0.023159,0.032696,-0.0018351,0.031381
583,0.0086887,0.0054,-0.045574,0.0077021,0.021843,-0.010057,0.0096753
584,-0.0034794,0.0060577,-0.048863,-0.0064392,0.015924,-0.0093991,-0.0041372
585,-0.011701,0.011648,-0.049521,-0.013345,0.015595,0.002769,-0.0057815
586,-0.011701,0.021843,-0.050836,-0.011701,0.015924,0.021186,0.0057288
587,-0.004466,0.029407,-0.049192,-0.0051238,0.012306,0.038287,0.027434
588,0.0096753,0.028421,-0.04393,0.0047422,0.0044134,0.050784,0.055717
589,0.024474,0.018884,-0.033735,0.012635,-0.0041372,0.054072,0.077093
590,0.037629,0.002769,-0.021238,0.017568,-0.0077547,0.04618,0.081697
591,0.044864,-0.0097279,-0.0074258,0.01987,-0.0047949,0.028421,0.070845
592,0.047495,-0.012359,0.0014536,0.018226,0.0021113,0.0073732,0.055388
593,0.046508,-0.0067681,0.0011247,0.013951,0.011648,-0.0087413,0.041575
594,0.047495,0.0034268,-0.0041372,0.010662,0.01987,-0.015319,0.04026
595,0.050126,0.013951,-0.0097279,0.012635,0.025132,-0.010057,0.052757
596,0.048153,0.02283,-0.013674,0.018884,0.02875,0.0060577,0.073147
597,0.037629,0.029736,-0.017292,0.027763,0.032367,0.023159,0.086959
598,0.023488,0.030065,-0.018278,0.031709,0.032367,0.036314,0.085315
599,0.010004,0.022172,-0.017621,0.032367,0.027105,0.038616,0.069529
600,0.0047422,0.010004,-0.014332,0.033683,0.018555,0.033354,0.047495
601,0.0073732,0.00046697,-0.012688,0.037629,0.010662,0.02875,0.025461
602,0.01132,-0.0015062,-0.012688,0.042562,0.0067154,0.026776,0.010004
603,0.010333,0.0067154,-0.011043,0.045193,0.010333,0.023817,0.0054
604,0.0054,0.021843,-0.0074258,0.043877,0.018555,0.022501,0.013293
605,0.002769,0.035985,-0.0031506,0.039273,0.028092,0.021186,0.034998
606,0.0083598,0.042233,0.00046697,0.031381,0.038287,0.016253,0.060979
607,0.016581,0.037629,-0.0024928,0.024145,0.048482,0.0073732,0.080382
608,0.021843,0.027763,-0.0077547,0.023817,0.056374,-0.0038083,0.085972
609,0.023159,0.018555,-0.0093991,0.027434,0.061636,-0.011372,0.078409
610,0.021186,0.0093464,-0.0057815,0.033025,0.064267,-0.0090702,0.055717
611,0.021843,-0.0018351,0.0034268,0.035656,0.064596,-0.00019077,0.02875
612,0.024803,-0.01203,0.016253,0.036642,0.064925,0.0086887,0.0073732
613,0.027763,-0.018607,0.031381,0.036314,0.059334,0.012964,0.00046697
614,0.029407,-0.01795,0.044864,0.038287,0.052757,0.010333,0.0054
615,0.027105,-0.0093991,0.055059,0.04322,0.04881,0.0050711,0.017897
616,0.022501,0.0037556,0.06065,0.049468,0.048482,0.0001381,0.026776
617,0.015924,0.019212,0.063938,0.054072,0.04881,-0.0011774,0.023817
618,0.0096753,0.03434,0.065254,0.049797,0.051441,-0.0028217,0.011648
619,0.0096753,0.046508,0.065912,0.039273,0.054072,-0.004466,-0.0038083
620,0.012635,0.051441,0.065254,0.027434,0.052428,-0.0051238,-0.01499
621,0.015595,0.049797,0.066569,0.018226,0.05177,-0.00051963,-0.016963
622,0.018555,0.043549,0.069858,0.013951,0.05473,0.0093464,-0.0074258
623,0.024474,0.034998,0.076764,0.014937,0.058348,0.020199,0.00079584
624,0.02875,0.028092,0.08663,0.01691,0.061307,0.031709,0.0024402
625,0.030065,0.024803,0.094523,0.015924,0.061965,0.041575,-0.0061104
626,0.02579,0.026119,0.097812,0.010004,0.06065,0.047495,-0.015648
627,0.01987,0.029078,0.094523,-0.002164,0.058676,0.047824,-0.019923
628,0.014937,0.031709,0.08367,-0.015648,0.055388,0.044535,-0.016963
629,0.0093464,0.033025,0.0692,-0.024856,0.050455,0.039931,-0.016634
630,0.0044134,0.035656,0.057361,-0.025514,0.043877,0.034998,-0.020909
631,-0.0038083,0.037958,0.055717,-0.020581,0.036971,0.02579,-0.0265
632,-0.015976,0.037958,0.062952,-0.010386,0.02579,0.017568,-0.026829
633,-0.030447,0.037629,0.076435,0.0021113,0.013622,0.015595,-0.0265
634,-0.039326,0.036642,0.09255,0.017897,0.0057288,0.016581,-0.029789
635,-0.041628,0.039931,0.10538,0.036314,0.0077021,0.018226,-0.036695
636,-0.037353,0.043877,0.11031,0.048482,0.014937,0.022501,-0.041299
637,-0.025842,0.04618,0.10505,0.048482,0.021514,0.02875,-0.033406
638,-0.010386,0.045193,0.088932,0.035656,0.025132,0.034669,-0.014661
639,0.0034268,0.04322,0.068871,0.01987,0.024145,0.041904,0.0086887
640,0.013951,0.0373,0.05177,0.0063866,0.020857,0.047824,0.026776
641,0.017239,0.02875,0.047495,-0.0031506,0.020528,0.052428,0.037629
642,0.013293,0.019541,0.052757,-0.0097279,0.022501,0.053743,0.036314
643,0.0057288,0.01132,0.062952,-0.011043,0.021186,0.050126,0.029078
644,-0.0011774,0.0077021,0.071831,-0.007097,0.013951,0.039273,0.024474
645,-0.0047949,0.011977,0.077751,-0.0028217,0.0044134,0.022501,0.021186
646,-0.004466,0.018884,0.078737,-0.0011774,-0.0057815,0.0044134,0.014608
647,0.0011247,0.022172,0.071173,-0.00019077,-0.014332,-0.00019077,0.0083598
648,0.011977,0.016581,0.056703,-0.00051963,-0.019923,0.011977,0.0070443
649,0.024803,0.0070443,0.042233,0.0011247,-0.022883,0.033025,0.0090175
650,0.032038,-0.00051963,0.030394,0.0080309,-0.022883,0.04881,0.0093464
651,0.032367,-0.0008485,0.021514,0.018884,-0.018607,0.051441,0.010004
652,0.029736,0.0073732,0.014937,0.030065,-0.012688,0.042233,0.015266
653,0.026776,0.018555,0.0086887,0.035327,-0.0090702,0.026776,0.022501
654,0.023159,0.029407,0.0030979,0.032367,-0.011043,0.014608,0.030394
655,0.017897,0.0373,-0.0028217,0.026447,-0.016305,0.010991,0.042233
656,0.012964,0.035656,-0.0074258,0.018555,-0.019923,0.014608,0.051441
657,0.010991,0.026119,-0.013017,0.015266,-0.016963,0.018555,0.056374
658,0.010991,0.013622,-0.021238,0.014937,-0.0097279,0.018884,0.056703
659,0.0073732,0.0034268,-0.031762,0.016253,-0.002164,0.015266,0.05177
660,-0.0018351,-0.0024928,-0.043272,0.014608,0.0047422,0.0073732,0.046508
661,-0.012359,-0.0015062,-0.051823,0.013622,0.0070443,-0.0018351,0.044206
662,-0.020252,0.0037556,-0.053467,0.012306,0.0011247,-0.010057,0.041904
663,-0.020909,0.0086887,-0.05281,0.013293,-0.010386,-0.012688,0.038287
664,-0.015319,0.0090175,-0.056098,0.016253,-0.021567,-0.010386,0.035327
665,-0.0077547,0.0067154,-0.062018,0.023488,-0.024856,-0.0057815,0.038616
666,-0.0024928,0.0044134,-0.063662,0.033354,-0.019594,0.0001381,0.047824
667,-0.0011774,0.002769,-0.060702,0.039602,-0.012688,0.0021113,0.056046
668,-0.0018351,-0.0028217,-0.052481,0.039602,-0.0097279,0.0017824,0.058676
669,-0.00051963,-0.010386,-0.042944,0.030723,-0.010057,-0.0018351,0.059334
670,0.0001381,-0.018278,-0.031433,0.019212,-0.013674,-0.0064392,0.060979
671,0.0017824,-0.024198,-0.021567,0.010662,-0.020581,-0.011043,0.066569
672,0.0034268,-0.025842,-0.013674,0.0067154,-0.027487,-0.012359,0.074462
673,0.0086887,-0.01795,-0.0097279,0.0054,-0.035051,-0.014003,0.074791
674,0.015266,-0.00051963,-0.0051238,0.0024402,-0.039326,-0.016634,0.065583
675,0.01987,0.017897,0.00046697,-0.0024928,-0.039326,-0.018278,0.061307
676,0.021514,0.030065,0.0054,-0.0057815,-0.03242,-0.015648,0.059005
677,0.017897,0.034998,0.0054,-0.0054526,-0.02354,-0.011701,0.059334
678,0.012635,0.036642,-0.002164,-0.0047949,-0.015319,-0.0057815,0.059005
679,0.011977,0.039931,-0.014661,-0.0041372,-0.007097,-0.0028217,0.055388
680,0.01691,0.036971,-0.027158,0.0001381,0.00046697,-0.0024928,0.046837
681,0.023817,0.02875,-0.035051,0.0060577,0.0070443,-0.0061104,0.039931
682,0.030394,0.019212,-0.036366,0.010004,0.010333,-0.011372,0.040589
683,0.034998,0.010333,-0.034064,0.011648,0.013951,-0.015976,0.04881
684,0.037958,0.0017824,-0.03242,0.010004,0.017568,-0.019594,0.057032
685,0.042562,-0.0041372,-0.031433,0.0083598,0.023488,-0.015976,0.058019
686,0.04881,-0.0024928,-0.027158,0.0057288,0.027763,-0.010386,0.052428
687,0.052757,0.0073732,-0.021238,0.0060577,0.030723,-0.0034794,0.041904
688,0.053415,0.023159,-0.015319,0.013293,0.029407,0.0021113,0.031052
689,0.052099,0.038616,-0.013345,0.024803,0.024474,0.0067154,0.018884
690,0.049468,0.047166,-0.018278,0.033683,0.021514,0.011977,0.0047422
691,0.047495,0.042562,-0.022554,0.033354,0.020528,0.019212,-0.011043
692,0.042562,0.032038,-0.018936,0.028092,0.018226,0.028092,-0.025514
693,0.035656,0.023488,-0.010057,0.023488,0.010991,0.035656,-0.032091
694,0.026776,0.021843,0.0011247,0.01987,0.0021113,0.036971,-0.029131
695,0.021186,0.025132,0.010662,0.018884,-0.0031506,0.03434,-0.020581
696,0.021186,0.026447,0.017239,0.01987,-0.0054526,0.026776,-0.011043
697,0.024803,0.021514,0.018555,0.018226,-0.0047949,0.019541,-0.00019077
698,0.029736,0.011648,0.016253,0.010333,-0.0051238,0.014608,0.013951
699,0.033025,0.0030979,0.014608,-0.00019077,-0.0038083,0.011648,0.025132
700,0.0373,0.002769,0.01132,-0.011701,-0.0038083,0.0067154,0.028092
701,0.042562,0.010004,0.010991,-0.021567,-0.0054526,-0.00051963,0.017239
702,0.046508,0.021186,0.019212,-0.025185,-0.0084125,-0.007097,-0.0024928
703,0.046508,0.028092,0.031709,-0.021567,-0.013017,-0.014003,-0.028473
704,0.04322,0.028092,0.041904,-0.010715,-0.015319,-0.020581,-0.056427
705,0.038287,0.023817,0.044206,0.0024402,-0.014661,-0.02354,-0.079448
706,0.039931,0.018555,0.045522,0.014937,-0.010386,-0.019594,-0.088656
707,0.046837,0.018226,0.046508,0.02283,-0.007097,-0.0064392,-0.076159
708,0.051113,0.024803,0.046508,0.02283,-0.004466,0.012306,-0.050179
709,0.047824,0.030065,0.047166,0.016581,-0.0034794,0.031381,-0.023869
710,0.036314,0.030723,0.049139,0.0083598,-0.0061104,0.04618,-0.0087413
711,0.023817,0.023817,0.047824,0.0017824,-0.010057,0.058348,-0.011372
712,0.013293,0.012306,0.042233,0.0014536,-0.011701,0.065912,-0.02354
713,0.011977,0.0054,0.036971,0.0073732,-0.0090702,0.070187,-0.036366
714,0.01691,0.0050711,0.038616,0.016581,-0.0018351,0.067556,-0.044917
715,0.02579,0.014608,0.047824,0.032038,0.0090175,0.061307,-0.042615
716,0.029078,0.026776,0.064267,0.050126,0.020857,0.050126,-0.032091
717,0.021843,0.035327,0.079395,0.065912,0.032038,0.037629,-0.020581
718,0.0024402,0.038287,0.084328,0.071502,0.039602,0.021843,-0.016305
719,-0.019923,0.038287,0.078409,0.068871,0.043877,0.0057288,-0.022225
720,-0.035051,0.033354,0.065254,0.060321,0.044206,-0.0084125,-0.029789
721,-0.034064,0.023817,0.050784,0.05177,0.04026,-0.016305,-0.031762
722,-0.025185,0.014279,0.038287,0.046837,0.033683,-0.014332,-0.028144
723,-0.013017,0.0080309,0.027434,0.044864,0.028092,-0.0028217,-0.01795
724,-0.0064392,0.0067154,0.018555,0.047495,0.026776,0.0070443,-0.0024928
725,-0.0041372,0.010333,0.0090175,0.052099,0.029078,0.0083598,0.015266
726,-0.0047949,0.013951,-0.0015062,0.052757,0.031381,0.0050711,0.027105
727,-0.0084125,0.014937,-0.0074258,0.045851,0.027105,0.0030979,0.028421
728,-0.013345,0.012306,-0.0047949,0.0373,0.018226,0.0057288,0.028421
729,-0.019265,0.0096753,0.0034268,0.031709,0.010662,0.0093464,0.025132
730,-0.024198,0.0063866,0.0083598,0.031709,0.0096753,0.0086887,0.012306
731,-0.023869,0.002769,0.0047422,0.037629,0.012306,0.0024402,-0.0067681
732,-0.020581,-0.0031506,-0.0034794,0.044864,0.018555,-0.0041372,-0.016634
733,-0.01499,-0.01203,-0.011043,0.048153,0.026776,-0.004466,-0.010057
734,-0.0074258,-0.018607,-0.0093991,0.05177,0.034669,0.0034268,0.0044134
735,0.0054,-0.018278,0.0021113,0.058019,0.038287,0.016253,0.019212
736,0.019212,-0.0080836,0.016581,0.067885,0.036314,0.02283,0.028421
737,0.026776,0.0063866,0.027434,0.07808,0.028092,0.023817,0.033683
738,0.028092,0.021514,0.030065,0.083999,0.019541,0.021843,0.034669
739,0.029736,0.032367,0.024803,0.084328,0.013951,0.020857,0.031709
740,0.034669,0.039931,0.01691,0.07808,0.013293,0.023159,0.02579
741,0.045193,0.048153,0.0070443,0.071502,0.015266,0.027763,0.019541
742,0.056703,0.056374,-0.0018351,0.069858,0.01691,0.031052,0.015266
743,0.06065,0.061636,-0.0080836,0.073476,0.017897,0.029736,0.016253
744,0.05473,0.06065,-0.011701,0.079395,0.017897,0.026119,0.025132
745,0.042233,0.053086,-0.010057,0.083013,0.01987,0.024474,0.038616
746,0.02875,0.043877,-0.0041372,0.077751,0.02579,0.026119,0.049797
747,0.016581,0.0373,0.0024402,0.067227,0.029078,0.031052,0.059005
748,0.010662,0.035656,0.0067154,0.058019,0.026119,0.031052,0.065583
749,0.010662,0.033025,0.0040845,0.056374,0.018555,0.023159,0.073476
750,0.016581,0.027105,-0.0077547,0.059005,0.0090175,0.010333,0.084657
751,0.027763,0.014937,-0.02354,0.063938,-0.0041372,-0.00019077,0.095181
752,0.038287,0.0030979,-0.033735,0.06624,-0.018278,-0.0064392,0.10044
753,0.044206,-0.0038083,-0.033735,0.064596,-0.024527,-0.0093991,0.09551
754,0.041575,-0.0024928,-0.026171,0.064267,-0.024527,-0.010057,0.080053
755,0.030065,0.002769,-0.018607,0.064596,-0.020252,-0.0067681,0.063281
756,0.012964,0.0080309,-0.014003,0.063938,-0.011372,0.0001381,0.04881
757,-0.0061104,0.014937,-0.012359,0.058676,-0.0024928,0.0096753,0.037958
758,-0.020252,0.02283,-0.012688,0.050126,0.0030979,0.017239,0.030065
759,-0.024856,0.029407,-0.014661,0.042233,0.0090175,0.019212,0.027763
760,-0.01795,0.035656,-0.01795,0.037629,0.017568,0.017568,0.033354
761,-0.007097,0.040918,-0.019923,0.038287,0.029407,0.018226,0.047166
762,0.002769,0.043549,-0.020909,0.038287,0.038616,0.024145,0.06065
763,0.0093464,0.040918,-0.022225,0.034998,0.04322,0.030394,0.068871
764,0.013293,0.034998,-0.023211,0.034669,0.037958,0.031709,0.0692
765,0.012635,0.027434,-0.019923,0.038616,0.029407,0.023488,0.064267
766,0.0083598,0.023817,-0.01203,0.042562,0.021186,0.0086887,0.05769
767,-0.00019077,0.026447,-0.00019077,0.045522,0.01691,-0.0034794,0.052428
768,-0.0097279,0.033025,0.010004,0.042562,0.01691,-0.0097279,0.050784
769,-0.013674,0.039931,0.019212,0.03434,0.016581,-0.0064392,0.047166
770,-0.011701,0.045193,0.021843,0.022501,0.015595,0.0050711,0.041247
771,-0.0054526,0.04618,0.021843,0.012635,0.013293,0.013951,0.040918
772,-0.00019077,0.042562,0.018884,0.0086887,0.011977,0.012306,0.044864
773,0.0030979,0.036642,0.017897,0.010991,0.013622,0.0054,0.053086
774,0.0077021,0.030723,0.018555,0.015595,0.014608,0.0011247,0.070516
775,0.013293,0.027763,0.01987,0.01987,0.014279,0.0011247,0.091892
776,0.019541,0.02875,0.021514,0.01987,0.010991,0.0050711,0.1057
777,0.024145,0.030723,0.024803,0.017239,0.0077021,0.011977,0.1011
778,0.020528,0.02875,0.030394,0.011977,0.0070443,0.021186,0.080053
779,0.0096753,0.022501,0.040918,0.0044134,0.0086887,0.026776,0.051441
780,-0.0024928,0.015924,0.052757,-0.0038083,0.010662,0.026447,0.023817
781,-0.010057,0.011977,0.059992,-0.011372,0.011648,0.019541,0.0044134
782,-0.013345,0.010004,0.059005,-0.015648,0.010662,0.010333,-0.0008485
783,-0.013345,0.0093464,0.053415,-0.015319,0.0057288,0.0021113,0.0044134
784,-0.0090702,0.0096753,0.046508,-0.01203,-0.002164,-0.00051963,0.013622
785,-0.0038083,0.011648,0.042233,-0.0080836,-0.0093991,0.0073732,0.020528
786,0.0001381,0.016581,0.041575,-0.0031506,-0.016305,0.021843,0.025461
787,0.00079584,0.020199,0.042233,0.0017824,-0.020909,0.038287,0.02875
788,0.00046697,0.021514,0.043877,0.00046697,-0.020252,0.05177,0.033025
789,0.0014536,0.017897,0.046508,-0.010386,-0.01499,0.055388,0.036642
790,0.0070443,0.012306,0.051441,-0.025842,-0.010386,0.046508,0.037958
791,0.013622,0.014937,0.058676,-0.040641,-0.0093991,0.031381,0.029736
792,0.019541,0.024803,0.066569,-0.050836,-0.007097,0.018884,0.014937
793,0.023817,0.035656,0.076106,-0.052152,-0.0018351,0.011977,0.0021113
794,0.028421,0.039931,0.085972,-0.045574,0.0050711,0.012964,0.0011247
795,0.034669,0.037629,0.089261,-0.03538,0.0093464,0.022501,0.010004
796,0.037958,0.032367,0.081368,-0.025185,0.0083598,0.029407,0.023159
797,0.036971,0.028092,0.064925,-0.016634,0.0050711,0.029407,0.033354
798,0.031052,0.027434,0.048153,-0.0087413,0.00046697,0.026447,0.034669
799,0.020199,0.030394,0.036642,-0.0024928,-0.0034794,0.02579,0.030065
800,0.010991,0.036314,0.030065,0.0040845,-0.0034794,0.032367,0.016581
801,0.0057288,0.041575,0.023817,0.0093464,-0.0015062,0.042562,-0.0051238
802,0.0063866,0.045522,0.018226,0.014608,0.0060577,0.050455,-0.025185
803,0.010004,0.045851,0.014937,0.020528,0.017239,0.055388,-0.032091
804,0.011977,0.042233,0.013951,0.026447,0.029736,0.055717,-0.022554
805,0.012306,0.036642,0.016253,0.033025,0.042233,0.052757,-0.0057815
806,0.010333,0.029078,0.01987,0.036642,0.049468,0.046508,0.010004
807,0.0080309,0.021843,0.023488,0.032696,0.051441,0.038944,0.021514
808,0.0090175,0.014937,0.024474,0.023159,0.047166,0.031709,0.026776
809,0.0096753,0.0063866,0.018884,0.010991,0.037629,0.025132,0.029407
810,0.011648,-0.0015062,0.0054,0.0021113,0.027763,0.018555,0.03434
811,0.014279,-0.0031506,-0.011043,0.0001381,0.027763,0.013622,0.04322
812,0.015595,0.0017824,-0.022883,0.0063866,0.035985,0.012306,0.054072
813,0.013951,0.0096753,-0.026829,0.017897,0.050126,0.013951,0.062952
814,0.010991,0.018884,-0.026171,0.029078,0.06361,0.01987,0.06361
815,0.010333,0.024474,-0.025514,0.03434,0.073476,0.025132,0.05473
816,0.013293,0.026447,-0.024527,0.033354,0.077093,0.027763,0.04322
817,0.017897,0.028092,-0.024198,0.026447,0.073476,0.024803,0.033354
818,0.021843,0.029736,-0.022554,0.017568,0.064596,0.016581,0.025461
819,0.023817,0.030394,-0.022883,0.010662,0.054401,0.0054,0.020528
820,0.023488,0.028421,-0.024856,0.010004,0.046508,-0.0047949,0.019541
821,0.02579,0.024474,-0.031104,0.013951,0.043877,-0.0090702,0.021514
822,0.032696,0.017568,-0.038668,0.020199,0.04322,-0.010057,0.025132
823,0.045193,0.011977,-0.041628,0.029078,0.047166,-0.007097,0.030065
824,0.057032,0.012635,-0.038339,0.036642,0.052099,-0.0018351,0.038944
825,0.061965,0.020528,-0.031104,0.039602,0.055717,0.0077021,0.049139
826,0.055388,0.032696,-0.025185,0.036971,0.053743,0.020199,0.050784
827,0.043549,0.042891,-0.021567,0.033683,0.045851,0.029078,0.044206
828,0.029736,0.046508,-0.01795,0.029407,0.037629,0.031052,0.038616
829,0.013951,0.042233,-0.015976,0.026119,0.035985,0.029407,0.041247
830,-0.0028217,0.036314,-0.017621,0.020199,0.046837,0.025461,0.055059
831,-0.015976,0.028092,-0.021238,0.014279,0.062294,0.01691,0.071173
832,-0.020581,0.017568,-0.022225,0.0054,0.069858,0.0073732,0.084986
833,-0.014661,0.0054,-0.019265,-0.0008485,0.064267,0.0047422,0.090577
834,-0.0034794,-0.0051238,-0.011043,-0.0018351,0.050126,0.010991,0.080382
835,0.0044134,-0.0077547,-0.002164,0.0044134,0.038944,0.020528,0.052428
836,0.0063866,-0.0054526,0.0024402,0.012306,0.033683,0.029407,0.01691
837,0.0063866,-0.002164,0.00079584,0.017568,0.034669,0.0373,-0.015976
838,0.0030979,-0.0054526,-0.0061104,0.018884,0.034669,0.038944,-0.033078
839,-0.0015062,-0.011043,-0.011701,0.015595,0.032038,0.035327,-0.031104
840,-0.0041372,-0.014332,-0.010715,0.010662,0.026119,0.026447,-0.018278
841,-0.0047949,-0.011701,-0.0031506,0.0067154,0.020199,0.017568,0.00079584
842,-0.0034794,-0.0057815,0.0040845,0.0034268,0.011977,0.013293,0.021186
843,-0.0008485,0.0011247,0.0070443,0.00079584,0.0034268,0.010662,0.037629
844,0.002769,0.0063866,0.0040845,0.00046697,-0.00019077,0.0077021,0.041247
845,0.0083598,0.011648,-0.0031506,0.002769,0.0011247,0.0014536,0.030723
846,0.016253,0.017239,-0.011701,0.0050711,0.0047422,-0.0054526,0.0093464
847,0.025461,0.025132,-0.017621,0.0093464,0.0073732,-0.010715,-0.010386
848,0.036314,0.035656,-0.016634,0.012306,0.0060577,-0.012688,-0.021567
849,0.040589,0.042233,-0.0097279,0.018226,0.0001381,-0.004466,-0.027487
850,0.039602,0.040918,0.00046697,0.029078,-0.0080836,0.0073732,-0.038668
851,0.033683,0.028421,0.011977,0.039602,-0.013017,0.015595,-0.04985
852,0.029407,0.010004,0.023817,0.042233,-0.014003,0.019212,-0.056756
853,0.029407,-0.0061104,0.034998,0.035985,-0.01499,0.014608,-0.056756
854,0.031709,-0.010715,0.042891,0.029736,-0.020581,0.0037556,-0.052481
855,0.036314,-0.0041372,0.042233,0.024803,-0.03242,-0.0054526,-0.047548
856,0.039602,0.0073732,0.0373,0.021186,-0.045903,-0.0047949,-0.041628
857,0.039273,0.015595,0.032038,0.016253,-0.051823,0.0047422,-0.034722
858,0.033025,0.021514,0.02875,0.0073732,-0.050836,0.018555,-0.0265
859,0.022501,0.026447,0.027763,0.0011247,-0.041628,0.032696,-0.020252
860,0.012964,0.031709,0.031381,0.0021113,-0.02946,0.042891,-0.019594
861,0.0090175,0.036314,0.0373,0.010004,-0.015319,0.050784,-0.020252
862,0.0086887,0.035985,0.04322,0.019212,-0.002164,0.053743,-0.019923
863,0.0083598,0.030065,0.048153,0.026119,0.0080309,0.050126,-0.021896
864,0.0067154,0.02579,0.054072,0.02875,0.01132,0.039602,-0.026829
865,0.0034268,0.024474,0.059005,0.028421,0.0073732,0.029736,-0.037024
866,0.0001381,0.025132,0.064267,0.030065,-0.0018351,0.020199,-0.048863
867,-0.0028217,0.028092,0.06624,0.034998,-0.0090702,0.011977,-0.049521
868,-0.0038083,0.02875,0.064267,0.035985,-0.011372,0.0040845,-0.040313
869,-0.0041372,0.024803,0.059663,0.027105,-0.010057,0.0001381,-0.024856
870,-0.007097,0.020528,0.054401,0.010004,-0.007097,0.0014536,-0.010715
871,-0.013017,0.017897,0.052099,-0.0064392,-0.0028217,0.0070443,-0.0054526
872,-0.017292,0.016581,0.056046,-0.014003,-0.0008485,0.012635,-0.007097
873,-0.018936,0.014608,0.061307,-0.013345,-0.002164,0.014279,-0.0090702
874,-0.01499,0.012306,0.06624,-0.0093991,-0.0061104,0.014937,-0.0077547
875,-0.0054526,0.010004,0.069529,-0.0024928,-0.0093991,0.019541,-0.0080836
876,0.0057288,0.010004,0.068543,0.0047422,-0.0097279,0.025461,-0.0084125
877,0.016581,0.01132,0.062294,0.012306,-0.0061104,0.026447,-0.0087413
878,0.024474,0.013622,0.053086,0.018555,-0.0008485,0.015924,-0.0087413
879,0.025461,0.01987,0.041904,0.021843,0.0021113,-0.0034794,-0.004466
880,0.02283,0.027763,0.033354,0.021843,-0.00051963,-0.024527,0.0054
881,0.020199,0.033354,0.026776,0.017897,-0.0064392,-0.039326,0.0093464
882,0.026447,0.037629,0.025132,0.012306,-0.013017,-0.044588,0.002769
883,0.036314,0.037629,0.026447,0.0050711,-0.015976,-0.038011,-0.010057
884,0.046508,0.037958,0.026776,-0.00051963,-0.013674,-0.025514,-0.022225
885,0.053086,0.040589,0.027105,-0.0034794,-0.0061104,-0.013345,-0.022883
886,0.05473,0.048153,0.029736,-0.0028217,0.0037556,-0.0061104,-0.010057
887,0.055059,0.054072,0.032367,0.00046697,0.016253,-0.0057815,0.012306
888,0.054401,0.052428,0.032696,0.0034268,0.02875,-0.011043,0.034998
889,0.053415,0.040918,0.026447,0.010333,0.035985,-0.017621,0.058019
890,0.051441,0.027434,0.015266,0.024803,0.037629,-0.020581,0.080711
891,0.049139,0.014279,0.0014536,0.043877,0.035327,-0.017621,0.099456
892,0.050126,0.0054,-0.01499,0.065912,0.031052,-0.0080836,0.11097
893,0.055388,0.002769,-0.030118,0.083342,0.025461,0.0044134,0.1136
894,0.061636,0.0086887,-0.037353,0.09255,0.017568,0.015595,0.11261
895,0.063281,0.020199,-0.033406,0.086959,0.0093464,0.021186,0.11524
896,0.058019,0.031709,-0.021896,0.07512,0.0011247,0.024145,0.12017
897,0.047495,0.037958,-0.01203,0.063938,-0.0064392,0.024474,0.12116
898,0.03434,0.037629,-0.013345,0.061307,-0.012359,0.021186,0.11721
899,0.020528,0.033683,-0.02946,0.062294,-0.017621,0.02283,0.11064
900,0.010991,0.031052,-0.050836,0.060979,-0.019594,0.031052,0.10538
901,0.0070443,0.029736,-0.066293,0.05473,-0.019594,0.044864,0.10538
902,0.0070443,0.030394,-0.06728,0.046508,-0.015319,0.059005,0.10866
903,0.0096753,0.032367,-0.054783,0.039602,-0.010386,0.068214,0.11327
904,0.011648,0.032696,-0.03538,0.034669,-0.0090702,0.069529,0.10998
905,0.011977,0.030723,-0.019594,0.028092,-0.010386,0.06361,0.096825
906,0.011648,0.025461,-0.012359,0.022501,-0.013674,0.055388,0.077093
907,0.014608,0.018555,-0.013345,0.019212,-0.016963,0.047495,0.059992
908,0.019212,0.012635,-0.017292,0.017568,-0.019594,0.04026,0.049797
909,0.021843,0.01132,-0.018278,0.018555,-0.019923,0.031052,0.045522
910,0.023817,0.013951,-0.013674,0.021843,-0.017292,0.024474,0.042233
911,0.026447,0.020528,-0.007097,0.02283,-0.013674,0.02283,0.039602
912,0.031381,0.025461,-0.0028217,0.019541,-0.01203,0.02579,0.036971
913,0.037958,0.025132,-0.0051238,0.012306,-0.0087413,0.031052,0.036971
914,0.04026,0.021843,-0.011701,0.0063866,-0.0054526,0.034998,0.041247
915,0.036971,0.017239,-0.015976,0.0054,-0.00019077,0.034998,0.047166
916,0.026776,0.013622,-0.011701,0.0093464,0.0077021,0.027105,0.055059
917,0.010662,0.010662,-0.0031506,0.015595,0.015595,0.013622,0.060979
918,-0.002164,0.0070443,0.0037556,0.020528,0.022501,-0.002164,0.063281
919,-0.0090702,0.0050711,0.0014536,0.021514,0.026776,-0.014661,0.060979
920,-0.011043,0.0034268,-0.0097279,0.018555,0.023817,-0.020581,0.059005
921,-0.0090702,0.0037556,-0.021567,0.016253,0.013951,-0.020581,0.058019
922,-0.0038083,0.0067154,-0.02946,0.016581,-0.0015062,-0.019594,0.055059
923,0.0070443,0.010991,-0.02946,0.016253,-0.016963,-0.020909,0.047824
924,0.015266,0.013622,-0.025842,0.015595,-0.025514,-0.022225,0.04026
925,0.018884,0.013293,-0.021567,0.015924,-0.028802,-0.022225,0.033354
926,0.015266,0.0077021,-0.016963,0.018226,-0.02946,-0.020252,0.029407
927,0.0077021,-0.0028217,-0.01203,0.025461,-0.026829,-0.017292,0.032038
928,-0.0038083,-0.01203,-0.010715,0.036642,-0.021896,-0.010715,0.035985
929,-0.012359,-0.017292,-0.010057,0.049797,-0.016305,0.0014536,0.029736
930,-0.011372,-0.01795,-0.0067681,0.059992,-0.0087413,0.010662,0.010004
931,-0.002164,-0.016634,0.00046697,0.066569,-0.0015062,0.010662,-0.014332
932,0.0073732,-0.013345,0.0093464,0.067227,0.0047422,0.0057288,-0.036366
933,0.010333,-0.0077547,0.012306,0.062623,0.010991,0.0047422,-0.045903
934,0.0086887,-0.0034794,0.0060577,0.054401,0.016253,0.0096753,-0.039655
935,0.0060577,-0.00019077,-0.0047949,0.044206,0.017897,0.018884,-0.022554
936,0.0037556,0.0014536,-0.010386,0.034011,0.016253,0.025132,-0.0041372
937,0.0014536,0.0024402,-0.0077547,0.022501,0.013622,0.026447,0.0083598
938,0.0034268,0.0044134,-0.00051963,0.010004,0.016581,0.026119,0.0080309
939,0.0096753,0.0083598,0.0093464,-0.0008485,0.024803,0.028092,-0.0038083
940,0.014608,0.013293,0.018555,-0.0064392,0.032038,0.031052,-0.01795
941,0.016253,0.016581,0.024803,-0.0051238,0.035656,0.032367,-0.028144
942,0.014279,0.020528,0.028092,0.002769,0.038616,0.031052,-0.026829
943,0.0083598,0.02579,0.030723,0.012635,0.044206,0.029407,-0.013674
944,0.0001381,0.033354,0.036971,0.021514,0.049468,0.024474,-0.0018351
945,-0.011372,0.037958,0.046508,0.026447,0.050126,0.014279,0.002769
946,-0.021567,0.037958,0.058676,0.030394,0.04322,-0.00051963,-0.00051963
947,-0.025514,0.039931,0.0692,0.031381,0.034669,-0.016305,-0.0034794
948,-0.021567,0.042233,0.074462,0.030394,0.028421,-0.027158,-0.0008485
949,-0.012359,0.043549,0.077422,0.026447,0.029407,-0.034393,0.0073732
950,-0.0028217,0.043877,0.078737,0.022172,0.032367,-0.039326,0.017239
951,0.002769,0.043549,0.074462,0.021186,0.039931,-0.041628,0.02579
952,0.0047422,0.040589,0.067556,0.020528,0.047166,-0.040313,0.030723
953,0.0047422,0.037629,0.06361,0.017897,0.052428,-0.037353,0.030394
954,0.0057288,0.038616,0.06624,0.015266,0.055059,-0.034064,0.022501
955,0.0067154,0.041247,0.070187,0.016581,0.049139,-0.032749,0.014937
956,0.0073732,0.045851,0.070187,0.01987,0.037629,-0.030118,0.016581
957,0.0093464,0.048153,0.064596,0.019541,0.024474,-0.020909,0.023488
958,0.015266,0.044206,0.059005,0.015595,0.012306,-0.0047949,0.02875
959,0.025132,0.03434,0.055388,0.011648,0.00079584,0.015595,0.031709
960,0.033025,0.01987,0.05473,0.0096753,-0.007097,0.035656,0.035327
961,0.033025,0.0057288,0.058676,0.0093464,-0.0077547,0.046837,0.042233
962,0.021186,-0.0077547,0.065912,0.0093464,-0.0008485,0.052428,0.051441
963,0.0047422,-0.018607,0.073147,0.0077021,0.010004,0.054401,0.059334
964,-0.0090702,-0.022554,0.077751,0.0080309,0.016253,0.053743,0.058348
965,-0.01795,-0.016305,0.077422,0.0086887,0.017897,0.053415,0.041904
966,-0.018936,-0.0018351,0.074462,0.0093464,0.015266,0.053086,0.018555
967,-0.012688,0.016253,0.072818,0.0080309,0.012635,0.054401,-0.00019077
968,-0.0031506,0.031381,0.073147,0.0040845,0.012635,0.058348,-0.010386
969,0.002769,0.036971,0.072489,0.0030979,0.016581,0.06361,-0.0097279
970,0.0014536,0.03434,0.071502,0.0090175,0.020528,0.065912,-0.0024928
971,-0.0041372,0.023488,0.06624,0.020199,0.023488,0.06361,0.0024402
972,-0.010386,0.0070443,0.054401,0.030065,0.024803,0.056703,-0.0024928
973,-0.01203,-0.0064392,0.040918,0.036642,0.027105,0.046837,-0.013017
974,-0.0084125,-0.011372,0.028092,0.041575,0.029078,0.036971,-0.01795
975,-0.002164,-0.0064392,0.015595,0.047166,0.033354,0.02875,-0.014003
976,0.0044134,0.0021113,0.0040845,0.052099,0.037629,0.02875,-0.0054526
977,0.011977,0.0080309,-0.0054526,0.051113,0.042233,0.032696,0.0001381
978,0.017897,0.0090175,-0.013017,0.041904,0.045851,0.038944,0.0001381
979,0.020199,0.0083598,-0.01499,0.02283,0.050784,0.046837,0.0001381
980,0.018555,0.0080309,-0.011701,0.0050711,0.053743,0.053743,0.0040845
981,0.013293,0.014937,-0.0087413,-0.0051238,0.051113,0.057032,0.010662
982,0.010662,0.026776,-0.0061104,-0.0057815,0.038287,0.055388,0.013951
983,0.010991,0.036971,-0.0090702,-0.0028217,0.012964,0.047495,0.012635
984,0.010662,0.04026,-0.017621,0.0001381,-0.015319,0.032696,0.011977
985,0.01132,0.039273,-0.029789,0.0047422,-0.034722,0.016581,0.015595
986,0.016581,0.03434,-0.038011,0.0093464,-0.039326,0.0054,0.030394
987,0.020528,0.027763,-0.039984,0.016253,-0.036037,0.0030979,0.045522
988,0.022172,0.021843,-0.037353,0.020857,-0.029789,0.010662,0.046508
989,0.02283,0.017897,-0.031433,0.021514,-0.024527,0.021186,0.031052
990,0.019212,0.013622,-0.020252,0.019212,-0.021896,0.026447,0.0054
991,0.011977,0.010004,-0.0077547,0.016581,-0.017621,0.021843,-0.019923
992,0.0014536,0.0073732,0.0030979,0.014608,-0.0097279,0.0086887,-0.037024
993,-0.0097279,0.0070443,0.0070443,0.013293,0.0001381,-0.0084125,-0.038339
994,-0.017292,0.010991,0.0057288,0.011648,0.013293,-0.026829,-0.03242
995,-0.016963,0.022172,0.0021113,0.010662,0.023488,-0.040641,-0.020909
996,-0.013017,0.034998,-0.0028217,0.0096753,0.028421,-0.04393,-0.0047949
997,-0.0084125,0.041575,-0.010057,0.012306,0.028092,-0.036695,0.010662
998,-0.0067681,0.036314,-0.020581,0.017897,0.025461,-0.028144,0.027763
999,-0.0047949,0.024474,-0.028144,0.026119,0.023817,-0.019265,0.045522
1000,-0.0015062,0.014608,-0.030775,0.033354,0.025461,-0.011701,0.059334
1001,0.0044134,0.010662,-0.027487,0.036642,0.029078,-0.0054526,0.060979
1002,0.010662,0.012306,-0.018936,0.039931,0.032038,0.0011247,0.05177
1003,0.014937,0.015595,-0.0090702,0.043877,0.031381,0.011977,0.041247
1004,0.017568,0.015924,-0.0031506,0.04322,0.027434,0.028092,0.035985
1005,0.016581,0.012635,-0.0031506,0.039931,0.024474,0.042562,0.041904
1006,0.015924,0.0037556,-0.0074258,0.038287,0.023488,0.047824,0.051113
1007,0.015595,-0.0064392,-0.013674,0.037958,0.024474,0.045193,0.057032
1008,0.014937,-0.010386,-0.015648,0.039602,0.025461,0.039273,0.062952
1009,0.014279,-0.010057,-0.01203,0.038616,0.02579,0.033354,0.073147
1010,0.01132,-0.0054526,-0.0047949,0.039273,0.028421,0.025132,0.083013
1011,0.0086887,-0.00051963,0.00046697,0.041904,0.033683,0.016581,0.086959
1012,0.0096753,0.0070443,0.0044134,0.044535,0.035656,0.014937,0.082684
1013,0.012964,0.013622,0.0060577,0.045193,0.031709,0.020857,0.068214
1014,0.018226,0.015266,0.0060577,0.042891,0.027434,0.031709,0.05177
1015,0.026119,0.015924,0.0057288,0.040589,0.025132,0.040589,0.041904
1016,0.034998,0.018555,0.0044134,0.04026,0.024803,0.042233,0.035327
1017,0.044535,0.026119,0.0044134,0.041247,0.024803,0.040589,0.026776
1018,0.050126,0.035985,0.0067154,0.039602,0.023817,0.039273,0.018884
1019,0.050126,0.046837,0.010662,0.033354,0.019541,0.034011,0.015266
1020,0.042562,0.05473,0.013951,0.025461,0.018884,0.020857,0.013951
1021,0.032367,0.059992,0.023159,0.016581,0.024474,0.002769,0.014608
1022,0.020528,0.060321,0.035656,0.0073732,0.033025,-0.01203,0.014937
1023,0.0090175,0.054401,0.049468,-0.0008485,0.038944,-0.019265,0.0077021
1024,0.0034268,0.050126,0.059663,-0.007097,0.039273,-0.020909,-0.0054526
1025,0.0037556,0.047824,0.064267,-0.0074258,0.03434,-0.018607,-0.016634
1026,0.0083598,0.049139,0.06361,-0.0061104,0.030394,-0.015648,-0.022225
1027,0.014937,0.052428,0.064267,-0.002164,0.030394,-0.011043,-0.023211
1028,0.020528,0.05473,0.067227,0.0034268,0.033683,-0.0084125,-0.022225
1029,0.022501,0.053415,0.073476,0.0080309,0.037629,-0.0093991,-0.016634
1030,0.017239,0.050455,0.078737,0.010662,0.039273,-0.014661,-0.012359
1031,0.0047422,0.044864,0.081697,0.0096753,0.036314,-0.021567,-0.0051238
1032,-0.0077547,0.037958,0.079724,0.0060577,0.031709,-0.024856,0.0057288
1033,-0.012688,0.031709,0.07216,0.0014536,0.02875,-0.019594,0.014608
1034,-0.0097279,0.026776,0.062952,-0.0011774,0.022172,-0.0067681,0.020199
1035,0.0011247,0.025461,0.056046,-0.00019077,0.014279,0.0047422,0.023817
1036,0.012635,0.025132,0.057032,0.0034268,0.010004,0.013622,0.028092
1037,0.020528,0.024474,0.059334,0.0070443,0.011977,0.018884,0.03434
1038,0.022172,0.024474,0.05473,0.0090175,0.016253,0.023488,0.043549
1039,0.017568,0.027434,0.044206,0.012306,0.01691,0.026447,0.051441
1040,0.012635,0.032367,0.03434,0.016253,0.01132,0.025461,0.050455
1041,0.010991,0.0373,0.028092,0.017239,0.0021113,0.018555,0.040589
1042,0.014608,0.04026,0.025461,0.013293,-0.0034794,0.010333,0.029078
1043,0.021186,0.039931,0.023488,0.0096753,-0.002164,0.0014536,0.022172
1044,0.031052,0.036971,0.021186,0.01132,-0.00051963,-0.0038083,0.023159
1045,0.042562,0.030394,0.016253,0.020528,-0.0051238,-0.0067681,0.026776
1046,0.049797,0.023159,0.012306,0.031381,-0.014332,-0.0074258,0.023817
1047,0.05177,0.017239,0.010662,0.039273,-0.02354,-0.0084125,0.018884
1048,0.050784,0.012306,0.010662,0.041247,-0.026829,-0.010057,0.01987
1049,0.050126,0.010991,0.0093464,0.036971,-0.021238,-0.0077547,0.028092
1050,0.044535,0.013622,-0.00019077,0.028421,-0.013017,-0.0011774,0.04026
1051,0.033683,0.015924,-0.01499,0.018555,-0.0054526,0.0073732,0.04881
1052,0.018884,0.012635,-0.02946,0.0090175,0.00046697,0.012306,0.046837
1053,0.0063866,0.0054,-0.038011,0.00046697,0.0014536,0.013951,0.040589
1054,0.00046697,-0.0011774,-0.038668,-0.0034794,-0.0018351,0.014279,0.038944
1055,0.0001381,-0.0064392,-0.036366,-0.00019077,-0.0018351,0.015924,0.041247
1056,0.0034268,-0.0097279,-0.033735,0.0083598,0.0037556,0.016253,0.04618
1057,0.0093464,-0.0087413,-0.031433,0.019212,0.0086887,0.016253,0.049468
1058,0.014937,-0.0034794,-0.031433,0.029407,0.0080309,0.011977,0.051113
1059,0.01691,0.0040845,-0.035051,0.040918,0.0034268,0.0060577,0.053086
1060,0.016253,0.0060577,-0.042286,0.05177,0.0030979,0.0073732,0.057361
1061,0.013293,0.0021113,-0.049192,0.056374,0.0080309,0.017568,0.064267
1062,0.0080309,-0.0034794,-0.052152,0.053086,0.016581,0.027434,0.070187
1063,0.0017824,-0.0051238,-0.048863,0.042891,0.023159,0.027105,0.07512
1064,-0.0015062,-0.0018351,-0.039984,0.029078,0.023159,0.017897,0.073476
1065,-0.00019077,0.0054,-0.031433,0.018226,0.018226,0.0080309,0.062623
1066,0.0044134,0.012635,-0.028144,0.012635,0.012964,0.0037556,0.048153
1067,0.0083598,0.020199,-0.025842,0.013622,0.010004,0.0057288,0.035656
1068,0.010333,0.027434,-0.02354,0.019541,0.012635,0.012964,0.026119
1069,0.013951,0.031052,-0.022225,0.027434,0.017897,0.021843,0.020857
1070,0.022501,0.031709,-0.020581,0.033683,0.018555,0.029407,0.01691
1071,0.031709,0.030394,-0.019265,0.036314,0.013622,0.035985,0.0067154
1072,0.04322,0.033354,-0.019265,0.035985,0.0024402,0.038287,-0.0064392
1073,0.052757,0.034998,-0.020909,0.031381,-0.011043,0.037629,-0.010057
1074,0.053415,0.0373,-0.025842,0.024474,-0.021567,0.036971,-0.0018351
1075,0.046837,0.040918,-0.029789,0.018226,-0.028144,0.038287,0.0093464
1076,0.039602,0.044206,-0.032091,0.016581,-0.028144,0.036642,0.014608
1077,0.032696,0.04618,-0.030775,0.01987,-0.021567,0.032038,0.01132
1078,0.027434,0.041247,-0.029789,0.024803,-0.0087413,0.025461,0.0040845
1079,0.025132,0.035985,-0.028802,0.029407,0.0017824,0.017897,-0.0008485
1080,0.026776,0.030394,-0.024856,0.033025,0.0050711,0.010333,-0.0034794
1081,0.030394,0.026119,-0.023211,0.036971,0.0034268,0.0070443,-0.0054526
1082,0.029736,0.02579,-0.02354,0.039602,0.0054,0.01132,-0.0084125
1083,0.024803,0.026776,-0.024198,0.039931,0.0047422,0.020199,-0.011043
1084,0.020199,0.027434,-0.022554,0.041247,-0.00019077,0.030723,-0.0064392
1085,0.017568,0.02579,-0.020252,0.041904,-0.0051238,0.036971,0.0034268
1086,0.014279,0.023817,-0.016305,0.04026,-0.0090702,0.036971,0.014608
1087,0.012306,0.021843,-0.010386,0.036314,-0.0093991,0.027105,0.016253
1088,0.012306,0.018884,-0.0067681,0.035656,-0.0047949,0.014937,0.012306
1089,0.013293,0.01987,-0.007097,0.037629,0.0001381,0.0057288,0.0090175
1090,0.013293,0.024474,-0.013017,0.044206,0.0021113,0.0001381,0.010333
1091,0.012306,0.032367,-0.021238,0.050126,-0.0008485,-0.0041372,0.012306
1092,0.011977,0.037629,-0.023211,0.054401,-0.0041372,-0.0061104,0.010333
1093,0.014279,0.036971,-0.017621,0.052757,-0.007097,-0.0047949,0.0050711
1094,0.017897,0.031052,-0.0047949,0.045522,-0.0074258,-0.0015062,-0.00019077
1095,0.023817,0.022501,0.0096753,0.034998,-0.0074258,0.002769,-0.0034794
1096,0.032696,0.014608,0.01987,0.024474,-0.0077547,0.0057288,-0.00051963
1097,0.036971,0.0073732,0.024474,0.01132,-0.010386,0.010662,0.0070443
1098,0.033025,0.0011247,0.025461,-0.0054526,-0.014661,0.01691,0.010991
1099,0.024145,-0.0054526,0.027105,-0.022883,-0.01499,0.023817,0.0083598
1100,0.014608,-0.010386,0.031052,-0.035051,-0.010386,0.029078,-0.0011774
1101,0.0096753,-0.015648,0.035985,-0.037682,-0.0031506,0.030723,-0.010386
1102,0.01132,-0.01795,0.04026,-0.031104,0.0050711,0.029736,-0.012359
1103,0.020528,-0.015648,0.04322,-0.022225,0.013293,0.027105,-0.0047949
1104,0.032367,-0.0090702,0.045851,-0.01499,0.015266,0.021843,0.0030979
1105,0.04026,-0.0054526,0.048153,-0.012688,0.010333,0.015266,0.0014536
1106,0.035327,-0.0024928,0.047824,-0.014661,0.0040845,0.013293,-0.0061104
1107,0.020199,-0.0008485,0.04618,-0.01795,0.0040845,0.01691,-0.011701
1108,0.0034268,-0.00051963,0.042562,-0.018936,0.012964,0.024803,-0.01499
1109,-0.011043,-0.0015062,0.040918,-0.019265,0.026119,0.030723,-0.014661
1110,-0.019923,-0.002164,0.043549,-0.018936,0.035656,0.032367,-0.010057
1111,-0.022225,0.0014536,0.048482,-0.017621,0.039931,0.026447,-0.0064392
1112,-0.016305,0.0080309,0.052428,-0.013017,0.039602,0.014937,-0.0057815
1113,-0.0031506,0.017568,0.056046,-0.0064392,0.035985,0.0057288,-0.0067681
1114,0.01132,0.02875,0.062294,-0.0018351,0.031709,0.0034268,-0.011372
1115,0.021843,0.037629,0.069858,0.0001381,0.029078,0.010004,-0.016963
1116,0.026776,0.0373,0.071831,0.0017824,0.030394,0.021186,-0.020252
1117,0.027763,0.028092,0.070187,0.0040845,0.03434,0.032367,-0.023211
1118,0.02875,0.01691,0.066569,0.0067154,0.038944,0.039931,-0.027487
1119,0.031052,0.010991,0.063938,0.010333,0.044206,0.04322,-0.032091
1120,0.038287,0.0096753,0.058676,0.011977,0.049139,0.039931,-0.032749
1121,0.04618,0.0083598,0.049468,0.011648,0.04881,0.035656,-0.020581
1122,0.046508,0.0030979,0.042562,0.011648,0.041247,0.035985,0.00079584
1123,0.039273,-0.0047949,0.04618,0.016253,0.026447,0.044535,0.01987
1124,0.026776,-0.010057,0.055388,0.023817,0.011977,0.052428,0.026119
1125,0.010333,-0.011701,0.06361,0.027763,0.0021113,0.052757,0.021514
1126,-0.0031506,-0.0084125,0.067556,0.027105,-0.0038083,0.047166,0.015595
1127,-0.012688,-0.0031506,0.065912,0.020857,-0.0061104,0.034998,0.021186
1128,-0.015648,0.0011247,0.057032,0.015924,-0.0054526,0.020857,0.041247
1129,-0.014003,0.0001381,0.044206,0.015266,0.0017824,0.011977,0.062952
1130,-0.0067681,-0.0047949,0.028092,0.019212,0.013293,0.010004,0.072489
1131,0.0063866,-0.0090702,0.0096753,0.026447,0.021843,0.013293,0.062623
1132,0.026776,-0.010057,-0.0057815,0.033025,0.026447,0.018226,0.044864
1133,0.044206,-0.0038083,-0.015976,0.035985,0.025461,0.023159,0.030065
1134,0.055717,0.0060577,-0.020909,0.032696,0.021186,0.026447,0.021514
1135,0.057361,0.017239,-0.02354,0.027434,0.015924,0.026119,0.021843
1136,0.052099,0.028421,-0.025514,0.025132,0.012306,0.018555,0.031709
1137,0.04322,0.038616,-0.027158,0.025132,0.010662,0.010004,0.052428
1138,0.032367,0.043877,-0.022883,0.024474,0.0093464,-0.00019077,0.075778
1139,0.021843,0.046837,-0.016634,0.024474,0.0050711,-0.0061104,0.092221
1140,0.014608,0.051441,-0.012688,0.021514,-0.00019077,-0.0031506,0.10077
1141,0.013622,0.055388,-0.011372,0.020199,-0.004466,0.011977,0.11064
1142,0.014937,0.057361,-0.011701,0.020528,-0.0084125,0.030065,0.12215
1143,0.012964,0.057032,-0.013017,0.024145,-0.010715,0.04026,0.12642
1144,0.0086887,0.05473,-0.016305,0.032367,-0.0087413,0.036971,0.11952
1145,0.002769,0.05177,-0.020581,0.039931,-0.0038083,0.024803,0.10669
1146,-0.0057815,0.049468,-0.022225,0.044206,0.0047422,0.010004,0.095181
1147,-0.013017,0.047495,-0.018278,0.045522,0.014608,-0.0031506,0.084328
1148,-0.018278,0.042562,-0.0093991,0.04618,0.024474,-0.015976,0.073147
1149,-0.021567,0.035985,-0.0008485,0.042891,0.03434,-0.026829,0.068543
1150,-0.021567,0.028421,0.0024402,0.0373,0.04026,-0.031762,0.072489
1151,-0.019923,0.02579,0.0011247,0.034998,0.039602,-0.032749,0.071502
1152,-0.014332,0.028092,-0.0011774,0.0373,0.033025,-0.030118,0.057032
1153,-0.0054526,0.033683,0.00079584,0.04322,0.026119,-0.025514,0.029407
1154,0.0011247,0.037958,0.0030979,0.049797,0.022172,-0.020581,-0.0051238
1155,0.002769,0.037958,0.0014536,0.054401,0.017897,-0.016634,-0.038997
1156,-0.0034794,0.038944,-0.0031506,0.055388,0.013293,-0.014661,-0.06136
1157,-0.012688,0.038944,-0.010057,0.052099,0.0054,-0.012688,-0.066622
1158,-0.018607,0.038616,-0.019594,0.044535,-0.0047949,-0.012359,-0.051494
1159,-0.016963,0.039602,-0.027816,0.036642,-0.014003,-0.0080836,-0.022883
1160,-0.011372,0.040589,-0.031433,0.032038,-0.020909,0.0037556,0.0054
1161,-0.0061104,0.040589,-0.025185,0.033683,-0.024527,0.018884,0.024803
1162,-0.00019077,0.039273,-0.013017,0.040918,-0.023869,0.027105,0.033354
1163,0.0083598,0.03434,-0.0018351,0.050455,-0.016305,0.026119,0.033025
1164,0.017897,0.027434,0.0050711,0.060321,-0.0034794,0.017568,0.026776
1165,0.027105,0.023488,0.0093464,0.067556,0.0083598,0.0090175,0.020857
1166,0.033025,0.01987,0.011977,0.070187,0.019541,0.0080309,0.013293
1167,0.034998,0.017897,0.010991,0.065912,0.030394,0.014279,0.0080309
1168,0.032367,0.017897,0.0063866,0.060321,0.036971,0.025461,0.012635
1169,0.029078,0.018555,0.0021113,0.05769,0.039273,0.037629,0.026776
1170,0.023817,0.019541,0.00046697,0.059663,0.036971,0.047495,0.041904
1171,0.020199,0.022172,0.0011247,0.064596,0.036314,0.053743,0.05177
1172,0.019212,0.025132,0.0044134,0.06624,0.039273,0.052757,0.053415
1173,0.016581,0.027763,0.010004,0.062294,0.044206,0.044535,0.051441
1174,0.0080309,0.028421,0.015924,0.054401,0.049468,0.032367,0.043877
1175,-0.0054526,0.026776,0.024145,0.050126,0.053086,0.019212,0.036971
1176,-0.016963,0.024803,0.033025,0.050126,0.050455,0.011648,0.036971
1177,-0.021896,0.027105,0.041247,0.050455,0.042891,0.0086887,0.038616
1178,-0.020909,0.036314,0.044864,0.047495,0.036314,0.010004,0.03434
1179,-0.016634,0.045193,0.041247,0.039273,0.036314,0.010333,0.023817
1180,-0.01203,0.048482,0.033354,0.029407,0.039273,0.0090175,0.0093464
1181,-0.0067681,0.044864,0.023817,0.022172,0.041247,0.0080309,-0.00019077
1182,0.0011247,0.0373,0.016253,0.022501,0.037958,0.0070443,-0.0047949
1183,0.0080309,0.030394,0.013293,0.027434,0.028421,0.0083598,-0.0051238
1184,0.0080309,0.027434,0.019541,0.032696,0.014937,0.017897,0.0017824
1185,-0.0028217,0.028092,0.032038,0.035327,0.0024402,0.033025,0.013622
1186,-0.016634,0.029078,0.046508,0.039602,-0.002164,0.044206,0.023159
1187,-0.02354,0.028092,0.063281,0.042233,0.002769,0.044864,0.026119
1188,-0.016634,0.024803,0.081368,0.043877,0.011977,0.035327,0.019541
1189,-0.0024928,0.01987,0.096167,0.041247,0.020857,0.022172,0.0070443
1190,0.01132,0.015924,0.10307,0.034998,0.02579,0.013951,0.0011247
1191,0.017897,0.012964,0.1034,0.023817,0.026447,0.015595,0.0073732
1192,0.017568,0.012306,0.10044,0.013622,0.024474,0.022172,0.017897
1193,0.01132,0.013622,0.093865,0.0093464,0.023488,0.032038,0.02579
1194,0.0063866,0.014937,0.085315,0.0093464,0.023817,0.036642,0.025132
1195,0.0060577,0.014937,0.071502,0.0086887,0.020857,0.031709,0.021186
1196,0.0080309,0.012306,0.056046,0.0060577,0.010991,0.018226,0.021514
1197,0.0093464,0.0086887,0.044535,0.0083598,-0.0041372,0.0017824,0.024803
1198,0.010662,0.0044134,0.041575,0.016581,-0.018607,-0.013017,0.023817
1199,0.013293,0.0037556,0.040589,0.028421,-0.027816,-0.022225,0.017568
1200,0.01987,0.0037556,0.036642,0.034998,-0.031433,-0.028473,0.0047422
1201,0.027763,0.0054,0.033025,0.031709,-0.027816,-0.02946,-0.012688
1202,0.036314,0.0080309,0.03434,0.018555,-0.018607,-0.022554,-0.024856
1203,0.041904,0.011977,0.04322,0.0057288,-0.0084125,-0.0074258,-0.020581
1204,0.043549,0.012306,0.052757,-0.0024928,-0.0024928,0.0077021,-0.0034794
1205,0.039273,0.010662,0.055717,-0.0031506,-0.0034794,0.015595,0.018226
1206,0.02875,0.010991,0.052757,0.0014536,-0.0051238,0.015595,0.035656
1207,0.016253,0.01132,0.04618,0.0077021,-0.0028217,0.012306,0.042562
1208,0.010333,0.010333,0.038287,0.010991,0.0030979,0.0057288,0.035327
1209,0.011977,0.0060577,0.032696,0.0077021,0.0063866,-0.0054526,0.018884
1210,0.020199,-0.00051963,0.029736,-0.0024928,0.002769,-0.019594,0.0001381
1211,0.023488,-0.0051238,0.027434,-0.014661,-0.0074258,-0.032749,-0.011043
1212,0.023159,-0.0080836,0.022501,-0.027816,-0.019923,-0.039326,-0.014332
1213,0.020199,-0.01203,0.010004,-0.037353,-0.027158,-0.037024,-0.010386
1214,0.018884,-0.01499,-0.0067681,-0.040641,-0.028802,-0.031104,-0.0034794
1215,0.017239,-0.016305,-0.020252,-0.034064,-0.026171,-0.024856,-0.00051963
1216,0.013951,-0.016305,-0.026829,-0.020909,-0.019594,-0.018607,-0.00019077
1217,0.0090175,-0.015319,-0.027816,-0.0038083,-0.011372,-0.011701,0.00046697
1218,0.0030979,-0.014332,-0.025842,0.010662,-0.0028217,-0.0057815,0.0034268
1219,0.00079584,-0.013017,-0.028802,0.016253,0.002769,-0.002164,0.011977
1220,0.0030979,-0.011372,-0.037682,0.012635,0.0040845,-0.00051963,0.023488
1221,0.012306,-0.011043,-0.047219,0.0014536,0.0040845,0.0021113,0.0373
1222,0.024145,-0.007097,-0.048534,-0.011043,0.0044134,0.0044134,0.050455
1223,0.034011,-0.0015062,-0.038668,-0.019594,0.0073732,0.0060577,0.061307
1224,0.037629,0.0021113,-0.020909,-0.020909,0.010991,0.0067154,0.065912
1225,0.030065,-0.00051963,-0.0054526,-0.017292,0.012635,0.010991,0.063938
1226,0.014937,-0.0064392,0.0057288,-0.010386,0.010662,0.019541,0.061307
1227,0.0037556,-0.011372,0.010004,-0.0028217,0.0063866,0.030394,0.062623
1228,0.0014536,-0.0093991,0.0054,0.0040845,-0.00051963,0.040589,0.065912
1229,0.0044134,-0.0034794,-0.0067681,0.0080309,-0.007097,0.045851,0.065583
1230,0.0070443,0.00046697,-0.021238,0.012964,-0.010057,0.041904,0.056374
1231,0.010662,-0.00019077,-0.036037,0.021186,-0.0061104,0.032367,0.044206
1232,0.017239,-0.002164,-0.044588,0.030065,0.0054,0.026119,0.0373
1233,0.023159,-0.0041372,-0.04689,0.038944,0.018884,0.023817,0.033683
1234,0.026119,-0.0074258,-0.043601,0.043877,0.025461,0.020199,0.029736
1235,0.027105,-0.013674,-0.035051,0.042891,0.02579,0.014608,0.026119
1236,0.024145,-0.015976,-0.024856,0.040589,0.017568,0.0054,0.023817
1237,0.017239,-0.012359,-0.018278,0.034998,0.0073732,-0.0031506,0.027105
1238,0.0096753,-0.0034794,-0.016634,0.030723,-0.0024928,-0.0087413,0.0373
1239,0.0040845,0.011648,-0.016305,0.030723,-0.004466,-0.010386,0.050126
1240,0.0021113,0.031381,-0.018278,0.035656,0.00079584,-0.0028217,0.059334
1241,0.0047422,0.050126,-0.019594,0.043549,0.0077021,0.012635,0.061965
1242,0.0090175,0.064267,-0.019594,0.04881,0.014937,0.031381,0.059005
1243,0.013622,0.068214,-0.02354,0.048153,0.017239,0.041247,0.056374
1244,0.018226,0.062294,-0.028473,0.040589,0.016253,0.0373,0.056703
1245,0.021514,0.050126,-0.028802,0.02875,0.013951,0.022172,0.058019
1246,0.022501,0.035656,-0.025185,0.020528,0.0073732,0.0024402,0.052757
1247,0.021514,0.021186,-0.016963,0.01987,0.0011247,-0.011043,0.039602
1248,0.01691,0.011977,-0.0067681,0.026119,0.00079584,-0.01499,0.027434
1249,0.01132,0.010004,0.002769,0.032696,0.0057288,-0.014003,0.02283
1250,0.0067154,0.014937,0.0063866,0.035656,0.014608,-0.0087413,0.02579
1251,0.0021113,0.023159,0.0014536,0.034011,0.020199,0.0014536,0.028421
1252,0.0011247,0.030065,-0.0064392,0.029407,0.022501,0.015924,0.02875
1253,0.0024402,0.034998,-0.014332,0.021843,0.020857,0.030723,0.023159
1254,0.0080309,0.036314,-0.01499,0.016253,0.014279,0.040589,0.010004
1255,0.015924,0.036971,-0.0061104,0.014937,0.0073732,0.045193,-0.0034794
1256,0.021514,0.037629,0.0093464,0.012306,0.00079584,0.04618,-0.0077547
1257,0.023159,0.039273,0.021514,0.0047422,-0.004466,0.047495,-0.0024928
1258,0.020199,0.04026,0.026119,-0.0051238,-0.0074258,0.049468,0.0067154
1259,0.015266,0.039931,0.024474,-0.012688,-0.0064392,0.052428,0.010004
1260,0.011648,0.040918,0.026119,-0.013674,0.0011247,0.056046,0.0040845
1261,0.01132,0.04322,0.032367,-0.0057815,0.011977,0.05769,-0.0077547
1262,0.013622,0.047166,0.041575,0.0080309,0.018555,0.054401,-0.02354
1263,0.014608,0.05177,0.050455,0.021186,0.020528,0.048153,-0.03538
1264,0.017568,0.056374,0.057361,0.028421,0.018555,0.039602,-0.04097
1265,0.021843,0.058019,0.064267,0.025461,0.017897,0.029078,-0.038011
1266,0.02579,0.058676,0.068871,0.013622,0.023159,0.017568,-0.028144
1267,0.029407,0.057032,0.075449,-0.00019077,0.031709,0.013622,-0.017621
1268,0.030723,0.055717,0.080711,-0.0057815,0.038287,0.013293,-0.011372
1269,0.029736,0.05769,0.079724,-0.0047949,0.040589,0.015266,-0.0093991
1270,0.028421,0.061636,0.073804,-0.0038083,0.040918,0.023159,-0.010386
1271,0.028092,0.061307,0.063938,-0.0061104,0.043877,0.032696,-0.010715
1272,0.029078,0.05769,0.054401,-0.0097279,0.050784,0.039602,-0.011043
1273,0.031381,0.052099,0.048482,-0.011372,0.056703,0.04026,-0.01203
1274,0.030723,0.047166,0.047166,-0.0084125,0.056703,0.033683,-0.01795
1275,0.026119,0.042562,0.046508,-0.00019077,0.050784,0.024803,-0.0265
1276,0.020528,0.039931,0.045522,0.01132,0.042891,0.017239,-0.031433
1277,0.018884,0.040589,0.045193,0.023159,0.034011,0.011648,-0.024856
1278,0.020199,0.039602,0.044864,0.030065,0.029078,0.0057288,-0.002164
1279,0.02283,0.036314,0.047495,0.032696,0.028092,0.0024402,0.025461
1280,0.023488,0.034998,0.052757,0.032038,0.027434,0.002769,0.045851
1281,0.020857,0.032038,0.058019,0.030394,0.024803,0.0090175,0.050784
1282,0.015924,0.026119,0.056703,0.029078,0.022172,0.016581,0.041575
1283,0.0096753,0.016581,0.048153,0.027434,0.015924,0.016581,0.032696
1284,0.0057288,0.0077021,0.034998,0.026119,0.0063866,0.0090175,0.028421
1285,0.0040845,0.00046697,0.022172,0.024145,-0.0038083,-0.0015062,0.028092
1286,0.0021113,-0.0024928,0.017239,0.020857,-0.0090702,-0.0093991,0.030394
1287,0.0011247,0.00079584,0.018555,0.017568,-0.0064392,-0.010386,0.031709
1288,0.0017824,0.0054,0.018884,0.016581,0.0024402,-0.007097,0.024145
1289,0.0067154,0.0063866,0.01691,0.019541,0.01132,-0.0064392,0.0080309
1290,0.01132,0.0030979,0.013622,0.020528,0.015595,-0.0054526,-0.002164
1291,0.014279,0.0021113,0.012964,0.020857,0.015595,-0.0038083,0.0037556
1292,0.014608,0.0030979,0.014279,0.019541,0.014608,-0.0047949,0.022172
1293,0.01132,0.0044134,0.013951,0.017897,0.014937,-0.0077547,0.04322
1294,0.0057288,0.0086887,0.013622,0.014279,0.013622,-0.0067681,0.055388
1295,0.0021113,0.0096753,0.011977,0.01132,0.0077021,-0.0018351,0.057032
1296,-0.002164,0.0044134,0.0067154,0.013293,0.0044134,0.0070443,0.046837
1297,-0.007097,-0.0034794,-0.002164,0.019212,0.0083598,0.018884,0.028421
1298,-0.011043,-0.0067681,-0.010386,0.027105,0.017239,0.031381,0.017568
1299,-0.015319,-0.002164,-0.013345,0.031052,0.026776,0.037629,0.018555
1300,-0.015648,0.0096753,-0.010715,0.029078,0.033025,0.033683,0.024145
1301,-0.0087413,0.02283,-0.0028217,0.023159,0.034669,0.020199,0.02579
1302,0.0040845,0.031709,0.0060577,0.018555,0.035656,0.0034268,0.022172
1303,0.015924,0.032038,0.0096753,0.017897,0.035327,-0.0087413,0.013951
1304,0.022501,0.029407,0.0037556,0.018555,0.031381,-0.010057,0.0060577
1305,0.029407,0.026776,-0.0074258,0.016581,0.021514,-0.0024928,0.0047422
1306,0.035656,0.025461,-0.017621,0.017897,0.0090175,0.0040845,0.013622
1307,0.036314,0.024803,-0.022883,0.024474,-0.0008485,0.002769,0.026776
1308,0.024803,0.022172,-0.020252,0.031381,-0.0051238,-0.0051238,0.033025
1309,0.0073732,0.016253,-0.011372,0.033683,-0.0057815,-0.0093991,0.031052
1310,-0.0084125,0.0073732,-0.00019077,0.031381,-0.0038083,-0.0074258,0.02579
1311,-0.016963,-0.004466,0.0067154,0.027105,-0.00051963,-0.0028217,0.022172
1312,-0.016634,-0.013017,0.002769,0.024803,0.002769,-0.0024928,0.019212
1313,-0.010715,-0.016305,-0.007097,0.026776,0.0054,-0.007097,0.015924
1314,-0.00019077,-0.013017,-0.017292,0.030065,0.0080309,-0.013017,0.011977
1315,0.013622,-0.0057815,-0.019594,0.034669,0.012635,-0.013674,0.012635
1316,0.027105,0.0014536,-0.016634,0.041575,0.017897,-0.007097,0.018555
1317,0.032038,0.0054,-0.011372,0.047824,0.021514,0.0054,0.02283
1318,0.023488,0.0047422,-0.010386,0.051113,0.023159,0.015266,0.023817
1319,0.010004,0.0037556,-0.014661,0.049797,0.024145,0.017897,0.023488
1320,0.00046697,0.0047422,-0.023869,0.045522,0.024145,0.018226,0.021843
1321,0.0001381,0.0073732,-0.034064,0.041247,0.023817,0.015595,0.02283
1322,0.0086887,0.0080309,-0.044588,0.037629,0.023488,0.014937,0.032696
1323,0.017897,0.0034268,-0.047877,0.032038,0.024474,0.017568,0.044864
1324,0.022501,0.0001381,-0.041299,0.021843,0.023817,0.024474,0.052757
1325,0.020199,0.0021113,-0.031762,0.012306,0.020199,0.033354,0.05177
1326,0.015266,0.0080309,-0.024527,0.0080309,0.010991,0.04026,0.04618
1327,0.01132,0.013951,-0.018936,0.011977,0.002769,0.039273,0.044864
1328,0.013622,0.016253,-0.015648,0.021514,0.0014536,0.032038,0.05473
1329,0.02283,0.015924,-0.014332,0.033025,0.0073732,0.024803,0.065254
1330,0.031381,0.016253,-0.015648,0.038287,0.013951,0.01987,0.071831
1331,0.035656,0.017897,-0.01795,0.035327,0.017897,0.022501,0.067885
1332,0.033354,0.020199,-0.020909,0.027105,0.013951,0.030723,0.05177
1333,0.026447,0.023488,-0.021238,0.017568,0.0047422,0.038944,0.02875
1334,0.017239,0.023159,-0.015648,0.010333,-0.0034794,0.042891,0.0083598
1335,0.010662,0.018884,-0.0077547,0.0080309,-0.0057815,0.043877,-0.004466
1336,0.0060577,0.01132,-0.00019077,0.0080309,-0.0018351,0.042562,-0.0051238
1337,0.0037556,0.0070443,0.0073732,0.0073732,0.0093464,0.036971,-0.0084125
1338,0.0011247,0.010004,0.019212,0.0070443,0.023159,0.026119,-0.017292
1339,0.0017824,0.015924,0.033354,0.0093464,0.033683,0.013951,-0.027158
1340,0.0073732,0.023159,0.045193,0.014279,0.036971,0.0037556,-0.032749
1341,0.011648,0.030723,0.053415,0.019212,0.033683,-0.0028217,-0.028144
1342,0.011977,0.031381,0.054401,0.016581,0.025132,-0.002164,-0.01499
1343,0.0070443,0.024474,0.049139,0.0063866,0.015266,0.0021113,0.0021113
1344,0.0017824,0.013293,0.041247,-0.004466,0.0047422,0.010991,0.013951
1345,0.00046697,0.0054,0.029736,-0.0097279,-0.0024928,0.021514,0.022172
1346,0.0040845,0.002769,0.020199,-0.010057,-0.0054526,0.030394,0.032367
1347,0.010991,0.0030979,0.013951,-0.0067681,-0.0057815,0.034669,0.046837
1348,0.017568,0.002769,0.010004,-0.0018351,-0.0054526,0.034669,0.06065
1349,0.021843,0.00079584,0.0096753,0.0034268,-0.0041372,0.033354,0.065254
1350,0.021514,0.0001381,0.015595,0.0083598,-0.00051963,0.03434,0.061965
1351,0.018884,0.0037556,0.026776,0.011648,0.0024402,0.039602,0.05769
1352,0.016253,0.013293,0.040918,0.014279,0.0047422,0.04881,0.05769
1353,0.014937,0.024803,0.058019,0.018555,0.0067154,0.058676,0.06065
1354,0.015595,0.032696,0.074462,0.025461,0.011648,0.062952,0.06065
1355,0.017239,0.033354,0.079395,0.033683,0.019212,0.058348,0.049797
1356,0.015595,0.030065,0.076106,0.037629,0.026776,0.046837,0.02579
1357,0.013293,0.027434,0.0692,0.039273,0.028092,0.0373,-0.0034794
1358,0.0096753,0.02579,0.062952,0.038616,0.018884,0.034669,-0.029789
1359,0.0044134,0.024803,0.059334,0.037629,0.002769,0.034998,-0.044259
1360,-0.0018351,0.023488,0.057361,0.039602,-0.014661,0.034998,-0.047219
1361,-0.0041372,0.022501,0.054072,0.039602,-0.028802,0.034011,-0.039326
1362,-0.0038083,0.024145,0.04618,0.04026,-0.037024,0.032038,-0.021896
1363,-0.00019077,0.025132,0.035327,0.039602,-0.037682,0.029407,-0.0031506
1364,0.0060577,0.026119,0.026776,0.039931,-0.034064,0.027763,0.012964
1365,0.010991,0.029078,0.02283,0.037629,-0.028473,0.025132,0.026119
1366,0.013622,0.033025,0.024145,0.033025,-0.020909,0.022501,0.035656
1367,0.012635,0.035985,0.024145,0.027763,-0.011043,0.017239,0.039602
1368,0.0083598,0.0373,0.022172,0.026447,0.0030979,0.015266,0.036971
1369,0.0060577,0.037958,0.020199,0.02875,0.013622,0.018555,0.034998
1370,0.0083598,0.0373,0.019541,0.033025,0.01987,0.024474,0.038944
1371,0.012635,0.036314,0.018555,0.036314,0.01987,0.028421,0.047824
1372,0.015595,0.033025,0.013293,0.036971,0.015924,0.02579,0.051441
1373,0.012306,0.027434,0.0060577,0.03434,0.013622,0.026119,0.047824
1374,0.0050711,0.02283,0.0001381,0.028092,0.012306,0.030394,0.037629
1375,0.00079584,0.017568,-0.0047949,0.019541,0.011977,0.0373,0.023159
1376,0.002769,0.011977,-0.012359,0.011977,0.014279,0.041575,0.015924
1377,0.0093464,0.0050711,-0.025842,0.0063866,0.014937,0.042562,0.025132
1378,0.016253,0.00079584,-0.042286,0.0040845,0.013293,0.036642,0.049468
1379,0.021514,0.0030979,-0.056427,0.0080309,0.010991,0.028092,0.074462
1380,0.022501,0.010333,-0.062347,0.017568,0.011648,0.017239,0.089919
1381,0.020199,0.021843,-0.059058,0.029078,0.017239,0.0070443,0.09551
1382,0.019212,0.033354,-0.051823,0.036971,0.02579,0.00079584,0.093865
1383,0.021843,0.038616,-0.04393,0.039602,0.030723,0.0017824,0.083013
1384,0.022501,0.034998,-0.038997,0.0373,0.031381,0.0040845,0.060321
1385,0.022172,0.025132,-0.034064,0.030723,0.024803,0.0030979,0.033354
1386,0.025461,0.016253,-0.027487,0.021186,0.014608,-0.0015062,0.0093464
1387,0.030723,0.012306,-0.017621,0.010662,0.0054,-0.0077547,-0.0074258
1388,0.034998,0.014937,-0.0074258,0.0037556,-0.0028217,-0.012359,-0.021896
1389,0.036642,0.01987,-0.0031506,0.0034268,-0.0064392,-0.01203,-0.03242
1390,0.031709,0.023159,-0.0064392,0.0070443,-0.0047949,-0.0064392,-0.034722
1391,0.024145,0.023817,-0.016963,0.015924,-0.00051963,0.0014536,-0.028144
1392,0.015924,0.019541,-0.031433,0.027105,0.0011247,0.0047422,-0.010386
1393,0.012306,0.01132,-0.047548,0.034669,-0.0054526,0.00046697,0.015924
1394,0.010991,0.0037556,-0.053796,0.039273,-0.016634,-0.0097279,0.038287
1395,0.012306,-0.002164,-0.043601,0.040918,-0.024527,-0.018607,0.04618
1396,0.015924,-0.00051963,-0.025842,0.042233,-0.021896,-0.025842,0.048153
1397,0.018884,0.0047422,-0.0080836,0.044864,-0.01499,-0.02946,0.05177
1398,0.01987,0.010991,0.0017824,0.044864,-0.0064392,-0.028802,0.055059
1399,0.017897,0.014937,0.0047422,0.040589,-0.002164,-0.024856,0.050455
1400,0.0096753,0.015595,0.0040845,0.032038,-0.0031506,-0.014332,0.041575
1401,-0.00019077,0.011977,0.0021113,0.023488,-0.0057815,-0.0031506,0.02579
1402,-0.0051238,0.0077021,0.00079584,0.015266,-0.0064392,0.00079584,0.0050711
1403,-0.0028217,0.0073732,0.0001381,0.012964,-0.007097,-0.0011774,-0.010057
1404,0.0034268,0.010004,-0.0018351,0.015266,-0.0090702,-0.0034794,-0.01203
1405,0.011648,0.016581,-0.004466,0.022172,-0.0051238,-0.0041372,-0.0051238
1406,0.019541,0.024474,-0.004466,0.02875,0.0057288,-0.0057815,0.0054
1407,0.027763,0.031052,-0.0008485,0.030723,0.019541,-0.0097279,0.010991
1408,0.03434,0.038287,0.0054,0.027434,0.027763,-0.014332,0.0096753
1409,0.037958,0.042562,0.011977,0.021186,0.029407,-0.017621,0.0040845
1410,0.042562,0.042562,0.015266,0.014608,0.023488,-0.017621,-0.0051238
1411,0.047495,0.037958,0.014279,0.010662,0.016581,-0.015319,-0.016963
1412,0.048482,0.029736,0.013293,0.013951,0.016581,-0.017621,-0.026171
1413,0.043549,0.019541,0.013622,0.025461,0.024474,-0.024527,-0.029131
1414,0.037629,0.012306,0.015924,0.04026,0.036971,-0.031762,-0.0265
1415,0.035327,0.010991,0.01987,0.051441,0.04618,-0.036695,-0.017621
1416,0.036971,0.018884,0.026447,0.056046,0.046508,-0.031762,-0.0047949
1417,0.039931,0.033025,0.03434,0.056703,0.037629,-0.019265,0.0034268
1418,0.041575,0.048482,0.039602,0.05769,0.021843,-0.0051238,0.0057288
1419,0.043877,0.058676,0.038287,0.056703,0.0054,0.0093464,0.0083598
1420,0.045522,0.061636,0.031709,0.053086,-0.0064392,0.020528,0.013293
1421,0.04322,0.054072,0.023488,0.043549,-0.012359,0.030394,0.018226
1422,0.033683,0.04026,0.01691,0.035327,-0.0067681,0.036314,0.017239
1423,0.020199,0.029078,0.013293,0.030065,0.0080309,0.036642,0.01132
1424,0.0057288,0.024803,0.012306,0.029078,0.021186,0.033354,0.002769
1425,-0.0038083,0.025461,0.019541,0.030065,0.02875,0.032038,0.0001381
1426,-0.0093991,0.026447,0.035985,0.02875,0.030723,0.031052,0.0050711
1427,-0.010057,0.02579,0.058676,0.025132,0.028092,0.030065,0.012964
1428,-0.0097279,0.023488,0.079724,0.020528,0.024803,0.027434,0.018884
1429,-0.010715,0.022172,0.095839,0.012306,0.023159,0.019541,0.024145
1430,-0.011701,0.028421,0.10209,0.0034268,0.024803,0.013293,0.02579
1431,-0.0087413,0.038944,0.10209,-0.0041372,0.030394,0.010991,0.020528
1432,-0.002164,0.050455,0.099127,-0.0090702,0.036971,0.0096753,0.014608
1433,0.002769,0.057032,0.094523,-0.014332,0.04322,0.0093464,0.0083598
1434,0.0034268,0.057361,0.088275,-0.018936,0.041904,0.0080309,0.0034268
1435,-0.00051963,0.051113,0.079395,-0.022225,0.03434,0.0070443,0.0024402
1436,-0.0054526,0.038287,0.068543,-0.018607,0.022172,0.0037556,0.0093464
1437,-0.010386,0.023488,0.059663,-0.010057,0.011977,0.0014536,0.015266
1438,-0.012359,0.014608,0.056703,-0.0008485,0.0073732,0.0080309,0.013951
1439,-0.014661,0.015266,0.06361,0.0054,0.0070443,0.022501,0.0057288
1440,-0.016305,0.019212,0.073147,0.0057288,0.0086887,0.037629,-0.0090702
1441,-0.017621,0.022172,0.076106,0.0001381,0.0090175,0.045522,-0.019923
1442,-0.017292,0.024803,0.068871,-0.0097279,0.0086887,0.043549,-0.020581
1443,-0.018278,0.024474,0.05473,-0.014661,0.0060577,0.035985,-0.010057
1444,-0.020252,0.020199,0.041575,-0.015319,0.0030979,0.031052,0.010991
1445,-0.019594,0.012635,0.034669,-0.01499,0.0034268,0.029078,0.032367
1446,-0.016634,0.002769,0.032367,-0.016305,0.010004,0.03434,0.037629
1447,-0.010386,-0.0064392,0.034998,-0.01795,0.020528,0.04322,0.024145
1448,0.0001381,-0.010057,0.036971,-0.016963,0.030394,0.050455,0.0054
1449,0.012635,-0.0057815,0.038944,-0.013017,0.036642,0.05177,-0.0061104
1450,0.021514,0.0011247,0.039602,-0.0054526,0.038287,0.050126,-0.0034794
1451,0.022172,0.0063866,0.038944,0.0063866,0.034998,0.049139,0.0096753
1452,0.016581,0.0086887,0.035985,0.021514,0.024145,0.048153,0.030723
1453,0.0083598,0.010333,0.034011,0.033354,0.010662,0.041904,0.04881
1454,0.00079584,0.012964,0.032696,0.037958,0.0014536,0.032696,0.060321
1455,-0.002164,0.019541,0.030394,0.036314,0.0001381,0.024474,0.067885
1456,-0.0008485,0.02875,0.020528,0.033683,0.0024402,0.01691,0.071173
1457,0.0054,0.039931,0.0096753,0.03434,0.0044134,0.012306,0.066569
1458,0.012635,0.050784,0.0001381,0.039273,0.0047422,0.010004,0.06065
1459,0.020857,0.058348,-0.0080836,0.041575,0.0021113,0.014937,0.056703
1460,0.02875,0.062952,-0.017621,0.040918,-0.0028217,0.023817,0.055059
1461,0.035656,0.06065,-0.027487,0.040589,-0.012359,0.028421,0.05769
1462,0.040918,0.050455,-0.03538,0.04322,-0.018607,0.023488,0.062952
1463,0.042233,0.038287,-0.043272,0.048153,-0.019923,0.014937,0.064925
1464,0.039602,0.025461,-0.048205,0.05177,-0.016634,0.0093464,0.068214
1465,0.033683,0.015266,-0.051823,0.04881,-0.014661,0.0096753,0.077422
1466,0.027105,0.0050711,-0.053138,0.041904,-0.016305,0.013622,0.087288
1467,0.017897,-0.0031506,-0.04985,0.038287,-0.017621,0.017239,0.096496
1468,0.0096753,-0.0038083,-0.042944,0.040918,-0.017621,0.012964,0.10669
1469,0.0040845,0.0014536,-0.032091,0.044206,-0.018278,0.00079584,0.11393
1470,0.0060577,0.0077021,-0.022883,0.045193,-0.023211,-0.015976,0.11393
1471,0.014937,0.01132,-0.018607,0.044535,-0.028802,-0.027158,0.10406
1472,0.026776,0.012635,-0.024198,0.041575,-0.031104,-0.032091,0.087946
1473,0.03434,0.010662,-0.038997,0.036314,-0.028802,-0.028473,0.071173
1474,0.035327,0.010004,-0.055769,0.02875,-0.024527,-0.021238,0.057361
1475,0.029078,0.012306,-0.069911,0.023159,-0.019265,-0.010057,0.049468
1476,0.021514,0.015266,-0.073199,0.020528,-0.010715,0.00046697,0.045522
1477,0.014937,0.019212,-0.063662,0.021514,-0.0011774,0.0080309,0.039273
1478,0.01132,0.024474,-0.044588,0.02579,0.0083598,0.0057288,0.03434
1479,0.011977,0.026776,-0.026171,0.030394,0.01691,-0.0031506,0.03434
1480,0.013622,0.021514,-0.013017,0.032367,0.023817,-0.018936,0.039602
1481,0.017239,0.012306,-0.0084125,0.033683,0.029736,-0.033078,0.042891
1482,0.01987,0.0050711,-0.013017,0.033025,0.032367,-0.03538,0.038944
1483,0.018555,0.002769,-0.024527,0.034998,0.03434,-0.024527,0.03434
1484,0.013293,0.0060577,-0.037682,0.04026,0.032367,-0.011372,0.027434
1485,0.0080309,0.010662,-0.048205,0.044206,0.031381,-0.0031506,0.018884
1486,0.0037556,0.014279,-0.053796,0.039602,0.033683,0.0021113,0.01132
1487,0.0011247,0.014937,-0.054125,0.030065,0.034011,0.0037556,0.0090175
1488,0.0017824,0.013293,-0.050179,0.022501,0.025461,0.0034268,0.013622
1489,0.0050711,0.0073732,-0.046232,0.01987,0.011648,-0.0018351,0.023488
1490,0.0093464,0.00079584,-0.038339,0.020857,0.0044134,-0.0038083,0.032367
1491,0.0096753,-0.0067681,-0.025842,0.022172,0.0070443,-0.0011774,0.037629
1492,0.0086887,-0.013017,-0.010715,0.024474,0.015924,0.0063866,0.039931
1493,0.010662,-0.015648,0.0030979,0.027434,0.023488,0.01132,0.036314
1494,0.015924,-0.012359,0.010333,0.032696,0.020857,0.011977,0.026776
1495,0.021186,-0.0057815,0.010991,0.036642,0.0096753,0.010662,0.014937
1496,0.025132,-0.0015062,0.0093464,0.037958,-0.0008485,0.011977,0.0047422
1497,0.023817,0.0001381,0.0080309,0.036642,-0.0034794,0.012964,-0.00051963
1498,0.018884,0.0021113,0.0096753,0.031709,0.002769,0.0096753,0.0001381
1499,0.012964,0.0086887,0.013951,0.024145,0.012635,0.0037556,0.0034268
1500,0.0080309,0.018555,0.02283,0.020199,0.021843,0.00046697,0.0034268
1501,0.0093464,0.029736,0.03434,0.016253,0.027105,0.0044134,-0.0054526
1502,0.014608,0.036642,0.042562,0.0093464,0.025132,0.014608,-0.01795
1503,0.022172,0.038287,0.045522,0.0024402,0.016581,0.025132,-0.031104
1504,0.02875,0.035327,0.043549,-0.0041372,0.0086887,0.033025,-0.038997
1505,0.032367,0.029078,0.038616,-0.010386,0.010333,0.038616,-0.041957
1506,0.031381,0.01987,0.03434,-0.016963,0.020199,0.042233,-0.041628
1507,0.02579,0.0083598,0.032038,-0.018278,0.030394,0.04026,-0.038668
1508,0.017239,-0.0008485,0.032367,-0.013345,0.038287,0.035656,-0.031433
1509,0.010004,-0.002164,0.036971,-0.0064392,0.042562,0.026776,-0.02354
1510,0.0086887,0.0034268,0.04322,-0.0028217,0.04322,0.013622,-0.016634
1511,0.013622,0.010333,0.05177,-0.004466,0.045193,0.0024402,-0.011372
1512,0.018555,0.016581,0.058348,-0.0080836,0.04618,-0.0024928,-0.004466
1513,0.021514,0.021514,0.060979,-0.010386,0.044864,0.0014536,0.0044134
1514,0.023817,0.02283,0.055717,-0.012688,0.042562,0.0063866,0.017897
1515,0.029078,0.02283,0.045851,-0.014003,0.037629,0.010991,0.034011
1516,0.034669,0.025461,0.037629,-0.010057,0.033683,0.01132,0.046508
1517,0.036642,0.02875,0.03434,-0.004466,0.030065,0.011977,0.04881
1518,0.033683,0.033354,0.03434,-0.0011774,0.027763,0.015595,0.039273
1519,0.031052,0.035985,0.035985,-0.00019077,0.025461,0.018884,0.01987
1520,0.032038,0.032038,0.038287,-0.00019077,0.018555,0.017239,0.0034268
1521,0.031381,0.024145,0.039273,-0.0041372,0.0090175,0.014937,-0.0008485
1522,0.025132,0.017897,0.041247,-0.012688,-0.0018351,0.01691,0.0054
1523,0.017568,0.016253,0.043877,-0.022225,-0.010386,0.023159,0.010662
1524,0.01132,0.020857,0.044864,-0.0265,-0.011701,0.031709,0.01132
1525,0.0086887,0.027434,0.043549,-0.018936,-0.0031506,0.039931,0.011648
1526,0.0073732,0.027105,0.038944,-0.0047949,0.0063866,0.044864,0.014608
1527,0.0093464,0.019541,0.030723,0.011648,0.014608,0.044864,0.015595
1528,0.012635,0.0093464,0.020528,0.024145,0.01987,0.036642,0.013951
1529,0.017568,0.0030979,0.013951,0.030723,0.02579,0.022172,0.0093464
1530,0.020857,0.0021113,0.011648,0.032038,0.034998,0.0073732,0.0060577
1531,0.020857,0.0047422,0.013951,0.032367,0.04322,-0.0054526,0.0073732
1532,0.01691,0.0093464,0.017568,0.031709,0.045193,-0.012688,0.013293
1533,0.012635,0.012964,0.018555,0.031381,0.0373,-0.014332,0.017239
1534,0.0093464,0.013293,0.013622,0.030065,0.023488,-0.0084125,0.013951
1535,0.0080309,0.013951,0.0040845,0.028421,0.011648,0.0030979,0.0014536
1536,0.0077021,0.017568,-0.0031506,0.026776,0.0060577,0.014608,-0.014003
1537,0.0083598,0.023817,-0.0028217,0.02579,0.0086887,0.024145,-0.020909
1538,0.010662,0.030065,0.0034268,0.024474,0.01691,0.026776,-0.014661
1539,0.01132,0.035656,0.013622,0.025132,0.025132,0.026776,-0.00019077
1540,0.010004,0.035327,0.022172,0.026447,0.029736,0.028092,0.017239
1541,0.0060577,0.027763,0.025461,0.027434,0.030723,0.028092,0.03434
1542,0.0034268,0.016253,0.023817,0.030723,0.030723,0.029736,0.045522
1543,0.0014536,0.0060577,0.01987,0.034998,0.027434,0.034669,0.049468
1544,-0.0015062,-0.00019077,0.016581,0.04026,0.021514,0.040589,0.049139
1545,-0.0057815,-0.0028217,0.012635,0.043877,0.016253,0.047166,0.047824
1546,-0.0093991,-0.0034794,0.0083598,0.041247,0.013951,0.052428,0.051113
1547,-0.0097279,-0.0015062,0.0073732,0.035327,0.0077021,0.055388,0.059005
1548,-0.0064392,-0.00051963,0.0096753,0.027434,-0.0028217,0.058019,0.06065
1549,-0.00051963,-0.0015062,0.014279,0.023817,-0.01203,0.058348,0.04881
1550,0.0044134,-0.0028217,0.017568,0.023817,-0.013017,0.05473,0.02875
1551,0.0054,-0.002164,0.017239,0.024474,-0.007097,0.047824,0.013293
1552,-0.0028217,0.00046697,0.012964,0.02579,-0.0011774,0.040589,0.0044134
1553,-0.019594,0.0017824,0.0060577,0.029407,0.0014536,0.03434,0.0040845
1554,-0.036695,0.0014536,0.0021113,0.036642,0.0014536,0.028092,0.012635
1555,-0.047877,0.00046697,0.0040845,0.045851,-0.00051963,0.02283,0.025132
1556,-0.04689,-0.0008485,0.01132,0.053086,-0.004466,0.018226,0.030723
1557,-0.036366,0.00046697,0.018555,0.055388,-0.010057,0.015595,0.028092
1558,-0.020252,0.002769,0.023488,0.050784,-0.011372,0.015266,0.027105
1559,-0.0067681,0.0070443,0.026447,0.040918,-0.011043,0.018884,0.03434
1560,-0.002164,0.010004,0.024474,0.028421,-0.0067681,0.01987,0.045193
1561,-0.0034794,0.012635,0.015595,0.019212,0.0017824,0.018226,0.051441
1562,-0.0047949,0.014279,0.0057288,0.014279,0.014608,0.01691,0.050126
1563,-0.002164,0.014937,-0.0018351,0.015266,0.030394,0.020199,0.041247
1564,0.00079584,0.018226,-0.004466,0.019541,0.04322,0.025132,0.030723
1565,0.0001381,0.020528,-0.0038083,0.023817,0.048153,0.022501,0.022172
1566,-0.0038083,0.018555,0.0014536,0.027105,0.045851,0.011977,0.016581
1567,-0.0054526,0.013293,0.0083598,0.027105,0.039273,-0.0028217,0.010004
1568,-0.0031506,0.011977,0.010991,0.023817,0.029736,-0.017621,0.0034268
1569,0.0021113,0.017897,0.0096753,0.018555,0.021843,-0.027487,0.0001381
1570,0.0044134,0.026776,0.0063866,0.018555,0.016581,-0.028144,0.0014536
1571,0.0021113,0.035985,0.0017824,0.025461,0.015595,-0.022883,0.0030979
1572,0.0011247,0.04618,0.00046697,0.034669,0.017568,-0.016634,0.0047422
1573,0.0034268,0.05473,0.0054,0.039273,0.01691,-0.014003,0.00046697
1574,0.010004,0.056046,0.011977,0.035656,0.012306,-0.012359,-0.0074258
1575,0.017897,0.048482,0.015924,0.026119,0.0034268,-0.011372,-0.010057
1576,0.025132,0.036642,0.020199,0.017239,-0.0054526,-0.012688,-0.0067681
1577,0.026776,0.028421,0.025461,0.015266,-0.011043,-0.014332,-0.0018351
1578,0.022501,0.029736,0.029736,0.017239,-0.013017,-0.01499,0.0017824
1579,0.015595,0.03434,0.031381,0.01987,-0.011372,-0.016963,-0.002164
1580,0.0073732,0.034669,0.030394,0.021186,-0.0061104,-0.016634,-0.015319
1581,-0.0018351,0.028421,0.031381,0.021843,0.0001381,-0.015976,-0.039326
1582,-0.0080836,0.019541,0.033683,0.019541,0.0030979,-0.017621,-0.065635
1583,-0.0097279,0.013622,0.039602,0.01691,-0.0015062,-0.017621,-0.084052
1584,-0.0074258,0.012964,0.044206,0.016581,-0.0087413,-0.012359,-0.089972
1585,0.00046697,0.018884,0.043877,0.018884,-0.015976,-0.002164,-0.085696
1586,0.0086887,0.027105,0.037629,0.018555,-0.020909,0.0090175,-0.071884
1587,0.014608,0.032696,0.030394,0.011977,-0.024198,0.015266,-0.048205
1588,0.018555,0.033683,0.027434,0.0021113,-0.026171,0.01987,-0.020252
1589,0.019212,0.031052,0.030065,-0.0067681,-0.026171,0.028092,0.0024402
1590,0.020528,0.028092,0.036314,-0.01203,-0.02354,0.038287,0.014937
1591,0.018884,0.029078,0.04322,-0.012688,-0.015976,0.046508,0.013951
1592,0.014608,0.032038,0.050126,-0.012688,-0.0015062,0.047495,-0.00051963
1593,0.0073732,0.03434,0.055717,-0.01203,0.014608,0.044206,-0.022225
1594,-0.002164,0.033354,0.058348,-0.010386,0.02579,0.041904,-0.038339
1595,-0.0061104,0.031052,0.053743,-0.0074258,0.029736,0.037958,-0.04393
1596,0.0001381,0.027105,0.044206,-0.0054526,0.028092,0.034011,-0.038339
1597,0.015266,0.023159,0.030065,-0.004466,0.024474,0.027434,-0.023211
1598,0.031381,0.019212,0.015595,-0.00051963,0.01987,0.022172,-0.0024928
1599,0.042562,0.01691,0.0037556,0.0060577,0.017239,0.017239,0.013293
1600,0.045193,0.015266,-0.002164,0.013622,0.019212,0.013622,0.020199
1601,0.043549,0.014279,-0.0024928,0.021186,0.018226,0.011648,0.020528
1602,0.040918,0.010333,0.0014536,0.024803,0.011977,0.0093464,0.015595
1603,0.039602,0.0057288,0.0054,0.026119,0.0024402,0.0044134,0.010333
1604,0.039602,0.0044134,0.0070443,0.030394,-0.0061104,-0.0038083,0.011648
1605,0.040918,0.0034268,0.0080309,0.037958,-0.010715,-0.012688,0.022172
1606,0.042562,0.0021113,0.0093464,0.042562,-0.012359,-0.01795,0.036642
1607,0.045193,-0.0024928,0.011977,0.044206,-0.012359,-0.017292,0.045522
1608,0.049468,-0.0067681,0.01691,0.045522,-0.012359,-0.014332,0.048153
1609,0.050455,-0.0077547,0.022501,0.04881,-0.015648,-0.010057,0.044864
1610,0.045522,-0.0024928,0.026119,0.055388,-0.020581,-0.0028217,0.041247
1611,0.033683,0.0063866,0.023159,0.06361,-0.020581,0.0060577,0.041575
1612,0.021843,0.011977,0.012635,0.074462,-0.012359,0.016253,0.048153
1613,0.016253,0.012306,0.0001381,0.080711,0.0037556,0.023488,0.053743
1614,0.016581,0.010333,-0.010715,0.081368,0.022172,0.026119,0.055059
1615,0.019212,0.0077021,-0.016305,0.074791,0.038287,0.02283,0.055388
1616,0.025132,0.0070443,-0.017292,0.061636,0.050455,0.015595,0.061965
1617,0.030394,0.010333,-0.01203,0.045851,0.054401,0.0083598,0.074791
1618,0.035985,0.014937,-0.0041372,0.035656,0.050784,0.0047422,0.084328
1619,0.037629,0.01987,0.0001381,0.033683,0.040918,0.0054,0.083013
1620,0.0373,0.02283,0.0021113,0.036314,0.02875,0.012306,0.07216
1621,0.03434,0.025132,0.0021113,0.038287,0.01691,0.021843,0.059334
1622,0.031709,0.028092,0.0001381,0.037629,0.010004,0.028421,0.050455
1623,0.029736,0.03434,-0.004466,0.033025,0.0086887,0.023488,0.045522
1624,0.025461,0.040589,-0.011372,0.031052,0.012964,0.0083598,0.045851
1625,0.019212,0.04026,-0.022225,0.02875,0.017897,-0.0093991,0.05177
1626,0.012635,0.033683,-0.037682,0.028421,0.020857,-0.018278,0.058348
1627,0.0080309,0.024803,-0.054125,0.032038,0.020528,-0.012688,0.06361
1628,0.0054,0.020199,-0.065307,0.034998,0.017239,0.0044134,0.066569
1629,0.0070443,0.020528,-0.068595,0.036642,0.011977,0.021186,0.068543
1630,0.0080309,0.024803,-0.063991,0.029078,0.0050711,0.030065,0.074133
1631,0.0060577,0.030394,-0.054125,0.015595,0.0017824,0.030065,0.081697
1632,0.0040845,0.033683,-0.044917,0.0047422,0.0044134,0.022172,0.082026
1633,0.002769,0.034998,-0.036695,0.0011247,0.01132,0.014279,0.077093
1634,0.0040845,0.033683,-0.027158,-0.00019077,0.016253,0.013293,0.0692
1635,0.0080309,0.031709,-0.011372,0.00046697,0.018226,0.020857,0.06065
1636,0.015924,0.02875,0.0057288,0.0017824,0.012964,0.030723,0.055388
1637,0.026119,0.027434,0.018555,0.0054,0.0073732,0.042233,0.048482
1638,0.038616,0.028092,0.020199,0.0057288,0.0080309,0.05473,0.038944
1639,0.047824,0.026447,0.010004,0.0021113,0.013293,0.062952,0.034011
1640,0.048482,0.024474,-0.0080836,-0.0008485,0.018884,0.063938,0.0373
1641,0.042891,0.021186,-0.027816,-0.00051963,0.020199,0.055388,0.043877
1642,0.034011,0.01691,-0.042615,0.0044134,0.016253,0.043877,0.042891
1643,0.024474,0.016253,-0.050179,0.010333,0.0096753,0.033683,0.033354
1644,0.021186,0.019541,-0.050507,0.015924,0.0021113,0.029736,0.021843
1645,0.020199,0.026447,-0.042615,0.017568,-0.0008485,0.033354,0.015266
1646,0.017239,0.035985,-0.030118,0.015595,-0.0011774,0.039602,0.015595
1647,0.012635,0.043877,-0.016963,0.011977,0.0040845,0.042233,0.019541
1648,0.011977,0.045851,-0.007097,0.01132,0.010004,0.038616,0.026119
1649,0.014937,0.040918,-0.0038083,0.010004,0.013622,0.032367,0.027434
1650,0.017568,0.03434,-0.0054526,0.0040845,0.012306,0.026776,0.02579
1651,0.016581,0.030723,-0.0093991,-0.0041372,0.0086887,0.022501,0.018555
1652,0.011977,0.031381,-0.010715,-0.012359,0.0037556,0.01987,0.0090175
1653,0.0070443,0.031052,-0.0084125,-0.01499,0.00046697,0.018226,0.0017824
1654,0.0073732,0.028421,-0.0031506,-0.011043,0.0011247,0.017239,-0.0074258
1655,0.013293,0.020857,0.0040845,-0.0031506,0.0073732,0.014937,-0.022883
1656,0.020199,0.012635,0.01132,0.0054,0.017239,0.013951,-0.038668
1657,0.022172,0.002769,0.015595,0.010662,0.025132,0.01691,-0.047219
1658,0.016581,-0.0054526,0.018226,0.0063866,0.027434,0.022172,-0.046561
1659,0.0060577,-0.010715,0.024145,-0.004466,0.026776,0.028421,-0.039984
1660,-0.0028217,-0.0090702,0.034669,-0.014332,0.024803,0.033354,-0.031104
1661,-0.0084125,0.0034268,0.044206,-0.016634,0.022501,0.031709,-0.021896
1662,-0.013017,0.018555,0.050784,-0.011372,0.017897,0.02579,-0.015976
1663,-0.018278,0.029407,0.052757,-0.0038083,0.011648,0.017568,-0.013017
1664,-0.020252,0.032696,0.054072,0.0034268,0.0080309,0.0083598,-0.014661
1665,-0.01795,0.030723,0.056703,0.0063866,0.0063866,0.002769,-0.020581
1666,-0.012359,0.024145,0.062623,0.0017824,0.0034268,0.0030979,-0.024198
1667,-0.0041372,0.016581,0.065254,-0.004466,-0.0024928,0.0086887,-0.016963
1668,0.0021113,0.010662,0.065254,-0.0067681,-0.0077547,0.016253,0.002769
1669,0.0037556,0.0057288,0.065254,-0.0057815,-0.0090702,0.01987,0.027763
1670,0.0014536,0.0001381,0.068214,-0.0057815,-0.011372,0.015595,0.049797
1671,-0.002164,-0.0024928,0.074133,-0.0054526,-0.01499,0.0080309,0.062294
1672,-0.0034794,0.002769,0.082355,-0.0047949,-0.021567,0.0021113,0.064267
1673,-0.0011774,0.0096753,0.086959,-0.0024928,-0.027487,-0.00051963,0.062952
1674,0.00079584,0.011977,0.085315,0.0030979,-0.025514,-0.0024928,0.064925
1675,-0.0031506,0.010004,0.077751,0.013293,-0.019265,-0.002164,0.061307
1676,-0.011043,0.0073732,0.066898,0.028092,-0.013345,0.0014536,0.053415
1677,-0.016634,0.0063866,0.055717,0.041247,-0.010057,0.0034268,0.04322
1678,-0.01499,0.0093464,0.046837,0.046508,-0.007097,0.0001381,0.032038
1679,-0.0064392,0.015924,0.038616,0.042891,-0.0080836,-0.0074258,0.027105
1680,0.0017824,0.019212,0.031052,0.035656,-0.011372,-0.017621,0.032367
1681,0.0057288,0.018226,0.024145,0.02875,-0.016634,-0.021567,0.048482
1682,0.0054,0.014937,0.019541,0.024474,-0.019594,-0.022554,0.067556
1683,0.0040845,0.014608,0.020199,0.023817,-0.020252,-0.022225,0.079724
1684,0.0037556,0.021186,0.02283,0.024145,-0.01499,-0.025514,0.079724
1685,0.0054,0.028421,0.023159,0.025461,-0.0024928,-0.034393,0.072818
1686,0.0083598,0.032696,0.021843,0.028092,0.010991,-0.044917,0.067227
1687,0.012306,0.033354,0.018555,0.033025,0.021514,-0.052481,0.065583
1688,0.014937,0.030394,0.014937,0.039602,0.026447,-0.051165,0.070187
1689,0.018884,0.023817,0.01132,0.045193,0.023159,-0.040313,0.077751
1690,0.020199,0.015266,0.010333,0.049139,0.01132,-0.024198,0.082684
1691,0.018226,0.0073732,0.014937,0.051113,-0.0034794,-0.0077547,0.083013
1692,0.012964,0.0047422,0.020528,0.054401,-0.017621,0.0073732,0.078409
1693,0.0067154,0.0050711,0.023817,0.056374,-0.023869,0.018226,0.072489
1694,0.0047422,0.0080309,0.024145,0.05769,-0.022225,0.021514,0.074462
1695,0.0077021,0.013622,0.023488,0.059663,-0.016305,0.015266,0.077751
1696,0.012306,0.021186,0.01987,0.060979,-0.0087413,0.0040845,0.073147
1697,0.013293,0.030394,0.013622,0.059005,-0.0011774,-0.0057815,0.06361
1698,0.010991,0.038944,0.0060577,0.055388,0.0017824,-0.0084125,0.053743
1699,0.0060577,0.043549,0.0047422,0.052099,-0.00019077,-0.002164,0.044535
1700,0.0017824,0.041247,0.0077021,0.05177,-0.0054526,0.0090175,0.032038
1701,-0.0008485,0.0373,0.0073732,0.053743,-0.0084125,0.014608,0.020199
1702,-0.0008485,0.035656,0.0011247,0.05473,-0.0041372,0.012635,0.014937
1703,-0.0018351,0.0373,-0.0080836,0.054401,0.0054,0.0080309,0.01987
1704,-0.0038083,0.035656,-0.020252,0.052428,0.013622,0.0057288,0.032367
1705,-0.0054526,0.028421,-0.0265,0.047824,0.020199,0.0060577,0.04881
1706,-0.007097,0.014608,-0.025514,0.041575,0.023817,0.0060577,0.064596
1707,-0.0047949,-0.0031506,-0.020581,0.036642,0.027763,0.0040845,0.073476
1708,0.0034268,-0.018936,-0.016963,0.034011,0.028092,-0.0018351,0.069858
1709,0.015924,-0.026829,-0.018936,0.032038,0.025132,-0.0080836,0.052757
