,channel_1,channel_2,channel_3,channel_4,channel_5,channel_6,channel_7
0,0.056374,-0.21922,-0.16265,-0.12417,0.15503,0.10669,0.014279
1,0.13004,-0.10411,-0.21724,-0.26197,0.3244,0.10801,0.010333
2,0.19022,-0.032091,-0.25539,-0.36392,0.41944,0.10965,0.01132
3,0.22311,0.0070443,-0.26723,-0.41391,0.42536,0.10801,0.013622
4,0.22278,0.030723,-0.23533,-0.40832,0.37669,0.096825,0.010662
5,0.18891,0.05473,-0.14193,-0.35471,0.32341,0.072489,0.0014536
6,0.12609,0.084657,0.023488,-0.27052,0.29349,0.044535,-0.012359
7,0.043877,0.11754,0.25468,-0.17318,0.28329,0.026447,-0.028473
8,-0.042615,0.14879,0.50594,-0.075173,0.27047,0.023817,-0.038668
9,-0.13009,0.17806,0.71904,0.013293,0.23396,0.032696,-0.037353
10,-0.21099,0.21028,0.85881,0.084986,0.16457,0.042891,-0.02946
11,-0.28302,0.24284,0.92031,0.13366,0.064267,0.049468,-0.018936
12,-0.34715,0.27014,0.91603,0.15734,-0.066293,0.049468,-0.0097279
13,-0.3968,0.28559,0.85717,0.15734,-0.22316,0.044535,-0.0018351
14,-0.42706,0.28888,0.73483,0.14024,-0.39056,0.038616,0.0040845
15,-0.43693,0.28132,0.53356,0.11458,-0.53296,0.035985,0.0093464
16,-0.4264,0.26586,0.26389,0.086959,-0.61649,0.036642,0.013622
17,-0.39976,0.25074,-0.034393,0.060321,-0.61682,0.042562,0.017239
18,-0.36096,0.2435,-0.30834,0.035327,-0.52868,0.052428,0.022172
19,-0.31459,0.24482,-0.5392,0.011648,-0.3728,0.062294,0.028092
20,-0.25605,0.24547,-0.73587,-0.0084125,-0.18896,0.070516,0.035656
21,-0.18238,0.23495,-0.89175,-0.023869,-0.027158,0.075449,0.046508
22,-0.087669,0.20667,-0.97989,-0.038668,0.067227,0.080711,0.059005
23,0.039273,0.16885,-0.9595,-0.054454,0.076435,0.084328,0.064596
24,0.1945,0.13366,-0.79671,-0.072542,0.014937,0.082026,0.06065
25,0.36189,0.11228,-0.49448,-0.094247,-0.085367,0.07216,0.052099
26,0.51087,0.11064,-0.10839,-0.11299,-0.19126,0.055059,0.047495
27,0.60361,0.12412,0.27474,-0.12023,-0.27282,0.033025,0.05177
28,0.61413,0.14484,0.57763,-0.10609,-0.29255,0.010662,0.061965
29,0.54672,0.16161,0.77692,-0.07024,-0.2327,-0.0041372,0.068214
30,0.42832,0.16589,0.88315,-0.013674,-0.10609,-0.0084125,0.068871
31,0.29217,0.15207,0.91702,0.057032,0.040918,-0.0038083,0.06624
32,0.16589,0.13267,0.88183,0.12708,0.16095,0.00079584,0.06065
33,0.063938,0.11853,0.78745,0.18332,0.22936,0.0024402,0.053415
34,-0.0087413,0.11623,0.65327,0.21489,0.24745,-0.0028217,0.044864
35,-0.060373,0.13103,0.50331,0.21818,0.22377,-0.017292,0.036971
36,-0.099838,0.18266,0.35597,0.19877,0.1695,-0.035051,0.030723
37,-0.1347,0.29711,0.22903,0.17016,0.10044,-0.049521,0.027763
38,-0.1666,0.47469,0.13333,0.14385,0.032696,-0.056427,0.031709
39,-0.19159,0.68747,0.066569,0.1284,-0.027487,-0.057085,0.045522
40,-0.20409,0.88578,0.012635,0.12544,-0.075173,-0.053467,0.064267
41,-0.19948,1.0216,-0.044588,0.12873,-0.098522,-0.047548,0.08367
42,-0.17646,1.065,-0.10641,0.1307,-0.08471,-0.044259,0.098141
43,-0.13272,1.0163,-0.15542,0.12905,-0.024198,-0.043272,0.10702
44,-0.068266,0.88841,-0.16726,0.1205,0.08367,-0.042615,0.10603
45,0.0063866,0.70983,-0.14522,0.10801,0.22508,-0.041628,0.094523
46,0.0692,0.50462,-0.11365,0.096167,0.37373,-0.041957,0.076435
47,0.10307,0.30105,-0.094576,0.090577,0.50396,-0.042615,0.056703
48,0.10143,0.11458,-0.093589,0.085315,0.59243,-0.042944,0.041575
49,0.0692,-0.057414,-0.11135,0.081697,0.6263,-0.040641,0.031709
50,0.023488,-0.23829,-0.14555,0.088932,0.60394,-0.034393,0.023817
51,-0.0041372,-0.44844,-0.18962,0.11327,0.53553,-0.025514,0.017239
52,0.023817,-0.68095,-0.23665,0.15207,0.44246,-0.017292,0.012964
53,0.1205,-0.90655,-0.28071,0.19187,0.33624,-0.014332,0.013951
54,0.26422,-1.0868,-0.32149,0.21653,0.21949,-0.014661,0.015924
55,0.40695,-1.1742,-0.35372,0.21883,0.089261,-0.015648,0.019212
56,0.49475,-1.141,-0.3705,0.19549,-0.050836,-0.013017,0.025461
57,0.49443,-0.99699,-0.36293,0.15438,-0.18896,-0.0054526,0.034669
58,0.41024,-0.79868,-0.3284,0.10538,-0.30801,0.0037556,0.043549
59,0.27803,-0.62734,-0.26164,0.064596,-0.39845,0.0090175,0.045193
60,0.14484,-0.54447,-0.17186,0.035656,-0.46093,0.010004,0.039602
61,0.050784,-0.56749,-0.077803,0.01691,-0.50402,0.0073732,0.031709
62,0.025132,-0.67272,-0.0074258,0.0070443,-0.54315,0.00046697,0.024474
63,0.08367,-0.8148,0.033025,0.0060577,-0.57439,-0.0084125,0.01987
64,0.21719,-0.93944,0.053415,0.016581,-0.57702,-0.017621,0.01691
65,0.3882,-1.0111,0.064925,0.036642,-0.54545,-0.020909,0.015595
66,0.53751,-1.0078,0.063281,0.056046,-0.50007,-0.014332,0.015595
67,0.62038,-0.92201,0.04322,0.062623,-0.47014,-0.0034794,0.015266
68,0.61479,-0.76612,0.014608,0.050126,-0.46883,0.0077021,0.013293
69,0.52764,-0.56913,-0.0087413,0.023488,-0.48461,0.01691,0.0060577
70,0.3882,-0.35964,-0.015976,-0.01203,-0.49842,0.022172,-0.0038083
71,0.23298,-0.15969,-0.0031506,-0.04985,-0.49645,0.021186,-0.013674
72,0.090905,0.012635,0.022501,-0.087669,-0.47376,0.017897,-0.020909
73,-0.021238,0.14089,0.052428,-0.12089,-0.43791,0.011977,-0.028802
74,-0.10214,0.22015,0.082026,-0.15081,-0.39911,0.0060577,-0.033735
75,-0.16462,0.25764,0.10143,-0.17548,-0.36556,-0.0024928,-0.031433
76,-0.2156,0.27014,0.10176,-0.19291,-0.34024,-0.014661,-0.019594
77,-0.25901,0.27244,0.07512,-0.20113,-0.31788,-0.028144,-0.002164
78,-0.29387,0.28165,0.021514,-0.20212,-0.29683,-0.043272,0.012964
79,-0.31623,0.3346,-0.048534,-0.19455,-0.27184,-0.053796,0.017897
80,-0.32708,0.47732,-0.11891,-0.18173,-0.24092,-0.056098,0.013622
81,-0.33103,0.72365,-0.17844,-0.1666,-0.20803,-0.047877,0.0017824
82,-0.32906,1.0394,-0.2202,-0.15344,-0.17416,-0.031104,-0.011372
83,-0.3159,1.3768,-0.24191,-0.14555,-0.14259,-0.014003,-0.022225
84,-0.28927,1.6843,-0.24289,-0.14752,-0.11628,0.0001381,-0.0265
85,-0.2498,1.9391,-0.22218,-0.15706,-0.10017,0.011648,-0.022883
86,-0.2031,2.1615,-0.17844,-0.16561,-0.085696,0.022172,-0.0077547
87,-0.15542,2.3726,-0.11398,-0.16726,-0.064978,0.030723,0.011977
88,-0.11168,2.5531,-0.037682,-0.15706,-0.029131,0.040589,0.02875
89,-0.07024,2.633,0.035985,-0.13272,0.026447,0.052757,0.039602
90,-0.022554,2.5285,0.089919,-0.10017,0.1034,0.064596,0.049797
91,0.034011,2.1937,0.11853,-0.060373,0.19614,0.074133,0.05769
92,0.091563,1.6412,0.11952,-0.01795,0.29349,0.082026,0.060979
93,0.12774,0.92524,0.092879,0.019541,0.38294,0.087288,0.060979
94,0.12675,0.11623,0.039602,0.046837,0.45069,0.086959,0.06065
95,0.086959,-0.70331,-0.027158,0.060979,0.47601,0.086301,0.061307
96,0.015595,-1.4508,-0.088656,0.066898,0.45134,0.086959,0.060979
97,-0.068924,-2.0717,-0.12976,0.067556,0.38426,0.087946,0.060321
98,-0.14423,-2.5469,-0.14391,0.066569,0.30335,0.091234,0.064596
99,-0.19685,-2.8807,-0.13601,0.071173,0.2412,0.095181,0.071502
100,-0.22283,-3.085,-0.11233,0.08367,0.22048,0.098469,0.076435
101,-0.22152,-3.1669,-0.073528,0.10077,0.24712,0.10209,0.078409
102,-0.19356,-3.1146,-0.0093991,0.12116,0.30138,0.10768,0.081368
103,-0.14687,-2.9146,0.083342,0.1478,0.34084,0.11393,0.086301
104,-0.083065,-2.5848,0.18989,0.18003,0.32605,0.11689,0.090577
105,-0.0051238,-2.1717,0.28527,0.20469,0.24251,0.1136,0.08959
106,0.084657,-1.732,0.32901,0.21686,0.10866,0.10472,0.086959
107,0.17838,-1.3114,0.29612,0.20996,-0.038011,0.091563,0.085644
108,0.26257,-0.94437,0.19779,0.182,-0.15673,0.076764,0.084657
109,0.32144,-0.6451,0.069529,0.133,-0.2281,0.056374,0.078409
110,0.33624,-0.40272,-0.041957,0.069858,-0.25868,0.030394,0.067227
111,0.30138,-0.19389,-0.10214,0.0060577,-0.2669,0.0034268,0.052099
112,0.23528,0.0054,-0.098193,-0.043601,-0.26164,-0.014332,0.035985
113,0.15865,0.20996,-0.034064,-0.073199,-0.2475,-0.017292,0.020199
114,0.089261,0.40991,0.068871,-0.088327,-0.22316,-0.0067681,0.0090175
115,0.033025,0.58158,0.18134,-0.094905,-0.18074,0.011648,0.0017824
116,-0.013017,0.70457,0.27704,-0.096549,-0.12549,0.032367,-0.0011774
117,-0.052481,0.77067,0.34479,-0.095233,-0.070897,0.050455,0.00046697
118,-0.084381,0.79074,0.38162,-0.092603,-0.032091,0.062294,0.0054
119,-0.1097,0.78284,0.38985,-0.083065,-0.019923,0.071831,0.012306
120,-0.12713,0.76377,0.3734,-0.063991,-0.033078,0.077422,0.016581
121,-0.13897,0.74667,0.34282,-0.034722,-0.059716,0.077422,0.01691
122,-0.15311,0.73845,0.31059,0.0063866,-0.085367,0.071173,0.017239
123,-0.17416,0.73351,0.29546,0.059992,-0.095562,0.063281,0.020857
124,-0.20212,0.73088,0.31092,0.12807,-0.066293,0.060979,0.028421
125,-0.22612,0.73253,0.3586,0.21094,0.02875,0.068214,0.040918
126,-0.23862,0.74206,0.41879,0.30039,0.19976,0.083342,0.053415
127,-0.23073,0.75127,0.46187,0.38195,0.41912,0.10077,0.06361
128,-0.19718,0.75588,0.46417,0.44082,0.63091,0.11195,0.067556
129,-0.1347,0.75588,0.42503,0.4645,0.78449,0.11524,0.068543
130,-0.042944,0.75588,0.3517,0.45134,0.85289,0.11458,0.071831
131,0.065583,0.75259,0.24482,0.40991,0.84138,0.11097,0.081039
132,0.17115,0.73845,0.1182,0.34775,0.77396,0.10472,0.090248
133,0.24712,0.69865,-0.0097279,0.27112,0.68451,0.09255,0.08959
134,0.28362,0.62301,-0.1245,0.19812,0.6046,0.076435,0.078409
135,0.28855,0.52139,-0.20968,0.14912,0.5602,0.062623,0.06065
136,0.28165,0.42372,-0.25605,0.13169,0.57007,0.054072,0.045522
137,0.27935,0.35893,-0.27578,0.13695,0.63584,0.054401,0.033683
138,0.28165,0.33756,-0.2965,0.14977,0.74305,0.061636,0.02579
139,0.28198,0.35992,-0.32906,0.15405,0.86374,0.070187,0.024145
140,0.27277,0.42273,-0.36063,0.14714,0.96273,0.077093,0.030394
141,0.24449,0.51482,-0.3557,0.13136,1.0025,0.081039,0.043549
142,0.19417,0.61644,-0.29453,0.11195,0.95912,0.081697,0.058676
143,0.12905,0.7072,-0.19685,0.092879,0.83283,0.080711,0.070845
144,0.058348,0.77396,-0.10247,0.071502,0.64011,0.077422,0.076435
145,0.00079584,0.81145,-0.047219,0.05177,0.41879,0.068543,0.071173
146,-0.028802,0.81704,-0.04985,0.034669,0.21456,0.056374,0.058348
147,-0.019265,0.79074,-0.10313,0.025132,0.066898,0.044864,0.046508
148,0.034998,0.73976,-0.17449,0.027434,-0.0028217,0.038287,0.043549
149,0.13103,0.67563,-0.23106,0.036971,0.00046697,0.040918,0.049468
150,0.25369,0.60756,-0.2521,0.048153,0.059005,0.049139,0.060979
151,0.38031,0.53948,-0.24059,0.060321,0.16359,0.060321,0.072489
152,0.48423,0.47535,-0.21889,0.073804,0.30368,0.0692,0.078409
153,0.5408,0.4201,-0.20244,0.091563,0.45167,0.073804,0.07512
154,0.53619,0.37998,-0.18074,0.11524,0.55987,0.071831,0.063281
155,0.47765,0.36288,-0.12516,0.13991,0.58388,0.067556,0.04881
156,0.38327,0.36551,-0.026829,0.15767,0.50166,0.062623,0.035327
157,0.26915,0.37143,0.085315,0.15668,0.32374,0.056703,0.023817
158,0.15076,0.36814,0.17279,0.13201,0.091234,0.048482,0.010991
159,0.042891,0.34874,0.21916,0.085644,-0.14456,0.038944,-0.0015062
160,-0.041957,0.3175,0.24251,0.030723,-0.3432,0.029736,-0.011372
161,-0.10641,0.29513,0.28658,-0.016963,-0.48067,0.018884,-0.016634
162,-0.15443,0.30434,0.36979,-0.048534,-0.55203,0.0054,-0.015648
163,-0.18929,0.35005,0.47042,-0.061689,-0.57505,-0.010715,-0.0087413
164,-0.21461,0.42832,0.54968,-0.061689,-0.57966,-0.025514,-0.0038083
165,-0.22842,0.51909,0.58289,-0.059716,-0.58952,-0.035708,-0.0038083
166,-0.22579,0.59276,0.5625,-0.059716,-0.6178,-0.041299,-0.0051238
167,-0.20968,0.62499,0.4987,-0.056098,-0.66121,-0.041628,-0.0024928
168,-0.19258,0.60032,0.41155,-0.036037,-0.70265,-0.041628,0.0014536
169,-0.18732,0.51613,0.32802,0.0067154,-0.72534,-0.044259,0.0001381
170,-0.1985,0.37176,0.26619,0.058348,-0.71054,-0.052481,-0.010715
171,-0.22251,0.16983,0.22673,0.097483,-0.65102,-0.062347,-0.028144
172,-0.24585,-0.077146,0.19614,0.1034,-0.554,-0.07287,-0.046561
173,-0.25934,-0.34451,0.14912,0.067885,-0.44186,-0.083394,-0.059716
174,-0.26559,-0.61221,0.069858,0.0001381,-0.34517,-0.091287,-0.066293
175,-0.26427,-0.87268,-0.037682,-0.076817,-0.28433,-0.09326,-0.068266
176,-0.24717,-1.1134,-0.15048,-0.13864,-0.26131,-0.086683,-0.063333
177,-0.20935,-1.29,-0.24454,-0.17318,-0.26394,-0.074515,-0.04985
178,-0.14719,-1.3337,-0.31064,-0.18469,-0.27644,-0.057743,-0.029131
179,-0.068266,-1.1812,-0.34912,-0.186,-0.28532,-0.036695,-0.0093991
180,0.011977,-0.8194,-0.36425,-0.186,-0.28269,-0.013674,0.0040845
181,0.076435,-0.30406,-0.3626,-0.18633,-0.27216,0.0083598,0.0030979
182,0.11721,0.26389,-0.35076,-0.18797,-0.26197,0.021843,-0.007097
183,0.13793,0.76837,-0.33399,-0.18765,-0.25934,0.025132,-0.017292
184,0.15076,1.1272,-0.28466,-0.18534,-0.26592,0.01987,-0.019265
185,0.1672,1.2965,-0.13568,-0.18271,-0.27381,0.014608,-0.015976
186,0.1797,1.2636,0.14254,-0.18304,-0.27677,0.010991,-0.013674
187,0.1751,1.041,0.48028,-0.18896,-0.2748,0.012306,-0.015648
188,0.1478,0.65722,0.75752,-0.19455,-0.26822,0.015266,-0.020581
189,0.10011,0.15734,0.89071,-0.19028,-0.25539,0.016253,-0.022225
190,0.042233,-0.39385,0.86046,-0.17285,-0.23434,0.016253,-0.015648
191,-0.011372,-0.93746,0.7026,-0.14719,-0.20935,0.022501,-0.0057815
192,-0.05281,-1.4344,0.48094,-0.12089,-0.18173,0.031052,0.00046697
193,-0.080106,-1.8603,0.26225,-0.099509,-0.15377,0.034998,-0.00019077
194,-0.10609,-2.2131,0.091234,-0.085696,-0.13141,0.034669,-0.0061104
195,-0.14226,-2.4815,-0.021896,-0.082408,-0.11529,0.031052,-0.010386
196,-0.18074,-2.6278,-0.087341,-0.087012,-0.10477,0.027763,-0.010715
197,-0.20606,-2.6052,-0.11793,-0.095233,-0.094247,0.025461,-0.0074258
198,-0.20869,-2.4016,-0.1324,-0.10477,-0.07287,0.024803,-0.0011774
199,-0.18896,-2.051,-0.14785,-0.11299,-0.035708,0.028421,0.010333
200,-0.15706,-1.6218,-0.17318,-0.11431,0.012635,0.038944,0.023817
201,-0.13272,-1.1956,-0.2031,-0.1074,0.062952,0.054072,0.031381
202,-0.12878,-0.83551,-0.22941,-0.090958,0.10176,0.0692,0.029736
203,-0.14193,-0.56716,-0.2498,-0.067937,0.11985,0.075778,0.019212
204,-0.16561,-0.37674,-0.26493,-0.041628,0.1136,0.069858,0.0083598
205,-0.186,-0.2373,-0.27611,-0.016963,0.090248,0.054401,-0.0011774
206,-0.18962,-0.1268,-0.28236,0.0063866,0.060979,0.037629,-0.0074258
207,-0.1735,-0.030447,-0.28598,0.020199,0.0373,0.023817,-0.013017
208,-0.13963,0.052428,-0.29979,0.02283,0.026776,0.0083598,-0.019265
209,-0.091945,0.12708,-0.3455,0.020857,0.033354,-0.010386,-0.024527
210,-0.044259,0.20601,-0.41588,0.023159,0.056046,-0.028144,-0.028144
211,-0.0041372,0.29908,-0.46948,0.033683,0.090577,-0.035708,-0.029131
212,0.03434,0.39774,-0.44778,0.056046,0.133,-0.031762,-0.021896
213,0.075778,0.47239,-0.30965,0.091563,0.17904,-0.01795,-0.0038083
214,0.11491,0.49508,-0.072542,0.14056,0.22673,-0.0024928,0.021843
215,0.14583,0.46318,0.18924,0.19549,0.27474,0.0096753,0.04618
216,0.17575,0.39708,0.38689,0.24186,0.31651,0.017897,0.062294
217,0.22278,0.33131,0.46746,0.26751,0.34742,0.020528,0.068543
218,0.29743,0.29184,0.43227,0.2708,0.36387,0.020528,0.070516
219,0.38689,0.28823,0.31486,0.26323,0.36419,0.019541,0.075449
220,0.46285,0.31322,0.16622,0.24712,0.3438,0.020199,0.081039
221,0.50035,0.35137,0.034998,0.22936,0.30434,0.023817,0.083999
222,0.49443,0.38787,-0.052152,0.2116,0.25139,0.032038,0.088603
223,0.44838,0.40859,-0.092931,0.19417,0.19516,0.039273,0.095181
224,0.37603,0.41451,-0.1051,0.1797,0.1432,0.041575,0.099127
225,0.2879,0.41451,-0.10674,0.16589,0.098141,0.038944,0.098141
226,0.20272,0.41122,-0.11266,0.14846,0.050126,0.034669,0.096496
227,0.13695,0.40497,-0.12483,0.12708,-0.010386,0.031052,0.099456
228,0.099127,0.40037,-0.13568,0.10702,-0.081421,0.033683,0.11393
229,0.08959,0.40432,-0.13963,0.085972,-0.14555,0.043549,0.1376
230,0.099785,0.41714,-0.13075,0.0692,-0.18304,0.061636,0.16227
231,0.11689,0.43063,-0.11069,0.055717,-0.18929,0.082026,0.17806
232,0.12807,0.4474,-0.083723,0.041575,-0.18271,0.097483,0.17904
233,0.13497,0.49443,-0.055112,0.024803,-0.1837,0.099127,0.16589
234,0.14188,0.61446,-0.028144,0.01132,-0.19916,0.089261,0.14583
235,0.15273,0.80948,-0.0061104,0.0017824,-0.2202,0.071831,0.12281
236,0.16194,1.04,0.0096753,-0.0061104,-0.22579,0.052757,0.10044
237,0.1603,1.2604,0.016581,-0.016634,-0.18962,0.036642,0.084328
238,0.13728,1.4389,0.017239,-0.029789,-0.10148,0.027434,0.080053
239,0.08663,1.5461,0.015595,-0.042944,0.031052,0.024474,0.088932
240,0.0044134,1.5711,0.010662,-0.05281,0.19253,0.025461,0.10143
241,-0.10082,1.5221,-0.0018351,-0.06136,0.36683,0.031052,0.10702
242,-0.21198,1.4113,-0.016634,-0.069582,0.53356,0.039602,0.10406
243,-0.309,1.2301,-0.024198,-0.071555,0.6559,0.050126,0.09255
244,-0.37477,0.94826,-0.017292,-0.063004,0.69668,0.060979,0.075449
245,-0.41193,0.5602,-0.0054526,-0.051494,0.63946,0.068871,0.059663
246,-0.43397,0.10011,0.0021113,-0.044917,0.49706,0.072818,0.047495
247,-0.45863,-0.38595,-0.0028217,-0.042615,0.305,0.076106,0.039931
248,-0.48823,-0.87695,-0.0265,-0.044588,0.10209,0.080053,0.035985
249,-0.5129,-1.3732,-0.068924,-0.038668,-0.070897,0.084328,0.032038
250,-0.51125,-1.8593,-0.11727,-0.020581,-0.17844,0.085315,0.030065
251,-0.46751,-2.2733,-0.15936,0.013622,-0.20803,0.084328,0.027105
252,-0.37444,-2.5045,-0.18732,0.062294,-0.17613,0.082026,0.024803
253,-0.23632,-2.4697,-0.20672,0.12116,-0.11003,0.07808,0.025461
254,-0.059716,-2.1648,-0.22316,0.182,-0.035051,0.074133,0.034011
255,0.14122,-1.6646,-0.23303,0.23791,0.035656,0.070516,0.046508
256,0.33723,-1.0756,-0.23237,0.28625,0.098798,0.065254,0.059334
257,0.49804,-0.49448,-0.21363,0.32769,0.15701,0.055717,0.067556
258,0.60131,0.0077021,-0.17219,0.36058,0.20535,0.042233,0.0692
259,0.63913,0.39642,-0.11036,0.38195,0.24153,0.026447,0.063281
260,0.61676,0.66938,-0.038668,0.38623,0.2754,0.011648,0.051441
261,0.55264,0.83809,0.026776,0.37176,0.31158,-0.0011774,0.036971
262,0.47239,0.92886,0.083013,0.3438,0.33657,-0.0087413,0.025132
263,0.40333,0.97227,0.13103,0.30993,0.32637,-0.0054526,0.020199
264,0.36058,0.98411,0.17378,0.27704,0.26948,0.0080309,0.022501
265,0.34019,0.97359,0.2116,0.25402,0.16885,0.026776,0.028421
266,0.32868,0.94629,0.24054,0.24153,0.042891,0.040918,0.035985
267,0.31322,0.89893,0.25369,0.24284,-0.086025,0.04618,0.04026
268,0.28691,0.81441,0.25238,0.25961,-0.20113,0.041247,0.041904
269,0.25304,0.673,0.24054,0.28888,-0.2988,0.030065,0.039273
270,0.21752,0.46976,0.22574,0.3175,-0.38135,0.019212,0.033354
271,0.17838,0.21883,0.20864,0.32999,-0.44811,0.010662,0.030065
272,0.13103,-0.048534,0.18661,0.3175,-0.49579,0.0037556,0.02875
273,0.073476,-0.3159,0.1649,0.28132,-0.52802,-0.0015062,0.02579
274,0.0077021,-0.57242,0.14846,0.22673,-0.54578,-0.0051238,0.01691
275,-0.058729,-0.78355,0.14089,0.16391,-0.54578,-0.0064392,-0.00051963
276,-0.11661,-0.90162,0.14056,0.10143,-0.51914,-0.004466,-0.015976
277,-0.16627,-0.8957,0.14385,0.048153,-0.46356,-0.0038083,-0.020909
278,-0.21527,-0.77369,0.15175,0.0057288,-0.38694,-0.0051238,-0.016305
279,-0.27249,-0.5767,0.15997,-0.026829,-0.29617,-0.0087413,-0.0097279
280,-0.33662,-0.36129,0.16983,-0.051494,-0.19521,-0.013017,-0.0041372
281,-0.39352,-0.17022,0.18134,-0.073528,-0.077146,-0.018936,0.0011247
282,-0.43199,-0.022883,0.18989,-0.090629,0.074462,-0.025185,0.0057288
283,-0.44449,0.077093,0.19581,-0.098193,0.27408,-0.029131,0.0093464
284,-0.43791,0.13892,0.1968,-0.095233,0.52369,-0.028144,0.0086887
285,-0.42213,0.17082,0.1945,-0.08471,0.79567,-0.021238,0.0054
286,-0.40108,0.17773,0.18726,-0.069911,1.0367,-0.0074258,-0.002164
287,-0.37378,0.16786,0.18299,-0.050507,1.1877,0.010991,-0.01203
288,-0.33728,0.15602,0.18167,-0.024856,1.2107,0.029078,-0.023869
289,-0.28269,0.15503,0.18003,0.002769,1.114,0.042233,-0.030447
290,-0.2054,0.16983,0.16885,0.022501,0.93905,0.047495,-0.030447
291,-0.10214,0.19746,0.13958,0.027434,0.73614,0.04618,-0.019265
292,0.0373,0.23035,0.084986,0.01987,0.54178,0.038944,-0.0015062
293,0.21456,0.25961,0.0083598,0.0063866,0.37406,0.029078,0.01691
294,0.41287,0.28165,-0.068595,-0.0077547,0.23067,0.019212,0.030065
295,0.59243,0.29776,-0.11858,-0.020581,0.11261,0.011648,0.035656
296,0.70655,0.30993,-0.12976,-0.030118,0.019212,0.0090175,0.041575
297,0.72266,0.32078,-0.10346,-0.037682,-0.054125,0.01132,0.050126
298,0.63715,0.32802,-0.058071,-0.041957,-0.11135,0.014937,0.06361
299,0.48127,0.32572,-0.011701,-0.042286,-0.15048,0.017239,0.076106
300,0.30533,0.31651,0.020857,-0.043601,-0.16824,0.021186,0.078737
301,0.16095,0.3096,0.031709,-0.046232,-0.16824,0.024474,0.071502
302,0.076435,0.30566,0.027105,-0.047219,-0.16397,0.025132,0.059663
303,0.051113,0.30598,0.0096753,-0.044588,-0.16791,0.024803,0.047495
304,0.066569,0.30138,-0.017292,-0.040641,-0.18666,0.02283,0.034998
305,0.091234,0.28527,-0.057743,-0.037353,-0.21889,0.022172,0.02283
306,0.10274,0.256,-0.11003,-0.038011,-0.24816,0.021843,0.012635
307,0.091892,0.21851,-0.16726,-0.04689,-0.2623,0.023488,0.0014536
308,0.062952,0.18102,-0.22053,-0.067609,-0.25572,0.028421,-0.0084125
309,0.030065,0.15405,-0.26855,-0.095891,-0.23171,0.035327,-0.014332
310,0.002769,0.13826,-0.3136,-0.12187,-0.19817,0.044864,-0.015319
311,-0.012359,0.12905,-0.3478,-0.13897,-0.16627,0.055059,-0.010386
312,-0.013017,0.11952,-0.35734,-0.14785,-0.13667,0.065254,-0.0008485
313,-0.0018351,0.10866,-0.34945,-0.14785,-0.10017,0.072489,0.0077021
314,0.017568,0.099127,-0.34353,-0.14489,-0.045246,0.076435,0.014937
315,0.038944,0.09551,-0.35274,-0.14127,0.021186,0.081368,0.018555
316,0.053743,0.09551,-0.36885,-0.13667,0.079395,0.087946,0.017897
317,0.058676,0.098141,-0.36951,-0.12878,0.11097,0.094852,0.018884
318,0.051441,0.10011,-0.32084,-0.11135,0.1057,0.10143,0.027105
319,0.033025,0.10603,-0.18995,-0.081421,0.06624,0.10801,0.038616
320,0.0093464,0.11985,0.049139,-0.041299,0.0040845,0.10932,0.049797
321,-0.014003,0.14517,0.39215,-0.0008485,-0.061689,0.10242,0.05769
322,-0.034722,0.18529,0.76903,0.034669,-0.11431,0.086959,0.06065
323,-0.046232,0.25567,1.0696,0.064596,-0.15344,0.066898,0.059334
324,-0.044588,0.3859,1.214,0.088932,-0.18896,0.052757,0.05769
325,-0.034393,0.58947,1.1969,0.11524,-0.23237,0.045851,0.059663
326,-0.019923,0.84171,1.0854,0.14024,-0.29124,0.041247,0.068871
327,-0.011372,1.093,0.94465,0.15372,-0.37115,0.038616,0.082026
328,-0.011701,1.2857,0.79205,0.14681,-0.4685,0.034998,0.097483
329,-0.012688,1.3906,0.62893,0.1205,-0.5711,0.029736,0.10702
330,-0.0077547,1.4218,0.47963,0.082026,-0.65102,0.021843,0.10801
331,0.0030979,1.4031,0.37439,0.039602,-0.68062,0.012635,0.10274
332,0.014937,1.3416,0.32769,0.0047422,-0.65891,0.00079584,0.094523
333,0.019212,1.2288,0.32473,-0.023211,-0.60432,-0.0093991,0.082026
334,0.013622,1.0532,0.34348,-0.043272,-0.53427,-0.013017,0.070187
335,-0.0011774,0.79468,0.3563,-0.05544,-0.4514,-0.0077547,0.067885
336,-0.019265,0.44181,0.34709,-0.060702,-0.35175,0.0050711,0.071831
337,-0.040313,-0.0008485,0.30927,-0.061031,-0.24816,0.019541,0.080053
338,-0.067937,-0.50895,0.23594,-0.05544,-0.15377,0.030723,0.087617
339,-0.10313,-1.0365,0.13004,-0.044259,-0.076159,0.032038,0.091234
340,-0.14292,-1.5373,0.0014536,-0.036366,-0.0064392,0.022172,0.084657
341,-0.18107,-1.9731,-0.13601,-0.038011,0.063938,0.0077021,0.066569
342,-0.20573,-2.3023,-0.26822,-0.051823,0.13793,-0.0051238,0.042891
343,-0.21067,-2.4897,-0.38562,-0.074186,0.20436,-0.012359,0.021186
344,-0.18995,-2.5065,-0.47146,-0.09326,0.24054,-0.013345,0.0070443
345,-0.14687,-2.3532,-0.50961,-0.096878,0.23659,-0.0087413,0.00046697
346,-0.098193,-2.0707,-0.49514,-0.078461,0.19647,0.0001381,-0.0011774
347,-0.059058,-1.7356,-0.43594,-0.038668,0.13662,0.0096753,-0.002164
348,-0.045903,-1.4153,-0.34156,0.015266,0.072818,0.020528,-0.0047949
349,-0.059058,-1.1443,-0.22974,0.07512,0.031709,0.034669,-0.0061104
350,-0.0903,-0.92299,-0.12023,0.13234,0.027105,0.049139,-0.0028217
351,-0.12187,-0.73093,-0.038668,0.17378,0.05177,0.059334,0.002769
352,-0.14127,-0.55071,-0.0038083,0.18891,0.090248,0.062623,0.0047422
353,-0.13766,-0.3728,-0.01203,0.1774,0.13037,0.06065,0.0044134
354,-0.11003,-0.20179,-0.046561,0.14648,0.17707,0.054401,0.0057288
355,-0.064649,-0.051494,-0.085696,0.11064,0.23199,0.046837,0.0073732
356,-0.017621,0.060979,-0.11365,0.078409,0.28592,0.043549,0.0011247
357,0.017568,0.13234,-0.12549,0.047824,0.32769,0.04618,-0.01203
358,0.030723,0.16753,-0.12615,0.017897,0.35663,0.051441,-0.027487
359,0.020199,0.18003,-0.1222,-0.0087413,0.38853,0.053415,-0.038997
360,-0.0057815,0.18891,-0.11957,-0.030118,0.44444,0.051113,-0.040641
361,-0.037024,0.20535,-0.12615,-0.041628,0.53553,0.04322,-0.035051
362,-0.06432,0.23857,-0.14752,-0.041299,0.65261,0.034011,-0.027487
363,-0.079777,0.30763,-0.17548,-0.03242,0.77232,0.027434,-0.015319
364,-0.078461,0.44575,-0.19225,-0.024527,0.87328,0.027763,0.002769
365,-0.063991,0.69799,-0.18041,-0.021896,0.93511,0.033025,0.021514
366,-0.042944,1.0739,-0.14621,-0.026171,0.94991,0.040918,0.032367
367,-0.023211,1.5221,-0.11497,-0.037353,0.92689,0.055388,0.031709
368,-0.010386,1.9483,-0.11233,-0.052481,0.87558,0.071173,0.021843
369,-0.0080836,2.2575,-0.14785,-0.063991,0.79501,0.079724,0.010991
370,-0.014332,2.3949,-0.2054,-0.066951,0.67991,0.081697,0.0037556
371,-0.019265,2.3446,-0.25671,-0.063004,0.52304,0.07808,-0.0011774
372,-0.012688,2.1144,-0.27611,-0.058729,0.31914,0.07216,-0.0028217
373,0.013951,1.7241,-0.25013,-0.058729,0.075778,0.068214,0.0030979
374,0.056374,1.191,-0.19093,-0.064978,-0.18205,0.064596,0.018555
375,0.10209,0.54277,-0.13009,-0.074186,-0.41654,0.062623,0.040918
376,0.1455,-0.15903,-0.092603,-0.077803,-0.58492,0.060321,0.06065
377,0.17871,-0.83354,-0.088985,-0.072213,-0.66549,0.054401,0.067556
378,0.19713,-1.4242,-0.11102,-0.057743,-0.66121,0.040589,0.05769
379,0.19483,-1.905,-0.14226,-0.040313,-0.59281,0.020528,0.034669
380,0.17279,-2.2519,-0.16462,-0.022883,-0.49316,-0.00051963,0.0096753
381,0.13563,-2.4325,-0.16462,-0.0093991,-0.39385,-0.016305,-0.0061104
382,0.092221,-2.4147,-0.13864,0.0037556,-0.31261,-0.025842,-0.0080836
383,0.058676,-2.1997,-0.091945,0.021843,-0.25375,-0.023869,-0.00019077
384,0.040918,-1.8251,-0.036695,0.045851,-0.20935,-0.01203,0.016581
385,0.04026,-1.3492,0.015924,0.072818,-0.17054,-0.002164,0.033354
386,0.05473,-0.85196,0.055717,0.095839,-0.14062,0.0011247,0.047166
387,0.079066,-0.41687,0.077751,0.11787,-0.12746,-0.002164,0.057032
388,0.10472,-0.10444,0.07808,0.13958,-0.1416,-0.0090702,0.062294
389,0.11985,0.058019,0.061965,0.15668,-0.18173,-0.013674,0.063938
390,0.11754,0.07512,0.036314,0.16391,-0.24026,-0.011043,0.062294
391,0.085315,-0.019594,0.0040845,0.16227,-0.29913,-0.0057815,0.065912
392,0.011648,-0.1735,-0.033406,0.1603,-0.34353,0.00079584,0.074462
393,-0.10477,-0.3307,-0.07287,0.16457,-0.37082,0.0073732,0.083013
394,-0.24914,-0.44219,-0.10609,0.18003,-0.38595,0.014937,0.084657
395,-0.40108,-0.47738,-0.12878,0.20601,-0.39121,0.021186,0.072818
396,-0.54184,-0.42706,-0.13799,0.23725,-0.37905,0.019212,0.050126
397,-0.65135,-0.30012,-0.13141,0.26619,-0.33925,0.0083598,0.024145
398,-0.71909,-0.12483,-0.099838,0.28559,-0.27184,-0.0047949,0.0030979
399,-0.74705,0.062294,-0.042615,0.29053,-0.19718,-0.015648,-0.0018351
400,-0.73718,0.23626,0.039273,0.27704,-0.13864,-0.02354,0.0063866
401,-0.68752,0.37899,0.14418,0.2481,-0.1176,-0.025185,0.021843
402,-0.59511,0.48555,0.25994,0.21357,-0.12911,-0.019923,0.033683
403,-0.45699,0.56546,0.36288,0.18134,-0.14917,-0.0097279,0.034998
404,-0.27216,0.62499,0.41813,0.1524,-0.14983,0.0017824,0.023817
405,-0.034064,0.66445,0.40201,0.12215,-0.11036,0.0086887,0.0024402
406,0.2583,0.68648,0.32078,0.089261,-0.015319,0.011648,-0.012359
407,0.6069,0.69734,0.21028,0.057032,0.12313,0.015595,-0.013345
408,0.9897,0.70687,0.11557,0.033354,0.27606,0.027105,-0.0011774
409,1.3554,0.7243,0.067885,0.021186,0.40596,0.046508,0.020528
410,1.6451,0.74831,0.070845,0.023488,0.49081,0.067227,0.04618
411,1.8027,0.76936,0.11426,0.038287,0.52698,0.083999,0.068871
412,1.7935,0.77067,0.18595,0.059992,0.526,0.095181,0.080382
413,1.6274,0.74601,0.27047,0.077093,0.50955,0.10209,0.080053
414,1.3593,0.69471,0.35367,0.083013,0.50035,0.10505,0.074791
415,1.0535,0.62893,0.41714,0.076435,0.51843,0.10735,0.066898
416,0.76706,0.55724,0.44641,0.062623,0.57763,0.11097,0.059992
417,0.53356,0.49048,0.4326,0.052757,0.67958,0.1205,0.058676
418,0.36222,0.4372,0.37011,0.053415,0.81047,0.13366,0.062952
419,0.23692,0.39905,0.24679,0.063938,0.94333,0.14418,0.064267
420,0.14385,0.37472,0.051441,0.082684,1.0466,0.14287,0.055388
421,0.081368,0.36781,-0.18699,0.10702,1.0933,0.12905,0.038616
422,0.048153,0.38162,-0.39121,0.13826,1.063,0.10702,0.019541
423,0.037958,0.41517,-0.48626,0.18036,0.95254,0.084986,0.0086887
424,0.043877,0.46614,-0.44844,0.23363,0.76739,0.0692,0.0024402
425,0.057032,0.52435,-0.30472,0.29217,0.52665,0.058676,-0.0038083
426,0.067556,0.56579,-0.1051,0.34249,0.25863,0.045193,-0.011701
427,0.071173,0.57434,0.099456,0.37834,-0.00051963,0.028092,-0.016963
428,0.067227,0.54968,0.25139,0.39281,-0.22481,0.0080309,-0.017292
429,0.058676,0.50857,0.30171,0.37505,-0.39812,-0.013345,-0.010386
430,0.052428,0.46581,0.23495,0.32144,-0.50533,-0.030118,0.0044134
431,0.057361,0.42997,0.079066,0.24876,-0.5392,-0.038997,0.026119
432,0.085315,0.39938,-0.1074,0.17049,-0.50796,-0.040313,0.050455
433,0.14221,0.37307,-0.26592,0.088932,-0.43758,-0.036695,0.074462
434,0.20798,0.34907,-0.36293,-0.0018351,-0.36556,-0.028802,0.090905
435,0.25008,0.32539,-0.39549,-0.10477,-0.32149,-0.019923,0.097483
436,0.23791,0.29316,-0.36754,-0.20376,-0.31459,-0.017292,0.096825
437,0.17246,0.25731,-0.27512,-0.2748,-0.33399,-0.019594,0.087946
438,0.07512,0.2264,-0.10937,-0.30406,-0.3603,-0.025842,0.071831
439,-0.021896,0.2116,0.11195,-0.28959,-0.37247,-0.028473,0.053415
440,-0.088985,0.20963,0.35203,-0.24092,-0.36458,-0.0265,0.04322
441,-0.12089,0.20798,0.60065,-0.17515,-0.33662,-0.01795,0.039931
442,-0.12812,0.19154,0.8302,-0.11036,-0.29387,-0.0080836,0.039273
443,-0.13108,0.15372,0.97161,-0.056756,-0.24717,-0.0031506,0.0373
444,-0.15015,0.10143,0.9851,-0.013017,-0.20869,-0.0084125,0.027763
445,-0.19948,0.062623,0.88413,0.017239,-0.18107,-0.022883,0.014608
446,-0.27677,0.079395,0.70786,0.039602,-0.16594,-0.037682,0.0001381
447,-0.36458,0.1751,0.49607,0.055388,-0.15443,-0.044917,-0.010386
448,-0.43923,0.34611,0.29546,0.059334,-0.14588,-0.04689,-0.018278
449,-0.48691,0.5477,0.16589,0.04881,-0.14095,-0.044588,-0.02354
450,-0.50566,0.71279,0.15701,0.031052,-0.14062,-0.041957,-0.024198
451,-0.49777,0.79797,0.2777,0.013293,-0.14259,-0.043601,-0.020909
452,-0.46554,0.79929,0.477,0.002769,-0.14193,-0.049192,-0.014332
453,-0.41391,0.75489,0.66182,-0.0008485,-0.14522,-0.057743,-0.0077547
454,-0.35175,0.71904,0.74009,-0.0041372,-0.16134,-0.064978,-0.0011774
455,-0.28992,0.72496,0.66905,-0.014003,-0.19521,-0.066951,0.0050711
456,-0.23796,0.77791,0.47371,-0.033406,-0.2327,-0.062676,0.0070443
457,-0.19652,0.84697,0.21719,-0.056756,-0.25177,-0.047877,0.0060577
458,-0.15739,0.87032,-0.0265,-0.071555,-0.24257,-0.02354,0.0063866
459,-0.11694,0.77396,-0.21132,-0.075173,-0.21461,0.0054,0.013293
460,-0.080434,0.51054,-0.32939,-0.073528,-0.19718,0.035327,0.02283
461,-0.057085,0.089919,-0.39812,-0.068266,-0.22185,0.062952,0.032696
462,-0.057743,-0.42673,-0.44054,-0.060373,-0.29453,0.083013,0.042891
463,-0.087012,-0.96542,-0.47277,-0.052481,-0.38858,0.097812,0.051113
464,-0.13897,-1.4541,-0.49612,-0.045574,-0.46389,0.10834,0.053743
465,-0.19817,-1.834,-0.49875,-0.035708,-0.4902,0.11524,0.050126
466,-0.25046,-2.0724,-0.47047,-0.022883,-0.456,0.11557,0.044206
467,-0.28269,-2.1763,-0.41292,-0.0090702,-0.36622,0.10998,0.04322
468,-0.2919,-2.1793,-0.33498,0.014608,-0.23533,0.10143,0.047495
469,-0.28762,-2.1303,-0.25473,0.059992,-0.091616,0.091563,0.054072
470,-0.27611,-2.0638,-0.18271,0.13234,0.042562,0.081368,0.059992
471,-0.26032,-1.9803,-0.12483,0.22344,0.1626,0.074133,0.063281
472,-0.2452,-1.8593,-0.080763,0.30993,0.26882,0.070845,0.062623
473,-0.23632,-1.6791,-0.050507,0.3711,0.354,0.070516,0.06361
474,-0.24322,-1.4393,-0.038997,0.39149,0.39445,0.0692,0.064596
475,-0.26756,-1.1555,-0.045903,0.3711,0.36321,0.06624,0.059992
476,-0.29716,-0.8513,-0.065964,0.31585,0.25172,0.06065,0.04618
477,-0.3113,-0.55367,-0.088327,0.24087,0.082355,0.052428,0.024474
478,-0.29913,-0.28565,-0.10641,0.16918,-0.083394,0.043877,0.0021113
479,-0.26789,-0.069253,-0.12023,0.12149,-0.17318,0.043877,-0.014332
480,-0.22185,0.090248,-0.12549,0.10077,-0.13667,0.055388,-0.020252
481,-0.17054,0.1991,-0.12582,0.094852,0.038616,0.076106,-0.011043
482,-0.12483,0.26553,-0.12154,0.089919,0.32966,0.098798,0.0086887
483,-0.096549,0.29743,-0.11497,0.079066,0.67037,0.12083,0.030065
484,-0.08471,0.30105,-0.10872,0.058676,0.9624,0.13432,0.045851
485,-0.080763,0.28231,-0.10148,0.025132,1.1186,0.13695,0.056046
486,-0.070897,0.25369,-0.097864,-0.022225,1.1061,0.13201,0.061307
487,-0.04393,0.22179,-0.10313,-0.081421,0.95681,0.12544,0.060979
488,0.0060577,0.18529,-0.11661,-0.14522,0.73154,0.12083,0.05769
489,0.076435,0.13859,-0.13503,-0.20244,0.48982,0.11557,0.055717
490,0.15602,0.079395,-0.1518,-0.24454,0.26948,0.10866,0.059005
491,0.23495,0.014608,-0.16035,-0.26131,0.093536,0.10143,0.068543
492,0.29974,-0.044917,-0.15443,-0.2498,-0.027487,0.09551,0.081697
493,0.3369,-0.088985,-0.13634,-0.21264,-0.082079,0.087946,0.09255
494,0.3346,-0.11365,-0.11102,-0.15772,-0.062676,0.078409,0.095181
495,0.28757,-0.11233,-0.083065,-0.094576,0.030394,0.070516,0.090577
496,0.20897,-0.077146,-0.04985,-0.035051,0.16589,0.064596,0.083013
497,0.11952,-0.007097,-0.0077547,0.013951,0.29217,0.058019,0.071502
498,0.040589,0.086301,0.037629,0.050126,0.36025,0.048153,0.057032
499,-0.019594,0.18595,0.075778,0.067556,0.35433,0.033354,0.04322
500,-0.060373,0.27343,0.096167,0.061636,0.28592,0.015924,0.034998
501,-0.089643,0.34315,0.098798,0.0373,0.17838,-0.0031506,0.030065
502,-0.11858,0.3905,0.091563,0.0086887,0.052757,-0.021896,0.024474
503,-0.14917,0.41254,0.077093,-0.013674,-0.074515,-0.034064,0.018884
504,-0.17613,0.40925,0.053415,-0.025185,-0.18765,-0.035708,0.015924
505,-0.19192,0.38491,0.024474,-0.028802,-0.27644,-0.028473,0.015924
506,-0.18995,0.34907,-0.0047949,-0.03538,-0.33268,-0.018278,0.018884
507,-0.16627,0.31486,-0.026829,-0.047877,-0.35142,-0.011701,0.025461
508,-0.12746,0.29349,-0.043601,-0.063004,-0.33629,-0.011701,0.034998
509,-0.082079,0.2902,-0.059058,-0.075501,-0.30045,-0.017621,0.043549
510,-0.039326,0.30862,-0.070568,-0.079448,-0.25375,-0.025514,0.050126
511,-0.004466,0.35038,-0.070897,-0.075173,-0.20409,-0.033406,0.05473
512,0.024803,0.40793,-0.0584,-0.065635,-0.15246,-0.036037,0.051113
513,0.053415,0.46318,-0.041957,-0.054454,-0.10378,-0.036695,0.036642
514,0.091892,0.50396,-0.033078,-0.045246,-0.06728,-0.035708,0.013293
515,0.15701,0.53356,-0.035051,-0.039326,-0.047219,-0.03538,-0.0093991
516,0.26981,0.56382,-0.041299,-0.031104,-0.039655,-0.034064,-0.018278
517,0.43753,0.59703,-0.041957,-0.013017,-0.035051,-0.029789,-0.0097279
518,0.63551,0.62959,-0.034722,0.012635,-0.028144,-0.020581,0.01132
519,0.81672,0.64209,-0.020581,0.039602,-0.017292,-0.0054526,0.035656
520,0.93675,0.61644,-0.0067681,0.061636,-0.00051963,0.010991,0.053743
521,0.96799,0.54573,0.00046697,0.077751,0.024474,0.023817,0.061307
522,0.90551,0.43786,0.0057288,0.085972,0.062294,0.033354,0.063938
523,0.75982,0.30335,0.0054,0.07808,0.10866,0.036971,0.063938
524,0.5648,0.14056,-0.0041372,0.052757,0.1524,0.032696,0.057361
525,0.36979,-0.054125,-0.019265,0.01132,0.1843,0.01987,0.046508
526,0.20732,-0.26789,-0.031762,-0.036695,0.19351,0.0030979,0.036971
527,0.08663,-0.46324,-0.037353,-0.081421,0.18167,-0.010057,0.034669
528,0.0024402,-0.57176,-0.033735,-0.10773,0.15931,-0.01795,0.038287
529,-0.04985,-0.51191,-0.022554,-0.11135,0.13201,-0.019594,0.04322
530,-0.079119,-0.25177,-0.0064392,-0.093589,0.10077,-0.012688,0.043877
531,-0.088985,0.15964,0.01132,-0.06728,0.059334,0.0001381,0.039273
532,-0.085696,0.62926,0.028092,-0.042286,0.0063866,0.012635,0.030065
533,-0.073199,1.0571,0.041575,-0.020909,-0.05544,0.021514,0.016581
534,-0.05544,1.3718,0.050455,0.0054,-0.12648,0.025132,0.0057288
535,-0.034722,1.534,0.055059,0.037629,-0.20277,0.023817,0.0017824
536,-0.017621,1.5386,0.056374,0.075778,-0.2794,0.020199,0.00046697
537,-0.014332,1.4044,0.062294,0.11228,-0.34649,0.015266,0.0017824
538,-0.038339,1.1627,0.077751,0.13366,-0.39253,0.0073732,0.0021113
539,-0.10378,0.84138,0.10636,0.13169,-0.40174,-0.0024928,-0.0031506
540,-0.20277,0.46154,0.14155,0.10702,-0.3557,-0.010715,-0.018278
541,-0.31031,0.044864,0.17608,0.071173,-0.23796,-0.016305,-0.040313
542,-0.39121,-0.37444,0.20042,0.038944,-0.065307,-0.015648,-0.058071
543,-0.42772,-0.75757,0.20568,0.015266,0.11886,-0.0074258,-0.063991
544,-0.42575,-1.0743,0.18792,0.0034268,0.27869,0.0047422,-0.059716
545,-0.40503,-1.3229,0.15109,0.0017824,0.39577,0.019541,-0.052481
546,-0.38201,-1.5199,0.09551,0.0077021,0.46516,0.0373,-0.043601
547,-0.36359,-1.681,0.023817,0.01691,0.48489,0.055388,-0.034064
548,-0.33925,-1.7968,-0.063662,0.02875,0.45003,0.070187,-0.028144
549,-0.29683,-1.8317,-0.15377,0.04322,0.36551,0.07808,-0.021567
550,-0.22612,-1.7498,-0.22941,0.056046,0.24876,0.077422,-0.010386
551,-0.12549,-1.5311,-0.27447,0.062623,0.12741,0.068543,0.0017824
552,0.010991,-1.1894,-0.27808,0.055059,0.020857,0.055388,0.01132
553,0.18825,-0.77862,-0.24322,0.03434,-0.068266,0.044206,0.017239
554,0.39905,-0.37839,-0.18271,0.0063866,-0.14423,0.03434,0.020528
555,0.61545,-0.055769,-0.11431,-0.019923,-0.21231,0.020857,0.022172
556,0.79205,0.16063,-0.055112,-0.03242,-0.27118,0.0086887,0.025132
557,0.89137,0.27803,-0.007097,-0.030118,-0.32149,0.0014536,0.033025
558,0.89795,0.32835,0.031709,-0.020581,-0.35701,0.0017824,0.047495
559,0.81935,0.34348,0.062623,-0.010715,-0.358,0.0044134,0.0692
560,0.67991,0.34479,0.089919,-0.0038083,-0.30439,0.0040845,0.091563
561,0.50955,0.34282,0.11787,-0.00019077,-0.20343,0.0001381,0.10965
562,0.34084,0.34216,0.14648,-0.0024928,-0.078132,-0.0024928,0.11458
563,0.19516,0.34019,0.17641,-0.0054526,0.042891,-0.0051238,0.10834
564,0.085972,0.33394,0.20272,-0.0041372,0.14188,-0.0067681,0.096825
565,0.017568,0.32374,0.21752,0.0034268,0.21193,-0.0024928,0.085644
566,-0.016634,0.31059,0.21883,0.018226,0.25698,0.010333,0.076764
567,-0.031762,0.29546,0.20996,0.037629,0.28099,0.027434,0.067227
568,-0.038668,0.28428,0.1922,0.056046,0.27968,0.050455,0.059992
569,-0.038011,0.28198,0.1695,0.070516,0.23528,0.076106,0.05769
570,-0.034064,0.29415,0.14517,0.070516,0.13892,0.097483,0.063281
571,-0.031433,0.31684,0.1182,0.061636,0.0070443,0.1113,0.074791
572,-0.037682,0.33723,0.086959,0.055388,-0.13371,0.11721,0.088275
573,-0.053796,0.34479,0.063281,0.062623,-0.2521,0.11491,0.096496
574,-0.073528,0.33591,0.075449,0.084328,-0.32939,0.10702,0.097812
575,-0.091945,0.31519,0.14714,0.11491,-0.35899,0.09551,0.090905
576,-0.10543,0.29053,0.27014,0.14385,-0.34188,0.082026,0.077093
577,-0.11299,0.26718,0.39741,0.16523,-0.28269,0.065583,0.063281
578,-0.10576,0.25238,0.48193,0.1751,-0.18995,0.048153,0.055717
579,-0.074515,0.25172,0.4964,0.17181,-0.076159,0.036971,0.055059
580,-0.016305,0.26422,0.44378,0.16063,0.047495,0.033025,0.057361
581,0.053743,0.27836,0.34249,0.14484,0.17411,0.031709,0.060979
582,0.10965,0.28395,0.22344,0.1307,0.30138,0.031381,0.064267
583,0.12609,0.27047,0.10932,0.12609,0.42536,0.031052,0.067556
584,0.094523,0.24186,0.018884,0.12774,0.53093,0.031052,0.065912
585,0.029078,0.20897,-0.039655,0.133,0.60723,0.033025,0.056046
586,-0.045246,0.182,-0.063991,0.13497,0.65195,0.035985,0.037629
587,-0.10872,0.16885,-0.060045,0.13563,0.66544,0.038944,0.016253
588,-0.14555,0.16589,-0.037682,0.13563,0.65064,0.040589,-0.002164
589,-0.15607,0.17674,-0.0047949,0.13991,0.61413,0.039931,-0.013017
590,-0.14851,0.22212,0.028092,0.1478,0.56217,0.04026,-0.013345
591,-0.13075,0.3221,0.050455,0.16063,0.4987,0.04322,-0.0008485
592,-0.11365,0.47469,0.050126,0.17674,0.42471,0.047495,0.021186
593,-0.10017,0.6559,0.026776,0.19647,0.33591,0.049797,0.043877
594,-0.088985,0.82494,-0.014661,0.21883,0.23561,0.05177,0.060321
595,-0.077146,0.94366,-0.058729,0.23824,0.13826,0.052428,0.071173
596,-0.067609,0.98641,-0.095233,0.24383,0.060321,0.047495,0.073147
597,-0.063991,0.943,-0.12023,0.2287,0.010333,0.037629,0.068214
598,-0.070568,0.82527,-0.12944,0.1968,-0.019923,0.025132,0.058348
599,-0.07879,0.65689,-0.12154,0.15536,-0.04393,0.018884,0.045522
600,-0.083723,0.46055,-0.095562,0.1136,-0.070897,0.020528,0.031709
601,-0.083394,0.24054,-0.054454,0.078737,-0.10313,0.030394,0.023817
602,-0.071555,0.0001381,-0.010386,0.050455,-0.13733,0.042562,0.025461
603,-0.044917,-0.25868,0.028421,0.030065,-0.16824,0.049468,0.032038
604,-0.0067681,-0.53953,0.060979,0.017239,-0.19521,0.04881,0.03434
605,0.03434,-0.83288,0.11261,0.0090175,-0.21593,0.045522,0.030723
606,0.070516,-1.1085,0.20897,0.013293,-0.22645,0.041247,0.026447
607,0.099785,-1.3282,0.32966,0.029078,-0.22448,0.038944,0.024474
608,0.12248,-1.4558,0.42207,0.051441,-0.21099,0.04026,0.028421
609,0.13958,-1.4633,0.45003,0.073804,-0.19389,0.042891,0.032038
610,0.14352,-1.3443,0.40432,0.09551,-0.18469,0.045851,0.027763
611,0.13037,-1.1127,0.305,0.11721,-0.19455,0.04881,0.013951
612,0.10472,-0.80986,0.19384,0.1376,-0.23467,0.050455,-0.0054526
613,0.077422,-0.49547,0.10373,0.15471,-0.3113,0.050126,-0.020909
614,0.057032,-0.22645,0.053415,0.17016,-0.40568,0.044864,-0.028144
615,0.044206,-0.038011,0.044206,0.18167,-0.48593,0.038287,-0.028473
616,0.037958,0.068871,0.062294,0.182,-0.52441,0.031381,-0.029789
617,0.033683,0.11952,0.078737,0.16918,-0.50007,0.029078,-0.034722
618,0.02579,0.14287,0.081039,0.14352,-0.41358,0.030065,-0.04097
619,0.014279,0.15964,0.071831,0.10932,-0.29058,0.032696,-0.045574
620,0.0030979,0.17806,0.059005,0.068543,-0.17054,0.034998,-0.045903
621,-0.0097279,0.20108,0.053086,0.028092,-0.10082,0.031709,-0.039655
622,-0.025842,0.21752,0.054072,-0.0080836,-0.095891,0.019541,-0.034722
623,-0.049521,0.21883,0.05473,-0.039326,-0.14687,0.0021113,-0.034064
624,-0.081421,0.20469,0.050455,-0.065307,-0.22546,-0.014332,-0.031433
625,-0.11431,0.17937,0.0373,-0.087341,-0.29946,-0.018936,-0.022883
626,-0.13536,0.14583,0.018884,-0.10115,-0.34583,-0.010386,-0.0061104
627,-0.14259,0.10965,0.0044134,-0.10313,-0.35701,0.0070443,0.015266
628,-0.1416,0.079066,0.0073732,-0.094905,-0.33662,0.024803,0.037958
629,-0.1324,0.069529,0.035656,-0.083394,-0.2919,0.039931,0.05769
630,-0.11825,0.09551,0.09551,-0.07287,-0.22777,0.05177,0.07512
631,-0.10181,0.15076,0.17773,-0.06728,-0.14752,0.059992,0.087617
632,-0.086354,0.20996,0.26027,-0.065635,-0.059387,0.066569,0.096825
633,-0.07024,0.24745,0.31947,-0.066293,0.023817,0.07216,0.1011
634,-0.049521,0.25008,0.3438,-0.065307,0.092221,0.075778,0.10406
635,-0.029131,0.2287,0.33295,-0.061031,0.14089,0.080053,0.10406
636,-0.012359,0.21324,0.29349,-0.04985,0.1797,0.086959,0.097483
637,0.002769,0.23363,0.24383,-0.032749,0.22508,0.095839,0.082684
638,0.017239,0.30237,0.19845,-0.0097279,0.29217,0.1034,0.067556
639,0.027763,0.40037,0.15931,0.014937,0.37702,0.10702,0.053086
640,0.034669,0.49245,0.1113,0.04026,0.4645,0.10505,0.039931
641,0.042233,0.54343,0.035985,0.071173,0.53521,0.097483,0.030065
642,0.048482,0.53849,-0.083723,0.11853,0.58092,0.088603,0.025461
643,0.057361,0.47897,-0.25441,0.18266,0.60953,0.080382,0.02875
644,0.066569,0.38426,-0.46258,0.25172,0.63156,0.075449,0.039602
645,0.071173,0.2708,-0.67963,0.30697,0.65491,0.073147,0.055717
646,0.070516,0.14385,-0.87366,0.33098,0.67267,0.072818,0.074133
647,0.069529,0.0040845,-1.0121,0.31388,0.67333,0.073147,0.088603
648,0.071502,-0.14226,-1.0736,0.2606,0.64636,0.069858,0.093865
649,0.078409,-0.2692,-1.0466,0.18693,0.58684,0.061307,0.092221
650,0.084328,-0.3307,-0.93319,0.11162,0.4987,0.050784,0.086301
651,0.087617,-0.30933,-0.74902,0.042891,0.3882,0.042562,0.076764
652,0.093536,-0.22185,-0.51651,-0.014003,0.27244,0.039273,0.065254
653,0.10274,-0.1074,-0.25342,-0.0584,0.16918,0.03434,0.052757
654,0.11195,-0.0034794,0.027434,-0.089314,0.085315,0.025132,0.045522
655,0.11656,0.075778,0.30862,-0.10674,0.024474,0.010662,0.044206
656,0.10373,0.13695,0.56546,-0.11727,-0.013345,-0.0061104,0.045193
657,0.067885,0.19318,0.77265,-0.12417,-0.038997,-0.020909,0.050784
658,0.015266,0.24087,0.91307,-0.12319,-0.062676,-0.030118,0.059663
659,-0.044917,0.24876,0.97523,-0.11562,-0.10181,-0.036366,0.067227
660,-0.097207,0.1843,0.95155,-0.10806,-0.16134,-0.038997,0.067227
661,-0.12812,0.041904,0.84796,-0.10707,-0.2373,-0.039326,0.060979
662,-0.13404,-0.15311,0.69339,-0.10839,-0.3113,-0.038997,0.050784
663,-0.11661,-0.36392,0.52764,-0.10346,-0.3705,-0.034722,0.038287
664,-0.084052,-0.56946,0.37899,-0.088656,-0.41489,-0.024198,0.028421
665,-0.04393,-0.75527,0.25764,-0.060045,-0.45633,-0.0090702,0.028092
666,-0.0011774,-0.90688,0.15701,-0.01499,-0.50665,0.0050711,0.036642
667,0.04322,-1.0013,0.062623,0.04618,-0.55927,0.013951,0.04881
668,0.092879,-1.0052,-0.030118,0.11458,-0.59445,0.016253,0.056703
669,0.15471,-0.89471,-0.11628,0.17345,-0.5938,0.018555,0.058676
670,0.23035,-0.6724,-0.18403,0.20371,-0.54512,0.017239,0.058019
671,0.3096,-0.37872,-0.23698,0.19417,-0.44679,0.013293,0.055717
672,0.37603,-0.077146,-0.28532,0.14846,-0.30735,0.0093464,0.052757
673,0.41287,0.1922,-0.33103,0.080053,-0.14029,0.0057288,0.049139
674,0.41681,0.43359,-0.37247,0.0080309,0.042891,0.0014536,0.044206
675,0.39609,0.68254,-0.40634,-0.054783,0.22936,-0.0051238,0.039602
676,0.35959,0.96536,-0.43495,-0.10148,0.41024,-0.012688,0.036971
677,0.3198,1.2729,-0.46455,-0.13272,0.5796,-0.019265,0.036314
678,0.28099,1.5702,-0.49251,-0.14062,0.72496,-0.02354,0.036314
679,0.2389,1.8441,-0.51618,-0.12384,0.8256,-0.0265,0.040918
680,0.19285,2.1213,-0.52473,-0.089972,0.8598,-0.023869,0.050126
681,0.1501,2.4209,-0.49875,-0.054783,0.82757,-0.010057,0.068543
682,0.1182,2.7186,-0.41884,-0.025842,0.74469,0.013622,0.094194
683,0.10538,2.9471,-0.28466,-0.0024928,0.624,0.037629,0.11754
684,0.10505,3.0178,-0.12615,0.014608,0.47963,0.055388,0.12379
685,0.10603,2.8508,0.010004,0.026447,0.32572,0.063938,0.10932
686,0.10011,2.4084,0.084328,0.033683,0.1797,0.065912,0.082026
687,0.078737,1.704,0.08663,0.039931,0.049468,0.061965,0.05177
688,0.036642,0.77166,0.030065,0.039931,-0.062018,0.050784,0.027763
689,-0.020581,-0.33399,-0.054783,0.033354,-0.1643,0.034998,0.011648
690,-0.079448,-1.5067,-0.12944,0.017239,-0.26657,0.018884,0.0047422
691,-0.13042,-2.6292,-0.16166,-0.0051238,-0.36819,0.0086887,0.0001381
692,-0.16693,-3.5631,-0.12976,-0.032749,-0.45863,0.0057288,-0.002164
693,-0.18896,-4.1946,-0.031762,-0.059058,-0.53065,0.010333,0.0030979
694,-0.19554,-4.4889,0.10801,-0.07879,-0.57735,0.017568,0.015266
695,-0.18534,-4.4905,0.23955,-0.087998,-0.59248,0.026119,0.02875
696,-0.16199,-4.2843,0.30796,-0.088327,-0.55861,0.034998,0.034998
697,-0.12253,-3.9357,0.27803,-0.077803,-0.45469,0.044864,0.030723
698,-0.068924,-3.4809,0.16063,-0.057414,-0.28137,0.051441,0.020528
699,-0.0090702,-2.9284,0.0077021,-0.035051,-0.069911,0.049468,0.0067154
700,0.045851,-2.2822,-0.11825,-0.01499,0.12445,0.040589,-0.014003
701,0.087617,-1.5738,-0.17054,0.0037556,0.24975,0.032367,-0.04393
702,0.11097,-0.87136,-0.14456,0.023159,0.28691,0.029407,-0.074515
703,0.1182,-0.2623,-0.068266,0.042233,0.24547,0.030394,-0.092931
704,0.10932,0.18957,0.017239,0.058019,0.15997,0.033354,-0.090958
705,0.085644,0.46647,0.083013,0.061307,0.067885,0.033025,-0.078132
706,0.050455,0.59605,0.11919,0.048153,-0.0061104,0.026776,-0.06432
707,0.0054,0.6217,0.12281,0.019212,-0.0584,0.014937,-0.055112
708,-0.052152,0.59835,0.098469,-0.015319,-0.093589,-0.00051963,-0.057414
709,-0.12154,0.58684,0.056703,-0.047548,-0.11299,-0.020581,-0.07287
710,-0.20212,0.61841,0.0021113,-0.074186,-0.11102,-0.04097,-0.097207
711,-0.28466,0.69471,-0.063004,-0.091945,-0.08471,-0.057414,-0.1199
712,-0.36227,0.80586,-0.14259,-0.098193,-0.034064,-0.066293,-0.13305
713,-0.43528,0.93379,-0.2452,-0.091287,0.033354,-0.065635,-0.13371
714,-0.50369,1.0502,-0.38266,-0.07024,0.11261,-0.054454,-0.12483
715,-0.56288,1.1318,-0.5392,-0.04097,0.19746,-0.038011,-0.11332
716,-0.60235,1.1726,-0.66713,-0.010057,0.28461,-0.023211,-0.10115
717,-0.61517,1.1775,-0.70331,0.01987,0.36288,-0.013674,-0.087998
718,-0.59577,1.1449,-0.61123,0.050126,0.41944,-0.0047949,-0.07024
719,-0.54381,1.065,-0.4116,0.076106,0.44674,0.0080309,-0.046232
720,-0.46389,0.93774,-0.17383,0.097483,0.44345,0.014608,-0.018278
721,-0.36556,0.78153,0.024803,0.10307,0.41484,0.012635,0.0047422
722,-0.2521,0.61972,0.14451,0.08959,0.36683,0.0050711,0.018226
723,-0.11694,0.46384,0.2264,0.060979,0.30401,-0.0034794,0.018555
724,0.038944,0.31519,0.38031,0.023817,0.22739,-0.011372,0.0047422
725,0.21127,0.17608,0.67695,-0.015976,0.13432,-0.021567,-0.016963
726,0.39281,0.07216,1.0469,-0.04985,0.022172,-0.030447,-0.039326
727,0.58092,0.040589,1.3432,-0.076159,-0.10707,-0.034393,-0.056098
728,0.77133,0.096496,1.4567,-0.088656,-0.24125,-0.033735,-0.062018
729,0.93675,0.21949,1.3672,-0.079777,-0.36063,-0.029131,-0.05544
730,1.042,0.3711,1.1344,-0.045903,-0.44252,-0.023211,-0.038668
731,1.066,0.51021,0.84237,0.0063866,-0.47014,-0.017621,-0.01499
732,1.0114,0.61874,0.55428,0.06065,-0.4435,-0.011701,0.011648
733,0.89696,0.69536,0.29447,0.097483,-0.37773,-0.0057815,0.0373
734,0.74404,0.74897,0.072818,0.11064,-0.30275,0.00079584,0.055388
735,0.57894,0.7881,-0.089972,0.10209,-0.24421,0.0057288,0.062952
736,0.42306,0.81343,-0.16397,0.08367,-0.21198,0.0073732,0.063938
737,0.29612,0.82823,-0.13963,0.06624,-0.1906,0.010004,0.064267
738,0.20469,0.83546,-0.047877,0.057032,-0.14917,0.017568,0.067227
739,0.14681,0.82921,0.063281,0.048482,-0.068266,0.033025,0.077093
740,0.10603,0.79863,0.15273,0.025461,0.057361,0.05177,0.091892
741,0.066569,0.73779,0.18891,-0.01795,0.21686,0.064925,0.10209
742,0.01987,0.64044,0.17312,-0.077146,0.38689,0.067227,0.10669
743,-0.03242,0.50626,0.11985,-0.13832,0.53849,0.062623,0.1034
744,-0.083065,0.34315,0.051441,-0.18271,0.64603,0.060321,0.094852
745,-0.12779,0.16983,-0.011043,-0.20113,0.69109,0.067885,0.08367
746,-0.1564,0.011977,-0.054454,-0.18567,0.66116,0.086301,0.074133
747,-0.15706,-0.11924,-0.07024,-0.13897,0.55921,0.1113,0.065583
748,-0.12549,-0.21428,-0.062676,-0.073528,0.41681,0.133,0.056046
749,-0.072542,-0.26789,-0.036366,0.002769,0.28165,0.1432,0.049139
750,-0.016963,-0.26888,0.013622,0.08367,0.19121,0.14616,0.048482
751,0.024803,-0.19554,0.098141,0.1603,0.15471,0.14583,0.057032
752,0.044535,-0.027487,0.21719,0.22706,0.14517,0.14517,0.07512
753,0.040589,0.231,0.34676,0.28099,0.11787,0.13958,0.097483
754,0.0040845,0.53586,0.44871,0.31914,0.043877,0.1307,0.11689
755,-0.071884,0.82724,0.49245,0.33854,-0.069911,0.12182,0.12708
756,-0.17482,1.0565,0.4622,0.33953,-0.18732,0.11426,0.12971
757,-0.27841,1.1939,0.36617,0.32802,-0.27578,0.10209,0.12971
758,-0.35997,1.2288,0.21259,0.30862,-0.31031,0.087288,0.13596
759,-0.41522,1.1574,-0.00051963,0.28296,-0.28795,0.073804,0.14813
760,-0.45173,0.97819,-0.24651,0.25139,-0.2202,0.064925,0.16622
761,-0.4731,0.69767,-0.46192,0.21292,-0.13207,0.059992,0.18562
762,-0.4856,0.33098,-0.58196,0.16918,-0.048534,0.056374,0.20601
763,-0.48987,-0.080434,-0.58557,0.12313,0.0073732,0.051441,0.22245
764,-0.48659,-0.48231,-0.50073,0.078737,0.024145,0.045522,0.22673
765,-0.47212,-0.83223,-0.37576,0.039602,0.010333,0.036314,0.21949
766,-0.44318,-1.1147,-0.24881,0.012964,-0.014332,0.029407,0.20765
767,-0.3876,-1.3347,-0.13568,0.002769,-0.036037,0.025132,0.19351
768,-0.29124,-1.488,-0.038997,0.0024402,-0.047877,0.020528,0.17477
769,-0.14785,-1.5495,0.041247,0.0096753,-0.054454,0.015266,0.14912
770,0.036642,-1.4979,0.097812,0.022501,-0.067937,0.014937,0.12412
771,0.23265,-1.3367,0.12577,0.041247,-0.10247,0.019212,0.10735
772,0.40004,-1.1035,0.11557,0.0692,-0.16528,0.030723,0.10274
773,0.50561,-0.85064,0.068871,0.1011,-0.24849,0.045193,0.10636
774,0.53915,-0.61616,-0.0047949,0.13366,-0.33564,0.062294,0.11426
775,0.51317,-0.41456,-0.088327,0.16326,-0.40371,0.080382,0.12017
776,0.45134,-0.24783,-0.16561,0.18891,-0.43134,0.094852,0.1205
777,0.37472,-0.11793,-0.22349,0.2116,-0.40207,0.10406,0.11426
778,0.29612,-0.0265,-0.25835,0.23429,-0.31821,0.10603,0.1057
779,0.22081,0.030065,-0.27414,0.26027,-0.20343,0.10077,0.095181
780,0.14714,0.055388,-0.27545,0.28592,-0.086354,0.088932,0.083013
781,0.075449,0.063938,-0.26032,0.3096,0.01691,0.071831,0.069858
782,0.0070443,0.061307,-0.22678,0.33032,0.10373,0.055717,0.062623
783,-0.051494,0.056703,-0.17646,0.34117,0.18792,0.043877,0.062623
784,-0.090958,0.05473,-0.11825,0.33854,0.28559,0.039931,0.06065
785,-0.10641,0.056703,-0.061031,0.32111,0.40464,0.042233,0.055388
786,-0.098851,0.061307,-0.013674,0.28494,0.53159,0.048482,0.04618
787,-0.077146,0.075778,0.02283,0.23002,0.63419,0.056046,0.031052
788,-0.050179,0.098798,0.050126,0.15339,0.67662,0.060979,0.011977
789,-0.020252,0.12971,0.077422,0.057361,0.63485,0.060321,-0.0038083
790,0.012306,0.16128,0.11623,-0.045574,0.5112,0.053415,-0.0090702
791,0.047495,0.18661,0.16918,-0.14226,0.33164,0.042233,-0.0057815
792,0.078409,0.2014,0.22837,-0.21823,0.14484,0.026119,-0.0024928
793,0.096825,0.20798,0.28264,-0.26032,-0.0011774,0.0096753,-0.0047949
794,0.1011,0.20634,0.32177,-0.25737,-0.077475,-0.002164,-0.013017
795,0.089919,0.19647,0.34479,-0.21395,-0.083723,-0.0057815,-0.025514
796,0.063281,0.1751,0.34512,-0.14654,-0.038668,-0.0067681,-0.037353
797,0.01691,0.14879,0.31815,-0.069582,0.031381,-0.0093991,-0.044259
798,-0.055769,0.12116,0.26652,0.0090175,0.10242,-0.015319,-0.045574
799,-0.15936,0.093865,0.1968,0.080053,0.15931,-0.023869,-0.042286
800,-0.28499,0.070845,0.12445,0.13563,0.19779,-0.030775,-0.041957
801,-0.41193,0.052428,0.058676,0.16654,0.21949,-0.032749,-0.049521
802,-0.52079,0.041575,0.0047422,0.16983,0.23363,-0.027487,-0.062676
803,-0.59544,0.041904,-0.034064,0.15043,0.25172,-0.016305,-0.071884
804,-0.63129,0.047495,-0.0584,0.11919,0.27902,0.0014536,-0.07287
805,-0.6349,0.047824,-0.072542,0.08367,0.29776,0.024803,-0.063333
806,-0.62076,0.034011,-0.086354,0.050126,0.2879,0.041575,-0.047219
807,-0.603,0.0054,-0.10247,0.027105,0.23725,0.047495,-0.032749
808,-0.57768,-0.030118,-0.11924,0.017897,0.14747,0.044206,-0.02946
809,-0.53855,-0.06136,-0.12976,0.018555,0.033354,0.040589,-0.035708
810,-0.4754,-0.076817,-0.12812,0.017568,-0.079448,0.034669,-0.048205
811,-0.37444,-0.074515,-0.11266,0.0037556,-0.16397,0.025461,-0.06136
812,-0.22546,-0.047877,-0.090629,-0.027816,-0.2156,0.0083598,-0.070568
813,-0.032749,0.0073732,-0.069253,-0.073528,-0.24717,-0.015319,-0.076817
814,0.19187,0.093208,-0.052152,-0.12352,-0.27216,-0.044588,-0.083394
815,0.4395,0.20042,-0.040313,-0.16594,-0.29814,-0.070568,-0.087012
816,0.69207,0.305,-0.037353,-0.19028,-0.33169,-0.083065,-0.089972
817,0.91406,0.37834,-0.041628,-0.19126,-0.37444,-0.08175,-0.087669
818,1.0558,0.40596,-0.047548,-0.17482,-0.42081,-0.068924,-0.079777
819,1.0834,0.39248,-0.057085,-0.15476,-0.45995,-0.050836,-0.06728
820,0.99726,0.35268,-0.069253,-0.13799,-0.48659,-0.035708,-0.051165
821,0.83579,0.29513,-0.085039,-0.12516,-0.50566,-0.030118,-0.035708
822,0.6536,0.22147,-0.10148,-0.11595,-0.52704,-0.033406,-0.02354
823,0.50002,0.13991,-0.1074,-0.10674,-0.55335,-0.035708,-0.012688
824,0.39971,0.081697,-0.09622,-0.096549,-0.57933,-0.034064,-0.0028217
825,0.3586,0.051113,-0.07287,-0.080434,-0.58788,-0.025185,0.012306
826,0.36683,0.0044134,-0.050507,-0.054125,-0.55927,-0.015319,0.030065
827,0.4178,-0.11102,-0.040641,-0.018278,-0.47804,-0.0015062,0.048482
828,0.50166,-0.30505,-0.037353,0.022172,-0.33794,0.020199,0.059334
829,0.59802,-0.53822,-0.016963,0.056046,-0.15279,0.04881,0.064925
830,0.6776,-0.73751,0.031052,0.082355,0.041575,0.082355,0.06624
831,0.70819,-0.83617,0.086301,0.10505,0.19581,0.11228,0.0692
832,0.66642,-0.81874,0.11426,0.1205,0.26652,0.13136,0.070516
833,0.55658,-0.70693,0.09255,0.12511,0.24646,0.13333,0.064267
834,0.40629,-0.54874,0.026447,0.11656,0.16687,0.11985,0.050784
835,0.25271,-0.39187,-0.058071,0.099456,0.074791,0.097812,0.035656
836,0.12215,-0.26559,-0.13075,0.079395,0.010004,0.073804,0.027434
837,0.028421,-0.17416,-0.16199,0.066569,-0.010057,0.053743,0.029407
838,-0.030118,-0.10872,-0.14489,0.065583,0.0073732,0.040918,0.037958
839,-0.066951,-0.056427,-0.087012,0.081368,0.043549,0.038944,0.049139
840,-0.0903,-0.0057815,-0.010386,0.11097,0.075449,0.045522,0.060979
841,-0.10444,0.048482,0.068214,0.14583,0.089919,0.059992,0.068871
842,-0.11168,0.10209,0.13728,0.18036,0.1011,0.077751,0.074791
843,-0.1097,0.14484,0.19055,0.21094,0.13497,0.095181,0.075778
844,-0.09326,0.17477,0.22048,0.23758,0.21061,0.11031,0.074791
845,-0.060373,0.19943,0.23396,0.25665,0.32736,0.12379,0.076764
846,-0.018278,0.22804,0.25205,0.27178,0.46187,0.13826,0.085644
847,0.019541,0.25665,0.28231,0.28592,0.57631,0.15207,0.10406
848,0.042233,0.27968,0.29941,0.29908,0.63617,0.16326,0.12544
849,0.047824,0.2925,0.2606,0.29842,0.62301,0.1649,0.14221
850,0.039602,0.2925,0.1501,0.27441,0.54441,0.15767,0.1432
851,0.014279,0.27573,-0.014003,0.22574,0.42898,0.14122,0.1284
852,-0.026829,0.24087,-0.19028,0.15372,0.30796,0.11952,0.10209
853,-0.081421,0.18858,-0.33794,0.057032,0.21555,0.093865,0.073147
854,-0.14193,0.12873,-0.43166,-0.051494,0.17378,0.072489,0.052757
855,-0.20047,0.069529,-0.46652,-0.15279,0.18134,0.060321,0.045193
856,-0.24783,0.020528,-0.44975,-0.22941,0.21883,0.058019,0.045193
857,-0.27512,-0.0074258,-0.38924,-0.26789,0.25665,0.056046,0.042233
858,-0.28269,-0.0041372,-0.2794,-0.26657,0.26553,0.049468,0.03434
859,-0.27611,0.033683,-0.10148,-0.22777,0.23857,0.037958,0.020857
860,-0.26164,0.10406,0.14451,-0.16265,0.17937,0.01987,0.0096753
861,-0.24684,0.19845,0.42405,-0.083723,0.10899,-0.00051963,0.0050711
862,-0.23829,0.3096,0.67563,-0.0061104,0.050126,-0.018607,0.0080309
863,-0.24224,0.42405,0.84796,0.05769,0.014608,-0.030775,0.011977
864,-0.2498,0.53422,0.91702,0.10274,0.0047422,-0.039655,0.012635
865,-0.25079,0.64768,0.89433,0.12642,0.013951,-0.045903,0.0086887
866,-0.2373,0.77627,0.79863,0.12971,0.023817,-0.048205,0.0037556
867,-0.21231,0.90551,0.65195,0.11787,0.017239,-0.048205,0.00046697
868,-0.18896,1.0045,0.47996,0.10209,-0.01499,-0.048863,-0.0011774
869,-0.17877,1.0505,0.30796,0.090577,-0.074515,-0.056098,-0.00019077
870,-0.17285,1.0535,0.15273,0.08663,-0.14555,-0.070897,0.0014536
871,-0.16134,1.0413,0.017239,0.088275,-0.20442,-0.088656,0.0040845
872,-0.14654,1.0305,-0.099509,0.084986,-0.23303,-0.098851,0.0044134
873,-0.15147,1.0183,-0.19192,0.068871,-0.2281,-0.098522,0.0017824
874,-0.1883,0.98838,-0.24881,0.034998,-0.19192,-0.087012,-0.004466
875,-0.24783,0.89663,-0.26427,-0.011043,-0.13996,-0.06728,-0.0077547
876,-0.3136,0.70391,-0.24059,-0.0584,-0.095891,-0.042286,-0.0051238
877,-0.36622,0.40234,-0.18929,-0.097864,-0.082736,-0.018607,0.00046697
878,-0.39549,0.029078,-0.1324,-0.12352,-0.10444,-0.0011774,0.0040845
879,-0.39976,-0.35603,-0.089972,-0.13437,-0.14719,0.0096753,0.0060577
880,-0.38497,-0.71087,-0.068266,-0.1347,-0.18008,0.014279,0.0083598
881,-0.35504,-1.0335,-0.062018,-0.13503,-0.17482,0.013293,0.0093464
882,-0.31492,-1.3436,-0.062347,-0.13897,-0.1268,0.0080309,0.0037556
883,-0.26526,-1.633,-0.062018,-0.14654,-0.046232,0.0011247,-0.007097
884,-0.1985,-1.8659,-0.060702,-0.1518,0.050126,-0.00019077,-0.017621
885,-0.11201,-2.0152,-0.063004,-0.15509,0.14648,0.0057288,-0.020581
886,0.0021113,-2.0671,-0.06728,-0.15509,0.22048,0.013951,-0.013674
887,0.1353,-2.0148,-0.071555,-0.15246,0.25402,0.02283,0.0011247
888,0.26981,-1.8662,-0.071884,-0.14489,0.23758,0.030723,0.015266
889,0.37702,-1.6544,-0.064649,-0.12779,0.17674,0.0373,0.024145
890,0.43293,-1.4252,-0.052481,-0.098522,0.090248,0.0373,0.027763
891,0.42832,-1.1992,-0.037682,-0.062676,-0.00051963,0.027434,0.033025
892,0.37636,-0.98975,-0.022225,-0.031433,-0.073199,0.014937,0.04026
893,0.2902,-0.80986,-0.0093991,-0.010715,-0.12089,0.0024402,0.047495
894,0.18989,-0.6816,0.0047422,-0.0008485,-0.14785,-0.0087413,0.052099
895,0.096825,-0.61715,0.020199,0.0070443,-0.16331,-0.017292,0.050784
896,0.022501,-0.60761,0.040589,0.020857,-0.17909,-0.019923,0.047166
897,-0.027816,-0.62076,0.064596,0.044535,-0.19784,-0.022883,0.04618
898,-0.053796,-0.61715,0.088275,0.077422,-0.20968,-0.030118,0.04618
899,-0.063333,-0.55631,0.10538,0.11557,-0.19883,-0.037353,0.042233
900,-0.059716,-0.41785,0.11458,0.15076,-0.14818,-0.039326,0.030394
901,-0.04393,-0.21297,0.11393,0.17411,-0.054783,-0.032749,0.014937
902,-0.023869,0.025461,0.10702,0.18693,0.074462,-0.017292,0.0044134
903,-0.0097279,0.26718,0.09551,0.19088,0.22114,0.002769,0.0017824
904,-0.0011774,0.48752,0.083013,0.19088,0.35959,0.025132,0.0077021
905,0.0096753,0.6605,0.07216,0.19318,0.45924,0.045522,0.01987
906,0.025132,0.76936,0.062623,0.19713,0.49574,0.062952,0.030723
907,0.044206,0.80652,0.055388,0.20338,0.46154,0.073476,0.036971
908,0.062623,0.78712,0.053415,0.21357,0.36584,0.077751,0.036971
909,0.076764,0.73779,0.062952,0.22837,0.23758,0.073804,0.039931
910,0.079395,0.68352,0.087288,0.2412,0.11458,0.068214,0.04618
911,0.062623,0.64242,0.11952,0.24482,0.029736,0.061307,0.055059
912,0.030065,0.61907,0.1478,0.23692,-0.0041372,0.056374,0.058019
913,-0.0047949,0.61446,0.16095,0.21883,0.0001381,0.052428,0.051441
914,-0.028473,0.62564,0.15701,0.19351,0.020199,0.049797,0.035656
915,-0.032091,0.64834,0.13826,0.16391,0.026447,0.049468,0.018884
916,-0.018607,0.6832,0.10603,0.13234,0.0034268,0.051113,0.010662
917,0.0073732,0.72562,0.060321,0.098469,-0.047219,0.052099,0.010333
918,0.04026,0.76377,0.0090175,0.069529,-0.11036,0.052099,0.01691
919,0.073476,0.78153,-0.035051,0.051441,-0.17054,0.052757,0.027105
920,0.10866,0.76706,-0.060045,0.04881,-0.21626,0.055717,0.034998
921,0.14648,0.72595,-0.059058,0.056703,-0.24651,0.058676,0.039931
922,0.19384,0.67465,-0.035708,0.068214,-0.2646,0.064596,0.046508
923,0.25435,0.6388,-0.0034794,0.073476,-0.28006,0.070845,0.053743
924,0.32078,0.6365,0.029407,0.067556,-0.29255,0.072818,0.058019
925,0.37307,0.67366,0.056374,0.050455,-0.29387,0.066898,0.058348
926,0.39281,0.73943,0.068214,0.031381,-0.2794,0.059663,0.059334
927,0.37801,0.8154,0.059005,0.018226,-0.25112,0.055059,0.061965
928,0.33821,0.88874,0.029078,0.012635,-0.22579,0.053415,0.068871
929,0.29382,0.9772,-0.019265,0.0083598,-0.2202,0.052428,0.076764
930,0.26356,1.1196,-0.071226,0.002769,-0.2373,0.052099,0.082026
931,0.24745,1.338,-0.10806,0.0001381,-0.25868,0.053743,0.08367
932,0.23758,1.6435,-0.10773,0.0070443,-0.26032,0.063281,0.079066
933,0.23331,2.0375,-0.048534,0.024145,-0.22645,0.077093,0.070845
934,0.23824,2.4805,0.066569,0.048482,-0.15081,0.093536,0.068214
935,0.24712,2.8863,0.19581,0.074133,-0.028802,0.10998,0.076106
936,0.25534,3.1464,0.28494,0.092879,0.14287,0.12379,0.093208
937,0.256,3.1691,0.2948,0.10044,0.34907,0.13234,0.10834
938,0.2412,2.9096,0.21949,0.094523,0.54672,0.1307,0.10998
939,0.20469,2.3818,0.090577,0.074791,0.69405,0.11491,0.08959
940,0.15076,1.6389,-0.040641,0.045851,0.77791,0.09551,0.055059
941,0.08959,0.74305,-0.13305,0.013293,0.81343,0.081039,0.027105
942,0.034669,-0.24289,-0.17318,-0.015648,0.81935,0.075778,0.017568
943,-0.0024928,-1.2295,-0.18337,-0.038997,0.78909,0.080382,0.024474
944,-0.022225,-2.1332,-0.20672,-0.050836,0.71148,0.086959,0.039273
945,-0.032091,-2.8883,-0.28137,-0.052481,0.59374,0.087288,0.050784
946,-0.042944,-3.4855,-0.39812,-0.04985,0.45792,0.073147,0.052428
947,-0.060045,-3.9479,-0.48922,-0.052152,0.33032,0.04618,0.042891
948,-0.086683,-4.2768,-0.46916,-0.060702,0.22377,0.012964,0.027763
949,-0.12187,-4.4215,-0.31393,-0.069911,0.14418,-0.017292,0.013622
950,-0.15377,-4.2715,-0.086683,-0.069253,0.098469,-0.034722,0.0040845
951,-0.17153,-3.7042,0.10801,-0.056756,0.087617,-0.035051,0.0034268
952,-0.16791,-2.6897,0.19022,-0.033406,0.10406,-0.02354,0.012964
953,-0.14588,-1.3259,0.14912,-0.0087413,0.13596,-0.0084125,0.028092
954,-0.11003,0.17181,0.024803,0.012306,0.17542,0.0044134,0.042562
955,-0.070568,1.5139,-0.11825,0.026119,0.21653,0.016253,0.049139
956,-0.038668,2.5147,-0.21987,0.032696,0.2629,0.031381,0.052099
957,-0.019923,3.1352,-0.23698,0.031709,0.31026,0.049139,0.057032
958,-0.018607,3.4039,-0.14489,0.02579,0.34084,0.0692,0.068871
959,-0.035051,3.3687,0.050784,0.024803,0.33262,0.085315,0.086959
960,-0.059387,3.0652,0.30993,0.035656,0.2754,0.095839,0.10866
961,-0.074515,2.5107,0.55921,0.051441,0.17641,0.10011,0.12905
962,-0.063004,1.7451,0.72134,0.058676,0.060321,0.098141,0.13958
963,-0.023211,0.85421,0.78087,0.046508,-0.036695,0.091563,0.13662
964,0.027105,-0.060373,0.76607,0.012306,-0.095891,0.081039,0.11623
965,0.070845,-0.93089,0.69799,-0.041957,-0.12286,0.069529,0.082355
966,0.09255,-1.7616,0.57993,-0.10477,-0.13996,0.061636,0.044206
967,0.081368,-2.5775,0.41944,-0.16199,-0.16923,0.057032,0.0096753
968,0.031709,-3.3533,0.23035,-0.19817,-0.2156,0.049797,-0.018278
969,-0.042615,-4.0088,0.042562,-0.21034,-0.27085,0.037958,-0.040641
970,-0.11825,-4.4488,-0.11069,-0.20179,-0.32215,0.022172,-0.057743
971,-0.17646,-4.6096,-0.2031,-0.1814,-0.35931,0.0017824,-0.071555
972,-0.21461,-4.4784,-0.22448,-0.15443,-0.38036,-0.019594,-0.081092
973,-0.23204,-4.0834,-0.18337,-0.12417,-0.38464,-0.039984,-0.083723
974,-0.2281,-3.4816,-0.10477,-0.098522,-0.3728,-0.055769,-0.077475
975,-0.2054,-2.7446,-0.01795,-0.080763,-0.3409,-0.069582,-0.063662
976,-0.16726,-1.9593,0.060979,-0.069253,-0.29025,-0.084381,-0.042615
977,-0.1199,-1.2163,0.12215,-0.059716,-0.23007,-0.095891,-0.019923
978,-0.070897,-0.58557,0.1649,-0.045903,-0.17186,-0.1005,-0.0041372
979,-0.026829,-0.09918,0.18266,-0.027487,-0.12648,-0.094247,0.0001381
980,0.015924,0.25863,0.1751,-0.0077547,-0.096878,-0.081421,-0.0034794
981,0.064596,0.52896,0.13859,0.01132,-0.076159,-0.066293,-0.0057815
982,0.12149,0.7539,0.082684,0.029736,-0.066622,-0.051494,-0.002164
983,0.18167,0.9601,0.017568,0.048153,-0.069253,-0.037353,0.010333
984,0.23824,1.1453,-0.043601,0.06361,-0.079777,-0.025842,0.031381
985,0.28625,1.2988,-0.091945,0.068543,-0.083065,-0.018936,0.056046
986,0.31717,1.4031,-0.12352,0.062294,-0.07879,-0.018278,0.079395
987,0.32966,1.4488,-0.14588,0.047495,-0.084381,-0.020581,0.093208
988,0.32736,1.4412,-0.17613,0.032367,-0.12549,-0.021896,0.10044
989,0.31585,1.3935,-0.23533,0.015924,-0.21823,-0.020581,0.10077
990,0.29447,1.3265,-0.33333,-0.004466,-0.35274,-0.017621,0.096496
991,0.26159,1.2541,-0.46028,-0.025514,-0.4981,-0.01499,0.08959
992,0.21916,1.1831,-0.58886,-0.044259,-0.62767,-0.012359,0.084328
993,0.17246,1.1255,-0.68687,-0.055769,-0.71844,-0.012359,0.082355
994,0.13464,1.0887,-0.73093,-0.054454,-0.75987,-0.016305,0.084657
995,0.11689,1.0762,-0.71778,-0.04097,-0.74935,-0.01795,0.084986
996,0.11886,1.0854,-0.6622,-0.01795,-0.69607,-0.013674,0.080053
997,0.12774,1.1041,-0.58294,0.0086887,-0.62372,-0.00019077,0.071502
998,0.13004,1.1189,-0.48922,0.030723,-0.55696,0.017568,0.067227
999,0.11985,1.1183,-0.37214,0.049139,-0.50895,0.035656,0.070187
1000,0.091234,1.1058,-0.21363,0.065912,-0.4685,0.047495,0.076764
1001,0.040589,1.0893,-0.01795,0.08367,-0.40996,0.052099,0.086301
1002,-0.030775,1.0713,0.18167,0.10209,-0.31064,0.052757,0.096825
1003,-0.10641,1.0502,0.35104,0.12149,-0.16561,0.053086,0.10274
1004,-0.16594,1.0242,0.47108,0.14352,0.017568,0.050784,0.094852
1005,-0.19883,0.99069,0.53685,0.16852,0.22771,0.043549,0.077751
1006,-0.20869,0.94958,0.5556,0.19746,0.44542,0.031381,0.058676
1007,-0.1985,0.90485,0.54244,0.23133,0.63683,0.019212,0.043549
1008,-0.17285,0.86078,0.51021,0.26192,0.75752,0.013293,0.032038
1009,-0.13897,0.81935,0.47371,0.28658,0.7812,0.012306,0.025461
1010,-0.10115,0.77692,0.43983,0.31026,0.7095,0.018555,0.025132
1011,-0.062018,0.73088,0.39511,0.34019,0.57237,0.030723,0.024145
1012,-0.022883,0.68254,0.32013,0.37274,0.42076,0.049139,0.021514
1013,0.012635,0.63551,0.20338,0.39741,0.30829,0.071831,0.016581
1014,0.04322,0.58947,0.052428,0.40399,0.26586,0.096496,0.013293
1015,0.079395,0.54507,-0.094905,0.3882,0.29678,0.11952,0.014937
1016,0.13432,0.49739,-0.19784,0.35663,0.37538,0.13596,0.017568
1017,0.19943,0.4543,-0.2281,0.31848,0.46154,0.1455,0.01987
1018,0.24679,0.41451,-0.18567,0.28559,0.52698,0.14879,0.025132
1019,0.25271,0.37669,-0.097207,0.26521,0.56086,0.15109,0.034669
1020,0.20601,0.34084,0.0017824,0.26619,0.58026,0.15471,0.044535
1021,0.10932,0.3119,0.081368,0.28954,0.60854,0.15832,0.05177
1022,-0.019923,0.29283,0.12182,0.32111,0.66281,0.15602,0.052428
1023,-0.14851,0.28428,0.11623,0.34216,0.74765,0.14287,0.043549
1024,-0.23928,0.28231,0.077751,0.34019,0.85355,0.12248,0.026776
1025,-0.2669,0.28,0.029736,0.31125,0.94958,0.1011,0.0044134
1026,-0.22875,0.27507,-0.0054526,0.25961,0.99036,0.087946,-0.014003
1027,-0.13536,0.2606,-0.016963,0.19647,0.9384,0.082684,-0.021567
1028,0.0034268,0.23035,-0.012688,0.1307,0.78909,0.080382,-0.016963
1029,0.18463,0.18595,-0.0038083,0.071831,0.57072,0.075778,-0.0054526
1030,0.38787,0.13563,0.0077021,0.023817,0.32901,0.0692,0.0073732
1031,0.57105,0.084657,0.030065,-0.014661,0.10834,0.061965,0.016253
1032,0.6924,0.035985,0.075778,-0.050507,-0.061689,0.055388,0.015924
1033,0.72858,-0.0051238,0.14254,-0.082736,-0.17449,0.049797,0.0030979
1034,0.68024,-0.038997,0.20075,-0.10773,-0.23632,0.040918,-0.021567
1035,0.56974,-0.063991,0.21324,-0.12384,-0.27052,0.032696,-0.050507
1036,0.43622,-0.078461,0.16819,-0.13075,-0.29716,0.030394,-0.074515
1037,0.31125,-0.087341,0.07808,-0.13305,-0.32149,0.036971,-0.087669
1038,0.20798,-0.09326,-0.026171,-0.137,-0.33531,0.046837,-0.082079
1039,0.12642,-0.099509,-0.11431,-0.14193,-0.32741,0.054401,-0.055112
1040,0.068214,-0.10839,-0.16561,-0.14687,-0.2988,0.05769,-0.020581
1041,0.026447,-0.12187,-0.17252,-0.15279,-0.26789,0.05769,0.0040845
1042,-0.013017,-0.14522,-0.14029,-0.15838,-0.25375,0.058019,0.011648
1043,-0.061689,-0.17778,-0.070897,-0.16397,-0.2646,0.061307,0.0086887
1044,-0.12286,-0.21099,0.023488,-0.16989,-0.29716,0.065912,0.0014536
1045,-0.1837,-0.23928,0.12248,-0.17581,-0.34484,0.065583,-0.0051238
1046,-0.2281,-0.26032,0.2162,-0.18074,-0.3968,0.055059,-0.0090702
1047,-0.2498,-0.27841,0.3073,-0.18534,-0.43758,0.038287,-0.010386
1048,-0.25769,-0.2965,0.39478,-0.1883,-0.45699,0.019212,-0.011701
1049,-0.25901,-0.31294,0.4645,-0.18271,-0.45041,-0.0015062,-0.014332
1050,-0.26,-0.32281,0.50166,-0.16824,-0.41785,-0.021896,-0.015319
1051,-0.26888,-0.32511,0.49673,-0.14522,-0.36984,-0.041957,-0.013674
1052,-0.28532,-0.32314,0.45759,-0.12023,-0.31788,-0.056098,-0.015648
1053,-0.30834,-0.32149,0.39248,-0.1028,-0.26888,-0.059716,-0.01795
1054,-0.333,-0.32577,0.31125,-0.09326,-0.22251,-0.051165,-0.015319
1055,-0.34813,-0.33498,0.21522,-0.085367,-0.18107,-0.038668,-0.0051238
1056,-0.33728,-0.34353,0.10932,-0.066951,-0.14423,-0.029789,0.010662
1057,-0.29782,-0.34287,0.0080309,-0.033406,-0.1176,-0.026171,0.027105
1058,-0.2452,-0.3307,-0.073199,0.0073732,-0.10477,-0.025842,0.0373
1059,-0.19587,-0.31261,-0.13042,0.046508,-0.10148,-0.027487,0.042233
1060,-0.16035,-0.29749,-0.17482,0.069529,-0.094247,-0.031762,0.043549
1061,-0.13963,-0.2965,-0.21724,0.070845,-0.069582,-0.032749,0.043877
1062,-0.12746,-0.30867,-0.25638,0.051441,-0.021896,-0.03242,0.045193
1063,-0.12121,-0.32643,-0.28335,0.017897,0.044206,-0.030118,0.051441
1064,-0.12253,-0.3386,-0.29124,-0.020909,0.1159,-0.026829,0.060321
1065,-0.13338,-0.33794,-0.2692,-0.057743,0.17937,-0.021896,0.068214
1066,-0.14818,-0.32413,-0.21922,-0.086354,0.22179,-0.016634,0.0692
1067,-0.16199,-0.30702,-0.15114,-0.1005,0.23725,-0.012688,0.064596
1068,-0.1735,-0.28927,-0.083394,-0.10247,0.22837,-0.011701,0.058348
1069,-0.1814,-0.26888,-0.031104,-0.10378,0.20568,-0.01203,0.053743
1070,-0.1837,-0.24322,-0.0061104,-0.10707,0.18266,-0.012359,0.056046
1071,-0.17877,-0.21889,-0.015319,-0.099509,0.1774,-0.01203,0.067556
1072,-0.16791,-0.19784,-0.055769,-0.069253,0.19877,-0.011043,0.083013
1073,-0.15903,-0.17778,-0.11365,-0.010386,0.2458,-0.0084125,0.09551
1074,-0.16495,-0.1518,-0.16758,0.070845,0.29809,-0.0061104,0.098141
1075,-0.1906,-0.11628,-0.20475,0.15405,0.3244,-0.0038083,0.086301
1076,-0.22875,-0.072213,-0.2304,0.21818,0.29776,-0.002164,0.067556
1077,-0.27052,-0.022883,-0.25276,0.25041,0.2116,-0.0047949,0.054072
1078,-0.30867,0.029736,-0.26559,0.25435,0.087288,-0.010386,0.050126
1079,-0.33827,0.077751,-0.25572,0.24646,-0.034064,-0.015976,0.051113
1080,-0.36063,0.11426,-0.20902,0.24613,-0.11562,-0.021567,0.049468
1081,-0.37444,0.13563,-0.12615,0.2583,-0.15838,-0.024198,0.040918
1082,-0.3728,0.1432,-0.023211,0.27507,-0.18863,-0.021567,0.029736
1083,-0.34978,0.13333,0.072818,0.28066,-0.22974,-0.015648,0.022501
1084,-0.30209,0.099785,0.1353,0.26126,-0.27874,-0.0090702,0.023817
1085,-0.22974,0.040918,0.15306,0.20535,-0.3136,-0.0011774,0.035985
1086,-0.14095,-0.045574,0.12346,0.10735,-0.30571,0.0040845,0.053743
1087,-0.050507,-0.16364,0.055717,-0.02946,-0.24388,0.0096753,0.06624
1088,0.036971,-0.31919,-0.032091,-0.17778,-0.14292,0.014608,0.06361
1089,0.13662,-0.49941,-0.1199,-0.30406,-0.035051,0.018555,0.047824
1090,0.26488,-0.67832,-0.1883,-0.38233,0.045851,0.021514,0.027434
1091,0.42339,-0.81611,-0.22678,-0.39911,0.080053,0.023159,0.012306
1092,0.58454,-0.87465,-0.23336,-0.35734,0.076435,0.024803,0.010662
1093,0.7049,-0.83782,-0.20869,-0.27381,0.070845,0.026119,0.020857
1094,0.74634,-0.72699,-0.15147,-0.1712,0.099785,0.031381,0.034011
1095,0.69569,-0.58952,-0.04985,-0.073528,0.17181,0.042562,0.042891
1096,0.57138,-0.46652,0.087617,0.013622,0.26422,0.06065,0.045522
1097,0.4053,-0.38102,0.2287,0.08663,0.35334,0.083013,0.044206
1098,0.22377,-0.3284,0.33657,0.14648,0.42569,0.10472,0.04322
1099,0.048153,-0.29387,0.3905,0.19055,0.47798,0.11754,0.041247
1100,-0.094247,-0.26032,0.3905,0.21785,0.50725,0.12215,0.040589
1101,-0.18633,-0.21034,0.35762,0.22903,0.51712,0.12116,0.041247
1102,-0.22678,-0.14193,0.31552,0.23199,0.51482,0.11853,0.042233
1103,-0.23336,-0.066951,0.28231,0.23528,0.51087,0.12083,0.041904
1104,-0.23138,0.0001381,0.26389,0.23922,0.50988,0.13037,0.040918
1105,-0.23106,0.05769,0.26586,0.25041,0.51153,0.14089,0.039602
1106,-0.21987,0.10702,0.29382,0.26915,0.51317,0.14681,0.039931
1107,-0.18205,0.14714,0.34578,0.29711,0.50528,0.1455,0.045522
1108,-0.10674,0.17279,0.40596,0.33032,0.47206,0.13892,0.053743
1109,0.0044134,0.17608,0.45463,0.36748,0.39379,0.12511,0.061636
1110,0.14681,0.15701,0.47798,0.39938,0.26882,0.10439,0.060321
1111,0.31454,0.11393,0.46516,0.41517,0.11952,0.078737,0.050784
1112,0.50035,0.055717,0.39478,0.40596,-0.0265,0.054072,0.041904
1113,0.6901,0.0021113,0.24876,0.37242,-0.1541,0.0373,0.042891
1114,0.85782,-0.026171,0.010991,0.31552,-0.26296,0.032696,0.051441
1115,0.9703,-0.019265,-0.30571,0.24317,-0.36194,0.04026,0.062294
1116,0.99858,0.017897,-0.63063,0.16753,-0.45107,0.056374,0.068871
1117,0.93149,0.074791,-0.8707,0.099127,-0.52276,0.074133,0.06624
1118,0.78218,0.13596,-0.9595,0.039273,-0.57439,0.085972,0.058348
1119,0.58717,0.18825,-0.89142,-0.011372,-0.61221,0.086301,0.054072
1120,0.3882,0.22114,-0.71087,-0.055112,-0.63984,0.075778,0.05473
1121,0.20996,0.23265,-0.46422,-0.094905,-0.65727,0.055717,0.050455
1122,0.066898,0.23232,-0.1643,-0.12878,-0.65727,0.036314,0.0373
1123,-0.034064,0.23626,0.18989,-0.15015,-0.63129,0.023817,0.016253
1124,-0.10346,0.27145,0.5625,-0.16232,-0.579,0.014608,-0.0047949
1125,-0.15607,0.37439,0.89104,-0.16693,-0.50829,0.002769,-0.022554
1126,-0.20606,0.55231,1.1222,-0.16462,-0.42772,-0.011043,-0.03242
1127,-0.25408,0.78021,1.2439,-0.15213,-0.34649,-0.02354,-0.031433
1128,-0.29255,1.0137,1.2788,-0.13404,-0.27447,-0.035708,-0.019594
1129,-0.3136,1.2054,1.241,-0.12056,-0.21231,-0.040641,-0.00051963
1130,-0.31196,1.3245,1.1397,-0.11957,-0.14687,-0.036366,0.018226
1131,-0.28335,1.3561,0.99003,-0.12648,-0.064649,-0.024198,0.032367
1132,-0.22119,1.3011,0.80784,-0.12713,0.03434,-0.0087413,0.04026
1133,-0.12023,1.1716,0.61644,-0.11858,0.14451,0.0050711,0.042891
1134,0.020528,0.98378,0.44082,-0.097864,0.25698,0.014608,0.04026
1135,0.19516,0.75127,0.29678,-0.065307,0.35499,0.021186,0.0373
1136,0.38689,0.48226,0.18496,-0.016634,0.41648,0.027105,0.037629
1137,0.57007,0.18529,0.09551,0.046508,0.41056,0.038944,0.043549
1138,0.7197,-0.13667,0.014608,0.11294,0.32276,0.056703,0.051113
1139,0.81474,-0.48132,-0.068266,0.16556,0.17641,0.073804,0.051441
1140,0.84204,-0.82861,-0.15509,0.19549,0.033683,0.081039,0.044535
1141,0.80586,-1.1443,-0.24585,0.21193,-0.040641,0.076764,0.037958
1142,0.71608,-1.3913,-0.3386,0.22443,-0.016634,0.060979,0.0373
1143,0.58519,-1.5324,-0.43331,0.23265,0.082684,0.041247,0.045193
1144,0.42832,-1.5429,-0.52079,0.23002,0.20404,0.020528,0.057361
1145,0.26948,-1.4028,-0.58229,0.20897,0.29776,0.0021113,0.067885
1146,0.13037,-1.1269,-0.59281,0.16753,0.3415,-0.013017,0.071502
1147,0.021843,-0.7681,-0.54808,0.1136,0.34874,-0.026171,0.066898
1148,-0.047877,-0.40141,-0.46883,0.054072,0.34315,-0.035708,0.055388
1149,-0.081092,-0.092603,-0.38398,-0.0024928,0.34545,-0.040313,0.039931
1150,-0.083394,0.12248,-0.3238,-0.044917,0.35466,-0.043272,0.026447
1151,-0.062347,0.24383,-0.29913,-0.06728,0.3563,-0.044588,0.015266
1152,-0.023869,0.29283,-0.30242,-0.06432,0.33756,-0.044917,0.0060577
1153,0.012306,0.29283,-0.31985,-0.040313,0.29316,-0.045574,-0.0031506
1154,0.026447,0.27145,-0.33958,-0.002164,0.231,-0.043601,-0.0074258
1155,0.0040845,0.25008,-0.35866,0.037629,0.16918,-0.041628,-0.0038083
1156,-0.049192,0.23824,-0.37642,0.06361,0.13267,-0.039984,0.0093464
1157,-0.10905,0.23495,-0.3876,0.072489,0.13826,-0.03538,0.024145
1158,-0.15903,0.23561,-0.38135,0.066898,0.17806,-0.025185,0.034669
1159,-0.19093,0.23232,-0.35405,0.054072,0.22541,-0.0077547,0.0373
1160,-0.20705,0.22311,-0.30998,0.038616,0.25106,0.012964,0.034669
1161,-0.21165,0.21127,-0.25901,0.022172,0.23988,0.033683,0.029407
1162,-0.20738,0.19943,-0.21034,0.0080309,0.20732,0.05473,0.026776
1163,-0.19455,0.1945,-0.16989,-0.004466,0.17937,0.073476,0.030065
1164,-0.17252,0.20404,-0.13864,-0.014661,0.1695,0.084328,0.037629
1165,-0.14029,0.23166,-0.11233,-0.024198,0.17115,0.085972,0.047166
1166,-0.097864,0.27704,-0.085367,-0.032091,0.17871,0.085315,0.056046
1167,-0.053796,0.32966,-0.057414,-0.036695,0.18726,0.089919,0.063938
1168,-0.016963,0.38787,-0.034064,-0.037682,0.19055,0.099456,0.069529
1169,0.0030979,0.46088,-0.02354,-0.034064,0.18167,0.10932,0.071173
1170,-0.0024928,0.54244,-0.0265,-0.0265,0.15701,0.11557,0.06624
1171,-0.04097,0.61446,-0.03538,-0.015976,0.12346,0.11721,0.056046
1172,-0.11102,0.66478,-0.044588,-0.012359,0.094852,0.1113,0.040918
1173,-0.1985,0.69503,-0.051494,-0.017621,0.073804,0.10176,0.021514
1174,-0.27841,0.70424,-0.055112,-0.025514,0.054401,0.092221,0.0021113
1175,-0.33235,0.69471,-0.053796,-0.028473,0.02283,0.081697,-0.013345
1176,-0.35339,0.67333,-0.046561,-0.028144,-0.033406,0.0692,-0.024198
1177,-0.34747,0.63979,-0.037682,-0.031104,-0.11036,0.050784,-0.031433
1178,-0.33728,0.57303,-0.026829,-0.039326,-0.19225,0.031052,-0.033078
1179,-0.3386,0.44838,-0.018936,-0.046232,-0.26526,0.014279,-0.027158
1180,-0.35076,0.26323,-0.014661,-0.048205,-0.32215,0.0054,-0.015648
1181,-0.36721,0.042562,-0.011701,-0.040641,-0.36359,0.0057288,-0.0015062
1182,-0.3728,-0.18074,-0.004466,-0.020581,-0.39056,0.017568,0.017239
1183,-0.3626,-0.3774,0.0063866,0.0054,-0.40338,0.039602,0.036642
1184,-0.33662,-0.53624,0.01987,0.031709,-0.41062,0.06065,0.047166
1185,-0.29453,-0.65694,0.036971,0.060979,-0.42048,0.073804,0.048153
1186,-0.24651,-0.73784,0.056703,0.092221,-0.43495,0.076764,0.045193
1187,-0.20442,-0.7602,0.080053,0.1205,-0.44679,0.072489,0.045193
1188,-0.17416,-0.69246,0.10538,0.13662,-0.4389,0.063281,0.048153
1189,-0.15739,-0.52835,0.12905,0.1376,-0.38661,0.051113,0.051441
1190,-0.15048,-0.29058,0.15536,0.12346,-0.27315,0.036971,0.05473
1191,-0.1495,-0.022554,0.19022,0.097154,-0.10576,0.021843,0.057361
1192,-0.14983,0.23232,0.22673,0.058019,0.081039,0.010662,0.059663
1193,-0.13799,0.43095,0.26027,0.013622,0.24514,0.0030979,0.059005
1194,-0.10806,0.54869,0.28461,-0.025185,0.34874,-0.0008485,0.058348
1195,-0.061689,0.58322,0.29546,-0.045246,0.36551,-0.0024928,0.056374
1196,-0.0093991,0.55,0.29349,-0.045903,0.30072,-0.0041372,0.053743
1197,0.039273,0.46746,0.28231,-0.032749,0.18661,0.0017824,0.049139
1198,0.076764,0.35104,0.26817,-0.012359,0.062952,0.015595,0.045193
1199,0.097483,0.21259,0.25304,0.0086887,-0.038668,0.029736,0.044206
1200,0.098798,0.065254,0.23528,0.025132,-0.10247,0.039602,0.048482
1201,0.084328,-0.067609,0.21259,0.033683,-0.13009,0.043549,0.052757
1202,0.057032,-0.17285,0.18924,0.036642,-0.13272,0.042562,0.052428
1203,0.017568,-0.25704,0.16457,0.032696,-0.12582,0.0373,0.046837
1204,-0.028144,-0.3284,0.1376,0.020199,-0.1199,0.027434,0.032038
1205,-0.070897,-0.39286,0.10603,-0.004466,-0.11957,0.014608,0.013293
1206,-0.10082,-0.44219,0.070187,-0.041299,-0.12056,-0.002164,-0.0024928
1207,-0.10411,-0.44942,0.038287,-0.087669,-0.11562,-0.01795,-0.011043
1208,-0.07583,-0.39319,0.013622,-0.14095,-0.098193,-0.028802,-0.012359
1209,-0.018607,-0.27677,-0.0061104,-0.19587,-0.067609,-0.033735,-0.0064392
1210,0.054072,-0.1245,-0.024527,-0.24487,-0.028144,-0.033735,0.0057288
1211,0.12182,0.034011,-0.041957,-0.27808,0.017897,-0.030118,0.017568
1212,0.17279,0.17542,-0.054454,-0.28433,0.062623,-0.021567,0.024145
1213,0.20338,0.28691,-0.06728,-0.25737,0.098798,-0.0097279,0.026447
1214,0.21259,0.36222,-0.10017,-0.20146,0.12412,0.0060577,0.026119
1215,0.20798,0.40366,-0.16824,-0.12615,0.14188,0.022501,0.028092
1216,0.1922,0.42536,-0.25572,-0.053138,0.15536,0.039602,0.029407
1217,0.17115,0.44214,-0.31163,0.0024402,0.16786,0.054401,0.028421
1218,0.14517,0.46351,-0.27019,0.04026,0.17806,0.064267,0.027105
1219,0.11491,0.49114,-0.1005,0.069858,0.18792,0.071173,0.02875
1220,0.087617,0.51449,0.15931,0.099127,0.1945,0.079724,0.033683
1221,0.065583,0.52205,0.42503,0.12675,0.19253,0.088603,0.038287
1222,0.048482,0.51416,0.61709,0.14648,0.18102,0.087946,0.039602
1223,0.036314,0.50035,0.68944,0.15799,0.16128,0.07808,0.038616
1224,0.02579,0.47469,0.64274,0.15734,0.13728,0.060979,0.036971
1225,0.015924,0.42339,0.5135,0.1455,0.11426,0.044864,0.034998
1226,0.0067154,0.35268,0.35762,0.12873,0.097154,0.035656,0.036314
1227,-0.0034794,0.31454,0.21982,0.11919,0.087617,0.031709,0.038944
1228,-0.015976,0.36781,0.12544,0.12215,0.082355,0.032038,0.043877
1229,-0.031104,0.52106,0.070187,0.13201,0.07512,0.032367,0.047495
1230,-0.045574,0.71773,0.042233,0.15043,0.055059,0.028092,0.044864
1231,-0.051165,0.87197,0.028092,0.17641,0.022172,0.021843,0.036971
1232,-0.041628,0.91932,0.023159,0.20831,-0.020581,0.017897,0.031052
1233,-0.015648,0.84566,0.029078,0.2389,-0.068924,0.016581,0.029407
1234,0.021514,0.67629,0.04881,0.2606,-0.11891,0.013951,0.031052
1235,0.059663,0.44871,0.075449,0.26356,-0.16068,0.010991,0.032367
1236,0.095839,0.17608,0.094194,0.23922,-0.18995,0.0073732,0.031709
1237,0.13432,-0.14917,0.10044,0.19121,-0.20442,0.0044134,0.027434
1238,0.18102,-0.52079,0.093865,0.13333,-0.20771,0.0047422,0.019212
1239,0.23396,-0.9128,0.081697,0.084328,-0.20244,0.0060577,0.0096753
1240,0.28165,-1.2943,0.062952,0.056703,-0.19126,0.0086887,0.0040845
1241,0.31026,-1.6445,0.0373,0.047166,-0.17054,0.012635,0.0034268
1242,0.30927,-1.9497,0.0050711,0.048482,-0.12812,0.01691,0.0063866
1243,0.27244,-2.1862,-0.026829,0.053086,-0.041628,0.023159,0.0073732
1244,0.20963,-2.3102,-0.060373,0.058348,0.096167,0.030723,0.0057288
1245,0.13596,-2.2825,-0.099838,0.06361,0.25665,0.043549,-0.0011774
1246,0.070187,-2.0832,-0.16035,0.066569,0.38952,0.059992,-0.011372
1247,0.02283,-1.7215,-0.24487,0.059992,0.45924,0.076764,-0.019265
1248,-0.0064392,-1.2436,-0.35011,0.043549,0.45463,0.095181,-0.018278
1249,-0.020252,-0.73093,-0.47113,0.02579,0.38754,0.11162,-0.0097279
1250,-0.018936,-0.27578,-0.60794,0.013622,0.2879,0.12445,0.0070443
1251,-0.0018351,0.062952,-0.75198,0.0047422,0.18989,0.13037,0.025132
1252,0.031052,0.27244,-0.8855,-0.0061104,0.11393,0.12577,0.038287
1253,0.072818,0.37998,-0.98975,-0.022554,0.058676,0.1136,0.041575
1254,0.11393,0.41879,-1.044,-0.042944,0.0083598,0.095181,0.037629
1255,0.14681,0.41846,-1.021,-0.066293,-0.053467,0.076435,0.029736
1256,0.17214,0.40333,-0.89011,-0.091616,-0.13437,0.057032,0.016253
1257,0.19976,0.403,-0.61484,-0.11694,-0.2281,0.036642,0.0034268
1258,0.24153,0.44049,-0.14818,-0.13897,-0.31656,0.018555,-0.0047949
1259,0.30533,0.53948,0.48818,-0.15344,-0.38299,0.0080309,-0.0047949
1260,0.38031,0.72628,1.1472,-0.15509,-0.41785,0.0034268,0.0034268
1261,0.45003,1.0292,1.6491,-0.14391,-0.4218,0.0037556,0.015595
1262,0.49804,1.4491,1.875,-0.12253,-0.40963,0.0080309,0.032367
1263,0.51613,1.9352,1.8175,-0.093918,-0.39648,0.015266,0.054072
1264,0.50363,2.3999,1.5708,-0.06432,-0.38464,0.025461,0.076106
1265,0.46088,2.7626,1.2587,-0.039326,-0.36589,0.033683,0.090577
1266,0.38426,2.9622,0.97786,-0.023211,-0.32577,0.036314,0.090905
1267,0.26849,2.9734,0.76607,-0.015976,-0.25671,0.033354,0.074133
1268,0.12149,2.8021,0.61216,-0.011701,-0.15542,0.026776,0.049139
1269,-0.029789,2.465,0.48851,-0.010057,-0.021238,0.023488,0.02579
1270,-0.15509,1.9763,0.37011,-0.0057815,0.14813,0.025461,0.014937
1271,-0.24125,1.3492,0.26126,0.0057288,0.35038,0.036642,0.018555
1272,-0.29387,0.59901,0.17641,0.027763,0.56678,0.054401,0.034011
1273,-0.33103,-0.24191,0.12215,0.058676,0.76706,0.07216,0.047824
1274,-0.36885,-1.0901,0.087946,0.092879,0.9282,0.088275,0.05473
1275,-0.40503,-1.8399,0.057361,0.13037,1.0522,0.10011,0.054401
1276,-0.42706,-2.4052,0.017239,0.1751,1.1456,0.10636,0.046837
1277,-0.42476,-2.7328,-0.03538,0.21916,1.1995,0.10636,0.029736
1278,-0.39056,-2.7847,-0.089314,0.25238,1.1969,0.098469,0.011977
1279,-0.32084,-2.5433,-0.13174,0.26521,1.1314,0.08367,0.0054
1280,-0.21659,-2.0388,-0.1541,0.26093,1.0137,0.067885,0.019541
1281,-0.083065,-1.3686,-0.14884,0.24975,0.86341,0.05177,0.046837
1282,0.064925,-0.677,-0.10905,0.2412,0.7003,0.03434,0.074791
1283,0.21061,-0.11529,-0.038011,0.23988,0.5431,0.020199,0.092879
1284,0.34249,0.20469,0.034998,0.24909,0.39807,0.012964,0.09551
1285,0.4451,0.23955,0.053743,0.26323,0.27014,0.017897,0.08959
1286,0.50265,0.014937,-0.031433,0.27573,0.16194,0.029736,0.084657
1287,0.5135,-0.38102,-0.23204,0.28066,0.073804,0.041247,0.086959
1288,0.48259,-0.83617,-0.50895,0.28132,0.011648,0.044864,0.094194
1289,0.42536,-1.2466,-0.78454,0.2777,-0.021238,0.038616,0.098798
1290,0.354,-1.5475,-0.98153,0.27376,-0.031433,0.027763,0.096496
1291,0.27376,-1.7248,-1.0582,0.26784,-0.034064,0.011648,0.085972
1292,0.19285,-1.8067,-1.0154,0.25008,-0.047877,-0.010386,0.071173
1293,0.12445,-1.8215,-0.89701,0.22114,-0.079119,-0.030118,0.057361
1294,0.079724,-1.7807,-0.75593,0.19121,-0.11825,-0.038339,0.049139
1295,0.06624,-1.6567,-0.6303,0.17181,-0.1518,-0.038339,0.04881
1296,0.087288,-1.4212,-0.52243,0.18069,-0.17252,-0.032749,0.053415
1297,0.13925,-1.0624,-0.41588,0.22212,-0.18403,-0.025185,0.062623
1298,0.20798,-0.60531,-0.29716,0.28559,-0.19554,-0.016305,0.075449
1299,0.27672,-0.1199,-0.17811,0.35268,-0.23007,-0.011043,0.083999
1300,0.32111,0.30631,-0.079777,0.40958,-0.31919,-0.015648,0.076435
1301,0.31914,0.6092,-0.011701,0.44214,-0.47672,-0.030775,0.055059
1302,0.26093,0.77659,0.038944,0.43523,-0.68785,-0.047548,0.029736
1303,0.16457,0.83711,0.085644,0.38721,-0.91115,-0.055769,0.010004
1304,0.061965,0.84368,0.11853,0.30796,-1.0897,-0.053467,-0.0015062
1305,-0.019265,0.84105,0.10143,0.21489,-1.1864,-0.04097,-0.0061104
1306,-0.07287,0.85059,0.010662,0.12741,-1.1923,-0.022554,-0.0057815
1307,-0.1074,0.87591,-0.13766,0.054401,-1.1174,-0.0011774,-0.0034794
1308,-0.13864,0.90748,-0.28203,-0.0038083,-0.97495,0.01691,-0.002164
1309,-0.17745,0.93708,-0.34747,-0.04689,-0.78421,0.029407,-0.0054526
1310,-0.2202,0.95418,-0.28729,-0.069582,-0.59084,0.0373,-0.012688
1311,-0.26032,0.95254,-0.11891,-0.070568,-0.43956,0.04322,-0.023211
1312,-0.2942,0.92886,0.088275,-0.059716,-0.35668,0.044206,-0.038997
1313,-0.31821,0.88841,0.25633,-0.04985,-0.32972,0.04026,-0.054783
1314,-0.32774,0.83711,0.34249,-0.047219,-0.31525,0.033025,-0.063662
1315,-0.31788,0.77922,0.34775,-0.052152,-0.26296,0.027105,-0.062347
1316,-0.29551,0.72233,0.29941,-0.059716,-0.14226,0.025132,-0.050507
1317,-0.26986,0.67267,0.23791,-0.064649,0.04881,0.029078,-0.033078
1318,-0.25408,0.63683,0.18496,-0.060702,0.2902,0.037958,-0.013674
1319,-0.26164,0.62301,0.13859,-0.044259,0.55691,0.049139,0.0047422
1320,-0.3011,0.63222,0.092221,-0.023211,0.81211,0.053086,0.017568
1321,-0.36589,0.65458,0.041575,-0.0024928,1.0061,0.04881,0.023488
1322,-0.44022,0.67695,0.0021113,0.010662,1.1005,0.038944,0.023159
1323,-0.5073,0.68385,0.0057288,0.010004,1.0893,0.028092,0.02283
1324,-0.56354,0.66774,0.07512,-0.004466,0.99529,0.020528,0.024474
1325,-0.603,0.62959,0.1968,-0.0265,0.85782,0.017897,0.025132
1326,-0.62175,0.57927,0.32572,-0.044588,0.7197,0.020199,0.024474
1327,-0.61484,0.53225,0.41912,-0.05544,0.61545,0.026776,0.022172
1328,-0.58294,0.51284,0.45792,-0.062347,0.55527,0.033354,0.021843
1329,-0.52638,0.55757,0.44773,-0.070568,0.52139,0.0373,0.026447
1330,-0.44877,0.6753,0.40662,-0.082736,0.48489,0.041247,0.036971
1331,-0.35241,0.83612,0.35334,-0.094576,0.43063,0.045522,0.049139
1332,-0.23566,1.0002,0.29711,-0.1074,0.35992,0.047166,0.062623
1333,-0.08471,1.1436,0.23659,-0.12253,0.27935,0.04322,0.078409
1334,0.11261,1.2439,0.17345,-0.14095,0.1945,0.036314,0.097483
1335,0.34315,1.2854,0.10932,-0.1587,0.10603,0.024803,0.11919
1336,0.57533,1.2581,0.050126,-0.1643,0.021843,0.015924,0.14155
1337,0.78021,1.167,0.002769,-0.14456,-0.055112,0.01132,0.15799
1338,0.93873,1.0107,-0.034064,-0.10313,-0.12187,0.0096753,0.16457
1339,1.0357,0.77758,-0.060373,-0.06136,-0.17581,0.0047422,0.1603
1340,1.0469,0.46351,-0.075173,-0.04097,-0.20869,-0.0038083,0.1501
1341,0.96701,0.093208,-0.080763,-0.052152,-0.2179,-0.013017,0.14287
1342,0.80948,-0.29486,-0.083394,-0.089643,-0.21001,-0.016634,0.13859
1343,0.59276,-0.67075,-0.087669,-0.14029,-0.19521,-0.014332,0.13563
1344,0.34775,-1.0286,-0.094247,-0.19356,-0.1837,-0.0097279,0.12873
1345,0.10801,-1.3656,-0.10181,-0.23994,-0.1814,-0.0041372,0.11557
1346,-0.10082,-1.662,-0.10872,-0.27282,-0.186,0.00046697,0.098469
1347,-0.26065,-1.8642,-0.11069,-0.29025,-0.18962,0.0044134,0.080053
1348,-0.36293,-1.9129,-0.10378,-0.29518,-0.18929,0.0073732,0.06361
1349,-0.4093,-1.7827,-0.087341,-0.29551,-0.18567,0.0093464,0.049139
1350,-0.41095,-1.5008,-0.066622,-0.28992,-0.18271,0.0080309,0.039602
1351,-0.38201,-1.1269,-0.045903,-0.27216,-0.18074,0.002769,0.038616
1352,-0.32807,-0.71942,-0.028802,-0.2475,-0.18337,-0.0031506,0.040918
1353,-0.24454,-0.32972,-0.012688,-0.21922,-0.19159,-0.0051238,0.043877
1354,-0.12089,0.012306,0.0086887,-0.19192,-0.2008,-0.0031506,0.047166
1355,0.044206,0.28823,0.030723,-0.16726,-0.20146,0.0034268,0.051441
1356,0.23594,0.48588,0.052757,-0.14818,-0.18469,0.012306,0.052428
1357,0.42043,0.59736,0.0692,-0.13536,-0.15344,0.01691,0.044206
1358,0.55823,0.62795,0.076764,-0.12417,-0.11858,0.014608,0.029078
1359,0.61676,0.5921,0.075449,-0.10806,-0.093918,0.0073732,0.012635
1360,0.58848,0.52271,0.070516,-0.084052,-0.090629,-0.002164,-0.0018351
1361,0.48752,0.44937,0.073147,-0.054125,-0.11661,-0.010386,-0.014003
1362,0.34808,0.38162,0.098141,-0.022883,-0.16923,-0.015648,-0.022883
1363,0.21028,0.30204,0.14944,0.0044134,-0.23106,-0.014332,-0.025842
1364,0.10735,0.19285,0.21555,0.022172,-0.28499,-0.011372,-0.024856
1365,0.04618,0.048482,0.27178,0.025132,-0.31689,-0.01499,-0.02354
1366,0.013293,-0.12417,0.29415,0.013293,-0.31327,-0.022554,-0.023211
1367,-0.0087413,-0.30998,0.27014,-0.010057,-0.27216,-0.030118,-0.02354
1368,-0.032749,-0.49974,0.19943,-0.037353,-0.19652,-0.033735,-0.021896
1369,-0.060045,-0.67963,0.10603,-0.057085,-0.087341,-0.029789,-0.02354
1370,-0.085367,-0.81776,0.023817,-0.055769,0.04881,-0.019265,-0.025842
1371,-0.10444,-0.87564,-0.027487,-0.034393,0.18726,-0.0057815,-0.022883
1372,-0.11628,-0.8342,-0.045246,-0.0054526,0.28362,0.0080309,-0.012688
1373,-0.11694,-0.70726,-0.039326,0.01691,0.30763,0.024474,0.0030979
1374,-0.1074,-0.53,-0.024527,0.026447,0.25863,0.040918,0.019212
1375,-0.094247,-0.34912,-0.010386,0.024803,0.16095,0.055388,0.027105
1376,-0.078461,-0.1985,-0.00019077,0.018555,0.042562,0.067227,0.026119
1377,-0.065964,-0.089972,0.0080309,0.015595,-0.078132,0.072489,0.020528
1378,-0.062676,-0.021238,0.017897,0.023159,-0.19028,0.074462,0.017897
1379,-0.072542,0.020857,0.034011,0.039602,-0.28894,0.073147,0.018884
1380,-0.097536,0.04881,0.06065,0.050784,-0.36655,0.068543,0.021514
1381,-0.13864,0.071502,0.09551,0.052757,-0.42081,0.056703,0.023159
1382,-0.2008,0.089919,0.13004,0.048482,-0.45008,0.039273,0.024145
1383,-0.27907,0.10209,0.14944,0.04881,-0.45041,0.025461,0.021514
1384,-0.35504,0.10702,0.1478,0.060321,-0.41851,0.019541,0.012964
1385,-0.40766,0.10274,0.13004,0.087288,-0.3557,0.022172,0.0001381
1386,-0.42838,0.097483,0.10834,0.12379,-0.28367,0.031381,-0.014332
1387,-0.4195,0.094852,0.095839,0.15602,-0.23171,0.043549,-0.028473
1388,-0.3899,0.09551,0.1011,0.17444,-0.22645,0.05769,-0.036037
1389,-0.34945,0.098798,0.12577,0.1774,-0.27052,0.065912,-0.033406
1390,-0.30505,0.10866,0.17016,0.16753,-0.33958,0.064925,-0.024527
1391,-0.25868,0.12675,0.22903,0.15175,-0.39746,0.058019,-0.0090702
1392,-0.20573,0.15865,0.2879,0.13793,-0.41917,0.053743,0.0086887
1393,-0.14456,0.20502,0.33328,0.13333,-0.39976,0.058019,0.023159
1394,-0.07287,0.25994,0.3517,0.13958,-0.34682,0.069858,0.032367
1395,0.017568,0.3073,0.32703,0.15602,-0.26822,0.082684,0.038616
1396,0.13201,0.33756,0.24942,0.1774,-0.17022,0.08959,0.036971
1397,0.27178,0.35466,0.12609,0.19154,-0.056098,0.087617,0.02283
1398,0.42076,0.37143,-0.020909,0.19121,0.08959,0.073476,0.0017824
1399,0.55296,0.40399,-0.16923,0.17674,0.28954,0.055059,-0.021896
1400,0.63518,0.44904,-0.29584,0.16095,0.5408,0.041575,-0.037682
1401,0.6457,0.48883,-0.39286,0.15964,0.80093,0.038616,-0.038339
1402,0.58125,0.50199,-0.46652,0.182,1.0032,0.049139,-0.0265
1403,0.46253,0.4668,-0.52145,0.22508,1.091,0.06624,-0.010386
1404,0.32144,0.36255,-0.5517,0.27376,1.0479,0.082684,0.0047422
1405,0.18924,0.18661,-0.5369,0.31125,0.8986,0.093208,0.010991
1406,0.079066,-0.032749,-0.45699,0.32243,0.68879,0.090577,0.0090175
1407,-0.0024928,-0.24355,-0.32084,0.3073,0.46647,0.070516,0.0017824
1408,-0.050179,-0.40437,-0.16101,0.27672,0.27507,0.035656,-0.0024928
1409,-0.069253,-0.50171,-0.010057,0.24547,0.13826,-0.002164,-0.0011774
1410,-0.073199,-0.54874,0.12544,0.22311,0.064596,-0.026171,0.0073732
1411,-0.076817,-0.57275,0.24646,0.21423,0.047495,-0.033735,0.018884
1412,-0.086354,-0.60333,0.34249,0.21259,0.072818,-0.024856,0.033683
1413,-0.10214,-0.65464,0.39445,0.20864,0.12215,-0.0034794,0.049468
1414,-0.12089,-0.72271,0.38853,0.19285,0.18036,0.017568,0.064596
1415,-0.1393,-0.79145,0.32572,0.15964,0.23429,0.031052,0.076435
1416,-0.15673,-0.83058,0.22114,0.10538,0.27244,0.027763,0.078409
1417,-0.17087,-0.79309,0.10505,0.034669,0.28921,0.01132,0.070516
1418,-0.1814,-0.6349,0.0077021,-0.035708,0.2925,-0.0061104,0.056374
1419,-0.18732,-0.35767,-0.054125,-0.091287,0.29743,-0.018278,0.04026
1420,-0.1906,-0.0041372,-0.087341,-0.12352,0.31552,-0.028144,0.020528
1421,-0.18403,0.35531,-0.10082,-0.13174,0.35203,-0.035708,-0.0018351
1422,-0.16166,0.64603,-0.098851,-0.12056,0.39708,-0.040641,-0.020581
1423,-0.12582,0.81672,-0.079777,-0.092603,0.42503,-0.037682,-0.027158
1424,-0.079119,0.8519,-0.041299,-0.053138,0.40399,-0.026829,-0.021896
1425,-0.024198,0.77627,0.013951,-0.0051238,0.31881,-0.013674,-0.0041372
1426,0.026776,0.62729,0.07808,0.046837,0.182,0.0001381,0.022172
1427,0.064596,0.44115,0.14122,0.09551,0.029407,0.013293,0.050455
1428,0.089919,0.24383,0.18726,0.1307,-0.10346,0.023817,0.07216
1429,0.10472,0.048153,0.20272,0.14287,-0.19718,0.034998,0.083999
1430,0.11557,-0.15213,0.18069,0.12313,-0.24849,0.047495,0.089261
1431,0.11754,-0.37872,0.11985,0.067227,-0.26592,0.056046,0.091234
1432,0.10932,-0.64082,0.030394,-0.018936,-0.26,0.060979,0.08367
1433,0.10669,-0.90754,-0.073199,-0.11957,-0.24257,0.060979,0.063938
1434,0.12774,-1.1302,-0.16923,-0.20869,-0.21856,0.056374,0.041575
1435,0.17838,-1.2598,-0.23138,-0.2623,-0.19093,0.051441,0.021514
1436,0.25501,-1.2578,-0.23928,-0.26032,-0.15575,0.051441,0.0083598
1437,0.33756,-1.098,-0.19324,-0.20902,-0.11398,0.057032,0.0070443
1438,0.40399,-0.79473,-0.10839,-0.12648,-0.067937,0.066898,0.014937
1439,0.43852,-0.40733,-0.0097279,-0.039655,-0.022554,0.079724,0.028421
1440,0.4395,-0.020252,0.072818,0.027434,0.021843,0.088932,0.042891
1441,0.4155,0.29151,0.11886,0.068214,0.059334,0.087946,0.055388
1442,0.38524,0.49443,0.1284,0.094194,0.089261,0.082026,0.063938
1443,0.35959,0.59966,0.10965,0.12708,0.11327,0.078737,0.070187
1444,0.3346,0.63814,0.077751,0.17608,0.1353,0.081039,0.076764
1445,0.305,0.64472,0.042233,0.23922,0.15767,0.088603,0.084328
1446,0.2777,0.65656,0.0070443,0.30171,0.17904,0.096825,0.09551
1447,0.26652,0.72759,-0.026829,0.34117,0.20601,0.10406,0.10702
1448,0.27408,0.90222,-0.052481,0.34742,0.23988,0.10472,0.10834
1449,0.29151,1.1801,-0.061689,0.32703,0.27902,0.096167,0.094523
1450,0.29908,1.505,-0.053138,0.29678,0.32111,0.07512,0.07216
1451,0.27803,1.8,-0.032749,0.27672,0.35926,0.046508,0.052099
1452,0.22245,1.9977,-0.013345,0.27507,0.37636,0.021186,0.036314
1453,0.13728,2.0569,-0.0047949,0.27935,0.34578,0.0067154,0.026119
1454,0.030723,1.9631,-0.013017,0.28,0.25797,0.0014536,0.020857
1455,-0.082079,1.7224,-0.041957,0.2754,0.1284,-0.0008485,0.019541
1456,-0.18469,1.3515,-0.09918,0.26882,-0.010386,-0.004466,0.018226
1457,-0.25802,0.87295,-0.18469,0.25994,-0.1199,-0.0097279,0.017568
1458,-0.30143,0.32736,-0.26953,0.25172,-0.1735,-0.014661,0.016581
1459,-0.32182,-0.22744,-0.28927,0.23988,-0.16857,-0.015976,0.013293
1460,-0.33136,-0.73126,-0.17646,0.22114,-0.12384,-0.01499,0.0083598
1461,-0.33728,-1.1581,0.085972,0.18957,-0.066622,-0.01499,0.0001381
1462,-0.33925,-1.5061,0.43457,0.14352,-0.019265,-0.016634,-0.010715
1463,-0.33498,-1.7738,0.75686,0.094194,0.0040845,-0.016963,-0.021567
1464,-0.31459,-1.9362,0.95484,0.046837,-0.0015062,-0.014003,-0.027816
1465,-0.27249,-1.9586,0.98312,0.011977,-0.029789,-0.012359,-0.020909
1466,-0.2133,-1.8142,0.85125,-0.0087413,-0.06728,-0.010715,0.0021113
1467,-0.14917,-1.5057,0.58486,-0.020252,-0.09918,-0.0077547,0.031052
1468,-0.088327,-1.0841,0.23955,-0.036037,-0.11628,-0.00051963,0.052757
1469,-0.030775,-0.63326,-0.094905,-0.063004,-0.11661,0.013293,0.065254
1470,0.020857,-0.24717,-0.32215,-0.099838,-0.098193,0.032038,0.071173
1471,0.065254,0.0050711,-0.39944,-0.14456,-0.064649,0.050455,0.075778
1472,0.093865,0.10702,-0.34912,-0.19488,-0.021238,0.064596,0.077422
1473,0.10077,0.097483,-0.22875,-0.24487,0.030723,0.075778,0.074791
1474,0.087617,0.03434,-0.097864,-0.28499,0.087617,0.086959,0.074133
1475,0.059005,-0.028802,-0.0067681,-0.30867,0.14517,0.097812,0.081697
1476,0.024145,-0.057743,0.0080309,-0.31327,0.19943,0.10834,0.094852
1477,-0.010386,-0.022554,-0.067937,-0.30209,0.24153,0.12182,0.10866
1478,-0.038668,0.085315,-0.22645,-0.27973,0.25994,0.13464,0.11754
1479,-0.058071,0.24449,-0.42969,-0.2452,0.24218,0.14616,0.12281
1480,-0.065307,0.41912,-0.62537,-0.20738,0.18397,0.15109,0.12313
1481,-0.065635,0.57072,-0.76908,-0.17778,0.090905,0.14879,0.11853
1482,-0.061689,0.67037,-0.83749,-0.16199,-0.011372,0.1432,0.11195
1483,-0.0584,0.71049,-0.82203,-0.15607,-0.092603,0.13826,0.10406
1484,-0.04985,0.70589,-0.72666,-0.15081,-0.13963,0.13464,0.095181
1485,-0.026829,0.68122,-0.57571,-0.14095,-0.15969,0.12642,0.086301
1486,0.010662,0.66313,-0.41128,-0.12483,-0.16758,0.1136,0.083342
1487,0.051441,0.66346,-0.2623,-0.10346,-0.17975,0.10044,0.088603
1488,0.082026,0.67563,-0.11464,-0.074186,-0.19488,0.090248,0.096167
1489,0.091892,0.6776,0.10143,-0.036037,-0.20508,0.084986,0.10011
1490,0.079066,0.64998,0.43457,0.0063866,-0.20869,0.082026,0.098469
1491,0.051113,0.58454,0.83809,0.040918,-0.21889,0.077751,0.093865
1492,0.021843,0.48588,1.1972,0.061307,-0.24849,0.072489,0.08959
1493,-0.002164,0.36551,1.4087,0.066569,-0.2942,0.064267,0.082355
1494,-0.01499,0.23035,1.4297,0.064596,-0.34123,0.05177,0.073147
1495,-0.01795,0.087946,1.2873,0.063938,-0.37609,0.032038,0.059334
1496,-0.015319,-0.047548,1.0453,0.065583,-0.3945,0.014279,0.038944
1497,-0.013017,-0.14983,0.77824,0.06361,-0.39615,0.0017824,0.015595
1498,-0.010057,-0.20244,0.5408,0.052428,-0.38661,-0.0018351,0.00079584
1499,-0.0064392,-0.22349,0.35597,0.034669,-0.36754,0.0011247,-0.0024928
1500,-0.0031506,-0.25243,0.22212,0.019541,-0.3386,0.012306,0.0060577
1501,-0.0028217,-0.31755,0.12248,0.012306,-0.29782,0.026119,0.017568
1502,-0.011372,-0.41818,0.04618,0.016253,-0.24355,0.039273,0.027434
1503,-0.025842,-0.52375,-0.011701,0.029736,-0.18238,0.050126,0.030394
1504,-0.04097,-0.59149,-0.052481,0.047824,-0.11694,0.053743,0.020528
1505,-0.052481,-0.58755,-0.073857,0.067556,-0.051494,0.050784,0.0011247
1506,-0.062676,-0.50632,-0.077803,0.088603,0.016253,0.041904,-0.019923
1507,-0.073857,-0.36293,-0.076159,0.11064,0.085315,0.030394,-0.032749
1508,-0.07879,-0.18666,-0.079448,0.12873,0.15175,0.021514,-0.033735
1509,-0.07287,-0.011701,-0.089643,0.1376,0.20667,0.012964,-0.023869
1510,-0.050507,0.12905,-0.10017,0.13596,0.24153,0.0044134,-0.014003
1511,-0.01203,0.22048,-0.10872,0.12346,0.25337,-0.0077547,-0.010715
1512,0.033025,0.26586,-0.11562,0.10242,0.24186,-0.022883,-0.014003
1513,0.074133,0.27869,-0.11924,0.077422,0.21851,-0.039655,-0.020252
1514,0.10472,0.27902,-0.12483,0.056703,0.18858,-0.053467,-0.027158
1515,0.11985,0.27935,-0.13207,0.044864,0.16326,-0.064978,-0.035708
1516,0.11754,0.29743,-0.14029,0.037629,0.15043,-0.075501,-0.045903
1517,0.10768,0.33756,-0.14456,0.029407,0.14944,-0.082408,-0.051823
1518,0.097154,0.38327,-0.13864,0.019212,0.15503,-0.084381,-0.047548
1519,0.085315,0.40925,-0.12746,0.0093464,0.15799,-0.080763,-0.036366
1520,0.071831,0.38919,-0.12089,0.0040845,0.14977,-0.07024,-0.023869
1521,0.057032,0.32013,-0.12582,0.0060577,0.13037,-0.055769,-0.017292
1522,0.044535,0.22443,-0.14029,0.017568,0.11689,-0.041628,-0.015976
1523,0.034669,0.13728,-0.1564,0.032367,0.12609,-0.028473,-0.016305
1524,0.032038,0.081039,-0.16331,0.044535,0.16885,-0.019594,-0.017292
1525,0.039273,0.06065,-0.16134,0.056703,0.24087,-0.016634,-0.016634
1526,0.053743,0.060979,-0.15279,0.083342,0.3198,-0.017621,-0.013017
1527,0.068871,0.062294,-0.14621,0.13563,0.36979,-0.017621,-0.0097279
1528,0.082684,0.052757,-0.1495,0.20667,0.3665,-0.012359,-0.01203
1529,0.094852,0.032038,-0.16989,0.27836,0.31322,0.002769,-0.01795
1530,0.10373,0.028092,-0.20277,0.32769,0.22673,0.023817,-0.020909
1531,0.10866,0.079395,-0.23303,0.33723,0.13267,0.045193,-0.018936
1532,0.10439,0.23035,-0.24651,0.30467,0.049139,0.059992,-0.013345
1533,0.093865,0.51218,-0.23961,0.24153,-0.018607,0.061636,-0.0054526
1534,0.083342,0.90715,-0.21231,0.16654,-0.072542,0.052757,0.00046697
1535,0.076435,1.3409,-0.16758,0.094852,-0.11464,0.042233,0.0063866
1536,0.067556,1.7257,-0.097864,0.038287,-0.14423,0.034669,0.0057288
1537,0.059005,1.9881,0.0011247,-0.0028217,-0.15936,0.029407,-0.0028217
1538,0.059663,2.0799,0.11524,-0.031433,-0.15673,0.030394,-0.015976
1539,0.077093,1.9918,0.20831,-0.048863,-0.13305,0.032038,-0.023211
1540,0.11064,1.731,0.2389,-0.056427,-0.097207,0.030723,-0.023211
1541,0.1524,1.3136,0.18957,-0.054783,-0.06728,0.025461,-0.01795
1542,0.18496,0.75884,0.081697,-0.042944,-0.053796,0.019212,-0.012688
1543,0.19746,0.10899,-0.034722,-0.026829,-0.053467,0.017897,-0.0064392
1544,0.18562,-0.56321,-0.11332,-0.012688,-0.0584,0.021843,0.002769
1545,0.15536,-1.1973,-0.13864,-0.002164,-0.058729,0.029736,0.011977
1546,0.11261,-1.782,-0.12154,0.0063866,-0.044588,0.035985,0.017568
1547,0.065912,-2.3233,-0.083723,0.015266,-0.012688,0.0373,0.018884
1548,0.030065,-2.8166,-0.042615,0.024145,0.031381,0.031709,0.018226
1549,0.020857,-3.2053,-0.0054526,0.032367,0.072818,0.021514,0.01691
1550,0.049468,-3.3872,0.028092,0.039931,0.097483,0.0077021,0.01691
1551,0.10998,-3.2728,0.071173,0.040918,0.099456,-0.0061104,0.017897
1552,0.18299,-2.8429,0.14254,0.038944,0.083999,-0.016963,0.01691
1553,0.24087,-2.175,0.24942,0.039931,0.061636,-0.024527,0.011648
1554,0.26192,-1.4025,0.36288,0.050455,0.039602,-0.027158,0.0030979
1555,0.23955,-0.66483,0.4497,0.072489,0.023817,-0.025514,-0.0047949
1556,0.17542,-0.062347,0.49475,0.10472,0.01132,-0.017621,-0.0074258
1557,0.088275,0.36156,0.49673,0.14944,0.002769,-0.0067681,-0.0061104
1558,0.0050711,0.60657,0.45957,0.20272,-0.0074258,0.0037556,-0.0061104
1559,-0.060373,0.70194,0.40103,0.24679,-0.016963,0.011648,-0.0084125
1560,-0.098193,0.68747,0.32605,0.27343,-0.021238,0.01691,-0.0054526
1561,-0.11497,0.60032,0.231,0.2777,-0.017621,0.017568,0.0086887
1562,-0.12779,0.46976,0.098141,0.26619,-0.0064392,0.016581,0.02875
1563,-0.15081,0.3221,-0.080763,0.24712,0.010004,0.017239,0.045193
1564,-0.18271,0.17871,-0.28039,0.22443,0.02283,0.021514,0.04881
1565,-0.20244,0.058019,-0.45337,0.19318,0.02875,0.030394,0.038287
1566,-0.19192,-0.027816,-0.55236,0.14977,0.028092,0.036971,0.026776
1567,-0.14588,-0.077146,-0.56223,0.088603,0.024474,0.035985,0.021186
1568,-0.071884,-0.085696,-0.50434,0.0057288,0.021186,0.02579,0.025461
1569,0.015924,-0.052481,-0.41259,-0.095233,0.017568,0.011648,0.039602
1570,0.095839,0.011977,-0.30768,-0.20244,0.010004,-0.0015062,0.059663
1571,0.15043,0.089261,-0.19488,-0.30308,-0.004466,-0.011043,0.085644
1572,0.17411,0.16687,-0.060373,-0.38727,-0.027487,-0.014332,0.11097
1573,0.17411,0.24153,0.095181,-0.44975,-0.062018,-0.010386,0.13004
1574,0.16128,0.3119,0.23298,-0.48889,-0.094905,-0.0034794,0.13136
1575,0.1376,0.37011,0.29842,-0.49875,-0.10181,0.0030979,0.11952
1576,0.10439,0.41352,0.25863,-0.47705,-0.051165,0.015266,0.10538
1577,0.066569,0.44115,0.12445,-0.43068,0.076435,0.032696,0.099127
1578,0.034011,0.45562,-0.050836,-0.3626,0.26488,0.051113,0.10307
1579,0.015924,0.46417,-0.19324,-0.27381,0.46253,0.066569,0.11162
1580,0.012306,0.47009,-0.24553,-0.16035,0.60591,0.073476,0.1136
1581,0.020199,0.47141,-0.19291,-0.025185,0.64373,0.068871,0.10801
1582,0.035985,0.46055,-0.068266,0.1159,0.56382,0.058676,0.099456
1583,0.059992,0.4349,0.078737,0.23594,0.39412,0.05177,0.096167
1584,0.086959,0.4007,0.20798,0.30927,0.19746,0.04881,0.098141
1585,0.10077,0.36091,0.30368,0.32933,0.044864,0.047824,0.10077
1586,0.084986,0.31651,0.36189,0.30566,-0.019923,0.045522,0.1011
1587,0.039931,0.27211,0.37011,0.25271,0.0060577,0.040918,0.095839
1588,-0.011372,0.23166,0.31026,0.18693,0.098469,0.036314,0.085972
1589,-0.04393,0.20206,0.19088,0.12313,0.2162,0.03434,0.075449
1590,-0.04393,0.18661,0.049139,0.079724,0.3221,0.04026,0.072489
1591,-0.019265,0.17707,-0.059716,0.065912,0.38261,0.052099,0.081697
1592,0.011648,0.1649,-0.098522,0.074791,0.36946,0.064267,0.097154
1593,0.0373,0.14254,-0.068924,0.091563,0.27639,0.070516,0.10899
1594,0.05473,0.10768,-0.0034794,0.10242,0.12412,0.069529,0.11228
1595,0.06624,0.071831,0.059005,0.10735,-0.046561,0.067885,0.10636
1596,0.076435,0.051113,0.099127,0.11031,-0.19521,0.071831,0.097812
1597,0.088932,0.061307,0.12149,0.11557,-0.29847,0.079724,0.090248
1598,0.10242,0.10702,0.13695,0.12215,-0.34649,0.085972,0.085315
1599,0.11195,0.182,0.15273,0.13037,-0.33991,0.08663,0.085972
1600,0.11261,0.26948,0.16654,0.13728,-0.28663,0.082355,0.093536
1601,0.099785,0.35005,0.18134,0.14254,-0.19784,0.07512,0.10373
1602,0.062952,0.40333,0.19976,0.15207,-0.086683,0.068214,0.11327
1603,0.00046697,0.4201,0.21916,0.16852,0.045851,0.064267,0.11721
1604,-0.07583,0.40201,0.2287,0.18957,0.1922,0.060321,0.1159
1605,-0.14719,0.36222,0.21127,0.20765,0.33986,0.055717,0.10636
1606,-0.20771,0.31519,0.15569,0.21423,0.46647,0.050455,0.090905
1607,-0.25835,0.27112,0.067885,0.20634,0.55066,0.043877,0.073147
1608,-0.29584,0.23495,-0.024527,0.18891,0.57829,0.037629,0.059663
1609,-0.31623,0.21226,-0.084381,0.17016,0.54376,0.029736,0.052099
1610,-0.31294,0.20634,-0.089643,0.15372,0.46285,0.023817,0.04881
1611,-0.28927,0.21686,-0.041628,0.14221,0.354,0.021186,0.049797
1612,-0.24816,0.23363,0.035327,0.13366,0.24514,0.021186,0.054072
1613,-0.19192,0.24153,0.10176,0.13169,0.1603,0.026447,0.061307
1614,-0.12483,0.22179,0.12511,0.13563,0.10274,0.036971,0.064596
1615,-0.047548,0.16918,0.093536,0.14188,0.055388,0.049139,0.062623
1616,0.051441,0.095181,0.02283,0.14024,0.0001381,0.054401,0.057361
1617,0.17148,0.018884,-0.054454,0.12577,-0.068924,0.052099,0.047824
1618,0.30533,-0.041299,-0.10674,0.10669,-0.14325,0.041575,0.032038
1619,0.42799,-0.081421,-0.11891,0.086959,-0.20179,0.026447,0.015924
1620,0.51054,-0.10115,-0.097207,0.070187,-0.22777,0.0096753,0.0083598
1621,0.53027,-0.10082,-0.0584,0.055388,-0.22579,-0.0087413,0.012306
1622,0.47667,-0.085696,-0.019594,0.045193,-0.21034,-0.022883,0.021514
1623,0.35795,-0.063991,0.011648,0.033354,-0.20244,-0.024856,0.032367
1624,0.20009,-0.043601,0.035656,0.020199,-0.21198,-0.012359,0.038944
1625,0.04026,-0.031104,0.056046,0.0080309,-0.23665,0.010662,0.041575
1626,-0.09622,-0.027158,0.076435,-0.002164,-0.26559,0.036971,0.04026
1627,-0.19488,-0.027816,0.095181,-0.0077547,-0.28959,0.057032,0.037958
1628,-0.25539,-0.029131,0.10702,-0.016634,-0.30176,0.071173,0.038944
1629,-0.28137,-0.032091,0.10801,-0.029789,-0.31097,0.08367,0.04322
1630,-0.27808,-0.034393,0.10439,-0.044588,-0.32511,0.10077,0.050126
1631,-0.25539,-0.037682,0.097812,-0.058729,-0.34254,0.11919,0.058348
1632,-0.22218,-0.045246,0.087617,-0.07024,-0.34386,0.13234,0.058676
1633,-0.18403,-0.060045,0.073147,-0.07879,-0.30341,0.13629,0.049797
1634,-0.14226,-0.075173,0.055388,-0.086683,-0.21494,0.12807,0.038616
1635,-0.097207,-0.083065,0.040918,-0.094576,-0.10543,0.11097,0.027434
1636,-0.04393,-0.076159,0.032696,-0.10082,-0.012359,0.087288,0.019212
1637,0.023817,-0.057743,0.031052,-0.10707,0.026447,0.063281,0.012306
1638,0.10603,-0.032749,0.033025,-0.11036,0.00079584,0.042891,0.0057288
1639,0.18858,-0.01203,0.039602,-0.10609,-0.074186,0.028092,-0.00019077
1640,0.25435,-0.0024928,0.049468,-0.097864,-0.15706,0.015595,-0.0028217
1641,0.28757,-0.0034794,0.060979,-0.09326,-0.20935,0.00046697,-0.0031506
1642,0.27968,-0.0077547,0.07216,-0.096549,-0.21659,-0.019594,-0.0061104
1643,0.2287,-0.012688,0.081039,-0.10247,-0.19258,-0.041628,-0.018607
1644,0.14221,-0.013345,0.086959,-0.10346,-0.16561,-0.060045,-0.036037
1645,0.037629,-0.0080836,0.088932,-0.09622,-0.15607,-0.075501,-0.052481
1646,-0.070568,-0.00019077,0.086301,-0.08175,-0.16627,-0.086354,-0.06432
1647,-0.17022,0.0060577,0.082026,-0.068924,-0.18929,-0.091616,-0.073199
1648,-0.25408,0.015266,0.074133,-0.066951,-0.21297,-0.092274,-0.079119
1649,-0.31788,0.030065,0.05473,-0.079448,-0.22744,-0.088656,-0.083394
1650,-0.35767,0.049468,0.016581,-0.10707,-0.23237,-0.083065,-0.086354
1651,-0.36885,0.066898,-0.038339,-0.14259,-0.22875,-0.077475,-0.092274
1652,-0.33892,0.077093,-0.10247,-0.17778,-0.22382,-0.07287,-0.09918
1653,-0.2646,0.081368,-0.15213,-0.20047,-0.22448,-0.067609,-0.10247
1654,-0.15213,0.085315,-0.16791,-0.20606,-0.23402,-0.059716,-0.094576
1655,-0.023869,0.087288,-0.14456,-0.19883,-0.25177,-0.048205,-0.075501
1656,0.090905,0.069858,-0.10411,-0.18666,-0.27216,-0.031433,-0.052152
1657,0.15799,0.021514,-0.066951,-0.17252,-0.28203,-0.012688,-0.031104
1658,0.15339,-0.063991,-0.046232,-0.15344,-0.26822,0.0070443,-0.012688
1659,0.082026,-0.1735,-0.045574,-0.1245,-0.22645,0.023817,0.0024402
1660,-0.016963,-0.28006,-0.063662,-0.086025,-0.15509,0.04026,0.0090175
1661,-0.089643,-0.36293,-0.093589,-0.036366,-0.062676,0.056374,0.0090175
1662,-0.094247,-0.41917,-0.12648,0.01691,0.036314,0.073147,0.010333
1663,-0.020252,-0.45567,-0.14621,0.067227,0.11228,0.08663,0.022172
1664,0.10834,-0.47771,-0.1416,0.10702,0.14747,0.096496,0.042233
1665,0.25468,-0.48034,-0.11168,0.12938,0.15142,0.10538,0.062952
1666,0.38853,-0.45041,-0.071884,0.13366,0.16194,0.1205,0.075449
1667,0.50626,-0.37839,-0.04985,0.12215,0.21883,0.14188,0.076435
1668,0.61972,-0.27249,-0.074186,0.099456,0.3346,0.16589,0.068543
1669,0.7368,-0.15509,-0.15443,0.071831,0.50528,0.18365,0.053743
1670,0.83546,-0.059387,-0.26822,0.045193,0.72299,0.19055,0.037629
1671,0.8838,-0.0031506,-0.38628,0.025461,0.95583,0.18595,0.026119
1672,0.85651,0.015924,-0.47968,0.019212,1.1479,0.17477,0.021514
1673,0.75456,0.011977,-0.53065,0.031052,1.2301,0.16359,0.024145
1674,0.60197,0.0037556,-0.53361,0.061965,1.1624,0.15471,0.025461
1675,0.4201,-0.002164,-0.49251,0.10834,0.95254,0.1501,0.01987
1676,0.23462,-0.0011774,-0.41391,0.15799,0.65261,0.14254,0.010004
1677,0.07512,0.0070443,-0.28433,0.19647,0.3346,0.12971,0.0044134
1678,-0.033406,0.020199,-0.079119,0.21456,0.06361,0.1136,0.0044134
1679,-0.086683,0.033354,0.19549,0.21588,-0.12286,0.09551,0.0083598
1680,-0.099838,0.037958,0.48522,0.21423,-0.21691,0.077093,0.013622
1681,-0.098193,0.026776,0.72102,0.22179,-0.23928,0.059663,0.020528
1682,-0.10411,0.0030979,0.8644,0.23561,-0.22185,0.04026,0.025461
1683,-0.12911,-0.021896,0.92261,0.25468,-0.19093,0.018884,0.030065
1684,-0.17054,-0.030118,0.92294,0.28,-0.15377,-0.0038083,0.033354
1685,-0.20508,-0.0097279,0.88972,0.31421,-0.10937,-0.024856,0.035327
1686,-0.21987,0.036971,0.82954,0.35334,-0.058729,-0.040313,0.039602
1687,-0.21593,0.09551,0.74075,0.38886,-0.0080836,-0.047548,0.050455
1688,-0.20047,0.15273,0.62071,0.40563,0.035327,-0.047548,0.063938
1689,-0.18797,0.19812,0.47371,0.39577,0.067885,-0.042944,0.07216
1690,-0.18633,0.22607,0.31486,0.35926,0.089919,-0.039326,0.071502
1691,-0.1962,0.23199,0.15602,0.30566,0.10735,-0.039655,0.063281
1692,-0.20935,0.21555,-0.0038083,0.25172,0.11853,-0.043272,0.057361
1693,-0.21757,0.18299,-0.17449,0.20535,0.12116,-0.045574,0.059663
1694,-0.21494,0.15602,-0.33958,0.16852,0.11097,-0.047548,0.067227
1695,-0.2008,0.16753,-0.44153,0.14188,0.077751,-0.051165,0.074791
1696,-0.18666,0.23725,-0.42246,0.12511,0.023159,-0.052481,0.07808
1697,-0.17877,0.35137,-0.26394,0.12116,-0.054783,-0.04985,0.075778
1698,-0.17383,0.48061,-0.014003,0.13004,-0.13832,-0.044259,0.072818
1699,-0.16232,0.59703,0.22508,0.14747,-0.19981,-0.041957,0.071831
1700,-0.13733,0.69668,0.35729,0.16095,-0.20869,-0.040641,0.071831
1701,-0.10641,0.79534,0.33756,0.16063,-0.15542,-0.040641,0.070187
1702,-0.076817,0.89564,0.19812,0.14944,-0.059387,-0.039984,0.063938
1703,-0.056427,0.99529,0.025461,0.13399,0.045193,-0.036366,0.054401
1704,-0.050836,1.0759,-0.096878,0.11294,0.1205,-0.029789,0.044206
1705,-0.062676,1.0989,-0.13799,0.079395,0.1432,-0.022883,0.033683
1706,-0.087669,1.0302,-0.12187,0.032696,0.1113,-0.017621,0.023159
1707,-0.1245,0.85684,-0.097864,-0.023869,0.043877,-0.013345,0.013951
1708,-0.15936,0.5944,-0.098851,-0.084052,-0.03538,-0.011043,0.0073732
1709,-0.18074,0.27704,-0.13601,-0.13733,-0.10411,-0.0077547,0.010004
1710,-0.18337,-0.063004,-0.19455,-0.17285,-0.14621,-0.004466,0.022172
1711,-0.1712,-0.40536,-0.25145,-0.18567,-0.16035,-0.0011774,0.034669
1712,-0.15081,-0.74047,-0.28795,-0.18403,-0.1564,0.0011247,0.039602
1713,-0.12713,-1.0621,-0.2988,-0.17383,-0.14588,0.0021113,0.035985
1714,-0.10082,-1.3614,-0.29288,-0.15509,-0.13174,0.0037556,0.030065
1715,-0.076488,-1.6159,-0.29157,-0.13141,-0.11168,0.0080309,0.030065
1716,-0.053796,-1.8001,-0.30867,-0.10806,-0.084381,0.018884,0.037958
1717,-0.034393,-1.8892,-0.34846,-0.088656,-0.05281,0.035656,0.056703
1718,-0.019594,-1.8701,-0.40568,-0.072542,-0.016305,0.057032,0.083013
1719,-0.0051238,-1.7373,-0.44679,-0.059716,0.02283,0.080382,0.10768
1720,0.01132,-1.4975,-0.3968,-0.048863,0.052099,0.10242,0.12017
1721,0.026119,-1.1654,-0.2008,-0.042944,0.059992,0.11557,0.11787
1722,0.032367,-0.77434,0.10143,-0.04689,0.028092,0.11426,0.1011
1723,0.025132,-0.37806,0.40464,-0.067937,-0.053467,0.098469,0.068871
1724,0.0047422,-0.034064,0.6115,-0.1051,-0.17416,0.070845,0.024803
1725,-0.022883,0.21719,0.68254,-0.15048,-0.30406,0.04026,-0.019594
1726,-0.051165,0.36518,0.63419,-0.19159,-0.40503,0.017568,-0.052481
1727,-0.074844,0.42372,0.51843,-0.21527,-0.45173,0.0093464,-0.063991
1728,-0.087341,0.42503,0.39281,-0.21922,-0.4366,0.014608,-0.056098
1729,-0.081421,0.40366,0.29513,-0.2031,-0.36162,0.027105,-0.040641
1730,-0.05281,0.3882,0.24284,-0.17811,-0.24322,0.039931,-0.027816
1731,-0.0031506,0.4007,0.23199,-0.15279,-0.10707,0.049139,-0.017621
1732,0.061307,0.44378,0.24383,-0.12812,0.026447,0.054072,-0.011043
1733,0.1284,0.50396,0.25567,-0.10543,0.1501,0.055388,-0.0077547
1734,0.18332,0.5625,0.25106,-0.084381,0.25764,0.052757,-0.004466
1735,0.21752,0.60558,0.22574,-0.065635,0.34775,0.045851,-0.0018351
1736,0.22475,0.62762,0.18726,-0.048534,0.41681,0.040918,0.0030979
1737,0.2093,0.63551,0.15076,-0.030775,0.4645,0.044206,0.012635
1738,0.17641,0.63715,0.13596,-0.01203,0.50035,0.059005,0.024145
1739,0.13892,0.63584,0.1455,0.0090175,0.52994,0.083013,0.031709
1740,0.10439,0.65426,0.15799,0.032367,0.5477,0.11228,0.02875
1741,0.07808,0.73187,0.15602,0.057032,0.54606,0.13826,0.014279
1742,0.055717,0.88315,0.13925,0.087617,0.52205,0.15339,-0.0018351
1743,0.027105,1.0752,0.11195,0.12905,0.49443,0.15602,-0.0087413
1744,-0.011701,1.2525,0.071831,0.18134,0.49147,0.14648,-0.0097279
1745,-0.059716,1.3735,0.016581,0.2389,0.52633,0.12905,-0.0074258
1746,-0.12483,1.4185,-0.045903,0.29415,0.57829,0.10538,-0.0047949
1747,-0.21067,1.3863,-0.10115,0.33295,0.60295,0.078737,-0.0041372
1748,-0.29979,1.2913,-0.13601,0.34907,0.56776,0.052099,-0.0031506
1749,-0.36425,1.1601,-0.14226,0.34709,0.47634,0.031052,-0.0018351
1750,-0.3899,1.0071,-0.11924,0.33558,0.36189,0.022172,-0.00019077
1751,-0.38135,0.82527,-0.080763,0.32374,0.2708,0.020199,0.0030979
1752,-0.34978,0.58717,-0.048863,0.30566,0.22739,0.019212,0.0054
1753,-0.30801,0.27244,-0.047219,0.26849,0.22443,0.010991,0.0057288
1754,-0.26526,-0.10017,-0.085039,0.20765,0.23594,-0.007097,0.0090175
1755,-0.22316,-0.47738,-0.15476,0.1307,0.23626,-0.030447,0.016581
1756,-0.1735,-0.81019,-0.23533,0.04881,0.20963,-0.051165,0.024474
1757,-0.11069,-1.0874,-0.30242,-0.028144,0.15306,-0.066622,0.029736
1758,-0.022225,-1.3344,-0.34451,-0.092274,0.076106,-0.073199,0.030065
1759,0.098798,-1.5682,-0.37082,-0.13568,-0.0057815,-0.070897,0.027434
1760,0.25139,-1.7675,-0.40108,-0.15279,-0.079448,-0.061689,0.029736
1761,0.43326,-1.8774,-0.44811,-0.14818,-0.14555,-0.049192,0.038944
1762,0.62433,-1.8563,-0.50895,-0.13404,-0.20639,-0.039326,0.04881
1763,0.79501,-1.6958,-0.5665,-0.11858,-0.26789,-0.034064,0.05769
1764,0.90551,-1.4318,-0.59643,-0.10543,-0.32248,-0.028802,0.06065
1765,0.93248,-1.1177,-0.57867,-0.1005,-0.36523,-0.023869,0.056374
1766,0.87657,-0.79309,-0.50928,-0.1028,-0.39615,-0.020252,0.04618
1767,0.75818,-0.45469,-0.38365,-0.1051,-0.41719,-0.021238,0.035656
1768,0.60821,-0.055769,-0.20508,-0.098851,-0.43068,-0.025842,0.030065
1769,0.45529,0.42898,0.00079584,-0.078461,-0.43824,-0.031104,0.032696
1770,0.32111,0.96767,0.18891,-0.047219,-0.43693,-0.034393,0.039273
1771,0.22245,1.4925,0.3221,-0.020581,-0.42969,-0.037353,0.042891
1772,0.16852,1.9467,0.38886,-0.0057815,-0.42147,-0.037024,0.040918
1773,0.15569,2.3111,0.39774,-0.0047949,-0.41917,-0.03242,0.036314
1774,0.16983,2.584,0.37176,-0.0093991,-0.41785,-0.0265,0.032367
1775,0.18924,2.7508,0.33493,-0.017292,-0.41062,-0.022225,0.029078
1776,0.20436,2.7731,0.31026,-0.02354,-0.40272,-0.019923,0.02579
1777,0.21752,2.6153,0.31421,-0.028473,-0.39845,-0.01795,0.026776
1778,0.23922,2.2476,0.34644,-0.0265,-0.39417,-0.014003,0.032696
1779,0.27902,1.656,0.39281,-0.014332,-0.37872,-0.0084125,0.042562
1780,0.32111,0.86374,0.42569,0.0090175,-0.3409,0.0014536,0.052757
1781,0.33525,-0.082408,0.41681,0.034011,-0.27611,0.014608,0.059334
1782,0.30007,-1.1101,0.35893,0.04618,-0.18995,0.030723,0.066898
1783,0.21456,-2.1408,0.26521,0.044206,-0.095562,0.050126,0.074791
1784,0.1011,-3.0837,0.16227,0.034998,-0.014003,0.067885,0.080053
1785,-0.014003,-3.8279,0.082026,0.029736,0.032367,0.079724,0.076764
1786,-0.10576,-4.2449,0.045851,0.03434,0.034669,0.086301,0.06065
1787,-0.16002,-4.236,0.053743,0.058019,0.0067154,0.090577,0.034998
1788,-0.17844,-3.7822,0.087946,0.10538,-0.02946,0.094523,0.01132
1789,-0.17022,-2.9929,0.12511,0.17312,-0.060045,0.097154,-0.0008485
1790,-0.14851,-2.0609,0.14287,0.24613,-0.072213,0.099127,0.0001381
1791,-0.12089,-1.1759,0.12511,0.3119,-0.060373,0.10439,0.0073732
1792,-0.087998,-0.45304,0.071831,0.35827,-0.030447,0.11261,0.016253
1793,-0.054454,0.082026,-0.0015062,0.38721,0.00079584,0.11985,0.027105
1794,-0.031762,0.44345,-0.072542,0.39938,0.014608,0.11886,0.04026
1795,-0.0265,0.65426,-0.12187,0.39149,0.0030979,0.11031,0.053415
1796,-0.035051,0.72595,-0.1393,0.35268,-0.031762,0.09551,0.060979
1797,-0.048534,0.67004,-0.12417,0.26948,-0.08175,0.073476,0.062623
1798,-0.062676,0.50791,-0.087998,0.13497,-0.13634,0.045193,0.064596
1799,-0.083065,0.27376,-0.04097,-0.035708,-0.1837,0.01691,0.071831
1800,-0.11332,0.0063866,0.0040845,-0.20442,-0.20803,-0.0067681,0.081039
1801,-0.15542,-0.25572,0.04322,-0.32708,-0.20475,-0.024198,0.088932
1802,-0.20869,-0.48099,0.076435,-0.37674,-0.17712,-0.033735,0.091563
1803,-0.2669,-0.63918,0.10274,-0.35339,-0.13338,-0.036037,0.086959
1804,-0.31886,-0.69739,0.12708,-0.28137,-0.079777,-0.029131,0.075449
1805,-0.35964,-0.62701,0.15175,-0.18929,-0.0265,-0.016634,0.056703
1806,-0.38661,-0.42739,0.17542,-0.10378,0.012635,-0.0015062,0.0373
1807,-0.39187,-0.12878,0.19088,-0.037682,0.033354,0.013293,0.023159
1808,-0.3728,0.21456,0.19318,0.0037556,0.036971,0.024474,0.015595
1809,-0.33235,0.5408,0.18167,0.021514,0.026119,0.032696,0.013293
1810,-0.28631,0.796,0.16128,0.022501,-0.0011774,0.036971,0.013951
1811,-0.24914,0.95254,0.13695,0.0077021,-0.034722,0.040918,0.018884
1812,-0.22481,1.0163,0.11228,-0.01795,-0.056427,0.043877,0.027763
1813,-0.20277,1.0098,0.090577,-0.050836,-0.056098,0.048482,0.037958
1814,-0.17219,0.94695,0.073147,-0.08175,-0.028473,0.055388,0.053743
1815,-0.1347,0.83151,0.05473,-0.1074,0.030065,0.067227,0.077422
