,channel_1,channel_2,channel_3,channel_4,channel_5,channel_6,channel_7
0,0.40958,0.16622,0.041247,0.059005,-0.087341,0.050455,0.062952
1,0.38524,0.22344,0.049468,0.051113,-0.16956,0.0001381,0.035656
2,0.33525,0.27836,0.056046,0.034998,-0.22185,-0.056098,0.0054
3,0.27573,0.3119,0.059663,0.015595,-0.23961,-0.11299,-0.021567
4,0.22081,0.31717,0.060979,-0.0047949,-0.22579,-0.1643,-0.041628
5,0.17312,0.29743,0.068214,-0.018278,-0.19225,-0.2008,-0.053796
6,0.12675,0.26192,0.081697,-0.019265,-0.15443,-0.21231,-0.056427
7,0.071502,0.22278,0.096496,-0.0097279,-0.1245,-0.1985,-0.054125
8,0.0021113,0.18825,0.10307,0.0057288,-0.10773,-0.16923,-0.050836
9,-0.074844,0.16161,0.094194,0.01691,-0.10641,-0.13634,-0.053138
10,-0.14391,0.14287,0.071502,0.023817,-0.12154,-0.11102,-0.063662
11,-0.18962,0.12511,0.037629,0.026119,-0.15805,-0.096878,-0.082079
12,-0.21001,0.1034,0.0034268,0.024145,-0.21955,-0.095891,-0.10937
13,-0.20639,0.082684,-0.022225,0.016253,-0.2988,-0.10247,-0.14193
14,-0.18337,0.070516,-0.033735,0.0083598,-0.38299,-0.10609,-0.16989
15,-0.14062,0.071502,-0.03242,0.0044134,-0.45501,-0.099509,-0.18304
16,-0.077475,0.079066,-0.027816,0.0086887,-0.50566,-0.077146,-0.17712
17,0.017897,0.087946,-0.026171,0.022501,-0.52835,-0.038997,-0.15575
18,0.14648,0.10077,-0.027487,0.041904,-0.5175,0.0083598,-0.12582
19,0.28855,0.12248,-0.02946,0.058019,-0.4754,0.056046,-0.099509
20,0.39741,0.15175,-0.026829,0.064925,-0.40963,0.091563,-0.091945
21,0.44148,0.17773,-0.018936,0.061307,-0.3284,0.10801,-0.1074
22,0.41681,0.19417,-0.013017,0.051441,-0.24289,0.10373,-0.13733
23,0.34052,0.19384,-0.014661,0.044864,-0.16134,0.088932,-0.16298
24,0.24449,0.17937,-0.022883,0.039273,-0.087012,0.072489,-0.17285
25,0.16457,0.15734,-0.034064,0.027763,-0.01795,0.062294,-0.16298
26,0.13596,0.13432,-0.045246,0.0086887,0.046837,0.058348,-0.13963
27,0.18036,0.10965,-0.054125,-0.012688,0.1011,0.057032,-0.11332
28,0.28625,0.081368,-0.063991,-0.029131,0.14122,0.052428,-0.092274
29,0.4178,0.046508,-0.077803,-0.038339,0.15997,0.045193,-0.082079
30,0.53718,0.002769,-0.095562,-0.041957,0.15175,0.034669,-0.078132
31,0.61907,-0.048205,-0.11332,-0.039984,0.11458,0.024474,-0.074186
32,0.64636,-0.091616,-0.1245,-0.030775,0.057032,0.01987,-0.063991
33,0.60788,-0.11562,-0.1268,-0.016305,-0.0038083,0.022172,-0.046232
34,0.51054,-0.12253,-0.11891,-0.0008485,-0.046232,0.031381,-0.023869
35,0.3711,-0.11891,-0.10543,0.015924,-0.066622,0.045193,-0.0008485
36,0.21588,-0.10444,-0.0903,0.029736,-0.08175,0.057361,0.018226
37,0.072818,-0.079119,-0.072213,0.034998,-0.11168,0.061307,0.030065
38,-0.045574,-0.04689,-0.050179,0.032696,-0.15936,0.055717,0.03434
39,-0.14456,-0.015976,-0.020909,0.029407,-0.20639,0.045193,0.03434
40,-0.23533,0.0086887,0.013951,0.035327,-0.23369,0.033354,0.036314
41,-0.32084,0.021514,0.049139,0.050455,-0.22645,0.020857,0.042891
42,-0.39549,0.02283,0.076764,0.071502,-0.186,0.0090175,0.049797
43,-0.44811,0.018884,0.093536,0.087617,-0.12944,0.0014536,0.051113
44,-0.47376,0.016253,0.096167,0.094852,-0.069582,0.002769,0.049139
45,-0.4708,0.021514,0.087288,0.091234,-0.011701,0.010991,0.047495
46,-0.44679,0.035327,0.07512,0.080382,0.041247,0.018555,0.044206
47,-0.41687,0.050784,0.065254,0.071173,0.089261,0.01987,0.042891
48,-0.39056,0.060979,0.059663,0.067556,0.13695,0.014279,0.042233
49,-0.36359,0.061965,0.05769,0.07216,0.18792,0.0063866,0.044535
50,-0.32774,0.056374,0.055388,0.082026,0.24186,0.002769,0.05177
51,-0.27611,0.050126,0.053743,0.091563,0.2925,0.012306,0.060979
52,-0.20508,0.04618,0.050126,0.099127,0.33361,0.034998,0.065912
53,-0.11957,0.038616,0.045193,0.10274,0.37044,0.060979,0.065254
54,-0.034722,0.024145,0.036971,0.10209,0.41221,0.082684,0.062294
55,0.031709,0.0083598,0.023817,0.098798,0.45759,0.099127,0.061965
56,0.068543,-0.00051963,0.0093464,0.092879,0.49081,0.10801,0.061307
57,0.077751,0.0070443,-0.0008485,0.083013,0.49311,0.10866,0.065254
58,0.062952,0.030723,-0.0047949,0.073147,0.45233,0.10143,0.075778
59,0.031381,0.063938,-0.007097,0.068543,0.35597,0.090577,0.089261
60,-0.0093991,0.090577,-0.0097279,0.070516,0.20075,0.080382,0.10077
61,-0.042286,0.10274,-0.010715,0.072818,0.0034268,0.070516,0.11097
62,-0.059716,0.099127,-0.0077547,0.069858,-0.2008,0.05769,0.12083
63,-0.068266,0.082355,-0.00051963,0.058348,-0.38003,0.041904,0.13497
64,-0.082408,0.056703,0.0083598,0.042233,-0.51553,0.025132,0.15372
65,-0.10905,0.029407,0.012635,0.02283,-0.60268,0.0060577,0.17016
66,-0.15114,0.010662,0.015595,0.0040845,-0.64707,-0.010386,0.17871
67,-0.20606,0.0057288,0.022172,-0.010386,-0.66319,-0.014003,0.17806
68,-0.27052,0.010004,0.033025,-0.020909,-0.65233,0.0014536,0.17115
69,-0.33202,0.018555,0.052099,-0.031433,-0.60268,0.024474,0.15767
70,-0.37839,0.027763,0.077422,-0.04097,-0.49514,0.047824,0.14089
71,-0.39944,0.031052,0.095839,-0.044588,-0.31919,0.060979,0.12083
72,-0.39286,0.022501,0.095839,-0.04097,-0.093918,0.061965,0.096825
73,-0.36754,-0.0024928,0.077093,-0.033078,0.1353,0.052757,0.073147
74,-0.333,-0.044259,0.042562,-0.027158,0.32177,0.041247,0.049139
75,-0.30078,-0.092931,0.0037556,-0.027158,0.44115,0.031709,0.031052
76,-0.27348,-0.13832,-0.022883,-0.034064,0.50331,0.02875,0.026447
77,-0.24881,-0.16989,-0.031433,-0.040641,0.53948,0.03434,0.036971
78,-0.22152,-0.17646,-0.027816,-0.038339,0.58355,0.050784,0.06065
79,-0.19126,-0.15377,-0.015976,-0.023869,0.65228,0.071502,0.088275
80,-0.15969,-0.083723,-0.0028217,-0.0008485,0.73351,0.089919,0.11623
81,-0.12352,0.084986,0.012635,0.023488,0.80948,0.10011,0.14089
82,-0.071555,0.38228,0.0373,0.048482,0.89433,0.10176,0.16194
83,0.0070443,0.76936,0.067885,0.071831,1.016,0.096825,0.17674
84,0.10768,1.1489,0.096825,0.094523,1.1821,0.09255,0.18102
85,0.20996,1.4162,0.11557,0.11426,1.3518,0.091563,0.17444
86,0.28855,1.4965,0.12445,0.13004,1.459,0.095839,0.15536
87,0.32605,1.3715,0.12149,0.13991,1.4508,0.10538,0.12609
88,0.31717,1.0755,0.10834,0.14714,1.308,0.11853,0.090577
89,0.27408,0.67958,0.087617,0.14747,1.0571,0.12708,0.053415
90,0.20996,0.25337,0.066569,0.13629,0.75522,0.12215,0.020199
91,0.14089,-0.14621,0.051441,0.11261,0.46581,0.10077,-0.0018351
92,0.071502,-0.48856,0.043877,0.080053,0.22212,0.066898,-0.0090702
93,0.0054,-0.76875,0.045851,0.049797,0.026776,0.031381,0.00079584
94,-0.053796,-0.98942,0.058019,0.027763,-0.13371,-0.0011774,0.023159
95,-0.10937,-1.1522,0.077422,0.015924,-0.2692,-0.027816,0.04618
96,-0.16002,-1.2637,0.093208,0.0083598,-0.3797,-0.045246,0.058019
97,-0.19587,-1.3295,0.097483,0.00079584,-0.45633,-0.053467,0.059334
98,-0.19784,-1.362,0.091892,-0.0018351,-0.48987,-0.047219,0.058348
99,-0.15443,-1.3676,0.075449,-0.002164,-0.47935,-0.024198,0.058019
100,-0.075173,-1.3479,0.052428,-0.0011774,-0.43528,0.013293,0.05473
101,0.016253,-1.2979,0.029407,-0.00051963,-0.37773,0.058676,0.051441
102,0.088603,-1.214,0.0083598,-0.002164,-0.32511,0.10866,0.04322
103,0.12313,-1.093,-0.0077547,-0.0054526,-0.28894,0.16622,0.029736
104,0.11754,-0.93779,-0.019594,-0.012359,-0.26822,0.23331,0.013622
105,0.085972,-0.76053,-0.025514,-0.014661,-0.25737,0.30401,0.00079584
106,0.047824,-0.57571,-0.030447,-0.0090702,-0.24421,0.37274,-0.0080836
107,0.02283,-0.39286,-0.03538,0.0050711,-0.22514,0.43063,-0.013017
108,0.022501,-0.21395,-0.042615,0.019212,-0.20212,0.47305,-0.010057
109,0.047495,-0.043601,-0.045903,0.027434,-0.17975,0.49081,0.00079584
110,0.094194,0.10866,-0.039984,0.029736,-0.15772,0.48324,0.016253
111,0.1672,0.23429,-0.024527,0.034011,-0.13733,0.45069,0.036314
112,0.26948,0.32901,-0.0051238,0.045193,-0.11825,0.39708,0.054072
113,0.39642,0.39182,0.013951,0.057032,-0.10477,0.32736,0.06624
114,0.526,0.42142,0.034669,0.061965,-0.10082,0.24679,0.067885
115,0.62499,0.42273,0.052757,0.058348,-0.10674,0.15799,0.063281
116,0.66708,0.40037,0.06065,0.04881,-0.12023,0.068543,0.05769
117,0.65327,0.36156,0.057361,0.039273,-0.13832,-0.022554,0.052757
118,0.60558,0.31552,0.051441,0.035327,-0.16035,-0.11464,0.048482
119,0.55231,0.26981,0.050784,0.04026,-0.18337,-0.20376,0.042233
120,0.501,0.22903,0.05769,0.054401,-0.2031,-0.28236,0.033683
121,0.45398,0.19647,0.068214,0.072818,-0.21527,-0.33531,0.024803
122,0.41287,0.17312,0.077422,0.089919,-0.22185,-0.35899,0.016253
123,0.37801,0.15109,0.080382,0.099127,-0.21593,-0.35274,0.0083598
124,0.34183,0.12445,0.07216,0.097812,-0.19521,-0.32445,0.00079584
125,0.29546,0.095839,0.053743,0.095181,-0.16199,-0.28598,-0.0051238
126,0.23396,0.07216,0.024474,0.098798,-0.1245,-0.24158,-0.0077547
127,0.16523,0.064267,-0.0054526,0.11327,-0.085039,-0.18534,-0.0067681
128,0.10077,0.081368,-0.025185,0.14089,-0.050179,-0.1097,0.00079584
129,0.043877,0.12313,-0.028144,0.1774,-0.032749,-0.015976,0.015266
130,-0.0054526,0.18134,-0.019923,0.21719,-0.036037,0.088932,0.026447
131,-0.053796,0.23824,-0.010057,0.25238,-0.035051,0.19285,0.025461
132,-0.10872,0.27836,-0.0028217,0.28165,-0.0084125,0.28264,0.011977
133,-0.16989,0.2925,0.0017824,0.29382,0.027105,0.35104,-0.0080836
134,-0.22941,0.28198,0.0070443,0.28066,0.033025,0.38952,-0.03242
135,-0.27743,0.25205,0.0083598,0.24054,-0.012688,0.3905,-0.057085
136,-0.30176,0.20831,0.0067154,0.18069,-0.094247,0.35597,-0.078461
137,-0.2988,0.16326,-0.0008485,0.099127,-0.1712,0.2925,-0.096878
138,-0.26986,0.12478,-0.011043,-0.0034794,-0.21527,0.21061,-0.11464
139,-0.22086,0.098141,-0.015976,-0.1199,-0.21297,0.12215,-0.13799
140,-0.15542,0.082026,-0.011043,-0.23007,-0.17087,0.042891,-0.16627
141,-0.085039,0.073804,0.002769,-0.30834,-0.10872,-0.021238,-0.18666
142,-0.016963,0.064267,0.024145,-0.34057,-0.048534,-0.07287,-0.18995
143,0.039602,0.051113,0.045522,-0.32676,-0.0077547,-0.11793,-0.17646
144,0.082355,0.035656,0.061636,-0.28367,0.0077021,-0.15673,-0.15377
145,0.1159,0.028092,0.069858,-0.22842,-0.0028217,-0.18666,-0.13272
146,0.1501,0.041247,0.0692,-0.17811,-0.025842,-0.20771,-0.11595
147,0.19516,0.074462,0.057032,-0.13667,-0.045246,-0.21889,-0.094576
148,0.256,0.12412,0.039273,-0.10543,-0.046232,-0.21659,-0.071555
149,0.32506,0.1843,0.021186,-0.079119,-0.036366,-0.20409,-0.051494
150,0.38097,0.23955,0.011977,-0.0584,-0.029789,-0.1837,-0.033735
151,0.40037,0.27639,0.012635,-0.042944,-0.033735,-0.16199,-0.013674
152,0.37176,0.28691,0.010991,-0.031433,-0.057085,-0.14489,0.0047422
153,0.29908,0.27573,0.0047422,-0.020909,-0.11299,-0.13503,0.017897
154,0.20305,0.25304,-0.004466,-0.0090702,-0.20442,-0.13503,0.027105
155,0.10472,0.22936,-0.0090702,0.0080309,-0.32281,-0.13963,0.033683
156,0.018226,0.21686,-0.007097,0.030065,-0.44613,-0.13009,0.033683
157,-0.04985,0.22048,-0.002164,0.054401,-0.5517,-0.094576,0.02283
158,-0.093918,0.23824,0.00079584,0.076764,-0.62339,-0.038339,0.0057288
159,-0.11891,0.26027,0.002769,0.092221,-0.65628,0.018555,-0.010386
160,-0.12845,0.2708,0.0044134,0.099785,-0.64707,0.060321,-0.01795
161,-0.1222,0.26455,0.0067154,0.097483,-0.59051,0.076435,-0.018278
162,-0.10477,0.24778,0.0096753,0.08367,-0.47738,0.062623,-0.013017
163,-0.07879,0.22541,0.0096753,0.062294,-0.30702,0.024474,-0.011701
164,-0.050836,0.19812,0.0070443,0.045522,-0.091945,-0.029789,-0.020581
165,-0.023869,0.16359,0.0014536,0.040589,0.13662,-0.092274,-0.038668
166,-0.0011774,0.12149,-0.0054526,0.044864,0.34709,-0.1564,-0.058071
167,0.021843,0.078409,-0.01499,0.05177,0.51909,-0.20902,-0.062676
168,0.047824,0.041247,-0.027487,0.058019,0.6457,-0.24322,-0.056098
169,0.077751,0.013293,-0.041299,0.065583,0.72266,-0.25441,-0.041957
170,0.10406,-0.0034794,-0.054454,0.072818,0.75555,-0.23895,-0.022883
171,0.11689,-0.0038083,-0.058071,0.077751,0.75884,-0.19948,-0.002164
172,0.10603,0.017239,-0.048205,0.082026,0.75292,-0.13766,0.017568
173,0.072489,0.055717,-0.032091,0.082026,0.75094,-0.064978,0.032367
174,0.021186,0.10077,-0.01499,0.078737,0.74667,0.0047422,0.042891
175,-0.038339,0.13859,0.0001381,0.074791,0.7243,0.059663,0.05473
176,-0.094905,0.16128,0.012306,0.067885,0.67169,0.094523,0.064596
177,-0.13799,0.1695,0.022501,0.056703,0.60229,0.10702,0.067885
178,-0.15969,0.16983,0.028092,0.047824,0.54803,0.10077,0.069858
179,-0.15443,0.1649,0.029407,0.048153,0.53948,0.081368,0.076435
180,-0.12516,0.15865,0.02875,0.057361,0.60098,0.05769,0.091892
181,-0.08471,0.14912,0.027763,0.073476,0.72595,0.037629,0.11294
182,-0.04393,0.13333,0.027105,0.092221,0.86309,0.021514,0.1376
183,-0.017621,0.11426,0.032367,0.11064,0.93741,0.01132,0.15602
184,-0.012688,0.099785,0.045193,0.12313,0.88446,0.0021113,0.16424
185,-0.027816,0.093208,0.063281,0.12609,0.68681,-0.0097279,0.16128
186,-0.057085,0.089919,0.07512,0.1182,0.38754,-0.029789,0.1501
187,-0.096549,0.083342,0.079395,0.10603,0.067885,-0.060045,0.13793
188,-0.13897,0.0692,0.076106,0.093208,-0.19356,-0.094905,0.12971
189,-0.17153,0.052757,0.066569,0.083013,-0.36293,-0.13141,0.12511
190,-0.18666,0.042233,0.052757,0.07512,-0.44054,-0.16758,0.13136
191,-0.18304,0.045193,0.040918,0.071502,-0.45797,-0.19225,0.15109
192,-0.17054,0.052099,0.035656,0.070187,-0.44153,-0.19784,0.17542
193,-0.15377,0.056703,0.035656,0.066569,-0.40568,-0.18271,0.19779
194,-0.13338,0.056374,0.033025,0.055388,-0.35603,-0.15739,0.21489
195,-0.1097,0.045851,0.027105,0.037958,-0.28466,-0.13009,0.22475
196,-0.083723,0.029078,0.018226,0.019541,-0.18929,-0.10444,0.22574
197,-0.051494,0.01132,0.014279,0.0073732,-0.078132,-0.082079,0.22245
198,-0.019265,-0.0018351,0.015595,0.0057288,0.025132,-0.059716,0.21949
199,0.01132,-0.0077547,0.020528,0.017568,0.09551,-0.032091,0.2162
200,0.037958,-0.0077547,0.029736,0.039931,0.12215,0.00079584,0.21028
201,0.062623,-0.0057815,0.037958,0.061965,0.10702,0.039931,0.2014
202,0.088932,-0.00019077,0.045851,0.078409,0.060321,0.081039,0.19088
203,0.11557,0.0077021,0.054072,0.090248,0.0044134,0.11458,0.17411
204,0.14254,0.017239,0.061307,0.099456,-0.038339,0.1307,0.14747
205,0.16885,0.028421,0.064267,0.10735,-0.057743,0.13103,0.1136
206,0.18858,0.040918,0.071502,0.11524,-0.053138,0.11919,0.083342
207,0.19647,0.056046,0.085315,0.11754,-0.033735,0.10011,0.066569
208,0.1922,0.065254,0.10603,0.11491,-0.012688,0.075778,0.065254
209,0.17773,0.060979,0.12642,0.10439,0.00079584,0.043877,0.071502
210,0.15306,0.037629,0.13826,0.090905,0.0011247,0.0067154,0.077751
211,0.11721,-0.0008485,0.13826,0.074791,-0.015976,-0.032749,0.081039
212,0.071502,-0.043272,0.12741,0.056046,-0.050179,-0.067937,0.085972
213,0.023488,-0.08175,0.10899,0.033354,-0.096549,-0.098193,0.093536
214,-0.018936,-0.11069,0.08663,0.010333,-0.15213,-0.12253,0.10044
215,-0.050836,-0.13305,0.067556,-0.0054526,-0.21494,-0.1416,0.1034
216,-0.059716,-0.1495,0.056046,-0.010386,-0.28006,-0.15542,0.10669
217,-0.039655,-0.15838,0.057361,-0.010386,-0.34386,-0.16495,0.10505
218,0.0063866,-0.14884,0.067885,-0.0064392,-0.40075,-0.17022,0.094852
219,0.058348,-0.12023,0.078737,0.0040845,-0.44285,-0.17252,0.077422
220,0.096167,-0.074186,0.081697,0.019212,-0.45699,-0.16857,0.06065
221,0.11261,-0.010386,0.07808,0.034011,-0.43134,-0.15706,0.044206
222,0.10801,0.065254,0.064925,0.038944,-0.37181,-0.14095,0.032038
223,0.085644,0.13892,0.049797,0.036314,-0.29617,-0.12319,0.02283
224,0.05177,0.19549,0.040589,0.031709,-0.22678,-0.1051,0.012306
225,0.017239,0.22607,0.041904,0.029736,-0.18567,-0.08175,-0.004466
226,-0.013674,0.23133,0.048482,0.028421,-0.18173,-0.054454,-0.024198
227,-0.041957,0.21883,0.054072,0.024145,-0.20902,-0.02354,-0.041957
228,-0.069253,0.19581,0.054072,0.019212,-0.25342,0.015266,-0.056427
229,-0.090629,0.16457,0.046508,0.012306,-0.30143,0.062623,-0.066622
230,-0.1051,0.12938,0.035985,0.0047422,-0.33827,0.11886,-0.07287
231,-0.11825,0.094194,0.026776,-0.010386,-0.35603,0.18233,-0.078132
232,-0.13207,0.061307,0.019212,-0.028802,-0.36096,0.25238,-0.083723
233,-0.14193,0.033683,0.014608,-0.048534,-0.35866,0.32637,-0.091616
234,-0.14423,0.014608,0.013951,-0.064649,-0.35701,0.40037,-0.1028
235,-0.13832,0.0080309,0.019212,-0.073857,-0.35964,0.46154,-0.11102
236,-0.12286,0.010662,0.029078,-0.073199,-0.36918,0.49706,-0.11595
237,-0.098851,0.015266,0.037958,-0.063991,-0.3899,0.50791,-0.11825
238,-0.068924,0.014937,0.045193,-0.04689,-0.42048,0.50199,-0.11365
239,-0.043272,0.0050711,0.050784,-0.025842,-0.45732,0.49212,-0.10181
240,-0.025185,-0.011372,0.05769,-0.0051238,-0.49547,0.48423,-0.083723
241,-0.01499,-0.029789,0.063938,0.013951,-0.5323,0.48094,-0.062018
242,-0.0034794,-0.047548,0.064925,0.030394,-0.55696,0.477,-0.040313
243,0.011977,-0.057085,0.05769,0.038944,-0.55039,0.46877,-0.020909
244,0.033354,-0.060373,0.039602,0.039931,-0.49974,0.45661,-0.0077547
245,0.061636,-0.063662,0.016581,0.035327,-0.40207,0.4395,-0.0047949
246,0.094194,-0.070568,-0.002164,0.026119,-0.25835,0.41681,-0.0061104
247,0.12544,-0.078132,-0.0067681,0.014608,-0.064978,0.38721,-0.0077547
248,0.14879,-0.084381,0.0017824,0.00046697,0.18562,0.35236,-0.0041372
249,0.15701,-0.087341,0.017568,-0.011701,0.51317,0.31421,0.0014536
250,0.14517,-0.0903,0.030394,-0.019265,0.92722,0.27836,0.0070443
251,0.11261,-0.096878,0.033354,-0.021567,1.3791,0.24679,0.0047422
252,0.069858,-0.10543,0.030723,-0.019265,1.7543,0.22048,-0.0077547
253,0.032038,-0.10346,0.029078,-0.013345,1.9243,0.20371,-0.027487
254,0.012306,-0.085039,0.029407,-0.0084125,1.8145,0.19121,-0.04689
255,0.013293,-0.048205,0.027434,-0.007097,1.4541,0.17674,-0.05281
256,0.027763,-0.0034794,0.015595,-0.0087413,0.95977,0.16194,-0.041628
257,0.041247,0.033354,-0.007097,-0.011701,0.47371,0.1501,-0.019265
258,0.040918,0.052757,-0.037024,-0.011372,0.10373,0.13826,0.0083598
259,0.018226,0.048482,-0.068924,-0.0084125,-0.11003,0.11886,0.036642
260,-0.02354,0.026447,-0.1005,-0.0054526,-0.18633,0.087617,0.061965
261,-0.071555,-0.0011774,-0.12845,-0.004466,-0.17581,0.04322,0.078409
262,-0.11069,-0.02354,-0.13996,-0.0041372,-0.12582,-0.0080836,0.086959
263,-0.13634,-0.036695,-0.12779,-0.0018351,-0.060373,-0.058729,0.092879
264,-0.15344,-0.041299,-0.09326,0.0044134,0.011977,-0.098522,0.097483
265,-0.17252,-0.040313,-0.044917,0.016253,0.096167,-0.1245,0.097483
266,-0.19554,-0.035708,0.0054,0.034011,0.1843,-0.13404,0.095181
267,-0.22283,-0.036695,0.045851,0.058348,0.25435,-0.13075,0.096496
268,-0.2373,-0.050507,0.071502,0.085972,0.28231,-0.1199,0.10077
269,-0.22678,-0.082079,0.080053,0.11031,0.24416,-0.10806,0.10011
270,-0.18304,-0.12713,0.073804,0.12379,0.12577,-0.10214,0.089919
271,-0.11661,-0.17613,0.056703,0.12544,-0.071226,-0.10346,0.070187
272,-0.051494,-0.22218,0.035327,0.11721,-0.31821,-0.11003,0.046837
273,-0.0061104,-0.25375,0.011977,0.10603,-0.57538,-0.1222,0.025132
274,0.012635,-0.2646,-0.011701,0.091892,-0.79737,-0.13963,0.0080309
275,0.0096753,-0.25342,-0.034722,0.07512,-0.9424,-0.15936,-0.011043
276,-0.0047949,-0.22546,-0.050836,0.056046,-0.99173,-0.17548,-0.028144
277,-0.016305,-0.17975,-0.053796,0.037629,-0.95226,-0.18896,-0.033078
278,-0.0077547,-0.11562,-0.039984,0.023817,-0.84143,-0.19587,-0.024527
279,0.026119,-0.041628,-0.0090702,0.019212,-0.68292,-0.1962,-0.0080836
280,0.077751,0.026776,0.026776,0.02579,-0.50467,-0.18896,0.010662
281,0.13695,0.074462,0.06065,0.040589,-0.33596,-0.17613,0.027763
282,0.19351,0.093865,0.08959,0.055717,-0.19093,-0.16035,0.045193
283,0.23232,0.090905,0.11097,0.067556,-0.074844,-0.14358,0.062952
284,0.24778,0.077422,0.12017,0.073147,0.025461,-0.12812,0.075449
285,0.23988,0.06624,0.11557,0.069858,0.12807,-0.11825,0.074133
286,0.2241,0.064596,0.10406,0.057361,0.24416,-0.11036,0.059005
287,0.21456,0.073476,0.090248,0.035985,0.37834,-0.10247,0.0373
288,0.21588,0.088275,0.074791,0.010991,0.53257,-0.09326,0.016581
289,0.22048,0.10505,0.056703,-0.0093991,0.69832,-0.089643,-0.0041372
290,0.22607,0.12313,0.035985,-0.018278,0.85355,-0.094247,-0.02354
291,0.2264,0.13596,0.017239,-0.015648,0.97523,-0.10576,-0.049192
292,0.22311,0.1376,-0.0018351,-0.011372,1.0535,-0.11825,-0.079777
293,0.21588,0.13037,-0.021238,-0.0064392,1.1005,-0.12845,-0.10641
294,0.207,0.12215,-0.037682,0.0021113,1.1318,-0.13009,-0.12023
295,0.19351,0.11458,-0.044588,0.021843,1.1535,-0.11793,-0.1222
296,0.17411,0.10143,-0.04097,0.053415,1.1531,-0.086025,-0.11661
297,0.15142,0.082026,-0.031762,0.090577,1.1061,-0.036695,-0.10543
298,0.12905,0.055388,-0.019265,0.12248,1.0117,0.020199,-0.086354
299,0.10702,0.032038,-0.0064392,0.13728,0.88841,0.079395,-0.060045
300,0.086959,0.021843,0.0037556,0.13497,0.75851,0.1376,-0.030118
301,0.062952,0.023817,0.0093464,0.12149,0.62433,0.19088,-0.0024928
302,0.028092,0.032367,0.011977,0.10373,0.4793,0.23626,0.010333
303,-0.023869,0.040918,0.016253,0.085644,0.3175,0.27014,0.0021113
304,-0.087669,0.043877,0.021514,0.074133,0.13464,0.29579,-0.023869
305,-0.15114,0.042233,0.026776,0.068214,-0.055769,0.32013,-0.055769
306,-0.19883,0.039273,0.028092,0.059334,-0.22875,0.34545,-0.084052
307,-0.22086,0.036642,0.025461,0.041247,-0.35175,0.36847,-0.10609
308,-0.21691,0.034998,0.017897,0.017239,-0.40305,0.38195,-0.12121
309,-0.19126,0.036642,0.0054,-0.010715,-0.38266,0.37768,-0.13174
310,-0.1518,0.037958,-0.010057,-0.033078,-0.31294,0.3563,-0.13338
311,-0.10905,0.033683,-0.024198,-0.038668,-0.22481,0.32078,-0.1245
312,-0.072213,0.028421,-0.028473,-0.030118,-0.14588,0.27836,-0.10181
313,-0.038997,0.02579,-0.019594,-0.016963,-0.094247,0.231,-0.069911
314,-0.0047949,0.027105,-0.0024928,-0.0047949,-0.071555,0.18233,-0.037024
315,0.037958,0.036642,0.015266,0.0054,-0.070897,0.13004,-0.012359
316,0.082355,0.047824,0.028421,0.014279,-0.084381,0.075778,0.00046697
317,0.12379,0.056046,0.033354,0.020528,-0.10411,0.023817,0.0030979
318,0.15799,0.053415,0.02875,0.023817,-0.13174,-0.022225,0.00046697
319,0.18891,0.040589,0.015924,0.019541,-0.17646,-0.053796,0.0054
320,0.22278,0.018884,-0.0024928,0.01132,-0.25112,-0.067937,0.023488
321,0.25238,-0.0074258,-0.016634,0.00079584,-0.36852,-0.066951,0.055388
322,0.26849,-0.031762,-0.020909,-0.0067681,-0.52046,-0.056756,0.091563
323,0.26093,-0.048863,-0.018278,-0.013345,-0.67075,-0.041957,0.12083
324,0.23298,-0.050179,-0.012688,-0.020252,-0.76547,-0.02946,0.13695
325,0.1991,-0.038668,-0.0067681,-0.023869,-0.77698,-0.025514,0.14254
326,0.17246,-0.021238,-0.0018351,-0.024856,-0.71515,-0.031433,0.14879
327,0.1603,-0.0047949,0.0044134,-0.023869,-0.61353,-0.041957,0.16095
328,0.15734,0.0054,0.01132,-0.017292,-0.50632,-0.048863,0.17312
329,0.15306,0.0077021,0.016253,-0.0064392,-0.40371,-0.045903,0.17707
330,0.13859,0.0050711,0.019212,0.0034268,-0.29617,-0.037353,0.17542
331,0.10669,0.0037556,0.02283,0.011648,-0.15838,-0.027158,0.16852
332,0.062294,0.0080309,0.027434,0.017897,0.042562,-0.021567,0.15339
333,0.013622,0.015266,0.03434,0.027434,0.30598,-0.020252,0.13234
334,-0.031104,0.023159,0.043877,0.041904,0.58651,-0.019594,0.11689
335,-0.065307,0.032038,0.056046,0.060321,0.80849,-0.015319,0.11458
336,-0.089972,0.044535,0.063938,0.082026,0.90419,-0.010386,0.13037
337,-0.10346,0.06361,0.069858,0.10636,0.84138,-0.01499,0.15207
338,-0.10641,0.08959,0.080053,0.13464,0.63419,-0.03538,0.16885
339,-0.10181,0.12149,0.095181,0.16424,0.33723,-0.070568,0.17773
340,-0.092603,0.15536,0.10965,0.18924,0.025132,-0.11891,0.17806
341,-0.075501,0.18891,0.1159,0.20075,-0.2373,-0.17285,0.17477
342,-0.052152,0.21489,0.11491,0.19549,-0.41621,-0.22974,0.16819
343,-0.026829,0.22278,0.11261,0.17674,-0.51454,-0.28433,0.16194
344,-0.0090702,0.21193,0.10932,0.14747,-0.55532,-0.32972,0.15536
345,0.0001381,0.18858,0.10044,0.10669,-0.56782,-0.36359,0.15076
346,0.0057288,0.16326,0.081697,0.052428,-0.57374,-0.3876,0.15142
347,0.021514,0.14583,0.056046,-0.01499,-0.58393,-0.40272,0.15767
348,0.054072,0.13892,0.029407,-0.084052,-0.59676,-0.40536,0.16819
349,0.099127,0.14418,0.0060577,-0.14029,-0.60827,-0.3968,0.17674
350,0.14287,0.16227,-0.0087413,-0.17186,-0.60235,-0.37937,0.17773
351,0.16885,0.18957,-0.011372,-0.17416,-0.56683,-0.35833,0.16819
352,0.16918,0.21324,-0.002164,-0.14818,-0.50073,-0.33399,0.14352
353,0.13991,0.22541,0.0093464,-0.10115,-0.41489,-0.30801,0.11097
354,0.088275,0.21719,0.017568,-0.043601,-0.31492,-0.27512,0.080053
355,0.021186,0.19253,0.018884,0.010991,-0.20836,-0.23665,0.06065
356,-0.048863,0.15405,0.015924,0.053415,-0.1051,-0.19718,0.055717
357,-0.11464,0.10998,0.010662,0.081039,-0.0093991,-0.15903,0.059663
358,-0.17219,0.070516,0.0063866,0.094194,0.084328,-0.12286,0.061965
359,-0.21428,0.040589,0.0073732,0.09255,0.17937,-0.088985,0.045851
360,-0.23599,0.019212,0.012306,0.085972,0.26751,-0.050507,-0.0054526
361,-0.23336,0.0060577,0.02283,0.07808,0.32736,-0.0057815,-0.090629
362,-0.20902,-0.00051963,0.036314,0.071831,0.33953,0.044864,-0.18863
363,-0.16397,-0.0038083,0.049139,0.070187,0.30204,0.098798,-0.27151
364,-0.1097,-0.0084125,0.062294,0.071831,0.22475,0.15142,-0.32182
365,-0.062018,-0.016305,0.071831,0.076106,0.12182,0.19647,-0.34156
366,-0.031433,-0.02946,0.071502,0.079066,0.0086887,0.22739,-0.34024
367,-0.014332,-0.049192,0.062952,0.081039,-0.089314,0.24646,-0.32708
368,0.0030979,-0.072542,0.051113,0.081697,-0.14687,0.26027,-0.29716
369,0.029078,-0.093918,0.042562,0.079724,-0.1541,0.27902,-0.24322
370,0.063281,-0.10444,0.035327,0.074133,-0.11299,0.31322,-0.16134
371,0.10011,-0.095891,0.026119,0.070187,-0.018278,0.36222,-0.052481
372,0.13169,-0.066951,0.015595,0.074791,0.11919,0.41813,0.066569
373,0.15372,-0.018936,0.0067154,0.088603,0.27408,0.46779,0.18397
374,0.16293,0.043877,0.002769,0.10505,0.41912,0.49969,0.29053
375,0.15898,0.11491,0.0047422,0.1159,0.52665,0.50758,0.38327
376,0.14484,0.18036,0.012964,0.11426,0.58223,0.48883,0.45924
377,0.13103,0.22969,0.026447,0.1011,0.57993,0.44345,0.51975
378,0.12379,0.25698,0.04618,0.080382,0.52074,0.37538,0.5625
379,0.12215,0.26422,0.067885,0.058019,0.41484,0.29086,0.57829
380,0.11853,0.25041,0.086301,0.032038,0.27803,0.20042,0.56119
381,0.10406,0.21719,0.098141,0.0063866,0.13497,0.11458,0.51449
382,0.069858,0.17279,0.10406,-0.014332,0.0060577,0.044206,0.4451
383,0.0096753,0.12379,0.10143,-0.027158,-0.0903,-0.00051963,0.36222
384,-0.07583,0.073476,0.084657,-0.031104,-0.14588,-0.024198,0.27014
385,-0.17153,0.031381,0.059005,-0.026829,-0.16824,-0.027487,0.1695
386,-0.25572,-0.0038083,0.034011,-0.015976,-0.17581,-0.015319,0.071173
387,-0.30998,-0.0265,0.012306,0.0017824,-0.17909,0.0050711,-0.013674
388,-0.32676,-0.038011,-0.0028217,0.024803,-0.17646,0.029078,-0.073857
389,-0.30998,-0.038668,-0.010386,0.048482,-0.16462,0.050784,-0.10181
390,-0.28006,-0.033735,-0.0061104,0.065254,-0.14259,0.070516,-0.098851
391,-0.26065,-0.030447,0.0040845,0.076435,-0.11497,0.087288,-0.081421
392,-0.2669,-0.039984,0.0063866,0.082355,-0.088656,0.092221,-0.06728
393,-0.28927,-0.062018,-0.0090702,0.085315,-0.06432,0.083999,-0.064978
394,-0.30406,-0.0903,-0.033735,0.092221,-0.039655,0.062623,-0.073199
395,-0.284,-0.11628,-0.057743,0.10406,-0.0067681,0.033354,-0.083065
396,-0.21527,-0.13305,-0.074844,0.11985,0.0373,-0.002164,-0.089314
397,-0.10444,-0.13503,-0.077803,0.13563,0.09551,-0.04097,-0.086683
398,0.024145,-0.12812,-0.067937,0.14583,0.16063,-0.07583,-0.071884
399,0.15701,-0.12154,-0.050179,0.14484,0.22147,-0.10313,-0.044917
400,0.2948,-0.12352,-0.032749,0.12807,0.26915,-0.12056,-0.020909
401,0.43687,-0.137,-0.022883,0.099127,0.29612,-0.13009,-0.010386
402,0.56711,-0.15246,-0.018607,0.061965,0.30302,-0.13174,-0.015648
403,0.65754,-0.16397,-0.020909,0.029407,0.30302,-0.1245,-0.029789
404,0.68944,-0.1666,-0.025842,0.0063866,0.32243,-0.10609,-0.048863
405,0.66083,-0.15246,-0.027816,-0.0061104,0.37702,-0.074515,-0.070897
406,0.58815,-0.11365,-0.023211,-0.0077547,0.45562,-0.033406,-0.09326
407,0.50035,-0.055769,-0.012688,0.0011247,0.52008,0.0090175,-0.11102
408,0.43227,0.010991,0.00046697,0.014937,0.53225,0.042562,-0.12582
409,0.41287,0.083999,0.012306,0.027434,0.477,0.06361,-0.14193
410,0.44246,0.15668,0.01691,0.032696,0.35663,0.074462,-0.15673
411,0.50035,0.21916,0.012635,0.032367,0.1968,0.078409,-0.16627
412,0.55231,0.26356,0.0063866,0.030394,0.039931,0.071502,-0.1712
413,0.57368,0.28165,0.0037556,0.029407,-0.069582,0.047166,-0.17383
414,0.55329,0.2708,0.0080309,0.030723,-0.11497,0.0060577,-0.17318
415,0.48752,0.23495,0.017897,0.032696,-0.10937,-0.043272,-0.16693
416,0.38458,0.18825,0.024145,0.032038,-0.092274,-0.086354,-0.15344
417,0.26553,0.14254,0.020199,0.025461,-0.098851,-0.11858,-0.13634
418,0.15438,0.099127,0.0093464,0.018884,-0.14358,-0.13601,-0.12483
419,0.060321,0.052099,-0.0015062,0.017897,-0.21757,-0.13832,-0.12286
420,-0.014003,0.0021113,-0.0090702,0.022501,-0.29716,-0.12286,-0.12746
421,-0.071555,-0.043601,-0.013017,0.027105,-0.35635,-0.09918,-0.13108
422,-0.11924,-0.077475,-0.012688,0.029078,-0.38464,-0.077146,-0.13009
423,-0.17318,-0.097207,-0.0084125,0.030723,-0.39385,-0.057743,-0.12615
424,-0.23533,-0.10674,-0.0038083,0.033025,-0.41555,-0.038011,-0.12319
425,-0.29683,-0.10609,-0.0034794,0.032367,-0.47836,-0.022225,-0.12549
426,-0.34254,-0.09918,-0.0047949,0.026776,-0.59117,-0.01203,-0.12845
427,-0.36458,-0.089314,-0.0011774,0.020199,-0.72534,-0.004466,-0.12812
428,-0.36655,-0.078132,0.0077021,0.01691,-0.82762,0.0077021,-0.12549
429,-0.35537,-0.062676,0.016253,0.015266,-0.84933,0.029407,-0.11891
430,-0.33432,-0.041957,0.024474,0.015595,-0.75428,0.062294,-0.10181
431,-0.30702,-0.015319,0.03434,0.021514,-0.54512,0.10932,-0.074186
432,-0.27282,0.013622,0.046508,0.034669,-0.25177,0.1695,-0.040641
433,-0.23533,0.046508,0.058348,0.050126,0.073147,0.23199,-0.014332
434,-0.20179,0.077751,0.065583,0.062294,0.36781,0.28921,-0.00051963
435,-0.18205,0.099785,0.063938,0.068543,0.57598,0.33624,0.002769
436,-0.17712,0.11031,0.056046,0.0692,0.67169,0.36814,0.0057288
437,-0.17679,0.1113,0.050126,0.067227,0.66346,0.38327,0.013951
438,-0.16857,0.10274,0.050784,0.064267,0.58684,0.37932,0.030723
439,-0.14127,0.081039,0.055717,0.06065,0.48127,0.35827,0.054072
440,-0.096549,0.049139,0.058348,0.055717,0.38064,0.32572,0.081368
441,-0.053138,0.0090175,0.058676,0.04881,0.30631,0.28362,0.10636
442,-0.034393,-0.031762,0.057361,0.040589,0.26455,0.23232,0.12116
443,-0.056098,-0.066951,0.053743,0.034011,0.25369,0.17312,0.12412
444,-0.11924,-0.090629,0.049139,0.026776,0.27277,0.11228,0.11985
445,-0.20803,-0.096549,0.046508,0.018555,0.31848,0.05473,0.11031
446,-0.29486,-0.082736,0.049797,0.0054,0.37538,0.0050711,0.10176
447,-0.35307,-0.053138,0.06065,-0.0087413,0.41879,-0.038339,0.097812
448,-0.36622,-0.010386,0.076435,-0.021238,0.42273,-0.069911,0.099127
449,-0.33629,0.037958,0.094523,-0.024856,0.39346,-0.0903,0.1057
450,-0.27743,0.07512,0.11097,-0.017292,0.35236,-0.096549,0.11919
451,-0.21132,0.092879,0.12313,-0.0024928,0.31322,-0.08471,0.13333
452,-0.1587,0.098798,0.12708,0.014937,0.27244,-0.057085,0.14221
453,-0.12812,0.10176,0.12017,0.024145,0.22081,-0.017621,0.14583
454,-0.11793,0.10274,0.10801,0.020528,0.15964,0.029407,0.13925
455,-0.11825,0.10274,0.096825,0.0060577,0.10538,0.080711,0.12379
456,-0.11661,0.097812,0.090577,-0.011701,0.0692,0.13103,0.10439
457,-0.1051,0.085972,0.092221,-0.026171,0.048153,0.1751,0.086301
458,-0.083065,0.074791,0.1011,-0.036037,0.039273,0.20963,0.073476
459,-0.051823,0.067885,0.10998,-0.044917,0.043877,0.2389,0.067556
460,-0.0061104,0.064925,0.11031,-0.054454,0.061636,0.2629,0.06624
461,0.067556,0.062952,0.10176,-0.063004,0.089261,0.27968,0.065583
462,0.17214,0.06065,0.092221,-0.068595,0.11623,0.28658,0.062952
463,0.28724,0.059663,0.08367,-0.071884,0.13464,0.27836,0.065912
464,0.37998,0.06361,0.074791,-0.07024,0.14254,0.25271,0.074462
465,0.41912,0.069858,0.063281,-0.062347,0.14385,0.21226,0.081368
466,0.39511,0.072818,0.047824,-0.051165,0.14912,0.16391,0.080711
467,0.32309,0.070187,0.033683,-0.039326,0.16326,0.1113,0.071502
468,0.23265,0.064925,0.024803,-0.026171,0.18365,0.063281,0.057361
469,0.15931,0.059992,0.024474,-0.018278,0.19581,0.024803,0.043877
470,0.12215,0.058348,0.026119,-0.015648,0.18924,-0.0064392,0.041247
471,0.12642,0.059005,0.026447,-0.018278,0.16424,-0.028144,0.050784
472,0.16227,0.059663,0.024474,-0.017292,0.12708,-0.041628,0.06624
473,0.21127,0.059992,0.023488,-0.0084125,0.084657,-0.047548,0.081368
474,0.25271,0.061307,0.028092,0.0067154,0.043549,-0.051165,0.090248
475,0.27507,0.063281,0.034998,0.025461,0.0086887,-0.060373,0.09255
476,0.2708,0.063281,0.039602,0.047166,-0.016634,-0.077475,0.08959
477,0.24514,0.061307,0.036971,0.066569,-0.034722,-0.10247,0.082355
478,0.20272,0.056374,0.030394,0.081039,-0.048534,-0.13568,0.074462
479,0.15207,0.052099,0.023159,0.088932,-0.058729,-0.17186,0.068214
480,0.10702,0.048153,0.017897,0.085972,-0.067937,-0.20606,0.059663
481,0.075778,0.047824,0.015924,0.075778,-0.081421,-0.23665,0.046837
482,0.058676,0.054401,0.019541,0.061965,-0.10313,-0.26197,0.034011
483,0.049468,0.07216,0.02875,0.049797,-0.13272,-0.28367,0.026776
484,0.044864,0.092879,0.041247,0.041247,-0.16035,-0.29847,0.02875
485,0.041575,0.10307,0.053086,0.033354,-0.18173,-0.30406,0.036971
486,0.034998,0.1011,0.058676,0.02283,-0.19028,-0.30341,0.043549
487,0.018884,0.087617,0.057361,0.013293,-0.18403,-0.29946,0.046508
488,-0.012688,0.067227,0.048153,0.010991,-0.1643,-0.29321,0.047495
489,-0.055112,0.043877,0.033025,0.017239,-0.13963,-0.28302,0.051441
490,-0.10082,0.023159,0.018884,0.02579,-0.12286,-0.27019,0.063281
491,-0.14358,0.0093464,0.0096753,0.031052,-0.11858,-0.25572,0.083342
492,-0.17383,0.002769,0.0063866,0.031381,-0.12056,-0.24158,0.10373
493,-0.18436,0.0014536,0.0093464,0.030065,-0.11464,-0.2281,0.11721
494,-0.17909,-0.0015062,0.010991,0.029736,-0.09326,-0.21165,0.12511
495,-0.16397,-0.0093991,0.0090175,0.031381,-0.063004,-0.1883,0.13136
496,-0.13963,-0.020252,0.0054,0.0373,-0.038011,-0.15081,0.13432
497,-0.11266,-0.028144,0.00079584,0.050455,-0.033406,-0.089314,0.12905
498,-0.086683,-0.026829,-0.0061104,0.06624,-0.056427,-0.0011774,0.11031
499,-0.067937,-0.016305,-0.011372,0.076435,-0.10247,0.10209,0.081697
500,-0.063004,-0.0011774,-0.012688,0.072818,-0.15936,0.20206,0.052757
501,-0.072213,0.022172,-0.0097279,0.055717,-0.21231,0.27672,0.030065
502,-0.094576,0.049139,-0.0038083,0.036314,-0.24947,0.31552,0.017568
503,-0.12483,0.071502,0.0037556,0.025132,-0.26624,0.31848,0.015266
504,-0.14818,0.086959,0.010333,0.032038,-0.26953,0.29053,0.020199
505,-0.14391,0.097154,0.016253,0.055388,-0.26789,0.24284,0.025132
506,-0.10641,0.10373,0.020528,0.08367,-0.26657,0.18397,0.023817
507,-0.050836,0.10932,0.022501,0.10472,-0.26,0.1182,0.011977
508,0.0021113,0.11228,0.015924,0.11458,-0.2373,0.048153,-0.011372
509,0.042891,0.10801,-0.0011774,0.11426,-0.19028,-0.020252,-0.04393
510,0.059005,0.091892,-0.024856,0.11031,-0.11398,-0.083723,-0.085039
511,0.041247,0.064267,-0.04985,0.10866,-0.004466,-0.13766,-0.12187
512,-0.0084125,0.030723,-0.069911,0.10735,0.12379,-0.17811,-0.1393
513,-0.07879,0.0011247,-0.077803,0.097154,0.24284,-0.20705,-0.13634
514,-0.15311,-0.019594,-0.073857,0.075449,0.32341,-0.22908,-0.11497
515,-0.21626,-0.031762,-0.060373,0.050126,0.35301,-0.25145,-0.084052
516,-0.25967,-0.038668,-0.044588,0.030065,0.33427,-0.2771,-0.048534
517,-0.27085,-0.037353,-0.030447,0.017568,0.28329,-0.30505,-0.015319
518,-0.24849,-0.024527,-0.022225,0.0096753,0.22278,-0.32445,0.0073732
519,-0.19718,-0.0064392,-0.019265,0.0086887,0.17246,-0.32643,0.016581
520,-0.12648,0.0040845,-0.019923,0.011648,0.13991,-0.31097,0.018555
521,-0.052481,0.0011247,-0.023869,0.013622,0.12248,-0.28137,0.01691
522,0.012964,-0.01499,-0.031104,0.012635,0.10965,-0.24092,0.017568
523,0.067227,-0.033735,-0.037024,0.014608,0.096496,-0.18666,0.022172
524,0.10866,-0.046561,-0.037682,0.023817,0.075449,-0.1176,0.028421
525,0.13366,-0.047219,-0.033078,0.034011,0.04881,-0.035051,0.033683
526,0.14352,-0.038668,-0.024856,0.040589,0.01987,0.057032,0.040918
527,0.1455,-0.027816,-0.015319,0.041247,-0.0084125,0.15734,0.049468
528,0.15503,-0.017292,-0.0018351,0.037958,-0.039655,0.26586,0.061965
529,0.18924,-0.0028217,0.016581,0.034669,-0.082736,0.38097,0.084986
530,0.25271,0.02283,0.041904,0.036971,-0.14095,0.49739,0.12281
531,0.3346,0.064267,0.071173,0.049468,-0.20771,0.60361,0.16589
532,0.41616,0.11294,0.098141,0.066898,-0.26526,0.68254,0.20173
533,0.47601,0.1603,0.11327,0.083342,-0.29716,0.71608,0.21982
534,0.49508,0.20469,0.11952,0.095839,-0.29288,0.69997,0.21982
535,0.46022,0.23495,0.12313,0.1057,-0.25375,0.6411,0.2116
536,0.37373,0.24547,0.12708,0.11261,-0.19159,0.5556,0.20042
537,0.25863,0.23232,0.13037,0.11327,-0.12713,0.45595,0.18989
538,0.14714,0.19877,0.12971,0.10801,-0.07583,0.3563,0.18397
539,0.065912,0.14879,0.12412,0.10373,-0.044259,0.26751,0.18036
540,0.019541,0.095839,0.11097,0.10209,-0.033735,0.19614,0.17148
541,0.0040845,0.050455,0.095181,0.09551,-0.038011,0.14024,0.15372
542,0.0047422,0.015595,0.079066,0.081039,-0.049521,0.1011,0.12577
543,0.014608,-0.0090702,0.062952,0.061636,-0.054783,0.075449,0.090577
544,0.022501,-0.024198,0.050126,0.043549,-0.054125,0.051113,0.054401
545,0.025461,-0.0265,0.041904,0.030065,-0.04985,0.015924,0.022501
546,0.025461,-0.013345,0.034998,0.019212,-0.040641,-0.031104,-0.0015062
547,0.02579,0.0067154,0.029078,0.0054,-0.020581,-0.08471,-0.016305
548,0.02875,0.022172,0.02579,-0.0077547,0.0073732,-0.14226,-0.026829
549,0.04322,0.022501,0.023159,-0.018607,0.033354,-0.20409,-0.041628
550,0.070845,0.0090175,0.018555,-0.02354,0.041575,-0.26,-0.063991
551,0.1057,-0.01203,0.011977,-0.017621,0.02283,-0.29946,-0.083394
552,0.13695,-0.033078,0.0040845,-0.0041372,-0.026171,-0.31459,-0.089314
553,0.15767,-0.044917,-0.0054526,0.0067154,-0.088985,-0.30505,-0.076159
554,0.17115,-0.044917,-0.010715,0.0096753,-0.14522,-0.27447,-0.049521
555,0.17904,-0.035708,-0.0061104,0.0024402,-0.16594,-0.22908,-0.019594
556,0.18134,-0.02354,0.0044134,-0.0051238,-0.13832,-0.17679,-0.00019077
557,0.17477,-0.010386,0.013293,-0.010386,-0.057743,-0.12384,0.0030979
558,0.15635,0.0050711,0.015266,-0.0067681,0.082684,-0.073199,-0.0074258
559,0.13234,0.022501,0.010333,0.0086887,0.27343,-0.028802,-0.023211
560,0.11294,0.041247,0.0021113,0.031052,0.48851,0.002769,-0.037682
561,0.10077,0.062952,-0.007097,0.05177,0.69109,0.023159,-0.048863
562,0.096496,0.086301,-0.016305,0.06624,0.84303,0.036971,-0.05544
563,0.10274,0.1057,-0.027816,0.070845,0.90518,0.050455,-0.048205
564,0.11985,0.11031,-0.035708,0.069529,0.85059,0.059992,-0.026829
565,0.14287,0.098469,-0.041628,0.063938,0.6832,0.062623,0.0001381
566,0.1603,0.068214,-0.047548,0.059992,0.452,0.057032,0.021186
567,0.16819,0.027763,-0.053467,0.059334,0.23002,0.041575,0.032038
568,0.17049,-0.016634,-0.053467,0.061636,0.083013,0.020199,0.034011
569,0.16654,-0.057743,-0.049192,0.059663,0.043877,-0.0018351,0.033025
570,0.16326,-0.088656,-0.04393,0.053086,0.097483,-0.018607,0.038944
571,0.15734,-0.10543,-0.04097,0.047824,0.19121,-0.024856,0.056703
572,0.14813,-0.10937,-0.042944,0.047166,0.26027,-0.018278,0.080053
573,0.13432,-0.10313,-0.054125,0.049468,0.25698,0.00079584,0.1011
574,0.11426,-0.088985,-0.068924,0.058019,0.17115,0.032367,0.11721
575,0.082684,-0.072542,-0.082079,0.074462,0.030394,0.067885,0.13004
576,0.038287,-0.054454,-0.089314,0.091234,-0.12319,0.10406,0.13629
577,-0.013674,-0.041299,-0.091945,0.097483,-0.24816,0.13497,0.13432
578,-0.066951,-0.038011,-0.086354,0.087617,-0.31623,0.16063,0.12774
579,-0.11102,-0.044917,-0.069911,0.064596,-0.30768,0.17773,0.11656
580,-0.1393,-0.06136,-0.047548,0.038616,-0.21494,0.18989,0.10176
581,-0.15443,-0.082408,-0.024856,0.020528,-0.034064,0.20272,0.087288
582,-0.16232,-0.11168,-0.0041372,0.01691,0.22837,0.22508,0.08367
583,-0.16561,-0.14358,0.011977,0.026447,0.54573,0.26192,0.094852
584,-0.1643,-0.17186,0.023488,0.041575,0.85454,0.30434,0.10932
585,-0.15903,-0.18534,0.033354,0.059334,1.0693,0.33953,0.10406
586,-0.15377,-0.16989,0.041904,0.079724,1.1196,0.36058,0.074133
587,-0.14785,-0.12023,0.04618,0.098141,0.98279,0.36058,0.026776
588,-0.13634,-0.040313,0.041575,0.11458,0.69931,0.33788,-0.025514
589,-0.11727,0.056374,0.029078,0.12412,0.34545,0.29151,-0.070568
590,-0.089972,0.15043,0.016253,0.12873,0.0073732,0.22969,-0.096878
591,-0.053467,0.22278,0.0080309,0.1307,-0.2521,0.16063,-0.10444
592,-0.0061104,0.26093,0.0047422,0.13037,-0.41226,0.098141,-0.10148
593,0.044206,0.26389,0.0057288,0.12445,-0.49218,0.04881,-0.10082
594,0.082026,0.2412,0.01132,0.10406,-0.54282,0.0060577,-0.1051
595,0.095181,0.19976,0.01691,0.056703,-0.61156,-0.037682,-0.10806
596,0.091234,0.14681,0.015595,-0.022225,-0.72962,-0.0903,-0.10872
597,0.084328,0.092879,0.011648,-0.12516,-0.88813,-0.15509,-0.1028
598,0.075449,0.049797,0.0093464,-0.23895,-1.0565,-0.22415,-0.088656
599,0.059334,0.021186,0.0096753,-0.3307,-1.1937,-0.284,-0.069253
600,0.033683,0.0067154,0.012306,-0.37872,-1.2607,-0.32314,-0.054454
601,0.00079584,0.0011247,0.016253,-0.38036,-1.2348,-0.33761,-0.052152
602,-0.031104,0.0050711,0.018884,-0.33991,-1.1134,-0.32906,-0.063333
603,-0.053138,0.011977,0.022172,-0.27414,-0.90326,-0.30143,-0.082408
604,-0.061689,0.018884,0.028092,-0.20146,-0.63195,-0.26526,-0.10082
605,-0.055112,0.023817,0.038287,-0.13799,-0.35208,-0.22941,-0.10905
606,-0.037024,0.031381,0.052757,-0.091616,-0.11595,-0.19422,-0.10411
607,-0.016963,0.041247,0.071502,-0.056756,0.056046,-0.16199,-0.088656
608,-0.0028217,0.052757,0.091563,-0.027487,0.17838,-0.13042,-0.068924
609,-0.00019077,0.067556,0.11097,0.0021113,0.28987,-0.094247,-0.057743
610,-0.0061104,0.094852,0.12708,0.027763,0.41813,-0.047219,-0.053138
611,-0.013345,0.15142,0.13563,0.050784,0.55264,0.016253,-0.046561
612,-0.016305,0.27573,0.13728,0.073147,0.6559,0.096496,-0.038011
613,-0.018607,0.51613,0.13662,0.090905,0.69043,0.18661,-0.028144
614,-0.028144,0.89005,0.13432,0.10538,0.64932,0.27474,-0.014661
615,-0.04985,1.3452,0.1307,0.11952,0.57401,0.3563,0.0067154
616,-0.079448,1.7737,0.12774,0.13662,0.52402,0.43128,0.038944
617,-0.10181,2.0572,0.12708,0.1524,0.54211,0.49739,0.076764
618,-0.1051,2.1075,0.13103,0.16457,0.63189,0.54639,0.11623
619,-0.094247,1.8911,0.13892,0.16983,0.77035,0.56809,0.15306
620,-0.079448,1.4491,0.14681,0.16983,0.91636,0.55888,0.18003
621,-0.066622,0.86309,0.14879,0.16852,1.0173,0.526,0.19351
622,-0.056427,0.2264,0.14188,0.17148,1.0249,0.4793,0.19516
623,-0.052481,-0.38332,0.12544,0.17608,0.91768,0.43326,0.19088
624,-0.056098,-0.91905,0.1011,0.17937,0.71937,0.39248,0.18463
625,-0.065964,-1.3653,0.072489,0.17838,0.4839,0.35992,0.17641
626,-0.07879,-1.7083,0.050126,0.17477,0.26323,0.33295,0.17049
627,-0.089314,-1.9389,0.03434,0.17181,0.08663,0.30894,0.1649
628,-0.090629,-2.0655,0.022501,0.16918,-0.042615,0.28296,0.15832
629,-0.074515,-2.102,0.014608,0.16326,-0.12352,0.25041,0.15273
630,-0.044917,-2.0668,0.0090175,0.15372,-0.15772,0.20338,0.14846
631,-0.011701,-1.9777,0.0030979,0.14221,-0.14851,0.1353,0.14089
632,0.010333,-1.8438,-0.0097279,0.13136,-0.098193,0.044864,0.12905
633,0.015595,-1.6702,-0.029789,0.12281,-0.015976,-0.063333,0.11097
634,0.0086887,-1.4564,-0.047219,0.11853,0.06624,-0.17252,0.086959
635,0.00079584,-1.2029,-0.057085,0.11886,0.10406,-0.26361,0.059005
636,-0.0015062,-0.9151,-0.056756,0.12116,0.066569,-0.32215,0.033354
637,0.0090175,-0.603,-0.044259,0.12281,-0.036037,-0.34682,0.016253
638,0.033683,-0.28795,-0.019594,0.12083,-0.1643,-0.34649,0.0093464
639,0.065583,0.0024402,0.018226,0.11754,-0.28006,-0.33268,0.0073732
640,0.091563,0.24482,0.062623,0.11393,-0.35767,-0.31788,0.0034268
641,0.10406,0.42273,0.10801,0.10834,-0.38562,-0.3113,-0.007097
642,0.1034,0.53159,0.13991,0.096496,-0.35767,-0.31229,-0.020909
643,0.095181,0.57631,0.15109,0.07808,-0.27512,-0.31459,-0.038668
644,0.084328,0.57105,0.14024,0.053086,-0.16594,-0.30998,-0.055769
645,0.083999,0.53192,0.11656,0.025461,-0.074844,-0.29749,-0.068266
646,0.10932,0.47272,0.087617,-0.002164,-0.036037,-0.28137,-0.074844
647,0.15767,0.40366,0.062623,-0.024198,-0.044917,-0.27249,-0.076817
648,0.20963,0.3369,0.045522,-0.038997,-0.074844,-0.26953,-0.078461
649,0.24251,0.28329,0.034998,-0.048534,-0.092274,-0.2692,-0.079448
650,0.24021,0.25271,0.030065,-0.054783,-0.080434,-0.26131,-0.079119
651,0.20436,0.24975,0.031381,-0.059716,-0.040313,-0.24257,-0.071555
652,0.15306,0.26948,0.036971,-0.061031,0.016253,-0.21527,-0.059387
653,0.098141,0.30302,0.039602,-0.058729,0.081368,-0.18633,-0.046232
654,0.042562,0.33821,0.034998,-0.054125,0.14385,-0.15936,-0.035051
655,-0.01203,0.36452,0.023817,-0.048534,0.19877,-0.13437,-0.027487
656,-0.056756,0.37439,0.010662,-0.040313,0.24186,-0.10872,-0.025842
657,-0.080763,0.36683,0.0037556,-0.028802,0.26882,-0.083394,-0.023869
658,-0.086683,0.34874,0.0040845,-0.012688,0.26652,-0.056098,-0.021238
659,-0.081421,0.32933,0.01132,0.0086887,0.2139,-0.027816,-0.018278
660,-0.080106,0.3119,0.027105,0.034998,0.093208,-0.0028217,-0.01795
661,-0.0903,0.29645,0.044864,0.059663,-0.087669,0.013293,-0.023869
662,-0.11233,0.28329,0.061307,0.079395,-0.29716,0.020199,-0.03242
663,-0.13766,0.2754,0.07808,0.094194,-0.49053,0.023488,-0.037682
664,-0.1564,0.27376,0.092221,0.10044,-0.63655,0.023817,-0.040313
665,-0.16561,0.28,0.099785,0.096496,-0.72501,0.016581,-0.04097
666,-0.1666,0.29415,0.10242,0.082684,-0.76941,0.0011247,-0.037353
667,-0.16166,0.31158,0.1011,0.06361,-0.79704,-0.019265,-0.028473
668,-0.14851,0.32835,0.097483,0.045522,-0.82203,-0.041299,-0.015976
669,-0.12549,0.33723,0.095181,0.036642,-0.8365,-0.056427,-0.00019077
670,-0.091287,0.33525,0.098469,0.039931,-0.82828,-0.054783,0.017239
671,-0.053796,0.32111,0.10406,0.052428,-0.78651,-0.034064,0.036642
672,-0.020909,0.29678,0.10669,0.064925,-0.71252,0.0040845,0.058019
673,0.0063866,0.26553,0.10143,0.069529,-0.62668,0.050455,0.082026
674,0.027434,0.23791,0.085315,0.05769,-0.53888,0.094852,0.11294
675,0.047495,0.21719,0.061307,0.032038,-0.45699,0.13169,0.14912
676,0.071831,0.20272,0.032038,0.0030979,-0.38299,0.16063,0.18726
677,0.10636,0.1922,0.0024402,-0.015648,-0.32478,0.18332,0.22311
678,0.15043,0.18661,-0.018278,-0.020252,-0.28598,0.20075,0.24876
679,0.1991,0.18628,-0.024856,-0.013345,-0.26822,0.21653,0.25863
680,0.24087,0.19121,-0.022883,-0.0011774,-0.27841,0.23199,0.24909
681,0.2731,0.19943,-0.018607,0.0083598,-0.3113,0.24613,0.23035
682,0.29086,0.20108,-0.014661,0.0090175,-0.35866,0.25468,0.2139
683,0.2948,0.18792,-0.010715,-0.0024928,-0.41719,0.25567,0.20436
684,0.28132,0.15536,-0.0077547,-0.023211,-0.48856,0.24942,0.19614
685,0.25238,0.10998,-0.0084125,-0.048205,-0.55663,0.23199,0.182
686,0.21522,0.065583,-0.010386,-0.071226,-0.59149,0.19845,0.15997
687,0.17707,0.030394,-0.0097279,-0.084381,-0.55729,0.15405,0.13201
688,0.13892,0.010662,-0.0024928,-0.086025,-0.43627,0.10834,0.099127
689,0.10669,0.011648,0.0090175,-0.074186,-0.24125,0.064925,0.062294
690,0.08367,0.034011,0.024474,-0.053796,-0.007097,0.026119,0.021186
691,0.074791,0.074133,0.039931,-0.026171,0.2093,-0.0038083,-0.013345
692,0.074462,0.1182,0.054072,0.0030979,0.36025,-0.022883,-0.038339
693,0.076106,0.15701,0.061965,0.02875,0.43753,-0.033078,-0.051165
694,0.076435,0.18529,0.065254,0.046837,0.45529,-0.04097,-0.054125
695,0.07512,0.20305,0.065912,0.056703,0.43523,-0.054454,-0.052152
696,0.071173,0.21785,0.061636,0.055388,0.40958,-0.071884,-0.050836
697,0.066569,0.23594,0.053743,0.047495,0.41616,-0.091287,-0.057085
698,0.065583,0.25238,0.040918,0.039931,0.47996,-0.1074,-0.071884
699,0.063281,0.26159,0.02579,0.039602,0.60591,-0.11727,-0.089972
700,0.056703,0.25633,0.0096753,0.046508,0.76015,-0.1199,-0.10444
701,0.042233,0.24416,-0.0080836,0.056374,0.87493,-0.11825,-0.11168
702,0.018884,0.22969,-0.022883,0.064925,0.88907,-0.1176,-0.10674
703,-0.0087413,0.21818,-0.030118,0.071173,0.80323,-0.12056,-0.089972
704,-0.030118,0.20765,-0.031762,0.075449,0.66445,-0.12944,-0.067609
705,-0.037353,0.1945,-0.028144,0.077422,0.54277,-0.14358,-0.045903
706,-0.03242,0.18496,-0.026829,0.077751,0.50659,-0.1564,-0.027487
707,-0.019594,0.18102,-0.031762,0.078737,0.59637,-0.16002,-0.015319
708,-0.0074258,0.18036,-0.040641,0.083013,0.79468,-0.15311,-0.0077547
709,0.0011247,0.17575,-0.050836,0.08663,1.0262,-0.1324,-0.0034794
710,0.0093464,0.16063,-0.056098,0.088932,1.2038,-0.098193,-0.0024928
711,0.017239,0.13333,-0.054783,0.090577,1.2745,-0.051823,-0.0008485
712,0.026447,0.10209,-0.051165,0.090248,1.2357,-0.0024928,0.00079584
713,0.037629,0.074133,-0.043272,0.082355,1.1249,0.039931,0.0024402
714,0.048482,0.050126,-0.028802,0.065912,0.98674,0.068871,0.0037556
715,0.053086,0.021843,-0.012359,0.047166,0.84598,0.09255,0.0063866
716,0.048482,-0.021238,-0.0031506,0.034998,0.68517,0.12346,0.013951
717,0.035327,-0.084381,-0.0064392,0.035985,0.47338,0.16359,0.021514
718,0.017239,-0.1666,-0.021567,0.050455,0.1968,0.20568,0.026776
719,-0.00019077,-0.26065,-0.044588,0.068543,-0.13009,0.2435,0.021186
720,-0.0057815,-0.34813,-0.068924,0.077422,-0.46652,0.27047,0.0073732
721,0.0021113,-0.40864,-0.087012,0.071502,-0.76119,0.28099,-0.013017
722,0.021843,-0.43101,-0.093918,0.054072,-0.96739,0.2731,-0.03538
723,0.046508,-0.41292,-0.089643,0.033354,-1.0621,0.2412,-0.049192
724,0.0692,-0.36556,-0.079119,0.013951,-1.048,0.19022,-0.051165
725,0.081039,-0.30275,-0.069911,-0.0054526,-0.94404,0.13037,-0.046232
726,0.075449,-0.23994,-0.069582,-0.022554,-0.78191,0.066898,-0.033078
727,0.055059,-0.18567,-0.078461,-0.034393,-0.59873,0.0080309,-0.017292
728,0.026447,-0.14785,-0.090629,-0.041957,-0.42344,-0.041299,-0.0061104
729,0.0017824,-0.12154,-0.09622,-0.046561,-0.27085,-0.080106,-0.0038083
730,-0.013674,-0.10214,-0.092931,-0.04985,-0.1541,-0.11069,-0.0034794
731,-0.020581,-0.093918,-0.082736,-0.054454,-0.076817,-0.13667,0.0017824
732,-0.025842,-0.098522,-0.069582,-0.059716,-0.032091,-0.16298,0.0086887
733,-0.034722,-0.11365,-0.055769,-0.065307,-0.0051238,-0.19028,0.016581
734,-0.05281,-0.1324,-0.045574,-0.063333,0.018226,-0.21231,0.024803
735,-0.089314,-0.1495,-0.042615,-0.051165,0.046837,-0.22415,0.033354
736,-0.14456,-0.16265,-0.049192,-0.033735,0.075778,-0.22185,0.042891
737,-0.21099,-0.17022,-0.056756,-0.015319,0.096167,-0.20606,0.052757
738,-0.27611,-0.16857,-0.060373,-0.0090702,0.10011,-0.18074,0.062294
739,-0.32873,-0.15147,-0.053467,-0.01795,0.085315,-0.14752,0.070516
740,-0.3649,-0.12154,-0.039984,-0.032749,0.053086,-0.10674,0.075449
741,-0.38497,-0.076488,-0.024198,-0.04689,0.011648,-0.058729,0.081368
742,-0.3899,-0.024856,-0.011043,-0.057743,-0.031104,0.00079584,0.087946
743,-0.38266,0.020528,-0.0018351,-0.061689,-0.07024,0.072818,0.097812
744,-0.36425,0.055388,0.0011247,-0.056098,-0.097207,0.15175,0.11162
745,-0.33432,0.082684,-0.0015062,-0.045574,-0.10609,0.22903,0.12807
746,-0.28795,0.10439,-0.0041372,-0.033406,-0.10017,0.29119,0.14648
747,-0.21757,0.12083,-0.0015062,-0.022883,-0.080763,0.33493,0.17115
748,-0.12089,0.12182,0.0063866,-0.014003,-0.051494,0.35959,0.19746
749,-0.0011774,0.098469,0.012306,-0.0041372,-0.018278,0.36551,0.21883
750,0.13432,0.05473,0.017568,0.0083598,0.012964,0.35236,0.23166
751,0.2731,0.0040845,0.026776,0.028421,0.042233,0.32177,0.23857
752,0.40201,-0.039655,0.041575,0.053086,0.074462,0.27704,0.24613
753,0.50692,-0.07024,0.056374,0.077093,0.11919,0.22344,0.25369
754,0.57401,-0.078461,0.067227,0.097154,0.18036,0.1626,0.25106
755,0.60032,-0.062676,0.079724,0.1159,0.25304,0.10307,0.22443
756,0.5921,-0.030118,0.098798,0.13432,0.31782,0.051441,0.1695
757,0.55987,0.015595,0.12873,0.15043,0.35663,0.0093464,0.091892
758,0.51218,0.0692,0.16556,0.15931,0.35334,-0.021238,0.00046697
759,0.44444,0.11721,0.19845,0.16227,0.30664,-0.038011,-0.088985
760,0.354,0.14122,0.2162,0.15405,0.22673,-0.039326,-0.1689
761,0.24054,0.13103,0.2162,0.13892,0.13596,-0.0265,-0.23599
762,0.11327,0.085315,0.19845,0.12116,0.061965,0.0014536,-0.29025
763,-0.01499,0.020857,0.16786,0.10406,0.030394,0.047166,-0.33037
764,-0.12878,-0.043272,0.13333,0.089919,0.054072,0.10636,-0.34451
765,-0.21428,-0.092274,0.1057,0.080053,0.13662,0.17016,-0.31853
766,-0.26855,-0.11891,0.091563,0.071831,0.27178,0.22903,-0.24388
767,-0.29683,-0.12746,0.087946,0.066898,0.44838,0.28066,-0.13141
768,-0.31163,-0.12812,0.085644,0.066898,0.63847,0.32374,-0.0015062
769,-0.31722,-0.12253,0.078409,0.068871,0.79205,0.35729,0.12642
770,-0.31557,-0.11036,0.066569,0.068871,0.8575,0.38261,0.23922
771,-0.29847,-0.089314,0.053415,0.065583,0.80586,0.39445,0.3267
772,-0.25539,-0.060373,0.041904,0.057361,0.65656,0.38097,0.38754
773,-0.18666,-0.025842,0.032038,0.041247,0.46417,0.34052,0.42536
774,-0.1097,0.010662,0.023817,0.022172,0.28362,0.28165,0.45003
775,-0.048205,0.042233,0.020528,0.0067154,0.15142,0.22015,0.46417
776,-0.015648,0.057032,0.023817,0.0011247,0.079395,0.16457,0.45891
777,-0.0077547,0.057032,0.030723,0.0030979,0.049468,0.11294,0.42503
778,-0.0051238,0.050126,0.03434,0.0073732,0.035656,0.064596,0.35827
779,0.0096753,0.044864,0.031709,0.0083598,0.019541,0.018226,0.27014
780,0.047495,0.04322,0.024145,0.0060577,-0.007097,-0.024856,0.17838
781,0.10209,0.045851,0.016581,0.0040845,-0.039984,-0.063333,0.093536
782,0.15175,0.05177,0.01132,0.0014536,-0.067937,-0.096878,0.01987
783,0.17016,0.055717,0.010333,-0.0015062,-0.083723,-0.12286,-0.040641
784,0.14648,0.050455,0.015266,-0.00019077,-0.087012,-0.13174,-0.086683
785,0.095839,0.036642,0.025132,0.0011247,-0.081421,-0.11036,-0.11464
786,0.048482,0.015266,0.036642,0.0011247,-0.063333,-0.053138,-0.12582
787,0.023817,-0.0087413,0.044864,0.0021113,-0.018278,0.031381,-0.12483
788,0.022501,-0.0265,0.042562,0.0067154,0.062952,0.11952,-0.12023
789,0.036642,-0.03242,0.031052,0.0083598,0.15767,0.19055,-0.11398
790,0.053743,-0.0265,0.018555,0.0054,0.21226,0.23133,-0.11036
791,0.070516,-0.011372,0.011648,0.00079584,0.17674,0.23824,-0.1074
792,0.089261,0.0037556,0.012635,-0.00019077,0.041904,0.21489,-0.098193
793,0.1205,0.01132,0.020199,0.010662,-0.1541,0.16457,-0.078461
794,0.18102,0.010662,0.033683,0.029078,-0.34517,0.091234,-0.053138
795,0.27639,0.0060577,0.047495,0.048153,-0.4731,0.0034268,-0.0265
796,0.39346,0.002769,0.058019,0.062952,-0.51684,-0.084381,-0.0074258
797,0.49837,0.0057288,0.067227,0.073476,-0.49875,-0.16594,0.002769
798,0.55494,0.018226,0.075449,0.076764,-0.4583,-0.23796,0.0070443
799,0.5431,0.033025,0.086301,0.066569,-0.42838,-0.29683,0.0096753
800,0.4668,0.039931,0.099456,0.040918,-0.4218,-0.34123,0.0077021
801,0.35104,0.038944,0.10834,0.0021113,-0.43232,-0.3705,0.00079584
802,0.22706,0.03434,0.10603,-0.040641,-0.44022,-0.38595,-0.010057
803,0.12379,0.031709,0.092879,-0.084381,-0.41752,-0.39549,-0.026829
804,0.050126,0.027763,0.073147,-0.12648,-0.35438,-0.40009,-0.048863
805,-0.0051238,0.021186,0.049797,-0.15969,-0.26032,-0.40075,-0.076159
806,-0.056098,0.0096753,0.030065,-0.17581,-0.16134,-0.3922,-0.10444
807,-0.11957,-0.0031506,0.019212,-0.1712,-0.080434,-0.37247,-0.12417
808,-0.19225,-0.012359,0.012306,-0.14621,-0.031762,-0.34221,-0.13338
809,-0.26065,-0.0067681,0.0037556,-0.10247,-0.020581,-0.30538,-0.13371
810,-0.31163,0.015595,-0.0061104,-0.045903,-0.035708,-0.27085,-0.13075
811,-0.3409,0.047824,-0.014003,0.01691,-0.063004,-0.24158,-0.12615
812,-0.34978,0.082026,-0.016634,0.077093,-0.087341,-0.2156,-0.11858
813,-0.34616,0.10669,-0.0090702,0.12774,-0.10378,-0.19192,-0.10378
814,-0.34221,0.11656,0.013622,0.17115,-0.10707,-0.1689,-0.081092
815,-0.33794,0.11162,0.046508,0.20831,-0.10444,-0.14259,-0.054783
816,-0.32643,0.10176,0.080382,0.23462,-0.10214,-0.11233,-0.032091
817,-0.29716,0.097483,0.10669,0.2458,-0.10477,-0.085039,-0.016305
818,-0.25342,0.10242,0.12708,0.2435,-0.1051,-0.067937,-0.0077547
819,-0.20376,0.11064,0.14188,0.23232,-0.092931,-0.0584,0.0001381
820,-0.15081,0.12017,0.15372,0.22048,-0.048863,-0.047548,0.015266
821,-0.097864,0.13169,0.16622,0.21522,0.042233,-0.02946,0.037629
822,-0.039655,0.14879,0.182,0.21719,0.17246,-0.0064392,0.062623
823,0.034011,0.17246,0.19581,0.22475,0.30467,0.01691,0.081368
824,0.13497,0.19746,0.19614,0.23199,0.40596,0.035656,0.085315
825,0.26849,0.21916,0.1797,0.23298,0.45003,0.045522,0.068214
826,0.42339,0.23067,0.14056,0.21982,0.42767,0.042891,0.033354
827,0.57566,0.21916,0.08367,0.18858,0.34578,0.031381,-0.011372
828,0.68451,0.18628,0.016581,0.14879,0.23035,0.01987,-0.052481
829,0.71312,0.13991,-0.044917,0.11064,0.11656,0.017897,-0.07879
830,0.65261,0.094523,-0.084381,0.081697,0.029736,0.026776,-0.084381
831,0.51712,0.057032,-0.093589,0.064596,-0.027816,0.046837,-0.077146
832,0.34052,0.033683,-0.080106,0.055059,-0.064649,0.074791,-0.065635
833,0.15931,0.024474,-0.054454,0.046508,-0.089314,0.10669,-0.051823
834,-0.004466,0.029078,-0.027158,0.040918,-0.11233,0.1376,-0.033406
835,-0.14423,0.039273,-0.0084125,0.037629,-0.13536,0.1626,-0.012688
836,-0.25145,0.049797,-0.0054526,0.033683,-0.15542,0.1751,0.0060577
837,-0.31689,0.056046,-0.014661,0.024803,-0.17054,0.17345,0.019212
838,-0.33498,0.055388,-0.025842,0.013293,-0.18534,0.16391,0.030394
839,-0.30867,0.045193,-0.02946,0.0054,-0.19883,0.15734,0.044535
840,-0.25506,0.028421,-0.022883,0.0054,-0.21297,0.15865,0.059992
841,-0.186,0.0077021,-0.0090702,0.015266,-0.22941,0.16589,0.071173
842,-0.11201,-0.012359,0.0086887,0.030065,-0.24651,0.17641,0.075778
843,-0.044588,-0.025514,0.026776,0.047824,-0.25704,0.19055,0.07512
844,0.0070443,-0.025842,0.042891,0.065583,-0.25506,0.20371,0.070187
845,0.040918,-0.0080836,0.053743,0.07808,-0.235,0.21555,0.068214
846,0.062294,0.025132,0.06065,0.080382,-0.19488,0.22541,0.071173
847,0.077751,0.061636,0.065583,0.07512,-0.13733,0.23232,0.077093
848,0.08663,0.094852,0.067227,0.060979,-0.061031,0.23791,0.081697
849,0.087288,0.12083,0.062623,0.037958,0.024145,0.24218,0.084986
850,0.081368,0.13366,0.050126,0.012306,0.10669,0.24054,0.088275
851,0.079066,0.13136,0.029078,-0.010386,0.17049,0.231,0.088603
852,0.084657,0.11426,0.0034268,-0.024856,0.20864,0.21259,0.086959
853,0.10209,0.087617,-0.023211,-0.030775,0.21883,0.18167,0.082355
854,0.12609,0.059005,-0.048534,-0.031104,0.20404,0.14056,0.074133
855,0.14912,0.031709,-0.069582,-0.026829,0.17477,0.098141,0.065912
856,0.15175,0.0037556,-0.083723,-0.021238,0.14912,0.062294,0.055388
857,0.12017,-0.021567,-0.088656,-0.016634,0.13958,0.040918,0.044206
858,0.057032,-0.043272,-0.087341,-0.0084125,0.16063,0.034669,0.038944
859,-0.027487,-0.058729,-0.082736,0.002769,0.22114,0.045522,0.040918
860,-0.12023,-0.063004,-0.07879,0.013293,0.31092,0.067227,0.04618
861,-0.20508,-0.05281,-0.076159,0.018226,0.38623,0.091892,0.055059
862,-0.2748,-0.028802,-0.07287,0.017568,0.40234,0.10866,0.068214
863,-0.33202,0.0034268,-0.065635,0.015924,0.34348,0.11656,0.089919
864,-0.38135,0.039931,-0.052481,0.01691,0.22771,0.1136,0.11491
865,-0.41884,0.076764,-0.028802,0.028421,0.090905,0.10439,0.12873
866,-0.43528,0.11031,0.002769,0.050455,-0.031762,0.09255,0.1307
867,-0.41522,0.13103,0.035327,0.073476,-0.11529,0.076764,0.12478
868,-0.34682,0.13892,0.056046,0.083999,-0.15969,0.061965,0.11787
869,-0.22875,0.1432,0.058019,0.07512,-0.17482,0.050126,0.10899
870,-0.076159,0.15503,0.048153,0.047824,-0.17252,0.043549,0.093865
871,0.083013,0.17378,0.038944,0.013951,-0.15805,0.041575,0.074791
872,0.22607,0.18924,0.0373,-0.013674,-0.13536,0.045522,0.056703
873,0.3392,0.19384,0.04026,-0.025514,-0.10477,0.058348,0.04322
874,0.41451,0.18365,0.040589,-0.021896,-0.059387,0.081368,0.036971
875,0.45233,0.16161,0.032367,-0.007097,0.0090175,0.11064,0.031381
876,0.45792,0.13432,0.011648,0.010333,0.10669,0.13892,0.021843
877,0.44608,0.10801,-0.016634,0.023159,0.21752,0.16161,0.011648
878,0.43293,0.088932,-0.040641,0.030394,0.30598,0.17707,0.0060577
879,0.42306,0.074462,-0.050507,0.031709,0.34216,0.18989,0.010662
880,0.40958,0.065254,-0.043272,0.029078,0.32243,0.20732,0.025132
881,0.38097,0.059005,-0.027158,0.026119,0.26159,0.23331,0.047166
882,0.33591,0.053086,-0.0093991,0.023817,0.18924,0.26521,0.073147
883,0.27704,0.042891,0.002769,0.021514,0.13169,0.2925,0.098141
884,0.20963,0.031709,0.0060577,0.016581,0.10307,0.30138,0.1136
885,0.14188,0.02579,-0.00051963,0.002769,0.1011,0.28296,0.11426
886,0.078409,0.029736,-0.0080836,-0.017292,0.10768,0.23659,0.10143
887,0.021514,0.038287,-0.0090702,-0.033735,0.1057,0.16983,0.084657
888,-0.030118,0.039602,-0.0064392,-0.042615,0.082355,0.084328,0.071173
889,-0.077803,0.029407,-0.0024928,-0.045246,0.034998,-0.019265,0.059334
890,-0.11858,0.0040845,-0.0015062,-0.042615,-0.032749,-0.1347,0.045851
891,-0.15706,-0.036037,-0.0028217,-0.042286,-0.10576,-0.2498,0.030394
892,-0.1906,-0.080763,-0.0038083,-0.047548,-0.16068,-0.34715,0.017239
893,-0.21363,-0.11562,-0.0015062,-0.060373,-0.17745,-0.41621,0.013622
894,-0.22514,-0.13601,0.0050711,-0.077803,-0.14029,-0.4514,0.02283
895,-0.22908,-0.14325,0.014937,-0.095562,-0.04985,-0.4537,0.042891
896,-0.23171,-0.14292,0.022172,-0.10444,0.070516,-0.42903,0.0692
897,-0.23928,-0.13272,0.023817,-0.097207,0.18233,-0.3876,0.093208
898,-0.25309,-0.10839,0.021514,-0.076159,0.25731,-0.34123,0.11228
899,-0.26953,-0.064649,0.018226,-0.048863,0.28494,-0.29749,0.12774
900,-0.28104,-0.0084125,0.012964,-0.026829,0.27047,-0.25408,0.13793
901,-0.27578,0.049468,0.0067154,-0.013017,0.22541,-0.20244,0.14517
902,-0.24059,0.10077,0.0034268,-0.0084125,0.16753,-0.14062,0.14912
903,-0.17581,0.13991,0.010991,-0.0057815,0.10603,-0.071555,0.15142
904,-0.096878,0.15898,0.030394,0.0030979,0.053086,0.0060577,0.15076
905,-0.022883,0.15405,0.055717,0.01691,0.014608,0.093208,0.15207
906,0.040589,0.12346,0.076764,0.032696,-0.011372,0.19055,0.15602
907,0.094194,0.076764,0.084657,0.047495,-0.033406,0.2925,0.15832
908,0.14056,0.033354,0.079066,0.056046,-0.054783,0.38952,0.15405
909,0.18003,-0.0015062,0.067556,0.058676,-0.073857,0.47239,0.13629
910,0.21555,-0.023211,0.059992,0.059005,-0.091616,0.52501,0.10998
911,0.24745,-0.034064,0.059334,0.05473,-0.1074,0.53849,0.083999
912,0.27672,-0.035708,0.064925,0.042562,-0.12812,0.50824,0.062294
913,0.30434,-0.028473,0.07216,0.02579,-0.1587,0.4372,0.051441
914,0.32868,-0.016963,0.074462,0.010662,-0.19521,0.34019,0.052099
915,0.34512,-0.0057815,0.066898,0.0077021,-0.22678,0.23692,0.055388
916,0.35005,-0.0018351,0.054072,0.014937,-0.23961,0.1432,0.047824
917,0.33624,-0.0077547,0.039273,0.026776,-0.23171,0.06065,0.024145
918,0.30105,-0.023211,0.029736,0.038944,-0.20935,-0.01203,-0.0067681
919,0.24383,-0.042286,0.024145,0.049797,-0.18008,-0.072542,-0.03242
920,0.17049,-0.058071,0.018884,0.05473,-0.1541,-0.12187,-0.047219
921,0.091234,-0.060373,0.013293,0.051441,-0.13832,-0.16627,-0.054783
922,0.014608,-0.045903,0.010991,0.044206,-0.13766,-0.21067,-0.061031
923,-0.049521,-0.021567,0.010004,0.042233,-0.14391,-0.25441,-0.066293
924,-0.093918,0.0057288,0.012306,0.050126,-0.13996,-0.29749,-0.069253
925,-0.1245,0.032367,0.015266,0.065912,-0.11464,-0.33728,-0.071226
926,-0.15015,0.056703,0.02579,0.07808,-0.06728,-0.37346,-0.071555
927,-0.17613,0.077751,0.048482,0.081368,-0.011372,-0.40601,-0.066951
928,-0.20639,0.095181,0.081368,0.081039,0.037629,-0.43364,-0.054125
929,-0.235,0.10307,0.11327,0.082684,0.068214,-0.45699,-0.036695
930,-0.25112,0.094523,0.13201,0.08959,0.076435,-0.47672,-0.020252
931,-0.24585,0.066898,0.13497,0.098141,0.065254,-0.48856,-0.010057
932,-0.21757,0.026776,0.12248,0.10274,0.044864,-0.48955,-0.0093991
933,-0.17219,-0.019265,0.1034,0.098469,0.032696,-0.47639,-0.01203
934,-0.11694,-0.060373,0.083999,0.087617,0.049468,-0.44482,-0.0087413
935,-0.051823,-0.093589,0.067227,0.078737,0.10866,-0.39187,0.0001381
936,0.023488,-0.11825,0.053086,0.076435,0.20305,-0.30965,0.012306
937,0.098798,-0.14029,0.035327,0.081697,0.30368,-0.20212,0.019212
938,0.14912,-0.15542,0.018555,0.08959,0.37603,-0.076817,0.017568
939,0.15306,-0.15838,0.0090175,0.099785,0.39083,0.053086,0.0073732
940,0.10669,-0.14621,0.012964,0.10834,0.32999,0.17806,-0.0080836
941,0.02283,-0.12253,0.027434,0.11458,0.19845,0.29184,-0.025842
942,-0.071226,-0.093918,0.04618,0.11689,0.016253,0.39116,-0.037682
943,-0.14719,-0.072213,0.060321,0.11853,-0.17712,0.4793,-0.03538
944,-0.18699,-0.063004,0.068214,0.11689,-0.3307,0.55724,-0.021567
945,-0.19455,-0.063991,0.072818,0.11195,-0.40207,0.62926,-0.0074258
946,-0.18337,-0.066293,0.078737,0.10866,-0.37181,0.69898,0.00046697
947,-0.16364,-0.063991,0.088603,0.10899,-0.25079,0.76015,0.0047422
948,-0.14062,-0.057085,0.10077,0.10965,-0.063991,0.80192,0.010333
949,-0.11562,-0.045246,0.10834,0.10669,0.15043,0.81573,0.021843
950,-0.088985,-0.026171,0.10603,0.097483,0.35268,0.80027,0.036971
951,-0.061031,0.0011247,0.092879,0.084328,0.52304,0.76673,0.049139
952,-0.030447,0.036642,0.070845,0.072818,0.65393,0.72398,0.054401
953,0.0060577,0.084657,0.044535,0.066569,0.74535,0.67136,0.050784
954,0.052757,0.14648,0.021186,0.062294,0.80685,0.60427,0.04026
955,0.11393,0.21061,0.0044134,0.058348,0.86276,0.51679,0.028092
956,0.18891,0.25698,-0.007097,0.057361,0.94169,0.41714,0.01691
957,0.26915,0.27376,-0.01499,0.061965,1.0348,0.31618,0.002769
958,0.34183,0.25534,-0.019594,0.068543,1.0979,0.21982,-0.017292
959,0.38952,0.21127,-0.020581,0.071831,1.065,0.13103,-0.039326
960,0.40497,0.15964,-0.016634,0.070516,0.89827,0.047824,-0.058729
961,0.38689,0.1159,-0.0093991,0.064596,0.60493,-0.034064,-0.076817
962,0.33788,0.085315,0.00046697,0.053743,0.23396,-0.11628,-0.095562
963,0.27014,0.067227,0.0090175,0.036971,-0.14062,-0.19883,-0.11102
964,0.20239,0.058348,0.013293,0.020199,-0.45074,-0.27578,-0.11825
965,0.15043,0.060321,0.01132,0.0057288,-0.65595,-0.33761,-0.12187
966,0.12017,0.074133,0.0050711,-0.0077547,-0.74573,-0.38102,-0.12648
967,0.10669,0.094523,0.002769,-0.018607,-0.73587,-0.40536,-0.12976
968,0.096825,0.1159,0.0050711,-0.024856,-0.66187,-0.41456,-0.12812
969,0.078737,0.13399,0.0090175,-0.022554,-0.57176,-0.41884,-0.12187
970,0.049139,0.14648,0.0054,-0.01499,-0.50106,-0.42344,-0.11398
971,0.010662,0.15109,-0.0090702,-0.0054526,-0.45896,-0.42607,-0.11464
972,-0.028802,0.14944,-0.030118,0.0014536,-0.42246,-0.42213,-0.12253
973,-0.06432,0.14747,-0.049521,0.0093464,-0.36162,-0.41489,-0.12878
974,-0.088327,0.14517,-0.06136,0.019212,-0.26822,-0.40733,-0.12417
975,-0.093918,0.13662,-0.061689,0.029078,-0.1518,-0.39944,-0.1051
976,-0.07879,0.11787,-0.051494,0.037629,-0.036037,-0.39187,-0.076488
977,-0.046561,0.091892,-0.038668,0.046508,0.055059,-0.39056,-0.044588
978,-0.0084125,0.061307,-0.028802,0.058676,0.099456,-0.39352,-0.017621
979,0.028421,0.034669,-0.022883,0.074133,0.084328,-0.39944,-0.0011774
980,0.056374,0.014937,-0.018607,0.086301,0.01132,-0.40108,0.0070443
981,0.064596,0.0024402,-0.014661,0.086959,-0.091945,-0.39779,0.013293
982,0.046508,-0.0097279,-0.010386,0.073804,-0.18863,-0.38661,0.024474
983,0.0060577,-0.025185,-0.0051238,0.055059,-0.24881,-0.3649,0.040918
984,-0.044588,-0.039326,0.00079584,0.039602,-0.26427,-0.33235,0.056046
985,-0.094905,-0.047219,0.0044134,0.034669,-0.2373,-0.29387,0.060979
986,-0.13667,-0.043601,0.0060577,0.043877,-0.16726,-0.25342,0.053743
987,-0.17153,-0.024856,0.0054,0.064596,-0.061689,-0.20902,0.042891
988,-0.19422,0.002769,0.0073732,0.090248,0.054401,-0.16035,0.032367
989,-0.20146,0.034011,0.013951,0.11261,0.13793,-0.11135,0.024474
990,-0.19422,0.062623,0.02283,0.12609,0.15306,-0.068266,0.022501
991,-0.17613,0.085972,0.037629,0.12708,0.097154,-0.035051,0.033025
992,-0.14785,0.10011,0.061965,0.11886,0.0001381,-0.007097,0.052757
993,-0.10543,0.10801,0.088603,0.1011,-0.097536,0.016253,0.071831
994,-0.045574,0.10899,0.10603,0.077422,-0.16561,0.039602,0.085315
995,0.026447,0.098141,0.10866,0.052428,-0.19784,0.068543,0.098141
996,0.094523,0.071502,0.10406,0.034669,-0.20508,0.099456,0.11853
997,0.14517,0.033354,0.095839,0.02283,-0.20968,0.1284,0.14517
998,0.17246,-0.0038083,0.088275,0.014937,-0.23467,0.14681,0.17477
999,0.18332,-0.028802,0.081697,0.0083598,-0.29453,0.15438,0.20042
1000,0.18661,-0.03538,0.073476,-0.0011774,-0.38628,0.1501,0.21851
1001,0.18134,-0.022225,0.063938,-0.015976,-0.48955,0.13464,0.22936
1002,0.16391,0.010004,0.055059,-0.031762,-0.57242,0.11064,0.23429
1003,0.13629,0.047166,0.04618,-0.04689,-0.6132,0.082684,0.2241
1004,0.10505,0.075778,0.0373,-0.056756,-0.60892,0.054401,0.19746
1005,0.074462,0.088932,0.034011,-0.062347,-0.57143,0.031052,0.1649
1006,0.049139,0.084986,0.042233,-0.062018,-0.51421,0.013293,0.13826
1007,0.034011,0.06361,0.060979,-0.060373,-0.44877,-0.00051963,0.12248
1008,0.035656,0.026447,0.079724,-0.059058,-0.38201,-0.0080836,0.1159
1009,0.053415,-0.01795,0.09255,-0.059716,-0.32347,-0.007097,0.11491
1010,0.078409,-0.056427,0.093865,-0.059716,-0.28236,0.002769,0.11754
1011,0.095839,-0.082736,0.078409,-0.06432,-0.25572,0.019541,0.11853
1012,0.098469,-0.09622,0.052099,-0.072213,-0.23763,0.036314,0.1136
1013,0.084328,-0.095891,0.024803,-0.080106,-0.22744,0.048482,0.10044
1014,0.062623,-0.086683,0.0034268,-0.08471,-0.2202,0.055059,0.088603
1015,0.036971,-0.076817,-0.0067681,-0.083065,-0.21691,0.055388,0.083342
1016,0.0073732,-0.071226,-0.0090702,-0.074515,-0.22218,0.050126,0.082026
1017,-0.021238,-0.065307,-0.0041372,-0.056756,-0.22842,0.043877,0.079395
1018,-0.044588,-0.055112,0.0040845,-0.037353,-0.21428,0.0373,0.071502
1019,-0.064978,-0.04097,0.0093464,-0.023211,-0.13799,0.032367,0.058348
1020,-0.076488,-0.022883,0.0083598,-0.014332,0.032367,0.030723,0.043549
1021,-0.068924,0.0001381,0.0030979,-0.0084125,0.30894,0.040589,0.029078
1022,-0.043601,0.027434,-0.004466,-0.0024928,0.66577,0.069858,0.010333
1023,-0.010386,0.055388,-0.0097279,0.0047422,1.0473,0.11721,-0.016634
1024,0.019541,0.077422,-0.0097279,0.011977,1.3715,0.16654,-0.047877
1025,0.041247,0.092879,-0.010386,0.012306,1.5511,0.20272,-0.076488
1026,0.054401,0.10143,-0.016963,0.0050711,1.5461,0.2139,-0.091945
1027,0.060321,0.10439,-0.026171,-0.0051238,1.3863,0.20173,-0.089972
1028,0.067885,0.10242,-0.031104,-0.014332,1.1416,0.17575,-0.071226
1029,0.080053,0.094523,-0.025514,-0.020252,0.87953,0.15207,-0.041299
1030,0.097483,0.080053,-0.01203,-0.018607,0.6605,0.13728,-0.0047949
1031,0.10998,0.057361,0.002769,-0.0024928,0.50692,0.13037,0.033683
1032,0.11228,0.028092,0.013951,0.027434,0.40563,0.12313,0.06361
1033,0.10077,0.002769,0.015595,0.063281,0.32933,0.10932,0.073147
1034,0.076106,-0.0087413,0.0077021,0.094852,0.24942,0.088932,0.061965
1035,0.045851,-0.0018351,-0.0038083,0.11393,0.14616,0.066569,0.035656
1036,0.019541,0.018884,-0.011372,0.11162,0.014279,0.044535,0.0044134
1037,0.0060577,0.047495,-0.0080836,0.094194,-0.13536,0.025461,-0.017621
1038,0.0080309,0.074133,0.0073732,0.073476,-0.28861,0.010004,-0.024856
1039,0.02283,0.090577,0.029078,0.059334,-0.42673,0.0001381,-0.015319
1040,0.038616,0.10472,0.047495,0.052757,-0.52901,-0.0041372,0.0057288
1041,0.04618,0.12281,0.059334,0.045193,-0.57702,-0.0034794,0.031052
1042,0.038287,0.13991,0.065583,0.035327,-0.55861,-0.0034794,0.049797
1043,0.017568,0.14944,0.065912,0.027434,-0.48264,-0.0051238,0.056046
1044,-0.007097,0.1478,0.059005,0.021514,-0.34583,-0.007097,0.051113
1045,-0.024856,0.13596,0.050784,0.018226,-0.15706,-0.00019077,0.044206
1046,-0.031104,0.11853,0.045193,0.017568,0.025132,0.023817,0.044206
1047,-0.033078,0.096167,0.04881,0.019212,0.12774,0.064596,0.058019
1048,-0.041957,0.062623,0.057032,0.025132,0.10669,0.11721,0.084328
1049,-0.063333,0.017568,0.061307,0.034998,-0.020581,0.17937,0.11853
1050,-0.094576,-0.031762,0.056046,0.044864,-0.18962,0.24416,0.14944
1051,-0.12549,-0.082079,0.039602,0.051113,-0.34156,0.30204,0.16227
1052,-0.14851,-0.12911,0.019212,0.050784,-0.4537,0.34183,0.15273
1053,-0.16364,-0.16561,0.0014536,0.039602,-0.53065,0.35795,0.12083
1054,-0.1689,-0.18304,-0.0061104,0.017897,-0.59248,0.35597,0.077751
1055,-0.1587,-0.17877,0.0001381,-0.0061104,-0.65233,0.34775,0.035656
1056,-0.12878,-0.15969,0.012635,-0.026829,-0.70594,0.34545,0.002769
1057,-0.083065,-0.13075,0.024474,-0.038011,-0.73784,0.3517,-0.019265
1058,-0.030775,-0.096878,0.027763,-0.037353,-0.73028,0.36518,-0.033078
1059,0.013622,-0.062347,0.024145,-0.024527,-0.66483,0.3813,-0.045246
1060,0.049468,-0.028473,0.01691,-0.0011774,-0.5369,0.39248,-0.058729
1061,0.087288,0.0080309,0.012635,0.024474,-0.35537,0.38985,-0.069582
1062,0.14024,0.050784,0.01132,0.044864,-0.14983,0.3734,-0.069253
1063,0.21653,0.1034,0.014279,0.05769,0.049797,0.35137,-0.052152
1064,0.31223,0.15964,0.017897,0.06624,0.22771,0.32769,-0.025514
1065,0.41221,0.21193,0.02283,0.073147,0.37998,0.29941,0.0030979
1066,0.49673,0.24778,0.026119,0.076435,0.50429,0.2629,0.026119
1067,0.54244,0.25369,0.021514,0.079066,0.59177,0.2139,0.043549
1068,0.53751,0.22936,0.0044134,0.082355,0.64373,0.15898,0.053415
1069,0.48588,0.18693,-0.022883,0.083342,0.67103,0.10373,0.055717
1070,0.40728,0.14155,-0.052481,0.083342,0.68879,0.053086,0.055717
1071,0.31782,0.1057,-0.068924,0.085972,0.72299,0.0040845,0.059992
1072,0.23265,0.085644,-0.065307,0.097483,0.79468,-0.047548,0.071502
1073,0.16326,0.08367,-0.048534,0.11491,0.9088,-0.10017,0.089919
1074,0.11689,0.096167,-0.025185,0.13201,1.0571,-0.14884,0.10965
1075,0.091234,0.11886,-0.0028217,0.14714,1.2393,-0.19159,0.12281
1076,0.073147,0.1455,0.016253,0.15602,1.4524,-0.22382,0.12807
1077,0.05473,0.17378,0.034998,0.15898,1.6721,-0.24388,0.12346
1078,0.038616,0.19647,0.051441,0.15997,1.8497,-0.24454,0.11393
1079,0.027105,0.20634,0.064267,0.16852,1.9306,-0.22481,0.10899
1080,0.013293,0.19845,0.066569,0.18332,1.8609,-0.18205,0.11031
1081,-0.0074258,0.17115,0.05473,0.19779,1.6132,-0.11825,0.11853
1082,-0.038339,0.1307,0.036314,0.20864,1.2091,-0.037353,0.12971
1083,-0.073528,0.077093,0.018226,0.20798,0.71674,0.049139,0.14188
1084,-0.10839,0.020528,0.0080309,0.18825,0.22574,0.1284,0.14648
1085,-0.13864,-0.023869,0.014608,0.15109,-0.17942,0.19055,0.14155
1086,-0.16462,-0.04393,0.040589,0.10538,-0.44844,0.2435,0.13136
1087,-0.19093,-0.047548,0.074791,0.065583,-0.57275,0.30302,0.12149
1088,-0.22612,-0.051494,0.10274,0.04026,-0.58623,0.3757,0.11393
1089,-0.27019,-0.067609,0.11031,0.028421,-0.52868,0.45299,0.10472
1090,-0.32347,-0.095562,0.097483,0.02579,-0.44153,0.51284,0.093208
1091,-0.37378,-0.12549,0.069529,0.02875,-0.34221,0.53849,0.080053
1092,-0.40568,-0.1416,0.034011,0.033683,-0.23862,0.52172,0.06065
1093,-0.4024,-0.13009,0.0021113,0.036971,-0.13996,0.46022,0.029407
1094,-0.35701,-0.086354,-0.012688,0.036971,-0.08471,0.36419,-0.0084125
1095,-0.28071,-0.024527,-0.0064392,0.037958,-0.12516,0.25041,-0.041628
1096,-0.19685,0.038616,0.013951,0.043877,-0.28959,0.13267,-0.066622
1097,-0.1268,0.086959,0.037629,0.059005,-0.55532,0.022501,-0.083394
1098,-0.075173,0.11327,0.056046,0.083342,-0.84143,-0.076817,-0.099509
1099,-0.032091,0.1113,0.062294,0.10932,-1.0572,-0.1689,-0.11398
1100,0.010991,0.091234,0.058019,0.12675,-1.1571,-0.25769,-0.12713
1101,0.053743,0.0692,0.051441,0.13464,-1.1522,-0.34484,-0.14127
1102,0.087946,0.054401,0.049139,0.13793,-1.0884,-0.42673,-0.15015
1103,0.10636,0.048482,0.051441,0.14122,-1.0131,-0.49415,-0.14621
1104,0.1113,0.042233,0.058019,0.14484,-0.947,-0.53328,-0.1347
1105,0.10768,0.031381,0.065912,0.1478,-0.89109,-0.53756,-0.12319
1106,0.10307,0.015924,0.067556,0.14056,-0.83157,-0.50862,-0.11661
1107,0.10176,-0.002164,0.059663,0.11524,-0.75593,-0.45732,-0.11694
1108,0.10373,-0.014661,0.04322,0.062623,-0.65365,-0.3968,-0.12187
1109,0.10603,-0.01499,0.029736,-0.024856,-0.51914,-0.33596,-0.12154
1110,0.10735,-0.0008485,0.026119,-0.13897,-0.36096,-0.27874,-0.11497
1111,0.10899,0.017568,0.031381,-0.25276,-0.20442,-0.22448,-0.10346
1112,0.11393,0.034011,0.0373,-0.33004,-0.086683,-0.17153,-0.094247
1113,0.12905,0.04618,0.039602,-0.35405,-0.038997,-0.12319,-0.086683
1114,0.15832,0.053743,0.037958,-0.333,-0.060045,-0.087998,-0.080434
1115,0.19746,0.052757,0.036971,-0.28499,-0.11694,-0.072542,-0.071884
1116,0.23298,0.041247,0.037958,-0.2281,-0.17745,-0.07024,-0.059387
1117,0.25534,0.023488,0.040589,-0.17285,-0.22283,-0.06728,-0.048863
1118,0.25961,0.0063866,0.042562,-0.12746,-0.24914,-0.053467,-0.053467
1119,0.2458,-0.0051238,0.042562,-0.095562,-0.25079,-0.028802,-0.076488
1120,0.21259,-0.014003,0.039602,-0.078132,-0.22908,-0.0028217,-0.11332
1121,0.16128,-0.02354,0.029736,-0.071555,-0.18074,0.01691,-0.15805
1122,0.095181,-0.035051,0.014937,-0.071226,-0.10576,0.02579,-0.19948
1123,0.033354,-0.042286,-0.0074258,-0.07024,-0.0080836,0.030394,-0.2327
1124,-0.007097,-0.043272,-0.034064,-0.064978,0.094852,0.031052,-0.25473
1125,-0.022554,-0.030775,-0.060702,-0.053138,0.18233,0.033025,-0.25737
1126,-0.020581,-0.0080836,-0.076817,-0.031433,0.23922,0.042562,-0.22678
1127,-0.010386,0.013293,-0.076488,-0.0051238,0.25863,0.056046,-0.15246
1128,-0.0038083,0.026447,-0.06136,0.019212,0.2481,0.0692,-0.037682
1129,-0.0080836,0.030723,-0.036695,0.037629,0.21653,0.079395,0.098141
1130,-0.025185,0.026776,-0.010715,0.049139,0.17312,0.087617,0.23331
1131,-0.052481,0.016581,0.0073732,0.054401,0.12248,0.098141,0.3494
1132,-0.079119,0.002769,0.013951,0.053086,0.066569,0.11294,0.43687
1133,-0.098193,-0.0084125,0.011977,0.048153,0.012306,0.13169,0.49574
1134,-0.10444,-0.013674,0.0073732,0.042233,-0.033406,0.1524,0.53455
1135,-0.099509,-0.015976,-0.0015062,0.036642,-0.053467,0.16753,0.56842
1136,-0.091945,-0.018278,-0.013017,0.032367,-0.024856,0.17641,0.59933
1137,-0.088327,-0.025842,-0.029131,0.032367,0.065912,0.18332,0.61644
1138,-0.09326,-0.039326,-0.047548,0.042891,0.2093,0.18957,0.61249
1139,-0.10674,-0.057085,-0.061031,0.065254,0.37834,0.19318,0.58158
1140,-0.1268,-0.072542,-0.068924,0.094523,0.53521,0.18957,0.52172
1141,-0.14818,-0.083723,-0.073199,0.12083,0.64603,0.17871,0.43622
1142,-0.16232,-0.085696,-0.071555,0.13958,0.69767,0.15832,0.34084
1143,-0.16693,-0.079448,-0.06136,0.15306,0.7003,0.12905,0.24679
1144,-0.16824,-0.069253,-0.045903,0.15832,0.67563,0.093208,0.1626
1145,-0.17285,-0.060373,-0.032091,0.14747,0.63946,0.046837,0.090577
1146,-0.18567,-0.057414,-0.024527,0.12281,0.60197,-0.004466,0.031052
1147,-0.20902,-0.058729,-0.023869,0.091563,0.5625,-0.055112,-0.014661
1148,-0.23106,-0.060045,-0.027158,0.060979,0.5306,-0.099509,-0.049521
1149,-0.24026,-0.053138,-0.028144,0.0373,0.50857,-0.13075,-0.070568
1150,-0.23138,-0.036037,-0.02354,0.021186,0.49245,-0.14785,-0.080106
1151,-0.20902,-0.013017,-0.011372,0.012635,0.47667,-0.15344,-0.085367
1152,-0.17515,0.0083598,0.0067154,0.015266,0.44608,-0.14621,-0.096549
1153,-0.12417,0.019212,0.023488,0.029078,0.39379,-0.13338,-0.11464
1154,-0.050179,0.021514,0.0373,0.048153,0.32078,-0.11266,-0.13075
1155,0.045522,0.022172,0.045193,0.067885,0.24745,-0.086354,-0.13568
1156,0.14648,0.031381,0.046837,0.084657,0.19845,-0.058729,-0.13075
1157,0.23396,0.051113,0.045851,0.096496,0.18989,-0.035051,-0.12023
1158,0.29711,0.072489,0.049139,0.10274,0.21752,-0.019265,-0.10707
1159,0.33032,0.083342,0.062623,0.1034,0.2606,-0.01203,-0.090958
1160,0.34183,0.082684,0.081368,0.1011,0.29151,-0.0077547,-0.074186
1161,0.33887,0.076435,0.096825,0.099127,0.27704,-0.002164,-0.058729
1162,0.3244,0.067885,0.10406,0.10011,0.20009,0.0086887,-0.042944
1163,0.30007,0.063281,0.099456,0.10406,0.067885,0.02283,-0.031433
1164,0.27343,0.063281,0.086959,0.11031,-0.097207,0.0373,-0.029131
1165,0.24909,0.068871,0.07808,0.11919,-0.26986,0.046837,-0.036037
1166,0.22739,0.074133,0.081368,0.12083,-0.42114,0.047824,-0.048534
1167,0.19713,0.074133,0.098141,0.11426,-0.53098,0.039602,-0.066293
1168,0.15799,0.064596,0.12149,0.10274,-0.58492,0.028092,-0.085696
1169,0.11985,0.04881,0.13662,0.091563,-0.5665,0.025132,-0.10773
1170,0.092879,0.027763,0.14056,0.084328,-0.45436,0.034998,-0.13108
1171,0.07512,0.0093464,0.13267,0.084657,-0.22546,0.05473,-0.15443
1172,0.063938,0.0017824,0.1182,0.09255,0.096167,0.083342,-0.17219
1173,0.06065,0.013622,0.10669,0.10768,0.43391,0.12445,-0.17449
1174,0.06361,0.038944,0.1057,0.12511,0.69043,0.17806,-0.1587
1175,0.062294,0.063281,0.10998,0.1376,0.79106,0.23133,-0.12944
1176,0.047166,0.073147,0.11656,0.13991,0.71608,0.27211,-0.097536
1177,0.013622,0.069529,0.12379,0.13037,0.50265,0.29119,-0.07024
1178,-0.029131,0.068543,0.13103,0.1113,0.22574,0.2902,-0.055112
1179,-0.07024,0.085972,0.13826,0.088275,-0.033078,0.27408,-0.047548
1180,-0.10082,0.12807,0.14813,0.070187,-0.21823,0.24514,-0.040313
1181,-0.11825,0.18661,0.15734,0.061965,-0.30965,0.20798,-0.02946
1182,-0.12089,0.24778,0.16194,0.054072,-0.31919,0.1626,-0.011043
1183,-0.11135,0.29316,0.16128,0.04322,-0.26657,0.11031,0.014608
1184,-0.096878,0.3073,0.15799,0.032367,-0.16989,0.057361,0.040589
1185,-0.087341,0.28987,0.15471,0.023488,-0.050836,0.0067154,0.059663
1186,-0.080434,0.24942,0.1501,0.01691,0.058348,-0.042286,0.0692
1187,-0.070897,0.20075,0.14089,0.012306,0.12873,-0.091945,0.073476
1188,-0.050836,0.15668,0.12215,0.0024402,0.14056,-0.1495,0.069529
1189,-0.016634,0.12445,0.096825,-0.015319,0.092221,-0.21494,0.053743
1190,0.035656,0.10406,0.068543,-0.041299,-0.0038083,-0.28071,0.033025
1191,0.10406,0.087946,0.039602,-0.071884,-0.1199,-0.33531,0.011648
1192,0.17773,0.073147,0.012306,-0.094905,-0.22711,-0.37477,-0.0090702
1193,0.23659,0.062623,-0.011043,-0.1051,-0.30735,-0.3968,-0.022225
1194,0.26981,0.059663,-0.025185,-0.10346,-0.35668,-0.40568,-0.024856
1195,0.27704,0.064267,-0.029789,-0.094247,-0.37806,-0.40305,-0.01499
1196,0.26192,0.070516,-0.029789,-0.080106,-0.38135,-0.3922,-0.002164
1197,0.23133,0.076435,-0.031433,-0.063662,-0.37707,-0.37543,0.0063866
1198,0.18726,0.085644,-0.038011,-0.049521,-0.37181,-0.35931,0.0086887
1199,0.13201,0.098141,-0.044588,-0.042944,-0.36721,-0.34813,0.0067154
1200,0.075778,0.11754,-0.047877,-0.048205,-0.36129,-0.34188,0.0037556
1201,0.030723,0.14089,-0.04689,-0.065307,-0.35109,-0.33958,0.0024402
1202,-0.0031506,0.1603,-0.043601,-0.084052,-0.33892,-0.33465,0.0034268
1203,-0.025842,0.17016,-0.038339,-0.094905,-0.32413,-0.32182,0.002769
1204,-0.039984,0.16589,-0.033406,-0.09622,-0.30275,-0.29617,0.0030979
1205,-0.04689,0.15207,-0.029789,-0.087669,-0.26789,-0.26065,0.0073732
1206,-0.046232,0.13234,-0.027816,-0.067609,-0.2202,-0.21856,0.019541
1207,-0.032749,0.10472,-0.027487,-0.038668,-0.16561,-0.17219,0.041575
1208,0.0014536,0.068871,-0.02946,-0.0093991,-0.11431,-0.1199,0.06624
1209,0.059005,0.028421,-0.03242,0.0096753,-0.075501,-0.067609,0.082355
1210,0.12642,-0.011701,-0.039326,0.013951,-0.060702,-0.024527,0.086959
1211,0.18989,-0.05281,-0.04689,0.0096753,-0.073528,-0.0008485,0.084657
1212,0.23166,-0.093589,-0.054783,0.0067154,-0.11036,0.0040845,0.082026
1213,0.24153,-0.13042,-0.062347,0.0060577,-0.16002,-0.0038083,0.083013
1214,0.21818,-0.15936,-0.065307,0.0067154,-0.20968,-0.013345,0.091563
1215,0.1672,-0.18173,-0.060702,0.0040845,-0.23928,-0.015648,0.10439
1216,0.1011,-0.2031,-0.051823,-0.0015062,-0.23533,-0.007097,0.10998
1217,0.035656,-0.22316,-0.046561,-0.0067681,-0.20146,0.010991,0.10373
1218,-0.021238,-0.23434,-0.04689,-0.010057,-0.15706,0.039602,0.087288
1219,-0.07287,-0.23073,-0.052481,-0.0084125,-0.1176,0.079395,0.06624
1220,-0.12812,-0.2133,-0.060045,-0.0018351,-0.091287,0.12774,0.047824
1221,-0.18863,-0.18501,-0.066622,0.0086887,-0.081092,0.18693,0.03434
1222,-0.24618,-0.15114,-0.069582,0.018555,-0.086354,0.25205,0.030394
1223,-0.29354,-0.12187,-0.069582,0.025461,-0.10346,0.31618,0.036314
1224,-0.3284,-0.096878,-0.066951,0.030723,-0.12779,0.37932,0.045193
1225,-0.34978,-0.073199,-0.058729,0.036314,-0.15509,0.4372,0.050784
1226,-0.35504,-0.044259,-0.042615,0.045522,-0.18403,0.48357,0.048482
1227,-0.34024,-0.010386,-0.0265,0.056703,-0.21231,0.50758,0.039931
1228,-0.31459,0.02283,-0.016963,0.065583,-0.23171,0.49936,0.032038
1229,-0.28762,0.051113,-0.017621,0.066569,-0.235,0.45726,0.026776
1230,-0.26526,0.069529,-0.023211,0.058019,-0.21691,0.39313,0.025461
1231,-0.25473,0.078737,-0.025514,0.045522,-0.17877,0.31815,0.031381
1232,-0.25572,0.081039,-0.02354,0.03434,-0.12582,0.2481,0.043549
1233,-0.26263,0.078409,-0.019923,0.030723,-0.068266,0.19581,0.062294
1234,-0.26789,0.07512,-0.017292,0.036642,-0.010715,0.16589,0.081039
1235,-0.26559,0.072489,-0.013674,0.049797,0.054401,0.15273,0.09255
1236,-0.25704,0.069858,-0.0051238,0.062294,0.1284,0.14616,0.091234
1237,-0.23862,0.064267,0.0077021,0.068214,0.20371,0.13958,0.073804
1238,-0.20639,0.055388,0.025132,0.06361,0.27343,0.12577,0.048153
1239,-0.16199,0.042233,0.047495,0.053086,0.34249,0.10801,0.026119
1240,-0.10707,0.036971,0.073147,0.043877,0.41517,0.095839,0.01987
1241,-0.050179,0.065912,0.1011,0.047166,0.49443,0.097812,0.033683
1242,-0.002164,0.14648,0.13136,0.067227,0.58486,0.1113,0.058348
1243,0.025461,0.27244,0.1626,0.10143,0.69109,0.12938,0.077422
1244,0.025461,0.40991,0.18397,0.13925,0.81704,0.1455,0.082026
1245,0.0040845,0.52337,0.18825,0.17115,0.95747,0.16161,0.074133
1246,-0.012359,0.58848,0.18069,0.19088,1.0824,0.17477,0.065254
1247,0.0063866,0.5944,0.16819,0.19877,1.142,0.17806,0.062294
1248,0.084986,0.55033,0.15832,0.19483,1.0949,0.1695,0.063938
1249,0.23067,0.47798,0.1524,0.18134,0.93807,0.15175,0.062623
1250,0.4201,0.39248,0.14714,0.16654,0.70128,0.12445,0.058348
1251,0.60131,0.29513,0.13366,0.15503,0.42997,0.084986,0.053415
1252,0.7197,0.18134,0.11162,0.14583,0.16786,0.036971,0.055059
1253,0.74338,0.049797,0.084986,0.13662,-0.055769,-0.0097279,0.059992
1254,0.6776,-0.094247,0.06065,0.12511,-0.22251,-0.049192,0.065912
1255,0.54639,-0.24487,0.040589,0.11228,-0.3284,-0.081092,0.070516
1256,0.38524,-0.39615,0.026776,0.096167,-0.38793,-0.1005,0.071173
1257,0.22475,-0.53263,0.017568,0.080711,-0.41719,-0.10444,0.070187
1258,0.086959,-0.6474,0.013951,0.070845,-0.43758,-0.090958,0.069529
1259,-0.011372,-0.73521,0.0096753,0.07216,-0.46126,-0.063333,0.071831
1260,-0.06136,-0.78947,0.0057288,0.080382,-0.49053,-0.031104,0.07512
1261,-0.057743,-0.8046,-0.00051963,0.090248,-0.52276,0.00079584,0.076106
1262,-0.010715,-0.77829,-0.004466,0.097154,-0.56551,0.030723,0.076435
1263,0.057032,-0.71548,-0.0015062,0.098141,-0.63129,0.062952,0.082026
1264,0.12346,-0.62504,0.0093464,0.093865,-0.71909,0.097812,0.097483
1265,0.1695,-0.51322,0.023159,0.085972,-0.8194,0.133,0.11557
1266,0.18529,-0.38036,0.035656,0.074791,-0.92069,0.16227,0.12938
1267,0.17148,-0.23171,0.04322,0.06361,-0.99567,0.18332,0.1307
1268,0.15207,-0.082079,0.042891,0.055388,-1.02,0.1945,0.11787
1269,0.15471,0.044206,0.034669,0.05177,-0.98581,0.19976,0.094523
1270,0.19154,0.13201,0.023159,0.045851,-0.90227,0.20173,0.066898
1271,0.25501,0.17904,0.011977,0.033683,-0.77796,0.19877,0.04026
1272,0.32013,0.18957,0.0017824,0.01691,-0.61583,0.18924,0.014608
1273,0.35893,0.18332,-0.010057,-0.00019077,-0.40963,0.17444,-0.01203
1274,0.35696,0.1797,-0.021567,-0.013674,-0.14719,0.15635,-0.037024
1275,0.31552,0.18661,-0.030118,-0.01795,0.19187,0.14681,-0.048534
1276,0.24876,0.20667,-0.032749,-0.012359,0.624,0.15306,-0.041299
1277,0.17838,0.23363,-0.029789,0.002769,1.1272,0.17575,-0.022225
1278,0.12544,0.2583,-0.02354,0.026776,1.6185,0.20732,-0.0015062
1279,0.099456,0.27178,-0.01795,0.055388,1.9773,0.23725,0.010004
1280,0.096825,0.2731,-0.015648,0.080053,2.1111,0.24712,0.013622
1281,0.1136,0.26455,-0.016963,0.095181,2.0003,0.23166,0.014608
1282,0.14451,0.24679,-0.021896,0.098469,1.7004,0.19318,0.016581
1283,0.1774,0.22311,-0.0265,0.090905,1.3067,0.13662,0.019541
1284,0.20732,0.19812,-0.031762,0.074462,0.91406,0.073476,0.023817
1285,0.22804,0.17674,-0.037682,0.054072,0.59078,0.013622,0.023488
1286,0.22706,0.15964,-0.038668,0.03434,0.36814,-0.04097,0.017897
1287,0.19647,0.14484,-0.027158,0.022172,0.24153,-0.089643,0.0090175
1288,0.13201,0.12708,-0.007097,0.021843,0.18693,-0.12713,-0.0057815
1289,0.038616,0.10735,0.013293,0.029407,0.16983,-0.14917,-0.025842
1290,-0.067609,0.090577,0.030394,0.036642,0.15799,-0.15903,-0.046232
1291,-0.16791,0.080382,0.04881,0.037629,0.13201,-0.16035,-0.061689
1292,-0.2498,0.075449,0.070516,0.032696,0.082684,-0.15673,-0.069582
1293,-0.31097,0.071831,0.098141,0.029736,0.014937,-0.15114,-0.06728
1294,-0.3557,0.066569,0.12807,0.033683,-0.063662,-0.1518,-0.061689
1295,-0.38793,0.059992,0.14944,0.041904,-0.14358,-0.16002,-0.060702
1296,-0.40272,0.059334,0.15701,0.048153,-0.22349,-0.17679,-0.06728
1297,-0.38858,0.067885,0.14977,0.044864,-0.30571,-0.19981,-0.078461
1298,-0.33498,0.082684,0.1284,0.032367,-0.38661,-0.22349,-0.082736
1299,-0.23698,0.10044,0.096167,0.012635,-0.45732,-0.24158,-0.073528
1300,-0.10937,0.11689,0.059005,-0.010057,-0.505,-0.25473,-0.057085
1301,0.025461,0.13596,0.026447,-0.031433,-0.52046,-0.26559,-0.041957
1302,0.14089,0.15767,0.0057288,-0.046232,-0.50237,-0.27775,-0.037024
1303,0.21292,0.17904,-0.0011774,-0.054454,-0.46093,-0.28499,-0.033735
1304,0.23232,0.19647,-0.0015062,-0.056756,-0.40634,-0.28532,-0.028144
1305,0.20568,0.21357,0.0037556,-0.056756,-0.34813,-0.27973,-0.01499
1306,0.15405,0.22607,0.014608,-0.060373,-0.29453,-0.26822,0.0014536
1307,0.094852,0.22607,0.030065,-0.064978,-0.24849,-0.24651,0.018555
1308,0.038944,0.21456,0.04322,-0.069253,-0.20771,-0.2156,0.032367
1309,-0.0080836,0.19647,0.052099,-0.069253,-0.17548,-0.18403,0.040918
1310,-0.042615,0.17641,0.05473,-0.062347,-0.15838,-0.15673,0.047495
1311,-0.063662,0.15438,0.05177,-0.050179,-0.16232,-0.14029,0.052428
1312,-0.073199,0.12708,0.045522,-0.04097,-0.18896,-0.13108,0.060321
1313,-0.07024,0.099785,0.04026,-0.040313,-0.23369,-0.12187,0.071502
1314,-0.057743,0.074133,0.036971,-0.045903,-0.28104,-0.10806,0.086959
1315,-0.043601,0.053743,0.034669,-0.053796,-0.31097,-0.089643,0.099785
1316,-0.03538,0.044535,0.033683,-0.056427,-0.3136,-0.065964,0.10702
1317,-0.033406,0.048153,0.035327,-0.04985,-0.27512,-0.039326,0.10899
1318,-0.030775,0.062623,0.036642,-0.031762,-0.18304,-0.012359,0.10998
1319,-0.027158,0.079395,0.031709,-0.0011774,-0.035708,0.020528,0.11064
1320,-0.023869,0.087288,0.01691,0.035985,0.13662,0.061965,0.11228
1321,-0.024527,0.084986,-0.0018351,0.068871,0.28658,0.11031,0.11689
1322,-0.028144,0.077093,-0.016305,0.088603,0.38491,0.16227,0.12577
1323,-0.033406,0.064925,-0.021238,0.094523,0.43589,0.21522,0.13596
1324,-0.038011,0.047824,-0.01499,0.09551,0.45825,0.26652,0.14681
1325,-0.041957,0.035656,0.0011247,0.093536,0.46022,0.31651,0.15832
1326,-0.048205,0.041904,0.02579,0.091563,0.44279,0.37044,0.17312
1327,-0.059716,0.072818,0.057361,0.090248,0.40169,0.42405,0.19022
1328,-0.084052,0.12511,0.085972,0.090248,0.33558,0.47173,0.20009
1329,-0.11793,0.1843,0.10505,0.090905,0.25304,0.50758,0.1968
1330,-0.15311,0.22541,0.11031,0.096167,0.17016,0.52863,0.18825
1331,-0.18797,0.2241,0.098469,0.10176,0.10834,0.53586,0.1797
1332,-0.21889,0.1774,0.072489,0.1034,0.086301,0.53323,0.17115
1333,-0.23796,0.10209,0.04026,0.097154,0.10932,0.52172,0.16161
1334,-0.2327,0.019212,0.014937,0.080382,0.17049,0.50265,0.14484
1335,-0.2008,-0.057743,-0.0008485,0.054072,0.26093,0.47798,0.12708
1336,-0.15476,-0.12253,-0.01795,0.022172,0.36156,0.44214,0.11327
1337,-0.11135,-0.1735,-0.045574,-0.0074258,0.44214,0.39248,0.1057
1338,-0.077803,-0.21165,-0.08175,-0.025514,0.47108,0.33328,0.099785
1339,-0.054454,-0.235,-0.11529,-0.031762,0.42964,0.27211,0.089919
1340,-0.032749,-0.235,-0.1347,-0.02946,0.31782,0.2093,0.070187
1341,-0.016634,-0.20475,-0.13404,-0.025842,0.15109,0.14747,0.045522
1342,-0.019923,-0.14358,-0.11102,-0.028144,-0.038339,0.085972,0.01987
1343,-0.057085,-0.051494,-0.071884,-0.038668,-0.21659,0.027434,-0.0028217
1344,-0.12944,0.10406,-0.023869,-0.049521,-0.35339,-0.025842,-0.022225
1345,-0.21691,0.36814,0.020528,-0.05544,-0.44022,-0.071555,-0.038668
1346,-0.28828,0.73318,0.055388,-0.056756,-0.48132,-0.11003,-0.051494
1347,-0.31557,1.1285,0.082355,-0.054125,-0.48757,-0.14029,-0.0584
1348,-0.29157,1.4393,0.10735,-0.048205,-0.47179,-0.16495,-0.0584
1349,-0.22349,1.5586,0.12708,-0.040313,-0.44285,-0.18271,-0.05544
1350,-0.13272,1.4356,0.13629,-0.03242,-0.40536,-0.19324,-0.054125
1351,-0.036366,1.087,0.12938,-0.02354,-0.36326,-0.19883,-0.053796
1352,0.046508,0.5921,0.10669,-0.012359,-0.32149,-0.20508,-0.052481
1353,0.10472,0.055388,0.065912,-0.0051238,-0.28729,-0.21593,-0.054125
1354,0.13859,-0.43397,0.018555,-0.0084125,-0.26427,-0.23106,-0.059716
1355,0.16095,-0.83223,-0.025514,-0.020581,-0.24191,-0.24421,-0.070897
1356,0.18463,-1.1302,-0.055769,-0.032091,-0.19751,-0.2498,-0.086683
1357,0.2116,-1.3275,-0.066622,-0.03538,-0.10905,-0.24421,-0.10313
1358,0.23331,-1.4216,-0.057085,-0.023211,0.028421,-0.22481,-0.11727
1359,0.24613,-1.4245,-0.03538,0.0014536,0.20173,-0.19422,-0.12746
1360,0.25041,-1.3584,-0.012688,0.029078,0.37669,-0.15279,-0.13141
1361,0.24416,-1.2568,0.00079584,0.050784,0.50331,-0.10115,-0.13174
1362,0.22179,-1.146,0.0034268,0.057361,0.54441,-0.04393,-0.12746
1363,0.18167,-1.043,0.0030979,0.055388,0.49771,0.01132,-0.12056
1364,0.12905,-0.94272,0.0037556,0.053415,0.39281,0.050126,-0.1074
1365,0.080382,-0.83716,0.0070443,0.054401,0.27047,0.07512,-0.090629
1366,0.04618,-0.71548,0.013622,0.05473,0.16852,0.092221,-0.071555
1367,0.029407,-0.57209,0.020528,0.05473,0.11853,0.10636,-0.053467
1368,0.028092,-0.41128,0.028421,0.054401,0.14089,0.12182,-0.03538
1369,0.040589,-0.23895,0.041904,0.05473,0.22508,0.14221,-0.019594
1370,0.059992,-0.068595,0.061636,0.059334,0.33394,0.17838,-0.0090702
1371,0.081368,0.085315,0.078409,0.068214,0.42076,0.24054,-0.0061104
1372,0.099127,0.207,0.082026,0.078409,0.45463,0.3198,-0.010057
1373,0.10702,0.28823,0.069858,0.084328,0.42898,0.39544,-0.018278
1374,0.10505,0.32802,0.046508,0.085315,0.35729,0.44082,-0.024856
1375,0.1011,0.33032,0.021514,0.082026,0.26422,0.43227,-0.026171
1376,0.10834,0.30862,0.0011247,0.076106,0.1672,0.36255,-0.023211
1377,0.13859,0.27968,-0.011043,0.070187,0.079395,0.24646,-0.015976
1378,0.20042,0.25698,-0.016963,0.068871,0.010004,0.10538,-0.004466
1379,0.2879,0.2481,-0.015976,0.073804,-0.038997,-0.037024,0.015266
1380,0.38064,0.24942,-0.0097279,0.07808,-0.069253,-0.16199,0.041247
1381,0.45529,0.25172,0.0024402,0.073804,-0.091287,-0.26493,0.065254
1382,0.48752,0.24745,0.015266,0.064925,-0.10872,-0.3455,0.08367
1383,0.46417,0.22903,0.029078,0.057032,-0.12352,-0.40667,0.098141
1384,0.38721,0.19351,0.038287,0.058019,-0.12878,-0.44844,0.10932
1385,0.27178,0.1455,0.038944,0.068214,-0.12812,-0.47409,0.11458
1386,0.14484,0.096496,0.026776,0.07512,-0.13108,-0.4902,0.10735
1387,0.035327,0.061965,0.0054,0.072818,-0.14555,-0.49908,0.089261
1388,-0.03242,0.051113,-0.018936,0.064596,-0.17383,-0.50171,0.062952
1389,-0.057085,0.06065,-0.042944,0.052099,-0.21165,-0.49448,0.033683
1390,-0.051823,0.086301,-0.063004,0.037958,-0.25506,-0.4754,0.0050711
1391,-0.035708,0.12017,-0.07287,0.027105,-0.29683,-0.43528,-0.012359
1392,-0.027487,0.15438,-0.07287,0.023817,-0.33268,-0.37247,-0.011701
1393,-0.03538,0.18957,-0.068266,0.025461,-0.36523,-0.29453,0.0037556
1394,-0.056098,0.22147,-0.063004,0.030394,-0.39812,-0.2133,0.024474
1395,-0.083394,0.24942,-0.06136,0.033025,-0.43134,-0.13568,0.045193
1396,-0.11365,0.26915,-0.062347,0.035327,-0.46817,-0.063333,0.061965
1397,-0.14127,0.27639,-0.062018,0.0373,-0.51158,0.0060577,0.070516
1398,-0.15476,0.26718,-0.058071,0.042562,-0.55729,0.067556,0.070516
1399,-0.15706,0.24153,-0.047877,0.058019,-0.58623,0.11689,0.063938
1400,-0.15706,0.20469,-0.030447,0.085315,-0.57242,0.15372,0.058676
1401,-0.16002,0.17279,-0.0077547,0.11261,-0.48922,0.18332,0.058348
1402,-0.1666,0.15701,0.017568,0.13464,-0.3136,0.20667,0.063938
1403,-0.17252,0.15701,0.044535,0.15142,-0.054125,0.22673,0.07216
1404,-0.1689,0.1649,0.068543,0.16523,0.21785,0.2412,0.078737
1405,-0.15443,0.17312,0.084657,0.17378,0.41648,0.24218,0.079066
1406,-0.13305,0.182,0.09255,0.17246,0.48949,0.22739,0.070187
1407,-0.11168,0.19351,0.097483,0.16227,0.44575,0.19746,0.052099
1408,-0.093918,0.20765,0.098141,0.14583,0.3438,0.15701,0.027763
1409,-0.075501,0.22673,0.092221,0.12544,0.25139,0.10965,0.0021113
1410,-0.053138,0.24613,0.084328,0.1057,0.2162,0.065912,-0.019923
1411,-0.021567,0.26257,0.077093,0.091234,0.23692,0.027763,-0.040313
1412,0.018884,0.27408,0.070516,0.081039,0.28296,-0.0061104,-0.056098
1413,0.067885,0.28461,0.063938,0.072489,0.32013,-0.037682,-0.062347
1414,0.12346,0.28921,0.059334,0.061636,0.3369,-0.063333,-0.048863
1415,0.1797,0.28033,0.056703,0.045851,0.33197,-0.085367,-0.016634
1416,0.23002,0.25337,0.052757,0.033025,0.30796,-0.10017,0.023817
1417,0.26323,0.21061,0.050784,0.023488,0.25304,-0.1028,0.061965
1418,0.27244,0.16359,0.049468,0.015595,0.15273,-0.095233,0.091892
1419,0.26093,0.1205,0.047824,0.0090175,0.0086887,-0.077146,0.10636
1420,0.23594,0.090248,0.043549,0.0050711,-0.15476,-0.056427,0.10702
1421,0.20568,0.074133,0.039273,0.0050711,-0.30341,-0.041957,0.10077
1422,0.17773,0.069529,0.037958,0.0054,-0.41029,-0.02946,0.095181
1423,0.15668,0.074791,0.039931,0.0080309,-0.46192,-0.017621,0.096167
1424,0.14714,0.087617,0.047166,0.013293,-0.45863,-0.0015062,0.095839
1425,0.14188,0.1057,0.057361,0.01987,-0.41423,0.02579,0.093536
1426,0.13004,0.12182,0.068214,0.026119,-0.35043,0.067556,0.088275
1427,0.10603,0.13432,0.083013,0.033683,-0.28894,0.12577,0.084986
1428,0.072489,0.13826,0.097812,0.041247,-0.23928,0.19055,0.077093
1429,0.04322,0.133,0.10406,0.043877,-0.20376,0.24942,0.062952
1430,0.027105,0.12313,0.093536,0.035327,-0.18205,0.28888,0.046837
1431,0.022501,0.10965,0.074462,0.016581,-0.17285,0.30467,0.0373
1432,0.017568,0.091234,0.057361,-0.0028217,-0.17252,0.29743,0.035327
1433,0.0077021,0.065583,0.049797,-0.016634,-0.17844,0.27408,0.034669
1434,-0.0061104,0.037629,0.047824,-0.027487,-0.18732,0.24613,0.031052
1435,-0.020252,0.013622,0.049468,-0.035708,-0.19324,0.22179,0.021514
1436,-0.033078,-0.002164,0.04881,-0.043272,-0.19718,0.20042,0.0077021
1437,-0.041628,-0.0077547,0.045522,-0.05281,-0.19948,0.18134,-0.0064392
1438,-0.049521,-0.007097,0.041575,-0.063333,-0.19948,0.16326,-0.018936
1439,-0.059387,-0.0024928,0.035985,-0.070568,-0.19422,0.14616,-0.040313
1440,-0.07287,0.0011247,0.030723,-0.071884,-0.18008,0.13037,-0.080106
1441,-0.087998,0.0037556,0.025132,-0.072213,-0.15081,0.11754,-0.14029
1442,-0.10148,0.0037556,0.016253,-0.076817,-0.10576,0.10768,-0.20343
1443,-0.10444,0.0034268,0.0086887,-0.084052,-0.047219,0.097483,-0.25506
1444,-0.089972,0.00079584,0.0034268,-0.087341,0.015595,0.087288,-0.28795
1445,-0.061031,-0.0031506,0.0034268,-0.085696,0.074462,0.083342,-0.29749
1446,-0.019594,-0.0077547,0.0093464,-0.078132,0.13037,0.084328,-0.28104
1447,0.024474,-0.016305,0.020528,-0.06728,0.18726,0.085315,-0.23994
1448,0.06065,-0.029789,0.031709,-0.055112,0.25074,0.080053,-0.17285
1449,0.081039,-0.047219,0.036971,-0.042286,0.32341,0.067556,-0.080763
1450,0.086301,-0.06136,0.035985,-0.030447,0.40103,0.051441,0.02579
1451,0.090248,-0.068595,0.03434,-0.024198,0.47963,0.034011,0.1307
1452,0.10603,-0.067937,0.0373,-0.021238,0.56645,0.016253,0.2287
1453,0.12971,-0.063991,0.044864,-0.02354,0.66379,-0.00051963,0.31454
1454,0.14583,-0.061689,0.058019,-0.028144,0.76837,-0.014332,0.3882
1455,0.14418,-0.059716,0.07808,-0.031433,0.86736,-0.02354,0.45069
1456,0.12083,-0.054454,0.1034,-0.025185,0.93281,-0.02946,0.49903
1457,0.07808,-0.042944,0.12445,-0.0090702,0.94366,-0.028144,0.53356
1458,0.026447,-0.027487,0.13333,0.015266,0.89236,-0.025842,0.5556
1459,-0.028473,-0.01795,0.12741,0.038287,0.78909,-0.028473,0.56579
1460,-0.077146,-0.014332,0.10735,0.053743,0.65524,-0.038668,0.55329
1461,-0.11628,-0.016634,0.076435,0.058019,0.51712,-0.054783,0.51679
1462,-0.14358,-0.020581,0.044864,0.052428,0.3859,-0.069582,0.45726
1463,-0.15805,-0.027816,0.024474,0.041247,0.26027,-0.08175,0.3836
1464,-0.16166,-0.038997,0.016581,0.02875,0.13366,-0.086354,0.30467
1465,-0.15969,-0.054454,0.015266,0.017568,0.0073732,-0.078132,0.22706
1466,-0.15311,-0.073857,0.017568,0.011648,-0.11003,-0.05544,0.15405
1467,-0.13897,-0.095233,0.024474,0.016581,-0.20836,-0.026829,0.084986
1468,-0.11431,-0.11299,0.034669,0.031052,-0.27775,0.0047422,0.023159
1469,-0.081092,-0.12483,0.045522,0.049468,-0.30439,0.039273,-0.029131
1470,-0.049192,-0.13996,0.052757,0.067227,-0.29058,0.078409,-0.073528
1471,-0.024856,-0.15936,0.055059,0.084328,-0.25177,0.11721,-0.11168
1472,-0.01203,-0.17581,0.053086,0.098469,-0.20935,0.14484,-0.14654
1473,-0.012359,-0.17548,0.050784,0.10998,-0.17548,0.15372,-0.17909
1474,-0.021896,-0.14983,0.052428,0.12182,-0.15213,0.14089,-0.20475
1475,-0.037024,-0.10214,0.061636,0.13136,-0.1416,0.11195,-0.22316
1476,-0.051823,-0.045574,0.071502,0.13563,-0.14391,0.073804,-0.23533
1477,-0.059716,0.0090175,0.081697,0.13366,-0.15575,0.038616,-0.23566
1478,-0.058729,0.061965,0.092879,0.13103,-0.16791,0.012635,-0.21922
1479,-0.048863,0.1113,0.10472,0.133,-0.16824,-0.0028217,-0.18567
1480,-0.033735,0.15076,0.11426,0.14254,-0.14489,-0.014661,-0.137
1481,-0.020581,0.17378,0.1205,0.15832,-0.098193,-0.028144,-0.081421
1482,-0.01795,0.17477,0.12215,0.17575,-0.038339,-0.04689,-0.024856
1483,-0.024527,0.14912,0.11294,0.19022,0.012306,-0.073857,0.025132
1484,-0.035051,0.10274,0.091892,0.20206,0.032038,-0.10346,0.065583
1485,-0.036037,0.049139,0.064596,0.20897,0.0054,-0.13371,0.093208
1486,-0.014661,0.0050711,0.040918,0.20535,-0.044917,-0.16265,0.10932
1487,0.038287,-0.013345,0.030394,0.19055,-0.0903,-0.18501,0.11886
1488,0.12149,-0.0034794,0.030723,0.16654,-0.10576,-0.19718,0.11886
1489,0.21818,0.027105,0.037958,0.13991,-0.073528,-0.19916,0.10538
1490,0.30631,0.064925,0.044864,0.11458,0.015924,-0.19192,0.083999
1491,0.36255,0.092221,0.044206,0.089261,0.15536,-0.18107,0.063938
1492,0.3711,0.096496,0.031052,0.062294,0.32144,-0.16956,0.049139
1493,0.33953,0.080711,0.0086887,0.036314,0.48324,-0.15706,0.040589
1494,0.28691,0.058676,-0.013674,0.018226,0.61315,-0.13897,0.038616
1495,0.231,0.042233,-0.027158,0.010333,0.69175,-0.10674,0.039602
1496,0.18365,0.034669,-0.02946,0.01132,0.7095,-0.062018,0.039931
1497,0.14977,0.031709,-0.025842,0.013622,0.66379,-0.0097279,0.037958
1498,0.12511,0.026776,-0.01795,0.015595,0.5556,0.044864,0.033025
1499,0.10143,0.016253,-0.007097,0.01691,0.39938,0.10011,0.024803
1500,0.078409,0.0024402,0.0034268,0.023159,0.23035,0.15405,0.01691
1501,0.065583,-0.0084125,0.0077021,0.033683,0.091892,0.207,0.0090175
1502,0.071173,-0.015319,0.0050711,0.042891,0.012635,0.26455,0.0030979
1503,0.08959,-0.019265,-0.0028217,0.050126,-0.0024928,0.32539,0.0077021
1504,0.11097,-0.020581,-0.0051238,0.052757,0.031052,0.38656,0.018555
1505,0.12774,-0.019265,0.00046697,0.056046,0.092879,0.44279,0.030065
1506,0.13366,-0.019594,0.0090175,0.060979,0.1626,0.49574,0.039273
1507,0.12577,-0.025185,0.012635,0.06624,0.23067,0.53981,0.038944
1508,0.10406,-0.03538,0.0086887,0.067885,0.29086,0.56974,0.028421
1509,0.073147,-0.043601,0.0011247,0.065912,0.34019,0.58158,0.012306
1510,0.042891,-0.036695,-0.0047949,0.06065,0.36715,0.57533,-0.0011774
1511,0.020528,-0.012359,-0.0061104,0.056374,0.36058,0.55296,-0.0051238
1512,0.0030979,0.023817,0.00046697,0.055059,0.32177,0.51778,-0.0008485
1513,-0.01499,0.063281,0.015924,0.052757,0.26257,0.477,0.012964
1514,-0.033078,0.094523,0.032696,0.048482,0.1945,0.43786,0.030065
1515,-0.048863,0.10932,0.043549,0.04026,0.13728,0.4007,0.040589
1516,-0.055112,0.10801,0.039931,0.02875,0.10538,0.35959,0.04026
1517,-0.04689,0.092879,0.016253,0.010662,0.10143,0.31092,0.031052
1518,-0.027816,0.068543,-0.016634,-0.018278,0.10965,0.25567,0.015924
1519,-0.002164,0.044864,-0.042944,-0.056098,0.10801,0.19614,0.00079584
1520,0.022501,0.023817,-0.057743,-0.097864,0.071502,0.13826,-0.010715
1521,0.040918,0.010662,-0.057743,-0.13404,-0.030118,0.07808,-0.01499
1522,0.048482,0.0080309,-0.048534,-0.15246,-0.2179,0.019212,-0.014003
1523,0.038944,0.015924,-0.038011,-0.1495,-0.47475,-0.038668,-0.012359
1524,0.014608,0.026119,-0.03538,-0.12779,-0.74869,-0.09622,-0.018607
1525,-0.019265,0.034011,-0.044259,-0.10378,-0.97528,-0.15607,-0.038997
1526,-0.049521,0.036642,-0.061031,-0.082408,-1.0986,-0.21823,-0.066951
1527,-0.069911,0.034669,-0.073528,-0.066951,-1.0953,-0.28203,-0.093918
1528,-0.08175,0.027763,-0.075501,-0.055769,-0.98745,-0.34287,-0.11201
1529,-0.090629,0.019212,-0.06728,-0.043272,-0.83519,-0.39615,-0.1176
1530,-0.10017,0.011648,-0.0584,-0.027487,-0.71219,-0.43134,-0.10773
1531,-0.11332,0.0067154,-0.056756,-0.011043,-0.66056,-0.44383,-0.089314
1532,-0.12911,0.0054,-0.06136,0.0034268,-0.66878,-0.43265,-0.074186
1533,-0.14423,0.010333,-0.066622,0.015266,-0.68687,-0.39713,-0.068924
1534,-0.15443,0.022172,-0.063991,0.023817,-0.66417,-0.33991,-0.069582
1535,-0.16462,0.034998,-0.054454,0.030065,-0.5642,-0.2646,-0.073199
1536,-0.17844,0.044864,-0.042944,0.039602,-0.3797,-0.17844,-0.079777
1537,-0.18765,0.048153,-0.033735,0.04881,-0.14785,-0.092274,-0.091287
1538,-0.18403,0.04618,-0.028144,0.053743,0.056374,-0.016305,-0.10707
1539,-0.16265,0.040918,-0.022883,0.055059,0.16589,0.047495,-0.12319
1540,-0.12582,0.04026,-0.016634,0.052099,0.15701,0.099127,-0.13338
1541,-0.086025,0.047166,-0.0093991,0.050455,0.061307,0.14254,-0.1347
1542,-0.046232,0.059992,-0.0061104,0.050455,-0.060373,0.17838,-0.12944
1543,-0.01203,0.072489,-0.0061104,0.050455,-0.15213,0.20338,-0.11661
1544,0.010333,0.075449,-0.0051238,0.050126,-0.17942,0.21324,-0.096878
1545,0.010991,0.066898,-0.0015062,0.047166,-0.14489,0.20436,-0.071884
1546,-0.010057,0.044864,0.0030979,0.039931,-0.080106,0.17904,-0.044588
1547,-0.04689,0.015924,0.010662,0.032038,-0.018936,0.14155,-0.018936
1548,-0.090958,-0.0077547,0.020199,0.02579,0.027105,0.10176,0.0037556
1549,-0.13042,-0.016634,0.030065,0.021514,0.088603,0.064596,0.020857
1550,-0.15344,-0.0074258,0.039273,0.018226,0.22081,0.030065,0.041904
1551,-0.15542,0.01691,0.039931,0.020528,0.45102,-0.0024928,0.073147
1552,-0.1393,0.043549,0.034998,0.029736,0.7562,-0.034393,0.11064
1553,-0.11201,0.061965,0.024474,0.040918,1.0496,-0.066951,0.14517
1554,-0.07879,0.066898,0.01132,0.05473,1.2262,-0.10017,0.17312
1555,-0.040641,0.062623,-0.0038083,0.07216,1.2235,-0.13108,0.19154
1556,0.0014536,0.05177,-0.021238,0.094523,1.0522,-0.1587,0.1968
1557,0.044864,0.036971,-0.041299,0.1159,0.77791,-0.18501,0.18726
1558,0.08367,0.024803,-0.059058,0.13497,0.48522,-0.21264,0.1672
1559,0.10866,0.016253,-0.069253,0.14912,0.24449,-0.23796,0.14484
1560,0.12478,0.014937,-0.067609,0.15931,0.096496,-0.25243,0.12281
1561,0.13892,0.023159,-0.054454,0.16063,0.027434,-0.25112,0.10274
1562,0.16293,0.041575,-0.033406,0.15898,-0.014003,-0.2304,0.083342
1563,0.20732,0.070845,-0.013345,0.16095,-0.079119,-0.18929,0.068871
1564,0.26915,0.10209,-0.00051963,0.16326,-0.20244,-0.1347,0.05769
1565,0.3369,0.12412,0.0040845,0.15536,-0.37543,-0.081092,0.045522
1566,0.39281,0.12873,0.0014536,0.13234,-0.55762,-0.041628,0.028421
1567,0.41912,0.1205,-0.0024928,0.098798,-0.70331,-0.025842,0.0034268
1568,0.40464,0.10636,-0.0028217,0.063281,-0.77632,-0.041628,-0.025514
1569,0.35466,0.09255,0.00079584,0.039602,-0.74836,-0.08175,-0.053138
1570,0.28888,0.082026,0.0090175,0.034669,-0.61287,-0.12911,-0.074844
1571,0.22837,0.070187,0.023488,0.04618,-0.39417,-0.16397,-0.086354
1572,0.17937,0.059334,0.045522,0.063938,-0.13536,-0.17909,-0.08471
1573,0.14879,0.05473,0.071173,0.075449,0.11195,-0.1712,-0.072542
1574,0.13169,0.055388,0.095181,0.076435,0.29776,-0.14259,-0.055769
1575,0.12248,0.05769,0.10899,0.068871,0.3984,-0.099838,-0.037353
1576,0.11393,0.053743,0.11031,0.059334,0.41385,-0.048205,-0.020581
1577,0.097812,0.045522,0.10406,0.050455,0.36715,0.0073732,-0.0097279
1578,0.074462,0.041575,0.094852,0.037629,0.28954,0.063281,0.00046697
1579,0.047166,0.041575,0.089261,0.026447,0.21292,0.11721,0.010333
1580,0.018884,0.041247,0.089261,0.015924,0.1524,0.17016,0.012964
1581,-0.0074258,0.036971,0.091234,0.0096753,0.10932,0.22015,0.0021113
1582,-0.029131,0.024803,0.094194,0.0070443,0.079066,0.26356,-0.020909
1583,-0.048205,0.0037556,0.093865,0.0057288,0.065912,0.29151,-0.043601
1584,-0.062676,-0.023869,0.090577,0.0070443,0.073147,0.29941,-0.059058
1585,-0.080434,-0.05281,0.085972,0.0093464,0.10143,0.28658,-0.062347
1586,-0.10609,-0.075501,0.082026,0.010662,0.1376,0.25633,-0.055112
1587,-0.13338,-0.08471,0.079724,0.0096753,0.16161,0.2139,-0.045903
1588,-0.14983,-0.073199,0.08367,0.010662,0.17378,0.16687,-0.038339
1589,-0.14391,-0.043601,0.096825,0.01691,0.18069,0.11919,-0.036037
1590,-0.11957,0.0014536,0.11721,0.026776,0.19746,0.077422,-0.033078
1591,-0.089972,0.055059,0.13958,0.036971,0.23331,0.044864,-0.022554
1592,-0.068924,0.10932,0.15438,0.045851,0.27014,0.021514,0.0011247
1593,-0.055112,0.16128,0.15964,0.051113,0.27178,0.0001381,0.031709
1594,-0.042615,0.20634,0.15109,0.049797,0.19976,-0.027487,0.058019
1595,-0.024856,0.2389,0.13037,0.041904,0.041904,-0.066951,0.07512
1596,-0.0024928,0.2583,0.10209,0.032038,-0.17022,-0.11497,0.087288
1597,0.018226,0.27277,0.075449,0.023488,-0.37543,-0.1666,0.1011
1598,0.030394,0.28296,0.055388,0.017897,-0.52177,-0.21593,0.12511
1599,0.034011,0.28198,0.041904,0.01691,-0.58163,-0.26361,0.15503
1600,0.035656,0.25698,0.033025,0.018555,-0.55959,-0.30768,0.17674
1601,0.046837,0.20831,0.024474,0.020528,-0.48626,-0.34451,0.18397
1602,0.068214,0.1376,0.01691,0.024474,-0.39582,-0.36918,0.17838
1603,0.08959,0.052757,0.0083598,0.027434,-0.30998,-0.38497,0.16326
1604,0.10176,-0.037682,-0.0011774,0.028421,-0.23632,-0.3945,0.13991
1605,0.097812,-0.12089,-0.0093991,0.026776,-0.17778,-0.40371,0.11524
1606,0.070516,-0.18962,-0.013345,0.021186,-0.13766,-0.41193,0.094523
1607,0.023159,-0.24191,-0.013674,0.014937,-0.11825,-0.41719,0.077093
1608,-0.028802,-0.27578,-0.014661,0.0090175,-0.11398,-0.41325,0.071502
1609,-0.063991,-0.29091,-0.018607,-0.0015062,-0.11464,-0.3922,0.082026
1610,-0.065964,-0.29223,-0.025842,-0.016305,-0.11168,-0.34879,0.1057
1611,-0.039326,-0.28631,-0.029789,-0.030775,-0.10609,-0.284,0.13333
1612,0.0001381,-0.27578,-0.025514,-0.037682,-0.10214,-0.20244,0.15273
1613,0.034998,-0.25539,-0.0038083,-0.033078,-0.10707,-0.11628,0.16227
1614,0.05769,-0.22283,0.032038,-0.020581,-0.11529,-0.027816,0.16687
1615,0.064596,-0.18304,0.068871,-0.010057,-0.11891,0.064267,0.16654
1616,0.061965,-0.14489,0.096496,-0.0074258,-0.11398,0.16457,0.16161
1617,0.056374,-0.11069,0.10472,-0.01499,-0.10247,0.26652,0.15207
1618,0.052428,-0.078461,0.091563,-0.027816,-0.085367,0.35762,0.14287
1619,0.055717,-0.044917,0.060979,-0.043272,-0.06136,0.43556,0.1376
1620,0.07512,-0.0097279,0.023159,-0.056427,-0.029131,0.49903,0.13892
1621,0.11853,0.032038,-0.0090702,-0.064649,0.0080309,0.54968,0.14747
1622,0.18167,0.082026,-0.024527,-0.063991,0.047495,0.58914,0.15964
1623,0.25567,0.1376,-0.022883,-0.053467,0.089919,0.62268,0.17608
1624,0.31914,0.18628,-0.0041372,-0.035708,0.13563,0.6513,0.18858
1625,0.35071,0.22278,0.026447,-0.01499,0.18463,0.67234,0.19022
1626,0.3346,0.24218,0.060321,0.002769,0.23363,0.68188,0.1774
1627,0.27047,0.24284,0.088275,0.012635,0.27244,0.67925,0.15405
1628,0.182,0.22969,0.1011,0.011648,0.29283,0.65853,0.13037
1629,0.096825,0.21259,0.096496,0.0024402,0.29678,0.61775,0.1113
1630,0.032696,0.19877,0.079724,-0.010715,0.2925,0.55592,0.099127
1631,-0.0067681,0.18463,0.062952,-0.02354,0.28559,0.48061,0.094523
1632,-0.02946,0.16194,0.050784,-0.02946,0.27869,0.39971,0.093208
1633,-0.045903,0.12971,0.045522,-0.027487,0.26981,0.31947,0.085315
1634,-0.059058,0.091892,0.047824,-0.018278,0.24942,0.24186,0.069529
1635,-0.069911,0.049139,0.054072,-0.0087413,0.21522,0.16654,0.050455
1636,-0.07583,0.0063866,0.058019,0.0017824,0.17312,0.10011,0.030065
1637,-0.072542,-0.032749,0.055388,0.010991,0.13464,0.046837,0.0067154
1638,-0.064978,-0.062018,0.047495,0.014279,0.1057,0.0080309,-0.01499
1639,-0.061689,-0.082408,0.035327,0.0086887,0.093865,-0.018936,-0.030775
1640,-0.07024,-0.097207,0.018555,0.0017824,0.10965,-0.034722,-0.037682
1641,-0.090629,-0.1028,0.00046697,-0.0008485,0.15438,-0.047877,-0.039326
1642,-0.11694,-0.097536,-0.015976,0.00079584,0.21226,-0.064978,-0.044588
1643,-0.13503,-0.081421,-0.026829,0.0030979,0.25929,-0.091287,-0.055112
1644,-0.1347,-0.053796,-0.030775,-0.00019077,0.27277,-0.12187,-0.071884
1645,-0.11595,-0.019594,-0.024527,-0.0087413,0.24054,-0.1587,-0.092603
1646,-0.084052,0.012964,-0.0080836,-0.019594,0.16786,-0.19685,-0.10839
1647,-0.050836,0.034998,0.013293,-0.025514,0.068871,-0.22875,-0.10937
1648,-0.020581,0.04618,0.036971,-0.027487,-0.02946,-0.25112,-0.0903
1649,0.0037556,0.044864,0.058019,-0.025514,-0.090629,-0.25934,-0.051494
1650,0.024145,0.028421,0.074462,-0.014003,-0.096878,-0.2498,-0.0061104
1651,0.033683,-0.0031506,0.083342,0.011648,-0.051823,-0.22481,0.03434
1652,0.028092,-0.040641,0.085972,0.043877,0.021186,-0.18469,0.064267
1653,0.010333,-0.065635,0.080053,0.070516,0.090577,-0.1347,0.08959
1654,-0.011701,-0.068924,0.061965,0.082684,0.12346,-0.077803,0.1136
1655,-0.034064,-0.048534,0.038616,0.080711,0.10406,-0.021567,0.12971
1656,-0.054125,-0.011701,0.017897,0.070187,0.042562,0.028421,0.12971
1657,-0.073199,0.032696,0.0044134,0.054401,-0.03242,0.069529,0.11491
1658,-0.098522,0.07512,-0.0024928,0.039602,-0.087998,0.10636,0.094194
1659,-0.12779,0.10472,-0.0061104,0.032696,-0.10609,0.14813,0.07512
1660,-0.15509,0.11524,-0.0047949,0.036314,-0.088656,0.20173,0.061965
1661,-0.17087,0.11195,0.0011247,0.047495,-0.050836,0.26718,0.047166
1662,-0.17022,0.098798,0.0086887,0.05769,-0.010715,0.33229,0.030723
1663,-0.15443,0.083999,0.018555,0.06624,0.020857,0.38294,0.018555
1664,-0.13009,0.069529,0.028092,0.07216,0.039602,0.40925,0.018555
1665,-0.10872,0.052428,0.036642,0.074462,0.042233,0.40925,0.022501
1666,-0.098851,0.034998,0.038944,0.077751,0.031709,0.38458,0.020199
1667,-0.098193,0.017239,0.033354,0.085972,0.014608,0.3392,0.01132
1668,-0.098522,0.0021113,0.020857,0.094194,-0.00019077,0.28395,0.002769
1669,-0.091616,-0.0041372,0.002769,0.095181,-0.0041372,0.22739,-0.00051963
1670,-0.068595,0.0001381,-0.016634,0.088275,0.0086887,0.1751,0.002769
1671,-0.027158,0.01132,-0.034722,0.078737,0.037629,0.12642,0.0090175
1672,0.028421,0.02579,-0.050507,0.077422,0.082026,0.084328,0.011977
1673,0.084986,0.040589,-0.0584,0.084328,0.13728,0.053415,0.002769
1674,0.133,0.053086,-0.060702,0.094523,0.19351,0.029736,-0.019265
1675,0.16556,0.06065,-0.057414,0.10603,0.23429,0.0044134,-0.048205
1676,0.18102,0.063938,-0.04985,0.11721,0.24416,-0.030775,-0.077803
1677,0.17378,0.068543,-0.035051,0.12412,0.21555,-0.076817,-0.10444
1678,0.14813,0.079395,-0.018278,0.12116,0.15569,-0.12845,-0.12089
1679,0.10801,0.09551,-0.0018351,0.10603,0.090577,-0.17942,-0.12253
1680,0.057361,0.11721,0.0080309,0.08663,0.043877,-0.22612,-0.11168
1681,0.0063866,0.14056,0.0093464,0.068871,0.023817,-0.26592,-0.093589
1682,-0.031433,0.15964,0.0070443,0.059992,0.030394,-0.29518,-0.077803
1683,-0.048205,0.16819,0.0040845,0.061965,0.058676,-0.30702,-0.069582
1684,-0.051165,0.16326,-0.0011774,0.07216,0.10472,-0.29255,-0.068266
1685,-0.048863,0.14813,-0.0038083,0.083342,0.15438,-0.23928,-0.067937
1686,-0.04689,0.12577,-0.00051963,0.085644,0.18825,-0.15509,-0.063004
1687,-0.048205,0.10011,0.0070443,0.073147,0.19351,-0.062018,-0.053796
1688,-0.057414,0.080711,0.014279,0.053743,0.16457,0.017568,-0.042615
1689,-0.079777,0.073804,0.016253,0.032367,0.11195,0.064925,-0.032749
1690,-0.11497,0.081039,0.012964,0.019541,0.052099,0.078737,-0.028473
1691,-0.16758,0.097483,0.0086887,0.01987,0.0037556,0.059334,-0.030118
1692,-0.23369,0.11458,0.0080309,0.027434,-0.024856,0.018226,-0.040313
1693,-0.29486,0.12577,0.0060577,0.033683,-0.031762,-0.035708,-0.056098
1694,-0.33037,0.12807,0.00079584,0.035656,-0.019265,-0.089643,-0.073528
1695,-0.33531,0.12379,-0.0074258,0.030394,0.0067154,-0.13404,-0.087669
1696,-0.30867,0.11721,-0.017292,0.018226,0.038944,-0.16726,-0.094576
1697,-0.25342,0.10965,-0.026171,0.0054,0.064925,-0.1883,-0.094576
1698,-0.16824,0.10307,-0.034064,-0.0064392,0.07808,-0.20343,-0.087341
1699,-0.064978,0.096167,-0.038339,-0.011043,0.07512,-0.21856,-0.078132
1700,0.029407,0.08663,-0.038997,-0.0077547,0.057032,-0.235,-0.07024
1701,0.091234,0.071502,-0.036695,-0.00019077,0.028092,-0.25079,-0.062347
1702,0.11228,0.053415,-0.034722,0.0034268,-0.0064392,-0.26328,-0.053796
1703,0.094523,0.034669,-0.029131,0.0030979,-0.044917,-0.26822,-0.046561
1704,0.052428,0.029736,-0.016634,0.0024402,-0.0903,-0.25901,-0.039984
1705,0.016581,0.049139,0.0024402,0.0063866,-0.14391,-0.23369,-0.027487
1706,0.018555,0.093208,0.027763,0.018555,-0.19258,-0.19159,-0.0054526
1707,0.08959,0.14287,0.056374,0.040589,-0.22612,-0.13536,0.023159
1708,0.24514,0.17542,0.083999,0.070187,-0.23829,-0.071226,0.053086
1709,0.47009,0.17838,0.10834,0.1011,-0.23204,-0.0080836,0.078409
1710,0.71937,0.14944,0.12577,0.12511,-0.22283,0.042891,0.097483
1711,0.94399,0.097154,0.13432,0.1432,-0.22349,0.078737,0.11491
1712,1.1048,0.036642,0.13201,0.15405,-0.22875,0.10044,0.1307
1713,1.1808,-0.013674,0.12445,0.16424,-0.21099,0.10866,0.14714
1714,1.1752,-0.04393,0.11656,0.17214,-0.13996,0.10538,0.16095
1715,1.1012,-0.053467,0.11327,0.17411,-0.012359,0.088603,0.1672
1716,0.97983,-0.045246,0.11195,0.16622,0.14385,0.061965,0.16753
1717,0.83908,-0.030118,0.10866,0.14714,0.28855,0.022501,0.1603
1718,0.69503,-0.022554,0.10274,0.12609,0.39116,-0.027158,0.14484
1719,0.55987,-0.024856,0.096496,0.11491,0.43227,-0.078461,0.12215
1720,0.43819,-0.033735,0.090577,0.11656,0.40859,-0.1176,0.096167
1721,0.33558,-0.039326,0.081039,0.12412,0.3244,-0.14325,0.069529
1722,0.256,-0.035051,0.070845,0.13037,0.20009,-0.15706,0.047824
1723,0.20568,-0.01795,0.064267,0.13103,0.067556,-0.16298,0.034669
1724,0.18036,0.0060577,0.065254,0.12379,-0.04689,-0.15936,0.029407
1725,0.16391,0.030394,0.074462,0.11228,-0.13305,-0.15081,0.031052
1726,0.13432,0.051441,0.088275,0.094523,-0.19422,-0.1416,0.036642
1727,0.07808,0.068871,0.099785,0.073476,-0.2475,-0.13437,0.04618
1728,-0.0051238,0.077751,0.10176,0.053086,-0.30604,-0.12615,0.060321
1729,-0.099838,0.075778,0.094194,0.035656,-0.3705,-0.11431,0.07512
1730,-0.18666,0.059005,0.081039,0.02283,-0.43397,-0.098193,0.083013
1731,-0.25441,0.026776,0.064596,0.014608,-0.49316,-0.077146,0.079395
1732,-0.3011,-0.011372,0.047824,0.012306,-0.54841,-0.054783,0.068871
1733,-0.32939,-0.045246,0.029078,0.014279,-0.603,-0.030447,0.058348
1734,-0.3455,-0.071555,0.013951,0.013293,-0.66549,-0.0077547,0.056046
1735,-0.35668,-0.09326,0.0057288,0.0083598,-0.73685,0.013293,0.064925
1736,-0.3649,-0.11398,0.0047422,0.0024402,-0.80592,0.035327,0.083342
1737,-0.37017,-0.1347,0.0034268,0.0011247,-0.8536,0.058348,0.10505
1738,-0.37214,-0.14588,0.0017824,0.0090175,-0.85064,0.077422,0.12609
1739,-0.37148,-0.14193,-0.0015062,0.026447,-0.76875,0.093208,0.14385
1740,-0.36523,-0.12352,-0.0018351,0.049797,-0.60761,0.10801,0.15207
1741,-0.35668,-0.097207,0.00079584,0.083013,-0.40075,0.11853,0.14714
1742,-0.34386,-0.06432,0.0047422,0.12248,-0.19455,0.12642,0.13103
1743,-0.32445,-0.030118,0.0090175,0.16227,-0.020909,0.13432,0.11031
1744,-0.29946,-0.0034794,0.010662,0.19417,0.11787,0.14648,0.090905
1745,-0.27085,0.010991,0.0090175,0.21226,0.24613,0.16622,0.079724
1746,-0.24388,0.013293,0.0077021,0.2116,0.39083,0.19549,0.080382
1747,-0.22316,0.0073732,0.0083598,0.18989,0.56711,0.23199,0.089261
1748,-0.2133,-0.0054526,0.0073732,0.1478,0.77462,0.27145,0.10472
1749,-0.22119,-0.025185,0.00079584,0.083999,1.0015,0.31519,0.11952
1750,-0.25112,-0.056756,-0.011701,0.0014536,1.2258,0.35762,0.133
1751,-0.30439,-0.099509,-0.027158,-0.096549,1.433,0.39511,0.14122
1752,-0.37181,-0.14818,-0.041299,-0.19883,1.6106,0.4224,0.13859
1753,-0.44054,-0.19291,-0.053138,-0.28006,1.7596,0.43326,0.12313
1754,-0.50566,-0.21757,-0.059058,-0.32314,1.8878,0.42405,0.098798
1755,-0.56617,-0.21724,-0.053796,-0.32149,2.0013,0.39577,0.073147
1756,-0.61649,-0.2031,-0.040313,-0.28071,2.0881,0.35827,0.054072
1757,-0.64905,-0.18107,-0.022225,-0.21724,2.123,0.32045,0.039931
1758,-0.65825,-0.14917,-0.0061104,-0.14917,2.0871,0.28921,0.02875
1759,-0.64115,-0.10477,0.0054,-0.092274,1.9809,0.26784,0.021843
1760,-0.59182,-0.049521,0.010662,-0.050836,1.8063,0.25633,0.015924
1761,-0.50369,0.015266,0.0080309,-0.019923,1.5741,0.25172,0.0096753
1762,-0.37411,0.086959,0.00079584,0.0060577,1.2946,0.24679,0.0063866
1763,-0.21461,0.15734,-0.0087413,0.029078,0.98773,0.23462,0.0067154
1764,-0.050507,0.2162,-0.019594,0.051441,0.67596,0.21588,0.0060577
1765,0.093865,0.25435,-0.029789,0.06361,0.36715,0.19285,0.00079584
1766,0.20765,0.2731,-0.03538,0.063938,0.055717,0.17016,-0.013345
1767,0.29546,0.27376,-0.032091,0.053743,-0.26032,0.15273,-0.029789
1768,0.37011,0.26027,-0.017292,0.042233,-0.57439,0.14517,-0.041628
1769,0.44444,0.24514,0.0047422,0.03434,-0.86413,0.14583,-0.046232
1770,0.52633,0.23758,0.025461,0.029736,-1.0943,0.14879,-0.045903
1771,0.61907,0.23331,0.037629,0.026119,-1.2417,0.15109,-0.050179
1772,0.7174,0.23067,0.04026,0.023817,-1.3022,0.14616,-0.066951
1773,0.80981,0.23035,0.034669,0.022501,-1.2923,0.133,-0.090629
1774,0.87821,0.22837,0.026776,0.022501,-1.239,0.11426,-0.10839
1775,0.89762,0.22015,0.023488,0.026776,-1.1726,0.090905,-0.1028
1776,0.84894,0.20272,0.025461,0.035985,-1.1206,0.066898,-0.076488
1777,0.73384,0.17806,0.029407,0.044864,-1.0904,0.044864,-0.045246
1778,0.56645,0.15076,0.032367,0.053415,-1.068,0.029407,-0.020252
1779,0.37439,0.12577,0.03434,0.059663,-1.0332,0.01987,-0.0067681
1780,0.18825,0.10702,0.041904,0.065912,-0.96772,0.015924,0.0001381
1781,0.029078,0.094523,0.053415,0.071502,-0.87005,0.010004,0.0086887
1782,-0.092931,0.087288,0.066898,0.07512,-0.76086,0.0001381,0.018884
1783,-0.1735,0.081039,0.07512,0.076435,-0.66976,-0.0090702,0.028092
1784,-0.21001,0.073476,0.077751,0.082026,-0.61254,-0.010715,0.030394
1785,-0.20771,0.063938,0.07808,0.092879,-0.58689,-0.0018351,0.02579
1786,-0.17877,0.050126,0.07512,0.10505,-0.58163,0.012964,0.016581
1787,-0.14095,0.030723,0.067885,0.10899,-0.57604,0.028092,0.0037556
1788,-0.10543,0.0047422,0.055388,0.10176,-0.55104,0.040918,-0.01499
1789,-0.074844,-0.018607,0.040918,0.080382,-0.4981,0.047824,-0.038339
1790,-0.042944,-0.022883,0.030394,0.055059,-0.42015,0.047824,-0.057085
1791,-0.011043,-0.004466,0.024145,0.033025,-0.32906,0.036971,-0.066293
1792,0.022501,0.029407,0.017897,0.021186,-0.23895,0.015266,-0.066622
