,channel_1,channel_2,channel_3,channel_4,channel_5,channel_6,channel_7
0,0.10834,0.55888,-0.086683,0.098469,-0.14851,-0.013345,-0.033406
1,0.10866,0.55921,-0.082408,0.068871,-0.14226,-0.027487,-0.056098
2,0.11327,0.5283,-0.071555,0.044206,-0.13667,-0.041957,-0.085367
3,0.12215,0.45036,-0.063662,0.028092,-0.13371,-0.050507,-0.11365
4,0.13201,0.32736,-0.058729,0.022501,-0.13832,-0.050179,-0.12976
5,0.13826,0.17575,-0.046232,0.028421,-0.14325,-0.039984,-0.12878
6,0.13892,0.015266,-0.011372,0.044864,-0.14325,-0.021896,-0.11694
7,0.13432,-0.13766,0.061965,0.066898,-0.12483,-0.0011774,-0.10247
8,0.11985,-0.28269,0.1751,0.088275,-0.083065,0.020528,-0.090629
9,0.10143,-0.41884,0.30697,0.10209,-0.014661,0.041575,-0.082079
10,0.088275,-0.54019,0.4201,0.1034,0.074791,0.059334,-0.074186
11,0.082684,-0.63819,0.46877,0.093536,0.16589,0.074791,-0.070568
12,0.080711,-0.70331,0.42734,0.073804,0.22475,0.084657,-0.070568
13,0.076435,-0.72896,0.30302,0.05177,0.22377,0.090905,-0.07024
14,0.067227,-0.72008,0.13366,0.034669,0.15701,0.093208,-0.066293
15,0.053415,-0.69081,-0.038668,0.02283,0.045851,0.088932,-0.062018
16,0.0373,-0.65497,-0.1735,0.012635,-0.077146,0.079066,-0.063991
17,0.018226,-0.61353,-0.24914,0.0030979,-0.17778,0.065912,-0.073857
18,0.0001381,-0.56091,-0.25835,-0.011372,-0.23106,0.050784,-0.088656
19,-0.013674,-0.4879,-0.20869,-0.03242,-0.22711,0.036971,-0.10115
20,-0.024856,-0.38661,-0.11529,-0.055112,-0.17613,0.025461,-0.10444
21,-0.035708,-0.25473,0.0021113,-0.070568,-0.099838,0.022501,-0.096878
22,-0.044917,-0.10707,0.11886,-0.072542,-0.020581,0.02579,-0.084052
23,-0.045246,0.041247,0.21061,-0.061689,0.050126,0.032367,-0.069582
24,-0.033406,0.17806,0.26652,-0.042944,0.11327,0.035327,-0.051823
25,-0.012359,0.30007,0.29579,-0.021896,0.16654,0.031381,-0.025514
26,0.010662,0.41352,0.31618,-0.0051238,0.20469,0.024474,0.010333
27,0.033354,0.50922,0.3415,0.010004,0.2264,0.021186,0.050126
28,0.051441,0.56053,0.37768,0.029407,0.23265,0.024803,0.082684
29,0.067227,0.54211,0.42536,0.056374,0.22147,0.034669,0.10538
30,0.082026,0.44312,0.47173,0.083013,0.19384,0.047495,0.12182
31,0.09551,0.27178,0.49179,0.10011,0.15306,0.055388,0.13497
32,0.10538,0.059663,0.46121,0.099456,0.10439,0.055388,0.14714
33,0.10406,-0.15246,0.37011,0.080053,0.051113,0.050126,0.16391
34,0.090905,-0.333,0.23396,0.049468,-0.00051963,0.043877,0.18233
35,0.0692,-0.46751,0.086301,0.013951,-0.045903,0.039273,0.19845
36,0.041904,-0.54841,-0.045903,-0.016634,-0.082079,0.035985,0.20798
37,0.016253,-0.5836,-0.14851,-0.038011,-0.1051,0.03434,0.20535
38,-0.0018351,-0.58294,-0.22185,-0.046561,-0.11168,0.030394,0.19483
39,-0.013017,-0.55071,-0.26493,-0.044588,-0.10017,0.022172,0.18003
40,-0.021567,-0.48626,-0.27808,-0.04097,-0.068924,0.012964,0.16556
41,-0.028802,-0.38036,-0.26888,-0.036695,-0.021896,0.0090175,0.15076
42,-0.034722,-0.22349,-0.24618,-0.032749,0.029736,0.013293,0.13169
43,-0.032749,-0.01499,-0.22316,-0.026171,0.072818,0.026776,0.11327
44,-0.022225,0.24284,-0.20409,-0.014332,0.097154,0.044535,0.099127
45,-0.0038083,0.52665,-0.19291,0.0021113,0.10801,0.065583,0.090248
46,0.01987,0.80093,-0.1906,0.017897,0.11623,0.083999,0.085315
47,0.045193,1.0236,-0.19159,0.030065,0.1376,0.093865,0.084986
48,0.072489,1.1591,-0.19324,0.0373,0.17641,0.099127,0.084657
49,0.094852,1.188,-0.18896,0.041247,0.231,0.10011,0.083013
50,0.10636,1.113,-0.17877,0.045193,0.29546,0.096496,0.082026
51,0.10603,0.95912,-0.16265,0.050126,0.36913,0.091234,0.084328
52,0.096825,0.7562,-0.14259,0.052099,0.45299,0.088603,0.089261
53,0.084328,0.53389,-0.12319,0.049468,0.54178,0.093865,0.097812
54,0.066898,0.31388,-0.10839,0.042233,0.61841,0.10801,0.10965
55,0.044206,0.10307,-0.10346,0.03434,0.65952,0.12873,0.12248
56,0.018226,-0.11398,-0.10839,0.029078,0.65426,0.15076,0.12905
57,-0.0011774,-0.35043,-0.11233,0.024145,0.60624,0.1626,0.12708
58,-0.0067681,-0.59741,-0.10674,0.023817,0.52698,0.15865,0.11721
59,-0.0008485,-0.82565,-0.090958,0.030065,0.4303,0.14155,0.10274
60,0.011977,-1.0049,-0.075501,0.042233,0.32999,0.1159,0.089261
61,0.017897,-1.1121,-0.065307,0.055717,0.23758,0.08959,0.07808
62,0.0083598,-1.1483,-0.063662,0.063281,0.16556,0.065583,0.070187
63,-0.019265,-1.1243,-0.068595,0.061307,0.12017,0.044864,0.063281
64,-0.0584,-1.0601,-0.07879,0.051441,0.094852,0.026447,0.059005
65,-0.10115,-0.97726,-0.091616,0.038616,0.082684,0.0093464,0.056703
66,-0.14555,-0.88879,-0.10576,0.026776,0.079395,-0.0038083,0.05473
67,-0.19488,-0.79441,-0.12056,0.01691,0.080711,-0.014003,0.05177
68,-0.24947,-0.68128,-0.13766,0.010662,0.078409,-0.019923,0.045851
69,-0.30078,-0.53888,-0.16758,0.0060577,0.067556,-0.023211,0.039602
70,-0.33794,-0.36293,-0.21231,0.0034268,0.042891,-0.025514,0.033683
71,-0.35668,-0.16989,-0.27216,-0.0015062,0.010004,-0.027158,0.029078
72,-0.35635,0.015924,-0.3409,-0.01499,-0.027158,-0.02946,0.028092
73,-0.34419,0.17181,-0.40601,-0.039326,-0.068924,-0.032091,0.033683
74,-0.32774,0.28823,-0.45501,-0.064978,-0.11595,-0.036695,0.044206
75,-0.30933,0.37176,-0.46948,-0.081092,-0.1666,-0.039326,0.058019
76,-0.28466,0.42997,-0.42871,-0.080763,-0.21297,-0.04097,0.073147
77,-0.24914,0.46746,-0.32018,-0.064978,-0.25046,-0.044588,0.084657
78,-0.20508,0.49015,-0.1393,-0.038997,-0.284,-0.051165,0.082684
79,-0.1564,0.4987,0.10176,-0.011043,-0.3159,-0.058729,0.062952
80,-0.10773,0.49508,0.36781,0.014279,-0.34846,-0.065307,0.033683
81,-0.057743,0.48456,0.60361,0.033025,-0.37543,-0.06728,0.0050711
82,-0.0087413,0.46877,0.75785,0.046508,-0.38233,-0.06136,-0.010715
83,0.038616,0.45332,0.79994,0.06361,-0.35701,-0.048534,-0.01203
84,0.085644,0.44773,0.73549,0.09255,-0.29387,-0.033406,0.002769
85,0.13826,0.46055,0.59999,0.13464,-0.20475,-0.018607,0.02579
86,0.19779,0.49508,0.43819,0.17871,-0.11036,-0.0051238,0.047495
87,0.26488,0.54441,0.28724,0.21324,-0.033406,0.0037556,0.06065
88,0.33328,0.59111,0.17016,0.22706,0.013951,0.0021113,0.062294
89,0.39215,0.61578,0.095181,0.2139,0.034011,-0.010057,0.052757
90,0.43063,0.60887,0.057032,0.17937,0.033354,-0.029131,0.04026
91,0.44641,0.57664,0.042233,0.13497,0.022501,-0.047219,0.029736
92,0.44115,0.53225,0.034011,0.093536,0.01132,-0.061689,0.021843
93,0.42109,0.48719,0.025461,0.061636,0.0017824,-0.068266,0.013951
94,0.39182,0.44871,0.014937,0.042562,-0.00051963,-0.066951,0.0077021
95,0.35531,0.41681,0.0021113,0.03434,0.0086887,-0.055769,0.0030979
96,0.31618,0.39116,-0.01499,0.029407,0.030065,-0.038011,0.0017824
97,0.28033,0.36913,-0.033406,0.025461,0.064267,-0.017621,-0.0011774
98,0.24942,0.34742,-0.047877,0.021843,0.10932,0.0017824,-0.0024928
99,0.22344,0.32802,-0.055112,0.025132,0.15471,0.01987,-0.00019077
100,0.19845,0.31289,-0.057414,0.036314,0.19121,0.041247,0.0060577
101,0.17148,0.29875,-0.056756,0.052757,0.20864,0.06065,0.012635
102,0.14155,0.28165,-0.052481,0.067227,0.20568,0.067885,0.017239
103,0.10965,0.25665,-0.045903,0.076106,0.18858,0.060321,0.019541
104,0.083342,0.22147,-0.040313,0.07808,0.16687,0.042562,0.018555
105,0.060979,0.18134,-0.037682,0.077751,0.1432,0.025461,0.010662
106,0.037958,0.14813,-0.037682,0.080053,0.11524,0.013293,-0.0054526
107,0.010004,0.12544,-0.03242,0.08367,0.079724,0.0073732,-0.028144
108,-0.019594,0.11064,-0.016305,0.084328,0.035656,0.0047422,-0.04689
109,-0.047877,0.10209,0.0080309,0.081697,-0.0087413,0.0057288,-0.056756
110,-0.067937,0.10176,0.02875,0.071173,-0.043601,0.010004,-0.055112
111,-0.072213,0.11195,0.038287,0.05473,-0.062018,0.012306,-0.043601
112,-0.062018,0.13432,0.041575,0.03434,-0.068595,0.011648,-0.029131
113,-0.039326,0.15832,0.042233,0.013951,-0.073857,0.0063866,-0.01499
114,-0.011701,0.17608,0.042233,-0.0038083,-0.089643,-0.0018351,-0.0024928
115,0.012635,0.18693,0.042562,-0.014661,-0.11266,-0.0087413,0.0090175
116,0.026447,0.19088,0.041247,-0.015319,-0.13404,-0.010057,0.01691
117,0.030065,0.18825,0.045522,-0.007097,-0.14423,-0.0018351,0.021514
118,0.032038,0.17312,0.065583,0.0040845,-0.14029,0.015924,0.020199
119,0.038287,0.14714,0.1034,0.018226,-0.12582,0.03434,0.013293
120,0.048482,0.10603,0.15043,0.032038,-0.1051,0.04618,0.0040845
121,0.054072,0.049797,0.19055,0.04618,-0.087669,0.052099,-0.0015062
122,0.050455,-0.020252,0.21555,0.057032,-0.076159,0.055059,-0.0057815
123,0.039931,-0.094905,0.21883,0.065254,-0.072542,0.056703,-0.012359
124,0.024803,-0.16232,0.20239,0.067885,-0.069911,0.058348,-0.025185
125,0.0090175,-0.21099,0.17477,0.066898,-0.060702,0.057032,-0.044259
126,-0.0051238,-0.23862,0.14254,0.064267,-0.041628,0.055388,-0.062676
127,-0.01499,-0.25013,0.11195,0.061307,-0.017292,0.056374,-0.068266
128,-0.021896,-0.25046,0.081039,0.053743,0.0070443,0.059334,-0.054783
129,-0.024527,-0.24224,0.049139,0.04322,0.026776,0.061965,-0.026171
130,-0.019265,-0.21691,0.0096753,0.033025,0.042891,0.062952,0.0067154
131,-0.0051238,-0.15673,-0.038668,0.02579,0.056046,0.059334,0.029078
132,0.013293,-0.055112,-0.085039,0.026776,0.061636,0.053415,0.032696
133,0.031052,0.076106,-0.11825,0.033683,0.056703,0.046837,0.016253
134,0.046508,0.20798,-0.13404,0.041575,0.039931,0.039931,-0.015648
135,0.055717,0.30862,-0.13042,0.045522,0.015595,0.029078,-0.049521
136,0.06065,0.35729,-0.1097,0.042891,-0.015319,0.014608,-0.073528
137,0.061636,0.34742,-0.077475,0.03434,-0.053796,0.0014536,-0.085696
138,0.059663,0.28592,-0.043272,0.018555,-0.097207,-0.0057815,-0.088656
139,0.054401,0.18858,-0.010386,-0.0038083,-0.1347,-0.0054526,-0.080106
140,0.045851,0.06624,0.018884,-0.02946,-0.15772,0.0037556,-0.065635
141,0.033354,-0.064978,0.044206,-0.054454,-0.1643,0.022501,-0.049521
142,0.01691,-0.19159,0.065912,-0.076159,-0.15673,0.048153,-0.030775
143,-0.004466,-0.30374,0.082684,-0.095233,-0.13338,0.080382,-0.0087413
144,-0.027487,-0.40009,0.094523,-0.11299,-0.092931,0.11393,0.010991
145,-0.051494,-0.48494,0.099456,-0.1199,-0.033078,0.14188,0.025461
146,-0.074844,-0.56551,0.097812,-0.10477,0.042233,0.16424,0.034669
147,-0.095562,-0.63918,0.088932,-0.063333,0.12774,0.18167,0.038616
148,-0.11168,-0.69936,0.076435,0.0014536,0.21456,0.19417,0.038616
149,-0.12319,-0.72699,0.062294,0.075449,0.28987,0.19647,0.034998
150,-0.13404,-0.69903,0.043549,0.13991,0.3346,0.1843,0.031709
151,-0.14325,-0.58853,0.017568,0.18266,0.33065,0.15438,0.029736
152,-0.14884,-0.38858,-0.018936,0.19779,0.27639,0.11195,0.030394
153,-0.15081,-0.13207,-0.068595,0.18957,0.18529,0.068214,0.026447
154,-0.14654,0.12478,-0.12878,0.16622,0.076764,0.027434,0.018226
155,-0.13568,0.32703,-0.18666,0.13728,-0.025514,-0.007097,0.0080309
156,-0.11858,0.43852,-0.22777,0.10834,-0.099509,-0.033078,0.0014536
157,-0.098851,0.45134,-0.24881,0.086301,-0.13108,-0.048863,-0.0024928
158,-0.079119,0.37735,-0.2498,0.075449,-0.11793,-0.053138,-0.004466
159,-0.059058,0.24613,-0.235,0.080053,-0.066293,-0.044259,-0.0015062
160,-0.037353,0.09255,-0.20376,0.097483,0.0063866,-0.021238,0.0054
161,-0.011043,-0.057743,-0.1587,0.11689,0.080053,0.012306,0.014937
162,0.017568,-0.18929,-0.10905,0.12478,0.13695,0.047495,0.027763
163,0.042891,-0.30341,-0.068595,0.1113,0.16359,0.073476,0.048482
164,0.059992,-0.4093,-0.043272,0.078409,0.15931,0.084986,0.075778
165,0.068871,-0.51487,-0.034722,0.032038,0.1307,0.082026,0.10603
166,0.079395,-0.61912,-0.037353,-0.01499,0.094852,0.073147,0.133
167,0.090905,-0.71285,-0.04689,-0.050507,0.06361,0.065583,0.15372
168,0.097154,-0.77862,-0.054783,-0.068924,0.041904,0.06624,0.16523
169,0.089919,-0.80329,-0.058071,-0.066951,0.02579,0.074462,0.16687
170,0.073804,-0.78158,-0.051823,-0.045574,0.00079584,0.086959,0.15997
171,0.05473,-0.72304,-0.038668,-0.013674,-0.037353,0.095181,0.15207
172,0.035656,-0.64148,-0.022883,0.018226,-0.082079,0.093865,0.14385
173,0.020199,-0.55269,-0.0057815,0.049797,-0.11562,0.084328,0.13464
174,0.0070443,-0.46291,0.013622,0.077422,-0.13305,0.075449,0.12511
175,-0.0051238,-0.36754,0.041247,0.10011,-0.13766,0.066898,0.11393
176,-0.014661,-0.26032,0.080711,0.11787,-0.13996,0.056374,0.10044
177,-0.019265,-0.14226,0.12642,0.1307,-0.13799,0.043877,0.084986
178,-0.015976,-0.022883,0.17608,0.14254,-0.12746,0.032696,0.0692
179,-0.0008485,0.083342,0.23495,0.15701,-0.094576,0.026447,0.061636
180,0.018555,0.16786,0.31289,0.17378,-0.034064,0.026447,0.066569
181,0.038616,0.23166,0.41846,0.18759,0.048153,0.030394,0.081697
182,0.058676,0.28231,0.54474,0.18957,0.13826,0.036971,0.098798
183,0.07808,0.32013,0.66281,0.17378,0.23067,0.044206,0.11097
184,0.091234,0.35071,0.73779,0.14024,0.32045,0.047166,0.1159
185,0.095181,0.37801,0.74601,0.10373,0.39708,0.042562,0.11458
186,0.089261,0.40267,0.68517,0.073804,0.44641,0.031381,0.10373
187,0.073804,0.41912,0.57862,0.058676,0.45496,0.017239,0.085644
188,0.047495,0.42536,0.45825,0.059663,0.42175,0.0040845,0.062623
189,0.012964,0.42076,0.34676,0.069529,0.35729,-0.0061104,0.039931
190,-0.021567,0.41221,0.25271,0.07512,0.27573,-0.016634,0.023817
191,-0.04393,0.41583,0.17214,0.068871,0.18924,-0.025185,0.018555
192,-0.045574,0.44214,0.10274,0.050784,0.11097,-0.030118,0.022172
193,-0.024198,0.4862,0.042562,0.024803,0.050455,-0.031762,0.031709
194,0.015266,0.53751,-0.004466,-0.00051963,0.0070443,-0.025842,0.041575
195,0.058348,0.5875,-0.03538,-0.022225,-0.020581,-0.012359,0.044206
196,0.10011,0.6286,-0.04985,-0.037682,-0.034393,0.0021113,0.035656
197,0.13399,0.64965,-0.048534,-0.045246,-0.037682,0.012964,0.020199
198,0.15734,0.64242,-0.040313,-0.041957,-0.038997,0.019212,0.002769
199,0.1649,0.60525,-0.038011,-0.03242,-0.042615,0.022172,-0.013345
200,0.15734,0.5431,-0.045903,-0.017621,-0.055769,0.022172,-0.021238
201,0.14188,0.46746,-0.063004,-0.0028217,-0.072213,0.017897,-0.023869
202,0.12741,0.38689,-0.086354,0.0080309,-0.093918,0.0073732,-0.025842
203,0.11689,0.30664,-0.10937,0.012306,-0.12023,-0.0077547,-0.028473
204,0.1057,0.22771,-0.12615,0.0073732,-0.14588,-0.021238,-0.031762
205,0.085972,0.14977,-0.13503,-0.0031506,-0.16693,-0.025185,-0.038668
206,0.058019,0.074133,-0.14259,-0.014661,-0.17449,-0.018278,-0.047877
207,0.027434,0.0080309,-0.15213,-0.025842,-0.16331,-0.0090702,-0.054125
208,0.0030979,-0.045574,-0.1666,-0.037682,-0.13864,-0.0038083,-0.053796
209,-0.0084125,-0.0903,-0.18469,-0.047877,-0.10707,-0.0024928,-0.048205
210,-0.011043,-0.13042,-0.20836,-0.056098,-0.075173,-0.0038083,-0.039655
211,-0.014003,-0.17383,-0.23829,-0.060373,-0.048863,-0.0057815,-0.03242
212,-0.022225,-0.22744,-0.26657,-0.060702,-0.025514,-0.0074258,-0.027158
213,-0.037024,-0.28302,-0.28762,-0.06136,-0.0047949,-0.016963,-0.019923
214,-0.051165,-0.32544,-0.2919,-0.059387,0.01132,-0.03242,-0.012688
215,-0.06136,-0.3386,-0.27282,-0.04985,0.027105,-0.047219,-0.0087413
216,-0.066622,-0.31853,-0.2281,-0.033735,0.052428,-0.05281,-0.0097279
217,-0.069911,-0.2817,-0.15969,-0.014332,0.10209,-0.049192,-0.014003
218,-0.069582,-0.23928,-0.075501,0.0054,0.18332,-0.039984,-0.020581
219,-0.067937,-0.19422,0.010333,0.024474,0.29053,-0.024856,-0.028802
220,-0.062018,-0.14456,0.088275,0.035985,0.39577,-0.007097,-0.038997
221,-0.052152,-0.091287,0.15569,0.034011,0.45562,0.0080309,-0.044917
222,-0.03538,-0.03538,0.21686,0.018555,0.44115,0.014608,-0.037353
223,-0.013345,0.01987,0.2731,-0.0084125,0.35203,0.0086887,-0.021567
224,0.013293,0.066569,0.3198,-0.039984,0.21028,-0.010386,-0.0064392
225,0.038287,0.10044,0.35137,-0.071884,0.053086,-0.038011,0.0021113
226,0.052099,0.12313,0.36387,-0.10378,-0.086683,-0.065307,0.010662
227,0.057032,0.1376,0.36255,-0.12713,-0.18271,-0.082736,0.020199
228,0.056703,0.15142,0.35696,-0.13404,-0.22579,-0.082079,0.030394
229,0.058676,0.17115,0.35104,-0.12253,-0.22086,-0.06136,0.038944
230,0.068214,0.20075,0.33328,-0.091616,-0.18238,-0.024527,0.044864
231,0.090905,0.23857,0.27803,-0.04689,-0.12549,0.018884,0.045851
232,0.13267,0.27968,0.15734,-0.0028217,-0.067937,0.056374,0.042562
233,0.18397,0.31881,-0.034064,0.031052,-0.021567,0.07808,0.039931
234,0.23265,0.35104,-0.26559,0.05177,0.013293,0.080382,0.04322
235,0.26619,0.37011,-0.4856,0.059005,0.036642,0.069858,0.050126
236,0.28,0.37242,-0.65529,0.055388,0.053743,0.052099,0.056703
237,0.27902,0.35893,-0.74804,0.048153,0.071173,0.04026,0.061307
238,0.26422,0.33427,-0.75889,0.04026,0.090905,0.039273,0.058348
239,0.24218,0.29645,-0.70002,0.03434,0.11327,0.047824,0.047495
240,0.21259,0.25501,-0.59478,0.031052,0.13695,0.056374,0.032038
241,0.17181,0.21916,-0.46652,0.030394,0.15273,0.058676,0.018555
242,0.11853,0.19384,-0.33366,0.031052,0.1501,0.052099,0.010004
243,0.058348,0.182,-0.21165,0.027434,0.11919,0.042562,0.0017824
244,-0.0015062,0.17838,-0.11036,0.020857,0.064925,0.03434,-0.007097
245,-0.057085,0.17115,-0.035051,0.014279,-0.00051963,0.030394,-0.012359
246,-0.10148,0.15569,0.015924,0.012635,-0.062347,0.03434,-0.0090702
247,-0.13338,0.13037,0.048153,0.014279,-0.10641,0.045851,0.0060577
248,-0.15706,0.097483,0.068871,0.025132,-0.13437,0.062952,0.025461
249,-0.17383,0.057032,0.078737,0.040918,-0.15575,0.077422,0.038944
250,-0.1814,0.012635,0.076435,0.053743,-0.18633,0.081697,0.042891
251,-0.18008,-0.034064,0.056374,0.058676,-0.22744,0.071502,0.042233
252,-0.17679,-0.088656,0.012964,0.054072,-0.27447,0.047824,0.040589
253,-0.17186,-0.15015,-0.051165,0.042891,-0.31261,0.018226,0.035985
254,-0.16364,-0.21165,-0.12944,0.03434,-0.32643,-0.0064392,0.032367
255,-0.15081,-0.25901,-0.20277,0.030065,-0.309,-0.020909,0.030723
256,-0.13437,-0.28795,-0.25243,0.028092,-0.2669,-0.025514,0.029078
257,-0.11431,-0.29716,-0.26657,0.024474,-0.21659,-0.025514,0.027105
258,-0.093918,-0.28894,-0.24684,0.020528,-0.16923,-0.02354,0.026776
259,-0.074844,-0.26559,-0.20902,0.015266,-0.12911,-0.024856,0.031052
260,-0.060373,-0.23402,-0.17022,0.0080309,-0.090629,-0.031433,0.042233
261,-0.050836,-0.20606,-0.1347,-0.002164,-0.050836,-0.038668,0.052757
262,-0.042944,-0.1906,-0.095891,-0.017621,-0.010386,-0.04393,0.053743
263,-0.033078,-0.18567,-0.045246,-0.03538,0.023817,-0.043601,0.043549
264,-0.018607,-0.18008,0.011977,-0.048863,0.047166,-0.036037,0.029407
265,0.0037556,-0.16561,0.0692,-0.05544,0.058676,-0.02354,0.017239
266,0.032696,-0.14062,0.11393,-0.058729,0.062623,-0.011043,0.011648
267,0.061307,-0.11398,0.14352,-0.060702,0.061307,-0.0041372,0.014937
268,0.084986,-0.091616,0.16654,-0.059716,0.06065,-0.007097,0.027763
269,0.10011,-0.073528,0.19253,-0.054783,0.061965,-0.014661,0.047824
270,0.11064,-0.055769,0.23002,-0.044588,0.061636,-0.024856,0.067556
271,0.1113,-0.03538,0.27408,-0.025842,0.055388,-0.031433,0.086959
272,0.10768,-0.015648,0.31289,0.0017824,0.046508,-0.027158,0.10636
273,0.10406,-0.0041372,0.33394,0.037958,0.046508,-0.0051238,0.12971
274,0.10274,0.0001381,0.33131,0.080382,0.071502,0.032696,0.15865
275,0.10077,0.0040845,0.3073,0.12149,0.12642,0.083999,0.19253
276,0.09551,0.01691,0.26685,0.15799,0.19614,0.14385,0.22574
277,0.091892,0.050126,0.22443,0.18693,0.25369,0.19845,0.25369
278,0.092221,0.10373,0.19779,0.2014,0.27803,0.23791,0.2708
279,0.094852,0.1672,0.19318,0.20338,0.2629,0.25501,0.27606
280,0.09551,0.22377,0.20634,0.1922,0.21851,0.24942,0.26751
281,0.087946,0.25665,0.22739,0.17542,0.1603,0.2241,0.24613
282,0.071173,0.25435,0.24416,0.15767,0.10538,0.18562,0.21686
283,0.04618,0.2162,0.24218,0.14122,0.058019,0.14056,0.18595
284,0.019541,0.15207,0.21916,0.12281,0.017568,0.093536,0.15865
285,0.0034268,0.08663,0.18233,0.10077,-0.020909,0.052428,0.13432
286,0.0021113,0.042562,0.14418,0.080053,-0.056427,0.019212,0.10801
287,0.01132,0.029736,0.11656,0.065254,-0.079119,0.0021113,0.084328
288,0.023159,0.044864,0.10965,0.056046,-0.083065,-0.0041372,0.065254
289,0.032038,0.080711,0.13201,0.050784,-0.06728,-0.0054526,0.053415
290,0.037629,0.13366,0.18299,0.051113,-0.033078,-0.0077547,0.044206
291,0.04322,0.19516,0.25205,0.056703,0.011977,-0.014661,0.035656
292,0.050784,0.26422,0.32111,0.065583,0.068871,-0.023211,0.019212
293,0.057361,0.33591,0.36979,0.07216,0.13859,-0.029789,-0.0038083
294,0.056374,0.39609,0.38426,0.068871,0.2116,-0.029789,-0.029131
295,0.047824,0.42997,0.36321,0.053415,0.2731,-0.024198,-0.051165
296,0.039602,0.42964,0.31322,0.033354,0.29711,-0.015648,-0.063333
297,0.034669,0.39478,0.2458,0.016581,0.26915,-0.0090702,-0.062018
298,0.032696,0.32966,0.18069,0.0050711,0.19253,-0.0064392,-0.050179
299,0.030394,0.24153,0.13497,0.0073732,0.090248,-0.0097279,-0.038011
300,0.027763,0.13958,0.11458,0.02875,-0.0008485,-0.01499,-0.034393
301,0.024474,0.029736,0.11195,0.063281,-0.054454,-0.017292,-0.04097
302,0.020528,-0.086683,0.11754,0.10077,-0.068595,-0.011372,-0.04985
303,0.016581,-0.2031,0.12346,0.12609,-0.05281,-0.0008485,-0.057085
304,0.013293,-0.30998,0.11952,0.13169,-0.025185,0.0086887,-0.062676
305,0.0093464,-0.39582,0.10274,0.11557,0.0060577,0.011977,-0.063333
306,0.0034268,-0.45896,0.076106,0.088603,0.033025,0.013622,-0.059058
307,-0.00019077,-0.49152,0.04618,0.063938,0.053415,0.015924,-0.050836
308,0.0017824,-0.48889,0.020199,0.05177,0.064925,0.021186,-0.044259
309,0.01132,-0.44844,0.0021113,0.054401,0.0692,0.028092,-0.039984
310,0.026119,-0.37214,-0.007097,0.064267,0.062952,0.032696,-0.039326
311,0.04322,-0.27019,-0.010715,0.07808,0.04618,0.034011,-0.039984
312,0.061307,-0.15607,-0.0097279,0.092879,0.01987,0.034998,-0.040313
313,0.073476,-0.047877,-0.0061104,0.10538,-0.0093991,0.037629,-0.04097
314,0.072489,0.045193,-0.002164,0.11327,-0.033735,0.044206,-0.035708
315,0.061636,0.11787,0.00079584,0.1113,-0.045903,0.055388,-0.022554
316,0.044864,0.17477,0.0001381,0.098798,-0.048863,0.068214,-0.0041372
317,0.029407,0.21719,-0.0064392,0.081039,-0.048205,0.074791,0.014937
318,0.015924,0.24712,-0.019594,0.062623,-0.057085,0.068871,0.026776
319,0.0040845,0.26323,-0.034722,0.045193,-0.083065,0.049468,0.022172
320,-0.0054526,0.26553,-0.045903,0.029078,-0.11858,0.02283,0.0017824
321,-0.012688,0.25074,-0.05281,0.012306,-0.15607,-0.0084125,-0.023211
322,-0.018278,0.22311,-0.056098,-0.0034794,-0.18962,-0.036037,-0.043601
323,-0.02354,0.19088,-0.054125,-0.015319,-0.2133,-0.054454,-0.054783
324,-0.027487,0.15405,-0.048863,-0.017621,-0.22481,-0.058729,-0.060373
325,-0.036037,0.10242,-0.046232,-0.012359,-0.22514,-0.054783,-0.063662
326,-0.048863,0.039273,-0.051494,0.00079584,-0.22086,-0.051165,-0.066293
327,-0.062347,-0.021567,-0.064649,0.017239,-0.21494,-0.048534,-0.071884
328,-0.069582,-0.060702,-0.080763,0.033354,-0.21889,-0.044588,-0.073528
329,-0.070897,-0.060045,-0.096549,0.041904,-0.23303,-0.040641,-0.070897
330,-0.068595,-0.014661,-0.10707,0.038287,-0.25638,-0.038011,-0.06432
331,-0.06136,0.058676,-0.11431,0.024145,-0.27874,-0.039326,-0.054125
332,-0.049521,0.1353,-0.11891,0.0044134,-0.28992,-0.042944,-0.04393
333,-0.033078,0.18661,-0.12089,-0.019265,-0.28269,-0.044588,-0.038668
334,-0.014332,0.19549,-0.11628,-0.036695,-0.25342,-0.045574,-0.037353
335,0.0063866,0.14484,-0.10477,-0.046561,-0.2031,-0.049521,-0.039326
336,0.028421,0.025132,-0.087669,-0.050507,-0.14062,-0.054454,-0.041628
337,0.050126,-0.16265,-0.066622,-0.049521,-0.071555,-0.06432,-0.04393
338,0.06361,-0.39483,-0.050179,-0.04689,-0.0011774,-0.074844,-0.040641
339,0.067227,-0.62438,-0.04393,-0.048534,0.064267,-0.080106,-0.030447
340,0.062623,-0.79835,-0.047877,-0.057743,0.12544,-0.079448,-0.019923
341,0.052428,-0.88188,-0.060373,-0.07024,0.18792,-0.071884,-0.016963
342,0.038287,-0.87991,-0.080106,-0.080763,0.25271,-0.060702,-0.021238
343,0.021514,-0.82598,-0.09918,-0.082079,0.3175,-0.04393,-0.033078
344,0.0060577,-0.75363,-0.11102,-0.07024,0.39083,-0.026171,-0.042944
345,-0.0061104,-0.66911,-0.11365,-0.044917,0.48752,-0.0097279,-0.044917
346,-0.011701,-0.55894,-0.1074,-0.010715,0.61742,0.0060577,-0.033406
347,-0.011043,-0.40634,-0.094247,0.02283,0.75719,0.023488,-0.0061104
348,0.0001381,-0.21363,-0.076159,0.050455,0.87229,0.039602,0.030394
349,0.024145,-0.0018351,-0.056427,0.069529,0.9236,0.059005,0.065254
350,0.055388,0.19746,-0.035051,0.077751,0.88742,0.081368,0.085315
351,0.084328,0.35433,-0.017621,0.075449,0.76804,0.10307,0.085644
352,0.10143,0.45233,-0.0061104,0.065254,0.59309,0.11919,0.075449
353,0.10307,0.48818,-0.0011774,0.053743,0.41089,0.12741,0.066569
354,0.096825,0.47535,0.0034268,0.043549,0.25961,0.12708,0.065254
355,0.090905,0.43161,0.012964,0.035985,0.15207,0.11985,0.065254
356,0.087617,0.37209,0.029407,0.02875,0.086301,0.10801,0.061307
357,0.081697,0.30598,0.047166,0.021186,0.050455,0.094852,0.053086
358,0.070516,0.23955,0.060321,0.012635,0.028092,0.085644,0.044206
359,0.050784,0.17444,0.060979,0.0040845,0.0086887,0.081697,0.0373
360,0.025132,0.1113,0.051441,-0.0047949,-0.017621,0.084328,0.029736
361,0.0001381,0.055388,0.035327,-0.01795,-0.052152,0.096167,0.022501
362,-0.018607,0.0063866,0.019212,-0.030447,-0.087012,0.11195,0.017239
363,-0.034722,-0.035708,0.0070443,-0.041299,-0.10674,0.12741,0.0093464
364,-0.053796,-0.064978,0.0054,-0.04985,-0.10609,0.14056,0.0021113
365,-0.078132,-0.069582,0.01132,-0.051494,-0.0903,0.14879,0.0011247
366,-0.099509,-0.044588,0.022172,-0.046561,-0.067609,0.15372,0.01132
367,-0.10872,-0.0015062,0.036971,-0.037353,-0.041299,0.15602,0.028421
368,-0.10707,0.042891,0.052757,-0.026171,-0.013017,0.15832,0.046837
369,-0.10411,0.078737,0.062623,-0.017292,0.020857,0.16819,0.061636
370,-0.10543,0.10998,0.062294,-0.0064392,0.061965,0.18693,0.067885
371,-0.10707,0.14681,0.052757,0.013293,0.11524,0.21094,0.0692
372,-0.10082,0.19812,0.043549,0.047824,0.17871,0.22936,0.072818
373,-0.082079,0.27178,0.040589,0.095839,0.24054,0.23725,0.079724
374,-0.053796,0.3665,0.044864,0.15043,0.28658,0.23495,0.087946
375,-0.022883,0.47469,0.056374,0.20502,0.30401,0.22739,0.099127
376,0.0011247,0.58355,0.070516,0.25238,0.29415,0.2162,0.11228
377,0.015266,0.6878,0.082684,0.28757,0.2629,0.20404,0.12215
378,0.025461,0.77232,0.090905,0.30927,0.21686,0.18825,0.12478
379,0.040589,0.81672,0.092879,0.31585,0.16523,0.1672,0.11754
380,0.06361,0.8029,0.087288,0.30631,0.11261,0.14089,0.10472
381,0.093208,0.72661,0.079724,0.27935,0.053415,0.11031,0.093865
382,0.12971,0.59506,0.073476,0.24284,-0.017621,0.080053,0.088603
383,0.16556,0.42701,0.068543,0.19976,-0.10181,0.049468,0.089261
384,0.18989,0.24547,0.061636,0.15734,-0.19291,0.017897,0.095181
385,0.19779,0.070516,0.04881,0.12478,-0.27611,-0.0097279,0.10209
386,0.18891,-0.082736,0.030394,0.1034,-0.34583,-0.027158,0.1034
387,0.16523,-0.20836,0.0054,0.08959,-0.40437,-0.037024,0.09551
388,0.13662,-0.30012,-0.019594,0.073804,-0.45699,-0.046561,0.077422
389,0.11458,-0.32972,-0.041957,0.050784,-0.50434,-0.054125,0.056046
390,0.10965,-0.27381,-0.057085,0.024145,-0.54611,-0.059387,0.036642
391,0.12116,-0.13338,-0.069582,0.0024402,-0.56814,-0.063662,0.023817
392,0.14221,0.065912,-0.085696,-0.004466,-0.55532,-0.067609,0.02579
393,0.16326,0.28461,-0.10674,0.0001381,-0.50336,-0.074844,0.041575
394,0.1751,0.48949,-0.13042,0.0070443,-0.4264,-0.079777,0.061636
395,0.17904,0.65787,-0.14621,0.0050711,-0.33958,-0.080434,0.071831
396,0.17707,0.77232,-0.14456,-0.0067681,-0.26427,-0.076488,0.074462
397,0.1751,0.82592,-0.11891,-0.030775,-0.21132,-0.070568,0.07216
398,0.16983,0.81737,-0.073199,-0.06136,-0.17942,-0.068266,0.063281
399,0.15734,0.74996,-0.021567,-0.091616,-0.16462,-0.07583,0.051441
400,0.13136,0.63156,0.023817,-0.11891,-0.16035,-0.087998,0.039602
401,0.094194,0.4645,0.052757,-0.13864,-0.15048,-0.094905,0.032696
402,0.054072,0.25435,0.062623,-0.14917,-0.12056,-0.092931,0.032696
403,0.018884,0.0073732,0.059005,-0.14818,-0.063991,-0.08471,0.04026
404,-0.011701,-0.26559,0.053415,-0.13766,0.020528,-0.074186,0.050126
405,-0.03538,-0.54907,0.056374,-0.11595,0.12215,-0.069253,0.055388
406,-0.048863,-0.82335,0.068871,-0.083065,0.22015,-0.070897,0.055717
407,-0.051823,-1.0661,0.084328,-0.04097,0.29283,-0.078461,0.056374
408,-0.054454,-1.2532,0.093536,0.0037556,0.32539,-0.079448,0.062623
409,-0.063662,-1.3686,0.088275,0.043549,0.32309,-0.065964,0.072489
410,-0.079777,-1.4077,0.066569,0.073804,0.29842,-0.038997,0.083013
411,-0.098193,-1.3791,0.026776,0.087946,0.26521,-0.0077547,0.091892
412,-0.11497,-1.2995,-0.031762,0.085644,0.23265,0.013622,0.098141
413,-0.12615,-1.1864,-0.10477,0.071173,0.20469,0.016253,0.10011
414,-0.13338,-1.0493,-0.19192,0.050455,0.17181,0.0017824,0.093208
415,-0.13634,-0.88616,-0.28861,0.032696,0.12708,-0.022554,0.079066
416,-0.12845,-0.69476,-0.38562,0.026776,0.070187,-0.045246,0.062623
417,-0.10674,-0.48231,-0.46093,0.037958,0.0093464,-0.051494,0.048153
418,-0.074844,-0.27085,-0.48955,0.062952,-0.038997,-0.041628,0.038287
419,-0.036037,-0.081421,-0.45501,0.093536,-0.065635,-0.022883,0.036971
420,0.002769,0.073476,-0.36129,0.11656,-0.07879,-0.0061104,0.042891
421,0.037958,0.19088,-0.2281,0.11985,-0.089972,0.002769,0.047824
422,0.059663,0.27573,-0.086683,0.099785,-0.10576,0.0077021,0.050784
423,0.065912,0.33131,0.026776,0.065583,-0.13174,0.010662,0.051441
424,0.060321,0.36025,0.098798,0.030065,-0.17022,0.012306,0.050126
425,0.04881,0.36748,0.13366,0.0057288,-0.21889,0.013293,0.048153
426,0.033683,0.36058,0.14484,-0.0067681,-0.26624,0.014608,0.044864
427,0.020199,0.35301,0.14648,-0.016963,-0.30078,0.014279,0.033354
428,0.013293,0.35466,0.15043,-0.030447,-0.31722,0.0096753,0.019541
429,0.011977,0.36683,0.15997,-0.042944,-0.31985,0.0037556,0.0083598
430,0.014279,0.38787,0.17082,-0.050836,-0.31623,-0.0008485,0.0040845
431,0.018884,0.40958,0.18069,-0.053138,-0.30768,-0.0031506,0.0073732
432,0.022501,0.42602,0.18726,-0.056098,-0.2942,-0.0084125,0.014608
433,0.026447,0.43589,0.19417,-0.060373,-0.27052,-0.017292,0.01987
434,0.034669,0.44279,0.20667,-0.065964,-0.23138,-0.02354,0.022172
435,0.045522,0.44707,0.22212,-0.064649,-0.17745,-0.024198,0.022501
436,0.053415,0.44904,0.23495,-0.056427,-0.11529,-0.016963,0.020528
437,0.056703,0.44904,0.24021,-0.045574,-0.054454,0.0014536,0.015924
438,0.055388,0.44575,0.23561,-0.032091,0.0001381,0.029407,0.0054
439,0.052428,0.4349,0.22179,-0.012359,0.052757,0.060321,-0.0093991
440,0.049797,0.41616,0.207,0.014937,0.1136,0.085972,-0.018936
441,0.049139,0.3882,0.19779,0.047166,0.1922,0.10176,-0.018278
442,0.055388,0.35367,0.19647,0.082355,0.27803,0.10505,-0.010715
443,0.071173,0.31651,0.1968,0.11261,0.35203,0.098798,-0.00051963
444,0.094523,0.28132,0.19351,0.13826,0.39281,0.08959,0.0090175
445,0.12083,0.24909,0.18562,0.15799,0.39017,0.078737,0.013951
446,0.13925,0.22311,0.17345,0.16687,0.34775,0.071831,0.010333
447,0.14681,0.19943,0.15931,0.16326,0.2731,0.072489,0.00079584
448,0.14221,0.17674,0.14517,0.14747,0.18036,0.073804,-0.0054526
449,0.12445,0.15372,0.13629,0.12281,0.088275,0.069529,-0.0097279
450,0.097154,0.13234,0.13497,0.086301,0.015924,0.058019,-0.013345
451,0.059992,0.11294,0.14287,0.04618,-0.019923,0.043549,-0.018607
452,0.022172,0.098469,0.1524,0.015924,-0.0011774,0.026776,-0.024856
453,-0.013674,0.091892,0.15569,0.00079584,0.071831,0.011977,-0.025514
454,-0.047548,0.086959,0.1524,-0.00051963,0.18759,-0.0011774,-0.01795
455,-0.084052,0.079395,0.14056,0.0054,0.31421,-0.0067681,-0.0077547
456,-0.12253,0.070845,0.12149,0.011977,0.41418,-0.0034794,0.0014536
457,-0.1564,0.069858,0.097483,0.017568,0.45759,0.0070443,0.002769
458,-0.18567,0.086959,0.072818,0.023488,0.4349,0.021186,-0.0057815
459,-0.20902,0.12346,0.056374,0.028421,0.3586,0.03434,-0.01795
460,-0.22119,0.17674,0.049139,0.036642,0.25074,0.045522,-0.024856
461,-0.22086,0.23363,0.047824,0.049139,0.14089,0.056374,-0.02354
462,-0.20968,0.27869,0.045851,0.060321,0.054401,0.065912,-0.015319
463,-0.18765,0.30697,0.043549,0.064596,0.0057288,0.073804,-0.0061104
464,-0.15443,0.31815,0.044864,0.057361,-0.0077547,0.079066,0.0017824
465,-0.11332,0.32177,0.051441,0.039273,0.0017824,0.083999,0.0096753
466,-0.068595,0.32999,0.059334,0.023817,0.024803,0.092221,0.017897
467,-0.022554,0.35301,0.062294,0.015595,0.058676,0.10406,0.02579
468,0.024145,0.39544,0.058019,0.012306,0.098798,0.12248,0.032038
469,0.069529,0.45463,0.050126,0.0073732,0.13695,0.14385,0.034669
470,0.11064,0.51712,0.039931,-0.0011774,0.1603,0.16095,0.032696
471,0.14616,0.56349,0.02579,-0.010715,0.15471,0.16983,0.030065
472,0.17246,0.5773,0.0077021,-0.018936,0.10998,0.16819,0.026776
473,0.18365,0.54244,-0.0067681,-0.02354,0.034998,0.15503,0.023817
474,0.1797,0.45299,-0.010386,-0.022225,-0.048863,0.13497,0.01987
475,0.16852,0.30927,-0.0054526,-0.018278,-0.11628,0.11426,0.01691
476,0.15372,0.11985,-0.00051963,-0.011043,-0.15673,0.092221,0.011977
477,0.13695,-0.10543,0.0034268,0.0034268,-0.17153,0.069858,0.0086887
478,0.11689,-0.34747,0.0090175,0.021843,-0.16627,0.045851,0.0050711
479,0.090248,-0.57867,0.018226,0.041904,-0.14752,0.024803,0.0057288
480,0.051113,-0.7727,0.031709,0.059663,-0.11529,0.0083598,0.013951
481,0.00079584,-0.91543,0.04322,0.072489,-0.069253,-0.0015062,0.029736
482,-0.053796,-1.0039,0.048153,0.074462,-0.015648,-0.0057815,0.047495
483,-0.10214,-1.0532,0.045193,0.0692,0.034669,-0.0064392,0.061965
484,-0.13437,-1.0785,0.040918,0.05769,0.074133,-0.0041372,0.071502
485,-0.14621,-1.0874,0.04322,0.041904,0.10143,-0.0011774,0.069529
486,-0.14423,-1.0795,0.058348,0.027434,0.12215,-0.0028217,0.056046
487,-0.137,-1.0476,0.08663,0.017568,0.13169,-0.010715,0.030065
488,-0.12648,-0.98482,0.11656,0.018555,0.12017,-0.024198,0.0037556
489,-0.10937,-0.88452,0.13234,0.029078,0.087617,-0.041628,-0.013017
490,-0.08471,-0.74639,0.12412,0.049797,0.045851,-0.060373,-0.015319
491,-0.050507,-0.58031,0.088932,0.075778,0.011648,-0.071555,-0.010057
492,-0.0084125,-0.40108,0.037958,0.1034,-0.0084125,-0.076159,-0.0061104
493,0.039273,-0.22974,-0.01203,0.1307,-0.017621,-0.073528,-0.0061104
494,0.08959,-0.084381,-0.044588,0.14944,-0.028144,-0.063004,-0.0067681
495,0.13991,0.032696,-0.054125,0.15273,-0.039984,-0.051494,-0.002164
496,0.18496,0.12313,-0.04393,0.13596,-0.059716,-0.039655,0.010004
497,0.22344,0.18924,-0.019923,0.1057,-0.088327,-0.030118,0.027763
498,0.25106,0.24186,0.01132,0.069858,-0.13009,-0.020909,0.050784
499,0.26948,0.28461,0.041904,0.0373,-0.18008,-0.012688,0.072489
500,0.27507,0.31585,0.058348,0.0086887,-0.22283,-0.0057815,0.085972
501,0.26619,0.33295,0.050126,-0.011701,-0.23862,-0.00051963,0.08959
502,0.24547,0.33493,0.018555,-0.02354,-0.21691,0.0040845,0.086959
503,0.21916,0.32111,-0.024856,-0.028802,-0.16166,0.011977,0.083999
504,0.19187,0.2925,-0.067937,-0.030118,-0.086354,0.025132,0.086301
505,0.16457,0.25797,-0.099838,-0.027158,-0.007097,0.039931,0.09255
506,0.14254,0.22739,-0.10839,-0.020581,0.063938,0.056046,0.10176
507,0.12642,0.20732,-0.082736,-0.0087413,0.12149,0.066898,0.10768
508,0.11689,0.19746,-0.026171,0.0077021,0.16194,0.069529,0.10472
509,0.10801,0.19187,0.049797,0.026776,0.18562,0.062623,0.090905
510,0.096496,0.18628,0.13103,0.041904,0.19943,0.049139,0.070516
511,0.082684,0.17707,0.20305,0.047824,0.20732,0.033025,0.051113
512,0.070516,0.15799,0.24514,0.039931,0.21292,0.017239,0.034998
513,0.063281,0.13201,0.23363,0.021186,0.21653,0.0001381,0.025132
514,0.06065,0.10406,0.1603,-0.004466,0.21851,-0.018936,0.018226
515,0.054072,0.081039,0.039273,-0.026171,0.21686,-0.034722,0.013622
516,0.039602,0.065583,-0.0903,-0.034064,0.21555,-0.041628,0.0054
517,0.010333,0.058676,-0.19324,-0.028802,0.21522,-0.040313,-0.0054526
518,-0.030118,0.054401,-0.24881,-0.016305,0.21456,-0.031433,-0.018278
519,-0.074186,0.049139,-0.25408,-0.0051238,0.21226,-0.015976,-0.028144
520,-0.11628,0.044535,-0.22612,-0.0011774,0.20798,0.0070443,-0.034064
521,-0.14719,0.043549,-0.18534,-0.007097,0.2014,0.037629,-0.03242
522,-0.16693,0.049797,-0.14884,-0.014003,0.20108,0.070516,-0.025842
523,-0.17416,0.062952,-0.12615,-0.014332,0.21588,0.10538,-0.016963
524,-0.16758,0.082026,-0.11628,-0.0051238,0.23988,0.14155,-0.0080836
525,-0.1495,0.10439,-0.11497,0.013951,0.25304,0.17542,-0.002164
526,-0.1222,0.12445,-0.11891,0.039602,0.22969,0.20469,0.0014536
527,-0.092603,0.13958,-0.12516,0.071173,0.15865,0.21982,0.0086887
528,-0.06136,0.15142,-0.12944,0.1057,0.057032,0.2139,0.01987
529,-0.028144,0.15964,-0.13634,0.1376,-0.040641,0.19187,0.028421
530,0.0047422,0.16161,-0.14621,0.15964,-0.095233,0.15865,0.031052
531,0.030723,0.16128,-0.15575,0.16786,-0.082736,0.12478,0.02875
532,0.047166,0.18036,-0.16495,0.16523,-0.0031506,0.099785,0.025132
533,0.063281,0.23791,-0.16824,0.15503,0.11952,0.089261,0.023817
534,0.091892,0.33394,-0.16857,0.13958,0.2583,0.089261,0.029078
535,0.133,0.44345,-0.17219,0.12281,0.38721,0.095181,0.035656
536,0.17707,0.52797,-0.18666,0.10669,0.48028,0.096496,0.039602
537,0.21127,0.55264,-0.21067,0.099127,0.51679,0.086959,0.031381
538,0.22508,0.50659,-0.22316,0.10011,0.48193,0.062294,0.013951
539,0.2162,0.39741,-0.18732,0.10603,0.3688,0.031052,0.0021113
540,0.19022,0.24876,-0.074515,0.1113,0.19746,0.00046697,0.00079584
541,0.15931,0.090905,0.11031,0.11162,0.0067154,-0.020909,0.0047422
542,0.12938,-0.052481,0.3244,0.10899,-0.1643,-0.035051,0.0073732
543,0.10373,-0.1712,0.50791,0.10209,-0.28335,-0.044917,0.0050711
544,0.078737,-0.26789,0.60756,0.089919,-0.3432,-0.05281,0.0037556
545,0.052099,-0.34879,0.59835,0.070516,-0.35701,-0.056756,0.0050711
546,0.025132,-0.4195,0.50035,0.048482,-0.3432,-0.058729,0.0096753
547,0.002769,-0.48132,0.35992,0.026119,-0.31952,-0.060045,0.012635
548,-0.0090702,-0.53723,0.22443,0.0086887,-0.29354,-0.057743,0.013293
549,-0.01203,-0.5859,0.12511,0.0034268,-0.26098,-0.051494,0.0077021
550,-0.0084125,-0.62208,0.068871,0.010991,-0.22152,-0.041299,-0.0034794
551,-0.004466,-0.6326,0.042233,0.020199,-0.18107,-0.030447,-0.016963
552,-0.0077547,-0.61484,0.021514,0.024145,-0.14851,-0.018278,-0.027487
553,-0.025185,-0.56913,-0.0028217,0.016581,-0.1268,-0.00051963,-0.035051
554,-0.04985,-0.50106,-0.017621,0.00079584,-0.11497,0.01987,-0.036037
555,-0.068595,-0.41917,0.0067154,-0.020581,-0.11299,0.034998,-0.027158
556,-0.074186,-0.32774,0.088275,-0.039984,-0.11694,0.041904,-0.0087413
557,-0.068924,-0.2281,0.21292,-0.051165,-0.12286,0.039602,0.014279
558,-0.057743,-0.11595,0.34019,-0.053138,-0.12911,0.029736,0.035985
559,-0.046561,0.002769,0.41944,-0.04393,-0.13437,0.01691,0.050784
560,-0.037024,0.11985,0.41583,-0.028802,-0.13568,0.0034268,0.058019
561,-0.02354,0.22508,0.32868,-0.015976,-0.13437,-0.0097279,0.057361
562,-0.0011774,0.31914,0.18496,-0.0077547,-0.12845,-0.020909,0.04881
563,0.023817,0.40432,0.021843,-0.0024928,-0.11266,-0.032749,0.038944
564,0.045522,0.48522,-0.1245,0.0067154,-0.082079,-0.04393,0.030723
565,0.057032,0.5579,-0.22645,0.01987,-0.039984,-0.048205,0.024145
566,0.05769,0.61874,-0.27348,0.029736,0.0063866,-0.043601,0.016253
567,0.054072,0.6605,-0.26822,0.033354,0.047824,-0.032749,0.0080309
568,0.053415,0.67826,-0.22744,0.031709,0.076435,-0.022554,0.0057288
569,0.061636,0.66182,-0.18173,0.022172,0.091892,-0.015976,0.013293
570,0.081039,0.60788,-0.15805,0.0040845,0.09551,-0.017621,0.027105
571,0.10406,0.53389,-0.16002,-0.020252,0.095839,-0.02354,0.040589
572,0.12379,0.47404,-0.17252,-0.04689,0.095839,-0.033406,0.048482
573,0.13464,0.44214,-0.16791,-0.064978,0.096496,-0.045574,0.049468
574,0.12971,0.43161,-0.13601,-0.067937,0.091892,-0.056756,0.041247
575,0.10834,0.41846,-0.087012,-0.06136,0.073804,-0.063991,0.029407
576,0.073476,0.38162,-0.037353,-0.052152,0.04026,-0.07024,0.015924
577,0.030723,0.30105,0.0001381,-0.047877,-0.004466,-0.078132,0.0034268
578,-0.018607,0.17016,0.023159,-0.048534,-0.051823,-0.087341,-0.0047949
579,-0.07287,-0.002164,0.029078,-0.048863,-0.091287,-0.094905,-0.0084125
580,-0.13108,-0.1906,0.026119,-0.04393,-0.11529,-0.098193,-0.0074258
581,-0.18534,-0.36425,0.026447,-0.030118,-0.12352,-0.094576,-0.0008485
582,-0.22941,-0.49185,0.036314,-0.0064392,-0.11924,-0.080763,0.0086887
583,-0.25671,-0.55959,0.05177,0.023488,-0.10937,-0.060045,0.02283
584,-0.26394,-0.57439,0.062623,0.049139,-0.10181,-0.037353,0.04026
585,-0.25375,-0.5619,0.072818,0.06624,-0.097207,-0.015976,0.058676
586,-0.2304,-0.54776,0.08959,0.07216,-0.089314,0.0030979,0.07808
587,-0.19916,-0.54151,0.1182,0.064925,-0.077803,0.017239,0.093865
588,-0.16956,-0.54184,0.14912,0.050126,-0.061031,0.024474,0.10209
589,-0.15048,-0.54151,0.16885,0.029736,-0.044259,0.027763,0.10011
590,-0.14588,-0.53263,0.1672,0.0090175,-0.034064,0.030723,0.087946
591,-0.15476,-0.50303,0.14089,-0.0090702,-0.032091,0.0373,0.073804
592,-0.17482,-0.44186,0.094523,-0.020252,-0.036695,0.047495,0.067227
593,-0.19488,-0.34451,0.036642,-0.024527,-0.040641,0.056046,0.069529
594,-0.20376,-0.22612,-0.0265,-0.024198,-0.043601,0.062952,0.079724
595,-0.19192,-0.10181,-0.083065,-0.018278,-0.041628,0.062952,0.088932
596,-0.16068,0.015266,-0.1199,-0.007097,-0.030447,0.061307,0.094523
597,-0.12319,0.11393,-0.13108,0.0083598,-0.011043,0.062952,0.093865
598,-0.087341,0.18693,-0.12154,0.027105,0.012635,0.070845,0.093208
599,-0.044259,0.2287,-0.10477,0.049139,0.036642,0.089261,0.096167
600,0.015595,0.2435,-0.099838,0.073476,0.055059,0.10998,0.10044
601,0.09255,0.24613,-0.11365,0.096167,0.064596,0.12149,0.099456
602,0.17279,0.24876,-0.1416,0.11721,0.066569,0.1205,0.095839
603,0.2435,0.25665,-0.17252,0.13201,0.06361,0.11031,0.094852
604,0.29382,0.26718,-0.19192,0.13859,0.06361,0.096167,0.096825
605,0.31355,0.27803,-0.18534,0.1376,0.065912,0.081697,0.096825
606,0.30039,0.29382,-0.1518,0.13136,0.072489,0.065912,0.093208
607,0.26192,0.31256,-0.10378,0.11985,0.077751,0.055717,0.086301
608,0.21292,0.33164,-0.050836,0.10505,0.081368,0.051113,0.078409
609,0.16687,0.34676,-0.0031506,0.090905,0.081039,0.053086,0.068214
610,0.12971,0.3517,0.034998,0.079066,0.077422,0.062294,0.058348
611,0.1011,0.34676,0.063281,0.071831,0.073147,0.072818,0.050126
612,0.080382,0.33032,0.082684,0.067227,0.0692,0.080053,0.042233
613,0.060979,0.30072,0.090248,0.059005,0.064596,0.07808,0.038287
614,0.035985,0.26093,0.081368,0.045193,0.055717,0.068214,0.035327
615,0.0044134,0.21653,0.051113,0.022501,0.036314,0.057032,0.032038
616,-0.033406,0.17773,0.010004,-0.0054526,0.0047422,0.047824,0.027763
617,-0.074515,0.15273,-0.027158,-0.02946,-0.031104,0.044535,0.01987
618,-0.11233,0.14484,-0.046232,-0.044917,-0.057414,0.048153,0.0060577
619,-0.14259,0.15701,-0.045574,-0.050507,-0.062347,0.055388,-0.010386
620,-0.16265,0.1797,-0.031433,-0.047219,-0.047548,0.063938,-0.026829
621,-0.17022,0.20305,-0.01499,-0.033735,-0.018278,0.072489,-0.036695
622,-0.16693,0.22377,0.002769,-0.007097,0.016253,0.085972,-0.038011
623,-0.15575,0.24317,0.02579,0.029078,0.050126,0.1034,-0.031762
624,-0.13667,0.26192,0.052757,0.065912,0.077093,0.1159,-0.025185
625,-0.10872,0.28198,0.075449,0.094852,0.093536,0.1182,-0.018936
626,-0.07287,0.29875,0.090248,0.1136,0.10044,0.11064,-0.010386
627,-0.032091,0.30368,0.097483,0.12577,0.099127,0.095839,0.0021113
628,0.013622,0.28658,0.10011,0.13234,0.093536,0.077751,0.015924
629,0.064925,0.24745,0.096496,0.1353,0.081368,0.056046,0.026447
630,0.12116,0.19187,0.09255,0.12971,0.058019,0.033025,0.029078
631,0.17707,0.1284,0.087288,0.11228,0.025461,0.012306,0.026447
632,0.22278,0.062294,0.079395,0.087288,-0.0093991,-0.0031506,0.023817
633,0.25106,-0.00051963,0.068543,0.062294,-0.039984,-0.012688,0.024803
634,0.25698,-0.057743,0.057032,0.042891,-0.059716,-0.019265,0.026776
635,0.24712,-0.10411,0.046508,0.028092,-0.066951,-0.023869,0.025461
636,0.22903,-0.13766,0.038944,0.01132,-0.057414,-0.027487,0.02283
637,0.21061,-0.15936,0.037958,-0.0038083,-0.037024,-0.024198,0.02283
638,0.19318,-0.17679,0.04322,-0.010057,-0.011043,-0.014661,0.030065
639,0.182,-0.18633,0.051113,-0.0028217,0.0083598,-0.00019077,0.037958
640,0.17806,-0.18436,0.055388,0.016581,0.014279,0.015924,0.043877
641,0.17904,-0.16857,0.056046,0.035985,0.0077021,0.030394,0.047495
642,0.18266,-0.14095,0.056046,0.053415,0.0017824,0.046508,0.04618
643,0.18628,-0.10674,0.058348,0.076764,0.010004,0.066898,0.045193
644,0.19187,-0.07024,0.062952,0.11195,0.040918,0.08959,0.048153
645,0.19581,-0.033735,0.06624,0.15405,0.090577,0.10603,0.05473
646,0.19877,-0.0024928,0.070516,0.19088,0.14352,0.11458,0.063281
647,0.2014,0.020528,0.079066,0.21324,0.18397,0.12116,0.065583
648,0.20634,0.033683,0.094852,0.21357,0.20601,0.12741,0.063938
649,0.2116,0.035656,0.1136,0.19647,0.20765,0.13267,0.061636
650,0.21061,0.030723,0.12774,0.16589,0.18463,0.13432,0.057361
651,0.20272,0.02579,0.13497,0.13136,0.14352,0.12478,0.047495
652,0.18562,0.02579,0.13563,0.092221,0.094523,0.10242,0.034011
653,0.16161,0.03434,0.13497,0.051441,0.048153,0.075449,0.02875
654,0.13497,0.052757,0.13399,0.014608,0.017239,0.052099,0.037629
655,0.10801,0.085315,0.13464,-0.012688,0.011977,0.035327,0.053415
656,0.088275,0.13497,0.13464,-0.027487,0.033354,0.023159,0.067556
657,0.080053,0.20206,0.133,-0.032749,0.071502,0.017239,0.078737
658,0.081368,0.28296,0.12873,-0.030775,0.1113,0.017239,0.085644
659,0.087617,0.36584,0.12182,-0.024527,0.13728,0.018555,0.088932
660,0.099456,0.43128,0.11261,-0.016305,0.14484,0.019212,0.088932
661,0.1205,0.46483,0.10406,-0.014003,0.14747,0.017568,0.093536
662,0.14714,0.46581,0.099785,-0.020581,0.15438,0.012306,0.10439
663,0.17575,0.4451,0.098798,-0.033406,0.16227,0.0014536,0.11557
664,0.20173,0.41024,0.10242,-0.048534,0.16983,-0.012688,0.12281
665,0.21818,0.36156,0.10669,-0.061031,0.17904,-0.028473,0.1182
666,0.21653,0.29908,0.10702,-0.067937,0.19022,-0.044588,0.10143
667,0.19351,0.22179,0.10176,-0.069911,0.19779,-0.054783,0.079395
668,0.15767,0.1307,0.090248,-0.070568,0.19055,-0.057414,0.059992
669,0.11491,0.027105,0.071502,-0.070897,0.16556,-0.05544,0.048482
670,0.068871,-0.082408,0.043549,-0.067609,0.1284,-0.050507,0.039273
671,0.019541,-0.18863,0.0093464,-0.055112,0.091234,-0.04097,0.029078
672,-0.031762,-0.29058,-0.027816,-0.030775,0.059005,-0.031104,0.018555
673,-0.082079,-0.38431,-0.063333,0.0034268,0.036971,-0.02354,0.012306
674,-0.12549,-0.4685,-0.092274,0.037958,0.014279,-0.021896,0.010991
675,-0.16232,-0.53822,-0.11102,0.062623,-0.020581,-0.019923,0.011648
676,-0.19587,-0.59051,-0.11957,0.072818,-0.069911,-0.014332,0.01132
677,-0.22711,-0.62438,-0.11891,0.07512,-0.12384,-0.0024928,0.0096753
678,-0.25835,-0.64543,-0.11529,0.075778,-0.16956,0.011977,0.0073732
679,-0.28828,-0.65398,-0.11365,0.079395,-0.19916,0.025132,0.0011247
680,-0.31196,-0.64938,-0.11464,0.083999,-0.20935,0.029736,-0.0077547
681,-0.32577,-0.6303,-0.11793,0.085972,-0.20244,0.024145,-0.018936
682,-0.3261,-0.59741,-0.12056,0.084986,-0.18403,0.0073732,-0.033406
683,-0.31722,-0.554,-0.11628,0.07808,-0.15673,-0.014661,-0.051823
684,-0.30341,-0.49908,-0.10017,0.067556,-0.12089,-0.034064,-0.07024
685,-0.28532,-0.43397,-0.075501,0.061307,-0.071226,-0.047548,-0.082408
686,-0.26592,-0.3557,-0.042286,0.056374,-0.01203,-0.054454,-0.083723
687,-0.24651,-0.26986,-0.0097279,0.049468,0.049468,-0.054125,-0.077475
688,-0.22514,-0.18501,0.012635,0.039273,0.11261,-0.045903,-0.067937
689,-0.19916,-0.10609,0.022501,0.02579,0.18595,-0.034064,-0.057743
690,-0.16923,-0.036366,0.02579,0.011648,0.28494,-0.018607,-0.048534
691,-0.13799,0.01691,0.030394,-0.002164,0.41418,-0.00051963,-0.042286
692,-0.1074,0.05473,0.0373,-0.014661,0.55198,0.019212,-0.036366
693,-0.080763,0.083342,0.04618,-0.02354,0.66412,0.038616,-0.031104
694,-0.060045,0.11261,0.054072,-0.026829,0.7151,0.054072,-0.025185
695,-0.043272,0.14418,0.056374,-0.022554,0.68484,0.060979,-0.026829
696,-0.031762,0.17477,0.055717,-0.013674,0.57598,0.061307,-0.036037
697,-0.022554,0.19779,0.056374,-0.0051238,0.41616,0.051113,-0.053467
698,-0.014661,0.20897,0.056374,0.00046697,0.2412,0.030394,-0.071555
699,-0.0084125,0.2116,0.052428,0.0080309,0.087617,0.0024402,-0.087341
700,-0.0034794,0.20732,0.046508,0.016581,-0.025514,-0.022883,-0.095891
701,0.00079584,0.19877,0.042233,0.024145,-0.095233,-0.039655,-0.096549
702,0.0080309,0.18628,0.042562,0.032696,-0.13305,-0.044588,-0.0903
703,0.017239,0.17312,0.045193,0.039931,-0.1541,-0.039984,-0.078461
704,0.027105,0.16227,0.056374,0.049468,-0.16923,-0.030118,-0.063662
705,0.036314,0.15602,0.078737,0.057032,-0.18436,-0.020581,-0.050836
706,0.041247,0.15372,0.10538,0.056374,-0.20179,-0.019594,-0.046232
707,0.045851,0.15668,0.13136,0.042891,-0.22579,-0.027816,-0.051165
708,0.052428,0.16391,0.15043,0.01987,-0.25506,-0.043601,-0.051494
709,0.058019,0.17345,0.16424,-0.0028217,-0.28762,-0.060373,-0.038668
710,0.061307,0.17937,0.17444,-0.021238,-0.3159,-0.069582,-0.014661
711,0.064596,0.17937,0.17904,-0.029789,-0.3261,-0.068266,0.0096753
712,0.070187,0.17214,0.17279,-0.028802,-0.30604,-0.056756,0.030065
713,0.075449,0.15767,0.15799,-0.020581,-0.25506,-0.037024,0.044864
714,0.080382,0.13859,0.13826,-0.010057,-0.18896,-0.012688,0.054401
715,0.084328,0.1182,0.1205,0.0034268,-0.13272,0.013951,0.058348
716,0.08367,0.10406,0.10505,0.021514,-0.10181,0.037958,0.062623
717,0.084657,0.10143,0.093208,0.034669,-0.1005,0.052757,0.067885
718,0.088932,0.11491,0.083342,0.0373,-0.12746,0.054401,0.074133
719,0.096825,0.15668,0.073804,0.029078,-0.17087,0.044535,0.083999
720,0.10998,0.23429,0.062294,0.01132,-0.21856,0.031052,0.093865
721,0.12807,0.34775,0.047166,-0.0074258,-0.2521,0.022501,0.098141
722,0.14879,0.48193,0.026776,-0.016305,-0.26197,0.024145,0.092879
723,0.1649,0.61545,-0.0011774,-0.011043,-0.2452,0.035656,0.080711
724,0.17477,0.72989,-0.035051,0.0054,-0.20705,0.052099,0.070187
725,0.18036,0.80455,-0.069911,0.021514,-0.16002,0.069529,0.064925
726,0.18299,0.83382,-0.09622,0.031052,-0.11891,0.082026,0.063938
727,0.18562,0.81803,-0.10707,0.033683,-0.098851,0.089261,0.066569
728,0.18858,0.76706,-0.10411,0.032696,-0.11069,0.087617,0.068543
729,0.18562,0.69471,-0.092931,0.026119,-0.15344,0.075778,0.068543
730,0.17378,0.60427,-0.07879,0.01691,-0.21724,0.058676,0.066569
731,0.15767,0.48883,-0.065964,0.0044134,-0.28828,0.042891,0.055388
732,0.14385,0.34282,-0.057085,-0.0090702,-0.35504,0.030394,0.031709
733,0.13333,0.16326,-0.051165,-0.015976,-0.3945,0.021514,0.0024402
734,0.12215,-0.047219,-0.045574,-0.015319,-0.38891,0.016581,-0.020581
735,0.10406,-0.28104,-0.04393,-0.012359,-0.33366,0.012964,-0.030118
736,0.077093,-0.51881,-0.042615,-0.013674,-0.23138,0.010991,-0.025842
737,0.042562,-0.73652,-0.03538,-0.022883,-0.088327,0.015266,-0.0093991
738,0.0057288,-0.90425,-0.022554,-0.035708,0.068543,0.026119,0.01132
739,-0.029131,-1.0055,-0.011701,-0.045903,0.19746,0.040589,0.032367
740,-0.064649,-1.0513,-0.010057,-0.047548,0.26356,0.053086,0.054072
741,-0.10017,-1.0631,-0.022883,-0.037353,0.26159,0.06065,0.075449
742,-0.12812,-1.0542,-0.04393,-0.019594,0.20732,0.06624,0.093865
743,-0.14391,-1.021,-0.063004,-0.002164,0.13136,0.070845,0.10768
744,-0.14391,-0.94634,-0.06728,0.012635,0.056046,0.074133,0.12379
745,-0.13075,-0.81348,-0.056427,0.024803,-0.0015062,0.070516,0.1432
746,-0.10674,-0.62208,-0.034064,0.036971,-0.030447,0.062623,0.16359
747,-0.076817,-0.3899,-0.0047949,0.052757,-0.019265,0.059334,0.17608
748,-0.047219,-0.14719,0.024145,0.070187,0.037958,0.065254,0.17937
749,-0.018278,0.070845,0.04618,0.087946,0.13399,0.080711,0.17838
750,0.0083598,0.24251,0.059663,0.10505,0.25402,0.10307,0.17477
751,0.031709,0.35137,0.068543,0.11985,0.37439,0.12642,0.1672
752,0.050126,0.39017,0.074462,0.13037,0.47173,0.14813,0.15175
753,0.059992,0.36452,0.079724,0.13596,0.52896,0.16161,0.12609
754,0.061965,0.28987,0.084657,0.13464,0.54211,0.16293,0.090248
755,0.058348,0.18266,0.088275,0.1307,0.51876,0.1478,0.050126
756,0.054401,0.068871,0.086959,0.12708,0.46384,0.1182,0.018884
757,0.049797,-0.028802,0.084328,0.11919,0.38754,0.082026,0.0021113
758,0.042891,-0.092603,0.087617,0.1057,0.29875,0.047824,-0.0084125
759,0.02579,-0.11299,0.10209,0.082684,0.1991,0.023159,-0.02354
760,0.0037556,-0.096549,0.12445,0.053743,0.091234,0.0080309,-0.047219
761,-0.012688,-0.056427,0.14681,0.021186,-0.016305,0.0030979,-0.070568
762,-0.020252,-0.0024928,0.16622,-0.0090702,-0.11168,0.0057288,-0.086683
763,-0.021567,0.05769,0.17806,-0.03242,-0.18041,0.01132,-0.09622
764,-0.016634,0.11656,0.18003,-0.046561,-0.21297,0.018884,-0.09622
765,-0.0077547,0.16424,0.17477,-0.045574,-0.20869,0.025461,-0.08471
766,0.0073732,0.1945,0.17148,-0.031762,-0.17613,0.027434,-0.065307
767,0.026776,0.20469,0.17838,-0.0041372,-0.12779,0.024474,-0.048205
768,0.042233,0.1968,0.19022,0.031709,-0.076159,0.019212,-0.036366
769,0.043877,0.17312,0.19253,0.065583,-0.028802,0.013951,-0.027487
770,0.030065,0.13958,0.18134,0.092221,0.010333,0.0057288,-0.016963
771,0.0037556,0.099785,0.15372,0.10439,0.043549,-0.0084125,-0.0093991
772,-0.032091,0.050455,0.11886,0.1034,0.072818,-0.024198,-0.0074258
773,-0.064978,-0.0080836,0.082026,0.095181,0.098469,-0.038997,-0.0064392
774,-0.085367,-0.068595,0.037958,0.086959,0.11853,-0.048205,-0.0031506
775,-0.092931,-0.11793,-0.022883,0.077751,0.1307,-0.049192,0.0054
776,-0.089314,-0.14654,-0.10707,0.06624,0.1376,-0.042944,0.017897
777,-0.081092,-0.14851,-0.20902,0.060321,0.13859,-0.031433,0.029078
778,-0.076159,-0.12845,-0.31327,0.062952,0.13136,-0.017292,0.0373
779,-0.080763,-0.091616,-0.40108,0.070516,0.11754,-0.0031506,0.038616
780,-0.091945,-0.048534,-0.45501,0.080382,0.099127,0.010333,0.034669
781,-0.09918,-0.0041372,-0.46784,0.089261,0.07808,0.022172,0.027105
782,-0.091287,0.04026,-0.45403,0.093208,0.054401,0.029078,0.019541
783,-0.066293,0.085972,-0.43693,0.094523,0.029736,0.032367,0.017239
784,-0.025514,0.13136,-0.43594,0.099127,0.010991,0.038944,0.02283
785,0.025132,0.18069,-0.44515,0.10932,0.0014536,0.055717,0.034011
786,0.079724,0.23922,-0.44219,0.12313,-0.0034794,0.082684,0.045522
787,0.1353,0.30664,-0.4047,0.12741,-0.01499,0.11458,0.055059
788,0.18924,0.37669,-0.32347,0.11853,-0.047548,0.14188,0.062294
789,0.23528,0.43983,-0.20836,0.099456,-0.10773,0.15536,0.067885
790,0.26586,0.48324,-0.081421,0.075449,-0.1814,0.15668,0.072489
791,0.27474,0.50002,0.029736,0.049468,-0.24092,0.14681,0.075778
792,0.25797,0.48982,0.10932,0.026776,-0.25177,0.12675,0.07512
793,0.22048,0.45661,0.15471,0.011648,-0.18995,0.10176,0.067556
794,0.17444,0.4132,0.17806,0.0054,-0.056427,0.07512,0.056046
795,0.13464,0.36979,0.18825,0.0080309,0.10866,0.058019,0.047824
796,0.10505,0.33131,0.18858,0.013951,0.25139,0.04618,0.048153
797,0.086301,0.29941,0.18102,0.024803,0.33591,0.036642,0.059663
798,0.081368,0.27145,0.16786,0.037629,0.35433,0.028421,0.074791
799,0.09255,0.2481,0.15503,0.054401,0.31782,0.024145,0.086959
800,0.11393,0.22739,0.14352,0.074133,0.25435,0.020528,0.094523
801,0.13728,0.20732,0.13464,0.09255,0.18989,0.016253,0.097812
802,0.15865,0.18693,0.12905,0.10242,0.14024,0.012306,0.1011
803,0.17049,0.16589,0.12905,0.097483,0.11162,0.01132,0.10373
804,0.17575,0.14517,0.13234,0.080053,0.098798,0.011977,0.099456
805,0.1797,0.12741,0.13432,0.057361,0.090905,0.013622,0.091563
806,0.18365,0.1113,0.13004,0.038616,0.07808,0.015266,0.084328
807,0.18529,0.09551,0.11919,0.024145,0.053086,0.019212,0.076435
808,0.17608,0.083013,0.10801,0.010991,0.019212,0.027434,0.065583
809,0.15438,0.074133,0.1034,-0.0041372,-0.017292,0.035985,0.05177
810,0.12577,0.071502,0.11097,-0.016305,-0.04393,0.041575,0.037629
811,0.09551,0.076435,0.12577,-0.019923,-0.054454,0.040918,0.025461
812,0.067885,0.086959,0.13596,-0.016634,-0.051494,0.035327,0.019212
813,0.04618,0.095839,0.13136,-0.0067681,-0.042286,0.029736,0.016253
814,0.029407,0.090905,0.11195,0.0014536,-0.027158,0.027434,0.011648
815,0.017568,0.071502,0.082355,0.0037556,-0.01203,0.028092,0.0017824
816,0.0080309,0.046837,0.054401,-0.00019077,-0.0024928,0.030394,-0.0093991
817,-0.0047949,0.019541,0.034669,-0.0087413,-0.00019077,0.031709,-0.01499
818,-0.020909,-0.0093991,0.026447,-0.018278,-0.0031506,0.031052,-0.014003
819,-0.041957,-0.037353,0.027105,-0.020909,-0.0097279,0.02579,-0.010386
820,-0.060373,-0.059058,0.030065,-0.018607,-0.016963,0.015266,-0.010057
821,-0.073528,-0.072542,0.029078,-0.013017,-0.024527,0.0037556,-0.012688
822,-0.083065,-0.082079,0.022501,-0.00019077,-0.034064,-0.0057815,-0.019265
823,-0.090629,-0.091616,0.012635,0.014937,-0.045574,-0.0093991,-0.024527
824,-0.092603,-0.1028,0.0017824,0.02579,-0.057414,-0.0051238,-0.028802
825,-0.085039,-0.11562,-0.0047949,0.026119,-0.064978,0.0017824,-0.030775
826,-0.068924,-0.12878,-0.0041372,0.016253,-0.066951,0.010333,-0.030118
827,-0.04985,-0.1416,0.0077021,0.0014536,-0.066951,0.0096753,-0.028473
828,-0.038011,-0.1495,0.029736,-0.013017,-0.065635,0.0050711,-0.029131
829,-0.036695,-0.14522,0.057361,-0.021896,-0.06728,-0.00019077,-0.030775
830,-0.043272,-0.11727,0.084657,-0.028473,-0.071884,-0.0077547,-0.033078
831,-0.050836,-0.047548,0.1034,-0.031104,-0.08175,-0.018278,-0.037353
832,-0.05281,0.060979,0.11097,-0.030118,-0.092274,-0.032091,-0.039655
833,-0.045246,0.18957,0.1136,-0.027816,-0.10017,-0.044259,-0.039326
834,-0.027487,0.31092,0.11689,-0.024527,-0.096549,-0.050836,-0.040313
835,0.00046697,0.4053,0.12346,-0.021896,-0.071884,-0.054125,-0.04097
836,0.035327,0.45365,0.13366,-0.021238,-0.012688,-0.053796,-0.038668
837,0.07216,0.45233,0.14813,-0.019265,0.087946,-0.048534,-0.032091
838,0.10735,0.40892,0.16852,-0.0080836,0.23232,-0.036695,-0.024198
839,0.12938,0.33887,0.19351,0.013622,0.40169,-0.020909,-0.016634
840,0.12807,0.25337,0.22114,0.04026,0.55954,-0.0077547,-0.0080836
841,0.10176,0.15602,0.24876,0.062294,0.6605,0.00079584,-0.00019077
842,0.05473,0.055059,0.26553,0.071831,0.66807,0.0070443,0.0060577
843,-0.0064392,-0.041299,0.26685,0.069529,0.58026,0.013951,0.010004
844,-0.064978,-0.12056,0.25205,0.068871,0.43983,0.025132,0.013951
845,-0.10773,-0.17942,0.22739,0.078409,0.29776,0.042233,0.020528
846,-0.13272,-0.2202,0.19614,0.10077,0.18661,0.063938,0.032696
847,-0.14095,-0.24092,0.16293,0.12807,0.11919,0.082355,0.051441
848,-0.14127,-0.24158,0.13037,0.15438,0.087946,0.092879,0.073147
849,-0.13601,-0.22086,0.10011,0.1672,0.056703,0.097154,0.088275
850,-0.1268,-0.18271,0.070516,0.15668,-0.0067681,0.096496,0.097483
851,-0.11858,-0.13799,0.041575,0.12807,-0.10477,0.088275,0.098469
852,-0.11727,-0.10214,0.0086887,0.090905,-0.21856,0.069858,0.094523
853,-0.12089,-0.089314,-0.02354,0.053086,-0.32215,0.043549,0.088275
854,-0.11529,-0.11036,-0.049521,0.018555,-0.39713,0.018555,0.079066
855,-0.084381,-0.16726,-0.063333,-0.0093991,-0.42969,0.0030979,0.070187
856,-0.02946,-0.25243,-0.063991,-0.027487,-0.42476,-0.0011774,0.064267
857,0.032367,-0.34813,-0.056098,-0.038997,-0.3945,0.0030979,0.067556
858,0.087946,-0.42311,-0.041957,-0.041299,-0.34682,0.010991,0.079066
859,0.12971,-0.44679,-0.033735,-0.034722,-0.28894,0.015924,0.092221
860,0.15109,-0.40864,-0.042615,-0.022225,-0.22481,0.013293,0.096496
861,0.14912,-0.32117,-0.073528,-0.0067681,-0.15509,0.0011247,0.087617
862,0.12708,-0.21659,-0.11661,0.0070443,-0.087669,-0.018607,0.072489
863,0.088603,-0.12319,-0.16002,0.013293,-0.026829,-0.037353,0.059992
864,0.039602,-0.057414,-0.18962,0.015595,0.02579,-0.046232,0.051113
865,-0.0084125,-0.015976,-0.19685,0.021843,0.073147,-0.037353,0.045193
866,-0.048534,0.012306,-0.1814,0.031052,0.11754,-0.013345,0.04026
867,-0.075501,0.038287,-0.14555,0.038616,0.16063,0.013622,0.041247
868,-0.091616,0.055388,-0.09622,0.042562,0.19285,0.034011,0.053743
869,-0.10082,0.048482,-0.038997,0.041904,0.21061,0.045851,0.077093
870,-0.10148,0.0047422,0.017239,0.032038,0.21061,0.051441,0.10044
871,-0.09918,-0.073199,0.059663,0.012964,0.1945,0.053415,0.11656
872,-0.097864,-0.17318,0.082355,-0.016634,0.16293,0.04881,0.12017
873,-0.097207,-0.28236,0.083013,-0.050836,0.12116,0.037629,0.11294
874,-0.088656,-0.3876,0.062294,-0.079448,0.074791,0.01987,0.10044
875,-0.065635,-0.47935,0.035656,-0.092274,0.030394,-0.0028217,0.084657
876,-0.03538,-0.55104,0.013293,-0.086025,-0.0051238,-0.023211,0.071502
877,-0.0080836,-0.59577,0.0044134,-0.059716,-0.028802,-0.037353,0.067227
878,0.010004,-0.60958,0.014608,-0.016305,-0.03242,-0.042286,0.068543
879,0.01691,-0.58196,0.035985,0.034998,-0.011043,-0.035708,0.073476
880,0.0060577,-0.50467,0.051441,0.080053,0.03434,-0.017621,0.077422
881,-0.025842,-0.38628,0.047824,0.10801,0.096825,0.011977,0.082355
882,-0.075501,-0.24454,0.017897,0.12511,0.16128,0.049139,0.087288
883,-0.13042,-0.10214,-0.036037,0.13859,0.20305,0.08959,0.093865
884,-0.17087,0.026119,-0.10411,0.15306,0.20897,0.11952,0.10307
885,-0.18633,0.13136,-0.16989,0.16786,0.18069,0.13136,0.1113
886,-0.17811,0.21588,-0.21856,0.1751,0.12511,0.12774,0.11195
887,-0.15213,0.28264,-0.23862,0.17115,0.049468,0.11557,0.10143
888,-0.11891,0.33427,-0.22382,0.15372,-0.040313,0.098798,0.086301
889,-0.087341,0.3734,-0.17844,0.12182,-0.13667,0.075449,0.070187
890,-0.058729,0.39807,-0.11661,0.079724,-0.23073,0.045851,0.052428
891,-0.033735,0.3984,-0.060045,0.036642,-0.31459,0.012306,0.035656
892,-0.015976,0.36452,-0.02354,0.00079584,-0.37411,-0.020252,0.023817
893,-0.011043,0.30072,-0.0074258,-0.028802,-0.4047,-0.050179,0.018226
894,-0.011043,0.21851,-0.0084125,-0.050836,-0.407,-0.075501,0.015924
895,-0.0034794,0.13925,-0.016305,-0.063991,-0.39056,-0.096549,0.015924
896,0.017897,0.080382,-0.023211,-0.066293,-0.36819,-0.10937,0.016581
897,0.05177,0.049797,-0.024856,-0.063004,-0.34616,-0.11497,0.017897
898,0.09551,0.044535,-0.0097279,-0.053796,-0.3238,-0.11529,0.014608
899,0.14944,0.060979,0.045193,-0.037024,-0.2988,-0.11135,0.0080309
900,0.21028,0.093208,0.16161,-0.018278,-0.26263,-0.10082,-0.0008485
901,0.26948,0.13037,0.3415,-0.0038083,-0.21165,-0.086683,-0.0077547
902,0.31223,0.16063,0.5602,0.0044134,-0.15114,-0.073857,-0.013017
903,0.32802,0.17937,0.771,0.010662,-0.087012,-0.06728,-0.016305
904,0.32045,0.18792,0.90321,0.016581,-0.020252,-0.066622,-0.018278
905,0.29809,0.19121,0.89992,0.022501,0.056703,-0.068266,-0.016963
906,0.26981,0.19746,0.74765,0.024803,0.14155,-0.063333,-0.014661
907,0.24284,0.21456,0.47963,0.026447,0.2287,-0.048534,-0.016963
908,0.22706,0.24909,0.17312,0.030723,0.32309,-0.027816,-0.023211
909,0.22475,0.30204,-0.085367,0.036642,0.42668,-0.0051238,-0.035051
910,0.22574,0.36452,-0.2475,0.041247,0.52731,0.013951,-0.045574
911,0.21653,0.42536,-0.32281,0.043877,0.60986,0.02875,-0.04985
912,0.19746,0.47108,-0.34649,0.043877,0.65886,0.041904,-0.044917
913,0.17477,0.48949,-0.35274,0.035656,0.66774,0.056374,-0.03538
914,0.15405,0.47897,-0.35142,0.01987,0.63946,0.072818,-0.028473
915,0.13695,0.44181,-0.32084,0.0001381,0.58322,0.084986,-0.025842
916,0.12116,0.39544,-0.23303,-0.013345,0.50363,0.088932,-0.025185
917,0.10274,0.35236,-0.080106,-0.01203,0.40004,0.090248,-0.018936
918,0.086301,0.3175,0.10373,0.010991,0.27639,0.088275,-0.010715
919,0.071831,0.29349,0.26126,0.053415,0.14418,0.084986,-0.00051963
920,0.063938,0.2777,0.34545,0.10143,0.026776,0.081039,0.0067154
921,0.059663,0.26718,0.33591,0.13432,-0.054125,0.079724,0.0077021
922,0.056703,0.25731,0.25074,0.13432,-0.088656,0.080711,0.0017824
923,0.049139,0.24547,0.12544,0.10373,-0.079777,0.082355,-0.0061104
924,0.035656,0.23199,-0.0031506,0.058019,-0.038668,0.083342,-0.010057
925,0.021186,0.21982,-0.11266,0.012306,0.018555,0.082026,-0.0093991
926,0.013951,0.20634,-0.19718,-0.013674,0.077093,0.081039,-0.0031506
927,0.012635,0.19121,-0.25473,-0.010057,0.12412,0.088932,0.0057288
928,0.014608,0.17378,-0.28894,0.024474,0.1524,0.10899,0.016253
929,0.012635,0.15536,-0.30801,0.074462,0.15865,0.13201,0.027105
930,0.0070443,0.13234,-0.32215,0.11656,0.14418,0.14747,0.036971
931,-0.00051963,0.10505,-0.33728,0.13563,0.11919,0.15536,0.045193
932,-0.0084125,0.078737,-0.35274,0.13037,0.094523,0.16063,0.050455
933,-0.015319,0.05769,-0.35175,0.11426,0.079066,0.16687,0.055717
934,-0.021896,0.040589,-0.32182,0.099127,0.076435,0.17246,0.066898
935,-0.027487,0.021186,-0.25868,0.091234,0.086301,0.17674,0.080711
936,-0.030775,0.00046697,-0.17416,0.09255,0.099785,0.17674,0.091892
937,-0.02946,-0.022225,-0.092603,0.10538,0.10801,0.17082,0.099785
938,-0.025185,-0.042944,-0.026171,0.12741,0.10538,0.16128,0.098798
939,-0.018607,-0.054783,0.026447,0.14846,0.093865,0.14846,0.087288
940,-0.0084125,-0.054454,0.077422,0.15997,0.081039,0.13201,0.062623
941,0.0037556,-0.047219,0.13629,0.15832,0.073476,0.1113,0.030065
942,0.019212,-0.037024,0.20667,0.14681,0.067227,0.084328,-0.0034794
943,0.04026,-0.019923,0.27968,0.13004,0.055717,0.054401,-0.028144
944,0.063281,0.015266,0.33394,0.11195,0.032696,0.021186,-0.039655
945,0.080711,0.074462,0.34841,0.09255,-0.0031506,-0.011372,-0.038668
946,0.092879,0.15372,0.31289,0.072818,-0.050179,-0.035708,-0.031104
947,0.10143,0.2412,0.23067,0.055717,-0.10115,-0.048205,-0.023869
948,0.11031,0.33558,0.12511,0.042233,-0.14818,-0.047877,-0.017292
949,0.12116,0.44214,0.021514,0.033683,-0.18238,-0.03538,-0.015319
950,0.13432,0.55033,-0.055769,0.029736,-0.20343,-0.015319,-0.011701
951,0.14484,0.64044,-0.092603,0.029407,-0.21691,0.0086887,-0.00019077
952,0.14879,0.68747,-0.095891,0.031381,-0.22612,0.030723,0.016253
953,0.1478,0.673,-0.077475,0.033683,-0.23402,0.043549,0.030394
954,0.13793,0.58717,-0.04985,0.035985,-0.24322,0.042891,0.0373
955,0.11623,0.44148,-0.025842,0.037629,-0.26131,0.029736,0.035327
956,0.084328,0.2583,-0.010386,0.035327,-0.28598,0.010004,0.032696
957,0.047166,0.058019,-0.0031506,0.031052,-0.30571,-0.0084125,0.035656
958,0.0080309,-0.14029,-0.0041372,0.029736,-0.30998,-0.021567,0.047495
959,-0.03242,-0.32906,-0.0077547,0.031381,-0.29321,-0.02354,0.059992
960,-0.07287,-0.50698,-0.011372,0.03434,-0.25737,-0.014332,0.060321
961,-0.11168,-0.67404,-0.010057,0.035656,-0.21034,-0.0031506,0.042233
962,-0.1518,-0.82499,-0.0077547,0.033683,-0.16627,0.0030979,0.010991
963,-0.19126,-0.95654,-0.002164,0.027763,-0.13437,0.0017824,-0.01795
964,-0.22875,-1.0641,0.0034268,0.017568,-0.11858,-0.0074258,-0.034064
965,-0.25835,-1.145,0.0047422,0.0060577,-0.11694,-0.021567,-0.035051
966,-0.27775,-1.1835,-0.0024928,-0.0054526,-0.12319,-0.040313,-0.028144
967,-0.28302,-1.1687,-0.020909,-0.014661,-0.12746,-0.056098,-0.020581
968,-0.27381,-1.1009,-0.04689,-0.019923,-0.12549,-0.067937,-0.018278
969,-0.25408,-0.98975,-0.070568,-0.018278,-0.11891,-0.070897,-0.01795
970,-0.22875,-0.84801,-0.077475,-0.01203,-0.11431,-0.06728,-0.017292
971,-0.19916,-0.68489,-0.063662,-0.0054526,-0.11464,-0.058729,-0.013017
972,-0.16528,-0.51388,-0.028802,-0.0011774,-0.1176,-0.047219,-0.0061104
973,-0.13108,-0.35109,0.013622,0.0067154,-0.12056,-0.032091,-0.0031506
974,-0.097536,-0.2133,0.045851,0.020857,-0.1222,-0.016963,-0.0064392
975,-0.068266,-0.10707,0.043877,0.036971,-0.11694,-0.0038083,-0.016634
976,-0.046561,-0.031762,-0.0077547,0.041247,-0.11201,0.0040845,-0.032749
977,-0.031104,0.021514,-0.096878,0.024145,-0.12056,0.0014536,-0.051823
978,-0.019923,0.071502,-0.18929,-0.013017,-0.15443,-0.016634,-0.069582
979,-0.0077547,0.14122,-0.2498,-0.059058,-0.20573,-0.044259,-0.08471
980,0.010004,0.24547,-0.25835,-0.10017,-0.25276,-0.073857,-0.092931
981,0.033683,0.38031,-0.22086,-0.12976,-0.27348,-0.091945,-0.090958
982,0.059663,0.52698,-0.15377,-0.14456,-0.25901,-0.086683,-0.07583
983,0.081697,0.66313,-0.076817,-0.14917,-0.20771,-0.056098,-0.049521
984,0.098141,0.77396,-0.0057815,-0.14456,-0.1324,-0.0051238,-0.015648
985,0.11458,0.84763,0.04618,-0.12812,-0.050836,0.051113,0.021186
986,0.13399,0.87953,0.079066,-0.098193,0.021514,0.097483,0.058348
987,0.15372,0.88348,0.099127,-0.063662,0.070187,0.12281,0.097154
988,0.16852,0.88183,0.11327,-0.031433,0.095181,0.12774,0.1353
989,0.17214,0.88611,0.12248,-0.0057815,0.10274,0.12017,0.16359
990,0.16753,0.89301,0.12346,0.013951,0.10472,0.10801,0.17937
991,0.15668,0.89038,0.1182,0.033354,0.10998,0.095839,0.18496
992,0.13793,0.86046,0.11261,0.057361,0.12445,0.08663,0.18167
993,0.11228,0.78087,0.11031,0.082026,0.14813,0.083013,0.17279
994,0.088932,0.62597,0.1159,0.10373,0.17542,0.085315,0.15767
995,0.068871,0.37505,0.13728,0.11689,0.19351,0.087946,0.13793
996,0.052099,0.023488,0.17773,0.1182,0.19187,0.080711,0.11656
997,0.029078,-0.40536,0.23265,0.10735,0.16523,0.058348,0.097154
998,-0.007097,-0.86215,0.28395,0.084328,0.11919,0.030394,0.079724
999,-0.052152,-1.2834,0.31223,0.052428,0.063938,0.0070443,0.058348
1000,-0.09918,-1.6153,0.31158,0.018884,0.013293,-0.0064392,0.032038
1001,-0.1393,-1.8254,0.28691,-0.0093991,-0.015648,-0.011701,0.0077021
1002,-0.16693,-1.9089,0.24547,-0.032749,-0.004466,-0.010715,-0.011372
1003,-0.17186,-1.879,0.19746,-0.048205,0.060321,-0.007097,-0.023211
1004,-0.15311,-1.7675,0.15142,-0.057085,0.1774,-0.0011774,-0.030118
1005,-0.12187,-1.6011,0.11491,-0.063662,0.33098,0.0034268,-0.035051
1006,-0.087341,-1.39,0.094852,-0.069253,0.4862,0.0037556,-0.040313
1007,-0.0584,-1.1322,0.091234,-0.069582,0.59769,0.00079584,-0.048863
1008,-0.032749,-0.82532,0.1011,-0.062347,0.6388,-0.004466,-0.059716
1009,-0.0090702,-0.48067,0.11886,-0.04689,0.60624,-0.0061104,-0.068924
1010,0.015266,-0.1222,0.14089,-0.032749,0.52008,0.0014536,-0.070897
1011,0.039931,0.22048,0.15734,-0.024198,0.41155,0.021186,-0.06728
1012,0.064596,0.51317,0.16391,-0.022883,0.31026,0.049797,-0.056756
1013,0.084328,0.73088,0.16063,-0.016634,0.23331,0.07808,-0.04097
1014,0.096496,0.85223,0.15043,0.0044134,0.18825,0.10472,-0.026171
1015,0.10307,0.87624,0.1307,0.038287,0.16983,0.12544,-0.015319
1016,0.10406,0.81902,0.099785,0.074133,0.16687,0.13728,-0.0090702
1017,0.098798,0.7151,0.059334,0.097483,0.16424,0.13892,-0.0018351
1018,0.093208,0.59736,0.013293,0.10274,0.1524,0.133,0.010333
1019,0.09255,0.49114,-0.03242,0.093865,0.13103,0.12741,0.026119
1020,0.097154,0.40464,-0.070897,0.07808,0.10538,0.12281,0.041247
1021,0.098798,0.33295,-0.10576,0.059663,0.083999,0.11623,0.053743
1022,0.092221,0.26718,-0.13996,0.043877,0.072818,0.10636,0.062294
1023,0.076764,0.20305,-0.17844,0.041247,0.069858,0.088603,0.065912
1024,0.059334,0.14056,-0.22053,0.055388,0.0692,0.067227,0.066569
1025,0.04322,0.088603,-0.2646,0.082684,0.065583,0.046837,0.067227
1026,0.030065,0.059334,-0.30933,0.11491,0.058348,0.030723,0.063938
1027,0.025132,0.055059,-0.35339,0.14089,0.044535,0.01691,0.059334
1028,0.031381,0.06624,-0.39023,0.1478,0.021843,0.0057288,0.052757
1029,0.048482,0.08367,-0.41292,0.1307,-0.011701,-0.0061104,0.04322
1030,0.0692,0.10669,-0.40963,0.095181,-0.055112,-0.020581,0.032696
1031,0.089919,0.13169,-0.37543,0.057361,-0.1051,-0.038997,0.02579
1032,0.10998,0.15799,-0.31163,0.033025,-0.15311,-0.058729,0.026776
1033,0.13004,0.182,-0.22612,0.02579,-0.19258,-0.074515,0.036314
1034,0.15175,0.20601,-0.13108,0.032696,-0.21724,-0.084052,0.048482
1035,0.1751,0.23429,-0.039984,0.041247,-0.22119,-0.08471,0.058348
1036,0.19779,0.26685,0.035656,0.038616,-0.20573,-0.079448,0.065254
1037,0.21588,0.29875,0.090905,0.023488,-0.17219,-0.07287,0.076435
1038,0.22739,0.32966,0.12807,0.0017824,-0.12417,-0.069253,0.091234
1039,0.23331,0.36058,0.14846,-0.017621,-0.070897,-0.070897,0.1057
1040,0.23561,0.39281,0.15734,-0.025842,-0.024198,-0.075501,0.11754
1041,0.23626,0.42339,0.16194,-0.018278,0.013622,-0.073528,0.12544
1042,0.23265,0.44904,0.1672,0.002769,0.040918,-0.060702,0.12905
1043,0.22377,0.46417,0.17016,0.027434,0.062294,-0.037024,0.1284
1044,0.20634,0.46713,0.16918,0.052099,0.084328,-0.0057815,0.12412
1045,0.18134,0.45891,0.16391,0.073476,0.11557,0.030065,0.1182
1046,0.15175,0.44345,0.15602,0.085972,0.15701,0.071502,0.11162
1047,0.12511,0.42372,0.1501,0.091234,0.19746,0.11754,0.10077
1048,0.10274,0.40826,0.1455,0.092221,0.21851,0.16063,0.088603
1049,0.085972,0.39708,0.1432,0.093536,0.20765,0.19154,0.080711
1050,0.072489,0.3859,0.14648,0.091234,0.16128,0.20075,0.077093
1051,0.061307,0.37406,0.15668,0.084986,0.088275,0.18957,0.074791
1052,0.052428,0.35926,0.16819,0.07512,0.012306,0.16589,0.068543
1053,0.045851,0.34019,0.17312,0.062623,-0.050179,0.14089,0.063938
1054,0.039931,0.31848,0.16918,0.052099,-0.1028,0.12149,0.061965
1055,0.035327,0.29678,0.15799,0.049797,-0.16101,0.11064,0.06624
1056,0.033354,0.27968,0.14616,0.062623,-0.23599,0.10636,0.079395
1057,0.033354,0.26981,0.13728,0.082355,-0.32544,0.10702,0.096825
1058,0.034011,0.26652,0.12971,0.099127,-0.40536,0.10735,0.11261
1059,0.031709,0.26817,0.12412,0.10274,-0.44548,0.11097,0.12182
1060,0.028421,0.27178,0.12149,0.09255,-0.4218,0.11656,0.11886
1061,0.026776,0.27211,0.12412,0.075449,-0.31788,0.12346,0.10702
1062,0.024803,0.26586,0.13333,0.061307,-0.14062,0.13169,0.09551
1063,0.024145,0.25304,0.14221,0.059005,0.077422,0.13793,0.088603
1064,0.027105,0.23857,0.14681,0.068214,0.28559,0.13662,0.088275
1065,0.036314,0.2241,0.14681,0.088275,0.43753,0.12938,0.093865
1066,0.046837,0.21982,0.14714,0.11393,0.51449,0.11886,0.099456
1067,0.056046,0.25402,0.14352,0.13958,0.52929,0.1057,0.097812
1068,0.059992,0.34084,0.1376,0.15767,0.52534,0.090248,0.087288
1069,0.056374,0.46483,0.13037,0.16326,0.5454,0.073804,0.068871
1070,0.04618,0.58914,0.12445,0.1524,0.59868,0.055059,0.046837
1071,0.032038,0.67366,0.11689,0.12971,0.65985,0.033025,0.02579
1072,0.013622,0.69405,0.10932,0.10011,0.68517,0.0080309,0.0080309
1073,-0.0077547,0.64176,0.10307,0.070516,0.63617,-0.015648,-0.0051238
1074,-0.030118,0.52929,0.09551,0.048153,0.50791,-0.030118,-0.014332
1075,-0.048205,0.37932,0.087617,0.034011,0.32703,-0.037353,-0.017292
1076,-0.062347,0.21489,0.081697,0.020528,0.13728,-0.038668,-0.015319
1077,-0.075501,0.057032,0.078737,0.0050711,-0.025514,-0.037682,-0.013345
1078,-0.087669,-0.081092,0.075449,-0.01203,-0.13897,-0.039984,-0.014332
1079,-0.099838,-0.20212,0.070516,-0.025842,-0.21067,-0.051494,-0.022225
1080,-0.11102,-0.31294,0.061965,-0.035051,-0.25441,-0.069911,-0.038997
1081,-0.12187,-0.41719,0.049139,-0.039326,-0.284,-0.097207,-0.053796
1082,-0.12976,-0.51355,0.032038,-0.041299,-0.30472,-0.12845,-0.061031
1083,-0.13338,-0.5984,0.016253,-0.044917,-0.31919,-0.15673,-0.062018
1084,-0.13667,-0.66549,0.0040845,-0.047877,-0.32413,-0.17252,-0.059716
1085,-0.13963,-0.70528,-0.0031506,-0.041957,-0.31196,-0.16627,-0.053138
1086,-0.15048,-0.7135,-0.0054526,-0.028802,-0.27775,-0.137,-0.045574
1087,-0.17416,-0.69246,-0.0067681,-0.0093991,-0.22185,-0.098851,-0.041299
1088,-0.21165,-0.64938,-0.0074258,0.012635,-0.14423,-0.068924,-0.043601
1089,-0.2498,-0.59018,-0.0084125,0.038287,-0.051494,-0.053467,-0.050507
1090,-0.2748,-0.51849,-0.010386,0.064267,0.041904,-0.051494,-0.054783
1091,-0.27841,-0.43528,-0.013674,0.088275,0.11491,-0.054783,-0.051165
1092,-0.26098,-0.34188,-0.016634,0.10472,0.1478,-0.053796,-0.037353
1093,-0.22744,-0.24059,-0.020252,0.10998,0.13136,-0.046232,-0.016963
1094,-0.18896,-0.13437,-0.025185,0.10176,0.076764,-0.032749,0.0047422
1095,-0.15213,-0.029789,-0.033406,0.080053,0.0014536,-0.019923,0.021843
1096,-0.11957,0.065583,-0.041299,0.050455,-0.079777,-0.0090702,0.033354
1097,-0.093918,0.15207,-0.044917,0.02579,-0.15147,-0.0018351,0.037958
1098,-0.07024,0.22147,-0.040313,0.016253,-0.20212,0.0021113,0.038944
1099,-0.046561,0.25896,-0.02946,0.021186,-0.2304,0.0070443,0.038287
1100,-0.018936,0.24909,-0.015976,0.036314,-0.23829,0.014279,0.036642
1101,0.014279,0.18299,-0.0011774,0.055388,-0.22744,0.022172,0.035656
1102,0.046508,0.065254,0.010333,0.072818,-0.20113,0.031381,0.038287
1103,0.073476,-0.07583,0.010662,0.085644,-0.1712,0.038287,0.043877
1104,0.093865,-0.20869,0.0001381,0.086959,-0.14785,0.039602,0.048482
1105,0.11097,-0.30637,-0.01499,0.073147,-0.13437,0.034998,0.051113
1106,0.12708,-0.35504,-0.026171,0.046837,-0.13009,0.029078,0.053415
1107,0.14254,-0.35537,-0.028802,0.016581,-0.13272,0.025132,0.056046
1108,0.15273,-0.32544,-0.02354,-0.010057,-0.13963,0.025461,0.048482
1109,0.15405,-0.28696,-0.013345,-0.026829,-0.14884,0.030723,0.030394
1110,0.1432,-0.25408,-0.00051963,-0.030118,-0.15706,0.039602,0.0090175
1111,0.12445,-0.22777,0.0063866,-0.022883,-0.16199,0.046508,-0.010057
1112,0.097812,-0.20508,0.0060577,-0.012688,-0.16528,0.04618,-0.024198
1113,0.065583,-0.17844,0.0001381,-0.0051238,-0.1689,0.035985,-0.034722
1114,0.034011,-0.14621,-0.0061104,-0.0031506,-0.16956,0.01987,-0.042286
1115,0.0093464,-0.1097,-0.0087413,-0.0087413,-0.17022,0.0034268,-0.045246
1116,-0.0077547,-0.072213,-0.0064392,-0.020909,-0.17186,-0.011372,-0.040313
1117,-0.018278,-0.035051,-0.00051963,-0.036695,-0.17186,-0.023869,-0.024856
1118,-0.024527,-0.0067681,0.0057288,-0.050836,-0.15969,-0.031762,-0.0047949
1119,-0.028802,0.011648,0.0057288,-0.059058,-0.12845,-0.031762,0.013293
1120,-0.028802,0.018226,0.00046697,-0.053796,-0.082736,-0.024527,0.026119
1121,-0.021896,0.017897,-0.0057815,-0.037353,-0.036037,-0.0097279,0.029078
1122,-0.0061104,0.019212,-0.0077547,-0.013345,0.0077021,0.012964,0.026447
1123,0.012306,0.027105,-0.0041372,0.017568,0.041575,0.030065,0.022501
1124,0.024803,0.041247,0.0001381,0.053415,0.068871,0.035327,0.01987
1125,0.030065,0.057361,0.0030979,0.086301,0.090577,0.02875,0.019212
1126,0.030394,0.063938,0.0030979,0.10998,0.11031,0.018555,0.018884
1127,0.029407,0.058348,-0.00051963,0.12182,0.13103,0.010991,0.01987
1128,0.031381,0.043549,-0.002164,0.11886,0.15471,0.01132,0.024474
1129,0.039602,0.023159,0.00079584,0.10209,0.1695,0.021186,0.033354
1130,0.04618,0.0080309,0.0044134,0.077093,0.17016,0.035327,0.039931
1131,0.050455,0.0060577,0.00046697,0.052428,0.15931,0.04881,0.037958
1132,0.052757,0.015266,-0.01203,0.028092,0.14089,0.055717,0.024803
1133,0.052099,0.026447,-0.025842,0.0096753,0.11886,0.054072,0.010333
1134,0.050126,0.033354,-0.03538,-0.0015062,0.098141,0.046837,0.0040845
1135,0.049797,0.035656,-0.041957,-0.007097,0.081697,0.04026,0.010333
1136,0.043549,0.033683,-0.053796,-0.010386,0.0692,0.038287,0.023159
1137,0.029078,0.026447,-0.081421,-0.010715,0.056046,0.041575,0.033025
1138,0.010991,0.016581,-0.12319,-0.0077547,0.04026,0.047824,0.034669
1139,-0.0047949,0.0050711,-0.16627,-0.0061104,0.021186,0.055059,0.03434
1140,-0.014332,-0.0041372,-0.19685,-0.01203,-0.00051963,0.060979,0.037958
1141,-0.015976,-0.0084125,-0.20738,-0.025842,-0.018278,0.063281,0.044535
1142,-0.0097279,-0.007097,-0.19751,-0.038997,-0.020581,0.062294,0.052757
1143,0.0017824,-0.0028217,-0.17186,-0.045574,0.014608,0.061965,0.059334
1144,0.015924,0.0063866,-0.137,-0.04393,0.08959,0.061307,0.061965
1145,0.029078,0.026447,-0.10115,-0.040313,0.18365,0.056374,0.058676
1146,0.036314,0.065254,-0.072213,-0.045246,0.25435,0.044535,0.049797
1147,0.034998,0.12379,-0.0584,-0.059058,0.26192,0.02875,0.033683
1148,0.031709,0.19549,-0.0584,-0.075173,0.19647,0.010662,0.017897
1149,0.032367,0.27244,-0.06136,-0.087341,0.07512,-0.0054526,0.0096753
1150,0.037629,0.34775,-0.063333,-0.092931,-0.066951,-0.019923,0.0086887
1151,0.045522,0.40991,-0.06432,-0.091945,-0.1906,-0.033078,0.013622
1152,0.051113,0.45661,-0.06136,-0.08471,-0.26361,-0.045903,0.01987
1153,0.05473,0.47996,-0.048863,-0.076159,-0.27512,-0.057085,0.024145
1154,0.056046,0.47436,-0.028802,-0.070897,-0.22908,-0.067609,0.026447
1155,0.06065,0.4349,-0.002164,-0.064978,-0.14226,-0.07583,0.026447
1156,0.071831,0.3563,0.026447,-0.046561,-0.034722,-0.079777,0.025461
1157,0.08663,0.2435,0.059005,-0.0093991,0.087946,-0.07287,0.027763
1158,0.094852,0.1159,0.095839,0.049139,0.2139,-0.049192,0.03434
1159,0.089261,-0.0024928,0.13333,0.11656,0.32605,-0.0028217,0.044206
1160,0.07808,-0.087669,0.16753,0.1797,0.40037,0.058676,0.053086
1161,0.081697,-0.12615,0.19253,0.22508,0.41977,0.12083,0.059334
1162,0.1113,-0.12713,0.20864,0.24909,0.38261,0.16753,0.06065
1163,0.16194,-0.12187,0.22311,0.256,0.30631,0.19417,0.057361
1164,0.21292,-0.14259,0.23988,0.25304,0.21653,0.20404,0.050455
1165,0.24218,-0.20179,0.25468,0.24218,0.13366,0.20206,0.042891
1166,0.23594,-0.29387,0.25698,0.22048,0.063281,0.19055,0.03434
1167,0.19877,-0.40075,0.24218,0.18891,0.0080309,0.16885,0.021186
1168,0.14517,-0.49448,0.2139,0.15175,-0.035051,0.13497,0.0054
1169,0.087946,-0.55729,0.18792,0.11623,-0.068266,0.095181,-0.011701
1170,0.031381,-0.5836,0.17411,0.088275,-0.086683,0.05769,-0.026171
1171,-0.022883,-0.57998,0.17148,0.068871,-0.083065,0.031052,-0.036037
1172,-0.071226,-0.56124,0.17214,0.057032,-0.062347,0.020199,-0.040313
1173,-0.11102,-0.5369,0.1695,0.052099,-0.033735,0.018884,-0.038668
1174,-0.13634,-0.50763,0.1626,0.052428,-0.010386,0.021843,-0.03538
1175,-0.14884,-0.46488,0.15339,0.05473,-0.0031506,0.021843,-0.032091
1176,-0.15673,-0.40536,0.14122,0.056374,-0.01203,0.014279,-0.029789
1177,-0.16495,-0.3261,0.1284,0.054072,-0.031433,0.0001381,-0.024527
1178,-0.17087,-0.2304,0.11393,0.04322,-0.048863,-0.012359,-0.016634
1179,-0.17087,-0.12713,0.094194,0.026447,-0.049521,-0.020581,-0.0061104
1180,-0.17054,-0.028144,0.067885,0.0080309,-0.017621,-0.024198,0.0080309
1181,-0.17383,0.056374,0.036314,-0.0090702,0.052099,-0.025842,0.023488
1182,-0.17745,0.12708,0.0054,-0.022554,0.14879,-0.022883,0.036642
1183,-0.17515,0.18332,-0.020581,-0.028802,0.25665,-0.011701,0.048153
1184,-0.1643,0.22706,-0.038668,-0.026171,0.35992,0.0060577,0.057361
1185,-0.14423,0.25764,-0.04689,-0.016634,0.44214,0.029736,0.063281
1186,-0.11398,0.27968,-0.047877,-0.0024928,0.48785,0.053415,0.068214
1187,-0.078461,0.2902,-0.041299,0.017239,0.49278,0.072818,0.07216
1188,-0.038997,0.29316,-0.029789,0.037629,0.46417,0.082026,0.081368
1189,0.0054,0.29842,-0.01499,0.052757,0.41024,0.081368,0.094523
1190,0.05473,0.33394,0.00079584,0.06065,0.34052,0.074791,0.10768
1191,0.10439,0.41484,0.015924,0.06065,0.26422,0.062952,0.11524
1192,0.14616,0.54112,0.027434,0.053415,0.19417,0.048482,0.11195
1193,0.17148,0.68352,0.031709,0.039931,0.13464,0.031709,0.098469
1194,0.17838,0.80882,0.027434,0.026776,0.087288,0.017568,0.077422
1195,0.17246,0.89104,0.013622,0.013622,0.050784,0.0093464,0.062623
1196,0.15865,0.9157,-0.0038083,0.002769,0.020857,0.0086887,0.064267
1197,0.14616,0.8746,-0.022225,-0.0047949,-0.0024928,0.01132,0.078409
1198,0.14188,0.76574,-0.038011,-0.0077547,-0.018936,0.010004,0.094194
1199,0.14616,0.59901,-0.04393,-0.014661,-0.030447,0.00079584,0.10209
1200,0.15503,0.38985,-0.038668,-0.027158,-0.034722,-0.013017,0.095181
1201,0.16687,0.16095,-0.022883,-0.043272,-0.032749,-0.02354,0.076106
1202,0.1843,-0.064649,-0.0024928,-0.054125,-0.024527,-0.023869,0.055717
1203,0.21226,-0.26361,0.013293,-0.051494,-0.013017,-0.0097279,0.042891
1204,0.24679,-0.42246,0.022172,-0.033078,-0.0031506,0.014608,0.039931
1205,0.28198,-0.54019,0.029078,-0.0015062,0.0017824,0.039931,0.039931
1206,0.30763,-0.62603,0.035656,0.031709,-0.0047949,0.056703,0.037629
1207,0.31223,-0.68884,0.033354,0.053086,-0.021567,0.059992,0.032696
1208,0.29415,-0.73126,0.01691,0.059663,-0.041628,0.054401,0.031381
1209,0.25764,-0.74705,-0.0097279,0.054401,-0.057743,0.047166,0.032038
1210,0.21324,-0.72732,-0.037024,0.0373,-0.063333,0.043549,0.032696
1211,0.17279,-0.66516,-0.06136,0.015595,-0.060702,0.044864,0.035985
1212,0.1376,-0.56617,-0.076159,-0.002164,-0.056098,0.04881,0.041247
1213,0.1011,-0.44219,-0.083394,-0.010715,-0.055112,0.051113,0.04618
1214,0.059663,-0.3136,-0.086683,-0.0084125,-0.057743,0.054072,0.045851
1215,0.015924,-0.19324,-0.08471,0.0034268,-0.064649,0.058019,0.041904
1216,-0.022225,-0.090958,-0.076488,0.018884,-0.073528,0.063281,0.039931
1217,-0.053796,-0.0031506,-0.066951,0.033025,-0.083394,0.070187,0.039273
1218,-0.077146,0.069858,-0.060373,0.038944,-0.096878,0.073147,0.035327
1219,-0.088327,0.13432,-0.062018,0.034669,-0.12056,0.064925,0.026119
1220,-0.086354,0.18924,-0.087669,0.021843,-0.16298,0.044206,0.013293
1221,-0.079448,0.23462,-0.14884,0.0040845,-0.21856,0.018555,-0.00019077
1222,-0.070568,0.26915,-0.24585,-0.013345,-0.27512,0.0014536,-0.0093991
1223,-0.057743,0.29151,-0.35142,-0.02354,-0.31492,-0.0008485,-0.014661
1224,-0.039655,0.30039,-0.43035,-0.025514,-0.32873,0.0050711,-0.020909
1225,-0.019265,0.29579,-0.44581,-0.021896,-0.31459,0.010662,-0.028473
1226,-0.0018351,0.28757,-0.38661,-0.01499,-0.27644,0.012306,-0.032749
1227,0.0077021,0.27803,-0.26427,-0.0038083,-0.22316,0.0077021,-0.032749
1228,0.0063866,0.2731,-0.11135,0.01132,-0.16561,-0.0034794,-0.028473
1229,-0.00051963,0.27112,0.038616,0.031709,-0.10543,-0.018278,-0.021567
1230,-0.0064392,0.26652,0.15536,0.049468,-0.051494,-0.028473,-0.013345
1231,-0.0080836,0.25929,0.22245,0.058019,-0.011701,-0.03242,-0.0028217
1232,-0.0057815,0.24876,0.24153,0.054072,0.0096753,-0.028144,0.0077021
1233,0.00046697,0.23725,0.23067,0.046508,0.019212,-0.015648,0.018226
1234,0.0030979,0.22673,0.21752,0.04026,0.021514,0.0050711,0.031052
1235,-0.00019077,0.22114,0.22837,0.048153,0.021843,0.029407,0.047166
1236,-0.0084125,0.22212,0.27507,0.072489,0.028092,0.047495,0.061636
1237,-0.017621,0.22443,0.34841,0.10702,0.048482,0.058019,0.068543
1238,-0.021896,0.22475,0.41977,0.13695,0.083013,0.060321,0.067556
1239,-0.021896,0.22278,0.46713,0.15043,0.12182,0.05769,0.062952
1240,-0.026829,0.22344,0.47239,0.14616,0.15175,0.051113,0.055388
1241,-0.03538,0.23002,0.42471,0.12445,0.16063,0.041575,0.046508
1242,-0.035708,0.24482,0.32933,0.093536,0.1455,0.033354,0.039602
1243,-0.019923,0.26915,0.20404,0.061965,0.11228,0.029078,0.036642
1244,0.010333,0.29382,0.06624,0.039273,0.068871,0.025132,0.039273
1245,0.048482,0.30894,-0.073528,0.023159,0.026119,0.018226,0.047824
1246,0.086959,0.3096,-0.21001,0.012306,-0.007097,0.0067154,0.054072
1247,0.11952,0.29415,-0.33268,0.0014536,-0.031104,-0.0064392,0.054072
1248,0.13793,0.26915,-0.41752,-0.0093991,-0.047548,-0.022225,0.042891
1249,0.13958,0.25271,-0.44087,-0.020909,-0.059716,-0.038668,0.01987
1250,0.12971,0.2777,-0.39187,-0.027816,-0.07287,-0.053138,-0.0093991
1251,0.12346,0.39741,-0.28203,-0.028473,-0.092274,-0.066951,-0.039326
1252,0.12971,0.64143,-0.14193,-0.022554,-0.11201,-0.074844,-0.056756
1253,0.15536,0.97523,-0.0051238,-0.014332,-0.12746,-0.068924,-0.057085
1254,0.19318,1.3219,0.099456,-0.0087413,-0.13897,-0.050507,-0.041957
1255,0.23396,1.5991,0.1626,-0.0061104,-0.14851,-0.022225,-0.022883
1256,0.26586,1.7484,0.18825,-0.0034794,-0.1587,0.0093464,-0.0061104
1257,0.27869,1.7454,0.18759,0.0037556,-0.17416,0.0373,0.0073732
1258,0.27178,1.6014,0.17312,0.013622,-0.1962,0.058348,0.017568
1259,0.24383,1.3554,0.15799,0.021186,-0.21461,0.075449,0.024803
1260,0.20272,1.0525,0.14648,0.022172,-0.20869,0.089919,0.031709
1261,0.15306,0.72858,0.13596,0.019212,-0.16331,0.098141,0.040589
1262,0.1034,0.39971,0.12445,0.018226,-0.070568,0.10143,0.049139
1263,0.055388,0.068543,0.11721,0.026447,0.058019,0.10209,0.06065
1264,0.0093464,-0.27381,0.12116,0.042891,0.19384,0.1057,0.075449
1265,-0.037024,-0.6326,0.13629,0.060321,0.29875,0.10866,0.092879
1266,-0.08471,-1.0088,0.15767,0.071173,0.35762,0.10702,0.11195
1267,-0.1347,-1.39,0.18233,0.07216,0.37866,0.10307,0.12905
1268,-0.18797,-1.7475,0.20239,0.065912,0.37735,0.098141,0.12873
1269,-0.24487,-2.0434,0.21456,0.056374,0.36551,0.092221,0.10472
1270,-0.30308,-2.2441,0.21522,0.049468,0.35005,0.083342,0.062952
1271,-0.36063,-2.3371,0.18726,0.044864,0.33295,0.070187,0.015266
1272,-0.41095,-2.3309,0.12116,0.042891,0.30763,0.054072,-0.027158
1273,-0.44778,-2.2444,0.02875,0.044535,0.2629,0.036314,-0.058071
1274,-0.46718,-2.1003,-0.062018,0.048482,0.18891,0.021514,-0.073857
1275,-0.46916,-1.9086,-0.12779,0.054401,0.084657,0.010991,-0.071884
1276,-0.4537,-1.6731,-0.1564,0.06065,-0.037353,0.0040845,-0.053138
1277,-0.41917,-1.3992,-0.1541,0.062952,-0.14917,-0.002164,-0.018278
1278,-0.36359,-1.0996,-0.13536,0.060979,-0.22415,-0.0054526,0.02283
1279,-0.29321,-0.79243,-0.11332,0.060321,-0.24388,-0.0064392,0.05769
1280,-0.21659,-0.50566,-0.095562,0.062952,-0.20113,-0.0047949,0.082026
1281,-0.14621,-0.2669,-0.085039,0.063938,-0.1028,0.002769,0.094523
1282,-0.087998,-0.084381,-0.081092,0.058348,0.039602,0.017897,0.098469
1283,-0.039984,0.049468,-0.079119,0.045193,0.20338,0.037629,0.10011
1284,0.0030979,0.15076,-0.075173,0.024145,0.35071,0.052757,0.10274
1285,0.046508,0.23232,-0.067937,-0.0018351,0.44016,0.056703,0.10636
1286,0.090248,0.30237,-0.057414,-0.025514,0.44641,0.051113,0.10801
1287,0.12873,0.36452,-0.041957,-0.042944,0.37044,0.041904,0.10801
1288,0.15767,0.41813,-0.0097279,-0.050179,0.25074,0.03434,0.10932
1289,0.17477,0.46022,0.061307,-0.042615,0.14254,0.035656,0.10965
1290,0.18365,0.49048,0.1751,-0.019594,0.096825,0.051441,0.10932
1291,0.18332,0.51153,0.31092,0.017568,0.13958,0.082355,0.10801
1292,0.17181,0.52008,0.43095,0.061965,0.26685,0.11952,0.10307
1293,0.15602,0.51251,0.50232,0.11162,0.44641,0.15207,0.093536
1294,0.14188,0.49245,0.51021,0.16161,0.63025,0.17246,0.081697
1295,0.13399,0.47108,0.45858,0.20831,0.771,0.17904,0.07216
1296,0.12774,0.46022,0.37209,0.24317,0.83974,0.1751,0.070187
1297,0.11656,0.4622,0.28066,0.26488,0.82823,0.16983,0.07512
1298,0.094852,0.47436,0.21259,0.27244,0.74798,0.16687,0.08367
1299,0.064925,0.48555,0.17148,0.26389,0.61676,0.16391,0.088603
1300,0.032367,0.4839,0.14451,0.24153,0.45299,0.15734,0.086959
1301,0.0057288,0.46417,0.11393,0.20765,0.27737,0.14747,0.079066
1302,-0.0077547,0.42438,0.073147,0.16852,0.1113,0.13267,0.064596
1303,-0.012359,0.37406,0.025461,0.1307,-0.024198,0.11228,0.046837
1304,-0.014332,0.32309,-0.024198,0.096496,-0.12483,0.08367,0.030065
1305,-0.019594,0.2777,-0.069582,0.063281,-0.18896,0.047824,0.012964
1306,-0.028144,0.24745,-0.10872,0.033025,-0.21165,0.010004,-0.0057815
1307,-0.029789,0.23429,-0.1393,0.015595,-0.19093,-0.021567,-0.023211
1308,-0.020252,0.23824,-0.15936,0.015595,-0.13601,-0.038668,-0.034393
1309,-0.0024928,0.25271,-0.16166,0.030394,-0.071884,-0.042286,-0.039326
1310,0.018884,0.27211,-0.14654,0.05177,-0.031762,-0.042286,-0.040313
1311,0.033354,0.29579,-0.11727,0.065912,-0.048205,-0.050836,-0.038011
1312,0.037629,0.32901,-0.080763,0.065254,-0.13404,-0.070568,-0.033406
1313,0.036314,0.37176,-0.050179,0.046837,-0.26723,-0.096878,-0.029789
1314,0.041247,0.41385,-0.038011,0.014937,-0.40832,-0.1176,-0.026171
1315,0.064267,0.4451,-0.04393,-0.02354,-0.5175,-0.12779,-0.021238
1316,0.10209,0.45825,-0.060045,-0.064649,-0.5813,-0.13009,-0.012688
1317,0.14385,0.45299,-0.074844,-0.09918,-0.60202,-0.12812,-0.0011774
1318,0.17279,0.43326,-0.082736,-0.12648,-0.59215,-0.12516,0.014608
1319,0.18167,0.403,-0.080763,-0.14062,-0.56518,-0.12121,0.027763
1320,0.17312,0.36715,-0.064978,-0.14259,-0.53164,-0.11332,0.033025
1321,0.15701,0.32769,-0.034393,-0.13108,-0.49645,-0.09918,0.029736
1322,0.14188,0.28132,0.0096753,-0.10674,-0.46159,-0.07879,0.020857
1323,0.13366,0.22574,0.058019,-0.073528,-0.42607,-0.053138,0.0090175
1324,0.1307,0.16293,0.10143,-0.037682,-0.38694,-0.022883,-0.002164
1325,0.13464,0.097483,0.1376,-0.0031506,-0.3386,0.014279,-0.0028217
1326,0.14254,0.039602,0.16194,0.031709,-0.27907,0.053415,0.0067154
1327,0.15043,-0.0067681,0.16852,0.073147,-0.21264,0.088932,0.020857
1328,0.15438,-0.044259,0.15503,0.11985,-0.15279,0.11261,0.033025
1329,0.15076,-0.072542,0.12149,0.15799,-0.10937,0.11393,0.038616
1330,0.14089,-0.09326,0.071831,0.1751,-0.092274,0.092221,0.033025
1331,0.12346,-0.10378,0.012964,0.1672,-0.10346,0.055059,0.015924
1332,0.099127,-0.10773,-0.044259,0.14221,-0.13568,0.010991,-0.0024928
1333,0.068543,-0.10937,-0.086354,0.11064,-0.17613,-0.028144,-0.020581
1334,0.039273,-0.11332,-0.10214,0.082026,-0.20869,-0.054783,-0.036366
1335,0.013293,-0.11891,-0.090629,0.053743,-0.22349,-0.066622,-0.047219
1336,0.0001381,-0.12352,-0.066951,0.024474,-0.21889,-0.067937,-0.054125
1337,0.00046697,-0.1268,-0.04689,-0.0067681,-0.19981,-0.061689,-0.056427
1338,0.010662,-0.12746,-0.042286,-0.033406,-0.17087,-0.048534,-0.054783
1339,0.021514,-0.1199,-0.049192,-0.048534,-0.13371,-0.027487,-0.049521
1340,0.028421,-0.10017,-0.062347,-0.053138,-0.089314,-0.0061104,-0.04097
1341,0.029736,-0.066951,-0.072213,-0.051823,-0.040313,0.011977,-0.033735
1342,0.026776,-0.024856,-0.075173,-0.04393,0.0077021,0.024803,-0.027487
1343,0.024803,0.014937,-0.070568,-0.031104,0.051441,0.030065,-0.026829
1344,0.026119,0.045522,-0.061031,-0.013017,0.083013,0.02579,-0.034393
1345,0.029736,0.063281,-0.050179,0.011648,0.094523,0.013293,-0.046561
1346,0.033683,0.07216,-0.038997,0.039931,0.08663,-0.0047949,-0.057414
1347,0.035656,0.081039,-0.029789,0.070516,0.06624,-0.018936,-0.06136
1348,0.036314,0.098141,-0.022554,0.099456,0.041247,-0.028473,-0.057414
1349,0.033354,0.11985,-0.014661,0.11919,0.01987,-0.034393,-0.050836
1350,0.02579,0.13234,-0.0080836,0.12149,0.002769,-0.038997,-0.04393
1351,0.016253,0.13267,-0.004466,0.10439,-0.010386,-0.045246,-0.038997
1352,0.010333,0.12182,-0.0051238,0.074791,-0.019923,-0.055112,-0.036037
1353,0.0086887,0.10439,-0.010386,0.043549,-0.027816,-0.060702,-0.038011
1354,0.0086887,0.087617,-0.019265,0.019541,-0.034064,-0.057085,-0.040313
1355,0.0067154,0.073476,-0.029789,0.002769,-0.035708,-0.050507,-0.039326
1356,0.002769,0.061965,-0.036366,-0.012688,-0.038997,-0.049521,-0.038668
1357,-0.0077547,0.050784,-0.036695,-0.026829,-0.046232,-0.053138,-0.040313
1358,-0.0265,0.037958,-0.031762,-0.045246,-0.058071,-0.055769,-0.043272
1359,-0.04985,0.018226,-0.024856,-0.068595,-0.069911,-0.054783,-0.050179
1360,-0.069253,-0.0087413,-0.018278,-0.092603,-0.070897,-0.050507,-0.063991
1361,-0.079777,-0.038997,-0.013345,-0.11233,-0.049521,-0.042944,-0.080763
1362,-0.080763,-0.063662,-0.0087413,-0.12713,-0.0031506,-0.030775,-0.089314
1363,-0.076488,-0.079777,-0.0057815,-0.13503,0.059663,-0.014003,-0.086354
1364,-0.07024,-0.086025,-0.0008485,-0.13536,0.11952,0.0073732,-0.074844
1365,-0.063333,-0.084052,0.0096753,-0.12352,0.15799,0.029736,-0.057085
1366,-0.059058,-0.07287,0.024803,-0.098851,0.1695,0.048482,-0.035051
1367,-0.052481,-0.057085,0.041904,-0.068266,0.15799,0.062294,-0.0093991
1368,-0.041628,-0.038011,0.055059,-0.037024,0.13563,0.076435,0.013293
1369,-0.022554,-0.019265,0.057032,-0.014003,0.11458,0.088932,0.028092
1370,0.0050711,-0.0024928,0.045522,0.0017824,0.10143,0.094852,0.0373
1371,0.036971,0.0090175,0.031381,0.01987,0.099456,0.091563,0.047166
1372,0.067556,0.016581,0.022172,0.052099,0.1034,0.080382,0.060321
1373,0.090905,0.030065,0.014608,0.097483,0.10735,0.068214,0.075449
1374,0.10735,0.075449,0.0034268,0.14122,0.10373,0.056703,0.086301
1375,0.11557,0.16852,-0.014332,0.16622,0.093536,0.04881,0.090905
1376,0.12116,0.29974,-0.034064,0.16622,0.07808,0.041247,0.089261
1377,0.12281,0.43293,-0.045246,0.14517,0.062294,0.035656,0.082684
1378,0.11721,0.53126,-0.043272,0.11097,0.047824,0.037958,0.076435
1379,0.10143,0.56678,-0.031104,0.076106,0.042233,0.049797,0.073476
1380,0.076106,0.52797,-0.014661,0.050126,0.048153,0.068543,0.076435
1381,0.047495,0.42405,-0.0011774,0.038287,0.069529,0.091234,0.085972
1382,0.022172,0.28395,0.0050711,0.035656,0.10801,0.11031,0.1034
1383,0.0014536,0.13925,0.0054,0.031709,0.15832,0.11886,0.12511
1384,-0.016634,0.013951,0.0054,0.017239,0.21259,0.11261,0.14747
1385,-0.035051,-0.078132,0.010333,-0.010715,0.26126,0.092879,0.16753
1386,-0.054125,-0.12944,0.023488,-0.046232,0.2948,0.067556,0.182
1387,-0.074186,-0.1347,0.044206,-0.077475,0.30171,0.043549,0.18957
1388,-0.094576,-0.097207,0.064925,-0.095891,0.27507,0.023159,0.18792
1389,-0.11299,-0.028473,0.07512,-0.098193,0.21883,0.0070443,0.18003
1390,-0.12812,0.048482,0.062294,-0.092274,0.14681,-0.004466,0.15964
1391,-0.13503,0.10998,0.029078,-0.088327,0.068543,-0.010057,0.12873
1392,-0.13404,0.13793,-0.014003,-0.089314,0.0024402,-0.0074258,0.094852
1393,-0.12483,0.11919,-0.049521,-0.087669,-0.038997,0.0067154,0.064596
1394,-0.11299,0.042891,-0.064649,-0.075501,-0.047219,0.033025,0.04618
1395,-0.098522,-0.093589,-0.053467,-0.049521,-0.023869,0.067556,0.039931
1396,-0.075501,-0.27677,-0.022225,-0.011372,0.011648,0.094852,0.043877
1397,-0.039984,-0.47968,0.010662,0.035327,0.03434,0.10274,0.046508
1398,0.0063866,-0.66352,0.028092,0.081697,0.029078,0.094852,0.042233
1399,0.057361,-0.79408,0.026447,0.11985,0.0050711,0.083342,0.034669
1400,0.10373,-0.85525,0.012306,0.14517,-0.015648,0.082026,0.030394
1401,0.13596,-0.85821,-0.0067681,0.15964,-0.013345,0.092221,0.034998
1402,0.1478,-0.82631,-0.025185,0.16654,0.022172,0.11064,0.047824
1403,0.14188,-0.78717,-0.035708,0.17345,0.082684,0.13234,0.063281
1404,0.12182,-0.75297,-0.037353,0.17904,0.14714,0.14912,0.077751
1405,0.095181,-0.72238,-0.03538,0.17937,0.19877,0.15668,0.088275
1406,0.070187,-0.67634,-0.022225,0.17115,0.23002,0.15438,0.097483
1407,0.052428,-0.59511,0.015595,0.15273,0.2435,0.14583,0.099785
1408,0.04618,-0.47836,0.087617,0.12445,0.24514,0.13234,0.091563
1409,0.050784,-0.34057,0.18628,0.094523,0.24021,0.11557,0.077422
1410,0.058676,-0.20113,0.28691,0.070516,0.24054,0.10077,0.06624
1411,0.06624,-0.074186,0.36584,0.052757,0.26422,0.091234,0.061965
1412,0.070187,0.027105,0.39116,0.037629,0.32901,0.085644,0.060979
1413,0.071173,0.091234,0.33657,0.021514,0.44411,0.082355,0.059992
1414,0.071831,0.12544,0.20404,0.0067154,0.59045,0.082355,0.057032
1415,0.072489,0.15142,0.030065,-0.0067681,0.72266,0.085315,0.052428
1416,0.071173,0.18529,-0.13371,-0.013674,0.80586,0.091563,0.051113
1417,0.063938,0.23857,-0.25013,-0.010057,0.83447,0.099456,0.052099
1418,0.04881,0.32111,-0.30341,0.0024402,0.82592,0.10209,0.050126
1419,0.029736,0.43655,-0.29979,0.014937,0.79337,0.095839,0.042233
1420,0.01132,0.5819,-0.26526,0.019541,0.7368,0.082026,0.028092
1421,-0.0034794,0.74469,-0.22744,0.016581,0.65261,0.066569,0.016253
1422,-0.012359,0.90518,-0.20047,0.0086887,0.54869,0.052099,0.010662
1423,-0.018278,1.0328,-0.18501,0.0047422,0.43523,0.043549,0.011977
1424,-0.026829,1.0982,-0.17515,0.010991,0.32078,0.041247,0.013293
1425,-0.039326,1.0713,-0.16923,0.024145,0.21127,0.041247,0.013293
1426,-0.052152,0.92722,-0.16232,0.039931,0.10702,0.038287,0.013293
1427,-0.060373,0.66544,-0.14752,0.057361,0.0070443,0.028092,0.013293
1428,-0.061689,0.3119,-0.12187,0.076106,-0.086025,0.010662,0.0047422
1429,-0.0584,-0.086354,-0.088985,0.089919,-0.16726,-0.01203,-0.011372
1430,-0.056098,-0.46718,-0.056098,0.094523,-0.23106,-0.038011,-0.033078
1431,-0.059716,-0.77862,-0.023869,0.090905,-0.2771,-0.065307,-0.050179
1432,-0.068924,-0.98811,0.018884,0.075778,-0.30637,-0.089314,-0.055112
1433,-0.083394,-1.0828,0.097483,0.049468,-0.3284,-0.10576,-0.047877
1434,-0.098851,-1.0743,0.23232,0.014608,-0.34583,-0.11431,-0.039326
1435,-0.11036,-0.99567,0.41418,-0.01795,-0.35997,-0.11694,-0.037353
1436,-0.11398,-0.88912,0.59736,-0.037682,-0.36918,-0.11135,-0.039326
1437,-0.10937,-0.78322,0.72792,-0.041299,-0.36786,-0.099509,-0.040641
1438,-0.095891,-0.68456,0.771,-0.028144,-0.35504,-0.084052,-0.037024
1439,-0.072542,-0.58097,0.72365,-0.0024928,-0.33531,-0.068266,-0.02354
1440,-0.041299,-0.46093,0.60887,0.029078,-0.31393,-0.053796,-0.00051963
1441,-0.0077547,-0.32577,0.46581,0.052757,-0.29749,-0.042615,0.025461
1442,0.020857,-0.19324,0.32572,0.059334,-0.29058,-0.036037,0.052099
1443,0.038944,-0.085696,0.21094,0.049797,-0.29782,-0.036366,0.074133
1444,0.045851,-0.013345,0.12675,0.036314,-0.31426,-0.041299,0.08959
1445,0.043549,0.029078,0.06624,0.034998,-0.33136,-0.045574,0.096167
1446,0.036314,0.053415,0.013622,0.048482,-0.3432,-0.048863,0.097483
1447,0.022501,0.073804,-0.04985,0.066569,-0.34912,-0.047548,0.09255
1448,0.0040845,0.10274,-0.12615,0.07808,-0.34879,-0.041299,0.081697
1449,-0.013345,0.14681,-0.20014,0.074791,-0.34123,-0.030447,0.072818
1450,-0.025185,0.20568,-0.25737,0.06065,-0.32708,-0.015648,0.069858
1451,-0.025185,0.26915,-0.28532,0.044206,-0.31196,-0.0011774,0.068214
1452,-0.010057,0.32276,-0.2794,0.035327,-0.29716,0.0080309,0.063281
1453,0.014279,0.35696,-0.23763,0.039273,-0.28499,0.010662,0.057361
1454,0.042891,0.37011,-0.17054,0.05473,-0.27184,0.012306,0.056046
1455,0.072818,0.37077,-0.090629,0.075778,-0.25572,0.016581,0.058348
1456,0.10176,0.37176,-0.013345,0.093536,-0.23632,0.02579,0.059663
1457,0.13037,0.37965,0.050784,0.10636,-0.21823,0.038287,0.062952
1458,0.15635,0.39609,0.097812,0.11064,-0.20573,0.050784,0.066898
1459,0.17575,0.41451,0.13892,0.10472,-0.1985,0.059334,0.071173
1460,0.18792,0.42734,0.18069,0.092879,-0.19389,0.061965,0.074133
1461,0.19943,0.44082,0.21423,0.077093,-0.19422,0.05769,0.075778
1462,0.21588,0.46877,0.22706,0.06065,-0.1985,0.049797,0.075449
1463,0.23528,0.52172,0.21522,0.046837,-0.2054,0.041247,0.072489
1464,0.25337,0.59835,0.18332,0.036642,-0.20836,0.035327,0.070845
1465,0.2629,0.68912,0.14352,0.033025,-0.20639,0.034669,0.073476
1466,0.26225,0.78383,0.10801,0.032696,-0.20179,0.039602,0.085972
1467,0.25435,0.87131,0.081697,0.0373,-0.19948,0.04618,0.1034
1468,0.24284,0.93379,0.06624,0.039273,-0.19455,0.044206,0.1159
1469,0.23199,0.95188,0.05769,0.03434,-0.18534,0.030394,0.1159
1470,0.21883,0.91472,0.04881,0.023488,-0.17581,0.0086887,0.10307
1471,0.20206,0.82033,0.039602,0.011977,-0.16594,-0.014661,0.082026
1472,0.18397,0.68155,0.031381,0.0073732,-0.15542,-0.035051,0.058348
1473,0.16786,0.51745,0.025461,0.014937,-0.14095,-0.048205,0.040918
1474,0.15142,0.34644,0.023817,0.032367,-0.11727,-0.054454,0.030394
1475,0.1307,0.18463,0.027434,0.050455,-0.079119,-0.05281,0.023817
1476,0.10801,0.040589,0.034011,0.059663,-0.024527,-0.046561,0.013622
1477,0.082026,-0.086354,0.040589,0.057361,0.04618,-0.038011,-0.00019077
1478,0.05177,-0.19948,0.048482,0.049797,0.12577,-0.026171,-0.016305
1479,0.018884,-0.30242,0.058348,0.043877,0.20305,-0.010715,-0.027158
1480,-0.013674,-0.39549,0.068871,0.046508,0.26751,0.012306,-0.025842
1481,-0.043601,-0.4731,0.073476,0.057032,0.31421,0.03434,-0.014003
1482,-0.065964,-0.52835,0.064267,0.074133,0.34611,0.049468,0.00046697
1483,-0.080434,-0.55828,0.038944,0.087288,0.35663,0.053086,0.012964
1484,-0.089972,-0.56551,0.0050711,0.091892,0.34611,0.050784,0.02283
1485,-0.096878,-0.55663,-0.02946,0.084657,0.31914,0.047824,0.029078
1486,-0.10214,-0.53493,-0.056427,0.068543,0.28066,0.047495,0.030394
1487,-0.10576,-0.49349,-0.072213,0.054401,0.23922,0.052757,0.031709
1488,-0.10444,-0.42739,-0.079448,0.04322,0.20371,0.062294,0.034998
1489,-0.092931,-0.32643,-0.079777,0.035656,0.17937,0.070516,0.040918
1490,-0.068266,-0.17811,-0.07287,0.033354,0.17115,0.074462,0.052099
1491,-0.033735,0.025461,-0.063004,0.041575,0.17773,0.076106,0.065912
1492,0.0073732,0.25961,-0.056756,0.056046,0.19318,0.073804,0.077751
1493,0.052099,0.4839,-0.055112,0.070187,0.20765,0.071831,0.081368
1494,0.092879,0.65754,-0.057743,0.078737,0.21324,0.071831,0.079395
1495,0.11721,0.75094,-0.063662,0.077422,0.21226,0.074791,0.075778
1496,0.12149,0.76081,-0.070897,0.069529,0.20831,0.080053,0.071173
1497,0.10669,0.69898,-0.075173,0.055388,0.20173,0.087617,0.060979
1498,0.080711,0.59276,-0.07583,0.040589,0.18825,0.091892,0.047495
1499,0.054401,0.46483,-0.071884,0.031709,0.16983,0.091234,0.037629
1500,0.034669,0.33262,-0.065964,0.029078,0.1501,0.087288,0.031381
1501,0.020199,0.20798,-0.06432,0.032038,0.12609,0.084328,0.027434
1502,0.0090175,0.09551,-0.063662,0.0373,0.092879,0.084657,0.024474
1503,-0.0024928,-0.0067681,-0.0584,0.041247,0.050784,0.089261,0.018884
1504,-0.01499,-0.10609,-0.045246,0.040589,-0.0011774,0.094194,0.0086887
1505,-0.030118,-0.20705,-0.024198,0.031709,-0.061689,0.090577,-0.0077547
1506,-0.045246,-0.31097,0.002769,0.013951,-0.11957,0.079724,-0.024527
1507,-0.060045,-0.40799,0.027105,-0.01203,-0.16528,0.064596,-0.034722
1508,-0.071884,-0.48001,0.04618,-0.038668,-0.19192,0.048153,-0.035708
1509,-0.078132,-0.51553,0.057032,-0.056098,-0.19587,0.033683,-0.031104
1510,-0.078132,-0.51257,0.059663,-0.062347,-0.18008,0.023488,-0.022883
1511,-0.07583,-0.47738,0.054072,-0.057085,-0.15279,0.017897,-0.015648
1512,-0.075173,-0.41719,0.036971,-0.042944,-0.11957,0.017239,-0.011701
1513,-0.080106,-0.34057,0.013951,-0.028802,-0.086683,0.019212,-0.0087413
1514,-0.087669,-0.25704,-0.011372,-0.019265,-0.060702,0.020857,-0.0074258
1515,-0.091945,-0.17285,-0.030775,-0.018607,-0.043601,0.021514,-0.010715
1516,-0.090629,-0.09326,-0.041628,-0.022225,-0.030447,0.017239,-0.019594
1517,-0.08175,-0.019265,-0.041299,-0.023869,-0.013674,0.0057288,-0.029131
1518,-0.062347,0.047495,-0.033735,-0.019265,0.0086887,-0.0084125,-0.034722
1519,-0.032091,0.10406,-0.020252,-0.0047949,0.035985,-0.019265,-0.035051
1520,0.0024402,0.15043,-0.0074258,0.021843,0.063938,-0.020581,-0.031104
1521,0.031381,0.18759,-0.004466,0.054401,0.084657,-0.014661,-0.0265
1522,0.049797,0.22245,-0.019923,0.079395,0.091563,-0.0067681,-0.02354
1523,0.059663,0.2606,-0.051165,0.087288,0.084657,0.0011247,-0.020909
1524,0.063938,0.29875,-0.091287,0.07808,0.068871,0.0063866,-0.019594
1525,0.062623,0.33657,-0.13009,0.053415,0.046508,0.0054,-0.01795
1526,0.058348,0.37866,-0.15936,0.015924,0.024145,0.0001381,-0.016634
1527,0.052757,0.42668,-0.17679,-0.025514,0.0093464,-0.007097,-0.015319
1528,0.048482,0.47272,-0.17613,-0.057085,0.011977,-0.015648,-0.010386
1529,0.044535,0.50133,-0.14456,-0.072213,0.036314,-0.01795,-0.00051963
1530,0.044535,0.49706,-0.075173,-0.068266,0.079395,-0.010057,0.013293
1531,0.050784,0.45102,0.024803,-0.041299,0.13497,0.0077021,0.028421
1532,0.061965,0.36584,0.133,0.0011247,0.19647,0.026776,0.041247
1533,0.077751,0.25304,0.22179,0.04881,0.24679,0.042562,0.050126
1534,0.093208,0.1307,0.26817,0.090248,0.27507,0.049797,0.05177
1535,0.095839,0.013293,0.26126,0.11458,0.27606,0.049468,0.046837
1536,0.084328,-0.095562,0.20568,0.11721,0.24975,0.039273,0.0373
1537,0.064267,-0.19389,0.12774,0.10274,0.20601,0.023817,0.025132
1538,0.041904,-0.27841,0.059005,0.082684,0.15898,0.0060577,0.011977
1539,0.023488,-0.34024,0.024803,0.065254,0.12675,-0.011701,0.002769
1540,0.010991,-0.3649,0.028092,0.052757,0.11557,-0.029131,-0.0018351
1541,0.0040845,-0.34221,0.061307,0.039273,0.11952,-0.039984,-0.0008485
1542,0.00046697,-0.2748,0.10603,0.024803,0.12642,-0.04393,0.0073732
1543,-0.0011774,-0.17482,0.1432,0.011977,0.12281,-0.042286,0.021514
1544,-0.0028217,-0.063991,0.15635,0.0037556,0.10965,-0.040641,0.035327
1545,-0.0047949,0.03434,0.14352,0.00079584,0.091892,-0.039984,0.042562
1546,-0.0064392,0.1034,0.11162,0.002769,0.077093,-0.040641,0.039931
1547,-0.0087413,0.1376,0.07216,0.0067154,0.073147,-0.042615,0.026447
1548,-0.01203,0.13629,0.036314,0.011648,0.085644,-0.044588,0.0080309
1549,-0.011701,0.099785,0.010662,0.014937,0.11458,-0.042286,-0.014003
1550,0.0086887,0.0373,0.0017824,0.013622,0.14648,-0.031433,-0.036037
1551,0.053415,-0.036366,0.0073732,0.0073732,0.16885,-0.016305,-0.054125
1552,0.10998,-0.11069,0.01987,-0.0064392,0.1774,-0.002164,-0.062347
1553,0.16161,-0.17745,0.03434,-0.01795,0.17279,0.0096753,-0.062018
1554,0.1968,-0.235,0.047495,-0.019923,0.15964,0.020528,-0.055769
1555,0.20732,-0.28137,0.058676,-0.014332,0.14451,0.029407,-0.044259
1556,0.19516,-0.31459,0.065254,-0.00051963,0.13366,0.041247,-0.030775
1557,0.16654,-0.33728,0.066569,0.015924,0.12873,0.05769,-0.017292
1558,0.13169,-0.34353,0.059005,0.033683,0.12774,0.074133,-0.0064392
1559,0.098798,-0.32807,0.043877,0.047824,0.12511,0.083013,-0.0024928
1560,0.061965,-0.29321,0.024803,0.053086,0.12017,0.078409,-0.0061104
1561,0.021186,-0.24717,0.0017824,0.042233,0.11228,0.062623,-0.01795
1562,-0.023869,-0.1962,-0.017292,0.018555,0.10406,0.045522,-0.033406
1563,-0.068595,-0.1393,-0.031433,-0.0077547,0.10505,0.038944,-0.044588
1564,-0.10707,-0.073199,-0.036695,-0.024198,0.11458,0.046508,-0.045246
1565,-0.13634,0.0040845,-0.033406,-0.021238,0.12083,0.065912,-0.035051
1566,-0.15476,0.093865,-0.022225,0.0067154,0.11458,0.090577,-0.018607
1567,-0.16561,0.2014,-0.0087413,0.055388,0.092221,0.11228,-0.00051963
1568,-0.16824,0.32341,-0.0008485,0.11228,0.058676,0.12642,0.012306
1569,-0.16298,0.44575,0.0034268,0.15898,0.028092,0.13103,0.015266
1570,-0.15311,0.5477,0.0063866,0.18759,0.014279,0.12971,0.0070443
1571,-0.13667,0.60558,0.010662,0.19581,0.023817,0.12609,0.002769
1572,-0.11431,0.60131,0.016581,0.18628,0.063281,0.12313,0.011648
1573,-0.085696,0.53257,0.024145,0.16391,0.12905,0.12313,0.029407
1574,-0.057743,0.40793,0.032696,0.133,0.20173,0.12182,0.045193
1575,-0.030118,0.24942,0.042233,0.10044,0.24613,0.11952,0.053086
1576,-0.0034794,0.079724,0.052757,0.071831,0.23857,0.11195,0.054401
1577,0.020528,-0.083723,0.059663,0.051441,0.17707,0.10011,0.054401
1578,0.037958,-0.22514,0.06065,0.041247,0.081697,0.093208,0.052757
1579,0.045193,-0.33366,0.053743,0.038944,-0.015976,0.094523,0.049797
1580,0.050455,-0.40601,0.036642,0.042891,-0.094247,0.098469,0.048153
1581,0.059663,-0.45238,0.013951,0.048482,-0.15706,0.098141,0.047166
1582,0.073147,-0.48691,-0.0064392,0.049139,-0.21395,0.087288,0.044864
1583,0.08367,-0.5129,-0.016963,0.035327,-0.27151,0.064925,0.036971
1584,0.087617,-0.52539,-0.014661,0.0086887,-0.32807,0.034011,0.023488
1585,0.081697,-0.51553,-0.0061104,-0.020252,-0.37609,0.0017824,0.012306
1586,0.065254,-0.48001,-0.0011774,-0.038997,-0.40996,-0.024856,0.0080309
1587,0.044864,-0.4195,-0.0034794,-0.044588,-0.42542,-0.041299,0.01132
1588,0.027434,-0.34451,-0.0093991,-0.046561,-0.42048,-0.050507,0.020857
1589,0.012635,-0.26723,-0.013017,-0.057743,-0.3922,-0.057414,0.028092
1590,0.0030979,-0.20047,-0.0077547,-0.079119,-0.34682,-0.061031,0.029078
1591,-0.0034794,-0.14983,0.010991,-0.10411,-0.29387,-0.06432,0.022172
1592,-0.0054526,-0.11299,0.035656,-0.12417,-0.24092,-0.068266,0.018226
1593,-0.0041372,-0.083394,0.058676,-0.1347,-0.18863,-0.072213,0.016253
1594,-0.0034794,-0.054783,0.07216,-0.12417,-0.13141,-0.071555,0.01987
1595,-0.0011774,-0.024527,0.074462,-0.092931,-0.069911,-0.063991,0.027434
1596,0.0057288,0.0096753,0.066569,-0.040641,-0.004466,-0.048534,0.039273
1597,0.01691,0.04881,0.055059,0.017239,0.068543,-0.028144,0.058348
1598,0.029407,0.084986,0.043549,0.064267,0.15306,-0.0047949,0.079395
1599,0.041247,0.11327,0.033683,0.094194,0.23824,0.020528,0.099785
1600,0.052757,0.13169,0.024803,0.10735,0.3073,0.049139,0.11754
1601,0.058019,0.14583,0.018226,0.10768,0.34611,0.077751,0.1307
1602,0.055059,0.16095,0.012306,0.10176,0.35137,0.096496,0.14155
1603,0.04322,0.17904,0.012306,0.090577,0.32999,0.1011,0.15405
1604,0.026776,0.19943,0.019212,0.076106,0.29349,0.090248,0.16457
1605,0.014279,0.21489,0.029407,0.063938,0.25139,0.0692,0.16622
1606,0.0093464,0.22245,0.041247,0.057361,0.20864,0.041904,0.15898
1607,0.01132,0.22245,0.054401,0.056703,0.16589,0.014608,0.1432
1608,0.016253,0.22147,0.065912,0.059663,0.12445,-0.0084125,0.12675
1609,0.019541,0.21916,0.072489,0.068214,0.077422,-0.022883,0.11557
1610,0.01987,0.21949,0.074791,0.077751,0.017897,-0.026829,0.11458
1611,0.016581,0.21982,0.074462,0.085972,-0.053467,-0.022883,0.11919
1612,0.0080309,0.21686,0.072489,0.091234,-0.12549,-0.014003,0.12215
1613,-0.0024928,0.20667,0.067556,0.089919,-0.18041,-0.0041372,0.11623
1614,-0.0097279,0.18759,0.053415,0.079395,-0.1962,0.0057288,0.10538
1615,-0.011701,0.16227,0.027105,0.058348,-0.16561,0.013622,0.09255
1616,-0.0097279,0.14024,-0.0064392,0.029736,-0.10313,0.017568,0.081039
1617,-0.0077547,0.13004,-0.039326,0.0001381,-0.034393,0.015924,0.068214
1618,-0.0080836,0.13464,-0.068595,-0.023869,0.013293,0.0096753,0.054072
1619,-0.012688,0.15734,-0.095891,-0.040313,0.027105,0.00079584,0.04026
1620,-0.017292,0.1922,-0.1176,-0.047877,0.01132,-0.0041372,0.029736
1621,-0.017292,0.23528,-0.13141,-0.047219,-0.025842,-0.0031506,0.025132
1622,-0.0084125,0.27639,-0.13503,-0.041957,-0.064978,0.0086887,0.027763
1623,0.010333,0.3027,-0.12746,-0.033078,-0.09622,0.028092,0.03434
1624,0.031709,0.30829,-0.11431,-0.020909,-0.11891,0.049139,0.04322
1625,0.050126,0.29678,-0.1005,-0.0080836,-0.13503,0.061636,0.050126
1626,0.061965,0.2777,-0.084052,0.0050711,-0.1518,0.059992,0.052757
1627,0.064925,0.26126,-0.067937,0.015595,-0.17679,0.046508,0.052099
1628,0.058676,0.25567,-0.04985,0.023817,-0.21099,0.032038,0.048482
1629,0.045522,0.26093,-0.028473,0.028092,-0.25309,0.019212,0.042233
1630,0.029407,0.27737,-0.007097,0.031381,-0.28861,0.0070443,0.02875
1631,0.015266,0.30335,0.011648,0.033683,-0.30702,-0.0038083,0.0070443
1632,0.0067154,0.3369,0.024474,0.031381,-0.30637,-0.011372,-0.016963
1633,-0.0018351,0.36321,0.036314,0.024803,-0.28828,-0.016305,-0.037682
1634,-0.013345,0.36814,0.04881,0.015924,-0.24947,-0.017292,-0.047219
1635,-0.028144,0.34742,0.053415,0.014608,-0.18797,-0.010057,-0.044588
1636,-0.041957,0.29678,0.044535,0.024474,-0.11332,0.0073732,-0.032091
1637,-0.051165,0.21259,0.024803,0.044864,-0.040313,0.035327,-0.013017
1638,-0.053138,0.095839,0.0047422,0.068871,0.019541,0.069529,0.010333
1639,-0.053138,-0.049521,-0.011701,0.085972,0.05769,0.10011,0.031709
1640,-0.058729,-0.20935,-0.021238,0.090248,0.071173,0.11754,0.04618
1641,-0.079119,-0.36655,-0.024856,0.082684,0.061307,0.12116,0.053743
1642,-0.11036,-0.49941,-0.022225,0.068871,0.032367,0.11426,0.05769
1643,-0.14095,-0.5938,-0.016305,0.058348,-0.0051238,0.099456,0.059005
1644,-0.15279,-0.65036,-0.0077547,0.053743,-0.043272,0.076764,0.059992
1645,-0.13601,-0.67437,0.002769,0.053415,-0.072213,0.049468,0.063281
1646,-0.093589,-0.67075,0.020857,0.052428,-0.088327,0.019212,0.070845
1647,-0.039655,-0.64411,0.051441,0.045193,-0.087998,-0.0074258,0.077093
1648,0.01132,-0.59544,0.090577,0.031052,-0.068266,-0.028473,0.071831
1649,0.048482,-0.52046,0.12873,0.0086887,-0.029131,-0.038668,0.053086
1650,0.072818,-0.41785,0.16161,-0.015976,0.027434,-0.036695,0.032696
1651,0.085972,-0.29518,0.19483,-0.03538,0.096167,-0.024198,0.017897
1652,0.092879,-0.16561,0.23758,-0.041299,0.16918,-0.004466,0.012635
1653,0.099785,-0.040641,0.28757,-0.031762,0.23166,0.018555,0.011977
1654,0.11097,0.068214,0.33361,-0.013017,0.2708,0.038944,0.013622
1655,0.12083,0.15438,0.36189,0.010333,0.28329,0.055388,0.015924
1656,0.12511,0.22245,0.36617,0.031709,0.27047,0.066898,0.014608
1657,0.12741,0.2948,0.34907,0.04618,0.22936,0.07216,0.0054
1658,0.13728,0.39182,0.31486,0.054072,0.16654,0.072489,-0.012688
1659,0.1626,0.51284,0.26521,0.050455,0.093865,0.06624,-0.034722
1660,0.20272,0.63156,0.19483,0.039931,0.027105,0.056374,-0.055769
1661,0.24416,0.71542,0.10735,0.029078,-0.022225,0.046508,-0.073528
1662,0.26882,0.73812,0.021186,0.027763,-0.047877,0.040918,-0.082079
1663,0.26257,0.69142,-0.040313,0.042562,-0.049521,0.038287,-0.081092
1664,0.22837,0.58782,-0.068266,0.071173,-0.033406,0.039273,-0.071555
1665,0.17773,0.45036,-0.072213,0.10011,-0.011372,0.039602,-0.055112
1666,0.13333,0.30039,-0.07287,0.1159,0.0073732,0.036314,-0.033735
1667,0.10636,0.15405,-0.081421,0.12313,0.015266,0.034669,-0.013345
1668,0.10439,0.023159,-0.098522,0.13169,0.013951,0.038616,0.0017824
1669,0.12609,-0.080106,-0.12089,0.14484,0.0093464,0.047166,0.0096753
1670,0.16852,-0.14818,-0.13601,0.15471,0.0096753,0.056374,0.010333
1671,0.23035,-0.17877,-0.13272,0.15767,0.024803,0.061636,0.0057288
1672,0.29415,-0.18567,-0.10872,0.1501,0.060321,0.059334,0.0017824
1673,0.33854,-0.19225,-0.072542,0.12971,0.11195,0.050126,0.0014536
1674,0.35334,-0.21757,-0.040641,0.10439,0.16819,0.033683,0.0060577
1675,0.33887,-0.26657,-0.029131,0.075449,0.21522,0.013622,0.01132
1676,0.30138,-0.33037,-0.044259,0.044864,0.24482,-0.0028217,0.013951
1677,0.24843,-0.38858,-0.078461,0.011648,0.25337,-0.0087413,0.016253
1678,0.18167,-0.42739,-0.11102,-0.019923,0.23528,-0.0084125,0.020857
1679,0.098469,-0.43462,-0.12845,-0.046561,0.18989,-0.0057815,0.031052
1680,0.00079584,-0.40897,-0.12944,-0.064978,0.12379,-0.004466,0.045851
1681,-0.09918,-0.35701,-0.11529,-0.066622,0.055717,-0.0034794,0.063281
1682,-0.18403,-0.29157,-0.0903,-0.051494,0.0001381,0.0017824,0.081039
1683,-0.24059,-0.22514,-0.061031,-0.023211,-0.034064,0.014608,0.099127
1684,-0.27019,-0.16232,-0.03242,0.012635,-0.04393,0.034998,0.11754
1685,-0.28071,-0.10313,-0.010057,0.046508,-0.033078,0.061636,0.13662
1686,-0.27841,-0.045574,0.0086887,0.071502,-0.011701,0.08959,0.15076
1687,-0.2646,0.012635,0.022501,0.086301,0.0037556,0.10866,0.15306
1688,-0.23895,0.0692,0.03434,0.087946,0.0034268,0.10965,0.14089
1689,-0.20738,0.1159,0.04322,0.081697,-0.013674,0.093208,0.12083
1690,-0.17515,0.1478,0.049797,0.07512,-0.034064,0.067227,0.098469
1691,-0.14062,0.16095,0.054072,0.070516,-0.048863,0.0373,0.082026
1692,-0.1028,0.16326,0.056046,0.067885,-0.050836,0.0073732,0.074462
1693,-0.067937,0.15997,0.058019,0.06361,-0.035708,-0.020909,0.074133
1694,-0.043272,0.16063,0.057361,0.058019,-0.0077547,-0.041957,0.075778
1695,-0.034393,0.16753,0.055388,0.049797,0.029407,-0.051494,0.073476
1696,-0.03538,0.17773,0.049797,0.0373,0.078737,-0.051165,0.063938
1697,-0.035708,0.18858,0.044206,0.020857,0.13629,-0.045903,0.051441
1698,-0.027816,0.19384,0.042891,0.0054,0.18989,-0.042615,0.039273
1699,-0.013017,0.19253,0.04881,-0.002164,0.22508,-0.042615,0.030065
1700,0.0063866,0.18792,0.058676,0.0037556,0.23166,-0.041957,0.021186
1701,0.023159,0.182,0.069858,0.018555,0.21127,-0.036695,0.012306
1702,0.026447,0.17707,0.074133,0.034669,0.17641,-0.0265,-0.0008485
1703,0.01987,0.17411,0.070845,0.048153,0.13991,-0.013345,-0.01499
1704,0.015266,0.17312,0.056703,0.057361,0.11294,0.0001381,-0.028473
1705,0.019541,0.17477,0.037629,0.065583,0.10274,0.014937,-0.034064
1706,0.029078,0.18069,0.01132,0.075449,0.10274,0.030723,-0.030775
1707,0.041247,0.19318,-0.016963,0.091563,0.10406,0.042233,-0.021567
1708,0.052757,0.20897,-0.035708,0.10998,0.10866,0.046508,-0.0074258
1709,0.064925,0.22508,-0.036695,0.12412,0.1205,0.042891,0.0080309
1710,0.079066,0.23922,-0.022225,0.12905,0.15076,0.034011,0.017897
1711,0.093865,0.24843,-0.0018351,0.12642,0.2093,0.021514,0.019212
1712,0.10866,0.25172,0.020199,0.11393,0.30401,0.0096753,0.011648
1713,0.11886,0.25172,0.040918,0.099456,0.42142,0.0040845,0.0037556
1714,0.12379,0.25074,0.063938,0.088275,0.52008,0.0077021,0.002769
1715,0.1205,0.24547,0.09255,0.079395,0.55,0.020528,0.010662
1716,0.10636,0.22739,0.12281,0.071831,0.48423,0.036971,0.026776
1717,0.085644,0.18792,0.15438,0.063281,0.33624,0.050784,0.042562
1718,0.063281,0.12675,0.18529,0.051441,0.1432,0.057361,0.052428
1719,0.041575,0.047824,0.20436,0.033025,-0.042944,0.05177,0.05473
1720,0.017568,-0.038997,0.20173,0.010004,-0.17745,0.030723,0.04881
1721,-0.011372,-0.12253,0.17608,-0.016305,-0.24257,0.0014536,0.034011
1722,-0.041628,-0.19225,0.13892,-0.042615,-0.25112,-0.0265,0.01691
1723,-0.066951,-0.23698,0.11064,-0.065307,-0.22908,-0.048534,0.0014536
1724,-0.087341,-0.25276,0.1159,-0.081421,-0.19718,-0.059716,-0.0054526
1725,-0.10214,-0.23928,0.15372,-0.087012,-0.16495,-0.056098,-0.0034794
1726,-0.11168,-0.20047,0.19351,-0.07879,-0.13733,-0.043272,-0.0011774
1727,-0.11431,-0.14358,0.19713,-0.05544,-0.11464,-0.028144,-0.0057815
1728,-0.10905,-0.071884,0.14484,-0.021567,-0.09918,-0.017292,-0.018278
1729,-0.092931,0.013293,0.047824,0.016581,-0.090958,-0.0097279,-0.031762
1730,-0.069253,0.1136,-0.059387,0.049468,-0.082079,0.0037556,-0.040641
1731,-0.042944,0.22147,-0.14029,0.068543,-0.053138,0.024474,-0.040313
1732,-0.022883,0.31651,-0.17581,0.067556,0.0077021,0.050455,-0.034393
1733,-0.0093991,0.3813,-0.16824,0.049797,0.098141,0.072489,-0.027487
1734,0.0034268,0.41352,-0.13536,0.029407,0.19713,0.08367,-0.022554
1735,0.022172,0.4395,-0.099509,0.013293,0.27507,0.082026,-0.01795
1736,0.052099,0.48423,-0.075501,0.002769,0.31059,0.070845,-0.013674
1737,0.091892,0.55329,-0.063004,-0.0041372,0.29645,0.05769,-0.007097
1738,0.13432,0.63222,-0.053796,-0.0087413,0.24054,0.042891,-0.0047949
1739,0.16786,0.69471,-0.038339,-0.011043,0.16063,0.029736,-0.0057815
1740,0.19285,0.71608,-0.010057,-0.004466,0.077751,0.019212,-0.010057
1741,0.21259,0.68944,0.030065,0.0096753,0.010991,0.010333,-0.013674
1742,0.22706,0.61611,0.073476,0.029078,-0.033078,0.0017824,-0.019594
1743,0.22804,0.51449,0.11195,0.048482,-0.056756,-0.0031506,-0.028802
1744,0.21094,0.41846,0.14024,0.06361,-0.067937,-0.0067681,-0.034722
1745,0.17838,0.36288,0.15569,0.073804,-0.077146,-0.010057,-0.034722
1746,0.13826,0.3517,0.16063,0.080711,-0.095233,-0.016305,-0.027158
1747,0.099456,0.36387,0.15898,0.081039,-0.12615,-0.027158,-0.018278
1748,0.063938,0.35433,0.15602,0.075449,-0.16364,-0.03538,-0.011701
1749,0.029078,0.27672,0.15109,0.064925,-0.19389,-0.038668,-0.010386
1750,-0.0041372,0.10077,0.14846,0.05177,-0.21067,-0.03538,-0.015319
1751,-0.033078,-0.1735,0.14747,0.038944,-0.21264,-0.025842,-0.020581
1752,-0.057414,-0.51059,0.13596,0.030065,-0.20376,-0.011043,-0.022225
1753,-0.073857,-0.85525,0.097154,0.024145,-0.18962,0.0044134,-0.016634
1754,-0.080106,-1.1562,0.024474,0.019541,-0.17745,0.013293,-0.004466
1755,-0.076488,-1.3752,-0.079777,0.0093464,-0.17186,0.017239,0.010004
1756,-0.067609,-1.5011,-0.20409,-0.011043,-0.1712,0.01691,0.023159
1757,-0.062676,-1.5482,-0.3386,-0.041299,-0.17022,0.014608,0.03434
1758,-0.064649,-1.5429,-0.46916,-0.075501,-0.16758,0.013622,0.041904
1759,-0.069911,-1.5044,-0.5711,-0.10674,-0.16364,0.015924,0.042562
1760,-0.077803,-1.4416,-0.61254,-0.12845,-0.16397,0.018226,0.039931
1761,-0.086025,-1.3508,-0.57374,-0.13338,-0.16791,0.017568,0.038944
1762,-0.089643,-1.2259,-0.46028,-0.1222,-0.17613,0.010991,0.041904
1763,-0.086354,-1.0703,-0.29518,-0.10543,-0.18107,0.00046697,0.043877
1764,-0.079119,-0.89109,-0.11661,-0.088656,-0.17515,-0.011043,0.045193
1765,-0.06728,-0.70134,0.034669,-0.074515,-0.15805,-0.016305,0.048153
1766,-0.052152,-0.5221,0.1353,-0.059058,-0.13338,-0.015976,0.051441
1767,-0.040313,-0.37115,0.17773,-0.036366,-0.10872,-0.0097279,0.052757
1768,-0.037353,-0.24947,0.16687,-0.0087413,-0.089314,-0.00019077,0.05177
1769,-0.038997,-0.14456,0.12017,0.020199,-0.082079,0.015266,0.050455
1770,-0.036695,-0.045246,0.061636,0.048482,-0.082736,0.039602,0.044535
1771,-0.025842,0.054072,0.013622,0.076435,-0.089314,0.065254,0.031381
1772,-0.0084125,0.1478,-0.014332,0.10011,-0.099509,0.083999,0.014608
1773,0.0077021,0.22541,-0.022883,0.11689,-0.11069,0.092879,-0.0011774
1774,0.021186,0.28428,-0.023869,0.12807,-0.12615,0.098141,-0.0097279
1775,0.032367,0.33394,-0.02946,0.1284,-0.14719,0.096167,-0.0090702
1776,0.046837,0.38228,-0.045246,0.11524,-0.16824,0.084328,0.0014536
1777,0.069529,0.42997,-0.063004,0.092879,-0.18173,0.063938,0.025461
1778,0.098469,0.47404,-0.073528,0.070187,-0.18107,0.038616,0.063281
1779,0.12478,0.51251,-0.066293,0.051113,-0.16002,0.017897,0.10603
1780,0.13596,0.54573,-0.035051,0.040589,-0.11562,0.0093464,0.13991
1781,0.13333,0.5648,0.020199,0.038287,-0.054125,0.016581,0.15964
1782,0.12116,0.5625,0.088275,0.038616,0.014608,0.035985,0.16589
