,channel_1,channel_2,channel_3,channel_4,channel_5,channel_6,channel_7
0,0.05473,-0.28433,0.12182,0.16918,0.52271,0.29612,0.068871
1,0.049797,-0.40864,0.088932,0.18397,0.46253,0.28888,0.067885
2,0.051441,-0.47475,0.053415,0.18825,0.36847,0.2708,0.064925
3,0.059005,-0.49251,0.022172,0.17904,0.24613,0.24514,0.057032
4,0.067556,-0.48823,0.00046697,0.15668,0.10505,0.20667,0.046508
5,0.074791,-0.48593,-0.012359,0.12708,-0.042615,0.15372,0.037958
6,0.071831,-0.48823,-0.01795,0.096167,-0.18469,0.092221,0.03434
7,0.054401,-0.47935,-0.019923,0.073804,-0.309,0.027434,0.036971
8,0.025461,-0.43824,-0.016963,0.06065,-0.41128,-0.034722,0.046837
9,-0.0031506,-0.35405,-0.0011774,0.057032,-0.48626,-0.089314,0.05769
10,-0.0265,-0.23698,0.024145,0.062294,-0.53592,-0.13404,0.06624
11,-0.041628,-0.10641,0.054072,0.071831,-0.56288,-0.16857,0.065254
12,-0.048534,0.016581,0.082026,0.075778,-0.57176,-0.1906,0.05177
13,-0.051823,0.11754,0.10406,0.067227,-0.57078,-0.2031,0.026776
14,-0.050507,0.18891,0.10899,0.04618,-0.56354,-0.21034,-0.002164
15,-0.050836,0.23396,0.098141,0.018226,-0.55269,-0.21691,-0.031104
16,-0.053796,0.2629,0.079066,-0.0074258,-0.54085,-0.22546,-0.052152
17,-0.055769,0.28658,0.053743,-0.0265,-0.52704,-0.23895,-0.061031
18,-0.048205,0.31223,0.02579,-0.039655,-0.50204,-0.25769,-0.062018
19,-0.034064,0.33788,0.0047422,-0.047877,-0.46192,-0.28302,-0.068266
20,-0.021567,0.35531,-0.0077547,-0.054125,-0.40503,-0.30735,-0.083394
21,-0.011043,0.35762,-0.010715,-0.061031,-0.33037,-0.32413,-0.10411
22,-0.0093991,0.34709,-0.0087413,-0.071555,-0.23138,-0.32676,-0.1222
23,-0.018936,0.32966,-0.0041372,-0.081421,-0.10576,-0.31952,-0.13009
24,-0.033078,0.31289,-0.0018351,-0.089972,0.023159,-0.30505,-0.12352
25,-0.041957,0.30368,-0.0015062,-0.092274,0.12215,-0.28828,-0.10872
26,-0.043601,0.30566,-0.0024928,-0.08471,0.17477,-0.26822,-0.090958
27,-0.038668,0.31026,-0.0028217,-0.066622,0.18463,-0.2452,-0.076817
28,-0.024856,0.31026,-0.0054526,-0.047219,0.1649,-0.21922,-0.070568
29,-0.0051238,0.30039,-0.010715,-0.031433,0.13399,-0.19093,-0.06728
30,0.015595,0.28296,-0.020909,-0.020252,0.10603,-0.16495,-0.060702
31,0.031709,0.26159,-0.035051,-0.011372,0.094523,-0.14423,-0.04985
32,0.042891,0.2412,-0.046232,-0.0008485,0.10274,-0.13371,-0.038339
33,0.04618,0.22278,-0.045903,0.0080309,0.12938,-0.1347,-0.030118
34,0.044206,0.20173,-0.033735,0.010662,0.16227,-0.14029,-0.024198
35,0.041247,0.17806,-0.013345,0.0086887,0.18365,-0.14127,-0.018607
36,0.04322,0.16128,0.0093464,0.00046697,0.182,-0.12713,-0.010386
37,0.045851,0.15405,0.025132,-0.011043,0.1603,-0.099838,0.0017824
38,0.044864,0.14977,0.031709,-0.020581,0.13399,-0.060373,0.016253
39,0.040918,0.13826,0.029736,-0.020581,0.1284,-0.01203,0.023817
40,0.032038,0.11458,0.02579,-0.0080836,0.16622,0.043549,0.023817
41,0.016253,0.083013,0.021843,0.013293,0.25896,0.095839,0.016253
42,-0.0054526,0.051113,0.017897,0.037629,0.40267,0.13662,0.0050711
43,-0.030775,0.024145,0.014279,0.059334,0.56415,0.16227,-0.0051238
44,-0.053796,0.0021113,0.010662,0.070187,0.69734,0.1751,-0.0080836
45,-0.067937,-0.015319,0.0083598,0.069858,0.75292,0.17608,-0.0038083
46,-0.068266,-0.034064,0.0080309,0.062952,0.71016,0.17049,0.010333
47,-0.053796,-0.055112,0.011977,0.058348,0.57105,0.1626,0.032367
48,-0.034064,-0.073199,0.018226,0.062623,0.36123,0.15142,0.057361
49,-0.015976,-0.089972,0.018555,0.073804,0.1182,0.13267,0.077422
50,-0.0051238,-0.1051,0.0021113,0.082355,-0.1176,0.10472,0.084657
51,-0.002164,-0.11595,-0.034393,0.082684,-0.31261,0.067556,0.080711
52,-0.0034794,-0.12089,-0.09326,0.073804,-0.44909,0.025132,0.069858
53,0.00046697,-0.1222,-0.1712,0.062952,-0.52342,-0.018936,0.059992
54,0.013622,-0.12319,-0.25441,0.056374,-0.54414,-0.056756,0.054401
55,0.031381,-0.1245,-0.31952,0.053743,-0.52408,-0.087998,0.053415
56,0.047495,-0.12384,-0.35109,0.053743,-0.48231,-0.11266,0.052757
57,0.059334,-0.11661,-0.33629,0.055388,-0.43002,-0.13404,0.047495
58,0.06361,-0.10641,-0.27447,0.062623,-0.37082,-0.15147,0.036642
59,0.061307,-0.10247,-0.1814,0.073476,-0.30242,-0.16134,0.02283
60,0.056374,-0.1051,-0.085039,0.08663,-0.23237,-0.16199,0.011977
61,0.053086,-0.11431,-0.0093991,0.098141,-0.16397,-0.15542,0.0063866
62,0.05177,-0.13272,0.036314,0.10965,-0.10576,-0.14851,0.0047422
63,0.051113,-0.15706,0.050455,0.11919,-0.065964,-0.14456,0.0083598
64,0.051113,-0.17975,0.041904,0.12905,-0.047877,-0.1416,0.012635
65,0.04881,-0.19718,0.025461,0.1307,-0.046232,-0.137,0.013622
66,0.042233,-0.20738,0.013622,0.12116,-0.051494,-0.13601,0.012964
67,0.036314,-0.21165,0.012635,0.10505,-0.048205,-0.13404,0.0093464
68,0.034669,-0.20902,0.017239,0.084657,-0.021238,-0.11891,0.0054
69,0.038616,-0.20146,0.019541,0.064596,0.034011,-0.084052,0.0054
70,0.04618,-0.18534,0.016581,0.047824,0.10899,-0.02946,0.011648
71,0.055717,-0.12516,0.0096753,0.034011,0.17904,0.035985,0.024474
72,0.064925,0.029407,0.0047422,0.020857,0.22212,0.10669,0.040589
73,0.069529,0.28888,0.0063866,0.0034268,0.23067,0.17806,0.052757
74,0.068871,0.60558,0.020857,-0.017292,0.20831,0.24416,0.05769
75,0.065912,0.8986,0.050126,-0.041299,0.15997,0.30039,0.059992
76,0.065912,1.0887,0.093208,-0.063333,0.092221,0.34117,0.063281
77,0.073147,1.1239,0.14287,-0.077475,0.01987,0.36617,0.072489
78,0.087946,0.99529,0.18365,-0.077803,-0.045574,0.37768,0.085972
79,0.1057,0.73384,0.1991,-0.068924,-0.09622,0.37834,0.10274
80,0.12248,0.40136,0.17838,-0.051165,-0.12746,0.37834,0.12149
81,0.13333,0.071173,0.12346,-0.026171,-0.14456,0.37965,0.13596
82,0.13728,-0.20442,0.053743,0.0024402,-0.15607,0.37636,0.14188
83,0.13826,-0.40996,-0.0038083,0.028092,-0.16824,0.35992,0.14155
84,0.13826,-0.54677,-0.030118,0.048482,-0.18238,0.3267,0.13366
85,0.13826,-0.60366,-0.016634,0.064925,-0.19258,0.27935,0.12478
86,0.13826,-0.55203,0.029407,0.075778,-0.19948,0.22377,0.11754
87,0.13695,-0.38529,0.090577,0.080711,-0.20113,0.15997,0.11228
88,0.13169,-0.13634,0.1524,0.083013,-0.19422,0.094194,0.10603
89,0.11952,0.13695,0.20404,0.083342,-0.17252,0.031052,0.098141
90,0.099785,0.37406,0.24153,0.083999,-0.12878,-0.025185,0.085644
91,0.077751,0.52271,0.26422,0.084986,-0.063333,-0.069582,0.070187
92,0.057032,0.54704,0.27211,0.079724,0.023159,-0.1005,0.056046
93,0.04026,0.4303,0.27244,0.069858,0.13169,-0.11365,0.046837
94,0.030065,0.17937,0.27112,0.061636,0.26553,-0.11003,0.045851
95,0.027763,-0.17252,0.26718,0.063281,0.40629,-0.095891,0.05177
96,0.030394,-0.57374,0.25567,0.074791,0.51449,-0.078461,0.058019
97,0.033025,-0.96871,0.22673,0.087946,0.55461,-0.06432,0.062294
98,0.030723,-1.314,0.17148,0.098798,0.51449,-0.054783,0.063281
99,0.020857,-1.6018,0.096496,0.10538,0.40695,-0.047548,0.062623
100,0.0034268,-1.8412,0.02579,0.10505,0.26784,-0.038339,0.062623
101,-0.015319,-2.0425,-0.0054526,0.1034,0.14056,-0.025842,0.065912
102,-0.029789,-2.1931,0.016253,0.10899,0.049797,-0.013674,0.07216
103,-0.039326,-2.2572,0.070516,0.11656,-0.0018351,-0.0028217,0.075449
104,-0.048534,-2.199,0.11623,0.11689,-0.028144,0.002769,0.073147
105,-0.059716,-2.0185,0.11623,0.10274,-0.046561,0.0034268,0.066569
106,-0.069911,-1.7636,0.059663,0.075449,-0.06728,0.0001381,0.05769
107,-0.077146,-1.4992,-0.027816,0.044535,-0.090958,-0.0038083,0.045193
108,-0.078132,-1.2706,-0.11562,0.020199,-0.11497,-0.0087413,0.032696
109,-0.074186,-1.0907,-0.18337,0.0070443,-0.13305,-0.01499,0.023817
110,-0.068924,-0.94634,-0.2281,0.0021113,-0.14127,-0.017621,0.020857
111,-0.066293,-0.81808,-0.2521,0.00079584,-0.14555,-0.018278,0.022172
112,-0.062018,-0.68851,-0.26032,-0.0018351,-0.15246,-0.018607,0.023159
113,-0.054125,-0.54512,-0.25473,-0.0084125,-0.16594,-0.014661,0.020199
114,-0.042944,-0.37115,-0.23467,-0.018278,-0.18205,-0.0024928,0.018226
115,-0.028144,-0.1393,-0.20606,-0.030118,-0.19126,0.018555,0.020199
116,-0.0064392,0.19088,-0.17581,-0.042944,-0.18238,0.040918,0.026447
117,0.016581,0.63387,-0.14588,-0.053796,-0.14654,0.059992,0.031709
118,0.033354,1.1541,-0.11924,-0.054125,-0.082408,0.070845,0.030065
119,0.039273,1.6767,-0.098851,-0.039655,0.0086887,0.075778,0.023817
120,0.0373,2.1144,-0.089972,-0.013674,0.12281,0.080053,0.019212
121,0.036971,2.4015,-0.087341,0.014937,0.25369,0.087946,0.019212
122,0.044206,2.5202,-0.071226,0.0373,0.3757,0.10669,0.027105
123,0.058348,2.4844,-0.012688,0.050126,0.46581,0.13366,0.042891
124,0.077093,2.3134,0.10307,0.058348,0.50791,0.16227,0.066898
125,0.096167,2.0181,0.26356,0.065912,0.50495,0.18496,0.093208
126,0.11261,1.6063,0.43391,0.074462,0.46976,0.1968,0.11031
127,0.12083,1.1035,0.56711,0.084328,0.41977,0.19417,0.11261
128,0.11886,0.55954,0.62663,0.091892,0.37011,0.18036,0.10274
129,0.10505,0.036971,0.60164,0.08959,0.32901,0.16227,0.082355
130,0.081697,-0.40305,0.51087,0.077422,0.29415,0.14648,0.056046
131,0.050455,-0.71909,0.38426,0.06065,0.256,0.13169,0.033683
132,0.015595,-0.9105,0.2481,0.043549,0.20436,0.11064,0.017239
133,-0.018278,-1.0154,0.12379,0.023159,0.13662,0.079395,0.010991
134,-0.04393,-1.0799,0.022501,0.0014536,0.067885,0.038287,0.010662
135,-0.059387,-1.1315,-0.057085,-0.02354,0.012964,-0.0041372,0.013951
136,-0.071884,-1.1785,-0.11497,-0.045246,-0.026829,-0.041299,0.015266
137,-0.085696,-1.2124,-0.15279,-0.05544,-0.055769,-0.06728,0.013622
138,-0.099509,-1.2265,-0.17613,-0.054454,-0.079777,-0.077803,0.010004
139,-0.11102,-1.22,-0.19258,-0.047219,-0.10411,-0.074515,0.0050711
140,-0.11464,-1.1992,-0.20639,-0.040641,-0.13338,-0.068924,-0.0015062
141,-0.11365,-1.167,-0.22152,-0.037353,-0.17087,-0.066293,-0.010386
142,-0.11069,-1.1269,-0.23632,-0.038339,-0.21461,-0.069253,-0.016305
143,-0.1097,-1.0802,-0.24914,-0.041628,-0.26098,-0.074844,-0.020909
144,-0.10905,-1.018,-0.25605,-0.043601,-0.30078,-0.081092,-0.022883
145,-0.10674,-0.91609,-0.25342,-0.042615,-0.32544,-0.087012,-0.020252
146,-0.10181,-0.74705,-0.24125,-0.037024,-0.32873,-0.091945,-0.014003
147,-0.094247,-0.49777,-0.22283,-0.027487,-0.30998,-0.09622,-0.007097
148,-0.077146,-0.18041,-0.20573,-0.016963,-0.27414,-0.098522,-0.00019077
149,-0.04985,0.18825,-0.19324,-0.0064392,-0.22941,-0.099838,-0.0008485
150,-0.016963,0.58519,-0.18008,0.0030979,-0.18008,-0.098193,-0.0090702
151,0.010333,0.98838,-0.15311,0.011648,-0.13108,-0.09326,-0.024198
152,0.029736,1.3827,-0.097207,0.01987,-0.088656,-0.091287,-0.039984
153,0.044535,1.7576,-0.002164,0.032038,-0.051494,-0.092274,-0.04985
154,0.057032,2.0963,0.12873,0.052099,-0.015319,-0.089972,-0.047548
155,0.068871,2.365,0.26948,0.078737,0.027105,-0.082408,-0.032091
156,0.081368,2.5285,0.3836,0.10406,0.077093,-0.07024,-0.013017
157,0.096825,2.5719,0.44411,0.12116,0.12905,-0.056427,-0.0011774
158,0.11294,2.5045,0.44345,0.13037,0.17181,-0.042944,-0.0018351
159,0.12478,2.3469,0.39774,0.13136,0.1991,-0.032749,-0.014003
160,0.13267,2.123,0.32736,0.12675,0.21883,-0.028802,-0.031104
161,0.13958,1.8507,0.25304,0.11853,0.24054,-0.027158,-0.045574
162,0.14254,1.5438,0.18693,0.11097,0.26849,-0.019265,-0.053138
163,0.13563,1.2114,0.133,0.10472,0.29941,-0.0008485,-0.059058
164,0.11557,0.87098,0.089261,0.10143,0.31552,0.030723,-0.059058
165,0.082355,0.53323,0.049139,0.10406,0.30237,0.072818,-0.054125
166,0.041575,0.21522,0.0070443,0.11327,0.256,0.12248,-0.044588
167,0.0047422,-0.066293,-0.039984,0.12313,0.18957,0.1695,-0.033406
168,-0.024198,-0.29453,-0.087998,0.13497,0.133,0.20831,-0.022225
169,-0.038011,-0.46028,-0.13864,0.14648,0.11491,0.24054,-0.012359
170,-0.041299,-0.57735,-0.19521,0.15109,0.14879,0.26488,-0.0047949
171,-0.035708,-0.67568,-0.25737,0.14747,0.23166,0.28165,0.0063866
172,-0.024198,-0.77237,-0.31952,0.13728,0.34315,0.29086,0.019212
173,-0.01203,-0.86413,-0.36918,0.12478,0.45233,0.2902,0.032696
174,-0.0077547,-0.92793,-0.3945,0.10965,0.53323,0.28165,0.044206
175,-0.018936,-0.94305,-0.3945,0.091892,0.5727,0.26685,0.048153
176,-0.04393,-0.90852,-0.36852,0.073476,0.57303,0.24482,0.044206
177,-0.069911,-0.83223,-0.32084,0.05769,0.54112,0.2093,0.040918
178,-0.084052,-0.72403,-0.25704,0.041904,0.48522,0.16293,0.041575
179,-0.079448,-0.58952,-0.19225,0.026447,0.41155,0.10932,0.041247
180,-0.059387,-0.43232,-0.14062,0.015924,0.32341,0.059992,0.038287
181,-0.031433,-0.25769,-0.11201,0.014279,0.22311,0.025461,0.033354
182,-0.0041372,-0.070897,-0.10411,0.01987,0.11754,0.011648,0.027763
183,0.016253,0.12116,-0.10872,0.025461,0.013622,0.015266,0.026119
184,0.033683,0.30039,-0.11628,0.026776,-0.077146,0.02875,0.030065
185,0.048482,0.43687,-0.11727,0.021186,-0.14884,0.04618,0.039273
186,0.058676,0.50331,-0.10576,0.0077021,-0.2054,0.064267,0.04881
187,0.065254,0.49377,-0.083723,-0.011701,-0.25177,0.081368,0.054072
188,0.068214,0.42536,-0.059387,-0.031762,-0.29157,0.096167,0.050784
189,0.073147,0.32966,-0.034722,-0.046232,-0.31853,0.10965,0.037629
190,0.08367,0.2389,-0.0093991,-0.054125,-0.32544,0.12445,0.020857
191,0.095181,0.16885,0.017568,-0.053467,-0.309,0.14221,0.0067154
192,0.10439,0.12609,0.045522,-0.049192,-0.27874,0.15865,0.00046697
193,0.10768,0.11162,0.072489,-0.042944,-0.24158,0.17082,0.0011247
194,0.10176,0.11919,0.098798,-0.035708,-0.20376,0.17148,0.0057288
195,0.087288,0.13991,0.11853,-0.026829,-0.17087,0.15799,0.014937
196,0.068871,0.1672,0.12281,-0.018278,-0.14654,0.12708,0.027434
197,0.051441,0.19943,0.10998,-0.013345,-0.13503,0.085644,0.039931
198,0.041247,0.23758,0.092221,-0.014003,-0.1347,0.04026,0.045522
199,0.041247,0.27803,0.089919,-0.019923,-0.13864,-0.0011774,0.047824
200,0.047166,0.31815,0.11985,-0.031104,-0.13634,-0.036037,0.045522
201,0.054072,0.35762,0.18463,-0.040641,-0.12516,-0.063333,0.039931
202,0.060979,0.39741,0.27606,-0.039655,-0.11135,-0.087341,0.032038
203,0.070187,0.42799,0.37439,-0.027487,-0.10839,-0.11266,0.027434
204,0.082026,0.44279,0.44838,-0.011372,-0.12384,-0.14325,0.027763
205,0.094194,0.44181,0.47601,-0.0011774,-0.15081,-0.17252,0.033025
206,0.10011,0.42898,0.44641,-0.00051963,-0.17942,-0.19554,0.041575
207,0.10077,0.40859,0.37702,-0.0054526,-0.20113,-0.20705,0.055388
208,0.099456,0.38195,0.29711,-0.012688,-0.21264,-0.20869,0.074791
209,0.097483,0.35466,0.23232,-0.021896,-0.21593,-0.20738,0.096496
210,0.092879,0.32572,0.19285,-0.034393,-0.21001,-0.1985,0.11327
211,0.083342,0.29447,0.17608,-0.048205,-0.1906,-0.17252,0.12149
212,0.066569,0.2606,0.17575,-0.055769,-0.15443,-0.12812,0.11853
213,0.050455,0.22739,0.18233,-0.051823,-0.095562,-0.071555,0.11031
214,0.04026,0.19943,0.18693,-0.038339,-0.010715,-0.013017,0.10143
215,0.036314,0.1751,0.18463,-0.018607,0.088603,0.038616,0.098141
216,0.034011,0.14977,0.17411,0.0001381,0.18661,0.079724,0.10472
217,0.026119,0.11886,0.15602,0.01691,0.26093,0.1113,0.1159
218,0.010991,0.085315,0.13596,0.02875,0.29447,0.12971,0.12346
219,-0.0034794,0.052099,0.11623,0.032367,0.27507,0.13366,0.12478
220,-0.0097279,0.025461,0.095839,0.029078,0.2093,0.12905,0.11952
221,-0.0087413,0.0060577,0.078737,0.028092,0.11853,0.11952,0.10998
222,-0.0008485,-0.0067681,0.067885,0.033683,0.032696,0.10899,0.10176
223,0.010991,-0.01795,0.061636,0.041575,-0.019923,0.10274,0.097483
224,0.026447,-0.028802,0.058019,0.047166,-0.019923,0.10406,0.096825
225,0.039273,-0.038011,0.052428,0.04026,0.033683,0.10603,0.099127
226,0.045193,-0.04097,0.042233,0.023817,0.11623,0.1057,0.10011
227,0.042233,-0.042615,0.026776,0.0060577,0.18693,0.099127,0.098469
228,0.036314,-0.051823,0.0014536,-0.0061104,0.20667,0.085315,0.095839
229,0.033025,-0.072213,-0.0265,-0.011372,0.1649,0.062294,0.096825
230,0.033025,-0.099838,-0.046561,-0.013674,0.072818,0.031709,0.099785
231,0.035327,-0.12352,-0.054125,-0.015319,-0.038997,-0.0024928,0.096496
232,0.03434,-0.13733,-0.052152,-0.017621,-0.13667,-0.037024,0.087946
233,0.029078,-0.13799,-0.047877,-0.017621,-0.19455,-0.06728,0.077422
234,0.02283,-0.13568,-0.046561,-0.0097279,-0.20343,-0.091287,0.065583
235,0.018226,-0.13404,-0.052152,0.0050711,-0.17186,-0.10872,0.053086
236,0.021843,-0.13996,-0.057085,0.02283,-0.11595,-0.11793,0.04322
237,0.035656,-0.15081,-0.056427,0.041575,-0.051165,-0.11924,0.039602
238,0.049797,-0.1666,-0.045903,0.060979,0.0054,-0.11661,0.041575
239,0.059005,-0.18501,-0.028802,0.079395,0.029078,-0.11398,0.04618
240,0.059663,-0.19784,-0.0097279,0.095839,0.0021113,-0.11332,0.04881
241,0.058019,-0.19948,0.0086887,0.10899,-0.078461,-0.11497,0.051113
242,0.056703,-0.19126,0.024803,0.11721,-0.1906,-0.11727,0.049468
243,0.055059,-0.18041,0.035327,0.12379,-0.30143,-0.11727,0.042891
244,0.047824,-0.17482,0.041247,0.12741,-0.37806,-0.11464,0.03434
245,0.032696,-0.18008,0.044864,0.12774,-0.40404,-0.10905,0.028092
246,0.014279,-0.19685,0.044535,0.12905,-0.38628,-0.097207,0.030723
247,-0.0041372,-0.2202,0.038616,0.13563,-0.33761,-0.075501,0.032367
248,-0.022883,-0.24257,0.027763,0.14616,-0.28335,-0.054783,0.025461
249,-0.046232,-0.25769,0.015266,0.15668,-0.24158,-0.042944,0.01132
250,-0.071884,-0.26592,0.0070443,0.1649,-0.2202,-0.040641,-0.004466
251,-0.087669,-0.26822,0.0011247,0.16983,-0.21264,-0.044588,-0.016634
252,-0.086683,-0.26789,-0.0018351,0.16852,-0.20343,-0.047877,-0.024198
253,-0.07024,-0.2669,-0.00019077,0.16063,-0.1735,-0.045574,-0.024856
254,-0.047548,-0.26723,0.0060577,0.14879,-0.11431,-0.033078,-0.021238
255,-0.030447,-0.27085,0.01132,0.13662,-0.032749,-0.0080836,-0.015976
256,-0.023869,-0.27677,0.01132,0.12708,0.046837,0.020528,-0.010386
257,-0.025185,-0.28631,0.0070443,0.1182,0.10307,0.041247,-0.004466
258,-0.028144,-0.29486,0.0011247,0.10505,0.11491,0.046837,0.00079584
259,-0.027158,-0.29453,-0.0061104,0.08367,0.084657,0.037958,0.0034268
260,-0.022883,-0.28466,-0.015976,0.056046,0.027763,0.018884,0.0017824
261,-0.016963,-0.26723,-0.025185,0.029407,-0.0265,-0.0090702,-0.004466
262,-0.017292,-0.24881,-0.027816,0.012306,-0.056427,-0.038668,-0.016305
263,-0.026171,-0.23336,-0.025842,0.0096753,-0.05281,-0.062347,-0.035708
264,-0.038668,-0.22744,-0.02354,0.01987,-0.017621,-0.075173,-0.060045
265,-0.054454,-0.23303,-0.021896,0.040918,0.039273,-0.078132,-0.089972
266,-0.069911,-0.24585,-0.018278,0.062623,0.10472,-0.07583,-0.12187
267,-0.081421,-0.25441,-0.011043,0.076764,0.17115,-0.074844,-0.15213
268,-0.086025,-0.25177,-0.0008485,0.08367,0.24284,-0.07583,-0.17745
269,-0.087341,-0.23829,0.016253,0.087946,0.32966,-0.078132,-0.19455
270,-0.085367,-0.22251,0.035985,0.09255,0.42668,-0.077475,-0.19422
271,-0.075173,-0.20902,0.052428,0.094194,0.51449,-0.070897,-0.17712
272,-0.061689,-0.20146,0.057361,0.091563,0.56776,-0.060045,-0.14917
273,-0.051494,-0.19883,0.049139,0.087288,0.56546,-0.04689,-0.11398
274,-0.046232,-0.19784,0.038944,0.083342,0.50298,-0.036695,-0.080434
275,-0.043272,-0.18995,0.030394,0.078409,0.40037,-0.033078,-0.050836
276,-0.037353,-0.17416,0.028421,0.070187,0.28691,-0.033406,-0.031433
277,-0.023211,-0.15476,0.032367,0.05769,0.18595,-0.034064,-0.020581
278,-0.0038083,-0.13799,0.041575,0.044206,0.11623,-0.027487,-0.016963
279,0.014937,-0.12417,0.054401,0.031052,0.087288,-0.0097279,-0.019923
280,0.029407,-0.11168,0.06624,0.01987,0.092221,0.012635,-0.030118
281,0.039602,-0.09918,0.068871,0.010991,0.11557,0.032696,-0.042615
282,0.051441,-0.088656,0.060979,0.0037556,0.13695,0.045193,-0.055769
283,0.061965,-0.080763,0.047166,-0.00051963,0.13859,0.052757,-0.062018
284,0.07512,-0.076817,0.031052,-0.0008485,0.1113,0.05769,-0.06136
285,0.086959,-0.07583,0.020199,0.0014536,0.052757,0.069529,-0.054783
286,0.094194,-0.076159,0.014279,0.0083598,-0.024198,0.091563,-0.04689
287,0.09551,-0.073857,0.0096753,0.018555,-0.094905,0.12445,-0.040641
288,0.090577,-0.067937,0.0060577,0.02283,-0.13799,0.16194,-0.034393
289,0.085972,-0.057743,0.0070443,0.017568,-0.14193,0.20108,-0.028473
290,0.086301,-0.041957,0.012306,0.0037556,-0.11233,0.23429,-0.020909
291,0.08959,-0.020909,0.02283,-0.015648,-0.060045,0.26159,-0.0067681
292,0.097154,0.0011247,0.033354,-0.039326,-0.0034794,0.27869,0.016253
293,0.10965,0.020199,0.043549,-0.06728,0.045851,0.28264,0.041575
294,0.12938,0.034669,0.050126,-0.093918,0.088932,0.27704,0.06361
295,0.14714,0.063281,0.050784,-0.11497,0.1284,0.26422,0.078737
296,0.15832,0.14287,0.047166,-0.13174,0.15931,0.24646,0.093865
297,0.16424,0.29119,0.042562,-0.14193,0.17641,0.22739,0.11195
298,0.16556,0.47996,0.039602,-0.1416,0.17773,0.20601,0.12971
299,0.16227,0.66313,0.039602,-0.13272,0.15865,0.18036,0.14024
300,0.15438,0.79468,0.036971,-0.11825,0.12478,0.1501,0.13991
301,0.14155,0.84204,0.025461,-0.10378,0.084328,0.11689,0.12905
302,0.12905,0.80093,0.0073732,-0.0903,0.046837,0.08663,0.11261
303,0.12215,0.68583,-0.010715,-0.078132,0.020199,0.062623,0.095181
304,0.12017,0.51975,-0.024856,-0.063333,0.0070443,0.04618,0.078737
305,0.11787,0.32703,-0.033078,-0.045574,0.0017824,0.037629,0.065583
306,0.11162,0.12774,-0.036366,-0.030447,-0.00051963,0.036642,0.059334
307,0.098141,-0.061689,-0.038011,-0.020581,-0.0057815,0.041904,0.057032
308,0.075449,-0.22842,-0.04097,-0.014003,-0.020252,0.052428,0.056046
309,0.052428,-0.36622,-0.04689,-0.007097,-0.041628,0.06624,0.061965
310,0.034669,-0.47869,-0.053796,0.0030979,-0.066622,0.080053,0.070516
311,0.027434,-0.56584,-0.060373,0.020528,-0.092931,0.091563,0.076106
312,0.030065,-0.62668,-0.065635,0.042233,-0.11398,0.095839,0.077751
313,0.036971,-0.6576,-0.068266,0.067556,-0.12121,0.097483,0.072818
314,0.036971,-0.65891,-0.068266,0.08959,-0.10609,0.10636,0.059992
315,0.027105,-0.63096,-0.067937,0.10439,-0.069253,0.13037,0.04322
316,0.011977,-0.57374,-0.07024,0.11228,-0.013345,0.16194,0.030723
317,-0.00019077,-0.48889,-0.073199,0.11491,0.051113,0.19318,0.026119
318,-0.0067681,-0.38661,-0.075501,0.11228,0.11458,0.21555,0.02875
319,-0.0087413,-0.27775,-0.073528,0.10801,0.17181,0.22574,0.039602
320,-0.0047949,-0.1712,-0.06432,0.10274,0.2287,0.22508,0.058019
321,0.0014536,-0.055769,-0.047219,0.098141,0.29316,0.21818,0.079395
322,0.010333,0.10669,-0.018936,0.093865,0.35597,0.20667,0.10044
323,0.024145,0.38689,0.017568,0.088275,0.40103,0.18989,0.11228
324,0.045522,0.81935,0.057032,0.078409,0.41846,0.16556,0.10866
325,0.069858,1.3574,0.094523,0.06361,0.40859,0.13432,0.090577
326,0.087946,1.9056,0.12313,0.049468,0.37899,0.10011,0.068871
327,0.097483,2.3654,0.13563,0.04026,0.33821,0.067556,0.048482
328,0.097154,2.658,0.13333,0.041247,0.29151,0.036642,0.038287
329,0.087288,2.7498,0.11853,0.048153,0.23626,0.0093464,0.039273
330,0.071831,2.6373,0.094852,0.055388,0.16918,-0.0097279,0.046837
331,0.05769,2.3545,0.064925,0.059992,0.089919,-0.018936,0.055388
332,0.045851,1.972,0.031052,0.058348,0.0060577,-0.022883,0.06361
333,0.034011,1.5567,-0.00019077,0.04881,-0.071555,-0.024856,0.073804
334,0.024803,1.1265,-0.021896,0.036971,-0.13042,-0.026829,0.085972
335,0.026119,0.64735,-0.033406,0.031381,-0.16035,-0.027158,0.099127
336,0.039273,0.082355,-0.03538,0.03434,-0.16166,-0.0265,0.10998
337,0.059005,-0.55696,-0.033406,0.044864,-0.14785,-0.025514,0.11985
338,0.073804,-1.2131,-0.036037,0.056046,-0.13799,-0.027158,0.12971
339,0.067885,-1.8231,-0.059058,0.065912,-0.14292,-0.038011,0.13826
340,0.033683,-2.3411,-0.10872,0.071173,-0.1643,-0.058729,0.14024
341,-0.023211,-2.7351,-0.17482,0.073804,-0.20212,-0.085367,0.13432
342,-0.086025,-2.9705,-0.23204,0.072818,-0.24947,-0.11036,0.11853
343,-0.13733,-3.0281,-0.25605,0.067556,-0.2942,-0.13042,0.097154
344,-0.16758,-2.8988,-0.2373,0.056046,-0.32873,-0.14358,0.080053
345,-0.17745,-2.5874,-0.18962,0.038944,-0.34879,-0.15279,0.074791
346,-0.17449,-2.124,-0.137,0.017568,-0.35339,-0.15969,0.075778
347,-0.16101,-1.5748,-0.09918,-0.0064392,-0.34879,-0.16495,0.078737
348,-0.14062,-1.0259,-0.07879,-0.024527,-0.34156,-0.16857,0.079066
349,-0.11595,-0.56453,-0.068266,-0.030775,-0.34024,-0.16923,0.076106
350,-0.091616,-0.25243,-0.058729,-0.02354,-0.34451,-0.16923,0.074462
351,-0.071555,-0.10707,-0.044588,-0.0090702,-0.35504,-0.17087,0.07512
352,-0.059387,-0.10411,-0.025185,0.0044134,-0.3649,-0.17087,0.074133
353,-0.049192,-0.19685,-0.0008485,0.013951,-0.36951,-0.16265,0.070845
354,-0.040641,-0.33465,0.028421,0.018555,-0.36655,-0.14292,0.064596
355,-0.034393,-0.4708,0.059992,0.022172,-0.35438,-0.11497,0.056703
356,-0.033078,-0.57604,0.086301,0.026776,-0.33761,-0.085696,0.044864
357,-0.037682,-0.63754,0.10899,0.033683,-0.32182,-0.057085,0.033354
358,-0.04689,-0.65233,0.12741,0.041247,-0.31097,-0.029131,0.023488
359,-0.056427,-0.62076,0.14056,0.045193,-0.30439,-0.0041372,0.014279
360,-0.063662,-0.54545,0.14977,0.040918,-0.29683,0.018555,0.0063866
361,-0.063991,-0.43495,0.15569,0.027105,-0.27808,0.04026,0.0017824
362,-0.054783,-0.29979,0.15635,0.010991,-0.23928,0.064925,0.0047422
363,-0.036366,-0.15838,0.14681,-0.00019077,-0.17285,0.090577,0.012635
364,-0.01795,-0.026171,0.12675,-0.0008485,-0.071555,0.11162,0.018884
365,-0.0077547,0.08959,0.10209,0.0063866,0.069858,0.12379,0.018555
366,-0.0061104,0.19812,0.081697,0.015595,0.25271,0.12938,0.014608
367,-0.0090702,0.31421,0.071173,0.02579,0.48653,0.12905,0.012306
368,-0.011372,0.46812,0.072489,0.040589,0.75752,0.12609,0.015595
369,-0.0077547,0.69569,0.080711,0.054401,1.018,0.12511,0.023817
370,0.0073732,1.0193,0.090905,0.062952,1.2087,0.12116,0.035327
371,0.036642,1.4294,0.1034,0.062294,1.286,0.11458,0.047166
372,0.076106,1.8878,0.11754,0.055388,1.2446,0.10669,0.056374
373,0.11557,2.3394,0.13793,0.050455,1.1081,0.095181,0.061307
374,0.1455,2.7163,0.1626,0.048482,0.91998,0.079066,0.061965
375,0.1603,2.9619,0.18693,0.050784,0.72134,0.059005,0.060979
376,0.16194,3.053,0.20371,0.053743,0.53981,0.037958,0.059005
377,0.15503,2.9886,0.20798,0.058019,0.38754,0.013293,0.057032
378,0.1455,2.7876,0.1991,0.059663,0.26619,-0.015319,0.052757
379,0.13826,2.4828,0.182,0.053086,0.16589,-0.048534,0.039602
380,0.13136,2.1069,0.15898,0.039273,0.076435,-0.078132,0.020528
381,0.11886,1.6783,0.13103,0.02283,-0.0077547,-0.095562,0.0001381
382,0.1011,1.2058,0.10176,0.0090175,-0.086683,-0.097207,-0.014003
383,0.086301,0.69635,0.084657,0.0030979,-0.15607,-0.08471,-0.015648
384,0.077751,0.1603,0.085315,0.0063866,-0.20836,-0.062347,-0.010386
385,0.077093,-0.38431,0.10274,0.018884,-0.23796,-0.039326,-0.0084125
386,0.077751,-0.91346,0.12313,0.036314,-0.24289,-0.018278,-0.013674
387,0.075449,-1.4041,0.13201,0.054072,-0.22875,-0.00019077,-0.025185
388,0.068543,-1.8238,0.12116,0.066569,-0.21132,0.0086887,-0.037024
389,0.054072,-2.1437,0.091892,0.069858,-0.20244,0.0080309,-0.045903
390,0.03434,-2.3476,0.054401,0.067885,-0.20047,0.0021113,-0.050507
391,0.0073732,-2.4312,0.010991,0.059663,-0.19455,-0.0038083,-0.051494
392,-0.0265,-2.3966,-0.032091,0.04618,-0.17942,-0.0084125,-0.05544
393,-0.063333,-2.2437,-0.072213,0.030723,-0.14884,-0.015319,-0.066951
394,-0.097536,-1.9543,-0.10017,0.018555,-0.10346,-0.022883,-0.083065
395,-0.12319,-1.5146,-0.11003,0.013293,-0.052152,-0.029131,-0.09622
396,-0.13009,-0.94174,-0.098193,0.018555,-0.011372,-0.034393,-0.10214
397,-0.11398,-0.29354,-0.068924,0.032696,0.010662,-0.039326,-0.099838
398,-0.083723,0.33788,-0.031433,0.053086,0.014937,-0.039655,-0.093589
399,-0.048863,0.85289,0.0017824,0.072489,0.0086887,-0.037024,-0.086354
400,-0.019265,1.1913,0.024803,0.083013,-0.0038083,-0.035051,-0.08175
401,0.0017824,1.3344,0.04026,0.084328,-0.024856,-0.039326,-0.080106
402,0.01987,1.3071,0.049468,0.080711,-0.052152,-0.04985,-0.080434
403,0.042562,1.1587,0.05769,0.072489,-0.0903,-0.056427,-0.074844
404,0.07512,0.93708,0.073147,0.060979,-0.13601,-0.053467,-0.063333
405,0.11162,0.67826,0.098141,0.053415,-0.18666,-0.038339,-0.045903
406,0.14517,0.41221,0.12642,0.054401,-0.23533,-0.01203,-0.021567
407,0.16293,0.15701,0.15207,0.06361,-0.27216,0.022501,0.0086887
408,0.15701,-0.077146,0.16885,0.068543,-0.29551,0.055717,0.039602
409,0.13004,-0.27052,0.17904,0.063281,-0.30768,0.081697,0.059663
410,0.089919,-0.38464,0.18891,0.050455,-0.30965,0.10143,0.06624
411,0.049139,-0.37411,0.20075,0.034669,-0.29716,0.11557,0.070187
412,0.020528,-0.22842,0.20897,0.021186,-0.27052,0.12609,0.083013
413,0.0070443,0.020199,0.207,0.013622,-0.22546,0.13826,0.10406
414,0.0050711,0.29941,0.18759,0.010004,-0.16035,0.15569,0.12511
415,0.0083598,0.5306,0.1524,0.0077021,-0.073528,0.18069,0.13859
416,0.011648,0.66642,0.11097,-0.0008485,0.023488,0.20996,0.14056
417,0.012964,0.69767,0.069529,-0.01499,0.11294,0.23626,0.13169
418,0.013293,0.64307,0.038287,-0.03242,0.18069,0.25172,0.11557
419,0.013293,0.52731,0.020528,-0.046561,0.22114,0.25205,0.098798
420,0.015266,0.37242,0.014279,-0.059058,0.23626,0.23232,0.08367
421,0.014608,0.20502,0.014608,-0.066293,0.22903,0.1945,0.069858
422,0.013951,0.050784,0.019212,-0.071555,0.19713,0.14352,0.053415
423,0.016253,-0.071226,0.025132,-0.079119,0.14583,0.093208,0.03434
424,0.023159,-0.14818,0.024803,-0.089314,0.079066,0.051113,0.017568
425,0.031052,-0.17679,0.01691,-0.098193,0.0040845,0.017568,0.0054
426,0.033354,-0.16232,0.0014536,-0.10148,-0.063333,-0.0087413,-0.002164
427,0.032038,-0.1097,-0.017292,-0.10115,-0.11497,-0.028144,-0.0018351
428,0.029407,-0.025842,-0.033735,-0.097207,-0.14621,-0.039326,0.00079584
429,0.026776,0.080382,-0.041628,-0.092603,-0.16035,-0.046232,0.0024402
430,0.021843,0.20173,-0.044259,-0.085367,-0.16824,-0.046561,0.0021113
431,0.012306,0.32572,-0.047877,-0.075501,-0.17581,-0.037024,-0.00019077
432,0.0057288,0.44115,-0.053467,-0.062676,-0.18403,-0.015319,-0.0057815
433,0.0040845,0.52633,-0.057085,-0.050507,-0.18666,0.015595,-0.014661
434,0.0093464,0.55921,-0.056756,-0.042615,-0.17975,0.048482,-0.024856
435,0.02283,0.52435,-0.052481,-0.038668,-0.16035,0.076435,-0.033078
436,0.038944,0.42339,-0.053467,-0.037682,-0.13371,0.095839,-0.041957
437,0.05177,0.2777,-0.066951,-0.033735,-0.10641,0.10603,-0.051823
438,0.058019,0.11524,-0.095233,-0.018278,-0.08175,0.11228,-0.060702
439,0.05473,-0.033735,-0.13404,0.0096753,-0.052152,0.11623,-0.059058
440,0.041904,-0.15607,-0.17613,0.04322,-0.012359,0.1205,-0.048205
441,0.021514,-0.25046,-0.20869,0.071831,0.030394,0.12544,-0.030447
442,0.0001381,-0.31821,-0.22053,0.093208,0.075449,0.13037,-0.012688
443,-0.017292,-0.35734,-0.20836,0.10866,0.12445,0.13333,-0.0008485
444,-0.025514,-0.36326,-0.17515,0.12445,0.18332,0.13169,0.0021113
445,-0.020909,-0.33498,-0.12121,0.13958,0.25468,0.12215,0.0040845
446,-0.0064392,-0.28071,-0.050836,0.15471,0.33525,0.10538,0.0090175
447,0.013951,-0.21659,0.024474,0.17148,0.42602,0.085315,0.014608
448,0.035985,-0.15509,0.08959,0.19285,0.53093,0.066898,0.017568
449,0.057361,-0.10181,0.13793,0.21851,0.64373,0.049139,0.019212
450,0.07512,-0.059716,0.16589,0.24547,0.73483,0.031709,0.020199
451,0.084986,-0.02946,0.17608,0.26751,0.76804,0.011977,0.022172
452,0.08663,-0.0038083,0.17806,0.28231,0.72496,-0.011043,0.027434
453,0.083013,0.027105,0.17444,0.28855,0.61578,-0.035051,0.040589
454,0.080711,0.071173,0.15602,0.29151,0.47371,-0.063004,0.063938
455,0.083013,0.12774,0.11491,0.28987,0.33624,-0.090958,0.090248
456,0.09255,0.18661,0.059663,0.28132,0.23232,-0.11661,0.10932
457,0.10801,0.24054,0.0047422,0.26389,0.1695,-0.12878,0.1159
458,0.12544,0.28231,-0.045903,0.24284,0.13201,-0.12286,0.1113
459,0.13695,0.30763,-0.10477,0.22673,0.10044,-0.1028,0.10538
460,0.13464,0.31585,-0.19356,0.2116,0.061307,-0.082079,0.10242
461,0.11721,0.30894,-0.32051,0.19088,0.0073732,-0.068595,0.10669
462,0.085972,0.28592,-0.46685,0.15931,-0.053467,-0.066622,0.11623
463,0.046837,0.25271,-0.59709,0.11919,-0.10872,-0.071226,0.12379
464,0.011648,0.21423,-0.677,0.073147,-0.15805,-0.076488,0.12478
465,-0.010386,0.17838,-0.68489,0.027434,-0.20705,-0.075173,0.11557
466,-0.016305,0.14681,-0.62076,-0.01203,-0.25441,-0.068266,0.098141
467,-0.013345,0.11919,-0.50763,-0.041628,-0.29321,-0.060702,0.075778
468,-0.011043,0.095181,-0.37411,-0.0584,-0.32708,-0.05544,0.055388
469,-0.013345,0.07512,-0.23467,-0.066293,-0.36227,-0.05281,0.045522
470,-0.020581,0.056046,-0.094247,-0.067937,-0.40075,-0.051494,0.047495
471,-0.031104,0.036314,0.044206,-0.062018,-0.43693,-0.05544,0.059005
472,-0.041299,0.017568,0.1797,-0.046561,-0.45995,-0.066951,0.068543
473,-0.044259,0.0063866,0.30138,-0.023869,-0.44909,-0.082408,0.068543
474,-0.037024,0.0017824,0.39445,0.0034268,-0.38464,-0.098851,0.058019
475,-0.019265,-0.00051963,0.44608,0.029407,-0.25441,-0.11036,0.041904
476,0.002769,-0.0061104,0.45562,0.044206,-0.071884,-0.11036,0.030394
477,0.021843,-0.012688,0.44181,0.046508,0.1205,-0.094905,0.02579
478,0.032038,-0.016305,0.43161,0.035656,0.27474,-0.062347,0.027763
479,0.030394,-0.015319,0.4474,0.023488,0.3563,-0.020581,0.033025
480,0.021843,-0.013017,0.4941,0.018884,0.35663,0.023159,0.037958
481,0.0093464,-0.015319,0.55099,0.023488,0.30138,0.0692,0.038616
482,-0.0015062,-0.0265,0.58223,0.033683,0.2264,0.11721,0.030723
483,-0.0051238,-0.044588,0.5602,0.043549,0.16589,0.16885,0.015266
484,0.0001381,-0.065307,0.48259,0.047495,0.13234,0.21588,-0.0028217
485,0.0057288,-0.081421,0.37702,0.046508,0.12083,0.25041,-0.016963
486,0.0093464,-0.087669,0.27606,0.048153,0.11393,0.26652,-0.0265
487,0.012635,-0.086354,0.19746,0.058019,0.098141,0.26521,-0.031433
488,0.017897,-0.080763,0.14451,0.073147,0.068871,0.25238,-0.03242
489,0.021514,-0.080434,0.10603,0.078409,0.028421,0.2389,-0.029789
490,0.018884,-0.092931,0.07216,0.067227,-0.015976,0.2264,-0.027158
491,0.010662,-0.11168,0.0373,0.038616,-0.056098,0.2139,-0.030118
492,0.0011247,-0.13042,0.0040845,0.0034268,-0.090629,0.19285,-0.035051
493,-0.0074258,-0.14489,-0.022554,-0.032749,-0.12089,0.16194,-0.034722
494,-0.010715,-0.15443,-0.036366,-0.063004,-0.15081,0.11886,-0.026171
495,-0.0080836,-0.16068,-0.036037,-0.079119,-0.17778,0.062294,-0.0093991
496,-0.002164,-0.16166,-0.023211,-0.078461,-0.19981,0.0024402,0.012635
497,0.002769,-0.16035,-0.0087413,-0.064978,-0.21264,-0.044259,0.038287
498,0.0054,-0.15838,-0.0015062,-0.047877,-0.20902,-0.069911,0.059992
499,0.0060577,-0.1541,-0.002164,-0.037024,-0.18896,-0.074515,0.072818
500,0.0040845,-0.14851,-0.0093991,-0.031762,-0.15377,-0.06432,0.076435
501,-0.00019077,-0.14127,-0.019594,-0.030118,-0.11661,-0.04985,0.07808
502,-0.002164,-0.1347,-0.028802,-0.028144,-0.088656,-0.038668,0.07808
503,-0.002164,-0.13207,-0.038011,-0.023211,-0.075173,-0.038997,0.073147
504,0.00046697,-0.13536,-0.04985,-0.01795,-0.072213,-0.047219,0.062952
505,0.0044134,-0.14522,-0.059387,-0.013017,-0.066293,-0.053467,0.046837
506,0.0070443,-0.15805,-0.065635,-0.0067681,-0.043272,-0.047548,0.022172
507,0.0017824,-0.16824,-0.069911,0.002769,-0.0034794,-0.031433,-0.0051238
508,-0.012359,-0.17482,-0.073857,0.014279,0.040589,-0.014003,-0.027816
509,-0.028802,-0.17942,-0.079448,0.024474,0.066569,-0.0051238,-0.038011
510,-0.043272,-0.18205,-0.081421,0.030394,0.062294,-0.0077547,-0.036695
511,-0.053467,-0.18271,-0.083723,0.028421,0.024474,-0.016634,-0.03242
512,-0.059716,-0.18337,-0.083394,0.01987,-0.034064,-0.028802,-0.035708
513,-0.059387,-0.1883,-0.082079,0.0063866,-0.091616,-0.040313,-0.041299
514,-0.052152,-0.1962,-0.081421,-0.0074258,-0.12582,-0.04689,-0.043601
515,-0.040641,-0.2031,-0.081092,-0.017292,-0.12746,-0.048205,-0.044588
516,-0.029131,-0.19948,-0.08175,-0.025514,-0.098851,-0.046561,-0.043601
517,-0.016963,-0.1837,-0.082408,-0.034722,-0.051165,-0.047548,-0.039984
518,-0.0015062,-0.16002,-0.081421,-0.042615,0.0011247,-0.047877,-0.02946
519,0.013622,-0.13667,-0.07879,-0.050507,0.046837,-0.048863,-0.01795
520,0.02579,-0.1176,-0.073199,-0.062018,0.084328,-0.047877,-0.0064392
521,0.032696,-0.10411,-0.066622,-0.073528,0.12412,-0.045246,0.0037556
522,0.031709,-0.097207,-0.062676,-0.079448,0.19154,-0.039655,0.010662
523,0.025461,-0.092931,-0.063004,-0.078132,0.29382,-0.028802,0.013293
524,0.021186,-0.086683,-0.062676,-0.073857,0.41221,-0.01203,0.010991
525,0.023817,-0.077146,-0.05544,-0.065635,0.51284,0.0080309,0.0047422
526,0.035327,-0.063662,-0.041957,-0.050836,0.56349,0.030394,-0.00019077
527,0.053415,-0.045903,-0.023869,-0.028473,0.54343,0.05177,-0.00051963
528,0.064267,-0.020252,-0.0038083,-0.0064392,0.45529,0.067227,0.0034268
529,0.068214,0.016581,0.011977,0.0083598,0.32243,0.071173,0.0060577
530,0.066569,0.064596,0.014608,0.016253,0.17378,0.061965,0.0044134
531,0.062623,0.11886,-0.0018351,0.018884,0.041904,0.044864,0.0057288
532,0.061307,0.17575,-0.027816,0.019541,-0.050179,0.02875,0.012964
533,0.064925,0.23133,-0.057085,0.018884,-0.098193,0.022501,0.029736
534,0.070516,0.29349,-0.082736,0.018226,-0.11135,0.030065,0.049139
535,0.073476,0.38097,-0.099838,0.021186,-0.10477,0.049468,0.064596
536,0.071502,0.51712,-0.10247,0.02875,-0.091945,0.072818,0.070845
537,0.061636,0.69898,-0.090958,0.036971,-0.082079,0.093208,0.067227
538,0.049468,0.89137,-0.07287,0.040589,-0.077146,0.1034,0.057032
539,0.038944,1.0423,-0.058071,0.040918,-0.075173,0.10044,0.04322
540,0.035656,1.1074,-0.046232,0.039273,-0.07024,0.083342,0.032038
541,0.039602,1.0736,-0.032749,0.035656,-0.059716,0.059992,0.025461
542,0.049468,0.96997,-0.016305,0.032696,-0.048863,0.0373,0.024145
543,0.056374,0.84007,0.0060577,0.026447,-0.045246,0.01691,0.027105
544,0.05473,0.70655,0.032038,0.015595,-0.049521,-0.0041372,0.036971
545,0.047495,0.56809,0.06065,-0.00051963,-0.062676,-0.027487,0.052757
546,0.037629,0.403,0.089261,-0.018278,-0.083065,-0.049192,0.068543
547,0.027763,0.19351,0.11721,-0.033406,-0.10609,-0.065964,0.075778
548,0.018226,-0.0584,0.14484,-0.041957,-0.12615,-0.078461,0.073804
549,0.011977,-0.33695,0.16753,-0.043601,-0.137,-0.088985,0.065912
550,0.011977,-0.62734,0.18397,-0.036695,-0.12878,-0.097207,0.058348
551,0.014608,-0.89668,0.19351,-0.024198,-0.10444,-0.10214,0.056046
552,0.016581,-1.0963,0.18825,-0.0051238,-0.074515,-0.10214,0.058019
553,0.015266,-1.1999,0.16589,0.017568,-0.051494,-0.094247,0.059334
554,0.010004,-1.2226,0.12741,0.039602,-0.038339,-0.076159,0.058348
555,0.0011247,-1.2101,0.081697,0.058676,-0.028144,-0.049192,0.057361
556,-0.014332,-1.2081,0.039602,0.071502,-0.011701,-0.021238,0.059005
557,-0.027487,-1.2318,0.014279,0.072489,0.0057288,0.0024402,0.060979
558,-0.030775,-1.2634,0.0073732,0.062294,0.020199,0.01987,0.059334
559,-0.018936,-1.2594,0.011977,0.045522,0.024803,0.029736,0.054072
560,0.0024402,-1.1673,0.014937,0.025461,0.019212,0.029407,0.048482
561,0.023817,-0.97561,0.010004,0.0090175,-0.00019077,0.020199,0.048153
562,0.036642,-0.726,-0.0077547,0.0050711,-0.0265,0.0080309,0.054401
563,0.038287,-0.48757,-0.033406,0.012635,-0.057085,-0.0038083,0.064267
564,0.02875,-0.32149,-0.063662,0.026776,-0.084381,-0.014661,0.074462
565,0.01132,-0.26032,-0.093918,0.041575,-0.10641,-0.026171,0.080711
566,-0.010057,-0.3113,-0.12516,0.050455,-0.12121,-0.032091,0.076764
567,-0.029789,-0.45041,-0.15114,0.053086,-0.13601,-0.026171,0.063938
568,-0.046232,-0.63655,-0.15969,0.056046,-0.16134,-0.0047949,0.045522
569,-0.0584,-0.81216,-0.14226,0.061965,-0.1985,0.025461,0.031381
570,-0.061689,-0.92069,-0.098851,0.070845,-0.24618,0.056374,0.027105
571,-0.055769,-0.93713,-0.037353,0.085315,-0.2965,0.081697,0.035985
572,-0.041628,-0.8707,0.028092,0.1034,-0.33629,0.10044,0.049139
573,-0.025514,-0.75724,0.084328,0.12248,-0.34879,0.1136,0.06065
574,-0.014661,-0.628,0.12577,0.14122,-0.32084,0.12379,0.070187
575,-0.01499,-0.49842,0.1501,0.15931,-0.24881,0.13432,0.075778
576,-0.021896,-0.36721,0.15701,0.17279,-0.13996,0.14846,0.079395
577,-0.028802,-0.23204,0.1501,0.18036,0.0047422,0.17115,0.083999
578,-0.033406,-0.10313,0.13169,0.18069,0.19154,0.20305,0.089919
579,-0.032749,0.012964,0.10636,0.17542,0.40826,0.23857,0.096825
580,-0.027816,0.11919,0.080053,0.16654,0.6092,0.27145,0.10768
581,-0.019594,0.22377,0.056703,0.15602,0.74831,0.29415,0.11853
582,-0.010057,0.32144,0.039931,0.14714,0.80981,0.29809,0.12379
583,-0.0028217,0.40991,0.034011,0.1478,0.80915,0.28132,0.12149
584,0.0063866,0.48357,0.038616,0.15273,0.78087,0.24942,0.11689
585,0.020857,0.53751,0.048153,0.16128,0.75259,0.20963,0.11195
586,0.04026,0.56382,0.056374,0.17115,0.73088,0.16885,0.10768
587,0.062294,0.55165,0.057032,0.18003,0.71477,0.13201,0.10077
588,0.079395,0.49278,0.04881,0.18266,0.69471,0.10406,0.090248
589,0.089261,0.38886,0.035985,0.17575,0.65656,0.088603,0.079395
590,0.093208,0.25896,0.023159,0.15799,0.58848,0.084328,0.07512
591,0.092221,0.13859,0.013293,0.13234,0.4941,0.090577,0.076106
592,0.090248,0.063938,0.0096753,0.10274,0.3813,0.10669,0.077422
593,0.091234,0.061965,0.01132,0.074133,0.26356,0.13004,0.075449
594,0.094852,0.14056,0.016581,0.049139,0.16063,0.15767,0.0692
595,0.098141,0.28888,0.021514,0.030723,0.084657,0.1843,0.062952
596,0.10077,0.477,0.026447,0.016581,0.04026,0.20338,0.062294
597,0.10505,0.66971,0.0373,0.0047422,0.028092,0.21028,0.067227
598,0.11195,0.83941,0.053743,-0.00051963,0.040589,0.19976,0.072818
599,0.12116,0.96635,0.072489,-0.00051963,0.066898,0.17674,0.070845
600,0.12905,1.0473,0.085972,0.0047422,0.088603,0.1501,0.059334
601,0.133,1.0893,0.091563,0.014279,0.094852,0.12807,0.043549
602,0.13596,1.1048,0.09255,0.024474,0.082026,0.11228,0.028421
603,0.13826,1.1015,0.092879,0.031381,0.047824,0.10176,0.018555
604,0.13892,1.0897,0.096496,0.02579,-0.0061104,0.087617,0.011977
605,0.13859,1.0811,0.10143,0.010662,-0.071555,0.06361,0.0060577
606,0.13826,1.0828,0.10801,-0.0090702,-0.13338,0.02875,-0.0011774
607,0.1353,1.0903,0.11426,-0.02354,-0.18238,-0.013345,-0.0097279
608,0.12741,1.0933,0.11853,-0.031762,-0.2156,-0.059716,-0.015648
609,0.11228,1.0913,0.1182,-0.036695,-0.23171,-0.099509,-0.012359
610,0.093865,1.094,0.11261,-0.040641,-0.23796,-0.12549,0.00046697
611,0.080382,1.1061,0.10636,-0.044588,-0.23928,-0.13305,0.019541
612,0.074462,1.1383,0.10274,-0.052152,-0.24092,-0.12417,0.036314
613,0.075449,1.1943,0.10538,-0.062676,-0.24322,-0.10674,0.047495
614,0.078409,1.2689,0.11228,-0.070897,-0.2452,-0.091287,0.052099
615,0.078737,1.3455,0.11656,-0.069253,-0.24651,-0.083394,0.055388
616,0.074462,1.4031,0.11426,-0.060373,-0.2475,-0.080763,0.054401
617,0.066569,1.4189,0.10834,-0.045246,-0.25013,-0.082736,0.049139
618,0.055717,1.3699,0.10439,-0.031433,-0.25802,-0.088656,0.04322
619,0.048482,1.2475,0.097154,-0.0265,-0.2771,-0.09918,0.043549
620,0.047166,1.0581,0.08367,-0.030447,-0.30505,-0.11036,0.053415
621,0.052757,0.8177,0.065254,-0.038997,-0.3284,-0.11858,0.06361
622,0.057361,0.54376,0.045851,-0.04393,-0.33728,-0.12384,0.068214
623,0.054072,0.25172,0.026776,-0.040313,-0.32906,-0.12582,0.063281
624,0.036971,-0.050179,0.0080309,-0.028473,-0.31261,-0.1199,0.052757
625,0.0047422,-0.3455,-0.007097,-0.012688,-0.29946,-0.10674,0.038287
626,-0.038011,-0.60465,-0.018936,0.0063866,-0.29814,-0.094247,0.017568
627,-0.074515,-0.79967,-0.022554,0.024803,-0.30933,-0.086354,-0.01203
628,-0.089643,-0.90951,-0.01499,0.039931,-0.32248,-0.083394,-0.04097
629,-0.08175,-0.94009,0.0011247,0.050455,-0.32413,-0.081421,-0.059058
630,-0.064978,-0.91115,0.018555,0.058019,-0.3113,-0.077803,-0.068924
631,-0.04985,-0.84505,0.02875,0.06065,-0.28762,-0.070897,-0.07287
632,-0.041957,-0.75297,0.031709,0.058019,-0.25769,-0.060045,-0.071884
633,-0.041299,-0.63852,0.031381,0.04881,-0.22678,-0.045246,-0.069911
634,-0.042944,-0.49908,0.036314,0.03434,-0.19652,-0.029131,-0.064649
635,-0.041299,-0.33892,0.046837,0.017897,-0.16561,-0.015319,-0.051823
636,-0.032749,-0.17186,0.06361,0.0021113,-0.13207,-0.0093991,-0.034064
637,-0.016634,-0.016963,0.081039,-0.0061104,-0.10247,-0.011372,-0.017292
638,0.0050711,0.10932,0.096496,-0.0057815,-0.08471,-0.014332,-0.0054526
639,0.023817,0.19976,0.10801,0.0011247,-0.07879,-0.01499,-0.0067681
640,0.03434,0.25172,0.11064,0.0093464,-0.07879,-0.01203,-0.016634
641,0.034011,0.26488,0.10242,0.01691,-0.073528,-0.0051238,-0.033078
642,0.028092,0.24909,0.090905,0.024145,-0.054125,0.0047422,-0.047219
643,0.019541,0.21061,0.079395,0.027105,-0.019923,0.017239,-0.057085
644,0.015595,0.15207,0.067227,0.026776,0.02579,0.030394,-0.066293
645,0.020199,0.081368,0.057361,0.02283,0.082355,0.046508,-0.071884
646,0.031052,0.0063866,0.05473,0.020857,0.15372,0.063281,-0.070897
647,0.04026,-0.073857,0.061307,0.024145,0.231,0.077422,-0.065964
648,0.04618,-0.16495,0.070187,0.030065,0.29645,0.085644,-0.058071
649,0.048482,-0.26953,0.07216,0.035656,0.32933,0.086301,-0.052152
650,0.047166,-0.38299,0.058676,0.039931,0.31684,0.079395,-0.048534
651,0.039602,-0.49349,0.032367,0.042891,0.26718,0.070187,-0.042944
652,0.027105,-0.59182,0.0040845,0.044864,0.20206,0.055059,-0.037682
653,0.014608,-0.66121,-0.017292,0.047166,0.14188,0.036971,-0.036366
654,0.0014536,-0.68095,-0.034064,0.050784,0.10011,0.017897,-0.04097
655,-0.01203,-0.64148,-0.048863,0.056046,0.082355,0.0017824,-0.045574
656,-0.02354,-0.55006,-0.059058,0.060979,0.084328,-0.01203,-0.045246
657,-0.02946,-0.42673,-0.06432,0.065254,0.094852,-0.026829,-0.038668
658,-0.029131,-0.29584,-0.059058,0.070187,0.099785,-0.042615,-0.030775
659,-0.021567,-0.18534,-0.048863,0.076764,0.091892,-0.059058,-0.026829
660,-0.015648,-0.11398,-0.043272,0.084657,0.07512,-0.076817,-0.028144
661,-0.014003,-0.07879,-0.047877,0.094523,0.056374,-0.095233,-0.032749
662,-0.016634,-0.068595,-0.060373,0.10044,0.038944,-0.11431,-0.037353
663,-0.018936,-0.067937,-0.077803,0.10077,0.028421,-0.12911,-0.043601
664,-0.019594,-0.064978,-0.092274,0.089919,0.031052,-0.13864,-0.04689
665,-0.018607,-0.053467,-0.097864,0.070516,0.050126,-0.14193,-0.045246
666,-0.015648,-0.030447,-0.092603,0.051113,0.08959,-0.13963,-0.04097
667,-0.013674,0.0080309,-0.08175,0.036642,0.14583,-0.13174,-0.039984
668,-0.013674,0.066898,-0.071884,0.032367,0.21357,-0.11562,-0.046561
669,-0.011701,0.14714,-0.062347,0.038944,0.28559,-0.094247,-0.053138
670,-0.0077547,0.25567,-0.052481,0.050455,0.35433,-0.074844,-0.053467
671,0.002769,0.40991,-0.038668,0.062623,0.41385,-0.058729,-0.04689
672,0.020199,0.61084,-0.022554,0.071502,0.45693,-0.045574,-0.031104
673,0.040918,0.83776,-0.0051238,0.078409,0.4691,-0.031104,-0.0051238
674,0.053415,1.0436,0.0067154,0.079724,0.42503,-0.01203,0.024803
675,0.055717,1.1821,0.014279,0.077422,0.30533,0.017239,0.051441
676,0.053743,1.2252,0.02283,0.066569,0.1182,0.056703,0.073476
677,0.050784,1.1716,0.035985,0.050455,-0.10477,0.099127,0.094194
678,0.048482,1.0331,0.054401,0.0373,-0.31788,0.13464,0.1136
679,0.047166,0.83415,0.073804,0.031381,-0.47146,0.15898,0.13201
680,0.052428,0.60788,0.085972,0.031709,-0.5448,0.1751,0.14517
681,0.063938,0.39083,0.092879,0.0373,-0.54578,0.19055,0.1524
682,0.077751,0.20963,0.096825,0.044864,-0.49941,0.20798,0.15372
683,0.084986,0.070845,0.09551,0.058676,-0.42344,0.22508,0.1524
684,0.085315,-0.045903,0.088932,0.073147,-0.33465,0.23133,0.14648
685,0.079395,-0.17449,0.080053,0.085644,-0.23928,0.22706,0.13695
686,0.071502,-0.34024,0.066569,0.093865,-0.14358,0.21193,0.12116
687,0.063281,-0.54776,0.054401,0.094852,-0.051823,0.18957,0.10373
688,0.051113,-0.78816,0.042891,0.087946,0.033683,0.16391,0.08959
689,0.034998,-1.0437,0.032696,0.077093,0.10932,0.14024,0.081039
690,0.015266,-1.2894,0.022501,0.065583,0.16161,0.12313,0.077422
691,-0.0093991,-1.5061,0.011977,0.053086,0.18332,0.1113,0.072818
692,-0.03538,-1.681,-0.0028217,0.044206,0.18496,0.098798,0.063938
693,-0.055769,-1.8132,-0.017621,0.04322,0.19022,0.082355,0.059663
694,-0.066951,-1.9014,-0.029789,0.045193,0.22377,0.06624,0.064596
695,-0.073857,-1.9425,-0.036695,0.043877,0.29382,0.050784,0.078737
696,-0.080434,-1.9303,-0.040641,0.0373,0.38524,0.038616,0.093208
697,-0.086025,-1.8553,-0.047219,0.033025,0.47042,0.033025,0.10439
698,-0.088985,-1.7123,-0.056756,0.032038,0.52172,0.033683,0.10834
699,-0.089972,-1.5084,-0.068924,0.029078,0.52369,0.038944,0.10965
700,-0.085367,-1.2604,-0.07879,0.021186,0.47864,0.042562,0.10669
701,-0.074844,-0.99008,-0.083723,0.0057288,0.40333,0.044535,0.1011
702,-0.061689,-0.71909,-0.082408,-0.013674,0.31552,0.042891,0.096496
703,-0.044588,-0.46817,-0.076817,-0.029789,0.23133,0.038287,0.096496
704,-0.021567,-0.25309,-0.068266,-0.040313,0.1603,0.036642,0.10242
705,0.0050711,-0.083394,-0.06432,-0.041957,0.10866,0.038616,0.11195
706,0.025132,0.038287,-0.069582,-0.035708,0.074133,0.04322,0.11886
707,0.033025,0.12313,-0.086683,-0.025842,0.045193,0.044535,0.11491
708,0.032038,0.18167,-0.1097,-0.019594,0.013622,0.037629,0.096825
709,0.021514,0.22245,-0.13272,-0.018936,-0.024198,0.023159,0.067227
710,0.0054,0.24482,-0.14654,-0.020581,-0.062018,0.0050711,0.034011
711,-0.012688,0.24876,-0.14719,-0.020252,-0.085696,-0.0097279,0.002769
712,-0.030775,0.2412,-0.13733,-0.016963,-0.088985,-0.01795,-0.019923
713,-0.042944,0.22804,-0.1222,-0.010386,-0.063991,-0.015976,-0.033078
714,-0.047219,0.22048,-0.11003,-0.0051238,-0.014003,-0.0034794,-0.039326
715,-0.04393,0.22771,-0.10247,-0.0028217,0.045851,0.020199,-0.041957
716,-0.034064,0.25106,-0.099838,-0.0031506,0.091563,0.047166,-0.042286
717,-0.018278,0.28033,-0.096878,-0.0038083,0.11228,0.06624,-0.039655
718,-0.0018351,0.31092,-0.083723,-0.00019077,0.1159,0.070845,-0.031762
719,0.011977,0.34479,-0.056098,0.0070443,0.11097,0.067885,-0.016634
720,0.025461,0.39248,-0.024198,0.017568,0.10011,0.060321,0.00046697
721,0.042562,0.46581,0.0057288,0.030065,0.079395,0.053415,0.013951
722,0.064925,0.56119,0.036971,0.039273,0.050126,0.049139,0.025132
723,0.086959,0.66708,0.077422,0.041575,0.018884,0.048153,0.034669
724,0.1034,0.76377,0.13103,0.033025,-0.0097279,0.049468,0.041247
725,0.10998,0.83711,0.1991,0.013293,-0.031433,0.04881,0.037629
726,0.11228,0.87262,0.27376,-0.0074258,-0.046561,0.044864,0.024474
727,0.11228,0.86868,0.34578,-0.021567,-0.057085,0.04322,0.0080309
728,0.10932,0.82231,0.39642,-0.027487,-0.069253,0.047824,-0.0041372
729,0.10274,0.73976,0.40333,-0.027487,-0.082408,0.056703,-0.0067681
730,0.09551,0.63288,0.35992,-0.029789,-0.091287,0.063281,-0.00019077
731,0.089261,0.51909,0.28099,-0.035051,-0.089972,0.063938,0.012964
732,0.086301,0.41583,0.20009,-0.039984,-0.082736,0.05769,0.025132
733,0.084657,0.32802,0.14681,-0.042286,-0.077803,0.047166,0.036314
734,0.080053,0.25139,0.13399,-0.035051,-0.078461,0.035985,0.044535
735,0.073147,0.18134,0.15372,-0.019923,-0.090629,0.023488,0.049139
736,0.062294,0.11327,0.18858,0.002769,-0.11529,0.010333,0.056046
737,0.049139,0.045193,0.22377,0.025461,-0.14423,-0.0015062,0.064925
738,0.036971,-0.016634,0.25074,0.040589,-0.16824,-0.010057,0.074133
739,0.026119,-0.067609,0.26389,0.047824,-0.18271,-0.01499,0.079066
740,0.018884,-0.09622,0.25863,0.050126,-0.18633,-0.025514,0.077093
741,0.013622,-0.098193,0.23725,0.050126,-0.18238,-0.041957,0.065912
742,0.010004,-0.077146,0.20436,0.049139,-0.17581,-0.063333,0.049139
743,0.0070443,-0.049192,0.16391,0.047495,-0.16495,-0.083394,0.031052
744,0.0067154,-0.017621,0.11656,0.04618,-0.14654,-0.093589,0.015266
745,0.0080309,0.017568,0.067556,0.046508,-0.12121,-0.094247,0.0037556
746,0.0086887,0.059334,0.020199,0.048153,-0.089314,-0.088656,-0.0041372
747,0.0083598,0.10965,-0.020252,0.049797,-0.045903,-0.082408,-0.011372
748,0.010662,0.16753,-0.05281,0.053086,0.01132,-0.076159,-0.020252
749,0.014937,0.22048,-0.074515,0.05769,0.072489,-0.06728,-0.029131
750,0.018226,0.25797,-0.08471,0.061307,0.1205,-0.05281,-0.035051
751,0.012306,0.27737,-0.085696,0.061965,0.14451,-0.033735,-0.037682
752,-0.0034794,0.28625,-0.083065,0.059992,0.1376,-0.012359,-0.038997
753,-0.022225,0.28823,-0.08175,0.055059,0.10373,0.0050711,-0.039655
754,-0.034064,0.28329,-0.08471,0.049468,0.055059,0.017239,-0.038668
755,-0.034064,0.27112,-0.09326,0.046837,0.0024402,0.022501,-0.037353
756,-0.023211,0.2583,-0.10181,0.046837,-0.044259,0.021514,-0.037353
757,-0.004466,0.25994,-0.10313,0.04618,-0.080434,0.020857,-0.034722
758,0.01691,0.28954,-0.092603,0.042233,-0.10082,0.025132,-0.027816
759,0.036642,0.35236,-0.070897,0.039273,-0.10017,0.035985,-0.019594
760,0.05473,0.43819,-0.041299,0.034998,-0.077803,0.050784,-0.012359
761,0.066898,0.52501,-0.0061104,0.031381,-0.035708,0.066569,-0.010057
762,0.073147,0.5967,0.031381,0.032038,0.015266,0.077093,-0.014332
763,0.069858,0.65097,0.06361,0.035656,0.06361,0.080382,-0.019594
764,0.059663,0.70391,0.084986,0.036314,0.1057,0.076435,-0.019594
765,0.053415,0.78021,0.090905,0.032367,0.14188,0.0692,-0.011043
766,0.050126,0.90748,0.083342,0.028421,0.17214,0.062623,0.0047422
767,0.050126,1.0893,0.066569,0.027763,0.19351,0.058676,0.025461
768,0.050126,1.2955,0.045522,0.026776,0.20206,0.056046,0.042233
769,0.047495,1.4623,0.021514,0.022501,0.19779,0.049468,0.052428
770,0.04618,1.5182,-0.0015062,0.013293,0.18332,0.037629,0.06065
771,0.049797,1.4195,-0.018278,0.0063866,0.16424,0.023159,0.069529
772,0.052757,1.164,-0.029131,0.0077021,0.13826,0.0070443,0.082355
773,0.053743,0.77561,-0.038339,0.015266,0.10373,-0.0051238,0.095839
774,0.050784,0.29711,-0.052152,0.022501,0.059334,-0.011701,0.10801
775,0.043877,-0.22382,-0.073857,0.026447,0.0034268,-0.013345,0.11689
776,0.033354,-0.74442,-0.10641,0.02283,-0.060045,-0.010386,0.12281
777,0.018884,-1.2328,-0.14423,0.014937,-0.11891,-0.0093991,0.1284
778,0.0017824,-1.6567,-0.17909,0.0067154,-0.16495,-0.010715,0.1353
779,-0.012688,-1.9895,-0.20179,-0.00019077,-0.19784,-0.012359,0.13728
780,-0.018936,-2.2016,-0.20639,-0.0047949,-0.2202,-0.011043,0.13169
781,-0.016963,-2.2773,-0.19291,-0.007097,-0.235,-0.0018351,0.12083
782,-0.013017,-2.2223,-0.16824,-0.0028217,-0.24158,0.019212,0.10998
783,-0.014003,-2.0599,-0.14259,0.0096753,-0.22875,0.053743,0.097812
784,-0.018607,-1.8241,-0.12483,0.029078,-0.18469,0.097154,0.085644
785,-0.025185,-1.5557,-0.11825,0.049139,-0.11299,0.14352,0.074133
786,-0.036037,-1.2936,-0.12253,0.061307,-0.030447,0.17937,0.064267
787,-0.048863,-1.0588,-0.13207,0.061636,0.041247,0.19581,0.052428
788,-0.053796,-0.85097,-0.13766,0.055388,0.090905,0.18825,0.03434
789,-0.048863,-0.65694,-0.13601,0.050126,0.11426,0.15997,0.01691
790,-0.036037,-0.46159,-0.12516,0.052757,0.11952,0.12708,0.012635
791,-0.020909,-0.26789,-0.10839,0.059992,0.1136,0.10406,0.01987
792,-0.0064392,-0.081092,-0.089643,0.067227,0.10307,0.092221,0.031381
793,0.0070443,0.088932,-0.071555,0.070187,0.091563,0.08367,0.038616
794,0.020199,0.25994,-0.050179,0.073804,0.083999,0.072489,0.038287
795,0.033025,0.45496,-0.0265,0.081697,0.077751,0.057032,0.032367
796,0.045193,0.67563,-0.0028217,0.08959,0.069858,0.038287,0.021843
797,0.059663,0.89827,0.021186,0.099785,0.06361,0.019541,0.01132
798,0.076106,1.0913,0.047824,0.11064,0.065583,0.0030979,0.0054
799,0.091234,1.2186,0.083013,0.12445,0.079395,-0.0077547,0.0034268
800,0.10209,1.2597,0.11985,0.13826,0.10932,-0.011043,0.0040845
801,0.10538,1.2163,0.1478,0.14418,0.15865,-0.004466,0.0050711
802,0.098469,1.1025,0.16128,0.1376,0.22969,0.011977,0.0011247
803,0.085315,0.9476,0.15931,0.12215,0.33065,0.033354,-0.0064392
804,0.074462,0.77824,0.14517,0.10538,0.47601,0.053086,-0.014332
805,0.068214,0.61183,0.133,0.092879,0.67201,0.0692,-0.018278
806,0.068871,0.45661,0.12675,0.084657,0.87953,0.081039,-0.017292
807,0.074462,0.3119,0.12905,0.081697,1.0278,0.088932,-0.014003
808,0.077422,0.16885,0.13793,0.082026,1.0532,0.095181,-0.010386
809,0.075778,0.015595,0.15471,0.084657,0.93873,0.098141,-0.007097
810,0.072489,-0.14983,0.17016,0.08959,0.71115,0.092879,-0.004466
811,0.067885,-0.31886,0.17806,0.094194,0.42273,0.079395,-0.0051238
812,0.059992,-0.48001,0.17312,0.094194,0.13925,0.058019,-0.0087413
813,0.047166,-0.6155,0.15306,0.085972,-0.08471,0.033354,-0.016305
814,0.030723,-0.71022,0.1182,0.070516,-0.22349,0.010662,-0.02354
815,0.010333,-0.76579,0.068871,0.051441,-0.2794,-0.0061104,-0.0265
816,-0.011701,-0.78816,0.0054,0.03434,-0.27085,-0.016963,-0.023869
817,-0.027487,-0.7898,-0.069253,0.020528,-0.2281,-0.022554,-0.011372
818,-0.03538,-0.77862,-0.14917,0.010004,-0.17548,-0.029131,0.0047422
819,-0.035708,-0.74212,-0.22481,0.0037556,-0.12976,-0.042944,0.015924
820,-0.027487,-0.66089,-0.27907,-0.0034794,-0.10214,-0.060373,0.018226
821,-0.0093991,-0.51158,-0.30143,-0.0097279,-0.10082,-0.076817,0.014937
822,0.015924,-0.27973,-0.28894,-0.013674,-0.12746,-0.088985,0.010662
823,0.045193,0.041904,-0.24816,-0.012688,-0.17186,-0.094576,0.010333
824,0.070187,0.46746,-0.19126,-0.0077547,-0.22316,-0.094576,0.013622
825,0.088603,1.0098,-0.12976,0.0014536,-0.26526,-0.090958,0.015595
826,0.10044,1.634,-0.068595,0.0093464,-0.28433,-0.085696,0.013951
827,0.10834,2.2667,-0.014332,0.014279,-0.27118,-0.079119,0.010004
828,0.10932,2.8218,0.026447,0.015266,-0.23434,-0.068595,0.0054
829,0.10176,3.2155,0.051113,0.013293,-0.18501,-0.05544,0.0001381
830,0.089919,3.3881,0.069858,0.011648,-0.13864,-0.044917,-0.0028217
831,0.077093,3.3164,0.095839,0.014279,-0.11036,-0.045574,-0.0024928
832,0.065254,3.0126,0.14681,0.01987,-0.11036,-0.057085,-0.0031506
833,0.054401,2.5156,0.23199,0.026776,-0.13634,-0.072213,-0.0080836
834,0.04618,1.8642,0.34282,0.034998,-0.17416,-0.081421,-0.016634
835,0.038287,1.09,0.45759,0.046508,-0.20442,-0.082408,-0.0265
836,0.029736,0.22936,0.54639,0.058348,-0.21724,-0.076817,-0.036037
837,0.021514,-0.66878,0.59013,0.069858,-0.21001,-0.068266,-0.037353
838,0.0093464,-1.5383,0.58585,0.082026,-0.19028,-0.058071,-0.0265
839,-0.0074258,-2.3204,0.5431,0.092879,-0.17087,-0.045903,-0.0074258
840,-0.025842,-2.9597,0.46976,0.10472,-0.16068,-0.027158,0.012306
841,-0.040641,-3.4313,0.37307,0.11623,-0.16857,-0.0018351,0.024803
842,-0.051823,-3.7384,0.2629,0.12412,-0.19356,0.029407,0.030065
843,-0.065307,-3.8914,0.15799,0.12511,-0.23204,0.05769,0.030394
844,-0.088327,-3.8894,0.076764,0.11754,-0.27216,0.076435,0.027105
845,-0.1222,-3.7154,0.029736,0.10307,-0.29946,0.086959,0.018555
846,-0.16298,-3.3596,0.013951,0.088275,-0.30341,0.10143,0.0096753
847,-0.18995,-2.8403,0.015924,0.079724,-0.28071,0.13037,0.002769
848,-0.19718,-2.2059,0.013622,0.076435,-0.23928,0.1751,0.0021113
849,-0.1837,-1.5314,-0.013345,0.074791,-0.18436,0.23035,0.013622
850,-0.15476,-0.89372,-0.077475,0.073147,-0.12812,0.28724,0.035327
851,-0.11825,-0.35307,-0.17186,0.073147,-0.074186,0.3369,0.055388
852,-0.083394,0.06065,-0.28104,0.0692,-0.027487,0.37143,0.059005
853,-0.053138,0.34742,-0.38398,0.057361,0.0096753,0.38853,0.05177
854,-0.02946,0.52665,-0.46192,0.041904,0.04618,0.39149,0.043549
855,-0.011372,0.63222,-0.50237,0.027105,0.084328,0.38426,0.043549
856,0.00079584,0.69536,-0.49941,0.016581,0.12116,0.36485,0.049797
857,0.010004,0.74075,-0.45436,0.010004,0.15142,0.32901,0.060321
858,0.021843,0.77725,-0.38069,0.0037556,0.16753,0.28,0.068214
859,0.036314,0.80586,-0.30176,-0.004466,0.16457,0.22377,0.067227
860,0.053743,0.83349,-0.23336,-0.016305,0.13629,0.16391,0.058348
861,0.075449,0.8746,-0.18732,-0.033078,0.082355,0.10011,0.047495
862,0.096496,0.96668,-0.16068,-0.05281,0.016581,0.031052,0.037629
863,0.1113,1.1499,-0.14785,-0.072542,-0.039655,-0.03538,0.029078
864,0.11689,1.4156,-0.14029,-0.085696,-0.075501,-0.091287,0.030065
865,0.11623,1.7073,-0.12582,-0.083723,-0.088656,-0.12878,0.041247
866,0.11524,1.9474,-0.089972,-0.068595,-0.085367,-0.1495,0.053743
867,0.11524,2.0621,-0.029789,-0.04985,-0.076488,-0.1587,0.060321
868,0.11656,2.0164,0.048482,-0.038339,-0.071226,-0.16627,0.059005
869,0.11689,1.8132,0.13169,-0.035708,-0.067937,-0.17909,0.055717
870,0.11327,1.4889,0.21061,-0.039326,-0.060702,-0.19685,0.055059
871,0.099456,1.0972,0.2731,-0.042944,-0.037024,-0.21099,0.056703
872,0.083013,0.69339,0.31421,-0.04097,0.0080309,-0.21593,0.056046
873,0.072818,0.31454,0.33065,-0.035708,0.068543,-0.21001,0.056703
874,0.069858,-0.0265,0.32966,-0.027158,0.13366,-0.1985,0.063938
875,0.07216,-0.32708,0.3369,-0.015648,0.18661,-0.18304,0.079395
876,0.078409,-0.57998,0.37538,-0.00051963,0.22048,-0.16462,0.097483
877,0.084986,-0.7704,0.45529,0.014608,0.23594,-0.14259,0.1136
878,0.08663,-0.88024,0.56349,0.030394,0.23725,-0.11924,0.12511
879,0.077422,-0.9026,0.67366,0.042891,0.22804,-0.09918,0.12807
880,0.059663,-0.84308,0.7562,0.049139,0.21357,-0.085367,0.12445
881,0.036314,-0.72205,0.79074,0.047824,0.19088,-0.078132,0.11524
882,0.015595,-0.56058,0.76969,0.041575,0.15931,-0.076159,0.10603
883,0.0040845,-0.38529,0.69306,0.031052,0.12017,-0.074515,0.10143
884,0.0050711,-0.21955,0.57237,0.014937,0.075778,-0.066951,0.10077
885,0.015266,-0.070568,0.42471,-0.0064392,0.027763,-0.04985,0.1034
886,0.027105,0.067885,0.26718,-0.028144,-0.022554,-0.020581,0.10735
887,0.037958,0.1945,0.11721,-0.048534,-0.063333,0.020857,0.11195
888,0.049797,0.31223,-0.007097,-0.065964,-0.084381,0.068871,0.11327
889,0.064267,0.41221,-0.098193,-0.08175,-0.083065,0.11393,0.10932
890,0.080711,0.48292,-0.15509,-0.094905,-0.063333,0.14813,0.098798
891,0.091563,0.51778,-0.18271,-0.097864,-0.033735,0.1672,0.081368
892,0.096167,0.52468,-0.1837,-0.091945,-0.007097,0.17312,0.064925
893,0.09551,0.51547,-0.16298,-0.078461,0.013622,0.17214,0.058676
894,0.097483,0.49936,-0.12911,-0.061031,0.026119,0.16918,0.066569
895,0.10143,0.48785,-0.088656,-0.043272,0.035985,0.16589,0.083013
896,0.10176,0.48094,-0.051823,-0.031433,0.053415,0.15767,0.096167
897,0.10176,0.47798,-0.029789,-0.022554,0.085644,0.14024,0.1034
898,0.10406,0.47568,-0.024198,-0.016963,0.13563,0.11327,0.10044
899,0.10636,0.46976,-0.032749,-0.014332,0.1945,0.076106,0.088603
900,0.10801,0.45628,-0.047219,-0.011043,0.25041,0.031052,0.071502
901,0.10899,0.4349,-0.061031,-0.004466,0.28461,-0.017621,0.051113
902,0.10965,0.41221,-0.069253,0.0073732,0.28527,-0.060373,0.032038
903,0.10965,0.39774,-0.074515,0.019212,0.24975,-0.092603,0.018555
904,0.10801,0.40201,-0.079777,0.032696,0.18989,-0.10839,0.010991
905,0.1011,0.42832,-0.083065,0.043877,0.12511,-0.11069,0.0067154
906,0.088275,0.46746,-0.086025,0.050126,0.073476,-0.10444,0.002769
907,0.071502,0.50791,-0.087341,0.050784,0.039273,-0.092931,0.002769
908,0.057032,0.54178,-0.088327,0.04322,0.015924,-0.080434,0.0030979
909,0.045193,0.56941,-0.092274,0.030723,0.0021113,-0.069253,-0.00051963
910,0.034998,0.59802,-0.093918,0.020199,-0.0018351,-0.059058,-0.0077547
911,0.024145,0.63025,-0.086683,0.01987,0.0040845,-0.050507,-0.016305
912,0.0093464,0.65426,-0.072213,0.035985,0.018884,-0.040641,-0.021238
913,-0.0080836,0.64932,-0.053467,0.065912,0.040589,-0.027487,-0.023869
914,-0.028144,0.5921,-0.039326,0.10143,0.064596,-0.0093991,-0.027158
915,-0.046561,0.47009,-0.037682,0.13234,0.085644,0.012635,-0.036695
916,-0.061031,0.28099,-0.045574,0.1501,0.094852,0.031381,-0.046232
917,-0.070568,0.041575,-0.052481,0.15142,0.087288,0.040589,-0.04985
918,-0.074515,-0.22283,-0.053467,0.14254,0.064596,0.04026,-0.047219
919,-0.077146,-0.47606,-0.05281,0.13497,0.039602,0.035327,-0.046232
920,-0.082079,-0.69213,-0.056427,0.13432,0.023817,0.029407,-0.051823
921,-0.088327,-0.85689,-0.065307,0.14024,0.024474,0.025132,-0.060373
922,-0.092603,-0.96969,-0.080106,0.14681,0.053743,0.021843,-0.071226
923,-0.091945,-1.0427,-0.098851,0.15569,0.12379,0.016581,-0.077475
924,-0.089314,-1.0838,-0.11595,0.17115,0.23955,0.010991,-0.071555
925,-0.08471,-1.0917,-0.12516,0.19516,0.38426,0.0070443,-0.056427
926,-0.078461,-1.0536,-0.12878,0.22212,0.5181,0.0080309,-0.042944
927,-0.068924,-0.95752,-0.12878,0.24482,0.60394,0.018555,-0.036037
928,-0.05281,-0.80493,-0.12779,0.25698,0.62301,0.035656,-0.03242
929,-0.036037,-0.61583,-0.12845,0.25994,0.57204,0.05473,-0.022883
930,-0.022225,-0.42344,-0.13042,0.25863,0.45924,0.073476,-0.011701
931,-0.017621,-0.25309,-0.1347,0.25008,0.3073,0.08663,-0.0054526
932,-0.020252,-0.11431,-0.14391,0.23429,0.14188,0.092221,-0.0064392
933,-0.025842,0.0040845,-0.1541,0.20963,-0.014003,0.087946,-0.011043
934,-0.024198,0.11393,-0.1564,0.17838,-0.13404,0.077751,-0.011701
935,-0.011043,0.21555,-0.14983,0.14648,-0.20376,0.071502,-0.0077547
936,0.010662,0.30302,-0.13404,0.11721,-0.22941,0.073476,-0.0038083
937,0.033354,0.36584,-0.11365,0.092879,-0.22974,0.083013,0.0014536
938,0.051113,0.39544,-0.090958,0.071831,-0.21823,0.097812,0.0093464
939,0.062294,0.38919,-0.068595,0.051113,-0.21132,0.11327,0.021186
940,0.063938,0.34874,-0.050836,0.022501,-0.21626,0.12313,0.035656
941,0.057032,0.28231,-0.036695,-0.015319,-0.2281,0.12149,0.050455
942,0.047495,0.19812,-0.02354,-0.051823,-0.24059,0.10932,0.064925
943,0.035656,0.10998,-0.014332,-0.080434,-0.24651,0.094194,0.075449
944,0.023159,0.029736,-0.013674,-0.097864,-0.23434,0.079724,0.083013
945,0.013951,-0.046232,-0.016634,-0.10148,-0.19751,0.064596,0.080053
946,0.01132,-0.12615,-0.014332,-0.095233,-0.14391,0.049468,0.064267
947,0.017239,-0.21165,-0.0067681,-0.082079,-0.091616,0.034669,0.040918
948,0.025132,-0.29749,0.0017824,-0.068595,-0.056756,0.020528,0.018884
949,0.028092,-0.37609,0.0070443,-0.057414,-0.042944,0.01132,0.0047422
950,0.020857,-0.43528,0.0070443,-0.050836,-0.048534,0.0070443,-0.0018351
951,0.0060577,-0.46685,0.0063866,-0.048205,-0.06728,0.0030979,-0.0064392
952,-0.010386,-0.47047,0.0073732,-0.044917,-0.09326,-0.0047949,-0.013017
953,-0.022883,-0.45337,0.0083598,-0.039326,-0.12154,-0.021567,-0.020909
954,-0.033735,-0.41983,0.010662,-0.036695,-0.1495,-0.041628,-0.029789
955,-0.04097,-0.3751,0.012306,-0.041628,-0.16956,-0.056427,-0.040641
956,-0.044259,-0.31229,0.013293,-0.054454,-0.17482,-0.059387,-0.053467
957,-0.042615,-0.22908,0.013293,-0.066951,-0.16364,-0.051823,-0.065635
958,-0.035051,-0.13108,0.010004,-0.07287,-0.14062,-0.034064,-0.07024
959,-0.025842,-0.028144,0.002769,-0.072542,-0.10609,-0.0038083,-0.066622
960,-0.021567,0.061636,-0.0064392,-0.072213,-0.064978,0.033683,-0.058729
961,-0.02354,0.12905,-0.01499,-0.074186,-0.024856,0.070516,-0.04985
962,-0.02946,0.17378,-0.020909,-0.079448,0.0090175,0.10077,-0.044917
963,-0.040313,0.19121,-0.022554,-0.082408,0.036971,0.1205,-0.04097
964,-0.053796,0.18365,-0.015976,-0.082736,0.059334,0.12905,-0.03538
965,-0.066622,0.15668,-0.0031506,-0.079777,0.077751,0.12971,-0.025185
966,-0.07879,0.12149,0.0093464,-0.076159,0.092879,0.13136,-0.0031506
967,-0.087669,0.088275,0.018884,-0.075501,0.1034,0.14089,0.031052
968,-0.08471,0.059334,0.026776,-0.077146,0.11064,0.15405,0.070187
969,-0.066951,0.032367,0.033025,-0.079777,0.11689,0.16687,0.1034
970,-0.040313,0.0021113,0.036971,-0.085696,0.1205,0.17542,0.12741
971,-0.016305,-0.036037,0.036642,-0.09326,0.12182,0.17674,0.1376
972,0.0040845,-0.079119,0.033354,-0.098851,0.12149,0.1672,0.13629
973,0.02283,-0.12286,0.029078,-0.10378,0.11721,0.14648,0.12642
974,0.034998,-0.16561,0.031709,-0.10806,0.11261,0.1205,0.11557
975,0.037629,-0.21067,0.043549,-0.10806,0.10834,0.097154,0.11031
976,0.026776,-0.25145,0.063281,-0.10214,0.1034,0.082684,0.10472
977,0.010991,-0.27381,0.081039,-0.091616,0.094852,0.074462,0.091892
978,0.00079584,-0.25145,0.093208,-0.078461,0.07808,0.063281,0.072818
979,0.00079584,-0.15344,0.1011,-0.064649,0.052099,0.041904,0.049797
980,0.011977,0.031052,0.10406,-0.048534,0.022172,0.0063866,0.026447
981,0.033025,0.28494,0.10373,-0.029789,-0.0077547,-0.041299,0.0040845
982,0.059663,0.57138,0.1057,-0.010386,-0.036037,-0.091945,-0.01203
983,0.086959,0.8302,0.10965,0.0090175,-0.058071,-0.13766,-0.024527
984,0.10735,1.0035,0.11491,0.02875,-0.073528,-0.17482,-0.03538
985,0.11952,1.0611,0.11689,0.045851,-0.087012,-0.20606,-0.045903
986,0.12675,1.0055,0.11327,0.058348,-0.10214,-0.23171,-0.052152
987,0.12938,0.8667,0.10307,0.066569,-0.11825,-0.25243,-0.053796
988,0.12971,0.68188,0.091892,0.069529,-0.13108,-0.26822,-0.050507
989,0.12938,0.48785,0.086959,0.073147,-0.13996,-0.28071,-0.045246
990,0.12412,0.30105,0.093536,0.079066,-0.14719,-0.28598,-0.036695
991,0.1113,0.12445,0.10801,0.088603,-0.15772,-0.28104,-0.025185
992,0.092221,-0.039655,0.12741,0.098469,-0.17679,-0.2669,-0.013345
993,0.07512,-0.19324,0.14517,0.10801,-0.2031,-0.24849,0.0001381
994,0.064925,-0.34024,0.15569,0.11491,-0.22941,-0.23336,0.017568
995,0.058676,-0.47442,0.15799,0.11985,-0.25276,-0.22448,0.04026
996,0.055388,-0.59117,0.15503,0.12116,-0.27052,-0.22119,0.06361
997,0.052428,-0.68259,0.14879,0.1182,-0.27775,-0.21823,0.084986
998,0.049139,-0.75428,0.14221,0.11327,-0.27381,-0.21297,0.097812
999,0.04618,-0.81151,0.13859,0.10866,-0.26098,-0.2008,0.098141
1000,0.042891,-0.86117,0.13859,0.10439,-0.24125,-0.17646,0.09255
1001,0.044206,-0.89767,0.1455,0.10274,-0.21691,-0.137,0.088603
1002,0.050784,-0.91378,0.15109,0.10866,-0.18205,-0.082736,0.090905
1003,0.058676,-0.90523,0.1478,0.1205,-0.13437,-0.01499,0.099785
1004,0.063281,-0.87366,0.13399,0.13333,-0.081421,0.058676,0.1159
1005,0.063281,-0.82565,0.10866,0.1455,-0.033406,0.13563,0.1376
1006,0.057361,-0.76678,0.077093,0.15701,-0.0064392,0.2093,0.15865
1007,0.053743,-0.7043,0.044864,0.16161,-0.0034794,0.27178,0.17477
1008,0.056374,-0.63984,0.020857,0.15471,-0.020909,0.31618,0.18595
1009,0.061636,-0.56518,0.0096753,0.14024,-0.043601,0.34611,0.1945
1010,0.062623,-0.47014,0.0077021,0.12708,-0.056098,0.37143,0.2014
1011,0.056703,-0.34682,0.010662,0.11919,-0.047877,0.39807,0.20206
1012,0.045522,-0.19455,0.015924,0.11787,-0.011701,0.42372,0.19943
1013,0.033354,-0.029789,0.026447,0.1205,0.04618,0.43852,0.19417
1014,0.022501,0.12445,0.041904,0.1205,0.11919,0.43753,0.18562
1015,0.015266,0.24843,0.058348,0.11426,0.19318,0.42142,0.17542
1016,0.011648,0.33821,0.071173,0.098798,0.25468,0.39083,0.16095
1017,0.0093464,0.39708,0.080382,0.079395,0.2948,0.34907,0.14747
1018,0.011977,0.43424,0.088932,0.062294,0.3096,0.30237,0.13399
1019,0.020857,0.45529,0.098798,0.055388,0.30007,0.26093,0.12116
1020,0.033354,0.47206,0.10702,0.058676,0.27704,0.23396,0.1113
1021,0.043877,0.48818,0.11721,0.06624,0.25764,0.22541,0.10834
1022,0.050455,0.50265,0.12708,0.074791,0.2629,0.23528,0.10866
1023,0.052099,0.51153,0.13169,0.082355,0.30138,0.25468,0.10702
1024,0.047824,0.51416,0.12445,0.087617,0.37077,0.27014,0.10077
1025,0.037958,0.51021,0.10636,0.091892,0.44937,0.26915,0.094194
1026,0.026119,0.50298,0.083999,0.096825,0.51186,0.24745,0.08367
1027,0.013293,0.501,0.058676,0.098798,0.54178,0.20798,0.067556
1028,0.0001381,0.51876,0.027434,0.096496,0.53356,0.15668,0.045522
1029,-0.011372,0.5625,-0.015319,0.089919,0.49147,0.1034,0.023159
1030,-0.01795,0.62466,-0.068595,0.07808,0.42142,0.056374,0.00079584
1031,-0.017292,0.69339,-0.12582,0.066898,0.33328,0.021186,-0.016634
1032,-0.010386,0.76969,-0.18205,0.06065,0.2458,-0.0028217,-0.030118
1033,-0.0011774,0.87361,-0.23698,0.057032,0.17575,-0.014003,-0.04097
1034,0.0063866,1.016,-0.28861,0.055059,0.13892,-0.017292,-0.050507
1035,0.0093464,1.185,-0.33268,0.054072,0.13399,-0.018278,-0.057085
1036,0.010662,1.3439,-0.35931,0.053743,0.15964,-0.021238,-0.058071
1037,0.015924,1.4465,-0.35241,0.054401,0.21719,-0.0265,-0.057743
1038,0.018555,1.461,-0.30637,0.056374,0.29382,-0.036695,-0.060702
1039,0.018226,1.3741,-0.22448,0.060979,0.36485,-0.047877,-0.063333
1040,0.01691,1.1821,-0.12121,0.068214,0.40037,-0.060373,-0.065964
1041,0.017239,0.8917,-0.015319,0.076435,0.38426,-0.070897,-0.069911
1042,0.021843,0.526,0.071831,0.081368,0.31486,-0.080434,-0.072213
1043,0.027434,0.11787,0.12313,0.082684,0.20469,-0.087669,-0.070568
1044,0.029736,-0.28663,0.13103,0.079066,0.07808,-0.096549,-0.063004
1045,0.026447,-0.62899,0.10044,0.071173,-0.038011,-0.11069,-0.053796
1046,0.017239,-0.85459,0.052099,0.059663,-0.12648,-0.12878,-0.049192
1047,0.0054,-0.92858,0.012635,0.048482,-0.18008,-0.14325,-0.050507
1048,-0.00051963,-0.8342,0.0093464,0.042233,-0.2054,-0.14785,-0.054125
1049,0.0030979,-0.57834,0.053415,0.04618,-0.21461,-0.14325,-0.05544
1050,0.016253,-0.20508,0.12675,0.061307,-0.22218,-0.13404,-0.053467
1051,0.030065,0.21324,0.19088,0.079395,-0.23632,-0.12615,-0.049192
1052,0.038287,0.58947,0.22147,0.095839,-0.26065,-0.12154,-0.040641
1053,0.04026,0.84467,0.21324,0.10439,-0.29354,-0.11628,-0.027158
1054,0.042562,0.92557,0.17312,0.10044,-0.32676,-0.11036,-0.013017
1055,0.045193,0.82823,0.11524,0.088932,-0.35274,-0.1051,-0.002164
1056,0.049139,0.57829,0.058676,0.071502,-0.36162,-0.10082,0.0093464
1057,0.050455,0.22377,0.015266,0.05473,-0.34386,-0.092931,0.024145
1058,0.050126,-0.1814,-0.0057815,0.039931,-0.2965,-0.077146,0.037958
1059,0.049139,-0.59709,-0.0011774,0.027763,-0.22283,-0.057743,0.047824
1060,0.047824,-1.0128,0.026447,0.015595,-0.13799,-0.043272,0.053415
1061,0.044206,-1.4235,0.065912,0.0040845,-0.058071,-0.03538,0.053086
1062,0.036642,-1.8096,0.11458,-0.0093991,0.0044134,-0.033078,0.046508
1063,0.024474,-2.1378,0.16128,-0.025842,0.04618,-0.033406,0.033354
1064,0.010004,-2.3618,0.19384,-0.040641,0.073147,-0.035708,0.017239
1065,-0.0067681,-2.4489,0.20831,-0.05281,0.099785,-0.039655,0.0057288
1066,-0.026171,-2.3874,0.20963,-0.056427,0.13366,-0.04097,0.0001381
1067,-0.044259,-2.198,0.20634,-0.048863,0.17641,-0.037353,-0.0051238
1068,-0.05544,-1.9185,0.19976,-0.034722,0.22278,-0.030447,-0.014661
1069,-0.06136,-1.5834,0.18562,-0.018278,0.26751,-0.027816,-0.027158
1070,-0.06136,-1.218,0.16063,-0.0047949,0.31388,-0.027487,-0.036695
1071,-0.057414,-0.83157,0.12642,-0.0015062,0.36387,-0.024198,-0.039655
1072,-0.050836,-0.41785,0.093865,-0.0097279,0.40267,-0.01795,-0.038339
1073,-0.040641,0.030723,0.068543,-0.024527,0.4076,-0.010386,-0.037353
1074,-0.026829,0.50758,0.058019,-0.034064,0.36485,-0.0047949,-0.037353
1075,-0.0047949,0.97753,0.06361,-0.032091,0.27704,-0.007097,-0.033735
1076,0.023159,1.4014,0.086959,-0.021238,0.1626,-0.017292,-0.022883
1077,0.052099,1.7405,0.11623,-0.011372,0.045193,-0.03242,-0.0061104
1078,0.075778,1.9645,0.13629,-0.0057815,-0.056098,-0.041299,0.0063866
1079,0.090905,2.0513,0.13432,-0.0057815,-0.12845,-0.040641,0.013951
1080,0.096496,2.0006,0.10636,-0.010386,-0.17022,-0.029131,0.014608
1081,0.098141,1.8326,0.06065,-0.019923,-0.18469,-0.011701,0.002769
1082,0.096167,1.58,0.0080309,-0.028144,-0.18205,0.0060577,-0.018278
1083,0.091892,1.2781,-0.04393,-0.031104,-0.17252,0.021186,-0.04393
1084,0.088603,0.9578,-0.087998,-0.031433,-0.16627,0.029736,-0.064649
1085,0.087288,0.63058,-0.12023,-0.031433,-0.16594,0.029078,-0.075501
1086,0.088275,0.29119,-0.14029,-0.030447,-0.16857,0.023488,-0.074186
1087,0.08663,-0.062347,-0.15114,-0.031762,-0.17186,0.020528,-0.059716
1088,0.080053,-0.41654,-0.15706,-0.036695,-0.17449,0.024474,-0.038668
1089,0.065583,-0.74179,-0.16232,-0.041628,-0.17482,0.035656,-0.01795
1090,0.045851,-1.0101,-0.16824,-0.042286,-0.17252,0.053415,0.00079584
1091,0.026447,-1.2108,-0.17416,-0.03538,-0.17022,0.072489,0.018555
1092,0.012306,-1.3443,-0.1814,-0.025514,-0.16824,0.089261,0.035985
1093,0.0011247,-1.4137,-0.1906,-0.018936,-0.16824,0.10176,0.055059
1094,-0.0077547,-1.415,-0.19883,-0.015648,-0.16693,0.11458,0.071831
1095,-0.016305,-1.3374,-0.20409,-0.013017,-0.1587,0.12807,0.085644
1096,-0.021567,-1.1779,-0.20771,-0.0084125,-0.14029,0.14122,0.096167
1097,-0.026171,-0.9493,-0.20475,-0.002164,-0.10773,0.1478,0.10439
1098,-0.026171,-0.67897,-0.18765,0.0030979,-0.060373,0.1501,0.11097
1099,-0.019265,-0.39385,-0.15772,0.0073732,0.00046697,0.14944,0.11919
1100,-0.004466,-0.11365,-0.12582,0.015924,0.067885,0.14681,0.12708
1101,0.013951,0.13958,-0.1051,0.034998,0.12774,0.13892,0.13366
1102,0.030723,0.35564,-0.096549,0.061307,0.14912,0.12807,0.13991
1103,0.043549,0.53915,-0.09622,0.084657,0.11656,0.11853,0.14517
1104,0.055388,0.72299,-0.094576,0.098141,0.031709,0.10801,0.14616
1105,0.069529,0.9749,-0.088327,0.10209,-0.082408,0.094194,0.13399
1106,0.086959,1.3334,-0.073857,0.10307,-0.19192,0.070845,0.10899
1107,0.1034,1.7648,-0.057414,0.10735,-0.26394,0.042562,0.080711
1108,0.1159,2.1881,-0.044917,0.11458,-0.27151,0.012306,0.057361
1109,0.12445,2.5193,-0.037682,0.12017,-0.20606,-0.013017,0.044206
1110,0.1284,2.6982,-0.029789,0.11787,-0.082079,-0.0265,0.04322
1111,0.12478,2.6962,-0.019265,0.10406,0.071173,-0.02354,0.049468
1112,0.1113,2.5239,-0.0084125,0.077422,0.21522,-0.007097,0.055388
1113,0.08663,2.2157,0.0024402,0.044864,0.31519,0.01691,0.049468
1114,0.055717,1.8184,0.013951,0.016581,0.35334,0.041575,0.035327
1115,0.02875,1.3656,0.017568,0.0054,0.3346,0.059992,0.016581
1116,0.014279,0.86802,0.0067154,0.01132,0.27047,0.071173,-0.0051238
1117,0.015266,0.31256,-0.01499,0.028092,0.17806,0.079066,-0.021567
1118,0.029078,-0.30604,-0.028473,0.048153,0.073147,0.088275,-0.02946
1119,0.045193,-0.95062,-0.020252,0.064596,-0.025842,0.094852,-0.035708
1120,0.051113,-1.5531,0.012635,0.0692,-0.10674,0.093208,-0.043601
1121,0.039602,-2.0457,0.061307,0.059992,-0.16035,0.081697,-0.051165
1122,0.010991,-2.3835,0.11294,0.037629,-0.17613,0.064267,-0.053796
1123,-0.030118,-2.5591,0.15273,0.0090175,-0.1495,0.048482,-0.053138
1124,-0.07287,-2.5907,0.17016,-0.015319,-0.087341,0.040589,-0.048863
1125,-0.10937,-2.515,0.1603,-0.030118,-0.0087413,0.042891,-0.038011
1126,-0.13305,-2.3569,0.13333,-0.036366,0.064925,0.05177,-0.017621
1127,-0.14522,-2.1148,0.11064,-0.033735,0.11721,0.060979,0.010004
1128,-0.14325,-1.7748,0.11393,-0.018936,0.13793,0.065254,0.039602
1129,-0.12878,-1.3364,0.15701,0.0047422,0.1284,0.062623,0.065583
1130,-0.1028,-0.83321,0.23922,0.031709,0.098798,0.054401,0.082026
1131,-0.069582,-0.32741,0.34644,0.053415,0.071173,0.041575,0.08959
1132,-0.030775,0.11524,0.45891,0.064925,0.063281,0.027763,0.080382
1133,0.0090175,0.45266,0.55395,0.065254,0.074462,0.015266,0.055717
1134,0.04618,0.66971,0.60591,0.059005,0.10044,0.0057288,0.024474
1135,0.075778,0.77528,0.59243,0.053415,0.13234,0.0014536,-0.00019077
1136,0.093208,0.79501,0.50659,0.05177,0.15898,0.0011247,-0.013674
1137,0.093536,0.76212,0.35827,0.055717,0.1672,0.0014536,-0.013345
1138,0.080711,0.71444,0.17214,0.063281,0.15306,0.002769,-0.011043
1139,0.06624,0.67793,-0.024856,0.064596,0.1159,0.0054,-0.015319
1140,0.058348,0.67103,-0.20244,0.057032,0.055717,0.0070443,-0.03242
1141,0.061307,0.69339,-0.3284,0.04322,-0.024198,0.0067154,-0.055112
1142,0.071173,0.73285,-0.39089,0.030065,-0.10905,0.0014536,-0.073199
1143,0.083013,0.7687,-0.39911,0.02579,-0.17548,-0.0038083,-0.079119
1144,0.087288,0.79074,-0.36885,0.028092,-0.20343,-0.0064392,-0.07287
1145,0.084986,0.79337,-0.32347,0.033025,-0.17482,-0.0034794,-0.061031
1146,0.077751,0.77791,-0.2794,0.036971,-0.091287,0.0037556,-0.049521
1147,0.067885,0.74996,-0.24355,0.035656,0.035985,0.01132,-0.040641
1148,0.056703,0.70622,-0.21593,0.034669,0.17279,0.022172,-0.032091
1149,0.04881,0.64834,-0.19159,0.037629,0.27737,0.034011,-0.021567
1150,0.040589,0.57763,-0.1666,0.045522,0.32045,0.042891,-0.011043
1151,0.029078,0.50363,-0.1347,0.058019,0.29809,0.049468,-0.0015062
1152,0.014937,0.43128,-0.099509,0.06624,0.23166,0.056046,0.0067154
1153,0.0017824,0.36091,-0.060045,0.065583,0.14944,0.061965,0.015266
1154,-0.0093991,0.29283,-0.019923,0.059005,0.079395,0.065912,0.022501
1155,-0.015648,0.22837,0.015266,0.053415,0.033683,0.068543,0.031052
1156,-0.016305,0.17115,0.04026,0.052757,0.010004,0.068871,0.039602
1157,-0.011701,0.11919,0.045522,0.056046,-0.0028217,0.062623,0.051113
1158,-0.0034794,0.072489,0.022501,0.05769,-0.0074258,0.050126,0.065912
1159,0.0063866,0.0373,-0.031104,0.053415,-0.0074258,0.032038,0.078737
1160,0.018884,0.017897,-0.10773,0.042891,-0.0061104,0.015924,0.082026
1161,0.028421,0.013951,-0.18896,0.031709,-0.0038083,0.0001381,0.081368
1162,0.031052,0.019541,-0.25309,0.024145,-0.0074258,-0.011372,0.082026
1163,0.027434,0.026447,-0.28828,0.021843,-0.019265,-0.018607,0.086301
1164,0.022172,0.035656,-0.28762,0.022172,-0.039326,-0.022225,0.090577
1165,0.020199,0.053415,-0.25704,0.019212,-0.066951,-0.025514,0.09255
1166,0.023159,0.083013,-0.20606,0.010333,-0.094905,-0.028802,0.094194
1167,0.027105,0.12313,-0.14259,0.0001381,-0.11694,-0.033735,0.094523
1168,0.025132,0.17674,-0.079448,-0.011372,-0.13108,-0.037353,0.096825
1169,0.013951,0.24449,-0.018607,-0.025842,-0.13799,-0.036037,0.10242
1170,-0.0011774,0.31585,0.035656,-0.040313,-0.1416,-0.028802,0.11261
1171,-0.015976,0.37538,0.079724,-0.053796,-0.14489,-0.022225,0.12675
1172,-0.023211,0.41517,0.10866,-0.064649,-0.14983,-0.019923,0.1376
1173,-0.020909,0.43457,0.12807,-0.067937,-0.15805,-0.026171,0.13958
1174,-0.016634,0.43095,0.15536,-0.060045,-0.16824,-0.038668,0.13169
1175,-0.019594,0.39642,0.21653,-0.041957,-0.17613,-0.052481,0.11754
1176,-0.031104,0.33262,0.33821,-0.022554,-0.17975,-0.065964,0.10373
1177,-0.041957,0.24679,0.52074,-0.011701,-0.17613,-0.078461,0.10011
1178,-0.050507,0.15076,0.73318,-0.007097,-0.16166,-0.08471,0.10932
1179,-0.053467,0.05177,0.92426,-0.0034794,-0.13568,-0.082408,0.12445
1180,-0.054125,-0.045903,1.0426,-0.0008485,-0.10543,-0.07583,0.13859
1181,-0.051165,-0.14358,1.0611,0.00046697,-0.076817,-0.068266,0.14714
1182,-0.045246,-0.23895,0.98641,0.00046697,-0.051823,-0.062018,0.14813
1183,-0.039326,-0.3261,0.84533,0.0001381,-0.028802,-0.054125,0.14155
1184,-0.03538,-0.40108,0.67169,0.0021113,-0.0093991,-0.044917,0.1284
1185,-0.032091,-0.46225,0.49048,0.0063866,0.0057288,-0.03242,0.11327
1186,-0.029789,-0.50698,0.31355,0.010662,0.016581,-0.014661,0.096825
1187,-0.02946,-0.53296,0.14517,0.011977,0.027763,0.0077021,0.079395
1188,-0.029789,-0.53756,-0.010386,0.0034268,0.039602,0.026119,0.057361
1189,-0.026171,-0.52145,-0.13766,-0.016305,0.047166,0.034011,0.034669
1190,-0.024198,-0.49086,-0.22086,-0.038997,0.048482,0.032367,0.019541
1191,-0.025514,-0.45271,-0.25802,-0.055769,0.046837,0.027763,0.013293
1192,-0.031433,-0.40897,-0.26131,-0.063004,0.052757,0.02283,0.010662
1193,-0.037024,-0.358,-0.24651,-0.065635,0.06065,0.014279,0.0057288
1194,-0.037682,-0.29946,-0.23961,-0.069911,0.071502,0.0024402,-0.0018351
1195,-0.033735,-0.23895,-0.25441,-0.07287,0.080053,-0.0077547,-0.0093991
1196,-0.024527,-0.18962,-0.28433,-0.070568,0.080711,-0.012359,-0.0097279
1197,-0.014003,-0.15673,-0.31327,-0.061031,0.067227,-0.010057,-0.0011774
1198,-0.0041372,-0.14127,-0.32906,-0.042286,0.044535,-0.0077547,0.015924
1199,0.002769,-0.14127,-0.3238,-0.022554,0.031381,-0.007097,0.034998
1200,0.0050711,-0.14884,-0.29847,-0.010715,0.039931,-0.0077547,0.045851
1201,0.0017824,-0.15607,-0.25572,-0.0097279,0.072489,-0.0051238,0.047824
1202,-0.00019077,-0.15903,-0.20475,-0.018607,0.12182,0.0014536,0.047824
1203,0.0040845,-0.15805,-0.15476,-0.028802,0.17674,0.0093464,0.047166
1204,0.016581,-0.15607,-0.10905,-0.03538,0.2264,0.016581,0.04618
1205,0.033025,-0.15509,-0.065964,-0.036695,0.25896,0.018226,0.041904
1206,0.049468,-0.15015,-0.023211,-0.029789,0.27606,0.016581,0.032367
1207,0.063281,-0.13766,0.019212,-0.013017,0.28724,0.012635,0.021186
1208,0.075449,-0.11957,0.066569,0.010991,0.29184,0.0080309,0.015595
1209,0.085972,-0.097207,0.12248,0.039931,0.28,0.0090175,0.02283
1210,0.094852,-0.077803,0.17575,0.071831,0.23758,0.015924,0.039931
1211,0.10406,-0.068595,0.20831,0.10406,0.16161,0.021514,0.058348
1212,0.11294,-0.066951,0.2139,0.13563,0.055059,0.018884,0.078409
1213,0.11656,-0.064978,0.19549,0.16194,-0.068266,0.0096753,0.093208
1214,0.11656,-0.056756,0.16523,0.18529,-0.17778,-0.00019077,0.10176
1215,0.11294,-0.043272,0.13201,0.20667,-0.23138,-0.0015062,0.10636
1216,0.10735,-0.026829,0.10373,0.22804,-0.20573,0.0083598,0.10965
1217,0.10406,-0.0097279,0.078409,0.24712,-0.10247,0.029407,0.10998
1218,0.10603,0.0044134,0.054401,0.25929,0.042891,0.05177,0.10472
1219,0.11162,0.013951,0.029078,0.26027,0.18036,0.067227,0.091892
1220,0.12182,0.018555,0.0037556,0.25271,0.26981,0.072489,0.072818
1221,0.1307,0.016581,-0.01795,0.23495,0.29743,0.068543,0.052099
1222,0.13366,0.013951,-0.031762,0.20897,0.26652,0.061965,0.035985
1223,0.12873,0.023159,-0.035708,0.18332,0.19483,0.059334,0.02579
1224,0.1182,0.050126,-0.034393,0.16194,0.11064,0.060979,0.02579
1225,0.10801,0.089919,-0.02946,0.14681,0.04322,0.063281,0.034669
1226,0.099785,0.14024,-0.023869,0.13497,0.011648,0.059005,0.045851
1227,0.093536,0.1968,-0.024198,0.12445,0.016253,0.045851,0.052428
1228,0.086959,0.25698,-0.033406,0.11294,0.049797,0.02579,0.052757
1229,0.078737,0.31947,-0.044259,0.097812,0.10472,0.0057288,0.04881
1230,0.068543,0.37768,-0.051494,0.083013,0.17641,-0.0061104,0.041247
1231,0.058348,0.42602,-0.054125,0.074791,0.25369,-0.0080836,0.026447
1232,0.047824,0.45792,-0.058071,0.072818,0.32111,-0.002164,0.010662
1233,0.038944,0.46581,-0.066951,0.070845,0.36123,0.0057288,-0.0074258
1234,0.029736,0.43589,-0.08175,0.071831,0.36222,0.015595,-0.025185
1235,0.020199,0.36518,-0.09622,0.07512,0.32374,0.026447,-0.044588
1236,0.012635,0.26192,-0.10214,0.079395,0.25172,0.038287,-0.062018
1237,0.010333,0.13432,-0.098851,0.079395,0.16523,0.04618,-0.074515
1238,0.013293,-0.0064392,-0.094247,0.076106,0.083342,0.04881,-0.074515
1239,0.022501,-0.14917,-0.092603,0.071502,0.020528,0.052099,-0.06728
1240,0.026776,-0.284,-0.094905,0.067885,-0.01795,0.058676,-0.057743
1241,0.024145,-0.40404,-0.099838,0.067227,-0.030118,0.066569,-0.051165
1242,0.013622,-0.50763,-0.10477,0.065912,-0.018936,0.074462,-0.049521
1243,-0.0047949,-0.59248,-0.11168,0.063281,0.0080309,0.079724,-0.052152
1244,-0.023869,-0.6497,-0.11694,0.058676,0.037629,0.084657,-0.058071
1245,-0.037682,-0.66516,-0.11727,0.053086,0.059334,0.094194,-0.060045
1246,-0.040641,-0.6349,-0.11003,0.050126,0.065912,0.1113,-0.055112
1247,-0.030775,-0.56913,-0.095233,0.048153,0.054401,0.13497,-0.040641
1248,-0.014003,-0.48363,-0.075173,0.047824,0.033354,0.16326,-0.019265
1249,0.0017824,-0.40108,-0.049521,0.046837,0.014608,0.19154,0.0014536
1250,0.0080309,-0.33662,-0.022554,0.044206,0.0054,0.2162,0.015924
1251,0.0057288,-0.2942,0.0021113,0.040589,0.0037556,0.23035,0.02283
1252,-0.00051963,-0.26394,0.021186,0.038287,0.002769,0.23035,0.024474
1253,0.0001381,-0.21527,0.038944,0.0373,-0.0057815,0.21752,0.021843
1254,0.011648,-0.11299,0.056703,0.032367,-0.025185,0.19614,0.017568
1255,0.027105,0.056703,0.072489,0.021186,-0.056756,0.16885,0.011977
1256,0.040589,0.27376,0.079395,0.0067154,-0.096878,0.13826,0.0090175
1257,0.045522,0.48982,0.079066,-0.0093991,-0.13996,0.10965,0.0070443
1258,0.039931,0.65853,0.076435,-0.023211,-0.18337,0.083342,0.0011247
1259,0.028092,0.76081,0.07808,-0.032091,-0.21889,0.060321,-0.0084125
1260,0.015595,0.80389,0.08959,-0.036037,-0.2452,0.044864,-0.019923
1261,0.0077021,0.80159,0.10899,-0.036366,-0.25967,0.038944,-0.031762
1262,0.0030979,0.76508,0.12807,-0.032091,-0.26526,0.037958,-0.046561
1263,0.00079584,0.69767,0.13958,-0.024198,-0.26756,0.037629,-0.062347
1264,0.0001381,0.59637,0.13958,-0.015976,-0.27611,0.03434,-0.081421
1265,0.00079584,0.45463,0.12445,-0.0090702,-0.2965,0.028092,-0.10247
1266,0.0011247,0.26586,0.097154,-0.0047949,-0.32807,0.021514,-0.11661
1267,0.002769,0.030394,0.064267,-0.0034794,-0.36688,0.01691,-0.11562
1268,0.0096753,-0.24026,0.033025,-0.0064392,-0.4024,0.020528,-0.10115
1269,0.022501,-0.51618,0.0086887,-0.010057,-0.42476,0.032696,-0.079448
1270,0.036642,-0.76843,-0.010715,-0.011372,-0.43035,0.046508,-0.054454
1271,0.045522,-0.97134,-0.031762,-0.012688,-0.42015,0.059334,-0.034722
1272,0.039931,-1.1177,-0.059716,-0.012688,-0.39516,0.065254,-0.0265
1273,0.018884,-1.2088,-0.099509,-0.013345,-0.35241,0.065912,-0.030775
1274,-0.013345,-1.2565,-0.15213,-0.01499,-0.28236,0.065583,-0.040313
1275,-0.048863,-1.2653,-0.20902,-0.013674,-0.18337,0.0692,-0.049192
1276,-0.07583,-1.2173,-0.25473,-0.0057815,-0.054454,0.072818,-0.055112
1277,-0.087669,-1.0881,-0.2771,0.0063866,0.096825,0.074133,-0.051823
1278,-0.084381,-0.87596,-0.27611,0.014608,0.23429,0.074133,-0.038997
1279,-0.072542,-0.60629,-0.26361,0.017568,0.31914,0.072818,-0.019923
1280,-0.056427,-0.31886,-0.2521,0.013951,0.33262,0.073804,-0.002164
1281,-0.042286,-0.053467,-0.24553,0.0090175,0.28198,0.081697,0.010991
1282,-0.029789,0.16687,-0.2373,0.0054,0.19779,0.098141,0.020199
1283,-0.020581,0.35301,-0.21823,-0.00051963,0.11919,0.12281,0.028092
1284,-0.013345,0.53882,-0.186,-0.010057,0.071173,0.15142,0.033683
1285,-0.0074258,0.74535,-0.14752,-0.023869,0.064267,0.17641,0.040589
1286,0.0011247,0.96438,-0.11168,-0.038011,0.093865,0.1945,0.047166
1287,0.0096753,1.1591,-0.087998,-0.048205,0.14254,0.20338,0.051113
1288,0.017239,1.2929,-0.075501,-0.054783,0.19154,0.20535,0.05177
1289,0.022172,1.3426,-0.068924,-0.060045,0.22771,0.19976,0.049468
1290,0.023817,1.3057,-0.060373,-0.064649,0.25501,0.18759,0.04881
1291,0.023817,1.1926,-0.044259,-0.065635,0.27935,0.17115,0.052099
1292,0.024474,1.0196,-0.018278,-0.063004,0.29743,0.15207,0.055388
1293,0.027105,0.81047,0.017897,-0.058071,0.30401,0.13201,0.056374
1294,0.031381,0.58585,0.059992,-0.05281,0.29382,0.10768,0.06065
1295,0.035985,0.36584,0.10307,-0.049521,0.27014,0.073804,0.070187
1296,0.040589,0.15898,0.14385,-0.045903,0.24514,0.032367,0.082026
1297,0.04618,-0.029789,0.17542,-0.038339,0.22475,-0.0093991,0.087946
1298,0.049797,-0.2008,0.1968,-0.029789,0.21094,-0.041957,0.084657
1299,0.049797,-0.34879,0.207,-0.021896,0.20469,-0.063004,0.077093
1300,0.047495,-0.46324,0.21028,-0.012359,0.21094,-0.076159,0.0692
1301,0.044206,-0.53131,0.20864,0.0014536,0.23528,-0.084052,0.060979
1302,0.039273,-0.54907,0.20502,0.016253,0.27573,-0.089972,0.053415
1303,0.031052,-0.5221,0.20206,0.027763,0.32243,-0.094576,0.04881
1304,0.016581,-0.46093,0.20634,0.038287,0.36222,-0.10181,0.05177
1305,0.00046697,-0.37839,0.22311,0.048153,0.3836,-0.11497,0.058676
1306,-0.0084125,-0.27315,0.25074,0.057032,0.3813,-0.13108,0.065583
1307,-0.0028217,-0.14391,0.28099,0.066569,0.36058,-0.14687,0.074133
1308,0.012635,0.0096753,0.30631,0.079066,0.32835,-0.16035,0.080382
1309,0.035985,0.1797,0.32933,0.093865,0.28592,-0.17186,0.081039
1310,0.06065,0.35038,0.35268,0.11097,0.23133,-0.17942,0.079724
1311,0.081039,0.50363,0.37242,0.12642,0.1603,-0.18469,0.076435
1312,0.09551,0.6263,0.38327,0.13563,0.071173,-0.19126,0.073476
1313,0.099456,0.71575,0.3813,0.13793,-0.027487,-0.20014,0.07808
1314,0.097154,0.77594,0.36255,0.13464,-0.12089,-0.21034,0.090248
1315,0.095839,0.8325,0.33493,0.12478,-0.19521,-0.21922,0.10669
1316,0.10077,0.90419,0.31026,0.10866,-0.23698,-0.22185,0.12116
1317,0.11228,0.98674,0.29382,0.094194,-0.2452,-0.21757,0.13464
1318,0.12281,1.0558,0.28362,0.083999,-0.23171,-0.20442,0.14813
1319,0.1307,1.0877,0.27376,0.077751,-0.21231,-0.18436,0.15832
1320,0.13629,1.0683,0.25797,0.073804,-0.20409,-0.15838,0.16227
1321,0.14254,0.99398,0.23166,0.067885,-0.22251,-0.13075,0.1603
1322,0.14583,0.87328,0.19746,0.06065,-0.27348,-0.10707,0.15503
1323,0.14517,0.7151,0.15832,0.050126,-0.34978,-0.094576,0.14517
1324,0.13859,0.53488,0.11721,0.036314,-0.43528,-0.096549,0.13004
1325,0.12182,0.36584,0.077751,0.020199,-0.51585,-0.10839,0.11195
1326,0.098798,0.2583,0.044206,0.0044134,-0.57966,-0.12352,0.092879
1327,0.079066,0.24909,0.02283,-0.0057815,-0.6155,-0.13338,0.068543
1328,0.067885,0.32933,0.010662,-0.007097,-0.61945,-0.13338,0.037958
1329,0.066898,0.45332,0.002769,-0.0034794,-0.59413,-0.12615,0.0044134
1330,0.076435,0.55264,-0.0064392,0.00046697,-0.54052,-0.11398,-0.020252
1331,0.086301,0.57105,-0.023211,0.0047422,-0.45962,-0.099509,-0.025185
1332,0.090577,0.47897,-0.056427,0.0073732,-0.34978,-0.089643,-0.013017
1333,0.083342,0.2754,-0.11135,0.0054,-0.21527,-0.085039,0.0047422
1334,0.06361,-0.024856,-0.18929,0.00046697,-0.06728,-0.086354,0.018884
1335,0.035985,-0.38924,-0.28236,-0.004466,0.071502,-0.087341,0.027763
1336,0.0044134,-0.75724,-0.37378,-0.0093991,0.18102,-0.085696,0.02875
1337,-0.025842,-1.046,-0.4389,-0.01499,0.25337,-0.08175,0.016253
1338,-0.047548,-1.1986,-0.45436,-0.024856,0.29546,-0.078461,-0.0015062
1339,-0.059058,-1.2292,-0.41259,-0.034393,0.32276,-0.068266,-0.015976
1340,-0.060045,-1.1999,-0.32807,-0.03538,0.35236,-0.049521,-0.020581
1341,-0.052152,-1.1677,-0.22711,-0.020909,0.39511,-0.022225,-0.016634
1342,-0.04097,-1.1641,-0.13536,0.010333,0.45463,0.0080309,-0.0061104
1343,-0.027158,-1.1963,-0.059058,0.049797,0.51975,0.033354,0.0073732
1344,-0.019594,-1.2525,0.0093464,0.089261,0.5602,0.05177,0.017568
1345,-0.024198,-1.3134,0.086301,0.12544,0.55296,0.063938,0.021843
1346,-0.044588,-1.3581,0.18233,0.16095,0.49081,0.070187,0.017239
1347,-0.076159,-1.3656,0.29316,0.1945,0.38557,0.073476,0.0037556
1348,-0.1051,-1.3232,0.39873,0.22179,0.25764,0.076764,-0.015648
1349,-0.12121,-1.2282,0.47338,0.24251,0.133,0.079395,-0.031104
1350,-0.12352,-1.0956,0.49574,0.25764,0.033683,0.079066,-0.034722
1351,-0.11957,-0.94799,0.46253,0.27047,-0.032749,0.076435,-0.028802
1352,-0.11102,-0.79967,0.38491,0.27376,-0.067609,0.074462,-0.022554
1353,-0.094905,-0.65793,0.28165,0.26093,-0.072542,0.077093,-0.020252
1354,-0.074186,-0.52243,0.17674,0.22969,-0.050179,0.087288,-0.020909
1355,-0.056098,-0.39352,0.088932,0.18989,0.0014536,0.10538,-0.026171
1356,-0.045574,-0.27052,0.024474,0.14944,0.082684,0.12971,-0.033735
1357,-0.040313,-0.14851,-0.016305,0.1159,0.19581,0.15602,-0.038997
1358,-0.041628,-0.025185,-0.034064,0.093865,0.3267,0.18299,-0.036366
1359,-0.044259,0.097154,-0.035051,0.080053,0.44707,0.21028,-0.025842
1360,-0.043272,0.2093,-0.029789,0.071831,0.52271,0.23922,-0.010715
1361,-0.033078,0.30829,-0.029131,0.070845,0.53422,0.26718,0.0040845
1362,-0.015319,0.39741,-0.033406,0.078409,0.47568,0.2948,0.018555
1363,0.0073732,0.48094,-0.035708,0.087946,0.36156,0.31782,0.030723
1364,0.031052,0.56119,-0.031104,0.091234,0.21456,0.33394,0.037958
1365,0.050784,0.63551,-0.017621,0.086301,0.059992,0.34249,0.04026
1366,0.060321,0.69569,0.0034268,0.073804,-0.073528,0.34808,0.041904
1367,0.060979,0.73417,0.020528,0.05769,-0.16594,0.35268,0.045522
1368,0.059005,0.74798,0.02875,0.038287,-0.21132,0.35992,0.052099
1369,0.055388,0.74042,0.025461,0.020528,-0.22185,0.3688,0.056374
1370,0.055717,0.71773,0.012635,0.0044134,-0.21856,0.37636,0.055059
1371,0.058019,0.6901,-0.0028217,-0.0077547,-0.21691,0.37834,0.043877
1372,0.05769,0.66642,-0.017621,-0.013345,-0.22415,0.37143,0.028092
1373,0.05177,0.6513,-0.023211,-0.0090702,-0.23665,0.35104,0.014279
1374,0.042233,0.63584,-0.019594,0.0014536,-0.24487,0.31848,0.0073732
1375,0.031709,0.62071,-0.014661,0.010333,-0.23698,0.27343,0.0067154
1376,0.022501,0.60394,-0.01499,0.011977,-0.20738,0.21883,0.0063866
1377,0.021514,0.58322,-0.019594,0.0096753,-0.15936,0.15569,-0.00051963
1378,0.02875,0.55823,-0.025842,0.0086887,-0.10378,0.088275,-0.014003
1379,0.043549,0.53192,-0.028473,0.011977,-0.051823,0.021514,-0.027816
1380,0.061636,0.50857,-0.027816,0.012306,-0.0093991,-0.036366,-0.036366
1381,0.075449,0.48818,-0.025842,0.0086887,0.014279,-0.080763,-0.036695
1382,0.080382,0.47535,-0.023211,-0.0015062,0.021843,-0.10707,-0.026829
1383,0.075778,0.47042,-0.025185,-0.017621,0.020857,-0.11365,-0.010386
1384,0.064925,0.47009,-0.03538,-0.039326,0.014937,-0.10346,0.010333
1385,0.049797,0.46779,-0.049521,-0.066622,0.0067154,-0.079777,0.032696
1386,0.032367,0.45726,-0.064649,-0.091945,0.0067154,-0.04689,0.05177
1387,0.014608,0.43622,-0.075501,-0.11233,0.015924,-0.011701,0.062952
1388,-0.00051963,0.40892,-0.080434,-0.12582,0.032367,0.020528,0.066569
1389,-0.0077547,0.38458,-0.083065,-0.13075,0.041904,0.044206,0.071502
1390,-0.004466,0.36584,-0.083394,-0.12516,0.032696,0.053086,0.080053
1391,0.0060577,0.35005,-0.079119,-0.10905,0.0073732,0.050784,0.087288
1392,0.018226,0.33624,-0.068924,-0.092931,-0.02946,0.042233,0.085972
1393,0.028421,0.33098,-0.056098,-0.081092,-0.07024,0.033025,0.077751
1394,0.04026,0.33164,-0.044259,-0.076159,-0.10477,0.026447,0.068871
1395,0.048153,0.33295,-0.034064,-0.073199,-0.12483,0.021186,0.060321
1396,0.048153,0.32835,-0.025514,-0.064978,-0.12845,0.012964,0.053415
1397,0.040589,0.3096,-0.018278,-0.048534,-0.11957,-0.00051963,0.048153
1398,0.029736,0.26882,-0.014332,-0.028144,-0.10148,-0.01795,0.044864
1399,0.018555,0.2093,-0.01795,-0.010386,-0.081092,-0.027816,0.039931
1400,0.0086887,0.13991,-0.029789,-0.0008485,-0.063662,-0.027816,0.031052
1401,0.0021113,0.073804,-0.044588,-0.0024928,-0.051165,-0.022883,0.01691
1402,-0.0015062,0.018884,-0.060373,-0.0093991,-0.042944,-0.020909,0.0011247
1403,-0.0018351,-0.022225,-0.072213,-0.010057,-0.039984,-0.025514,-0.01203
1404,-0.0028217,-0.052481,-0.080763,-0.0018351,-0.038339,-0.037682,-0.018278
1405,-0.0038083,-0.081421,-0.088985,0.011977,-0.040641,-0.059387,-0.015319
1406,-0.0047949,-0.12187,-0.094247,0.023159,-0.043272,-0.088656,-0.0041372
1407,-0.0057815,-0.17712,-0.091945,0.027434,-0.043601,-0.12154,0.0073732
1408,-0.0080836,-0.23665,-0.079777,0.023817,-0.033406,-0.15015,0.013293
1409,-0.011701,-0.28992,-0.0584,0.013293,-0.014332,-0.16956,0.016253
1410,-0.011701,-0.32643,-0.036037,-0.00019077,0.011977,-0.1814,0.022172
1411,-0.0047949,-0.32906,-0.014661,-0.012359,0.034669,-0.1883,0.033025
1412,0.0073732,-0.27973,0.0044134,-0.021238,0.044864,-0.19422,0.04322
1413,0.026119,-0.16758,0.021186,-0.026171,0.033683,-0.20014,0.045851
1414,0.045851,-0.0047949,0.033025,-0.020909,0.0014536,-0.20212,0.0373
1415,0.059334,0.17641,0.038944,-0.0080836,-0.044588,-0.19916,0.022172
1416,0.064925,0.35433,0.039273,0.0067154,-0.097536,-0.19422,0.010004
1417,0.068214,0.52041,0.039602,0.020199,-0.15443,-0.18995,0.010004
1418,0.070516,0.67103,0.041575,0.028092,-0.20968,-0.18765,0.01987
1419,0.069858,0.80027,0.044864,0.029078,-0.26032,-0.18962,0.032038
1420,0.061307,0.89564,0.04618,0.027105,-0.30012,-0.19389,0.039273
1421,0.047495,0.94267,0.043877,0.027763,-0.32215,-0.19455,0.042562
1422,0.027105,0.92722,0.04026,0.035656,-0.32051,-0.18436,0.044535
1423,0.010004,0.84303,0.042891,0.051113,-0.29354,-0.16232,0.04618
1424,0.002769,0.6855,0.052099,0.069529,-0.24553,-0.13371,0.048153
1425,0.0073732,0.45299,0.063938,0.083342,-0.18534,-0.10411,0.050126
1426,0.018226,0.1603,0.075449,0.088932,-0.11793,-0.07583,0.046508
1427,0.030065,-0.14621,0.080382,0.086301,-0.047548,-0.048863,0.0373
1428,0.040918,-0.3968,0.075778,0.077093,0.021843,-0.023211,0.030065
1429,0.052428,-0.54578,0.058348,0.0692,0.090248,0.00079584,0.029407
1430,0.059005,-0.59906,0.032038,0.063281,0.15536,0.024145,0.035327
1431,0.058019,-0.60136,-0.00019077,0.06065,0.21653,0.04618,0.046508
1432,0.050126,-0.61254,-0.031104,0.057361,0.26948,0.067556,0.054401
1433,0.036971,-0.66878,-0.060373,0.050784,0.31026,0.085644,0.058019
1434,0.020528,-0.76744,-0.084052,0.04026,0.33394,0.10143,0.06065
1435,0.0057288,-0.86939,-0.10017,0.029736,0.33394,0.11261,0.065583
1436,-0.0011774,-0.94042,-0.10905,0.020199,0.30664,0.11985,0.071502
1437,0.002769,-0.96772,-0.11497,0.0093464,0.26422,0.12609,0.081039
1438,0.020528,-0.96048,-0.11464,-0.0008485,0.22377,0.13563,0.097483
1439,0.04618,-0.95029,-0.10346,-0.007097,0.19614,0.14451,0.1182
1440,0.068543,-0.95851,-0.083065,-0.0080836,0.18496,0.14944,0.14287
1441,0.077751,-0.9914,-0.057743,-0.0090702,0.19351,0.15142,0.1649
1442,0.074133,-1.0447,-0.033406,-0.010715,0.22212,0.15207,0.17411
1443,0.065254,-1.1062,-0.0090702,-0.0077547,0.26257,0.14912,0.17049
1444,0.056374,-1.1539,0.015924,-0.0028217,0.30072,0.1376,0.1603
1445,0.055388,-1.1696,0.043549,0.0077021,0.32407,0.11754,0.14648
1446,0.061307,-1.1433,0.072818,0.01987,0.32933,0.094194,0.13004
1447,0.063281,-1.0716,0.096167,0.027105,0.3198,0.074462,0.10768
1448,0.058348,-0.96377,0.10702,0.020857,0.29283,0.058676,0.082026
1449,0.049139,-0.83782,0.099456,0.0040845,0.24087,0.047166,0.057032
1450,0.037629,-0.70824,0.081368,-0.011372,0.16983,0.038616,0.034011
1451,0.023817,-0.58492,0.058348,-0.011701,0.08959,0.032038,0.010004
1452,0.010004,-0.46126,0.042891,0.0054,0.015266,0.021186,-0.015319
1453,-0.00051963,-0.32676,0.041575,0.02875,-0.044259,0.0024402,-0.03538
1454,-0.0051238,-0.17844,0.052099,0.045851,-0.082736,-0.021896,-0.049192
1455,-0.0028217,-0.0265,0.07216,0.051113,-0.098851,-0.048534,-0.056427
1456,0.0073732,0.12017,0.098141,0.050126,-0.092931,-0.07287,-0.061031
1457,0.019541,0.25238,0.12182,0.051113,-0.069911,-0.095233,-0.067609
1458,0.025461,0.36452,0.13432,0.056046,-0.038997,-0.11431,-0.073857
1459,0.026447,0.46055,0.12609,0.059992,-0.0087413,-0.12779,-0.077146
1460,0.029078,0.55592,0.098798,0.058676,0.018226,-0.13864,-0.074186
1461,0.037629,0.64932,0.05769,0.051441,0.044206,-0.14818,-0.062676
1462,0.049797,0.73253,0.0060577,0.041575,0.068543,-0.1564,-0.045574
1463,0.063281,0.79764,-0.048205,0.032367,0.084986,-0.15838,-0.030447
1464,0.076106,0.84105,-0.09326,0.026776,0.088603,-0.15344,-0.017621
1465,0.084328,0.87657,-0.11003,0.026119,0.076435,-0.14127,-0.007097
1466,0.088603,0.94596,-0.095562,0.032367,0.047166,-0.12253,0.0001381
1467,0.088275,1.0907,-0.057085,0.044206,0.0011247,-0.099838,0.0017824
1468,0.082026,1.3051,-0.0011774,0.056374,-0.052481,-0.075173,0.0017824
1469,0.070516,1.5379,0.067227,0.065254,-0.10378,-0.052152,0.0047422
1470,0.059663,1.7185,0.133,0.07216,-0.14226,-0.031762,0.014608
1471,0.047824,1.78,0.18299,0.076764,-0.15344,-0.013017,0.027434
1472,0.037629,1.6793,0.20667,0.075449,-0.1347,0.0090175,0.037958
1473,0.033683,1.4083,0.19713,0.067556,-0.09326,0.036642,0.045522
1474,0.035327,1.0055,0.15602,0.055388,-0.038011,0.066569,0.053086
1475,0.034998,0.5329,0.096167,0.044535,0.020199,0.098141,0.065583
1476,0.028421,0.049797,0.033683,0.040589,0.072489,0.12741,0.087617
1477,0.017897,-0.39878,-0.018278,0.044206,0.11886,0.15372,0.1182
1478,0.0044134,-0.79046,-0.051823,0.055717,0.15898,0.18036,0.15207
1479,-0.0074258,-1.1203,-0.066622,0.068543,0.19647,0.21193,0.18069
1480,-0.018278,-1.3834,-0.069253,0.074133,0.23791,0.25337,0.19943
1481,-0.030775,-1.5725,-0.063004,0.070516,0.28132,0.30368,0.20963
1482,-0.049192,-1.6748,-0.05544,0.061307,0.30598,0.36123,0.20963
1483,-0.070897,-1.6827,-0.04985,0.050455,0.29217,0.42076,0.19516
1484,-0.0903,-1.6001,-0.04393,0.0373,0.23528,0.4793,0.16589
1485,-0.10707,-1.4475,-0.035708,0.02283,0.15503,0.53093,0.1307
1486,-0.12023,-1.244,-0.028473,0.010991,0.074462,0.56711,0.10077
1487,-0.13075,-1.0098,-0.030118,0.0021113,0.0073732,0.58322,0.077093
1488,-0.137,-0.76382,-0.046232,-0.0061104,-0.046232,0.57993,0.056046
1489,-0.13207,-0.5175,-0.076159,-0.014332,-0.082408,0.55592,0.035985
1490,-0.11464,-0.27907,-0.11003,-0.020581,-0.1005,0.51251,0.022501
1491,-0.087341,-0.059058,-0.13963,-0.018607,-0.094576,0.45858,0.015266
1492,-0.054125,0.13136,-0.15246,-0.007097,-0.065635,0.39938,0.011648
1493,-0.018607,0.29546,-0.14687,0.011977,-0.020581,0.33558,0.0060577
1494,0.011977,0.45102,-0.12483,0.035985,0.037958,0.26455,-0.0034794
1495,0.034011,0.62203,-0.088327,0.06361,0.1034,0.18661,-0.014661
1496,0.048153,0.81474,-0.043272,0.090248,0.16128,0.10472,-0.027158
1497,0.061307,1.014,0.00046697,0.11458,0.1991,0.020857,-0.039326
1498,0.076764,1.1929,0.037958,0.13432,0.21259,-0.060045,-0.049192
1499,0.09551,1.3163,0.061965,0.14648,0.20996,-0.12878,-0.056427
1500,0.11689,1.3626,0.066569,0.15207,0.20798,-0.18041,-0.065635
1501,0.13826,1.3189,0.053743,0.15536,0.21588,-0.2156,-0.07583
1502,0.15142,1.1893,0.032367,0.16128,0.22147,-0.23402,-0.079448
1503,0.15273,0.9874,0.023159,0.17444,0.20338,-0.23665,-0.077146
1504,0.14648,0.73943,0.047166,0.19121,0.14681,-0.2304,-0.07287
1505,0.13563,0.47535,0.12215,0.20864,0.054072,-0.22612,-0.068924
1506,0.12017,0.21851,0.25402,0.22245,-0.058071,-0.2281,-0.06432
1507,0.10242,-0.013017,0.42109,0.22936,-0.1643,-0.23599,-0.056427
1508,0.089261,-0.21297,0.58552,0.23002,-0.24355,-0.2452,-0.049521
1509,0.081697,-0.37444,0.70819,0.2241,-0.28927,-0.2498,-0.044259
1510,0.081039,-0.49382,0.76969,0.21456,-0.30275,-0.24651,-0.04097
1511,0.079066,-0.57374,0.7664,0.20667,-0.29124,-0.23566,-0.036037
1512,0.073476,-0.61747,0.70556,0.20108,-0.2646,-0.22152,-0.023869
1513,0.06361,-0.63063,0.59637,0.19351,-0.22316,-0.20573,-0.011372
1514,0.047824,-0.62208,0.452,0.18069,-0.15542,-0.18501,-0.007097
1515,0.026447,-0.59413,0.29316,0.16063,-0.062018,-0.15377,-0.0097279
1516,0.0044134,-0.54019,0.15043,0.13662,0.035656,-0.11332,-0.015648
1517,-0.0077547,-0.44778,0.04881,0.11524,0.11228,-0.06728,-0.016963
1518,-0.0054526,-0.3113,-0.00019077,0.10176,0.15668,-0.022554,-0.0067681
1519,0.0086887,-0.13667,0.0040845,0.093208,0.17542,0.018226,0.015266
1520,0.024803,0.058348,0.045193,0.079724,0.17838,0.052428,0.044206
1521,0.0373,0.25369,0.098141,0.059005,0.16885,0.079395,0.072489
1522,0.044864,0.4303,0.14352,0.033683,0.14648,0.09551,0.097154
1523,0.047824,0.5727,0.16819,0.013622,0.1057,0.095839,0.11656
1524,0.044206,0.67465,0.16687,0.0060577,0.042233,0.076106,0.12708
1525,0.037958,0.73614,0.13991,0.010004,-0.035708,0.047166,0.12609
1526,0.035656,0.76344,0.097483,0.020857,-0.11464,0.021514,0.1205
1527,0.037629,0.76475,0.056046,0.032038,-0.18304,0.0047422,0.11261
1528,0.044864,0.76048,0.031052,0.0373,-0.23402,-0.0057815,0.1057
1529,0.052099,0.77495,0.033354,0.036971,-0.26263,-0.0084125,0.10176
1530,0.059005,0.84368,0.06065,0.029736,-0.27118,-0.0077547,0.099785
1531,0.065912,0.99661,0.098141,0.021186,-0.26526,-0.012688,0.091892
1532,0.068871,1.2377,0.13201,0.010333,-0.25309,-0.022883,0.080711
1533,0.068871,1.5448,0.15109,-0.0067681,-0.23862,-0.034064,0.071831
1534,0.067227,1.8882,0.15701,-0.026171,-0.22119,-0.038011,0.064596
1535,0.06361,2.2108,0.15207,-0.047219,-0.19948,-0.03242,0.054401
1536,0.056703,2.439,0.13497,-0.069911,-0.17186,-0.020909,0.045522
1537,0.043877,2.5153,0.10735,-0.093918,-0.137,-0.0028217,0.038944
1538,0.027763,2.4042,0.072489,-0.11529,-0.098522,0.020199,0.034011
1539,0.011648,2.1055,0.034011,-0.1324,-0.060373,0.042891,0.026119
1540,-0.0034794,1.6445,-0.012359,-0.14654,-0.027816,0.055717,0.015924
1541,-0.013017,1.0426,-0.07583,-0.15607,-0.0051238,0.056703,0.0063866
1542,-0.019923,0.32999,-0.15739,-0.15739,-0.0008485,0.045851,-0.0011774
1543,-0.02354,-0.44416,-0.24717,-0.15246,-0.018607,0.026776,-0.0064392
1544,-0.021238,-1.2163,-0.32906,-0.137,-0.054783,0.0034268,-0.010057
1545,-0.014661,-1.9468,-0.39319,-0.11102,-0.095562,-0.022554,-0.013017
1546,-0.011043,-2.6183,-0.44318,-0.079119,-0.12812,-0.042944,-0.015976
1547,-0.019265,-3.2175,-0.48823,-0.04985,-0.14522,-0.054783,-0.023211
1548,-0.037024,-3.7167,-0.53526,-0.030447,-0.14259,-0.054783,-0.030775
1549,-0.063333,-4.0781,-0.58294,-0.021567,-0.12253,-0.044588,-0.036037
1550,-0.098851,-4.2725,-0.62307,-0.021238,-0.089643,-0.033078,-0.042286
1551,-0.13963,-4.2768,-0.64346,-0.029131,-0.050179,-0.030775,-0.053467
1552,-0.17975,-4.0739,-0.64082,-0.042615,-0.0074258,-0.040641,-0.069582
1553,-0.21001,-3.6677,-0.61649,-0.054454,0.035656,-0.057743,-0.083723
1554,-0.2202,-3.0876,-0.56453,-0.062347,0.079724,-0.069253,-0.09326
1555,-0.20442,-2.3858,-0.48363,-0.064649,0.11919,-0.071226,-0.09622
1556,-0.16726,-1.6294,-0.38398,-0.060045,0.14451,-0.064649,-0.094576
1557,-0.1199,-0.88649,-0.28236,-0.04985,0.14846,-0.053796,-0.088985
1558,-0.075501,-0.21461,-0.19554,-0.036366,0.12938,-0.039326,-0.083723
1559,-0.041299,0.34282,-0.12878,-0.023869,0.095181,-0.025842,-0.087012
1560,-0.019923,0.75851,-0.080763,-0.016963,0.055717,-0.016634,-0.098193
1561,-0.007097,1.0288,-0.047219,-0.012359,0.022501,-0.012359,-0.10609
1562,0.0014536,1.1673,-0.022554,-0.007097,0.0040845,-0.011701,-0.1074
1563,0.0060577,1.1998,-0.011701,-0.0024928,0.013293,-0.0093991,-0.10181
1564,0.014279,1.1604,-0.019594,-0.0024928,0.054072,0.0063866,-0.088656
1565,0.028092,1.0759,-0.039984,-0.0087413,0.12116,0.035327,-0.069253
1566,0.042562,0.96372,-0.065635,-0.014661,0.19877,0.069529,-0.047548
1567,0.057361,0.83579,-0.086683,-0.014003,0.26422,0.098141,-0.027487
1568,0.067227,0.70326,-0.095891,-0.0034794,0.29941,0.11952,-0.015319
1569,0.072818,0.58256,-0.090958,0.012306,0.29316,0.13037,-0.013345
1570,0.076106,0.47141,-0.080434,0.026119,0.25106,0.1353,-0.019594
1571,0.077751,0.35992,-0.066293,0.036314,0.18989,0.13892,-0.028473
1572,0.076764,0.24449,-0.047877,0.04026,0.1353,0.14879,-0.037024
1573,0.069529,0.13958,-0.02946,0.042233,0.10307,0.16753,-0.038011
1574,0.058019,0.064925,-0.012359,0.041904,0.098798,0.18562,-0.026171
1575,0.044864,0.036314,0.0044134,0.038287,0.11919,0.19779,-0.0074258
1576,0.033025,0.056374,0.018555,0.033683,0.15142,0.19812,0.0096753
1577,0.024145,0.1159,0.030065,0.030723,0.18102,0.19121,0.020199
1578,0.020199,0.20502,0.039931,0.032367,0.19943,0.18003,0.025132
1579,0.02283,0.31026,0.045522,0.035327,0.19976,0.16983,0.024474
1580,0.032367,0.42142,0.050126,0.031052,0.18463,0.16063,0.02283
1581,0.045522,0.53323,0.067556,0.015266,0.15964,0.15109,0.02579
1582,0.060979,0.63814,0.11393,-0.0067681,0.12412,0.13793,0.033683
1583,0.078409,0.72299,0.18891,-0.026171,0.074791,0.11919,0.044206
1584,0.098469,0.77363,0.28198,-0.037682,0.016253,0.097812,0.053743
1585,0.11853,0.78843,0.38327,-0.036366,-0.044259,0.077422,0.059334
1586,0.13563,0.78087,0.47732,-0.027158,-0.093589,0.059334,0.059663
1587,0.14648,0.77791,0.53915,-0.015319,-0.12812,0.041904,0.053743
1588,0.14813,0.80619,0.54704,-0.0093991,-0.14785,0.028421,0.045193
1589,0.14484,0.86835,0.50561,-0.0074258,-0.15772,0.020199,0.035985
1590,0.13826,0.94728,0.44115,-0.0087413,-0.15706,0.017568,0.031709
1591,0.12577,1.0249,0.38195,-0.0064392,-0.14489,0.016253,0.033683
1592,0.10274,1.0916,0.34282,0.002769,-0.1222,0.012635,0.040589
1593,0.07808,1.1453,0.32045,0.02283,-0.091945,0.0086887,0.047495
1594,0.057032,1.1778,0.30664,0.04618,-0.056756,0.0060577,0.049468
1595,0.04026,1.188,0.28724,0.067227,-0.024527,0.0060577,0.04322
1596,0.029736,1.1699,0.25698,0.079724,-0.0031506,0.0054,0.031709
1597,0.024474,1.1252,0.21555,0.081697,0.0021113,0.0030979,0.023159
1598,0.01987,1.0512,0.16852,0.076435,-0.0054526,0.0021113,0.023817
1599,0.011648,0.93412,0.12346,0.068543,-0.020252,0.0060577,0.033683
1600,-0.0041372,0.76344,0.084986,0.06624,-0.038668,0.018555,0.051113
1601,-0.020909,0.54376,0.058019,0.071502,-0.056756,0.033354,0.073804
1602,-0.032749,0.30105,0.043877,0.081697,-0.073528,0.044864,0.099785
1603,-0.034722,0.068871,0.04026,0.090577,-0.083394,0.049139,0.12215
1604,-0.026171,-0.12648,0.039273,0.090577,-0.085696,0.047824,0.13267
1605,-0.01499,-0.27414,0.032367,0.081697,-0.083394,0.04322,0.12905
1606,-0.0087413,-0.37148,0.020857,0.071502,-0.07879,0.04026,0.11721
1607,-0.010057,-0.42542,0.0073732,0.071173,-0.067937,0.038944,0.1057
1608,-0.014003,-0.44942,-0.0061104,0.077751,-0.047548,0.036642,0.10209
1609,-0.014661,-0.44811,-0.017621,0.088275,-0.012359,0.026447,0.10406
1610,-0.012359,-0.41818,-0.027158,0.097154,0.040589,0.0040845,0.1057
1611,-0.011701,-0.34912,-0.030118,0.10406,0.1182,-0.025514,0.10011
1612,-0.017292,-0.24257,-0.023211,0.11195,0.21686,-0.052152,0.085972
1613,-0.023869,-0.11365,-0.007097,0.1284,0.32243,-0.065635,0.070187
1614,-0.02354,0.0096753,0.0090175,0.15043,0.41714,-0.068266,0.059663
1615,-0.014003,0.10176,0.018226,0.17049,0.49804,-0.066951,0.052757
1616,0.0040845,0.15175,0.014608,0.18102,0.56382,-0.067937,0.051113
1617,0.030065,0.16391,-0.0011774,0.18233,0.62038,-0.069582,0.055059
1618,0.05769,0.1524,-0.01795,0.1751,0.66938,-0.067609,0.062294
1619,0.081039,0.12938,-0.018278,0.16293,0.69076,-0.061031,0.066898
1620,0.092879,0.093208,-0.0054526,0.15175,0.65952,-0.054454,0.064267
1621,0.096496,0.03434,-0.0034794,0.13925,0.56349,-0.048863,0.056046
1622,0.092879,-0.050507,-0.025185,0.12511,0.41352,-0.04985,0.047166
1623,0.086959,-0.14785,-0.066293,0.10899,0.23429,-0.056427,0.040589
1624,0.080053,-0.24257,-0.11003,0.091563,0.054401,-0.066293,0.037958
1625,0.0692,-0.32544,-0.13733,0.072489,-0.089972,-0.070897,0.039602
1626,0.057032,-0.39713,-0.14259,0.04881,-0.17449,-0.065964,0.04026
1627,0.043549,-0.4583,-0.12746,0.024145,-0.18995,-0.051494,0.04026
1628,0.02875,-0.51191,-0.095891,0.0054,-0.14785,-0.035051,0.042891
1629,0.014279,-0.55959,-0.041957,-0.011372,-0.080434,-0.020909,0.05177
1630,0.00046697,-0.60268,0.038944,-0.021567,-0.025842,-0.0064392,0.070187
1631,-0.016634,-0.63819,0.14451,-0.021896,-0.0008485,0.01132,0.096167
1632,-0.034064,-0.66352,0.26521,-0.010057,0.00079584,0.035656,0.12281
1633,-0.045903,-0.67667,0.37636,0.01132,0.0030979,0.065254,0.14254
1634,-0.048534,-0.67536,0.45463,0.032038,0.030723,0.098141,0.15109
1635,-0.044588,-0.65529,0.48193,0.042233,0.090905,0.13169,0.15109
1636,-0.037682,-0.60761,0.45595,0.035656,0.16457,0.16128,0.15142
1637,-0.02946,-0.50895,0.38557,0.016253,0.22212,0.18299,0.15109
1638,-0.019265,-0.33235,0.29217,-0.0064392,0.24547,0.19549,0.14846
1639,-0.0054526,-0.081092,0.1968,-0.024527,0.23199,0.20042,0.14385
1640,0.011648,0.20436,0.11228,-0.036037,0.18562,0.19384,0.13958
1641,0.031381,0.46417,0.044206,-0.041628,0.11689,0.17411,0.13103
1642,0.051441,0.65097,-0.0028217,-0.042944,0.038944,0.1455,0.11656
1643,0.063281,0.74206,-0.029789,-0.040641,-0.036695,0.11524,0.10044
1644,0.064267,0.73384,-0.040641,-0.038339,-0.1005,0.082684,0.086301
1645,0.058348,0.6388,-0.043601,-0.038011,-0.15213,0.049139,0.073804
1646,0.053415,0.49081,-0.043601,-0.039655,-0.19718,0.018555,0.065254
1647,0.055388,0.33131,-0.043272,-0.045246,-0.23862,-0.010715,0.059334
1648,0.062623,0.1968,-0.042286,-0.051823,-0.26888,-0.036366,0.056046
1649,0.069529,0.092221,-0.041628,-0.055112,-0.28729,-0.051823,0.053743
1650,0.072818,0.0044134,-0.042944,-0.054454,-0.28959,-0.054125,0.050126
1651,0.067227,-0.084052,-0.048863,-0.050836,-0.27907,-0.045903,0.046508
1652,0.058348,-0.17285,-0.060702,-0.046232,-0.26328,-0.035708,0.041247
1653,0.049139,-0.25473,-0.073199,-0.043272,-0.24454,-0.030775,0.035327
1654,0.038944,-0.32708,-0.079448,-0.035051,-0.22185,-0.031104,0.031709
1655,0.02283,-0.3876,-0.079119,-0.021896,-0.19225,-0.034722,0.030065
1656,0.0021113,-0.42015,-0.07583,-0.0038083,-0.1518,-0.035708,0.027105
1657,-0.017292,-0.40338,-0.074844,0.013622,-0.097536,-0.03538,0.020857
1658,-0.030118,-0.3284,-0.078132,0.026776,-0.025842,-0.034064,0.012635
1659,-0.034722,-0.20968,-0.08175,0.035327,0.056374,-0.031104,0.0047422
1660,-0.030447,-0.071555,-0.082736,0.04322,0.13991,-0.025514,-0.0057815
1661,-0.013017,0.067885,-0.079777,0.053086,0.20436,-0.012688,-0.01795
1662,0.011977,0.21522,-0.075173,0.06065,0.23659,0.0047422,-0.033735
1663,0.034011,0.41385,-0.07024,0.06361,0.23166,0.026119,-0.051823
1664,0.044864,0.69536,-0.068924,0.061965,0.19022,0.045851,-0.066951
1665,0.042562,1.0328,-0.07287,0.059005,0.12675,0.061965,-0.074844
1666,0.031052,1.3488,-0.079448,0.057361,0.055388,0.074462,-0.072542
1667,0.017897,1.5461,-0.081421,0.059005,-0.011372,0.079724,-0.06136
1668,0.010662,1.5465,-0.07879,0.06065,-0.066951,0.076435,-0.041299
1669,0.0093464,1.3077,-0.068266,0.061965,-0.10247,0.067556,-0.016305
1670,0.015266,0.85125,-0.056756,0.06624,-0.11431,0.056046,0.0080309
1671,0.023817,0.25271,-0.049521,0.073804,-0.11168,0.045522,0.024474
1672,0.034011,-0.38201,-0.052481,0.080711,-0.10313,0.038287,0.029736
1673,0.040918,-0.9595,-0.064649,0.085315,-0.097536,0.033683,0.034998
1674,0.042233,-1.439,-0.080106,0.090577,-0.099838,0.031709,0.046837
1675,0.040589,-1.8277,-0.0903,0.094523,-0.11201,0.032038,0.061307
1676,0.037629,-2.1437,-0.087012,0.096167,-0.13667,0.033683,0.075449
1677,0.032367,-2.3825,-0.065635,0.096496,-0.17087,0.0373,0.090577
1678,0.024474,-2.5108,-0.028144,0.096167,-0.20935,0.039273,0.10538
1679,0.015595,-2.4897,0.016581,0.097483,-0.24421,0.0373,0.11787
1680,0.0054,-2.3121,0.055388,0.1011,-0.26822,0.028421,0.12215
1681,-0.0018351,-2.0155,0.075449,0.10472,-0.28598,0.016253,0.11524
1682,-0.0074258,-1.6606,0.076106,0.10735,-0.29453,0.002769,0.10406
1683,-0.0090702,-1.3045,0.063281,0.10866,-0.28894,-0.0090702,0.09551
1684,-0.0074258,-0.98515,0.048482,0.10669,-0.26657,-0.016305,0.090248
1685,-0.0024928,-0.71087,0.041575,0.1011,-0.22711,-0.017292,0.091892
1686,0.0096753,-0.47442,0.041575,0.093208,-0.17613,-0.014661,0.098798
1687,0.027434,-0.26032,0.044206,0.082026,-0.12319,-0.015319,0.10538
1688,0.045193,-0.053138,0.047495,0.067885,-0.078132,-0.021896,0.10439
1689,0.061307,0.15043,0.049797,0.052757,-0.045246,-0.029789,0.093536
1690,0.069529,0.35531,0.050126,0.042562,-0.025842,-0.035708,0.076764
1691,0.070845,0.57993,0.045851,0.036971,-0.022883,-0.037682,0.057032
1692,0.071173,0.83151,0.036971,0.033025,-0.037682,-0.037353,0.039931
1693,0.073804,1.0949,0.023817,0.023817,-0.067609,-0.039984,0.031381
1694,0.080711,1.334,0.0086887,0.010662,-0.10247,-0.044917,0.036314
1695,0.085972,1.5116,-0.0064392,0.002769,-0.1324,-0.045903,0.04881
1696,0.090248,1.6103,-0.019594,0.0014536,-0.1541,-0.039655,0.061307
1697,0.094194,1.6313,-0.033078,0.0067154,-0.16758,-0.02946,0.066569
1698,0.098798,1.5958,-0.047219,0.016581,-0.17613,-0.022554,0.061965
1699,0.10176,1.5333,-0.060702,0.023817,-0.18534,-0.019265,0.05177
1700,0.10373,1.4633,-0.069582,0.029078,-0.19587,-0.013017,0.043549
1701,0.10472,1.3972,-0.068266,0.034011,-0.20179,0.0034268,0.040918
1702,0.10406,1.3311,-0.056427,0.038944,-0.19554,0.027105,0.040918
1703,0.10274,1.2465,-0.03538,0.038944,-0.17745,0.05177,0.036314
1704,0.10011,1.118,-0.018607,0.028092,-0.15706,0.070516,0.024474
1705,0.091892,0.93971,-0.015648,0.0070443,-0.14555,0.083342,0.010991
1706,0.074791,0.74206,-0.035708,-0.018278,-0.14391,0.091563,-0.0008485
1707,0.052757,0.56941,-0.073857,-0.038339,-0.15114,0.096496,-0.01499
1708,0.028421,0.45759,-0.11332,-0.053796,-0.1587,0.10176,-0.031433
1709,0.0044134,0.41385,-0.13766,-0.064649,-0.15772,0.11228,-0.045903
1710,-0.01499,0.40859,-0.13667,-0.067609,-0.13897,0.12905,-0.056098
1711,-0.0265,0.38886,-0.10937,-0.061689,-0.10444,0.1524,-0.059716
1712,-0.031104,0.2879,-0.061031,-0.047877,-0.053138,0.17378,-0.056427
1713,-0.03242,0.059005,-0.004466,-0.02946,0.016581,0.18957,-0.048863
1714,-0.037353,-0.29551,0.04618,-0.01203,0.11162,0.20009,-0.038997
1715,-0.046232,-0.71383,0.079395,-0.00051963,0.22771,0.20831,-0.033735
1716,-0.059716,-1.117,0.087617,0.0054,0.34709,0.21324,-0.036037
1717,-0.077146,-1.4403,0.073147,0.0070443,0.44477,0.21061,-0.044588
1718,-0.095233,-1.6551,0.047824,0.0047422,0.50692,0.20338,-0.058071
1719,-0.10609,-1.7656,0.023817,0.0021113,0.52797,0.1922,-0.071555
1720,-0.10839,-1.7971,0.010991,0.0037556,0.50955,0.18134,-0.073528
1721,-0.10181,-1.7702,0.0093464,0.012306,0.46253,0.16918,-0.062676
1722,-0.089972,-1.6817,0.01987,0.029078,0.40234,0.15471,-0.046561
1723,-0.070897,-1.4972,0.038944,0.047824,0.35597,0.1376,-0.029789
1724,-0.045903,-1.1752,0.062623,0.062294,0.35531,0.11458,-0.014003
1725,-0.019265,-0.70528,0.084986,0.069858,0.41188,0.087288,0.0001381
1726,0.0057288,-0.13437,0.10274,0.071173,0.501,0.060321,0.011977
1727,0.024145,0.44674,0.11787,0.068214,0.57368,0.038287,0.023488
1728,0.030065,0.9407,0.13497,0.060979,0.58519,0.018555,0.033354
1729,0.031381,1.29,0.15372,0.054401,0.52929,-0.0067681,0.035985
1730,0.032696,1.4889,0.17181,0.051113,0.42799,-0.039326,0.030723
1731,0.036314,1.5632,0.18792,0.050455,0.31421,-0.07287,0.022501
1732,0.042233,1.5425,0.19976,0.048153,0.21555,-0.10313,0.014608
1733,0.048153,1.4524,0.21028,0.044864,0.14089,-0.12582,0.012306
1734,0.053086,1.3156,0.21982,0.045193,0.085315,-0.14259,0.015266
1735,0.057032,1.143,0.23002,0.049797,0.041247,-0.15311,0.020528
1736,0.058348,0.93675,0.23922,0.057361,-0.002164,-0.16298,0.02283
1737,0.059334,0.69306,0.24383,0.06624,-0.051165,-0.17087,0.017239
1738,0.06065,0.41648,0.24021,0.07512,-0.10313,-0.17482,0.0044134
1739,0.063938,0.12182,0.22673,0.083013,-0.15344,-0.17219,-0.013345
1740,0.065254,-0.17054,0.20469,0.085972,-0.19685,-0.16528,-0.030118
1741,0.062952,-0.44515,0.18102,0.088932,-0.23138,-0.15509,-0.035051
1742,0.055717,-0.68193,0.15964,0.09551,-0.25342,-0.1393,-0.024527
1743,0.047824,-0.86511,0.13826,0.11031,-0.25868,-0.11793,-0.0057815
1744,0.04322,-0.98614,0.11393,0.13169,-0.24783,-0.088656,0.013951
1745,0.042891,-1.0476,0.08367,0.14648,-0.22415,-0.057743,0.030065
1746,0.039931,-1.0661,0.045522,0.14681,-0.19718,-0.032749,0.039931
1747,0.032038,-1.0476,-0.012688,0.12938,-0.17646,-0.022883,0.042233
1748,0.018555,-0.98449,-0.094247,0.1011,-0.16989,-0.025842,0.035656
1749,0.0014536,-0.86511,-0.19784,0.070187,-0.17219,-0.031762,0.02283
1750,-0.015319,-0.68687,-0.31525,0.044864,-0.17613,-0.030775,0.0090175
1751,-0.025514,-0.45436,-0.43561,0.028092,-0.17285,-0.017292,-0.002164
1752,-0.027158,-0.17877,-0.54381,0.021843,-0.1495,0.0093464,-0.014003
1753,-0.019594,0.12248,-0.6178,0.026447,-0.1005,0.04026,-0.0265
1754,-0.0031506,0.43063,-0.64082,0.041247,-0.035051,0.065254,-0.037353
1755,0.018555,0.71937,-0.60629,0.059992,0.032038,0.075778,-0.044588
1756,0.045851,0.95681,-0.52441,0.076435,0.088603,0.067556,-0.048205
1757,0.073804,1.1199,-0.41456,0.084328,0.12774,0.046837,-0.043272
1758,0.096167,1.1873,-0.30735,0.081039,0.14714,0.022172,-0.032749
1759,0.10373,1.1528,-0.22579,0.064925,0.15503,0.0030979,-0.022883
1760,0.092221,1.0262,-0.17975,0.036642,0.15536,-0.004466,-0.021238
1761,0.064267,0.81836,-0.16364,0.0017824,0.15175,0.00046697,-0.025514
1762,0.030394,0.54441,-0.16298,-0.031104,0.15569,0.013293,-0.029789
1763,-0.0038083,0.23988,-0.15344,-0.051823,0.17674,0.029078,-0.031104
1764,-0.030118,-0.045903,-0.10641,-0.055112,0.2241,0.045522,-0.032091
1765,-0.044588,-0.2692,-0.0018351,-0.04393,0.30368,0.059992,-0.031433
1766,-0.046232,-0.40601,0.17312,-0.024198,0.41287,0.071173,-0.030118
1767,-0.042286,-0.46389,0.40793,-0.0015062,0.52567,0.081697,-0.024527
1768,-0.039326,-0.47146,0.66544,0.018555,0.60525,0.089919,-0.01499
1769,-0.038339,-0.46455,0.89564,0.036314,0.62959,0.092879,-0.0061104
1770,-0.038011,-0.4685,1.0574,0.053415,0.5921,0.088932,0.0001381
1771,-0.044588,-0.4833,1.1272,0.064596,0.50725,0.081039,0.0024402
1772,-0.056098,-0.49908,1.0963,0.065583,0.40136,0.072818,0.0050711
1773,-0.066622,-0.50204,0.98345,0.06065,0.29645,0.071173,0.0086887
1774,-0.070897,-0.48231,0.81836,0.051441,0.20667,0.074791,0.013293
1775,-0.065635,-0.42772,0.63387,0.037958,0.13629,0.081368,0.014608
1776,-0.05281,-0.33037,0.45595,0.014608,0.081697,0.090905,0.012635
1777,-0.036037,-0.19389,0.30434,-0.013017,0.039602,0.10538,0.0054
1778,-0.020252,-0.035708,0.19022,-0.035051,0.0024402,0.12313,-0.007097
1779,-0.0064392,0.13037,0.11097,-0.041957,-0.037682,0.13991,-0.019265
1780,0.0044134,0.28494,0.055388,-0.036366,-0.078132,0.15372,-0.024527
1781,0.013622,0.41616,0.013951,-0.023211,-0.11036,0.17181,-0.018607
1782,0.024145,0.51679,-0.018936,-0.01203,-0.12056,0.19614,0.0001381
1783,0.036314,0.58388,-0.047548,-0.010057,-0.10839,0.22936,0.029078
1784,0.045193,0.61808,-0.073199,-0.018278,-0.079448,0.26159,0.054401
1785,0.049468,0.62531,-0.098522,-0.028473,-0.044917,0.27869,0.063938
1786,0.050126,0.6138,-0.12089,-0.032091,-0.010715,0.2754,0.059334
