,channel_1,channel_2,channel_3,channel_4,channel_5,channel_6,channel_7
0,0.012768,0.01764,-0.37538,0.050121,-0.019388,-0.019712,0.027385
1,0.010495,0.025111,-0.39584,0.053369,-0.0015233,-0.031081,0.022837
2,0.015692,0.044599,-0.36466,0.056617,0.016991,-0.031081,0.026735
3,0.025436,0.069285,-0.28508,0.062464,0.036154,-0.017439,0.039727
4,0.03518,0.092346,-0.15516,0.071234,0.059216,0.0033489,0.055643
5,0.041351,0.10599,0.034206,0.081627,0.089423,0.022837,0.068635
6,0.045249,0.10696,0.27911,0.091372,0.12613,0.035505,0.072858
7,0.043625,0.092996,0.52824,0.093645,0.16023,0.042326,0.067011
8,0.036154,0.065062,0.68285,0.081303,0.17777,0.044599,0.052395
9,0.024786,0.030308,0.66076,0.058891,0.16965,0.045249,0.036154
10,0.013093,0.0017248,0.45483,0.03453,0.13749,0.044924,0.026085
11,0.0010752,-0.01484,0.13392,0.015367,0.090072,0.04395,0.025436
12,-0.0096434,-0.018413,-0.19316,0.0065969,0.039402,0.044275,0.030308
13,-0.020362,-0.0093186,-0.42702,0.0046481,-0.0015233,0.044924,0.035505
14,-0.028157,0.011144,-0.5014,0.0056225,-0.024585,0.045899,0.035505
15,-0.027183,0.040702,-0.39844,0.0072465,-0.036278,0.042326,0.029658
16,-0.01484,0.074806,-0.15613,0.011794,-0.042449,0.033881,0.021538
17,0.0033489,0.10566,0.14626,0.016991,-0.052843,0.021538,0.015042
18,0.014068,0.12548,0.41748,0.020564,-0.068758,0.01017,0.012443
19,0.014717,0.13132,0.60619,0.026735,-0.0824,0.0014,0.010819
20,0.011794,0.1245,0.69389,0.037129,-0.086298,-0.0011985,0.0095202
21,0.0072465,0.10826,0.68739,0.047198,-0.080451,0.00010078,0.011469
22,0.003024,0.090397,0.60554,0.054019,-0.069408,0.0020496,0.01764
23,-0.0041217,0.072858,0.47205,0.055643,-0.059014,-0.00054884,0.028684
24,-0.013866,0.057592,0.31386,0.052395,-0.052193,-0.0044465,0.039078
25,-0.021012,0.045899,0.15179,0.045574,-0.04992,-0.0050961,0.045574
26,-0.02361,0.033881,0.0017248,0.036154,-0.047321,0.0014,0.046223
27,-0.023285,0.018615,-0.1256,0.022837,-0.043099,0.012119,0.041676
28,-0.019712,0.00075039,-0.22337,0.011144,-0.034004,0.020564,0.032906
29,-0.01484,-0.01484,-0.28508,0.0020496,-0.021337,0.025761,0.027709
30,-0.0080194,-0.022311,-0.30262,-0.0044465,-0.0034721,0.027385,0.028034
31,-0.00022403,-0.021337,-0.27696,-0.0073698,0.014068,0.028034,0.034855
32,0.009845,-0.010618,-0.22272,-0.0050961,0.029333,0.030957,0.043625
33,0.018615,0.0033489,-0.15841,0.00010078,0.039078,0.036154,0.050121
34,0.023162,0.010495,-0.10254,0.0065969,0.045899,0.041351,0.053369
35,0.022837,0.012768,-0.060963,0.013093,0.053694,0.044924,0.05272
36,0.020888,0.015367,-0.029457,0.016991,0.062464,0.044924,0.050446
37,0.023162,0.019589,-0.0057458,0.017965,0.072533,0.041027,0.045899
38,0.031607,0.024786,0.012443,0.01894,0.081627,0.033556,0.037129
39,0.042975,0.027385,0.021863,0.018615,0.08585,0.028034,0.025436
40,0.054019,0.02706,0.020239,0.019264,0.083576,0.024137,0.015042
41,0.064088,0.025111,0.0091954,0.01894,0.067986,0.023812,0.008221
42,0.072208,0.025111,-0.0050961,0.01764,0.041676,0.025436,0.0078962
43,0.078055,0.02706,-0.013866,0.016666,0.009845,0.030308,0.011469
44,0.079029,0.030633,-0.018413,0.019589,-0.017114,0.036479,0.013743
45,0.074157,0.037454,-0.020687,0.023487,-0.031081,0.042326,0.014717
46,0.062789,0.041351,-0.023285,0.025111,-0.029457,0.050771,0.015042
47,0.046873,0.036154,-0.025559,0.025761,-0.01484,0.058241,0.014068
48,0.026085,0.022837,-0.026858,0.027709,0.0052977,0.061165,0.011144
49,0.009845,0.0065969,-0.033679,0.031607,0.024786,0.057917,0.0072465
50,0.0026992,-0.008669,-0.052193,0.036479,0.039078,0.049796,0.0017248
51,0.0049729,-0.019712,-0.082076,0.041351,0.049796,0.042001,-0.0018481
52,0.015042,-0.026858,-0.11033,0.044275,0.06019,0.038428,-0.0024977
53,0.026085,-0.033354,-0.12463,0.045899,0.072858,0.038428,-0.0021729
54,0.033231,-0.038227,-0.11813,0.045574,0.0852,0.041676,0.00075039
55,0.033556,-0.0405,-0.093769,0.04395,0.090397,0.047523,0.0072465
56,0.028359,-0.041799,-0.058365,0.039727,0.081952,0.058241,0.014068
57,0.020564,-0.044073,-0.021337,0.032582,0.061165,0.066037,0.016666
58,0.011794,-0.042774,0.0065969,0.022188,0.03453,0.063438,0.013418
59,0.0039985,-0.036602,0.019264,0.015367,0.0052977,0.053044,0.0046481
60,-0.0011985,-0.026533,0.017965,0.014068,-0.018088,0.039402,-0.0047713
61,-0.0041217,-0.017764,0.008221,0.015692,-0.034329,0.024137,-0.0083442
62,-0.0031473,-0.011917,-0.0057458,0.019914,-0.042449,0.0088706,-0.0063954
63,0.0010752,-0.0089938,-0.019712,0.026085,-0.042774,-0.0054209,-0.0044465
64,0.0056225,-0.0093186,-0.031081,0.031607,-0.035953,-0.01614,-0.0034721
65,0.0088706,-0.012242,-0.036927,0.037129,-0.023935,-0.023935,-0.0024977
66,0.0075714,-0.018413,-0.037252,0.039078,-0.012892,-0.028807,-0.0050961
67,0.0020496,-0.02426,-0.034329,0.037129,-0.0080194,-0.029782,-0.0083442
68,-0.0024977,-0.030106,-0.029132,0.033231,-0.0093186,-0.02426,-0.0093186
69,-0.0011985,-0.035303,-0.019388,0.034855,-0.013216,-0.013866,-0.0060706
70,0.0056225,-0.039851,-0.0037969,0.041676,-0.012567,-0.0044465,-0.0031473
71,0.015692,-0.04115,0.016016,0.049796,-0.008669,-0.0018481,-0.0018481
72,0.023162,-0.037577,0.036804,0.054344,-0.0083442,-0.0054209,-0.0054209
73,0.023487,-0.029457,0.05142,0.053044,-0.015165,-0.011592,-0.012892
74,0.01764,-0.014516,0.06019,0.045249,-0.030431,-0.017439,-0.020362
75,0.011469,0.003024,0.067661,0.03453,-0.044398,-0.021661,-0.025559
76,0.010495,0.01894,0.080003,0.026085,-0.04992,-0.022636,-0.027183
77,0.011469,0.027385,0.093645,0.022512,-0.04115,-0.023935,-0.025884
78,0.011794,0.022512,0.10079,0.020239,-0.019388,-0.029132,-0.027183
79,0.011469,0.012443,0.092346,0.016341,-0.00022403,-0.036927,-0.028157
80,0.01017,0.00075039,0.06896,0.011794,0.0052977,-0.044073,-0.029132
81,0.01017,-0.0089938,0.035505,0.0059473,-0.0031473,-0.045372,-0.029782
82,0.013743,-0.017439,-0.0031473,-0.0015233,-0.020037,-0.043423,-0.030431
83,0.016991,-0.019712,-0.040825,-0.0054209,-0.038876,-0.0405,-0.028157
84,0.023487,-0.010943,-0.065835,-0.0047713,-0.04927,-0.039526,-0.025234
85,0.033556,0.011794,-0.072331,0.0010752,-0.047321,-0.038551,-0.02361
86,0.045899,0.04395,-0.054142,0.010495,-0.036927,-0.036278,-0.022636
87,0.054019,0.074806,-0.015165,0.015367,-0.024585,-0.030756,-0.021012
88,0.051096,0.092346,0.035505,0.015042,-0.017439,-0.025234,-0.020037
89,0.038103,0.094945,0.080978,0.0085458,-0.015815,-0.022961,-0.021986
90,0.018615,0.086824,0.11248,0.00010078,-0.018413,-0.026858,-0.024585
91,0.00010078,0.069285,0.12385,-0.007045,-0.022636,-0.036278,-0.026858
92,-0.012567,0.044599,0.11248,-0.012892,-0.029782,-0.048945,-0.03238
93,-0.021337,0.014068,0.080328,-0.013866,-0.0405,-0.062587,-0.035953
94,-0.028482,-0.018413,0.036804,-0.0093186,-0.051219,-0.077528,-0.036278
95,-0.030106,-0.043423,-0.013541,-0.0037969,-0.061613,-0.090196,-0.030431
96,-0.02361,-0.052518,-0.061937,0.0017248,-0.067459,-0.095717,-0.019388
97,-0.0096434,-0.045047,-0.097341,0.0059473,-0.067784,-0.09182,-0.0076946
98,0.0046481,-0.021986,-0.11423,0.0095202,-0.060963,-0.078827,-0.00022403
99,0.012119,0.0072465,-0.12268,0.0072465,-0.045372,-0.058365,0.0023744
100,0.011469,0.037129,-0.12917,-0.0015233,-0.025884,-0.036278,-0.0015233
101,0.0036737,0.061489,-0.12917,-0.012242,-0.011267,-0.018738,-0.012242
102,-0.008669,0.08585,-0.10091,-0.019388,-0.008669,-0.011267,-0.021986
103,-0.021337,0.11411,-0.027508,-0.019063,-0.015165,-0.0089938,-0.027833
104,-0.029782,0.14302,0.084876,-0.0076946,-0.025559,-0.0057458,-0.029132
105,-0.032055,0.16673,0.19953,0.0078962,-0.037577,-0.00087364,-0.022636
106,-0.029457,0.17939,0.27294,0.017965,-0.045697,0.0020496,-0.0060706
107,-0.02361,0.1742,0.28008,0.017965,-0.04862,0.0036737,0.012768
108,-0.018413,0.15503,0.22584,0.01017,-0.047321,0.0017248,0.027385
109,-0.017764,0.13035,0.13814,0.0017248,-0.040175,-0.0031473,0.033881
110,-0.016789,0.10631,0.053694,-0.0031473,-0.028482,-0.0050961,0.037454
111,-0.012567,0.084226,-0.0037969,-0.0024977,-0.018738,0.0014,0.042651
112,-0.0054209,0.065062,-0.026858,0.0043233,-0.01549,0.016341,0.050121
113,0.0010752,0.051745,-0.023285,0.015367,-0.015165,0.031282,0.057592
114,0.0085458,0.044275,-0.0060706,0.025111,-0.01614,0.040052,0.064413
115,0.018615,0.042975,0.01017,0.032582,-0.01549,0.041027,0.06831
116,0.030308,0.050121,0.016016,0.03583,-0.012242,0.037454,0.066037
117,0.036479,0.06019,0.011144,0.038428,-0.0044465,0.033556,0.06019
118,0.03453,0.066037,0.00010078,0.042001,0.0075714,0.02641,0.055968
119,0.025761,0.064088,-0.011917,0.0433,0.018615,0.019589,0.053044
120,0.015042,0.058566,-0.02426,0.040377,0.025436,0.01894,0.053694
121,0.0078962,0.054668,-0.036602,0.03453,0.02641,0.023162,0.059541
122,0.0046481,0.050121,-0.050569,0.027709,0.025111,0.02706,0.069285
123,0.0088706,0.042975,-0.05739,0.022188,0.025436,0.027709,0.081303
124,0.016991,0.034855,-0.042124,0.025761,0.031282,0.025111,0.093321
125,0.025761,0.030633,0.0014,0.037454,0.042651,0.024137,0.10306
126,0.029983,0.032582,0.061814,0.053369,0.058566,0.024786,0.10696
127,0.029983,0.038428,0.11508,0.067011,0.072533,0.026735,0.10306
128,0.028034,0.040702,0.13684,0.073507,0.07773,0.029658,0.09462
129,0.027385,0.038428,0.11995,0.070909,0.076106,0.035505,0.086824
130,0.029983,0.028034,0.074157,0.058891,0.06896,0.039078,0.080653
131,0.034855,0.015042,0.023162,0.041351,0.058241,0.034855,0.073832
132,0.040702,0.0033489,-0.0089938,0.024786,0.046873,0.025761,0.066686
133,0.044275,-0.00087364,-0.01549,0.013743,0.036479,0.01764,0.057267
134,0.043625,0.0010752,-0.0021729,0.010819,0.029009,0.014717,0.045899
135,0.040702,0.0065969,0.01829,0.014717,0.025761,0.014717,0.036154
136,0.039727,0.009845,0.037778,0.020888,0.023162,0.019914,0.030957
137,0.037778,0.011469,0.048822,0.024461,0.021863,0.027385,0.032257
138,0.031607,0.011794,0.053694,0.023162,0.021863,0.03453,0.038103
139,0.021213,0.010495,0.050446,0.016666,0.024461,0.041027,0.048822
140,0.0056225,0.0039985,0.041027,0.0075714,0.030633,0.0433,0.058566
141,-0.012567,-0.0054209,0.02706,0.0014,0.041676,0.03518,0.059865
142,-0.030431,-0.01549,0.013743,-0.00087364,0.05207,0.019589,0.045249
143,-0.040825,-0.025234,0.0078962,-0.0015233,0.058241,0.0049729,0.021538
144,-0.043423,-0.03173,0.011794,-0.0054209,0.058891,-0.0021729,-0.00022403
145,-0.038227,-0.034978,0.025436,-0.011592,0.059541,-0.00022403,-0.012567
146,-0.028807,-0.034329,0.047198,-0.017764,0.059541,0.0075714,-0.014516
147,-0.018413,-0.030431,0.070909,-0.016464,0.058241,0.01764,-0.0096434
148,-0.0080194,-0.022636,0.0865,-0.012892,0.056617,0.027709,0.00042559
149,0.0020496,-0.010618,0.087799,-0.0037969,0.054668,0.037778,0.012443
150,0.009845,-0.00022403,0.072533,0.0075714,0.05207,0.046548,0.028684
151,0.015367,0.0036737,0.042651,0.017965,0.051096,0.051096,0.045899
152,0.020239,-0.0011985,-0.0060706,0.022188,0.050446,0.05142,0.059541
153,0.025436,-0.010943,-0.071032,0.020239,0.048497,0.050121,0.064737
154,0.03453,-0.019063,-0.14899,0.016341,0.042651,0.048497,0.062139
155,0.046223,-0.021337,-0.22174,0.016016,0.034206,0.045249,0.056292
156,0.06019,-0.016464,-0.25747,0.020564,0.022837,0.042326,0.054344
157,0.070259,-0.0057458,-0.23051,0.031282,0.012768,0.039727,0.054019
158,0.072533,0.0056225,-0.14541,0.043625,0.0052977,0.037454,0.05142
159,0.065062,0.020239,-0.036927,0.05142,0.0020496,0.034206,0.042975
160,0.055968,0.045249,0.051745,0.054344,0.0026992,0.031932,0.031607
161,0.049147,0.079354,0.087149,0.053044,0.008221,0.031282,0.01894
162,0.042975,0.10306,0.067986,0.047847,0.016016,0.027709,0.0088706
163,0.032257,0.10144,0.019914,0.039727,0.016991,0.021538,0.0039985
164,0.015692,0.073507,-0.022636,0.031607,0.010495,0.015042,0.003024
165,0.00042559,0.029658,-0.044723,0.028684,-0.0031473,0.008221,0.00075039
166,-0.011592,-0.013866,-0.050569,0.028034,-0.020037,0.0020496,-0.0047713
167,-0.021337,-0.04115,-0.052518,0.029333,-0.036278,-0.0024977,-0.014191
168,-0.027833,-0.046996,-0.05804,0.030308,-0.047646,-0.0047713,-0.026533
169,-0.030106,-0.035628,-0.072331,0.033556,-0.054792,-0.0054209,-0.036927
170,-0.021986,-0.015815,-0.082725,0.037454,-0.059014,-0.0060706,-0.039851
171,-0.0037969,0.0078962,-0.069733,0.037454,-0.059664,-0.007045,-0.032705
172,0.018615,0.030957,-0.016464,0.037778,-0.057065,-0.011592,-0.017114
173,0.036479,0.047523,0.071234,0.038428,-0.052843,-0.018738,0.0010752
174,0.0433,0.057917,0.1716,0.039727,-0.046022,-0.02361,0.016666
175,0.036479,0.065387,0.26352,0.039078,-0.037577,-0.022636,0.023812
176,0.025111,0.06896,0.32686,0.036479,-0.034004,-0.014516,0.023812
177,0.016991,0.064737,0.33693,0.032257,-0.035953,-0.0015233,0.021213
178,0.016016,0.048822,0.26937,0.023487,-0.044398,0.010819,0.020239
179,0.020239,0.022837,0.1232,0.0085458,-0.058689,0.01829,0.021538
180,0.025761,-0.0011985,-0.072331,-0.013866,-0.070382,0.023162,0.021863
181,0.02706,-0.010618,-0.2591,-0.037252,-0.075255,0.025436,0.020888
182,0.020239,-0.0021729,-0.38252,-0.050569,-0.072006,0.027709,0.022512
183,0.0088706,0.020239,-0.40786,-0.048296,-0.061288,0.029333,0.023162
184,-0.0011985,0.043625,-0.33088,-0.030106,-0.044073,0.031607,0.019914
185,-0.0060706,0.058891,-0.18147,-0.0037969,-0.020687,0.031282,0.013743
186,-0.007045,0.065387,-0.008669,0.019914,0.0010752,0.024137,0.0026992
187,-0.0080194,0.064737,0.14302,0.038103,0.014717,0.011469,-0.018413
188,-0.010293,0.055968,0.24566,0.047198,0.018615,-0.0021729,-0.043423
189,-0.013541,0.039727,0.29048,0.047847,0.017965,-0.011592,-0.059664
190,-0.019712,0.019914,0.28788,0.037454,0.017316,-0.016789,-0.064536
191,-0.026858,0.0014,0.25215,0.022188,0.016341,-0.021661,-0.063561
192,-0.032705,-0.011267,0.19856,0.008221,0.016666,-0.024585,-0.059014
193,-0.033679,-0.019388,0.14237,-0.00054884,0.01829,-0.025234,-0.050244
194,-0.026533,-0.022961,0.092346,-0.0011985,0.020564,-0.02361,-0.038876
195,-0.0080194,-0.019063,0.049472,0.0049729,0.022837,-0.020037,-0.026533
196,0.019264,-0.0083442,0.014717,0.013093,0.026085,-0.016464,-0.014516
197,0.0433,0.0072465,-0.011592,0.016991,0.027709,-0.013216,0.0010752
198,0.054993,0.020564,-0.024585,0.015692,0.02706,-0.0099683,0.01894
199,0.05142,0.025761,-0.025559,0.012768,0.023812,-0.0073698,0.03518
200,0.036479,0.021538,-0.018738,0.013418,0.021213,-0.0050961,0.048822
201,0.01894,0.008221,-0.012242,0.017316,0.01829,-0.0037969,0.060515
202,0.0026992,-0.0093186,-0.0067202,0.021863,0.015042,-0.0034721,0.065712
203,-0.0067202,-0.024909,-0.0024977,0.023162,0.013743,-0.0057458,0.064088
204,-0.011267,-0.034004,0.0020496,0.023487,0.014068,-0.011592,0.056942
205,-0.0096434,-0.035303,0.0062721,0.024137,0.015367,-0.019063,0.050121
206,-0.0041217,-0.033679,0.0091954,0.025111,0.017316,-0.022311,0.042326
207,0.0017248,-0.032705,0.010495,0.02706,0.020564,-0.021986,0.034855
208,0.0069217,-0.034329,0.0085458,0.028034,0.021538,-0.021012,0.026085
209,0.0078962,-0.043748,0.0020496,0.027385,0.023487,-0.020687,0.016341
210,0.00042559,-0.060638,-0.0083442,0.02641,0.02706,-0.021012,0.0049729
211,-0.013541,-0.082725,-0.014516,0.022512,0.031282,-0.023285,-0.0057458
212,-0.025234,-0.10351,-0.017114,0.015692,0.033231,-0.027508,-0.015165
213,-0.029457,-0.11293,-0.021986,0.0056225,0.029333,-0.029457,-0.020362
214,-0.023285,-0.10514,-0.030106,-0.0050961,0.021213,-0.025884,-0.021986
215,-0.012567,-0.085973,-0.038227,-0.008669,0.015042,-0.019063,-0.024585
216,-0.0021729,-0.061937,-0.041799,-0.0041217,0.016016,-0.010293,-0.028807
217,0.0062721,-0.035953,-0.036927,0.0059473,0.022837,-0.00022403,-0.03173
218,0.016341,-0.0096434,-0.02361,0.015692,0.033881,0.011469,-0.030106
219,0.025111,0.015692,-0.0041217,0.020564,0.042651,0.022837,-0.029457
220,0.033556,0.034206,0.018615,0.023487,0.041351,0.033556,-0.03238
221,0.037778,0.039727,0.040702,0.02706,0.032257,0.036479,-0.037577
222,0.03518,0.031932,0.059865,0.033556,0.025436,0.030308,-0.041475
223,0.026085,0.016016,0.06961,0.040702,0.029009,0.01829,-0.042774
224,0.013743,-0.00022403,0.064737,0.048172,0.041351,0.0078962,-0.040175
225,0.0033489,-0.01484,0.042975,0.053694,0.054668,0.0033489,-0.03173
226,0.00075039,-0.027508,0.0088706,0.055968,0.06019,0.003024,-0.018413
227,0.003024,-0.038551,-0.030431,0.054993,0.053369,0.003024,-0.0054209
228,0.0075714,-0.043748,-0.063237,0.05272,0.03583,0.0043233,0.0056225
229,0.016666,-0.043748,-0.0824,0.046873,0.017965,0.0088706,0.013093
230,0.029983,-0.036278,-0.087922,0.036154,0.0059473,0.016991,0.013418
231,0.04395,-0.023285,-0.095068,0.020888,-0.00022403,0.02706,0.01017
232,0.051745,-0.008669,-0.11975,0.0026992,-0.00022403,0.032582,0.0069217
233,0.049472,0.0062721,-0.16555,-0.019063,-0.00022403,0.032906,0.0059473
234,0.0433,0.024137,-0.21817,-0.039526,0.0014,0.030308,0.009845
235,0.038428,0.050446,-0.25195,-0.050894,0.0046481,0.028359,0.015042
236,0.041027,0.082602,-0.24123,-0.048945,0.011794,0.029658,0.019264
237,0.05142,0.11346,-0.18699,-0.036278,0.022512,0.029983,0.024461
238,0.061489,0.12353,-0.12527,-0.020362,0.033556,0.028359,0.028684
239,0.069285,0.10371,-0.078178,-0.0057458,0.039727,0.028034,0.029658
240,0.073832,0.064737,-0.028482,0.0059473,0.038428,0.026735,0.027385
241,0.07773,0.028034,0.049147,0.014392,0.029983,0.021863,0.024786
242,0.079679,0.0069217,0.15211,0.020239,0.016341,0.014717,0.018615
243,0.07773,0.0033489,0.25215,0.021213,-0.0015233,0.0056225,0.013418
244,0.072208,0.009845,0.31971,0.017965,-0.017439,-0.0073698,0.009845
245,0.061814,0.015367,0.33952,0.015367,-0.033354,-0.016789,0.0069217
246,0.048172,0.014717,0.30672,0.01829,-0.051868,-0.019712,0.003024
247,0.032582,0.011469,0.21967,0.024461,-0.070707,-0.015165,-0.0018481
248,0.019264,0.01829,0.087474,0.031282,-0.085648,-0.007045,-0.0024977
249,0.0078962,0.038103,-0.067134,0.036154,-0.090196,-0.00022403,0.0017248
250,-0.0028225,0.063113,-0.21427,0.037129,-0.0837,-0.00022403,0.01017
251,-0.01484,0.078055,-0.32243,0.034206,-0.071682,-0.0041217,0.019589
252,-0.023935,0.074806,-0.37278,0.031607,-0.055766,-0.0060706,0.027385
253,-0.026533,0.059216,-0.36141,0.032257,-0.037902,-0.0050961,0.029983
254,-0.024909,0.041351,-0.29288,0.036154,-0.02361,-0.0024977,0.025436
255,-0.019388,0.032906,-0.15841,0.045899,-0.017114,-0.0031473,0.01764
256,-0.010293,0.037129,0.053044,0.059216,-0.01484,-0.011267,0.013743
257,-0.0024977,0.045899,0.31874,0.070584,-0.0096434,-0.02426,0.018615
258,-0.0011985,0.046873,0.55715,0.076106,0.0059473,-0.037902,0.027709
259,-0.0024977,0.032257,0.67083,0.075456,0.033881,-0.045047,0.033881
260,-0.0047713,0.0062721,0.60944,0.06831,0.072208,-0.044398,0.034855
261,-0.007045,-0.01614,0.39474,0.056292,0.10989,-0.039526,0.032257
262,-0.0080194,-0.023935,0.10014,0.041351,0.12775,-0.033354,0.029333
263,-0.0067202,-0.012567,-0.18309,0.025436,0.11703,-0.030756,0.028034
264,-0.0041217,0.012119,-0.3835,0.013743,0.080328,-0.034004,0.022837
265,-0.0047713,0.048497,-0.45301,0.01017,0.031282,-0.038551,0.014392
266,-0.011267,0.083251,-0.37538,0.015367,-0.015815,-0.042449,0.0043233
267,-0.016789,0.10761,-0.17854,0.028359,-0.046996,-0.044723,-0.0034721
268,-0.016789,0.11378,0.06961,0.048172,-0.055766,-0.046022,-0.008669
269,-0.011592,0.10144,0.29048,0.066362,-0.042124,-0.045047,-0.01549
270,-0.0028225,0.077405,0.4295,0.075131,-0.016464,-0.037577,-0.019063
271,0.0078962,0.048497,0.47432,0.071234,0.012768,-0.023935,-0.016464
272,0.016666,0.01894,0.44281,0.057917,0.037454,-0.0067202,-0.0034721
273,0.023812,-0.0041217,0.36226,0.038428,0.051096,0.0095202,0.016016
274,0.028684,-0.012567,0.26677,0.022837,0.056617,0.019264,0.031607
275,0.031932,-0.007045,0.18459,0.016666,0.059865,0.021213,0.037129
276,0.037778,0.01017,0.14139,0.020239,0.063763,0.022188,0.03518
277,0.044275,0.037778,0.14529,0.031282,0.072533,0.025761,0.03518
278,0.049472,0.073507,0.17907,0.045899,0.0852,0.030633,0.039402
279,0.051745,0.10729,0.20278,0.058241,0.098517,0.037129,0.040377
280,0.050771,0.12223,0.18394,0.065712,0.10794,0.040052,0.033231
281,0.044924,0.11054,0.11768,0.065387,0.10501,0.03453,0.019589
282,0.033556,0.078055,0.029009,0.054344,0.08585,0.022837,0.0020496
283,0.01894,0.041351,-0.053817,0.039727,0.050121,0.0095202,-0.0089938
284,0.0085458,0.012443,-0.11228,0.026735,0.0088706,-0.0018481,-0.0083442
285,0.008221,-0.0047713,-0.14606,0.016341,-0.024909,-0.0099683,0.0020496
286,0.016341,-0.008669,-0.15548,0.010495,-0.046347,-0.01549,0.014392
287,0.02706,-0.0057458,-0.14834,0.0052977,-0.052843,-0.014191,0.025111
288,0.031282,0.0010752,-0.13242,0.00042559,-0.04992,-0.0031473,0.031607
289,0.028359,0.0062721,-0.11553,-0.0037969,-0.044398,0.012443,0.031607
290,0.01894,0.0088706,-0.095717,-0.0089938,-0.038876,0.027385,0.022512
291,0.0065969,0.0095202,-0.067134,-0.013866,-0.035628,0.041676,0.0078962
292,-0.0083442,0.0072465,-0.033354,-0.017114,-0.034004,0.053369,-0.0037969
293,-0.021986,0.0046481,0.0026992,-0.017439,-0.030106,0.06019,-0.0057458
294,-0.027508,0.0036737,0.038103,-0.01549,-0.025884,0.06019,0.0036737
295,-0.022311,0.0049729,0.067986,-0.013216,-0.021012,0.053694,0.017965
296,-0.011592,0.0078962,0.0852,-0.012242,-0.013216,0.04395,0.032582
297,-0.0015233,0.0091954,0.084876,-0.012242,-0.0028225,0.03453,0.042001
298,0.0062721,0.0056225,0.067986,-0.014191,0.0072465,0.030633,0.044924
299,0.013418,-0.0031473,0.03583,-0.012242,0.016666,0.031607,0.043625
300,0.019589,-0.011917,-0.0076946,-0.0050961,0.027709,0.035505,0.039727
301,0.021538,-0.015165,-0.061288,0.0033489,0.038753,0.037778,0.032906
302,0.01829,-0.012567,-0.12333,0.008221,0.046873,0.036154,0.02706
303,0.012443,-0.0099683,-0.19219,0.0091954,0.05142,0.030633,0.023162
304,0.0069217,-0.0099683,-0.26299,0.0072465,0.051096,0.023162,0.023487
305,0.003024,-0.013866,-0.31789,0.008221,0.046223,0.020888,0.029658
306,-0.00054884,-0.021337,-0.33867,0.012443,0.03583,0.025111,0.042001
307,-0.0037969,-0.026858,-0.31594,0.020888,0.020239,0.030633,0.055968
308,-0.0067202,-0.024585,-0.25845,0.030957,0.003024,0.029009,0.063113
309,-0.0073698,-0.012892,-0.18634,0.040377,-0.012242,0.020239,0.064088
310,-0.0054209,-0.00022403,-0.12138,0.048497,-0.022961,0.01017,0.060515
311,0.00075039,0.0075714,-0.073306,0.053369,-0.030106,0.0069217,0.055318
312,0.0095202,0.012119,-0.047971,0.054993,-0.036278,0.009845,0.05272
313,0.016991,0.01764,-0.044073,0.053369,-0.040175,0.016016,0.05207
314,0.024461,0.025111,-0.053492,0.049472,-0.038551,0.022512,0.051745
315,0.033231,0.032906,-0.063886,0.048497,-0.03173,0.02706,0.05207
316,0.0433,0.042651,-0.067459,0.054993,-0.020037,0.029658,0.050121
317,0.051096,0.055318,-0.062587,0.06019,-0.0083442,0.033231,0.048172
318,0.049796,0.069934,-0.051868,0.060515,-0.0024977,0.036804,0.046873
319,0.041351,0.079354,-0.038876,0.054668,-0.0011985,0.038753,0.046548
320,0.030633,0.081627,-0.024585,0.046223,-0.0041217,0.034855,0.046548
321,0.020564,0.080003,-0.0080194,0.03583,-0.007045,0.026735,0.046223
322,0.015367,0.077405,0.0078962,0.025436,-0.013216,0.015367,0.046873
323,0.015692,0.071558,0.016016,0.016666,-0.02361,0.0065969,0.042975
324,0.019914,0.058891,0.012443,0.0075714,-0.037577,-0.00087364,0.034206
325,0.025761,0.038753,-0.00022403,-0.0031473,-0.052193,-0.0041217,0.02706
326,0.031607,0.020564,-0.013541,-0.015165,-0.066485,-0.0063954,0.021863
327,0.035505,0.0075714,-0.014191,-0.025559,-0.079802,-0.0063954,0.020239
328,0.03583,-0.00022403,0.008221,-0.032055,-0.091495,-0.0028225,0.021538
329,0.032257,-0.0037969,0.054344,-0.03238,-0.097341,0.0020496,0.023487
330,0.02706,-0.0034721,0.10599,-0.027508,-0.096042,0.0072465,0.023812
331,0.024137,-0.0011985,0.14691,-0.018088,-0.087597,0.0069217,0.023162
332,0.02641,0.0039985,0.16185,-0.0057458,-0.076229,0.0039985,0.024137
333,0.031282,0.013418,0.14626,0.0039985,-0.067134,0.0014,0.025761
334,0.030957,0.02641,0.10956,0.010819,-0.063561,0.0017248,0.023487
335,0.024137,0.037454,0.068635,0.011794,-0.064536,0.0010752,0.015042
336,0.012443,0.044924,0.039078,0.009845,-0.067784,0.00042559,0.0046481
337,0.0010752,0.047523,0.025436,0.0059473,-0.071682,0.0010752,-0.0028225
338,-0.007045,0.046873,0.024137,0.0039985,-0.071682,0.0036737,-0.0041217
339,-0.014516,0.045249,0.029333,0.0052977,-0.065186,0.0056225,0.0023744
340,-0.020037,0.042001,0.03583,0.010819,-0.053492,0.0059473,0.013418
341,-0.021986,0.039078,0.037778,0.016991,-0.040175,0.0043233,0.022188
342,-0.021661,0.039078,0.035505,0.020564,-0.026858,0.0039985,0.025761
343,-0.020362,0.043625,0.033881,0.019914,-0.013216,0.0072465,0.02706
344,-0.020687,0.050771,0.036804,0.016016,-0.00054884,0.014392,0.021863
345,-0.024909,0.057592,0.041351,0.0085458,0.0095202,0.019264,0.010495
346,-0.032705,0.058891,0.049796,0.00042559,0.016666,0.019914,-0.0028225
347,-0.04115,0.056942,0.061489,-0.0031473,0.023487,0.01764,-0.014191
348,-0.045047,0.058891,0.072208,0.00042559,0.030308,0.01764,-0.023285
349,-0.042449,0.064413,0.079679,0.0091954,0.033881,0.020239,-0.029132
350,-0.035628,0.06896,0.081952,0.021213,0.037454,0.022512,-0.029457
351,-0.025884,0.066362,0.075131,0.03583,0.040052,0.024461,-0.021661
352,-0.013216,0.056942,0.061814,0.046873,0.039727,0.026735,-0.0096434
353,-0.0037969,0.044599,0.050771,0.050771,0.038103,0.030957,0.0026992
354,-0.0015233,0.031932,0.045249,0.048172,0.036804,0.037778,0.015367
355,-0.00087364,0.022512,0.042001,0.044275,0.03453,0.041676,0.028684
356,0.0033489,0.017965,0.039402,0.042651,0.031932,0.040052,0.042326
357,0.010819,0.015367,0.034855,0.045249,0.024786,0.031282,0.055318
358,0.020239,0.0065969,0.025436,0.047847,0.014717,0.016666,0.059541
359,0.023162,-0.008669,0.012768,0.044275,0.0059473,0.0017248,0.047523
360,0.016991,-0.024585,0.00042559,0.035505,0.0049729,-0.0041217,0.027385
361,0.0039985,-0.031081,-0.012892,0.022837,0.011794,0.00042559,0.0088706
362,-0.010293,-0.025559,-0.028482,0.0085458,0.021213,0.0078962,0.0023744
363,-0.018088,-0.012242,-0.04115,-0.0018481,0.031282,0.012443,0.0049729
364,-0.016789,0.0020496,-0.045372,-0.0076946,0.03583,0.013093,0.012443
365,-0.0080194,0.0095202,-0.040825,-0.0063954,0.03518,0.014717,0.017965
366,0.0039985,0.0088706,-0.03303,0.0036737,0.032257,0.019914,0.021538
367,0.019914,0.0014,-0.031406,0.014068,0.029983,0.022188,0.019264
368,0.036154,-0.0047713,-0.033679,0.017965,0.031282,0.015042,0.009845
369,0.045574,-0.0024977,-0.038227,0.015042,0.033881,-0.00087364,-0.0054209
370,0.042975,0.0059473,-0.037902,0.0095202,0.037778,-0.019388,-0.020687
371,0.030633,0.014717,-0.032055,0.0020496,0.040702,-0.03173,-0.027183
372,0.012119,0.016341,-0.022636,-0.0041217,0.038428,-0.035628,-0.024909
373,-0.0021729,0.009845,-0.0089938,-0.0060706,0.031282,-0.033679,-0.013866
374,-0.0063954,-0.0031473,0.0049729,-0.0024977,0.023162,-0.026209,0.0014
375,-0.0015233,-0.017114,0.015692,0.0043233,0.019589,-0.013216,0.017965
376,0.0056225,-0.026858,0.023812,0.0091954,0.022188,0.0026992,0.03453
377,0.01017,-0.028807,0.034206,0.0085458,0.028684,0.015692,0.044275
378,0.014068,-0.023935,0.047847,0.0078962,0.036804,0.024461,0.049472
379,0.017965,-0.018413,0.067661,0.0095202,0.045249,0.029009,0.05142
380,0.022837,-0.018413,0.090397,0.015692,0.052395,0.026735,0.053369
381,0.027709,-0.022961,0.10989,0.02641,0.057917,0.021538,0.056617
382,0.030308,-0.030431,0.11931,0.038103,0.061165,0.013743,0.058891
383,0.034206,-0.036927,0.11768,0.047847,0.061489,0.0078962,0.057592
384,0.041027,-0.04115,0.11346,0.056617,0.061489,0.0026992,0.050771
385,0.052395,-0.046671,0.11118,0.064088,0.063438,-0.0021729,0.040377
386,0.063113,-0.051544,0.11248,0.06831,0.064737,-0.0067202,0.028034
387,0.070909,-0.052843,0.11638,0.066037,0.062464,-0.0093186,0.019914
388,0.074806,-0.047321,0.11866,0.054019,0.05272,-0.0080194,0.019914
389,0.075781,-0.039201,0.11313,0.033881,0.035505,-0.0024977,0.028684
390,0.076755,-0.030106,0.094945,0.010495,0.016666,0.0043233,0.042326
391,0.072858,-0.02426,0.06084,-0.012567,0.0052977,0.011469,0.058891
392,0.063113,-0.022311,0.0046481,-0.033354,0.0056225,0.01829,0.06896
393,0.050446,-0.025559,-0.087597,-0.052193,0.014392,0.02641,0.067986
394,0.037778,-0.028807,-0.21817,-0.063886,0.025111,0.034855,0.059216
395,0.029658,-0.02426,-0.35979,-0.063237,0.03518,0.041676,0.043625
396,0.028684,-0.0099683,-0.46307,-0.047321,0.04395,0.043625,0.025436
397,0.032906,0.008221,-0.48354,-0.019388,0.047847,0.037454,0.0088706
398,0.038103,0.027709,-0.40818,0.014717,0.048497,0.02641,0.0014
399,0.037454,0.042975,-0.26851,0.043625,0.045249,0.014068,0.003024
400,0.033231,0.050446,-0.10611,0.06084,0.041676,0.0065969,0.0091954
401,0.026085,0.05142,0.047847,0.060515,0.037778,0.0043233,0.015042
402,0.022188,0.055318,0.19596,0.048497,0.030957,0.0049729,0.017316
403,0.02706,0.071883,0.3457,0.03583,0.022512,0.0069217,0.016991
404,0.039727,0.098193,0.47172,0.028034,0.011794,0.0056225,0.015042
405,0.056617,0.1219,0.52986,0.021863,0.0036737,0.0020496,0.010819
406,0.066362,0.13132,0.49024,0.015042,-0.00087364,-0.0060706,0.0036737
407,0.062464,0.11866,0.36518,0.0052977,-0.0024977,-0.015815,-0.0073698
408,0.042975,0.090072,0.2044,-0.010293,-0.0028225,-0.023285,-0.020037
409,0.017316,0.055968,0.071558,-0.026858,-0.0044465,-0.025559,-0.027833
410,-0.0037969,0.02706,0.0039985,-0.036927,-0.0083442,-0.021337,-0.03238
411,-0.016789,0.0072465,0.0043233,-0.03173,-0.014516,-0.015165,-0.035953
412,-0.024585,-0.0015233,0.043625,-0.014516,-0.023285,-0.013866,-0.039201
413,-0.029782,-0.0021729,0.088124,0.0078962,-0.032055,-0.020362,-0.039526
414,-0.03303,0.0046481,0.11606,0.02641,-0.038551,-0.027833,-0.037902
415,-0.034654,0.012119,0.11638,0.036804,-0.0405,-0.03173,-0.035953
416,-0.03303,0.015367,0.087474,0.037454,-0.037252,-0.029132,-0.035303
417,-0.030106,0.014068,0.029658,0.034206,-0.03173,-0.022961,-0.034978
418,-0.026858,0.011469,-0.04992,0.029983,-0.028157,-0.018738,-0.034329
419,-0.026533,0.0095202,-0.14249,0.029009,-0.029457,-0.021012,-0.033354
420,-0.030431,0.010495,-0.22304,0.029333,-0.033354,-0.030431,-0.03303
421,-0.037252,0.014392,-0.26137,0.028359,-0.039526,-0.040825,-0.034004
422,-0.040825,0.021213,-0.23896,0.023812,-0.044073,-0.047646,-0.035303
423,-0.034329,0.030633,-0.16653,0.020239,-0.042124,-0.04992,-0.039851
424,-0.019712,0.040052,-0.075904,0.021213,-0.035953,-0.048296,-0.046347
425,-0.0054209,0.047847,-0.0015233,0.028359,-0.030431,-0.045372,-0.049595
426,0.0033489,0.053694,0.040052,0.039402,-0.028807,-0.041475,-0.048945
427,0.0056225,0.054993,0.050771,0.050446,-0.03238,-0.035303,-0.046996
428,0.0062721,0.050771,0.045899,0.057267,-0.037902,-0.027508,-0.046347
429,0.0085458,0.043625,0.037129,0.057917,-0.043423,-0.017764,-0.043748
430,0.011469,0.03583,0.030633,0.053044,-0.044073,-0.011592,-0.038227
431,0.011469,0.032906,0.031282,0.049796,-0.034654,-0.011592,-0.030431
432,0.008221,0.031932,0.037129,0.047523,-0.019388,-0.017439,-0.02426
433,0.0039985,0.032582,0.048497,0.046548,-0.0018481,-0.027183,-0.017764
434,-0.0011985,0.035505,0.059865,0.046873,0.010819,-0.034978,-0.014191
435,-0.0041217,0.042001,0.066037,0.049796,0.01764,-0.036927,-0.01549
436,-0.0044465,0.048497,0.063438,0.056292,0.016016,-0.029782,-0.020687
437,-0.0021729,0.050446,0.048822,0.062464,0.0078962,-0.013866,-0.024909
438,-0.00054884,0.046223,0.026735,0.065062,-0.0024977,0.0036737,-0.023935
439,-0.0021729,0.032906,0.0065969,0.064088,-0.010293,0.014068,-0.017439
440,-0.0076946,0.011794,-0.0083442,0.056942,-0.011267,0.016991,-0.010943
441,-0.015165,-0.0073698,-0.020687,0.042001,-0.0031473,0.010819,-0.0083442
442,-0.017114,-0.020037,-0.039526,0.021213,0.01017,-0.0054209,-0.0089938
443,-0.01549,-0.028157,-0.067459,0.0010752,0.019914,-0.025559,-0.010943
444,-0.008669,-0.036602,-0.10319,-0.014191,0.020239,-0.043748,-0.012892
445,-0.0011985,-0.043748,-0.14184,-0.022311,0.011794,-0.056416,-0.012567
446,0.0023744,-0.045372,-0.17172,-0.021337,0.00042559,-0.059989,-0.013541
447,-0.00022403,-0.043099,-0.18764,-0.0096434,-0.0047713,-0.056741,-0.019388
448,-0.0093186,-0.041475,-0.19771,0.0088706,-0.0044465,-0.050569,-0.028807
449,-0.020362,-0.044073,-0.20713,0.02706,0.00010078,-0.043748,-0.034004
450,-0.028482,-0.046022,-0.20323,0.037778,0.008221,-0.035628,-0.029132
451,-0.029457,-0.044073,-0.1688,0.039402,0.015042,-0.027833,-0.015165
452,-0.020687,-0.03238,-0.097341,0.034206,0.016341,-0.021661,0.0069217
453,-0.008669,-0.013866,-0.0037969,0.031607,0.01017,-0.013866,0.031607
454,0.0046481,-0.00022403,0.087799,0.035505,-0.0021729,-0.0028225,0.053694
455,0.015042,-0.00087364,0.15536,0.046548,-0.013541,0.0088706,0.066686
456,0.022512,-0.014516,0.18784,0.06084,-0.018088,0.020239,0.06831
457,0.02706,-0.032705,0.19953,0.073507,-0.015815,0.026735,0.06019
458,0.031607,-0.042774,0.2096,0.081952,-0.012242,0.026085,0.051096
459,0.031932,-0.0405,0.22974,0.087474,-0.013541,0.026085,0.047523
460,0.029983,-0.024585,0.25637,0.0865,-0.01549,0.030308,0.053044
461,0.028034,0.0088706,0.28463,0.078704,-0.013541,0.037778,0.062789
462,0.028684,0.054993,0.30672,0.068635,-0.0037969,0.045899,0.070909
463,0.029658,0.096244,0.30997,0.063113,0.0078962,0.054993,0.074157
464,0.026085,0.11801,0.27846,0.06084,0.01764,0.063763,0.072208
465,0.013093,0.11054,0.2083,0.058891,0.021213,0.065387,0.064737
466,-0.0076946,0.080003,0.11118,0.05142,0.019264,0.061165,0.053044
467,-0.030431,0.040377,0.0072465,0.03583,0.014392,0.05272,0.042975
468,-0.048296,0.011469,-0.080127,0.013743,0.01017,0.044924,0.035505
469,-0.053168,0.0020496,-0.13762,-0.0080194,0.010819,0.041027,0.029333
470,-0.044398,0.010495,-0.1597,-0.02426,0.015367,0.039402,0.023487
471,-0.028482,0.02706,-0.15321,-0.031081,0.020564,0.041027,0.015692
472,-0.011267,0.043625,-0.12917,-0.029132,0.022837,0.041676,0.0062721
473,0.0046481,0.058566,-0.10124,-0.02361,0.024786,0.040052,-0.00022403
474,0.016991,0.070584,-0.073955,-0.015165,0.025436,0.041027,0.00042559
475,0.028359,0.080978,-0.048945,-0.0057458,0.026085,0.044599,0.0085458
476,0.038753,0.088448,-0.028157,0.0043233,0.027709,0.05207,0.01829
477,0.047523,0.09397,-0.011917,0.016341,0.02706,0.060515,0.025761
478,0.049147,0.092671,-0.00022403,0.025761,0.022188,0.065387,0.030308
479,0.044275,0.082602,0.0091954,0.033881,0.015042,0.066362,0.031282
480,0.040377,0.066362,0.01764,0.039402,0.0095202,0.063438,0.031932
481,0.039402,0.049472,0.023487,0.040702,0.0072465,0.054668,0.037778
482,0.042326,0.032257,0.027385,0.036804,0.0043233,0.045899,0.049147
483,0.046548,0.022512,0.028359,0.029983,0.0020496,0.037129,0.064413
484,0.053694,0.023162,0.024461,0.020564,0.0033489,0.032257,0.078379
485,0.064737,0.03453,0.016991,0.012119,0.0091954,0.029333,0.084226
486,0.079029,0.050446,0.010495,0.0059473,0.013743,0.029009,0.080003
487,0.093321,0.064413,0.0049729,0.00075039,0.0095202,0.029009,0.066037
488,0.10371,0.071883,-0.0028225,-0.0015233,-0.0011985,0.029333,0.044924
489,0.10534,0.070909,-0.016464,-0.0018481,-0.010943,0.030633,0.025111
490,0.095919,0.062464,-0.04115,0.00010078,-0.019712,0.032906,0.014068
491,0.079354,0.054019,-0.076879,0.0017248,-0.028482,0.037778,0.014068
492,0.062139,0.047847,-0.11456,-0.00087364,-0.037252,0.043625,0.021213
493,0.049147,0.045249,-0.14119,-0.012242,-0.047321,0.044924,0.034855
494,0.047847,0.041676,-0.14866,-0.03303,-0.058689,0.04395,0.051745
495,0.054993,0.03518,-0.14152,-0.059339,-0.067459,0.041351,0.064413
496,0.067661,0.024786,-0.14444,-0.079152,-0.073306,0.040052,0.069934
497,0.076755,0.016666,-0.18374,-0.086298,-0.076554,0.03518,0.069285
498,0.078379,0.013093,-0.27176,-0.082725,-0.078503,0.028034,0.061814
499,0.072533,0.015367,-0.39746,-0.072331,-0.084349,0.020564,0.049147
500,0.058891,0.021863,-0.53713,-0.061288,-0.096367,0.019264,0.036804
501,0.042975,0.028034,-0.66153,-0.050244,-0.10644,0.024461,0.031607
502,0.025436,0.032582,-0.73299,-0.041799,-0.10514,0.033881,0.033556
503,0.011794,0.040377,-0.70148,-0.034329,-0.090196,0.040702,0.042326
504,0.0062721,0.055643,-0.51504,-0.020687,-0.063886,0.039727,0.051745
505,0.011144,0.077405,-0.1649,0.0033489,-0.032705,0.033231,0.061165
506,0.020888,0.10436,0.27002,0.03453,0.00010078,0.021213,0.06896
507,0.029658,0.1258,0.66563,0.063763,0.033231,0.009845,0.069934
508,0.029983,0.13067,0.9323,0.084876,0.059216,0.0065969,0.060515
509,0.01764,0.10956,1.0405,0.094295,0.075456,0.0095202,0.042975
510,-0.0050961,0.067661,0.99596,0.093321,0.084876,0.013743,0.019589
511,-0.029132,0.01894,0.82414,0.0865,0.094945,0.013743,-0.0021729
512,-0.044398,-0.022961,0.57111,0.080003,0.11541,0.0095202,-0.016464
513,-0.045372,-0.04862,0.2895,0.073832,0.15276,0.008221,-0.018088
514,-0.035953,-0.056091,0.033556,0.071234,0.20668,0.011144,-0.010943
515,-0.020362,-0.047971,-0.15711,0.071883,0.27489,0.016016,0.0017248
516,-0.0037969,-0.025559,-0.26429,0.076106,0.34635,0.021213,0.017316
517,0.011144,0.0059473,-0.29872,0.082927,0.39734,0.027709,0.033556
518,0.021538,0.039727,-0.27046,0.091696,0.40481,0.033556,0.046223
519,0.025761,0.066037,-0.17335,0.095919,0.35869,0.038103,0.054344
520,0.030633,0.080653,0.0072465,0.092346,0.26904,0.038103,0.059216
521,0.036804,0.083576,0.26157,0.081952,0.16283,0.029333,0.058566
522,0.039078,0.071558,0.52824,0.065387,0.068635,0.011794,0.053694
523,0.033881,0.046223,0.7124,0.045249,0.0059473,-0.010618,0.046548
524,0.020239,0.01829,0.75203,0.022837,-0.022311,-0.026533,0.035505
525,0.0039985,0.0017248,0.66238,0.0036737,-0.027183,-0.027833,0.022512
526,-0.0076946,0.0043233,0.50972,-0.007045,-0.022636,-0.018413,0.01017
527,-0.01549,0.016991,0.34147,-0.011592,-0.022636,-0.0063954,0.0020496
528,-0.021337,0.023487,0.16933,-0.012892,-0.033679,0.00075039,-0.0021729
529,-0.027183,0.014717,0.00010078,-0.011917,-0.053817,-0.00054884,-0.0057458
530,-0.027508,-0.0073698,-0.14087,-0.0063954,-0.073631,-0.0089938,-0.007045
531,-0.02426,-0.032705,-0.22921,0.00010078,-0.085324,-0.018088,-0.0063954
532,-0.018413,-0.051868,-0.2552,0.0036737,-0.084024,-0.023935,-0.0050961
533,-0.012242,-0.059339,-0.23116,0.0059473,-0.072656,-0.02361,-0.0037969
534,-0.0067202,-0.054142,-0.18309,0.0072465,-0.061288,-0.016464,-0.0031473
535,-0.0018481,-0.045697,-0.1321,0.0091954,-0.052843,-0.0044465,-0.00087364
536,0.0062721,-0.037902,-0.095068,0.012443,-0.047971,0.0069217,0.0014
537,0.017965,-0.035628,-0.076554,0.017965,-0.043423,0.016341,0.0049729
538,0.02641,-0.037577,-0.071682,0.024786,-0.040175,0.021538,0.0069217
539,0.029009,-0.041799,-0.073955,0.030633,-0.038227,0.019914,0.0072465
540,0.028034,-0.046347,-0.078503,0.033231,-0.038227,0.011144,0.0075714
541,0.025436,-0.050569,-0.084674,0.033881,-0.038227,0.0023744,0.012768
542,0.024461,-0.054467,-0.095068,0.033556,-0.035303,-0.0024977,0.022512
543,0.025436,-0.052518,-0.10449,0.031932,-0.031081,-0.0021729,0.030308
544,0.023812,-0.047321,-0.11293,0.025761,-0.030756,0.00042559,0.032582
545,0.020239,-0.041799,-0.11878,0.017965,-0.037252,0.00042559,0.026085
546,0.018615,-0.037577,-0.12073,0.011469,-0.044723,-0.0044465,0.011469
547,0.01894,-0.03303,-0.11423,0.0072465,-0.04992,-0.012567,-0.0080194
548,0.015042,-0.028482,-0.095393,0.0052977,-0.053817,-0.022961,-0.026209
549,0.0052977,-0.022961,-0.068434,0.0069217,-0.054792,-0.034978,-0.040175
550,-0.0060706,-0.018088,-0.043099,0.011794,-0.053492,-0.045697,-0.048945
551,-0.011917,-0.015165,-0.029782,0.017316,-0.050894,-0.052193,-0.050569
552,-0.008669,-0.011917,-0.026858,0.024137,-0.046996,-0.055116,-0.046996
553,-0.0031473,-0.0047713,-0.027183,0.030308,-0.044398,-0.059339,-0.044723
554,-0.0034721,0.0036737,-0.029132,0.033231,-0.043423,-0.063561,-0.046996
555,-0.012242,0.0078962,-0.032705,0.032906,-0.04115,-0.062912,-0.04992
556,-0.026533,0.0043233,-0.037577,0.032582,-0.037252,-0.059014,-0.050894
557,-0.042124,-0.0044465,-0.042124,0.032257,-0.03238,-0.050569,-0.048296
558,-0.055116,-0.012892,-0.046996,0.027709,-0.028807,-0.034978,-0.040175
559,-0.062587,-0.015815,-0.050244,0.021538,-0.025884,-0.014191,-0.028807
560,-0.061937,-0.013216,-0.04862,0.01764,-0.021337,0.0062721,-0.015815
561,-0.056091,-0.010943,-0.044073,0.01764,-0.014191,0.01764,-0.0047713
562,-0.042774,-0.011917,-0.040825,0.018615,-0.0083442,0.015042,0.0020496
563,-0.02426,-0.013866,-0.042774,0.01764,-0.0073698,0.0046481,0.0036737
564,-0.0063954,-0.011592,-0.046022,0.016341,-0.010943,-0.0063954,0.0020496
565,0.0049729,-0.0041217,-0.046347,0.016991,-0.01614,-0.012892,0.0010752
566,0.008221,0.0062721,-0.044073,0.016341,-0.014191,-0.01614,0.0014
567,0.0085458,0.014717,-0.041799,0.015692,-0.0054209,-0.018088,0.003024
568,0.0088706,0.019914,-0.042124,0.017316,0.0014,-0.020362,0.0026992
569,0.010819,0.019914,-0.041799,0.023162,-0.0018481,-0.022636,0.0010752
570,0.014717,0.016016,-0.036602,0.032257,-0.01484,-0.022636,0.0046481
571,0.017965,0.012119,-0.024909,0.042001,-0.031081,-0.020362,0.012443
572,0.020888,0.011144,-0.0080194,0.045249,-0.04115,-0.01549,0.019264
573,0.023162,0.013093,0.012443,0.038428,-0.043748,-0.010943,0.022188
574,0.024461,0.021213,0.031282,0.024461,-0.039851,-0.007045,0.021538
575,0.026735,0.037454,0.046873,0.0069217,-0.035953,-0.0021729,0.021213
576,0.032582,0.063113,0.063113,-0.007045,-0.03238,0.00042559,0.022837
577,0.04395,0.088773,0.084226,-0.016464,-0.027833,-0.0018481,0.023812
578,0.062139,0.10664,0.11118,-0.021661,-0.024909,-0.008669,0.02706
579,0.081303,0.11118,0.13327,-0.026209,-0.026533,-0.01484,0.033881
580,0.092671,0.098193,0.14172,-0.029132,-0.03238,-0.017764,0.041676
581,0.090722,0.067661,0.13392,-0.027833,-0.038876,-0.01484,0.045249
582,0.075781,0.030633,0.10924,-0.021661,-0.047646,-0.007045,0.043625
583,0.057267,-0.0041217,0.064737,-0.008669,-0.055441,0.0017248,0.041351
584,0.044599,-0.030106,0.0023744,0.0056225,-0.058689,0.0072465,0.044275
585,0.041676,-0.043099,-0.068109,0.016341,-0.052518,0.0091954,0.053044
586,0.047523,-0.043099,-0.13794,0.019264,-0.0405,0.011144,0.062789
587,0.056942,-0.027508,-0.2042,0.016666,-0.027833,0.016341,0.069934
588,0.066362,-0.0031473,-0.25682,0.012443,-0.018738,0.020239,0.070909
589,0.070909,0.029658,-0.27436,0.0095202,-0.010293,0.022188,0.064088
590,0.071883,0.067986,-0.24188,0.011794,-0.00054884,0.024786,0.053369
591,0.070584,0.10469,-0.16782,0.016991,0.013743,0.028034,0.040702
592,0.063763,0.12937,-0.08305,0.01894,0.024786,0.027709,0.030633
593,0.051745,0.13262,-0.017114,0.016341,0.024461,0.020239,0.022512
594,0.036804,0.11963,0.021863,0.0078962,0.011144,0.0059473,0.01894
595,0.023162,0.098517,0.042975,-0.00087364,-0.0067202,-0.011267,0.019264
596,0.016666,0.078379,0.062464,-0.00054884,-0.014516,-0.022961,0.021863
597,0.01894,0.061489,0.085525,0.0072465,-0.0093186,-0.02426,0.024786
598,0.025761,0.045574,0.10729,0.01764,0.0052977,-0.016464,0.027385
599,0.033881,0.032582,0.11508,0.025111,0.021538,-0.0041217,0.02641
600,0.039402,0.02706,0.10371,0.029333,0.034855,0.0091954,0.018615
601,0.039402,0.02706,0.075456,0.028684,0.042651,0.016341,0.0078962
602,0.030957,0.030308,0.038753,0.023812,0.040702,0.013093,-0.00054884
603,0.010819,0.030308,0.0062721,0.01894,0.031282,0.0036737,-0.0034721
604,-0.013541,0.02706,-0.012567,0.012768,0.025761,-0.0047713,-0.00022403
605,-0.03238,0.021538,-0.015815,0.0065969,0.027385,-0.0044465,0.0056225
606,-0.041475,0.016016,-0.0093186,0.0014,0.031607,0.0059473,0.008221
607,-0.040175,0.0088706,-0.0021729,-0.00054884,0.03518,0.021863,0.008221
608,-0.035628,0.0052977,-0.00022403,0.0049729,0.038103,0.036479,0.0085458
609,-0.030756,0.0049729,-0.0044465,0.015042,0.037454,0.044275,0.0065969
610,-0.029782,0.0026992,-0.010943,0.025111,0.034855,0.044275,0.0043233
611,-0.032705,-0.0011985,-0.014516,0.029658,0.027709,0.037454,0.0014
612,-0.037577,-0.0034721,-0.013216,0.025111,0.016991,0.025111,-0.0018481
613,-0.044398,-0.0034721,-0.0073698,0.017965,0.011469,0.011794,-0.0041217
614,-0.046671,-0.0031473,-0.00087364,0.014717,0.015367,0.0039985,-0.0044465
615,-0.044398,-0.0054209,0.0033489,0.013418,0.028034,0.0026992,-0.0031473
616,-0.034654,-0.0093186,0.0046481,0.012768,0.042651,0.0052977,-0.0021729
617,-0.023285,-0.011917,0.00010078,0.012119,0.054344,0.0069217,-0.00054884
618,-0.01614,-0.011592,-0.0054209,0.014392,0.061489,0.0049729,0.00042559
619,-0.014191,-0.012567,-0.0076946,0.017965,0.059865,-0.00022403,0.003024
620,-0.018738,-0.017439,-0.0034721,0.024137,0.050446,-0.0041217,0.008221
621,-0.024585,-0.022636,0.0069217,0.029658,0.039402,-0.0021729,0.01764
622,-0.028807,-0.026533,0.022512,0.031607,0.032906,0.0043233,0.026085
623,-0.027183,-0.028482,0.039727,0.031607,0.034206,0.0036737,0.029333
624,-0.019063,-0.026209,0.049472,0.028034,0.038103,-0.0054209,0.02706
625,-0.0096434,-0.020037,0.048822,0.023487,0.041027,-0.017764,0.020239
626,-0.0067202,-0.012892,0.044924,0.023487,0.039078,-0.023285,0.011144
627,-0.013866,-0.007045,0.045249,0.02706,0.031282,-0.021012,0.00075039
628,-0.028807,-0.0015233,0.05142,0.029009,0.021213,-0.013216,-0.0096434
629,-0.044073,0.0039985,0.054993,0.026735,0.011794,-0.00087364,-0.022636
630,-0.052518,0.0078962,0.048172,0.018615,0.0026992,0.013418,-0.034654
631,-0.053492,0.0085458,0.032257,0.0039985,-0.0057458,0.02641,-0.038551
632,-0.045697,0.0033489,0.014717,-0.010293,-0.014191,0.031932,-0.028482
633,-0.027183,-0.0047713,0.0026992,-0.018413,-0.023285,0.029009,-0.010293
634,0.0017248,-0.013541,-0.0011985,-0.017439,-0.030106,0.023487,0.011794
635,0.034206,-0.017114,0.0023744,-0.008669,-0.028807,0.021538,0.032906
636,0.061489,-0.013541,0.0078962,0.0026992,-0.020687,0.02641,0.050121
637,0.072208,-0.0021729,0.0059473,0.013743,-0.010293,0.036154,0.057592
638,0.067986,0.01894,-0.0028225,0.021538,0.0020496,0.045249,0.054344
639,0.053044,0.049796,-0.0089938,0.025436,0.01829,0.047523,0.046223
640,0.040377,0.086824,-0.0067202,0.028359,0.036154,0.044924,0.039078
641,0.03583,0.11866,0.0056225,0.033556,0.052395,0.040377,0.034855
642,0.031607,0.13457,0.023812,0.041351,0.063763,0.034206,0.029009
643,0.01764,0.13327,0.048172,0.050121,0.069934,0.024786,0.022512
644,-0.0047713,0.12223,0.06961,0.056617,0.076106,0.012768,0.013743
645,-0.031406,0.10534,0.081303,0.053044,0.082277,0.0039985,0.0052977
646,-0.055116,0.078379,0.078379,0.041351,0.088448,0.0023744,0.00075039
647,-0.07428,0.040702,0.063763,0.028684,0.092346,0.0078962,0.0010752
648,-0.085324,-0.0018481,0.04395,0.023487,0.089748,0.01829,0.0075714
649,-0.084674,-0.038227,0.023487,0.02641,0.078704,0.026085,0.016341
650,-0.070707,-0.059664,0.010495,0.032257,0.058566,0.030308,0.022837
651,-0.045047,-0.063237,0.008221,0.037129,0.031282,0.030633,0.024461
652,-0.01484,-0.052193,0.014068,0.041027,0.0075714,0.028359,0.023162
653,0.014068,-0.027183,0.023162,0.045899,-0.0050961,0.024461,0.019914
654,0.034206,0.0033489,0.030957,0.052395,-0.0024977,0.017965,0.014717
655,0.042326,0.032906,0.038753,0.057267,0.010495,0.012443,0.0072465
656,0.038753,0.056617,0.048822,0.061814,0.030308,0.009845,-0.0011985
657,0.031282,0.071234,0.063438,0.065387,0.053369,0.0085458,-0.0054209
658,0.028359,0.080328,0.080328,0.06961,0.074482,0.0075714,-0.0015233
659,0.033231,0.082927,0.097868,0.074157,0.087474,0.0088706,0.0075714
660,0.044599,0.079354,0.11183,0.076755,0.085525,0.0095202,0.01764
661,0.058891,0.075131,0.11963,0.076106,0.069934,0.0088706,0.023487
662,0.070909,0.073182,0.11541,0.072858,0.044275,0.0085458,0.023812
663,0.073832,0.070909,0.10306,0.067661,0.015692,0.012768,0.022188
664,0.068635,0.06896,0.090072,0.059216,-0.0096434,0.020888,0.021213
665,0.062789,0.06896,0.080003,0.048822,-0.026858,0.027385,0.023162
666,0.059216,0.071234,0.073182,0.041351,-0.034978,0.032257,0.029658
667,0.055643,0.069285,0.067011,0.039727,-0.034329,0.03453,0.040377
668,0.049147,0.060515,0.059865,0.044924,-0.027508,0.034855,0.054019
669,0.045899,0.044599,0.055643,0.05142,-0.016789,0.032906,0.066362
670,0.047198,0.029009,0.054668,0.050771,-0.0080194,0.032582,0.072208
671,0.049796,0.01894,0.054668,0.040702,-0.0054209,0.035505,0.071234
672,0.047847,0.017965,0.054668,0.021863,-0.012892,0.042326,0.063763
673,0.038428,0.022837,0.060515,0.0014,-0.028482,0.050771,0.052395
674,0.023162,0.025761,0.076755,-0.013541,-0.046671,0.055643,0.037129
675,0.010495,0.023812,0.10566,-0.018088,-0.059664,0.054019,0.018615
676,0.0049729,0.020564,0.14561,-0.012242,-0.062587,0.047198,0.0014
677,0.010819,0.022188,0.18524,-0.00054884,-0.061613,0.038103,-0.0083442
678,0.021863,0.027709,0.19466,0.0095202,-0.053817,0.029658,-0.0067202
679,0.030308,0.034855,0.14724,0.014392,-0.042774,0.025111,0.0014
680,0.03518,0.042975,0.030633,0.013093,-0.025559,0.025111,0.013743
681,0.036804,0.048822,-0.14087,0.0095202,-0.0063954,0.029009,0.023812
682,0.038103,0.048172,-0.33283,0.0069217,0.003024,0.031932,0.026735
683,0.037454,0.042001,-0.49718,0.0065969,-0.0037969,0.029658,0.023487
684,0.033556,0.034855,-0.57578,0.0069217,-0.027183,0.019264,0.019589
685,0.02641,0.030308,-0.53063,0.0072465,-0.054467,0.00010078,0.014068
686,0.019914,0.030308,-0.37278,0.0052977,-0.073306,-0.023285,0.010495
687,0.019914,0.034206,-0.16035,0.0039985,-0.078178,-0.045372,0.011469
688,0.02641,0.038428,0.03583,0.0056225,-0.072656,-0.059339,0.014392
689,0.032582,0.032257,0.16575,0.013743,-0.064211,-0.064211,0.0095202
690,0.03453,0.016341,0.22292,0.025111,-0.055116,-0.059664,-0.0011985
691,0.036804,-0.0024977,0.23364,0.039402,-0.045697,-0.051868,-0.011592
692,0.038428,-0.017114,0.23136,0.053369,-0.036602,-0.045372,-0.016789
693,0.040377,-0.025559,0.23331,0.064413,-0.030756,-0.040825,-0.017114
694,0.0433,-0.029782,0.22812,0.065387,-0.027833,-0.036278,-0.018088
695,0.042975,-0.037577,0.2044,0.054668,-0.026533,-0.031081,-0.020362
696,0.039078,-0.051544,0.16121,0.03583,-0.027183,-0.021661,-0.021337
697,0.031282,-0.067459,0.10306,0.019914,-0.027508,-0.010943,-0.018413
698,0.024461,-0.080776,0.039078,0.013093,-0.023935,-0.00087364,-0.0080194
699,0.01829,-0.086623,-0.020362,0.013418,-0.018738,0.0056225,0.0056225
700,0.010819,-0.082076,-0.06551,0.013418,-0.012242,0.0023744,0.013093
701,0.0010752,-0.067784,-0.089546,0.0075714,-0.0047713,-0.0063954,0.012119
702,-0.0076946,-0.049595,-0.095393,-0.0044465,0.0017248,-0.01484,0.0088706
703,-0.013216,-0.034329,-0.089871,-0.021012,0.0059473,-0.014516,0.012119
704,-0.013541,-0.021337,-0.080776,-0.035953,0.013093,-0.0021729,0.023487
705,-0.0076946,-0.012567,-0.073306,-0.045372,0.023812,0.01764,0.036154
706,-0.0015233,-0.0060706,-0.067459,-0.047646,0.035505,0.03453,0.039727
707,0.00075039,-0.00054884,-0.058689,-0.042124,0.046873,0.042651,0.037454
708,-0.0024977,0.0014,-0.045372,-0.032055,0.055318,0.041027,0.03453
709,-0.0073698,0.0017248,-0.02426,-0.020362,0.057592,0.036479,0.033881
710,-0.0080194,0.0020496,0.0020496,-0.0080194,0.053694,0.031932,0.033556
711,0.0014,0.0056225,0.026085,0.0072465,0.044275,0.029009,0.031932
712,0.016666,0.011794,0.036154,0.025436,0.033231,0.026085,0.025761
713,0.030308,0.016666,0.027709,0.041027,0.020564,0.021538,0.015692
714,0.034855,0.021538,0.0065969,0.050446,0.009845,0.01829,0.0069217
715,0.033556,0.02706,-0.018738,0.054019,0.00010078,0.017316,0.0056225
716,0.029983,0.030633,-0.043748,0.05207,-0.0060706,0.017316,0.009845
717,0.028034,0.033556,-0.070058,0.045574,-0.010293,0.01764,0.016666
718,0.02706,0.032257,-0.10221,0.036154,-0.011267,0.01894,0.023487
719,0.028359,0.025111,-0.13307,0.028684,-0.0080194,0.021538,0.025761
720,0.029009,0.013743,-0.15029,0.025436,0.0020496,0.024786,0.027709
721,0.025111,0.0059473,-0.14899,0.024786,0.019589,0.028684,0.029333
722,0.015367,0.0023744,-0.14022,0.024461,0.03453,0.031932,0.029333
723,0.0026992,0.0023744,-0.12852,0.020239,0.038428,0.031282,0.027709
724,-0.008669,0.0043233,-0.10221,0.016016,0.031282,0.029333,0.022188
725,-0.015165,0.010819,-0.041799,0.013418,0.015692,0.022837,0.016341
726,-0.016464,0.021213,0.05207,0.014068,-0.0044465,0.016991,0.0095202
727,-0.011592,0.031607,0.15861,0.017316,-0.020687,0.011469,0.0046481
728,-0.0034721,0.039727,0.24598,0.024461,-0.027833,0.0059473,-0.00022403
729,0.0065969,0.044924,0.29373,0.033881,-0.028807,0.0020496,-0.0031473
730,0.015042,0.047847,0.30542,0.041676,-0.028482,-0.00054884,-0.0060706
731,0.019914,0.047198,0.29275,0.044599,-0.029132,-0.0018481,-0.0080194
732,0.021213,0.043625,0.26742,0.041351,-0.025559,-0.0054209,-0.0096434
733,0.021213,0.036804,0.23429,0.029983,-0.017764,-0.0093186,-0.0096434
734,0.024137,0.028034,0.19369,0.015692,-0.0096434,-0.012242,-0.0080194
735,0.027709,0.022188,0.15081,0.0046481,-0.0050961,-0.013541,-0.0047713
736,0.028034,0.023812,0.11183,0.0010752,-0.0044465,-0.015165,-0.0028225
737,0.024137,0.031932,0.075781,0.0017248,-0.0018481,-0.020687,-0.0028225
738,0.01894,0.039078,0.029983,0.0046481,0.0033489,-0.026858,-0.0057458
739,0.017316,0.038428,-0.039526,0.0069217,0.0095202,-0.030431,-0.011267
740,0.017316,0.025111,-0.14379,0.0072465,0.011469,-0.027183,-0.01484
741,0.012768,0.00010078,-0.27793,0.0052977,0.0059473,-0.024585,-0.012892
742,0.008221,-0.026209,-0.41695,0.0033489,-0.0034721,-0.026209,-0.0089938
743,0.0065969,-0.038876,-0.53323,0.0020496,-0.011917,-0.031081,-0.0057458
744,0.0072465,-0.035628,-0.60177,0.003024,-0.018738,-0.028482,-0.0067202
745,0.0065969,-0.017764,-0.59754,0.008221,-0.024585,-0.01484,-0.0096434
746,0.0046481,0.0091954,-0.49458,0.021863,-0.026858,0.0043233,-0.011917
747,0.0023744,0.038428,-0.28605,0.0433,-0.019388,0.016016,-0.012242
748,0.0010752,0.065712,0.0072465,0.066362,-0.0060706,0.015692,-0.012567
749,-0.00087364,0.087149,0.33465,0.087149,0.0075714,0.0065969,-0.015815
750,-0.0018481,0.10079,0.63185,0.10404,0.014392,-0.0057458,-0.020037
751,-0.0024977,0.10631,0.8394,0.10859,0.014068,-0.018738,-0.022311
752,-0.0011985,0.10371,0.91703,0.098193,0.0085458,-0.026858,-0.019063
753,-0.0018481,0.090397,0.85012,0.072858,-0.00054884,-0.027833,-0.013866
754,-0.0047713,0.067011,0.66596,0.036804,-0.013866,-0.022961,-0.0076946
755,-0.0044465,0.040702,0.42657,0.0010752,-0.027183,-0.018088,-0.0011985
756,0.0010752,0.018615,0.2057,-0.024585,-0.03303,-0.012567,0.0095202
757,0.0085458,0.0065969,0.054344,-0.033679,-0.030756,-0.0037969,0.023812
758,0.014717,0.0085458,-0.0034721,-0.028157,-0.025884,0.0036737,0.040052
759,0.015692,0.024786,0.024137,-0.013866,-0.020037,0.01017,0.05207
760,0.013418,0.047847,0.10144,0.0014,-0.010618,0.016016,0.057592
761,0.012443,0.070259,0.169,0.011144,0.00075039,0.023162,0.054993
762,0.015692,0.086824,0.18037,0.012119,0.011794,0.02706,0.045899
763,0.021863,0.096893,0.12353,0.008221,0.017965,0.023487,0.036479
764,0.025436,0.097218,0.022512,0.0039985,0.018615,0.010495,0.028359
765,0.024461,0.086175,-0.093119,0.0020496,0.012119,-0.007045,0.01894
766,0.01894,0.064088,-0.20485,-0.0015233,-0.0028225,-0.021661,0.0065969
767,0.012119,0.033556,-0.301,-0.0050961,-0.021986,-0.030106,-0.0041217
768,0.0072465,0.0033489,-0.3744,-0.010293,-0.035953,-0.031406,-0.0054209
769,0.0069217,-0.017114,-0.4189,-0.018738,-0.036927,-0.031081,0.00075039
770,0.011794,-0.017764,-0.43124,-0.028807,-0.025884,-0.032705,0.010495
771,0.016991,0.00075039,-0.41403,-0.034978,-0.0073698,-0.034654,0.021538
772,0.019264,0.032582,-0.3718,-0.03238,0.012119,-0.034978,0.032582
773,0.017965,0.065387,-0.30035,-0.021986,0.029658,-0.03173,0.042001
774,0.014717,0.0865,-0.18666,-0.010618,0.045249,-0.026209,0.054019
775,0.011794,0.087474,-0.014516,-0.0041217,0.059865,-0.020687,0.063438
776,0.0085458,0.069285,0.19856,-0.0031473,0.075131,-0.018738,0.065387
777,0.0039985,0.03518,0.39084,-0.007045,0.090397,-0.024909,0.055643
778,-0.0047713,-0.0031473,0.49446,-0.014191,0.099817,-0.034004,0.041027
779,-0.010943,-0.037902,0.48276,-0.023935,0.10047,-0.039526,0.032257
780,-0.0089938,-0.061613,0.3798,-0.034654,0.094945,-0.03303,0.033231
781,0.003024,-0.070382,0.23006,-0.038876,0.092021,-0.016464,0.04395
782,0.020564,-0.069408,0.082602,-0.032055,0.09462,0.0017248,0.059541
783,0.033556,-0.064211,-0.021986,-0.018088,0.10014,0.013093,0.073507
784,0.036479,-0.05804,-0.070058,-0.0024977,0.10306,0.014392,0.080003
785,0.029658,-0.051544,-0.072006,0.015042,0.097868,0.013418,0.077405
786,0.017965,-0.044073,-0.04992,0.033881,0.08585,0.013743,0.068635
787,0.0078962,-0.036278,-0.020687,0.050121,0.06831,0.014392,0.057592
788,0.0023744,-0.029782,0.00075039,0.06019,0.049147,0.014717,0.045899
789,0.0065969,-0.026209,0.0072465,0.064088,0.029333,0.011794,0.037778
790,0.017965,-0.023935,-0.0018481,0.065712,0.01017,0.010495,0.035505
791,0.029658,-0.022961,-0.019388,0.066362,-0.0080194,0.010495,0.034206
792,0.03518,-0.020687,-0.044073,0.063438,-0.025884,0.010819,0.031282
793,0.033556,-0.016464,-0.074605,0.055318,-0.043099,0.013418,0.022512
794,0.032906,-0.0096434,-0.10806,0.042326,-0.057065,0.01764,0.0095202
795,0.039727,0.00075039,-0.14314,0.031932,-0.064861,0.021213,-0.0011985
796,0.05207,0.0091954,-0.17724,0.028359,-0.061937,0.020564,-0.0050961
797,0.063438,0.011469,-0.20388,0.031607,-0.044398,0.015367,-0.00054884
798,0.070909,0.0072465,-0.21362,0.039078,-0.010618,0.011144,0.009845
799,0.070584,-0.0011985,-0.20258,0.048172,0.03453,0.015367,0.022837
800,0.062464,-0.0083442,-0.1727,0.059216,0.0852,0.02706,0.031607
801,0.047523,-0.0096434,-0.1321,0.068635,0.13749,0.037778,0.036804
802,0.026735,-0.0047713,-0.098316,0.07708,0.18134,0.041676,0.042326
803,0.0046481,-0.00087364,-0.080127,0.082602,0.20505,0.039727,0.047523
804,-0.013866,-0.0018481,-0.082076,0.082602,0.20311,0.038103,0.048822
805,-0.027508,-0.0067202,-0.092145,0.07708,0.17745,0.039078,0.046548
806,-0.034978,-0.011592,-0.096367,0.066037,0.13457,0.039727,0.042001
807,-0.039851,-0.011267,-0.085973,0.055968,0.081952,0.036804,0.034855
808,-0.0405,-0.0037969,-0.066485,0.049472,0.031282,0.032257,0.023162
809,-0.038227,0.0056225,-0.044723,0.048822,-0.0057458,0.029658,0.0075714
810,-0.029132,0.012443,-0.028807,0.053369,-0.024909,0.026085,-0.0080194
811,-0.016464,0.020239,-0.019712,0.055968,-0.03238,0.017965,-0.017439
812,0.00042559,0.025436,-0.016789,0.054019,-0.037902,0.011144,-0.018413
813,0.021213,0.031607,-0.018088,0.047198,-0.045372,0.011144,-0.014191
814,0.039402,0.042001,-0.020687,0.038103,-0.052843,0.016016,-0.0099683
815,0.050121,0.054668,-0.021986,0.028684,-0.058689,0.020564,-0.010618
816,0.05142,0.065387,-0.019063,0.021863,-0.062262,0.01829,-0.015815
817,0.047198,0.06896,-0.011267,0.016991,-0.060963,0.012768,-0.022961
818,0.042326,0.065062,0.00010078,0.015042,-0.056741,0.0078962,-0.026533
819,0.040702,0.058891,0.012443,0.014717,-0.053492,0.008221,-0.021986
820,0.040702,0.054668,0.022188,0.01764,-0.052843,0.011144,-0.014191
821,0.041676,0.054344,0.02706,0.023812,-0.058689,0.013743,-0.0057458
822,0.041676,0.058891,0.023487,0.030957,-0.068109,0.016991,-0.0011985
823,0.041676,0.065387,0.019264,0.036479,-0.07493,0.021863,-0.0047713
824,0.042001,0.071558,0.015367,0.041027,-0.077203,0.029983,-0.011592
825,0.041027,0.073832,0.013093,0.039727,-0.073631,0.040052,-0.01549
826,0.039402,0.071883,0.012768,0.033231,-0.064861,0.047198,-0.011267
827,0.039078,0.067336,0.012768,0.021863,-0.052518,0.048172,-0.0015233
828,0.039078,0.063763,0.01017,0.008221,-0.043423,0.041676,0.0069217
829,0.038428,0.060515,0.0020496,-0.0047713,-0.037577,0.031282,0.01017
830,0.032906,0.054668,-0.0073698,-0.017764,-0.036927,0.023162,0.0078962
831,0.01894,0.046548,-0.0096434,-0.028807,-0.037577,0.019264,0.0049729
832,0.003024,0.039078,-0.0031473,-0.037577,-0.039201,0.020564,0.0033489
833,-0.011917,0.033881,0.0069217,-0.041799,-0.038876,0.029658,0.00042559
834,-0.020037,0.032257,0.015692,-0.043748,-0.033679,0.039078,-0.0047713
835,-0.018738,0.034855,0.025111,-0.042449,-0.026209,0.04395,-0.0067202
836,-0.0076946,0.042651,0.034855,-0.037577,-0.018738,0.042001,-0.0047713
837,0.0052977,0.054019,0.042001,-0.029457,-0.015815,0.03583,-0.0024977
838,0.0095202,0.062464,0.042001,-0.017439,-0.020037,0.029983,-0.0028225
839,-0.0028225,0.062789,0.032906,-0.0057458,-0.026209,0.024461,-0.0073698
840,-0.026209,0.054019,0.019914,0.0033489,-0.031406,0.01829,-0.012567
841,-0.051544,0.03453,0.0088706,0.008221,-0.035303,0.0095202,-0.019063
842,-0.073306,0.008221,0.0052977,0.01017,-0.0405,-0.00054884,-0.030756
843,-0.089221,-0.018088,0.012443,0.01017,-0.051544,-0.010618,-0.043099
844,-0.10221,-0.036278,0.022188,0.011794,-0.064861,-0.019063,-0.04927
845,-0.10546,-0.046022,0.027385,0.012443,-0.073631,-0.021986,-0.042774
846,-0.094093,-0.050569,0.026085,0.013743,-0.071357,-0.022311,-0.026533
847,-0.070382,-0.053168,0.023487,0.014392,-0.061613,-0.021337,-0.008669
848,-0.039526,-0.048945,0.022188,0.015042,-0.04927,-0.02361,0.0014
849,-0.012242,-0.039201,0.023487,0.015042,-0.042124,-0.027183,0.00075039
850,0.0039985,-0.030756,0.027709,0.010495,-0.040175,-0.031081,-0.0034721
851,0.0059473,-0.027183,0.030633,0.0023744,-0.037577,-0.031406,-0.0054209
852,-0.00022403,-0.025559,0.032257,-0.0093186,-0.030756,-0.027508,-0.0034721
853,-0.0080194,-0.020687,0.032582,-0.020362,-0.020362,-0.020687,-0.0011985
854,-0.013216,-0.015165,0.034855,-0.029132,-0.0096434,-0.013541,-0.0050961
855,-0.018088,-0.012242,0.042975,-0.030431,0.0023744,-0.0083442,-0.012892
856,-0.021012,-0.013541,0.054668,-0.023935,0.013418,-0.013216,-0.020037
857,-0.02361,-0.018738,0.064088,-0.0099683,0.025436,-0.026209,-0.025884
858,-0.029782,-0.025234,0.061489,0.0049729,0.036804,-0.039201,-0.027833
859,-0.037902,-0.027183,0.045574,0.016666,0.046873,-0.042774,-0.023285
860,-0.04862,-0.024585,0.021863,0.020564,0.05142,-0.036278,-0.016464
861,-0.055766,-0.021012,-0.0015233,0.019264,0.051096,-0.020362,-0.010943
862,-0.055441,-0.01549,-0.01484,0.01829,0.045249,0.0020496,-0.0063954
863,-0.045697,-0.0080194,-0.018088,0.021538,0.037454,0.024137,-0.0011985
864,-0.023935,0.0026992,-0.011267,0.029658,0.030633,0.042651,0.0046481
865,0.0043233,0.014717,0.011144,0.039078,0.026735,0.053044,0.010495
866,0.035505,0.029658,0.058241,0.048172,0.026085,0.055318,0.016666
867,0.063438,0.046223,0.13847,0.053694,0.031607,0.054344,0.023162
868,0.080653,0.058241,0.24176,0.053694,0.042651,0.044275,0.032582
869,0.083251,0.057592,0.31906,0.049472,0.053694,0.029983,0.042326
870,0.074806,0.045249,0.32166,0.045574,0.058566,0.015367,0.051096
871,0.063763,0.023812,0.24111,0.040377,0.054019,0.0059473,0.058241
872,0.054993,0.0020496,0.11866,0.033231,0.04395,0.003024,0.062139
873,0.05142,-0.011267,0.0065969,0.025436,0.031282,0.0069217,0.063763
874,0.050121,-0.012892,-0.060313,0.020239,0.023487,0.011794,0.063763
875,0.05272,-0.0050961,-0.072981,0.017965,0.023812,0.014068,0.064088
876,0.060515,0.011469,-0.047646,0.016341,0.032582,0.012119,0.066362
877,0.070909,0.03583,-0.0050961,0.017316,0.047847,0.0088706,0.074157
878,0.081952,0.058891,0.033881,0.01829,0.066362,0.0075714,0.084876
879,0.087474,0.074482,0.054993,0.018615,0.078379,0.009845,0.09397
880,0.086175,0.078704,0.054344,0.020239,0.078704,0.016991,0.095919
881,0.080653,0.074157,0.037778,0.023162,0.066686,0.026735,0.093645
882,0.070259,0.064088,0.015042,0.026735,0.048497,0.033556,0.092346
883,0.056617,0.053369,-0.00087364,0.026085,0.028359,0.033231,0.09397
884,0.042651,0.045249,-0.0031473,0.022188,0.013418,0.024137,0.095919
885,0.029333,0.038753,0.0020496,0.017316,0.0072465,0.010495,0.093321
886,0.01829,0.03583,0.0059473,0.013418,0.0088706,-0.0037969,0.085525
887,0.010819,0.037454,0.0059473,0.0095202,0.012119,-0.015815,0.075456
888,0.0065969,0.041351,0.003024,0.0056225,0.0075714,-0.02361,0.067661
889,0.0069217,0.046223,-0.0015233,0.00042559,-0.0080194,-0.029132,0.06019
890,0.012443,0.049147,-0.007045,0.00010078,-0.028482,-0.030756,0.053369
891,0.019914,0.049472,-0.010618,0.0052977,-0.045697,-0.026858,0.047198
892,0.024461,0.047198,-0.0063954,0.016341,-0.054792,-0.019388,0.041351
893,0.025761,0.044599,0.0095202,0.030308,-0.057065,-0.0093186,0.033881
894,0.024461,0.040052,0.036479,0.038428,-0.059014,-0.0021729,0.024461
895,0.022837,0.036154,0.072533,0.038428,-0.062262,0.0017248,0.016991
896,0.023812,0.038753,0.10891,0.031607,-0.064536,-0.00087364,0.011469
897,0.026085,0.047198,0.13912,0.022512,-0.063886,-0.007045,0.0091954
898,0.030633,0.055643,0.15796,0.014068,-0.055116,-0.012242,0.009845
899,0.037454,0.060515,0.16803,0.0085458,-0.0405,-0.01614,0.013093
900,0.046223,0.062139,0.17062,0.0052977,-0.021986,-0.018738,0.019589
901,0.055968,0.062464,0.15601,0.0065969,-0.0067202,-0.020687,0.027709
902,0.067011,0.061814,0.10859,0.012119,0.0020496,-0.022961,0.036479
903,0.073182,0.061489,0.020564,0.018615,0.0069217,-0.019712,0.042001
904,0.078379,0.059541,-0.099615,0.024786,0.009845,-0.010618,0.045574
905,0.082927,0.05207,-0.23863,0.026735,0.009845,0.00010078,0.047198
906,0.081303,0.038428,-0.37862,0.026085,0.0062721,0.0069217,0.047847
907,0.06831,0.020564,-0.49848,0.018615,-0.00087364,0.0065969,0.046548
908,0.051096,0.0046481,-0.57351,0.0069217,-0.0083442,0.0046481,0.041676
909,0.041027,-0.00054884,-0.57611,-0.0015233,-0.011592,0.0033489,0.03453
910,0.040702,0.0091954,-0.48549,0.00042559,-0.0060706,0.0010752,0.028034
911,0.049796,0.03453,-0.30165,0.016016,0.009845,-0.00054884,0.028034
912,0.063763,0.063438,-0.065835,0.041676,0.032582,0.0010752,0.031932
913,0.075781,0.084551,0.15503,0.065387,0.048497,0.0075714,0.032257
914,0.076755,0.085525,0.3038,0.079354,0.050771,0.013418,0.026085
915,0.065062,0.070259,0.36583,0.082277,0.044924,0.016666,0.016991
916,0.047523,0.048172,0.36064,0.079029,0.038428,0.017965,0.0088706
917,0.030633,0.023812,0.31744,0.074482,0.034206,0.020239,0.0052977
918,0.017965,0.00042559,0.2606,0.06961,0.031607,0.023162,0.0046481
919,0.01017,-0.017114,0.20018,0.063438,0.029333,0.024461,0.0052977
920,0.0056225,-0.02426,0.14139,0.056292,0.023812,0.025111,0.0059473
921,0.00042559,-0.023285,0.090072,0.050771,0.015042,0.01894,0.0059473
922,-0.0047713,-0.021661,0.050446,0.050121,0.0039985,0.0052977,0.003024
923,-0.012567,-0.024909,0.023812,0.049472,-0.0047713,-0.010943,-0.0034721
924,-0.02361,-0.033679,0.0095202,0.046223,-0.0089938,-0.022311,-0.014516
925,-0.037577,-0.047971,-0.00087364,0.037778,-0.0067202,-0.03238,-0.029782
926,-0.053817,-0.06681,-0.015165,0.023162,-0.0015233,-0.041799,-0.045697
927,-0.069083,-0.082725,-0.038227,0.0091954,0.0017248,-0.04927,-0.060963
928,-0.075904,-0.096367,-0.064861,-0.0021729,0.0043233,-0.050569,-0.071357
929,-0.068109,-0.10416,-0.0824,-0.0060706,0.009845,-0.044073,-0.071682
930,-0.052193,-0.10481,-0.079152,-0.0054209,0.016666,-0.032055,-0.060313
931,-0.040175,-0.10059,-0.053817,0.00010078,0.019589,-0.01614,-0.038551
932,-0.035303,-0.088896,-0.012242,0.0078962,0.019264,0.0017248,-0.01614
933,-0.034978,-0.067134,0.040702,0.017965,0.016341,0.014392,0.00010078
934,-0.027508,-0.029457,0.10469,0.031282,0.014717,0.021538,0.01017
935,-0.010293,0.019914,0.1638,0.046548,0.021213,0.023487,0.01764
936,0.009845,0.067986,0.18946,0.058566,0.036804,0.019914,0.025436
937,0.023812,0.098193,0.15991,0.06019,0.055318,0.014717,0.029658
938,0.024786,0.10631,0.093321,0.050446,0.073182,0.010819,0.030633
939,0.016341,0.093645,0.027709,0.038428,0.083901,0.013743,0.029009
940,0.0020496,0.071883,-0.0099683,0.030308,0.086175,0.025111,0.027385
941,-0.010293,0.054019,-0.01549,0.025761,0.0852,0.040377,0.028359
942,-0.013541,0.044924,-0.00054884,0.023812,0.081303,0.05272,0.030308
943,-0.0080194,0.042651,0.019264,0.024137,0.078379,0.059541,0.028359
944,-0.00087364,0.037778,0.030957,0.025761,0.076106,0.058891,0.022837
945,0.0043233,0.025436,0.031932,0.028034,0.074806,0.050446,0.016341
946,0.0062721,0.0075714,0.027385,0.032257,0.06961,0.039078,0.012768
947,0.0049729,-0.012567,0.019264,0.036154,0.058241,0.027709,0.013093
948,0.0049729,-0.026858,0.0056225,0.039402,0.043625,0.019264,0.017316
949,0.0078962,-0.028482,-0.016464,0.042001,0.030957,0.014392,0.025111
950,0.013743,-0.014516,-0.053492,0.042651,0.021538,0.015692,0.032257
951,0.023812,0.010495,-0.11293,0.041676,0.015692,0.020564,0.03583
952,0.037454,0.032257,-0.18179,0.039727,0.012119,0.028034,0.032906
953,0.0433,0.040702,-0.23116,0.036804,0.0088706,0.032906,0.022837
954,0.038428,0.038428,-0.23311,0.034206,0.0036737,0.03453,0.009845
955,0.027709,0.032257,-0.17984,0.033556,0.0039985,0.03518,0.0036737
956,0.015367,0.029009,-0.096042,0.03518,0.01017,0.034855,0.0069217
957,0.003024,0.032257,-0.014191,0.037454,0.01894,0.030957,0.011794
958,-0.0044465,0.037454,0.045899,0.039727,0.022188,0.025761,0.010819
959,-0.0083442,0.039078,0.081303,0.041027,0.020564,0.020239,0.0033489
960,-0.0089938,0.036479,0.095919,0.042001,0.016016,0.016666,-0.0093186
961,-0.011592,0.028034,0.099817,0.044275,0.012119,0.016341,-0.022311
962,-0.01484,0.015042,0.10274,0.045249,0.0078962,0.019589,-0.029132
963,-0.015815,0.00075039,0.11248,0.041351,0.003024,0.021538,-0.028482
964,-0.018088,-0.011917,0.13295,0.033881,-0.00087364,0.01894,-0.025234
965,-0.020687,-0.021661,0.15698,0.026085,-0.0011985,0.014392,-0.016789
966,-0.022961,-0.026209,0.1768,0.020239,0.00042559,0.011794,-0.0037969
967,-0.022961,-0.023285,0.18167,0.013743,-0.00022403,0.01017,0.0095202
968,-0.023285,-0.011267,0.16608,0.0069217,-0.0067202,0.0091954,0.015692
969,-0.022961,0.008221,0.1245,0.00075039,-0.018738,0.0056225,0.012119
970,-0.019712,0.029658,0.057592,-0.0054209,-0.035628,0.00042559,0.00075039
971,-0.016464,0.049796,-0.024909,-0.0096434,-0.053492,-0.0067202,-0.014191
972,-0.01484,0.063763,-0.10871,-0.012242,-0.065186,-0.013866,-0.021337
973,-0.014191,0.071234,-0.17075,-0.010943,-0.069733,-0.016464,-0.014191
974,-0.016789,0.074482,-0.18601,-0.007045,-0.069083,-0.012567,0.003024
975,-0.016789,0.07773,-0.14574,-0.00054884,-0.064861,-0.0067202,0.022512
976,-0.012567,0.087799,-0.063561,0.0072465,-0.058365,-0.0024977,0.033881
977,-0.0054209,0.10112,0.031932,0.013093,-0.052518,0.00075039,0.03518
978,0.00010078,0.11151,0.10794,0.01894,-0.045372,0.0091954,0.027709
979,0.0020496,0.11054,0.14042,0.024786,-0.037577,0.019264,0.014392
980,0.0017248,0.097543,0.1206,0.027709,-0.03238,0.025761,0.0036737
981,0.0026992,0.075456,0.063113,0.023487,-0.029457,0.024137,-0.00054884
982,0.0059473,0.053044,-0.0093186,0.017965,-0.032055,0.020239,0.00010078
983,0.014392,0.036804,-0.073955,0.017965,-0.037577,0.01894,0.0052977
984,0.029983,0.030308,-0.11975,0.022837,-0.043423,0.022188,0.011144
985,0.047847,0.036804,-0.14054,0.026085,-0.046671,0.028684,0.017965
986,0.062464,0.05207,-0.13859,0.022188,-0.046347,0.03583,0.025761
987,0.069285,0.064413,-0.11586,0.012768,-0.045372,0.041351,0.03583
988,0.067011,0.067986,-0.076879,0.0010752,-0.047646,0.04395,0.0433
989,0.061814,0.061489,-0.032055,-0.0093186,-0.050244,0.043625,0.046548
990,0.055643,0.048822,0.010495,-0.01549,-0.05804,0.041027,0.047198
991,0.050446,0.029658,0.0433,-0.015165,-0.067134,0.038753,0.047198
992,0.042326,0.0078962,0.064413,-0.011917,-0.072006,0.034206,0.048172
993,0.02706,-0.012567,0.073507,-0.0050961,-0.067784,0.023487,0.048822
994,0.0046481,-0.025234,0.069934,0.0020496,-0.054467,0.0095202,0.046223
995,-0.015165,-0.027183,0.058566,0.0072465,-0.035953,-0.0044465,0.040702
996,-0.023935,-0.02426,0.045574,0.01017,-0.01614,-0.013541,0.03453
997,-0.019063,-0.019712,0.035505,0.011794,-0.00054884,-0.017439,0.029658
998,-0.0044465,-0.01549,0.029983,0.011144,0.0085458,-0.021012,0.024786
999,0.011794,-0.011592,0.014392,0.0095202,0.0095202,-0.020687,0.01894
1000,0.025761,-0.012892,-0.033679,0.0056225,0.0020496,-0.018738,0.015692
1001,0.033231,-0.022311,-0.11683,-0.00022403,-0.011267,-0.017764,0.01829
1002,0.031932,-0.035303,-0.21687,-0.010943,-0.021337,-0.019712,0.021213
1003,0.026085,-0.046022,-0.31236,-0.023935,-0.025559,-0.025559,0.023812
1004,0.017316,-0.051219,-0.38577,-0.036927,-0.020037,-0.029132,0.022837
1005,0.0085458,-0.048945,-0.42962,-0.045697,-0.007045,-0.025234,0.019589
1006,0.0017248,-0.036927,-0.43417,-0.047646,0.009845,-0.010618,0.014392
1007,0.00042559,-0.013541,-0.37992,-0.036602,0.022512,0.0095202,0.003024
1008,0.0043233,0.016991,-0.24838,-0.013866,0.029658,0.023487,-0.0099683
1009,0.012443,0.049147,-0.045697,0.014717,0.033556,0.023162,-0.017764
1010,0.022837,0.076106,0.18264,0.039078,0.036479,0.014068,-0.017764
1011,0.029009,0.089748,0.3772,0.054344,0.036154,0.0023744,-0.012242
1012,0.028034,0.084876,0.50225,0.060515,0.034206,-0.0076946,-0.0050961
1013,0.023487,0.065062,0.55617,0.061165,0.033231,-0.012892,-0.0011985
1014,0.020564,0.038428,0.55877,0.061489,0.038103,-0.011592,-0.0031473
1015,0.024137,0.014717,0.52499,0.064737,0.042975,-0.0041217,-0.010293
1016,0.032906,-0.0021729,0.46587,0.067336,0.039727,0.0036737,-0.018088
1017,0.038428,-0.010293,0.39214,0.065387,0.028684,0.0056225,-0.025234
1018,0.037454,-0.0099683,0.31679,0.057917,0.017965,0.0052977,-0.029132
1019,0.028684,-0.0080194,0.24728,0.046873,0.014392,0.00075039,-0.028482
1020,0.014392,-0.0057458,0.18427,0.036804,0.022837,-0.007045,-0.023285
1021,-0.0011985,0.00010078,0.12872,0.027709,0.037778,-0.021012,-0.018088
1022,-0.016464,0.012119,0.08585,0.022837,0.048172,-0.042774,-0.017114
1023,-0.029782,0.027385,0.054668,0.020239,0.046548,-0.060963,-0.024909
1024,-0.0405,0.040702,0.031932,0.016341,0.033881,-0.069733,-0.041799
1025,-0.046671,0.040052,0.016991,0.010819,0.016341,-0.068109,-0.063561
1026,-0.055441,0.020888,0.0017248,0.0026992,0.0014,-0.059989,-0.080776
1027,-0.070382,-0.01549,-0.012567,-0.0073698,-0.007045,-0.04862,-0.089871
1028,-0.088247,-0.059664,-0.020362,-0.019388,-0.011267,-0.036602,-0.087922
1029,-0.10091,-0.10189,-0.021661,-0.030106,-0.015165,-0.028807,-0.075579
1030,-0.10059,-0.13469,-0.03173,-0.030756,-0.015815,-0.030756,-0.060638
1031,-0.087272,-0.15256,-0.072981,-0.021012,-0.013541,-0.035628,-0.047646
1032,-0.06551,-0.15483,-0.15353,-0.0063954,-0.010293,-0.039526,-0.038551
1033,-0.043748,-0.14769,-0.25975,0.008221,-0.0063954,-0.035303,-0.029457
1034,-0.02426,-0.13177,-0.36303,0.020564,-0.0063954,-0.022311,-0.015815
1035,-0.0080194,-0.10611,-0.43417,0.031282,-0.0054209,-0.0028225,0.0039985
1036,0.0072465,-0.063886,-0.45268,0.034855,-0.0044465,0.016991,0.029658
1037,0.026735,-0.0041217,-0.41825,0.036154,-0.0018481,0.030957,0.055643
1038,0.048822,0.064413,-0.33478,0.040377,-0.0011985,0.03518,0.073507
1039,0.064737,0.12743,-0.20096,0.050121,-0.0037969,0.030633,0.076431
1040,0.070909,0.1677,-0.016464,0.061489,-0.0067202,0.021213,0.070259
1041,0.070909,0.1768,0.207,0.067011,-0.0057458,0.014717,0.059541
1042,0.067661,0.15276,0.43047,0.062789,0.00010078,0.011794,0.047198
1043,0.057917,0.10177,0.58281,0.045574,0.0069217,0.0091954,0.030633
1044,0.042975,0.03453,0.5958,0.019589,0.0085458,0.0075714,0.0075714
1045,0.025436,-0.028482,0.45386,-0.0096434,0.0049729,0.0049729,-0.017764
1046,0.012443,-0.070058,0.21058,-0.036927,-0.0031473,0.00010078,-0.038551
1047,0.0078962,-0.081751,-0.050244,-0.05804,-0.010618,-0.0018481,-0.043748
1048,0.013743,-0.068109,-0.24935,-0.073955,-0.010618,0.0026992,-0.032055
1049,0.030308,-0.035628,-0.33932,-0.084024,-0.0050961,0.010495,-0.0099683
1050,0.049796,0.0088706,-0.30424,-0.08305,-0.0018481,0.017965,0.014068
1051,0.066362,0.06084,-0.15191,-0.06616,-0.00022403,0.020888,0.033881
1052,0.07708,0.11183,0.06896,-0.034329,0.0033489,0.020564,0.047847
1053,0.083901,0.15081,0.27489,0.00042559,0.011469,0.019264,0.055643
1054,0.084876,0.1651,0.38954,0.028684,0.020564,0.017965,0.055318
1055,0.079029,0.15276,0.3876,0.047847,0.030957,0.016016,0.050446
1056,0.06961,0.11736,0.30022,0.059865,0.042651,0.009845,0.045899
1057,0.055318,0.076106,0.18329,0.063763,0.053044,0.0043233,0.040702
1058,0.038753,0.047198,0.08585,0.061814,0.067661,0.00010078,0.033231
1059,0.021213,0.036479,0.023487,0.058566,0.08585,-0.0018481,0.026085
1060,0.0069217,0.041027,-0.0093186,0.058891,0.10534,0.0010752,0.022188
1061,-0.0024977,0.050121,-0.028157,0.061814,0.12158,0.0078962,0.025111
1062,-0.0083442,0.050771,-0.04992,0.066686,0.13002,0.017316,0.033556
1063,-0.011592,0.037778,-0.089871,0.06961,0.12678,0.023812,0.040377
1064,-0.012242,0.013093,-0.14509,0.065712,0.11638,0.024461,0.041676
1065,-0.0080194,-0.012567,-0.19933,0.057917,0.10534,0.021213,0.039727
1066,0.0014,-0.029457,-0.23051,0.048497,0.094295,0.019589,0.03453
1067,0.014392,-0.032705,-0.22759,0.041351,0.081627,0.020564,0.029658
1068,0.019264,-0.021986,-0.19121,0.037129,0.067011,0.022512,0.028684
1069,0.013418,-0.0034721,-0.13989,0.034855,0.050771,0.026085,0.027385
1070,0.0043233,0.014717,-0.086623,0.031282,0.032582,0.027385,0.024461
1071,0.0017248,0.034855,-0.036278,0.025111,0.012768,0.023162,0.021538
1072,0.0095202,0.058891,0.014717,0.021538,-0.0063954,0.016016,0.018615
1073,0.025436,0.084226,0.057267,0.019264,-0.020037,0.013093,0.016341
1074,0.037454,0.10339,0.071558,0.015692,-0.029457,0.015692,0.016666
1075,0.039402,0.11346,0.050121,0.014717,-0.036927,0.016666,0.021213
1076,0.033231,0.10956,0.0075714,0.016666,-0.045047,0.014717,0.031607
1077,0.025111,0.093645,-0.027183,0.020888,-0.058365,0.012443,0.045574
1078,0.016991,0.072858,-0.041799,0.025436,-0.073631,0.013418,0.060515
1079,0.011794,0.05272,-0.040825,0.026735,-0.086298,0.013093,0.069934
1080,0.0095202,0.036479,-0.037252,0.024461,-0.088572,0.011144,0.071234
1081,0.012768,0.021863,-0.035628,0.01829,-0.084674,0.009845,0.066686
1082,0.017965,0.01017,-0.035628,0.011144,-0.080451,0.0091954,0.062139
1083,0.024137,-0.0034721,-0.03303,0.0056225,-0.080776,0.012119,0.059216
1084,0.030308,-0.017439,-0.026209,0.0049729,-0.0837,0.01894,0.06019
1085,0.033881,-0.03173,-0.018738,0.0088706,-0.085324,0.02641,0.066037
1086,0.03518,-0.041475,-0.011917,0.011144,-0.083375,0.028359,0.076106
1087,0.034855,-0.040825,-0.0060706,0.010819,-0.079152,0.024137,0.087799
1088,0.03453,-0.028482,0.0043233,0.0078962,-0.070707,0.01894,0.094945
1089,0.036479,-0.0034721,0.02706,0.0043233,-0.058689,0.01829,0.096893
1090,0.039727,0.027385,0.057592,0.0014,-0.040825,0.026085,0.094295
1091,0.042975,0.048822,0.084226,0.00042559,-0.018738,0.040052,0.091696
1092,0.047523,0.05207,0.090722,0.00075039,0.0056225,0.057592,0.090072
1093,0.05207,0.03453,0.070259,0.0017248,0.031932,0.072208,0.088124
1094,0.050771,0.0046481,0.028359,0.0039985,0.061489,0.079354,0.086175
1095,0.042651,-0.020687,-0.021337,0.0072465,0.098193,0.076431,0.084226
1096,0.031607,-0.03173,-0.071682,0.008221,0.13197,0.065712,0.083251
1097,0.022188,-0.025559,-0.1243,0.0033489,0.14821,0.051745,0.083576
1098,0.019264,-0.0093186,-0.17692,-0.0050961,0.14009,0.038428,0.080328
1099,0.025761,0.0078962,-0.21557,-0.011267,0.10891,0.027709,0.069934
1100,0.035505,0.01764,-0.22564,-0.010293,0.069285,0.023162,0.054344
1101,0.04395,0.020888,-0.20031,-0.0015233,0.036154,0.022188,0.042326
1102,0.045899,0.019914,-0.14574,0.0065969,0.01894,0.021863,0.035505
1103,0.044924,0.020564,-0.082076,0.011144,0.016666,0.01894,0.029983
1104,0.046873,0.025111,-0.028482,0.016016,0.022188,0.015692,0.025111
1105,0.053044,0.030633,0.0023744,0.022512,0.028034,0.016016,0.022837
1106,0.062464,0.031282,0.010819,0.027709,0.029009,0.018615,0.025436
1107,0.067661,0.024137,0.0078962,0.030308,0.023812,0.021863,0.028359
1108,0.065712,0.011794,0.0072465,0.031607,0.015042,0.022512,0.030308
1109,0.057917,-0.00054884,0.015042,0.031932,0.0052977,0.01764,0.031932
1110,0.045249,-0.0093186,0.02706,0.029009,-0.0067202,0.0085458,0.031282
1111,0.027385,-0.018088,0.032906,0.024137,-0.01549,0.00010078,0.029009
1112,0.0023744,-0.029132,0.029333,0.01894,-0.018088,-0.0031473,0.021538
1113,-0.022311,-0.038227,0.020239,0.01829,-0.017114,-0.0037969,0.012443
1114,-0.035628,-0.040825,0.014392,0.023162,-0.01549,-0.0054209,0.0075714
1115,-0.03238,-0.031406,0.020564,0.033556,-0.012892,-0.008669,0.0091954
1116,-0.016789,-0.018413,0.037454,0.046873,-0.0054209,-0.0083442,0.016666
1117,0.0039985,-0.0054209,0.054668,0.059216,0.0026992,-0.0054209,0.025436
1118,0.021863,0.0036737,0.064088,0.064737,0.0085458,-0.0031473,0.033556
1119,0.029333,0.0091954,0.068635,0.064088,0.011469,-0.0047713,0.036479
1120,0.027709,0.013418,0.069934,0.059216,0.012443,-0.010618,0.032257
1121,0.019264,0.015367,0.066686,0.05272,0.0091954,-0.017764,0.023162
1122,0.009845,0.018615,0.058241,0.041027,0.0010752,-0.021012,0.013418
1123,-0.0011985,0.022188,0.049147,0.027709,-0.008669,-0.018738,0.0062721
1124,-0.018413,0.024786,0.042975,0.012768,-0.014191,-0.0096434,0.0026992
1125,-0.035953,0.024137,0.041676,0.0010752,-0.017114,-0.0024977,0.0014
1126,-0.047971,0.016341,0.04395,-0.0060706,-0.018088,-0.0011985,-0.0021729
1127,-0.052193,0.0075714,0.047523,-0.0096434,-0.021012,-0.007045,-0.0089938
1128,-0.048945,0.0026992,0.053694,-0.010293,-0.023285,-0.018088,-0.016789
1129,-0.041475,0.0049729,0.066362,-0.0054209,-0.025559,-0.029457,-0.02426
1130,-0.035628,0.014717,0.083251,0.0020496,-0.025559,-0.039526,-0.033354
1131,-0.031081,0.02706,0.096893,0.012443,-0.023285,-0.043423,-0.041799
1132,-0.025884,0.038428,0.10014,0.022837,-0.022311,-0.039201,-0.046671
1133,-0.016464,0.046223,0.092021,0.032582,-0.021012,-0.02426,-0.045372
1134,-0.0011985,0.05207,0.078379,0.042975,-0.016789,-0.0031473,-0.035303
1135,0.021213,0.051096,0.071234,0.051096,-0.012892,0.016341,-0.018738
1136,0.045574,0.045249,0.076106,0.056292,-0.007045,0.026735,-0.0024977
1137,0.066037,0.038428,0.080653,0.054344,-0.0024977,0.026735,0.0049729
1138,0.076755,0.030957,0.064737,0.043625,-0.0015233,0.016016,0.0052977
1139,0.076755,0.028034,0.018615,0.026735,-0.0047713,0.0014,0.0039985
1140,0.06831,0.02641,-0.044398,0.0095202,-0.011267,-0.011917,0.0043233
1141,0.054019,0.023487,-0.10546,-0.0028225,-0.018738,-0.01549,0.0033489
1142,0.036154,0.022188,-0.15516,-0.0099683,-0.026858,-0.010618,0.003024
1143,0.021213,0.020564,-0.19056,-0.014191,-0.031406,0.00010078,0.0043233
1144,0.013418,0.01764,-0.20583,-0.011592,-0.028807,0.013743,0.0088706
1145,0.013093,0.015042,-0.19219,-0.00054884,-0.017764,0.028359,0.019589
1146,0.016016,0.015692,-0.13177,0.015692,-0.0041217,0.042651,0.03583
1147,0.016991,0.025436,-0.026533,0.033881,0.0088706,0.053369,0.050771
1148,0.011144,0.038753,0.092021,0.045249,0.015692,0.055968,0.059865
1149,-0.0018481,0.049147,0.17972,0.048497,0.01017,0.049472,0.059216
1150,-0.016464,0.05142,0.2161,0.044924,-0.0037969,0.039727,0.054019
1151,-0.027508,0.047847,0.21447,0.041027,-0.019063,0.031607,0.044924
1152,-0.029457,0.038428,0.19758,0.040052,-0.029132,0.026085,0.033881
1153,-0.025884,0.027385,0.18199,0.040052,-0.030756,0.021213,0.019264
1154,-0.017764,0.019914,0.1677,0.040702,-0.02426,0.016016,0.0056225
1155,-0.0057458,0.018615,0.15081,0.042001,-0.014191,0.012768,-0.0021729
1156,0.0052977,0.024461,0.12872,0.042001,-0.0031473,0.011144,-0.0028225
1157,0.0095202,0.034855,0.10177,0.042975,0.0069217,0.011469,-0.0044465
1158,0.0065969,0.042651,0.072208,0.046223,0.015042,0.013743,-0.013866
1159,-0.00087364,0.048497,0.047198,0.050771,0.016991,0.014068,-0.027508
1160,-0.0083442,0.055318,0.029983,0.054019,0.015367,0.012768,-0.038551
1161,-0.012242,0.059541,0.025111,0.055643,0.01017,0.0095202,-0.04115
1162,-0.012892,0.057917,0.025436,0.056617,0.008221,0.0072465,-0.037902
1163,-0.013866,0.053044,0.024137,0.056617,0.010495,0.008221,-0.032055
1164,-0.019063,0.046223,0.016991,0.054019,0.016341,0.013093,-0.025234
1165,-0.028482,0.042001,0.010495,0.050771,0.019914,0.017316,-0.021986
1166,-0.03303,0.041676,0.0085458,0.047198,0.018615,0.016666,-0.019712
1167,-0.026858,0.040377,0.008221,0.0433,0.011144,0.011144,-0.020037
1168,-0.012242,0.03453,0.0078962,0.036804,-0.0018481,0.0036737,-0.022636
1169,0.0014,0.021863,0.0052977,0.025761,-0.012242,-0.0041217,-0.032055
1170,0.0095202,0.0056225,0.00075039,0.013418,-0.016789,-0.0099683,-0.050244
1171,0.012119,-0.0067202,-0.0073698,0.0014,-0.012892,-0.012242,-0.070707
1172,0.012768,-0.013541,-0.01549,-0.0063954,-0.00087364,-0.013866,-0.084674
1173,0.012119,-0.014191,-0.021661,-0.010293,0.011794,-0.018738,-0.089221
1174,0.0078962,-0.010943,-0.024585,-0.008669,0.018615,-0.030106,-0.086948
1175,-0.0037969,-0.010943,-0.024585,-0.0028225,0.020888,-0.043099,-0.0824
1176,-0.023285,-0.019063,-0.022636,0.0052977,0.019914,-0.055766,-0.082076
1177,-0.042124,-0.030756,-0.018088,0.015042,0.014068,-0.071357,-0.0837
1178,-0.057715,-0.043099,-0.0099683,0.023812,0.0069217,-0.086298,-0.087597
1179,-0.068758,-0.052193,0.0014,0.027709,0.0036737,-0.094418,-0.092469
1180,-0.07493,-0.051219,0.013093,0.026735,0.0033489,-0.093769,-0.094743
1181,-0.079477,-0.041799,0.021863,0.023812,0.0036737,-0.087597,-0.09117
1182,-0.084999,-0.029132,0.024137,0.019589,0.0026992,-0.080451,-0.081751
1183,-0.090845,-0.022636,0.021213,0.01829,0.0039985,-0.075904,-0.072981
1184,-0.095717,-0.021337,0.014717,0.01829,0.0075714,-0.075255,-0.068434
1185,-0.097991,-0.025559,0.0056225,0.018615,0.014068,-0.07428,-0.067459
1186,-0.091495,-0.03303,-0.0024977,0.016016,0.022512,-0.070058,-0.066485
1187,-0.072331,-0.039851,-0.0054209,0.01017,0.030633,-0.064536,-0.068758
1188,-0.044073,-0.044398,0.0026992,0.0039985,0.036804,-0.058689,-0.070382
1189,-0.01614,-0.041475,0.01764,0.0043233,0.040377,-0.053492,-0.069083
1190,0.0036737,-0.030756,0.031607,0.011794,0.041676,-0.047321,-0.063886
1191,0.0091954,-0.01549,0.039727,0.022188,0.036804,-0.034329,-0.051219
1192,0.0033489,0.0014,0.048172,0.031282,0.029009,-0.018738,-0.036602
1193,-0.0028225,0.01829,0.060515,0.038103,0.016991,-0.0054209,-0.020687
1194,-0.00054884,0.033881,0.07708,0.041676,0.0078962,0.0036737,-0.0031473
1195,0.010819,0.049147,0.093321,0.042326,0.0039985,0.011144,0.015367
1196,0.029658,0.062139,0.10566,0.043625,0.0085458,0.020239,0.030308
1197,0.05142,0.06961,0.10924,0.043625,0.021863,0.029658,0.037778
1198,0.071558,0.06961,0.099817,0.039727,0.034206,0.036154,0.041676
1199,0.087474,0.064737,0.081952,0.03453,0.039402,0.039727,0.047198
1200,0.099817,0.054993,0.062464,0.031932,0.033881,0.041676,0.055318
1201,0.10534,0.045574,0.045574,0.030957,0.020564,0.042001,0.068635
1202,0.10079,0.039727,0.029009,0.030957,0.0078962,0.040377,0.080978
1203,0.087149,0.037454,0.014392,0.030633,0.0020496,0.037778,0.087149
1204,0.072858,0.03583,0.00075039,0.030957,0.0020496,0.03453,0.083901
1205,0.067011,0.035505,-0.0096434,0.029333,0.0056225,0.032906,0.073832
1206,0.069934,0.036479,-0.01614,0.028684,0.010819,0.033556,0.062464
1207,0.076431,0.038753,-0.015165,0.030957,0.014068,0.03453,0.053369
1208,0.082602,0.039078,-0.0067202,0.034855,0.014717,0.03518,0.048497
1209,0.08585,0.038428,0.0020496,0.037129,0.012768,0.033881,0.05272
1210,0.087149,0.039078,0.0085458,0.03583,0.008221,0.029333,0.062789
1211,0.0865,0.039078,0.014068,0.035505,0.0010752,0.023162,0.078704
1212,0.083251,0.040702,0.019264,0.038103,-0.0041217,0.022188,0.095269
1213,0.082927,0.044599,0.022188,0.044275,-0.0044465,0.026085,0.10566
1214,0.083576,0.049147,0.023162,0.04395,0.00042559,0.031932,0.10599
1215,0.081952,0.054668,0.016341,0.035505,0.0075714,0.039078,0.096244
1216,0.075781,0.06084,-0.0021729,0.022512,0.012768,0.045899,0.085525
1217,0.066362,0.066362,-0.033679,0.009845,0.011794,0.048822,0.07708
1218,0.053694,0.069934,-0.073306,0.00010078,0.003024,0.048172,0.073182
1219,0.042326,0.070584,-0.10838,-0.0054209,-0.008669,0.042326,0.074157
1220,0.036479,0.067011,-0.1243,-0.008669,-0.019063,0.029333,0.076755
1221,0.038428,0.055968,-0.10676,-0.008669,-0.023935,0.014392,0.074157
1222,0.041351,0.038428,-0.059014,-0.0067202,-0.023285,0.0023744,0.062789
1223,0.042326,0.020564,0.0065969,-0.0067202,-0.018088,-0.0034721,0.044924
1224,0.038428,0.0049729,0.075456,-0.008669,-0.012242,-0.0028225,0.026085
1225,0.031607,-0.0076946,0.12515,-0.011917,-0.0080194,0.00042559,0.014068
1226,0.025111,-0.017764,0.13944,-0.012892,-0.0050961,0.0023744,0.015367
1227,0.023812,-0.019388,0.11638,-0.0099683,-0.00054884,0.0026992,0.024461
1228,0.02641,-0.0050961,0.071234,-0.0047713,0.0065969,0.0026992,0.038753
1229,0.032257,0.026735,0.035505,0.0023744,0.016666,0.0046481,0.056292
1230,0.039078,0.069934,0.024786,0.0056225,0.023162,0.0085458,0.06961
1231,0.044599,0.10794,0.020564,0.0026992,0.024786,0.014392,0.076431
1232,0.049796,0.12872,-0.0083442,-0.0031473,0.019589,0.017316,0.073182
1233,0.053044,0.13327,-0.063886,-0.0067202,0.0095202,0.015042,0.065062
1234,0.053694,0.13132,-0.11098,-0.0054209,-0.0034721,0.008221,0.057267
1235,0.054019,0.13002,-0.11618,-0.00054884,-0.016464,-0.00022403,0.053694
1236,0.053369,0.12743,-0.080127,0.0026992,-0.027833,-0.0060706,0.056292
1237,0.049147,0.11963,-0.03303,-0.0011985,-0.037902,-0.0076946,0.060515
1238,0.036479,0.10436,0.0046481,-0.0099683,-0.043423,-0.0067202,0.062139
1239,0.016991,0.08585,0.028359,-0.018088,-0.046022,-0.0067202,0.06019
1240,-0.0073698,0.065387,0.037129,-0.021986,-0.047321,-0.010293,0.055318
1241,-0.030756,0.048497,0.033556,-0.021012,-0.046671,-0.013866,0.048822
1242,-0.046347,0.038428,0.017965,-0.015815,-0.041475,-0.014516,0.040052
1243,-0.051544,0.03453,-0.0099683,-0.010293,-0.031081,-0.013216,0.030957
1244,-0.04992,0.031282,-0.044723,-0.0076946,-0.019712,-0.0080194,0.024461
1245,-0.043748,0.024786,-0.068758,-0.0080194,-0.011917,-0.0024977,0.020888
1246,-0.034654,0.016016,-0.074605,-0.010618,-0.0041217,0.0026992,0.017965
1247,-0.027833,0.0056225,-0.068758,-0.0099683,0.0043233,0.0059473,0.017316
1248,-0.020687,-0.0050961,-0.060313,-0.0047713,0.009845,0.0085458,0.019264
1249,-0.019063,-0.015165,-0.052518,0.0010752,0.013418,0.014068,0.022837
1250,-0.021337,-0.022961,-0.046347,0.0033489,0.017316,0.023812,0.025436
1251,-0.025559,-0.028157,-0.043423,0.0017248,0.025436,0.033231,0.029009
1252,-0.029782,-0.028807,-0.054467,-0.0028225,0.036154,0.039727,0.030633
1253,-0.029457,-0.026533,-0.090521,-0.0076946,0.047198,0.042326,0.027385
1254,-0.027508,-0.026858,-0.15288,-0.0076946,0.06019,0.042975,0.023162
1255,-0.021012,-0.033679,-0.22921,-0.0024977,0.073182,0.045899,0.025761
1256,-0.0076946,-0.047321,-0.30619,0.0049729,0.084226,0.051096,0.036479
1257,0.0075714,-0.061288,-0.37343,0.011794,0.09397,0.058891,0.049147
1258,0.016991,-0.068109,-0.41598,0.017965,0.10079,0.06961,0.057267
1259,0.013743,-0.067134,-0.41013,0.020564,0.10599,0.080978,0.061814
1260,0.0026992,-0.061937,-0.32146,0.023162,0.10696,0.087799,0.065387
1261,-0.010943,-0.056416,-0.13762,0.031282,0.10436,0.090072,0.06831
1262,-0.020362,-0.050569,0.10664,0.042651,0.099492,0.083251,0.067336
1263,-0.02426,-0.046347,0.34829,0.054993,0.091047,0.070909,0.062464
1264,-0.022636,-0.046996,0.53214,0.069285,0.079679,0.059865,0.056292
1265,-0.018088,-0.051219,0.6299,0.079354,0.066037,0.05207,0.050121
1266,-0.014191,-0.057065,0.63672,0.082927,0.050121,0.04395,0.038428
1267,-0.0093186,-0.057715,0.57046,0.080328,0.033231,0.033231,0.022837
1268,0.00010078,-0.052193,0.46328,0.075131,0.01829,0.020239,0.0069217
1269,0.012443,-0.04115,0.34375,0.069934,0.0091954,0.013418,-0.0031473
1270,0.027709,-0.028807,0.23006,0.063763,0.0065969,0.01764,-0.0041217
1271,0.04395,-0.016464,0.131,0.055318,0.0046481,0.031607,0.003024
1272,0.062789,-0.0076946,0.053369,0.040702,0.0014,0.045574,0.010819
1273,0.073832,-0.0037969,0.0056225,0.021213,-0.00054884,0.05207,0.015042
1274,0.077405,-0.0044465,-0.013541,0.0059473,-0.0021729,0.048172,0.017316
1275,0.076431,-0.0031473,-0.0034721,-0.0011985,-0.0031473,0.041676,0.022512
1276,0.076755,0.0033489,0.026735,0.003024,-0.0089938,0.035505,0.028359
1277,0.079029,0.014392,0.059865,0.017316,-0.017764,0.032582,0.032582
1278,0.080978,0.02706,0.080653,0.033556,-0.026858,0.033231,0.031282
1279,0.078379,0.038753,0.076431,0.042326,-0.034654,0.03518,0.024137
1280,0.070259,0.04395,0.047198,0.040052,-0.039201,0.033881,0.014392
1281,0.059865,0.041676,0.0020496,0.029983,-0.037252,0.027709,0.0085458
1282,0.050446,0.037129,-0.047971,0.016666,-0.031081,0.025436,0.0043233
1283,0.039402,0.032906,-0.092145,0.0039985,-0.030431,0.030308,-0.00087364
1284,0.02706,0.028684,-0.12235,-0.00022403,-0.034978,0.038428,-0.0083442
1285,0.016666,0.023487,-0.13697,0.0026992,-0.046022,0.039402,-0.019712
1286,0.011469,0.019264,-0.13924,0.009845,-0.056416,0.028034,-0.030106
1287,0.012443,0.01894,-0.1334,0.020239,-0.060638,0.0088706,-0.033354
1288,0.015042,0.025436,-0.11098,0.031607,-0.055766,-0.0063954,-0.026533
1289,0.016016,0.035505,-0.06551,0.041676,-0.044398,-0.011267,-0.017114
1290,0.011469,0.045899,-0.0044465,0.050771,-0.031081,-0.011917,-0.012242
1291,-0.0011985,0.049147,0.049147,0.055318,-0.022311,-0.008669,-0.01484
1292,-0.020362,0.041027,0.081952,0.053694,-0.018413,-0.0047713,-0.021661
1293,-0.039201,0.022512,0.088448,0.046548,-0.016789,-0.0080194,-0.031081
1294,-0.04992,-0.0021729,0.064088,0.037129,-0.01614,-0.018413,-0.038227
1295,-0.050894,-0.027183,0.0069217,0.026735,-0.012242,-0.030431,-0.042774
1296,-0.044723,-0.045697,-0.078827,0.01764,-0.0057458,-0.034329,-0.043423
1297,-0.034978,-0.055766,-0.17887,0.010495,0.0033489,-0.027833,-0.0405
1298,-0.023935,-0.052843,-0.28053,0.0049729,0.015042,-0.01484,-0.033354
1299,-0.013541,-0.037902,-0.37018,-0.00022403,0.029658,-0.0047713,-0.023935
1300,-0.0057458,-0.01549,-0.43287,-0.0024977,0.044599,-0.0044465,-0.011592
1301,0.0010752,0.015367,-0.45171,0.003024,0.056292,-0.012567,-0.0011985
1302,0.0069217,0.055643,-0.4215,0.015692,0.059216,-0.023935,0.0046481
1303,0.014068,0.10274,-0.34387,0.033881,0.053369,-0.03238,0.009845
1304,0.021863,0.14691,-0.21752,0.054993,0.036804,-0.03303,0.014392
1305,0.025436,0.17517,-0.034329,0.074806,0.011469,-0.028482,0.015692
1306,0.019914,0.18232,0.20213,0.086175,-0.015165,-0.023935,0.012768
1307,0.003024,0.16575,0.44054,0.082602,-0.0405,-0.020362,0.0052977
1308,-0.013866,0.1297,0.60164,0.066362,-0.060313,-0.019388,-0.0047713
1309,-0.022311,0.087149,0.63185,0.042326,-0.073631,-0.022311,-0.01549
1310,-0.021012,0.049796,0.53408,0.022188,-0.080776,-0.026209,-0.021012
1311,-0.01484,0.02641,0.36259,0.01017,-0.079152,-0.029782,-0.018088
1312,-0.0080194,0.022512,0.18557,0.0072465,-0.072331,-0.032055,-0.0083442
1313,-0.0080194,0.030308,0.053369,0.010819,-0.063886,-0.029457,0.0023744
1314,-0.017114,0.037454,-0.01614,0.015042,-0.058689,-0.02361,0.0075714
1315,-0.028157,0.040052,-0.034978,0.014392,-0.054792,-0.019388,0.0075714
1316,-0.03238,0.035505,-0.027833,0.0059473,-0.049595,-0.021986,0.0023744
1317,-0.029132,0.021538,-0.019388,-0.007045,-0.046347,-0.028157,-0.0076946
1318,-0.020362,0.0017248,-0.02361,-0.021986,-0.045372,-0.034004,-0.019388
1319,-0.007045,-0.017439,-0.044723,-0.034329,-0.042449,-0.033679,-0.027833
1320,0.008221,-0.031081,-0.076554,-0.041799,-0.0405,-0.026858,-0.029782
1321,0.021863,-0.039201,-0.10806,-0.043099,-0.042449,-0.016789,-0.026209
1322,0.030308,-0.041799,-0.123,-0.042124,-0.044723,-0.0096434,-0.021986
1323,0.028034,-0.038551,-0.1191,-0.038227,-0.042124,-0.008669,-0.019388
1324,0.016341,-0.028482,-0.098316,-0.029457,-0.036602,-0.014191,-0.020362
1325,0.0020496,-0.016464,-0.066485,-0.016464,-0.03238,-0.024585,-0.02361
1326,-0.008669,-0.008669,-0.034654,-0.0021729,-0.034654,-0.039526,-0.030756
1327,-0.013541,-0.0057458,-0.010943,0.0069217,-0.04115,-0.050244,-0.038227
1328,-0.011592,-0.0031473,-0.00022403,0.0069217,-0.049595,-0.052843,-0.042449
1329,-0.0034721,0.00010078,0.0023744,0.00075039,-0.052843,-0.04862,-0.042124
1330,0.010495,0.0059473,0.0023744,-0.0063954,-0.044073,-0.039201,-0.03173
1331,0.024786,0.0091954,0.0049729,-0.013216,-0.027183,-0.028157,-0.015165
1332,0.03518,0.011469,0.0088706,-0.015815,-0.010293,-0.021012,0.00010078
1333,0.039078,0.011469,0.009845,-0.010618,0.0049729,-0.018088,0.0085458
1334,0.031607,0.009845,0.008221,0.0052977,0.01894,-0.017114,0.01017
1335,0.015692,0.0085458,0.0033489,0.029009,0.033231,-0.011592,0.011794
1336,0.0036737,0.009845,0.0010752,0.05272,0.046873,-0.0018481,0.016666
1337,0.00010078,0.015042,0.003024,0.067986,0.061165,0.009845,0.025761
1338,0.0023744,0.026085,0.014068,0.073182,0.073507,0.019589,0.037129
1339,-0.00054884,0.034206,0.031932,0.067661,0.082927,0.023162,0.045249
1340,-0.0096434,0.034206,0.047523,0.055643,0.091047,0.023162,0.050771
1341,-0.016464,0.025111,0.049472,0.040052,0.10664,0.024461,0.055643
1342,-0.015165,0.0095202,0.029658,0.029333,0.1362,0.028359,0.058241
1343,-0.0041217,-0.0099683,-0.024909,0.02641,0.17777,0.030957,0.057917
1344,0.011794,-0.028157,-0.11391,0.031607,0.21188,0.029333,0.056617
1345,0.028684,-0.042449,-0.21817,0.039078,0.22162,0.021538,0.056292
1346,0.038753,-0.052518,-0.31106,0.045249,0.20051,0.0091954,0.055968
1347,0.040377,-0.056741,-0.36726,0.050771,0.15471,-0.0054209,0.054668
1348,0.036479,-0.055766,-0.37473,0.056617,0.096893,-0.014191,0.052395
1349,0.030633,-0.046022,-0.32568,0.061165,0.047523,-0.01484,0.044275
1350,0.030308,-0.023285,-0.20875,0.066686,0.017965,-0.0076946,0.034855
1351,0.038753,0.011469,-0.015815,0.077405,0.012119,0.0052977,0.028684
1352,0.048497,0.051096,0.22617,0.092996,0.019264,0.019589,0.028684
1353,0.049796,0.082927,0.44249,0.10501,0.023812,0.031932,0.035505
1354,0.039078,0.095269,0.55162,0.10599,0.019589,0.03518,0.044924
1355,0.022512,0.083251,0.52661,0.097218,0.0091954,0.031607,0.052395
1356,0.0065969,0.053369,0.40514,0.082277,-0.0044465,0.022837,0.057592
1357,-0.0041217,0.020888,0.2619,0.065387,-0.016789,0.013743,0.055643
1358,-0.007045,0.00010078,0.15244,0.048497,-0.020362,0.0069217,0.046873
1359,-0.0054209,-0.0054209,0.097218,0.030957,-0.016464,0.0049729,0.033231
1360,-0.0018481,0.0014,0.082927,0.015692,-0.008669,0.010495,0.01829
1361,0.0033489,0.011794,0.088448,0.0033489,-0.0028225,0.019914,0.0078962
1362,0.0069217,0.019914,0.090072,-0.0018481,-0.0015233,0.029009,0.0036737
1363,0.0088706,0.027385,0.073832,-0.0031473,-0.0018481,0.032582,0.0039985
1364,0.011144,0.033556,0.036804,-0.0011985,-0.0037969,0.025436,0.0052977
1365,0.01764,0.037129,-0.0044465,0.0014,-0.012242,0.012768,0.0052977
1366,0.025761,0.038753,-0.030431,0.003024,-0.030106,0.00010078,0.003024
1367,0.031282,0.036804,-0.035628,0.0039985,-0.04992,-0.007045,-0.0050961
1368,0.031932,0.03453,-0.022636,0.0046481,-0.062262,-0.0067202,-0.01549
1369,0.029983,0.031282,0.00042559,0.0026992,-0.064536,-0.0021729,-0.022961
1370,0.028034,0.028034,0.030633,-0.0031473,-0.058365,0.0023744,-0.024909
1371,0.026735,0.02641,0.068635,-0.008669,-0.048945,0.0052977,-0.021986
1372,0.022512,0.025111,0.11411,-0.012242,-0.043099,0.0078962,-0.017764
1373,0.016341,0.025111,0.16056,-0.010618,-0.043423,0.011794,-0.011917
1374,0.0091954,0.024461,0.19239,-0.0034721,-0.047646,0.015692,-0.0034721
1375,0.0059473,0.023162,0.19791,0.0046481,-0.051544,0.014392,0.0049729
1376,0.012119,0.021213,0.17355,0.011469,-0.051868,0.0078962,0.0075714
1377,0.029009,0.019914,0.12937,0.014717,-0.051544,-0.0028225,0.0062721
1378,0.049796,0.021863,0.075781,0.014068,-0.051868,-0.010618,0.0046481
1379,0.064737,0.023812,0.022512,0.009845,-0.053168,-0.010943,0.0056225
1380,0.072208,0.017965,-0.029132,0.0014,-0.054467,-0.0060706,0.0069217
1381,0.06961,0.00042559,-0.082725,-0.0083442,-0.051868,-0.0015233,0.0091954
1382,0.059865,-0.023935,-0.13307,-0.016789,-0.044723,-0.0021729,0.016991
1383,0.047198,-0.044073,-0.1688,-0.022311,-0.034654,-0.0063954,0.023812
1384,0.040377,-0.052843,-0.17367,-0.020362,-0.026858,-0.0096434,0.027385
1385,0.0433,-0.042449,-0.14704,-0.01484,-0.022311,-0.0076946,0.029009
1386,0.057592,-0.008669,-0.10449,-0.0093186,-0.018413,-0.0031473,0.036154
1387,0.073507,0.044599,-0.064861,-0.0037969,-0.015165,-0.0018481,0.049147
1388,0.083576,0.099817,-0.039201,-0.00087364,-0.017439,-0.0044465,0.061814
1389,0.083901,0.13847,-0.030106,0.00010078,-0.024585,-0.0080194,0.06896
1390,0.075781,0.15016,-0.034654,0.00042559,-0.030756,-0.0076946,0.069285
1391,0.058241,0.13912,-0.042124,0.0023744,-0.029132,-0.0054209,0.065387
1392,0.038103,0.1206,-0.043748,0.0062721,-0.019712,-0.0054209,0.057917
1393,0.019589,0.10924,-0.036927,0.01017,-0.0083442,-0.008669,0.047847
1394,-0.00054884,0.10891,-0.025559,0.012443,-0.0018481,-0.010618,0.038753
1395,-0.021337,0.11086,-0.01614,0.014717,-0.0015233,-0.0099683,0.031607
1396,-0.043099,0.10534,-0.013866,0.016991,-0.00054884,-0.0083442,0.027385
1397,-0.060963,0.087149,-0.019712,0.019914,0.003024,-0.0054209,0.029333
1398,-0.069083,0.060515,-0.030756,0.025761,0.0065969,-0.0021729,0.03453
1399,-0.067784,0.033881,-0.041799,0.031282,0.0059473,0.0052977,0.040702
1400,-0.059339,0.011794,-0.045372,0.035505,0.0010752,0.015692,0.043625
1401,-0.046996,-0.0011985,-0.037252,0.038753,-0.0031473,0.026735,0.041027
1402,-0.035303,-0.0034721,-0.019388,0.039078,-0.0015233,0.03518,0.029333
1403,-0.029132,-0.00022403,-0.0015233,0.03518,0.0078962,0.045249,0.013093
1404,-0.031081,0.00042559,0.015692,0.029333,0.022188,0.055968,-0.00054884
1405,-0.036602,-0.0076946,0.030957,0.024786,0.037129,0.063438,-0.0054209
1406,-0.038551,-0.019388,0.039078,0.022837,0.052395,0.064737,-0.0044465
1407,-0.033679,-0.027508,0.036154,0.023487,0.064413,0.06084,0.0043233
1408,-0.023935,-0.026209,0.022837,0.025436,0.06961,0.055318,0.01764
1409,-0.010293,-0.019063,0.0036737,0.027709,0.063763,0.053694,0.029333
1410,0.0049729,-0.0099683,-0.019712,0.029983,0.054344,0.056617,0.03453
1411,0.016341,-0.00054884,-0.039851,0.03518,0.046548,0.064088,0.03453
1412,0.023812,0.0085458,-0.054467,0.040702,0.042326,0.070259,0.036479
1413,0.022512,0.013418,-0.062262,0.041676,0.041027,0.06831,0.038103
1414,0.016991,0.012119,-0.062587,0.038428,0.042001,0.061165,0.036154
1415,0.013093,0.0036737,-0.056416,0.029658,0.0433,0.054019,0.030308
1416,0.014717,-0.0076946,-0.045697,0.017316,0.046548,0.049472,0.022188
1417,0.020564,-0.020037,-0.032055,0.0088706,0.053694,0.047847,0.01764
1418,0.025761,-0.027508,-0.01549,0.0062721,0.059865,0.045574,0.016666
1419,0.028684,-0.031081,0.0033489,0.010819,0.063438,0.038428,0.019589
1420,0.033881,-0.029782,0.018615,0.022188,0.062464,0.02641,0.023487
1421,0.041676,-0.021337,0.02706,0.034206,0.057592,0.013743,0.028684
1422,0.050446,-0.012242,0.026735,0.0433,0.048822,0.0065969,0.036479
1423,0.057592,-0.0099683,0.024137,0.044924,0.040052,0.0062721,0.042975
1424,0.063763,-0.019063,0.023812,0.040377,0.03453,0.0095202,0.047198
1425,0.066037,-0.035953,0.026735,0.034855,0.032257,0.011469,0.049147
1426,0.063438,-0.051868,0.028359,0.031607,0.033231,0.011794,0.049472
1427,0.053369,-0.062587,0.024137,0.028034,0.039402,0.011144,0.048497
1428,0.03518,-0.070058,0.009845,0.022512,0.048172,0.011794,0.045899
1429,0.015692,-0.075904,-0.018088,0.016341,0.057592,0.01894,0.041676
1430,0.0010752,-0.073306,-0.054142,0.0091954,0.058891,0.029333,0.034206
1431,-0.0028225,-0.056416,-0.088572,0.0023744,0.051745,0.03583,0.026085
1432,0.0046481,-0.024909,-0.10871,-0.00054884,0.041676,0.03518,0.018615
1433,0.015042,0.01017,-0.10546,0.0072465,0.030308,0.026735,0.015692
1434,0.022837,0.03518,-0.076879,0.019914,0.019264,0.012119,0.01764
1435,0.020564,0.046873,-0.027183,0.034206,0.012443,-0.0021729,0.023812
1436,0.0072465,0.045249,0.042001,0.047198,0.011794,-0.011267,0.029658
1437,-0.011267,0.040052,0.13457,0.057267,0.011144,-0.014191,0.033881
1438,-0.028807,0.0433,0.25118,0.063763,0.0062721,-0.015165,0.034855
1439,-0.035628,0.06019,0.37201,0.066686,0.0043233,-0.018088,0.036154
1440,-0.031081,0.083576,0.4584,0.063438,0.013418,-0.021986,0.036804
1441,-0.017114,0.10112,0.48406,0.054344,0.026085,-0.021986,0.037454
1442,0.00075039,0.10924,0.44996,0.041676,0.030957,-0.019712,0.037454
1443,0.020888,0.10794,0.38272,0.02706,0.021538,-0.016789,0.033881
1444,0.039727,0.10339,0.31127,0.012768,-0.0021729,-0.014191,0.021863
1445,0.053369,0.097543,0.25345,0.0033489,-0.028807,-0.011592,0.0056225
1446,0.060515,0.090722,0.20928,-0.0015233,-0.046996,-0.0076946,-0.0067202
1447,0.062464,0.081952,0.16933,-0.0011985,-0.051219,-0.0037969,-0.012892
1448,0.062464,0.073832,0.12548,0.0033489,-0.045372,0.00010078,-0.013541
1449,0.062464,0.066362,0.069285,0.0088706,-0.034004,0.0010752,-0.014191
1450,0.06019,0.06019,-0.0015233,0.011144,-0.022311,-0.0018481,-0.016789
1451,0.048497,0.053369,-0.084349,0.0069217,-0.018088,-0.0093186,-0.025559
1452,0.028034,0.043625,-0.17335,-0.0015233,-0.025559,-0.021012,-0.037902
1453,0.0043233,0.033231,-0.25292,-0.011267,-0.043099,-0.034329,-0.050244
1454,-0.020037,0.024461,-0.30717,-0.019063,-0.060638,-0.046022,-0.058365
1455,-0.039201,0.017316,-0.3325,-0.022636,-0.070382,-0.048945,-0.061613
1456,-0.049595,0.011469,-0.33802,-0.021337,-0.069408,-0.040825,-0.060313
1457,-0.050894,0.0088706,-0.32795,-0.014191,-0.060963,-0.027508,-0.057065
1458,-0.047321,0.010819,-0.30197,-0.00022403,-0.04862,-0.01614,-0.056091
1459,-0.042449,0.016666,-0.2539,0.015042,-0.037252,-0.012567,-0.060313
1460,-0.039526,0.022837,-0.18991,0.025436,-0.029132,-0.016464,-0.070707
1461,-0.035953,0.025436,-0.12463,0.029658,-0.024585,-0.022961,-0.0824
1462,-0.028157,0.024137,-0.072656,0.02706,-0.022311,-0.029457,-0.090196
1463,-0.018088,0.019914,-0.038876,0.022188,-0.022961,-0.035953,-0.084999
1464,-0.0093186,0.016016,-0.020037,0.018615,-0.024909,-0.042774,-0.069408
1465,-0.0047713,0.012119,-0.0099683,0.020564,-0.023285,-0.048296,-0.050244
1466,-0.0028225,0.0072465,-0.0018481,0.021863,-0.01549,-0.04927,-0.034978
1467,-0.0011985,0.003024,0.0043233,0.020888,-0.0073698,-0.041475,-0.026533
1468,0.0014,0.0023744,0.0065969,0.016016,-0.0018481,-0.023935,-0.021661
1469,0.00075039,0.0043233,0.0010752,0.012443,-0.0018481,-0.0018481,-0.018088
1470,0.0026992,0.010495,-0.021337,0.0072465,-0.0024977,0.014717,-0.015165
1471,0.0052977,0.01764,-0.06616,-0.0015233,-0.0024977,0.021863,-0.013541
1472,0.0085458,0.025761,-0.12657,-0.012242,0.0010752,0.022837,-0.0099683
1473,0.015042,0.032582,-0.19478,-0.019063,0.0065969,0.021538,-0.0037969
1474,0.025761,0.041027,-0.25812,-0.020037,0.014068,0.016991,0.0069217
1475,0.040052,0.05272,-0.30165,-0.01484,0.022837,0.010495,0.021213
1476,0.056292,0.061165,-0.31821,-0.0037969,0.029333,0.0065969,0.034855
1477,0.066686,0.061814,-0.30327,0.0059473,0.029333,0.0059473,0.04395
1478,0.067336,0.051745,-0.24026,0.014717,0.024461,0.0043233,0.045574
1479,0.061814,0.040377,-0.11033,0.024461,0.020239,0.0023744,0.037454
1480,0.055968,0.037454,0.074806,0.038753,0.01764,0.00042559,0.028684
1481,0.053694,0.04395,0.26644,0.053369,0.013743,0.0020496,0.026085
1482,0.054344,0.053044,0.40871,0.061165,0.0088706,0.0069217,0.029333
1483,0.054344,0.056292,0.47757,0.061814,0.0039985,0.012768,0.033881
1484,0.051096,0.047847,0.48179,0.057917,0.0020496,0.01894,0.034855
1485,0.042326,0.028359,0.43957,0.05272,0.0017248,0.022512,0.034206
1486,0.029333,0.0036737,0.35641,0.047847,0.0014,0.021863,0.036804
1487,0.013743,-0.018088,0.22747,0.040377,0.00075039,0.01894,0.041027
1488,-0.0024977,-0.03173,0.059865,0.030633,0.0056225,0.018615,0.046873
1489,-0.016464,-0.036927,-0.11845,0.020564,0.012443,0.023812,0.051096
1490,-0.027183,-0.034978,-0.26754,0.016016,0.020888,0.030957,0.05142
1491,-0.028157,-0.031081,-0.36531,0.016991,0.029009,0.033881,0.049472
1492,-0.018088,-0.026858,-0.40916,0.021863,0.033881,0.031932,0.044924
1493,0.00010078,-0.019712,-0.39941,0.025436,0.032257,0.027709,0.031932
1494,0.01764,-0.0060706,-0.33023,0.028684,0.027385,0.027709,0.016666
1495,0.029983,0.015367,-0.18959,0.033556,0.023487,0.031282,0.0069217
1496,0.03583,0.037778,0.014717,0.042975,0.024786,0.034206,0.0052977
1497,0.034206,0.049796,0.24176,0.050446,0.028684,0.033556,0.0095202
1498,0.025111,0.046223,0.43664,0.053694,0.031607,0.029658,0.015692
1499,0.013743,0.026735,0.56592,0.053044,0.030957,0.01894,0.023812
1500,0.0026992,-0.0028225,0.61724,0.049796,0.024137,0.0043233,0.032257
1501,0.00010078,-0.032705,0.59547,0.049147,0.014068,-0.0089938,0.038428
1502,0.0056225,-0.052193,0.51784,0.048822,0.0043233,-0.01549,0.043625
1503,0.014068,-0.058689,0.40968,0.045899,-0.0028225,-0.011267,0.048172
1504,0.023812,-0.056741,0.30022,0.039727,-0.0060706,-0.00022403,0.054344
1505,0.033881,-0.047646,0.20798,0.033231,-0.0080194,0.01017,0.061489
1506,0.042651,-0.035303,0.13912,0.029333,-0.0096434,0.013743,0.070584
1507,0.047847,-0.025559,0.090722,0.025761,-0.010618,0.008221,0.079029
1508,0.04395,-0.021661,0.056617,0.025436,-0.0060706,0.00010078,0.083901
1509,0.034206,-0.02361,0.031607,0.02641,0.0020496,-0.008669,0.083901
1510,0.027709,-0.027833,0.012119,0.022512,0.012443,-0.017114,0.081303
1511,0.027385,-0.027833,-0.0021729,0.01764,0.020239,-0.018413,0.078379
1512,0.034855,-0.021337,-0.012242,0.013093,0.021863,-0.0096434,0.075131
1513,0.044599,-0.007045,-0.016789,0.011144,0.016341,0.0049729,0.074157
1514,0.05142,0.0091954,-0.017764,0.012443,0.0078962,0.017965,0.07708
1515,0.055968,0.020564,-0.017439,0.01764,-0.0011985,0.025111,0.079029
1516,0.056942,0.02706,-0.014516,0.027709,-0.0083442,0.030957,0.078055
1517,0.055318,0.031282,-0.011592,0.033881,-0.012892,0.03518,0.071234
1518,0.051745,0.033881,-0.010618,0.036154,-0.014191,0.03583,0.057917
1519,0.049147,0.033556,-0.011267,0.033231,-0.0083442,0.033231,0.042651
1520,0.050771,0.032906,-0.013541,0.02706,0.0039985,0.027709,0.029983
1521,0.05272,0.03518,-0.018738,0.021213,0.019914,0.01894,0.026085
1522,0.052395,0.041027,-0.024585,0.01764,0.03518,0.0075714,0.02706
1523,0.046873,0.044599,-0.032055,0.016341,0.045249,-0.0037969,0.028359
1524,0.03583,0.043625,-0.043748,0.017965,0.051096,-0.013216,0.028684
1525,0.022837,0.039727,-0.052193,0.019264,0.05272,-0.021012,0.029333
1526,0.0091954,0.037454,-0.049595,0.015367,0.05207,-0.026858,0.031932
1527,-0.0037969,0.038753,-0.036278,0.0049729,0.05207,-0.03238,0.031932
1528,-0.011592,0.040702,-0.016464,-0.0050961,0.05272,-0.037252,0.031607
1529,-0.011917,0.038428,0.0017248,-0.011267,0.056617,-0.041799,0.030957
1530,-0.008669,0.032257,0.013743,-0.0096434,0.066037,-0.041799,0.027709
1531,-0.0037969,0.026085,0.014392,-0.0011985,0.07773,-0.036278,0.019914
1532,-0.00087364,0.024137,0.00042559,0.010819,0.088448,-0.026533,0.012119
1533,0.0023744,0.029658,-0.03173,0.022188,0.098193,-0.01484,0.0075714
1534,-0.00022403,0.040377,-0.084674,0.029333,0.10144,-0.0054209,0.0049729
1535,-0.010943,0.05207,-0.15548,0.033231,0.090072,-0.00054884,0.0039985
1536,-0.028482,0.059541,-0.23214,0.031282,0.062789,-0.0021729,0.0020496
1537,-0.046996,0.063763,-0.29158,0.025436,0.028359,-0.0093186,-0.0037969
1538,-0.058365,0.061814,-0.30652,0.016341,-0.0034721,-0.017439,-0.0093186
1539,-0.056091,0.053369,-0.26039,0.011144,-0.021986,-0.022311,-0.013866
1540,-0.046671,0.039727,-0.16425,0.0091954,-0.030756,-0.018088,-0.01614
1541,-0.037577,0.024786,-0.054792,0.0088706,-0.035628,-0.0093186,-0.016464
1542,-0.031081,0.010495,0.029658,0.011144,-0.042774,0.0017248,-0.017764
1543,-0.027508,-0.0021729,0.067661,0.016016,-0.050244,0.0088706,-0.020362
1544,-0.026209,-0.013541,0.058566,0.022837,-0.052518,0.0091954,-0.023285
1545,-0.029782,-0.023285,0.020888,0.02641,-0.047971,0.008221,-0.026209
1546,-0.0405,-0.030756,-0.025234,0.027709,-0.042449,0.0095202,-0.03173
1547,-0.051219,-0.032705,-0.063237,0.026735,-0.038227,0.011469,-0.040825
1548,-0.055766,-0.027183,-0.085973,0.02641,-0.035303,0.015692,-0.049595
1549,-0.050569,-0.018088,-0.095068,0.022837,-0.039201,0.022837,-0.054792
1550,-0.04115,-0.0076946,-0.092469,0.014717,-0.050569,0.030957,-0.050244
1551,-0.030106,0.0033489,-0.084349,0.0026992,-0.065835,0.038753,-0.038551
1552,-0.021337,0.014717,-0.071682,-0.0093186,-0.079152,0.045249,-0.02361
1553,-0.014516,0.029333,-0.052518,-0.018413,-0.084349,0.050121,-0.014516
1554,-0.010943,0.046223,-0.027833,-0.019388,-0.076879,0.051745,-0.011267
1555,-0.0089938,0.064413,-0.0031473,-0.012892,-0.060638,0.050446,-0.010293
1556,-0.0067202,0.075131,0.012768,-0.0028225,-0.04115,0.046223,-0.0054209
1557,-0.0018481,0.071558,0.019264,0.0069217,-0.025559,0.044599,0.003024
1558,0.0043233,0.055968,0.019589,0.01829,-0.020037,0.044924,0.013418
1559,0.0091954,0.037454,0.015692,0.029983,-0.025234,0.048172,0.023162
1560,0.015042,0.024461,0.013743,0.038753,-0.036927,0.05207,0.029658
1561,0.01829,0.020239,0.016341,0.039078,-0.050569,0.056617,0.031932
1562,0.01894,0.021213,0.020564,0.032906,-0.059014,0.059216,0.028359
1563,0.01829,0.022837,0.022837,0.023162,-0.061288,0.055318,0.022512
1564,0.016341,0.023812,0.022837,0.01017,-0.056741,0.043625,0.015692
1565,0.011469,0.025436,0.023162,-0.00054884,-0.041475,0.030633,0.0078962
1566,0.0065969,0.026735,0.023162,-0.0057458,-0.015815,0.021538,-0.00087364
1567,0.0043233,0.024786,0.022188,-0.0021729,0.014717,0.01829,-0.0054209
1568,0.008221,0.022188,0.022188,0.0085458,0.041676,0.019264,-0.0044465
1569,0.016666,0.018615,0.025111,0.021538,0.059541,0.020239,0.00075039
1570,0.025436,0.017316,0.030308,0.034206,0.067986,0.015692,0.0085458
1571,0.03453,0.01894,0.032906,0.040377,0.067336,0.0062721,0.013743
1572,0.0433,0.024137,0.03518,0.040377,0.061814,-0.0034721,0.021863
1573,0.051745,0.029658,0.039727,0.036479,0.056292,-0.0073698,0.032257
1574,0.055968,0.032582,0.046873,0.032257,0.054344,-0.0057458,0.036479
1575,0.053044,0.03518,0.058566,0.023487,0.048822,-0.0037969,0.030957
1576,0.045899,0.034855,0.070584,0.0091954,0.036479,-0.00087364,0.017316
1577,0.037454,0.030633,0.074806,-0.010293,0.016341,0.0052977,0.0036737
1578,0.028034,0.023812,0.070259,-0.031081,-0.0044465,0.010495,-0.0034721
1579,0.021213,0.01829,0.058891,-0.047971,-0.016789,0.009845,-0.0060706
1580,0.019914,0.015367,0.047198,-0.054142,-0.019712,0.0056225,-0.0041217
1581,0.021863,0.015042,0.033881,-0.050244,-0.017114,0.0014,0.0014
1582,0.025111,0.018615,0.015692,-0.043099,-0.011917,-0.00022403,0.009845
1583,0.027709,0.024786,-0.0060706,-0.037252,-0.010943,-0.0037969,0.016341
1584,0.029983,0.027709,-0.026858,-0.033679,-0.015815,-0.011592,0.013418
1585,0.031932,0.024137,-0.040825,-0.028807,-0.027183,-0.020687,0.0014
1586,0.032906,0.016016,-0.047646,-0.020687,-0.039526,-0.028482,-0.013541
1587,0.028684,0.0059473,-0.046671,-0.0083442,-0.045697,-0.032705,-0.022961
1588,0.016666,-0.0018481,-0.038876,0.0023744,-0.044398,-0.030431,-0.021337
1589,0.0017248,-0.0076946,-0.029132,0.008221,-0.037902,-0.023935,-0.013216
1590,-0.011267,-0.0096434,-0.019063,0.011469,-0.030756,-0.01614,-0.0037969
1591,-0.022636,-0.007045,-0.0093186,0.014392,-0.022636,-0.010618,0.00010078
1592,-0.035953,-0.0024977,0.0023744,0.01894,-0.014191,-0.0073698,-0.0028225
1593,-0.049595,0.0017248,0.013743,0.026735,-0.007045,-0.0060706,-0.0096434
1594,-0.056416,0.0020496,0.019264,0.035505,-0.0041217,-0.0080194,-0.014516
1595,-0.04927,-0.0031473,0.019589,0.042326,-0.0018481,-0.013541,-0.01484
1596,-0.028157,-0.010293,0.019589,0.046223,-0.00022403,-0.022636,-0.012567
1597,-0.0037969,-0.014516,0.024461,0.048497,-0.0015233,-0.03238,-0.010943
1598,0.012768,-0.015165,0.032906,0.045899,-0.0060706,-0.038876,-0.0067202
1599,0.020564,-0.01484,0.042651,0.039078,-0.0073698,-0.040825,0.0017248
1600,0.021538,-0.01484,0.050446,0.032257,-0.0034721,-0.036602,0.0088706
1601,0.016991,-0.013216,0.054019,0.028034,0.0023744,-0.030106,0.009845
1602,0.0043233,-0.0083442,0.053369,0.031932,0.0069217,-0.024909,0.0062721
1603,-0.014191,-0.0041217,0.049796,0.040052,0.0085458,-0.028807,0.0026992
1604,-0.03238,-0.0044465,0.039727,0.045249,0.0062721,-0.038227,0.003024
1605,-0.046022,-0.010293,0.026085,0.046548,0.0065969,-0.04992,0.0052977
1606,-0.055116,-0.018738,0.016666,0.045249,0.014068,-0.056091,0.0052977
1607,-0.059014,-0.023285,0.014717,0.046223,0.02706,-0.052518,-0.0028225
1608,-0.055766,-0.022961,0.021538,0.046873,0.036804,-0.038551,-0.01614
1609,-0.046022,-0.019063,0.031932,0.045574,0.037778,-0.018088,-0.022636
1610,-0.038227,-0.015815,0.040377,0.042975,0.030633,0.0039985,-0.019063
1611,-0.034004,-0.014191,0.04395,0.040052,0.020564,0.020239,-0.007045
1612,-0.030431,-0.013866,0.047523,0.038103,0.0078962,0.022512,0.0065969
1613,-0.021986,-0.012567,0.050771,0.039727,-0.0063954,0.012119,0.01894
1614,-0.0047713,-0.0063954,0.050771,0.0433,-0.015165,-0.0011985,0.034206
1615,0.01764,0.0062721,0.047198,0.044924,-0.019388,-0.0076946,0.051096
1616,0.041676,0.025761,0.041676,0.040052,-0.018738,-0.0054209,0.064413
1617,0.062464,0.047198,0.034855,0.029333,-0.016464,0.0020496,0.067336
1618,0.077405,0.064413,0.028034,0.020564,-0.012567,0.0078962,0.061814
1619,0.087799,0.073832,0.029658,0.01764,-0.0073698,0.012443,0.052395
1620,0.097868,0.073832,0.03583,0.01894,-0.0047713,0.019914,0.046223
1621,0.10566,0.067011,0.042651,0.021863,-0.0067202,0.030957,0.048172
1622,0.11281,0.059865,0.047523,0.022837,-0.0089938,0.048172,0.054993
1623,0.11801,0.055318,0.049472,0.022188,-0.0047713,0.067011,0.063763
1624,0.11898,0.057592,0.049796,0.020564,0.0056225,0.084226,0.070259
1625,0.11443,0.065712,0.048822,0.020564,0.026735,0.095594,0.073507
1626,0.10404,0.07708,0.047847,0.024461,0.059865,0.10306,0.075131
1627,0.091372,0.089423,0.045249,0.034206,0.10599,0.10469,0.075781
1628,0.079354,0.097868,0.04395,0.047198,0.15666,0.099492,0.072858
1629,0.067661,0.10014,0.040052,0.056292,0.19109,0.087149,0.065387
1630,0.057917,0.098842,0.034206,0.057917,0.19661,0.069285,0.060515
1631,0.052395,0.096893,0.029333,0.054019,0.17192,0.053694,0.06084
1632,0.049796,0.095919,0.029009,0.049796,0.12905,0.042651,0.066037
1633,0.053044,0.095919,0.033231,0.045899,0.081952,0.035505,0.070259
1634,0.061814,0.096893,0.034206,0.045574,0.038428,0.030957,0.069285
1635,0.076106,0.098842,0.033881,0.045574,0.0062721,0.02641,0.06019
1636,0.091696,0.10144,0.034206,0.044275,-0.010943,0.024786,0.047847
1637,0.10112,0.10209,0.032582,0.042001,-0.012892,0.022512,0.037454
1638,0.098517,0.099817,0.031932,0.038103,-0.0080194,0.015042,0.032906
1639,0.082602,0.092346,0.030957,0.033231,-0.0067202,0.0039985,0.034206
1640,0.062139,0.080978,0.033556,0.029009,-0.011592,-0.0024977,0.038428
1641,0.047847,0.066037,0.034206,0.028034,-0.019712,0.0020496,0.040377
1642,0.038428,0.051745,0.031607,0.030633,-0.028807,0.016016,0.039078
1643,0.029658,0.036154,0.023487,0.036804,-0.035953,0.031607,0.033556
1644,0.015692,0.021213,0.014392,0.043625,-0.040825,0.040702,0.028684
1645,-0.00022403,0.0088706,0.009845,0.048172,-0.042124,0.041351,0.026735
1646,-0.014191,0.00042559,0.011144,0.047198,-0.042124,0.036804,0.026085
1647,-0.021661,-0.0041217,0.014392,0.03453,-0.042774,0.031932,0.025111
1648,-0.021661,-0.0076946,0.013093,0.014068,-0.044398,0.028034,0.021863
1649,-0.015165,-0.01484,0.0065969,-0.0021729,-0.043099,0.024137,0.017316
1650,-0.0076946,-0.025559,0.00010078,-0.0093186,-0.039851,0.01829,0.013093
1651,-0.00087364,-0.035953,-0.0031473,-0.007045,-0.034329,0.009845,0.012119
1652,0.003024,-0.046347,-0.0054209,-0.0011985,-0.023285,-0.00087364,0.012443
1653,0.0049729,-0.054467,-0.0073698,0.0036737,-0.0099683,-0.0083442,0.016341
1654,0.0020496,-0.055441,-0.010943,0.0046481,-0.0021729,-0.0060706,0.020564
1655,-0.0031473,-0.048945,-0.012892,0.0056225,-0.0041217,0.0056225,0.023162
1656,-0.0057458,-0.036602,-0.012567,0.0052977,-0.011592,0.017316,0.019589
1657,-0.0050961,-0.022961,-0.010293,0.0065969,-0.018738,0.022837,0.016666
1658,0.0020496,-0.015815,-0.0037969,0.01017,-0.024585,0.021538,0.015692
1659,0.015692,-0.016464,0.0085458,0.016991,-0.029457,0.015367,0.01764
1660,0.032257,-0.016789,0.023487,0.022837,-0.031406,0.0085458,0.022512
1661,0.044599,-0.015815,0.034206,0.026735,-0.027508,0.0017248,0.029983
1662,0.045249,-0.013541,0.038753,0.027385,-0.017114,-0.0028225,0.033881
1663,0.034855,-0.010943,0.036154,0.026735,-0.0057458,-0.0024977,0.030957
1664,0.020564,-0.011592,0.02706,0.028034,0.0049729,0.0010752,0.019264
1665,0.0075714,-0.012567,0.016666,0.036479,0.016016,0.0039985,0.0065969
1666,-0.0011985,-0.011592,0.0091954,0.06019,0.029658,0.0043233,-0.0028225
1667,-0.0057458,-0.0089938,0.0033489,0.10794,0.042651,0.003024,-0.0060706
1668,-0.007045,-0.0050961,0.00075039,0.17647,0.054993,0.003024,-0.0021729
1669,-0.0041217,-0.0015233,-0.0037969,0.25085,0.061814,0.0026992,0.0059473
1670,0.0014,-0.0018481,-0.010618,0.31322,0.063113,0.0020496,0.01829
1671,0.0072465,-0.0054209,-0.018413,0.34927,0.059865,0.00075039,0.028684
1672,0.015042,-0.0076946,-0.021337,0.35057,0.055318,-0.0018481,0.036804
1673,0.021863,-0.0037969,-0.017439,0.31062,0.049796,-0.0024977,0.041676
1674,0.024461,0.0065969,-0.008669,0.21967,0.044275,-0.0047713,0.039727
1675,0.020239,0.018615,0.0026992,0.078055,0.038753,-0.011267,0.031932
1676,0.01017,0.026085,0.015692,-0.092469,0.029658,-0.015815,0.020564
1677,-0.0037969,0.023812,0.027709,-0.25033,0.012768,-0.017439,0.012768
1678,-0.017439,0.013093,0.03583,-0.34777,-0.010943,-0.014191,0.0075714
1679,-0.027833,0.00042559,0.036154,-0.35914,-0.035628,-0.010943,0.0014
1680,-0.033354,-0.010618,0.025111,-0.2945,-0.056091,-0.0076946,-0.0050961
1681,-0.037902,-0.020037,0.009845,-0.19186,-0.065835,-0.0054209,-0.012892
1682,-0.042124,-0.029782,-0.0028225,-0.094743,-0.063886,-0.0076946,-0.020362
1683,-0.043423,-0.038876,-0.012892,-0.032055,-0.053492,-0.011592,-0.027508
1684,-0.04115,-0.043423,-0.021012,-0.0099683,-0.039201,-0.017439,-0.032055
1685,-0.036602,-0.042124,-0.025234,-0.020362,-0.026533,-0.018088,-0.035628
1686,-0.028807,-0.036927,-0.025559,-0.047321,-0.018413,-0.013541,-0.039526
1687,-0.022311,-0.030431,-0.021337,-0.075579,-0.012242,-0.0083442,-0.041799
1688,-0.020687,-0.022311,-0.018088,-0.094418,-0.0063954,-0.008669,-0.040825
1689,-0.020362,-0.014516,-0.017114,-0.10189,-0.00054884,-0.01614,-0.041799
1690,-0.020362,-0.0076946,-0.016789,-0.09929,0.0014,-0.028807,-0.044073
1691,-0.021986,-0.0018481,-0.01484,-0.092469,-0.0028225,-0.042774,-0.046996
1692,-0.023285,0.0091954,-0.008669,-0.087922,-0.012892,-0.052843,-0.04862
1693,-0.020687,0.023487,0.00042559,-0.085973,-0.02361,-0.056416,-0.051544
1694,-0.017439,0.036154,0.0059473,-0.084999,-0.031406,-0.053817,-0.054142
1695,-0.017114,0.044599,0.0075714,-0.081751,-0.034329,-0.050244,-0.056091
1696,-0.020037,0.045899,0.003024,-0.07493,-0.039201,-0.046671,-0.05804
1697,-0.022636,0.040377,-0.0037969,-0.070707,-0.052193,-0.0405,-0.061288
1698,-0.020362,0.030308,-0.011267,-0.069408,-0.069083,-0.034978,-0.061613
1699,-0.011917,0.023812,-0.018413,-0.07428,-0.081751,-0.03238,-0.059664
1700,0.0010752,0.024461,-0.020037,-0.083375,-0.084999,-0.033679,-0.052843
1701,0.014068,0.032582,-0.016789,-0.095068,-0.076554,-0.035303,-0.041475
1702,0.021863,0.042975,-0.010943,-0.10871,-0.059339,-0.037902,-0.026858
1703,0.025761,0.049147,-0.007045,-0.12105,-0.038876,-0.041475,-0.014191
1704,0.024461,0.05142,-0.0044465,-0.12365,-0.02361,-0.042774,-0.0063954
1705,0.01894,0.05207,-0.00054884,-0.10806,-0.012242,-0.0405,-0.0015233
1706,0.013093,0.056617,0.0069217,-0.064861,0.0039985,-0.031081,0.0046481
