,channel_1,channel_2,channel_3,channel_4,channel_5,channel_6,channel_7
0,0.055968,0.054668,0.10177,0.015692,-0.10254,0.0036737,0.023162
1,0.060515,0.058241,0.082277,-0.0015233,-0.1282,0.0026992,0.020564
2,0.062464,0.062139,0.068635,-0.013866,-0.15483,0.0078962,0.01764
3,0.06084,0.066686,0.061814,-0.019388,-0.17627,0.015042,0.012768
4,0.051745,0.069934,0.055643,-0.019388,-0.18991,0.019589,0.0075714
5,0.030957,0.070259,0.051745,-0.019063,-0.19771,0.01829,0.00042559
6,0.0069217,0.064413,0.053369,-0.018088,-0.19771,0.014068,-0.007045
7,-0.011267,0.053369,0.062139,-0.017764,-0.18504,0.012768,-0.011592
8,-0.016789,0.04395,0.076106,-0.01484,-0.15613,0.013418,-0.0067202
9,-0.0099683,0.039402,0.094295,-0.007045,-0.11586,0.016016,0.0078962
10,0.0049729,0.042001,0.11281,0.0017248,-0.069733,0.015692,0.030957
11,0.023162,0.047847,0.12743,0.010495,-0.03173,0.012119,0.045574
12,0.037454,0.050771,0.1323,0.013743,-0.012892,0.0043233,0.049147
13,0.041676,0.05207,0.12645,0.0088706,-0.013216,-0.0015233,0.042651
14,0.03518,0.047198,0.11313,-0.0028225,-0.026209,-0.0067202,0.032257
15,0.024786,0.03518,0.097218,-0.022961,-0.038876,-0.0093186,0.023812
16,0.018615,0.014717,0.080328,-0.054142,-0.04862,-0.012567,0.021863
17,0.020239,-0.010618,0.059865,-0.091495,-0.053168,-0.014191,0.022837
18,0.02641,-0.03173,0.041676,-0.13015,-0.052518,-0.012242,0.025436
19,0.029983,-0.043748,0.027385,-0.16653,-0.044398,-0.0093186,0.028684
20,0.024786,-0.045372,0.019589,-0.19251,-0.034978,-0.0073698,0.02706
21,0.014717,-0.039201,0.01829,-0.19868,-0.026858,-0.0099683,0.019914
22,0.0033489,-0.030756,0.023487,-0.18796,-0.025884,-0.016464,0.0085458
23,-0.0076946,-0.026533,0.030633,-0.16458,-0.028157,-0.025559,-0.00054884
24,-0.016789,-0.026533,0.037129,-0.13827,-0.02361,-0.03238,-0.0015233
25,-0.020687,-0.029457,0.039078,-0.11098,-0.0050961,-0.036602,0.0085458
26,-0.017764,-0.031406,0.033881,-0.079477,0.029009,-0.037902,0.027709
27,-0.0099683,-0.030756,0.022512,-0.034004,0.075131,-0.032705,0.045574
28,-0.00087364,-0.028482,0.013093,0.031932,0.1206,-0.021337,0.057267
29,0.01017,-0.026533,0.009845,0.11054,0.15926,-0.0044465,0.061165
30,0.020564,-0.024585,0.0069217,0.18492,0.18557,0.015367,0.062464
31,0.028034,-0.023285,-0.0015233,0.23754,0.19791,0.036479,0.061165
32,0.02706,-0.023935,-0.017114,0.25313,0.19044,0.051745,0.055643
33,0.01829,-0.027183,-0.038876,0.23201,0.16998,0.053694,0.045249
34,0.0033489,-0.035628,-0.059989,0.18914,0.14074,0.042975,0.030957
35,-0.013216,-0.046671,-0.072331,0.14042,0.11378,0.028034,0.016341
36,-0.028482,-0.056741,-0.070382,0.10144,0.096893,0.014717,0.0069217
37,-0.039526,-0.060963,-0.055441,0.080003,0.090072,0.0091954,0.0046481
38,-0.043423,-0.057715,-0.030756,0.074482,0.090722,0.011144,0.010495
39,-0.037252,-0.049595,-0.00054884,0.07708,0.088448,0.016016,0.016016
40,-0.02426,-0.040175,0.029009,0.079679,0.075131,0.017965,0.015692
41,-0.0099683,-0.03173,0.045574,0.078379,0.048822,0.014392,0.010495
42,0.0014,-0.025884,0.037129,0.066686,0.016991,0.0069217,0.0046481
43,0.0072465,-0.025234,0.0059473,0.050771,-0.011917,0.0010752,-0.00054884
44,0.011794,-0.029132,-0.033354,0.037129,-0.030756,-0.0021729,-0.0041217
45,0.021213,-0.031406,-0.066485,0.030308,-0.036278,-0.00087364,-0.0083442
46,0.03453,-0.027833,-0.088247,0.02706,-0.030106,0.0017248,-0.011592
47,0.045574,-0.016464,-0.098965,0.025111,-0.015165,0.0043233,-0.011592
48,0.053044,-0.0011985,-0.098316,0.01829,0.0059473,0.0062721,-0.0080194
49,0.055318,0.014717,-0.091495,0.0069217,0.029983,0.010819,-0.0015233
50,0.05142,0.028684,-0.080451,-0.0047713,0.059865,0.016016,0.0052977
51,0.044599,0.03518,-0.070058,-0.0060706,0.091372,0.022512,0.0088706
52,0.038428,0.038103,-0.068434,0.0039985,0.11573,0.029983,0.013743
53,0.030308,0.042975,-0.076229,0.019589,0.1258,0.037778,0.023487
54,0.022512,0.055318,-0.089871,0.037129,0.12093,0.046548,0.034206
55,0.016666,0.071558,-0.10514,0.049796,0.10891,0.053369,0.042326
56,0.013418,0.083251,-0.12073,0.044275,0.089748,0.055643,0.044275
57,0.0085458,0.083901,-0.13437,0.015367,0.063438,0.049147,0.03518
58,0.00042559,0.071883,-0.14152,-0.028807,0.029658,0.033556,0.017965
59,-0.0099683,0.054993,-0.13534,-0.073631,-0.0063954,0.013743,-0.0028225
60,-0.018088,0.039078,-0.10709,-0.10449,-0.036602,-0.0031473,-0.02426
61,-0.026209,0.029658,-0.056091,-0.11553,-0.059989,-0.012242,-0.042449
62,-0.03303,0.023162,-0.0080194,-0.11001,-0.07493,-0.015815,-0.052843
63,-0.040175,0.015367,0.0026992,-0.094743,-0.088896,-0.017114,-0.059339
64,-0.044723,0.003024,-0.036278,-0.076554,-0.10189,-0.019712,-0.060963
65,-0.04115,-0.0044465,-0.10481,-0.063561,-0.10968,-0.021012,-0.054467
66,-0.026209,0.0033489,-0.15223,-0.056091,-0.11651,-0.024909,-0.039851
67,-0.0037969,0.026085,-0.13177,-0.053492,-0.12495,-0.03173,-0.019712
68,0.020239,0.055968,-0.02361,-0.046996,-0.13502,-0.041799,-0.0028225
69,0.038753,0.080978,0.15406,-0.030106,-0.14574,-0.046996,0.011144
70,0.05207,0.094945,0.35414,0.0014,-0.15678,-0.045372,0.023812
71,0.057917,0.096244,0.52369,0.045574,-0.16328,-0.037902,0.032582
72,0.059216,0.085525,0.6273,0.095269,-0.16328,-0.027508,0.037129
73,0.057592,0.066686,0.65037,0.14464,-0.15678,-0.01549,0.041351
74,0.051745,0.042975,0.60749,0.18816,-0.14801,-0.0011985,0.046548
75,0.039727,0.01829,0.52434,0.22454,-0.13989,0.01017,0.050446
76,0.022512,-0.0015233,0.42105,0.24825,-0.12982,0.018615,0.047847
77,0.0039985,-0.017114,0.30152,0.25345,-0.11975,0.021863,0.04395
78,-0.013866,-0.028807,0.16738,0.23526,-0.10611,0.019589,0.038103
79,-0.029457,-0.039851,0.028684,0.19758,-0.085648,0.016341,0.031282
80,-0.045697,-0.053168,-0.097666,0.14854,-0.060963,0.016666,0.022188
81,-0.059014,-0.06551,-0.19089,0.097218,-0.034329,0.017316,0.0095202
82,-0.067459,-0.072981,-0.2474,0.048497,-0.0096434,0.013743,-0.0054209
83,-0.068109,-0.071357,-0.26657,0.0046481,0.0069217,0.0062721,-0.020362
84,-0.061288,-0.057065,-0.26104,-0.03173,0.019264,-0.0018481,-0.033679
85,-0.046347,-0.024585,-0.24026,-0.056741,0.033556,-0.0044465,-0.039201
86,-0.023285,0.021863,-0.21135,-0.071032,0.049147,-0.0015233,-0.034654
87,0.003024,0.06896,-0.18017,-0.074605,0.064737,0.0039985,-0.024585
88,0.023162,0.10729,-0.15581,-0.067784,0.075456,0.010495,-0.0093186
89,0.038103,0.13392,-0.13892,-0.04927,0.078055,0.016666,0.0078962
90,0.049147,0.14724,-0.11748,-0.021661,0.073507,0.022837,0.021863
91,0.057917,0.14886,-0.082725,0.011144,0.06084,0.027385,0.030633
92,0.067011,0.14269,-0.034978,0.040377,0.042651,0.032582,0.033231
93,0.073182,0.13165,0.022188,0.055968,0.020564,0.037778,0.030957
94,0.073832,0.1206,0.0865,0.055643,-0.0063954,0.042326,0.029333
95,0.069285,0.11054,0.15211,0.042326,-0.038876,0.043625,0.031282
96,0.057592,0.095919,0.20213,0.019589,-0.080776,0.039727,0.032582
97,0.039727,0.074157,0.22,-0.0080194,-0.12885,0.028359,0.029658
98,0.019589,0.042001,0.19888,-0.038876,-0.17367,0.0059473,0.022188
99,0.003024,0.0059473,0.14594,-0.070058,-0.2081,-0.02361,0.011469
100,-0.007045,-0.028807,0.081627,-0.098641,-0.23149,-0.04992,0.0033489
101,-0.012567,-0.054142,0.025436,-0.12527,-0.23928,-0.064536,0.0010752
102,-0.012892,-0.063886,-0.010618,-0.14639,-0.23246,-0.06551,-0.0011985
103,-0.012892,-0.058365,-0.022961,-0.15776,-0.21427,-0.059664,-0.010618
104,-0.013541,-0.039851,-0.017764,-0.15711,-0.18894,-0.052843,-0.02361
105,-0.01614,-0.015165,0.0010752,-0.14606,-0.16035,-0.047321,-0.033354
106,-0.021661,0.0095202,0.026735,-0.1243,-0.1308,-0.048296,-0.035953
107,-0.027183,0.028034,0.050771,-0.095393,-0.10286,-0.051868,-0.031081
108,-0.03173,0.038103,0.056942,-0.063561,-0.077853,-0.055766,-0.023285
109,-0.03238,0.039078,0.037454,-0.036278,-0.053168,-0.055116,-0.016789
110,-0.026858,0.034855,-0.0011985,-0.012892,-0.023935,-0.046022,-0.014191
111,-0.01614,0.028034,-0.042774,0.012768,0.011469,-0.029782,-0.013541
112,0.00075039,0.023487,-0.075579,0.046873,0.051745,-0.011267,-0.010943
113,0.020239,0.023162,-0.09929,0.090397,0.095919,0.0026992,-0.0050961
114,0.038103,0.024786,-0.1191,0.13002,0.14302,0.0069217,0.0014
115,0.051745,0.025436,-0.14152,0.14919,0.18394,0.0043233,0.0091954
116,0.06084,0.021538,-0.16782,0.14204,0.20765,-0.0024977,0.01829
117,0.066686,0.015042,-0.19608,0.11248,0.21025,-0.010618,0.024461
118,0.076106,0.0059473,-0.22109,0.071883,0.19369,-0.013216,0.023812
119,0.08585,-0.0015233,-0.23798,0.031607,0.16575,-0.008669,0.01894
120,0.088448,-0.0073698,-0.25065,0.0026992,0.13684,0.00075039,0.013093
121,0.078704,-0.012242,-0.26202,-0.011267,0.11313,0.011794,0.012768
122,0.061165,-0.014516,-0.26851,-0.011592,0.10079,0.021863,0.016341
123,0.044924,-0.011917,-0.26202,-0.0031473,0.10469,0.031932,0.018615
124,0.03453,-0.0041217,-0.24058,0.013418,0.12255,0.0433,0.023487
125,0.032257,0.0046481,-0.21265,0.031282,0.14269,0.053694,0.032906
126,0.034855,0.015042,-0.18374,0.042001,0.15633,0.058891,0.046873
127,0.032582,0.021538,-0.15841,0.042975,0.15276,0.055968,0.058241
128,0.020239,0.022188,-0.14216,0.03453,0.12418,0.044924,0.062789
129,-0.0011985,0.01829,-0.13599,0.016991,0.072533,0.029333,0.059216
130,-0.025884,0.015367,-0.13567,-0.0073698,0.011794,0.013093,0.050446
131,-0.043099,0.013418,-0.13534,-0.033679,-0.041475,-0.0057458,0.037454
132,-0.046347,0.012443,-0.13502,-0.056416,-0.076554,-0.027183,0.028034
133,-0.036927,0.013743,-0.1321,-0.068109,-0.086298,-0.044398,0.021863
134,-0.020362,0.020888,-0.12398,-0.071032,-0.073306,-0.054792,0.015692
135,-0.0050961,0.029333,-0.11326,-0.069733,-0.053168,-0.05739,0.009845
136,0.0039985,0.032257,-0.10124,-0.069733,-0.035303,-0.054467,0.0026992
137,0.003024,0.028034,-0.094418,-0.070382,-0.022311,-0.04862,-0.0034721
138,-0.0083442,0.020239,-0.093444,-0.067784,-0.010943,-0.0405,-0.0041217
139,-0.021337,0.013093,-0.096367,-0.059664,-0.00054884,-0.03173,-0.0024977
140,-0.025559,0.0072465,-0.09182,-0.043099,0.008221,-0.020037,0.0010752
141,-0.021661,0.0078962,-0.075255,-0.022961,0.015692,-0.0047713,0.0059473
142,-0.011592,0.017965,-0.045047,-0.0063954,0.023487,0.010819,0.011144
143,0.00042559,0.03453,-0.0031473,0.0033489,0.02706,0.022512,0.01894
144,0.011794,0.055643,0.055968,0.0039985,0.01894,0.026735,0.027385
145,0.024137,0.078704,0.13555,-0.0073698,-0.0047713,0.023812,0.031607
146,0.031607,0.095919,0.22519,-0.031406,-0.041475,0.014717,0.028034
147,0.031282,0.10404,0.30639,-0.063886,-0.0824,-0.0037969,0.01829
148,0.022837,0.10339,0.36389,-0.092794,-0.11358,-0.027183,0.0065969
149,0.008221,0.096244,0.38727,-0.11098,-0.12463,-0.046022,-0.0011985
150,-0.0076946,0.08585,0.37915,-0.11391,-0.11001,-0.052843,-0.0021729
151,-0.018088,0.074482,0.34992,-0.10286,-0.080127,-0.045047,0.0043233
152,-0.016464,0.059865,0.31451,-0.082076,-0.046347,-0.02426,0.017316
153,-0.0044465,0.046548,0.28041,-0.052843,-0.011917,-0.0050961,0.033556
154,0.014392,0.040052,0.2515,-0.0096434,0.031282,0.0078962,0.050121
155,0.032257,0.042975,0.22714,0.058566,0.089098,0.01829,0.065712
156,0.045574,0.050121,0.20181,0.16153,0.15633,0.034855,0.078055
157,0.053694,0.055643,0.17355,0.28723,0.21772,0.06084,0.088124
158,0.054668,0.057592,0.14464,0.40806,0.25378,0.086824,0.097868
159,0.051745,0.054993,0.11671,0.48894,0.25572,0.10274,0.10599
160,0.048822,0.049147,0.092996,0.50777,0.22422,0.10404,0.10436
161,0.042326,0.036804,0.074157,0.46717,0.17062,0.092346,0.089098
162,0.029009,0.01764,0.061165,0.38272,0.10826,0.068635,0.062464
163,0.0095202,-0.0028225,0.050446,0.28073,0.05272,0.039402,0.031282
164,-0.012892,-0.018413,0.037454,0.18492,0.015367,0.01017,0.0036737
165,-0.034004,-0.025884,0.017965,0.10956,0.0010752,-0.015165,-0.016464
166,-0.04927,-0.027508,-0.0063954,0.056617,0.00075039,-0.034329,-0.030106
167,-0.056091,-0.02426,-0.027833,0.022837,0.0072465,-0.042124,-0.039526
168,-0.058365,-0.014191,-0.044723,0.0020496,0.012119,-0.035953,-0.043099
169,-0.04992,0.003024,-0.053817,-0.0047713,0.012119,-0.020687,-0.039201
170,-0.03303,0.025436,-0.053817,-0.0044465,0.0078962,-0.007045,-0.027183
171,-0.013216,0.047198,-0.045047,-0.0024977,0.0043233,-0.0018481,-0.0096434
172,0.0033489,0.06019,-0.031406,-0.0037969,0.0020496,-0.0080194,0.0085458
173,0.014392,0.061814,-0.016464,-0.0073698,0.00075039,-0.017114,0.01829
174,0.018615,0.053369,0.00042559,-0.0093186,0.0023744,-0.020687,0.017316
175,0.014717,0.038753,0.017316,-0.0073698,0.0039985,-0.013216,0.010819
176,0.0072465,0.022512,0.031282,-0.0047713,0.0056225,0.00010078,0.0052977
177,0.0026992,0.0065969,0.039078,-0.00087364,0.01017,0.014717,0.0049729
178,0.00075039,-0.0083442,0.040052,0.0046481,0.016666,0.027385,0.0085458
179,0.0010752,-0.017439,0.03518,0.009845,0.021538,0.03583,0.0069217
180,0.0046481,-0.019388,0.025436,0.011794,0.021213,0.038103,-0.00087364
181,0.0088706,-0.018413,0.0078962,0.011794,0.019914,0.034206,-0.0089938
182,0.010495,-0.020037,-0.019063,0.015367,0.019914,0.027709,-0.012567
183,0.0052977,-0.028482,-0.057715,0.020239,0.020888,0.022512,-0.0099683
184,-0.0050961,-0.038227,-0.10286,0.021538,0.018615,0.021213,-0.0034721
185,-0.015815,-0.046671,-0.14671,0.016666,0.012443,0.023812,0.0033489
186,-0.021337,-0.055441,-0.18049,0.0078962,0.0062721,0.028684,0.0091954
187,-0.022636,-0.064211,-0.19511,-0.0018481,0.0014,0.030633,0.013743
188,-0.016464,-0.070058,-0.18536,-0.011917,-0.0028225,0.031932,0.014717
189,-0.0057458,-0.069408,-0.15613,-0.02361,-0.010618,0.029983,0.011144
190,0.0052977,-0.065186,-0.11651,-0.034654,-0.018088,0.026085,0.0033489
191,0.015692,-0.058689,-0.08305,-0.039851,-0.021661,0.023812,-0.0024977
192,0.024786,-0.052193,-0.060963,-0.042449,-0.022311,0.020564,-0.0060706
193,0.029983,-0.050244,-0.04862,-0.044723,-0.020687,0.015042,-0.0089938
194,0.02641,-0.055441,-0.036927,-0.045047,-0.020037,0.0065969,-0.010943
195,0.01764,-0.062912,-0.017764,-0.043099,-0.021337,-0.0011985,-0.010943
196,0.0072465,-0.061937,0.020564,-0.038551,-0.020687,-0.0093186,-0.010293
197,0.0043233,-0.047321,0.089748,-0.034978,-0.013866,-0.018088,-0.0083442
198,0.0088706,-0.022961,0.18914,-0.033679,-0.0015233,-0.021337,-0.0050961
199,0.023487,0.0026992,0.3038,-0.035628,0.010819,-0.020687,0.0020496
200,0.044275,0.022188,0.40059,-0.039526,0.012768,-0.01549,0.012119
201,0.063113,0.031607,0.45191,-0.049595,0.0020496,-0.0050961,0.023487
202,0.074157,0.030957,0.45418,-0.06616,-0.016789,0.0056225,0.032906
203,0.076106,0.021863,0.42203,-0.09117,-0.034978,0.014717,0.03583
204,0.070909,0.0088706,0.3811,-0.11845,-0.0405,0.016341,0.032582
205,0.057917,-0.0067202,0.347,-0.13664,-0.03238,0.0078962,0.022837
206,0.040702,-0.024909,0.32328,-0.14087,-0.016464,-0.007045,0.009845
207,0.01764,-0.044398,0.30315,-0.13599,-0.0047713,-0.025559,-0.0054209
208,-0.0060706,-0.060313,0.27651,-0.13307,-0.0015233,-0.042774,-0.019712
209,-0.021661,-0.064861,0.23656,-0.13632,-0.0083442,-0.053168,-0.028807
210,-0.024585,-0.052518,0.18362,-0.14379,-0.020037,-0.052518,-0.03173
211,-0.017764,-0.030431,0.12548,-0.14834,-0.031081,-0.042124,-0.030431
212,-0.0063954,-0.0060706,0.073507,-0.14769,-0.036927,-0.027833,-0.025884
213,0.0039985,0.011144,0.033881,-0.13892,-0.039526,-0.017439,-0.023935
214,0.0095202,0.017965,0.0062721,-0.11943,-0.044723,-0.013541,-0.026858
215,0.010819,0.013743,-0.016789,-0.08305,-0.052518,-0.012892,-0.03238
216,0.010495,0.003024,-0.044073,-0.031406,-0.056416,-0.011917,-0.037902
217,0.0091954,-0.0093186,-0.076554,0.029333,-0.056741,-0.0073698,-0.036927
218,0.0078962,-0.019388,-0.10481,0.089748,-0.059339,-0.00054884,-0.029457
219,0.0075714,-0.023935,-0.12463,0.13132,-0.07493,0.0052977,-0.020687
220,0.0043233,-0.022311,-0.14184,0.14009,-0.10871,0.0052977,-0.014191
221,-0.0054209,-0.01549,-0.15938,0.11736,-0.15548,-0.0015233,-0.0096434
222,-0.016464,-0.010943,-0.17465,0.078704,-0.19836,-0.011267,-0.0011985
223,-0.026533,-0.011917,-0.18504,0.042975,-0.22272,-0.018088,0.011144
224,-0.029782,-0.017439,-0.19543,0.028684,-0.21882,-0.015815,0.024786
225,-0.025884,-0.022311,-0.2068,0.037129,-0.18471,-0.0041217,0.037129
226,-0.020362,-0.022636,-0.21849,0.067986,-0.12463,0.015692,0.05142
227,-0.0083442,-0.015815,-0.22921,0.11995,-0.045047,0.036804,0.065387
228,0.012119,-0.0011985,-0.23149,0.18719,0.037129,0.054668,0.079354
229,0.040377,0.019589,-0.21914,0.25702,0.10599,0.064737,0.090722
230,0.072208,0.040702,-0.18926,0.31159,0.14756,0.066686,0.095594
231,0.099492,0.059541,-0.14996,0.3379,0.15958,0.063438,0.092996
232,0.11768,0.07708,-0.10903,0.33465,0.14984,0.056942,0.087799
233,0.12515,0.092996,-0.077203,0.31029,0.13067,0.050121,0.084226
234,0.11508,0.10761,-0.056741,0.27684,0.11443,0.044599,0.08585
235,0.090072,0.11866,-0.047971,0.24306,0.10664,0.042651,0.088773
236,0.054993,0.12353,-0.048296,0.2096,0.10599,0.037454,0.084551
237,0.020564,0.11703,-0.056741,0.16835,0.10794,0.024786,0.06961
238,-0.0073698,0.098517,-0.074605,0.11768,0.10664,0.0095202,0.044275
239,-0.024585,0.073182,-0.094093,0.063763,0.098842,-0.0034721,0.016666
240,-0.033679,0.050121,-0.10319,0.01829,0.088773,-0.0083442,-0.0063954
241,-0.033679,0.035505,-0.092145,-0.0015233,0.080328,-0.0060706,-0.021661
242,-0.026858,0.033556,-0.060313,0.01017,0.080003,0.00075039,-0.024909
243,-0.01484,0.039727,-0.01484,0.043625,0.089098,0.011469,-0.015815
244,0.0010752,0.048497,0.032257,0.078055,0.10404,0.025761,-0.0015233
245,0.013743,0.057592,0.06961,0.097218,0.11508,0.044275,0.010495
246,0.019264,0.067011,0.090397,0.086824,0.11703,0.066362,0.015692
247,0.014392,0.074806,0.091047,0.048172,0.10891,0.084551,0.016016
248,0.0014,0.07708,0.076755,-0.0067202,0.086175,0.090397,0.014717
249,-0.01549,0.075131,0.051745,-0.057065,0.053369,0.081952,0.015042
250,-0.028157,0.069934,0.023812,-0.087272,0.019264,0.061165,0.015367
251,-0.033354,0.062789,0.0014,-0.093444,-0.0063954,0.037778,0.015042
252,-0.030106,0.056617,-0.010618,-0.073631,-0.023935,0.019264,0.015042
253,-0.016464,0.05272,-0.013866,-0.038227,-0.038876,0.010495,0.017316
254,0.00042559,0.050771,-0.0063954,-0.0034721,-0.054142,0.011469,0.020888
255,0.015367,0.049796,0.01017,0.020888,-0.070058,0.016341,0.026735
256,0.023812,0.043625,0.030308,0.026735,-0.088896,0.015042,0.028359
257,0.024461,0.02641,0.0433,0.016666,-0.10449,0.0056225,0.021863
258,0.017316,0.00042559,0.049147,-0.0037969,-0.11391,-0.0089938,0.012119
259,0.0059473,-0.022961,0.055643,-0.02361,-0.11553,-0.021661,0.0056225
260,-0.0041217,-0.035628,0.067661,-0.039201,-0.11358,-0.027833,0.0049729
261,-0.0076946,-0.034978,0.079679,-0.047971,-0.11196,-0.029457,0.0075714
262,-0.0044465,-0.02361,0.085525,-0.054792,-0.11001,-0.030106,0.011144
263,0.0010752,-0.0093186,0.081303,-0.065186,-0.10644,-0.032055,0.014392
264,0.0065969,-0.00087364,0.063113,-0.082076,-0.097991,-0.035628,0.016016
265,0.012768,-0.0037969,0.029009,-0.10481,-0.0824,-0.038551,0.014068
266,0.017316,-0.019388,-0.012567,-0.12787,-0.064211,-0.038876,0.008221
267,0.016016,-0.041799,-0.052843,-0.14639,-0.045047,-0.034654,0.00042559
268,0.012119,-0.061288,-0.084674,-0.15126,-0.022636,-0.026533,-0.0041217
269,0.0088706,-0.071682,-0.10319,-0.13404,0.0091954,-0.019063,-0.00087364
270,0.0085458,-0.072981,-0.11098,-0.092145,0.050121,-0.010943,0.01017
271,0.013743,-0.061937,-0.11066,-0.034329,0.10306,0.00010078,0.025111
272,0.026735,-0.041799,-0.10838,0.021213,0.1651,0.009845,0.036804
273,0.043625,-0.018738,-0.10319,0.057917,0.22324,0.012119,0.043625
274,0.06019,0.0020496,-0.09182,0.077405,0.25637,0.0078962,0.050446
275,0.072533,0.022512,-0.069083,0.089423,0.25475,0.0014,0.06084
276,0.072533,0.041351,-0.031406,0.098517,0.22065,-0.0021729,0.073182
277,0.055968,0.051096,0.016666,0.10501,0.16965,0.0014,0.078055
278,0.023487,0.047523,0.064088,0.11021,0.11638,0.0085458,0.071883
279,-0.014516,0.031932,0.10404,0.11054,0.073832,0.012443,0.057592
280,-0.047646,0.012443,0.13749,0.10242,0.04395,0.011469,0.037778
281,-0.067459,-0.0041217,0.17387,0.084551,0.023812,0.0043233,0.01764
282,-0.070707,-0.0096434,0.22844,0.059541,0.0046481,-0.010943,0.0010752
283,-0.059339,-0.0099683,0.2934,0.030308,-0.020362,-0.031406,-0.008669
284,-0.042774,-0.011267,0.33563,-0.0028225,-0.055766,-0.055441,-0.01614
285,-0.030106,-0.023935,0.32263,-0.04115,-0.09929,-0.075904,-0.025234
286,-0.028807,-0.047321,0.24241,-0.079802,-0.14087,-0.086623,-0.039526
287,-0.034004,-0.072006,0.11801,-0.10968,-0.17042,-0.090521,-0.059014
288,-0.035628,-0.086948,-0.0044465,-0.1256,-0.18244,-0.090845,-0.073955
289,-0.026209,-0.085324,-0.085973,-0.12657,-0.17887,-0.090521,-0.073306
290,-0.0060706,-0.067459,-0.11001,-0.11196,-0.16555,-0.089871,-0.059664
291,0.019914,-0.038227,-0.084674,-0.091495,-0.15061,-0.089221,-0.036927
292,0.046223,-0.0050961,-0.03303,-0.069083,-0.14379,-0.079477,-0.012567
293,0.063763,0.023487,0.023812,-0.050894,-0.14606,-0.063561,0.0072465
294,0.071883,0.042975,0.065387,-0.046347,-0.15126,-0.049595,0.01894
295,0.072533,0.05272,0.084876,-0.055766,-0.15093,-0.043423,0.023162
296,0.067336,0.051096,0.081627,-0.080776,-0.14411,-0.044073,0.022188
297,0.053694,0.036479,0.054668,-0.12008,-0.13372,-0.048296,0.016016
298,0.030308,0.015042,0.014068,-0.15743,-0.12105,-0.051868,0.0052977
299,0.0033489,-0.0037969,-0.025884,-0.17497,-0.10611,-0.052518,-0.008669
300,-0.019063,-0.014516,-0.054792,-0.1636,-0.088247,-0.047321,-0.022961
301,-0.032055,-0.01484,-0.068758,-0.12463,-0.059989,-0.034004,-0.033679
302,-0.038551,-0.008669,-0.075904,-0.067784,-0.016789,-0.013541,-0.037902
303,-0.037252,-0.0011985,-0.085324,-0.0050961,0.036479,0.010819,-0.034004
304,-0.030106,0.0069217,-0.10709,0.054668,0.088773,0.036154,-0.027183
305,-0.019063,0.01764,-0.14379,0.10501,0.1336,0.059216,-0.022961
306,-0.0080194,0.031607,-0.19024,0.14139,0.1625,0.074157,-0.021012
307,0.0039985,0.046548,-0.23409,0.16153,0.17062,0.077405,-0.01614
308,0.016341,0.062464,-0.26592,0.1651,0.16153,0.076106,-0.0041217
309,0.02641,0.080653,-0.2867,0.15601,0.14496,0.078379,0.013418
310,0.032582,0.097218,-0.29937,0.14042,0.12937,0.085525,0.028684
311,0.032257,0.11021,-0.30327,0.12678,0.11346,0.093321,0.03518
312,0.023812,0.11443,-0.29515,0.11768,0.090072,0.095919,0.031932
313,0.011469,0.10956,-0.27404,0.10599,0.056292,0.086824,0.021538
314,0.00042559,0.096244,-0.24221,0.088124,0.016016,0.065062,0.0091954
315,-0.007045,0.082602,-0.20485,0.067661,-0.025884,0.038103,-0.0021729
316,-0.011267,0.072858,-0.16945,0.045249,-0.063886,0.013418,-0.012242
317,-0.010293,0.06896,-0.12527,0.022512,-0.097341,-0.0054209,-0.019063
318,-0.0054209,0.073507,-0.055116,0.0023744,-0.12463,-0.017114,-0.023285
319,0.0023744,0.090397,0.054668,-0.0083442,-0.14249,-0.02426,-0.024585
320,0.013743,0.11216,0.20213,-0.0067202,-0.14996,-0.027833,-0.021661
321,0.027709,0.13067,0.36161,0.0043233,-0.14606,-0.028807,-0.011267
322,0.040702,0.13782,0.49218,0.01829,-0.13697,-0.023285,0.003024
323,0.051745,0.13132,0.56169,0.026085,-0.1269,-0.010943,0.01829
324,0.058241,0.11183,0.56234,0.023487,-0.11488,0.0059473,0.031607
325,0.057267,0.087149,0.5133,0.009845,-0.10481,0.020239,0.040702
326,0.046223,0.059541,0.44021,-0.0089938,-0.094418,0.031282,0.046223
327,0.025111,0.032906,0.36389,-0.023285,-0.078827,0.038103,0.045899
328,0.00010078,0.0059473,0.28821,-0.026858,-0.054142,0.03583,0.040702
329,-0.019712,-0.017114,0.20993,-0.017764,-0.023285,0.02641,0.028684
330,-0.031406,-0.029132,0.1271,0.0033489,0.01017,0.016341,0.016341
331,-0.035953,-0.029132,0.04395,0.036479,0.04395,0.015692,0.0069217
332,-0.036927,-0.021337,-0.025884,0.079679,0.076431,0.026085,0.0026992
333,-0.03173,-0.012242,-0.069083,0.12905,0.10859,0.041027,0.0056225
334,-0.021986,-0.0044465,-0.082725,0.17712,0.13392,0.052395,0.015367
335,-0.0083442,0.0023744,-0.079802,0.21058,0.14659,0.056617,0.02641
336,0.0085458,0.0059473,-0.077853,0.22292,0.14139,0.050121,0.03583
337,0.025436,0.0023744,-0.09182,0.21382,0.12288,0.037129,0.0433
338,0.038103,-0.0063954,-0.11845,0.19076,0.10209,0.02706,0.051745
339,0.046223,-0.01614,-0.14704,0.16185,0.088124,0.023487,0.061814
340,0.045574,-0.022636,-0.1675,0.13002,0.081952,0.022512,0.06896
341,0.036479,-0.026533,-0.1753,0.092996,0.082277,0.022837,0.06896
342,0.023162,-0.029782,-0.1701,0.049472,0.082927,0.021863,0.060515
343,0.012768,-0.030106,-0.15386,-0.00022403,0.080653,0.020239,0.048172
344,0.0088706,-0.029782,-0.1282,-0.04862,0.074482,0.01894,0.03518
345,0.010495,-0.025884,-0.098641,-0.085973,0.065062,0.016341,0.02641
346,0.015042,-0.021661,-0.066485,-0.10481,0.058891,0.0095202,0.023162
347,0.022837,-0.019388,-0.03303,-0.10416,0.058891,0.0020496,0.022188
348,0.029658,-0.018088,0.00042559,-0.088896,0.065712,-0.0050961,0.022512
349,0.032257,-0.013866,0.031282,-0.069083,0.06961,-0.0076946,0.022512
350,0.030957,-0.0044465,0.056292,-0.054467,0.069934,-0.0031473,0.022512
351,0.032582,0.013093,0.075456,-0.048296,0.068635,0.0069217,0.022188
352,0.039402,0.037778,0.090722,-0.046671,0.070259,0.01764,0.020888
353,0.042326,0.064737,0.10469,-0.038551,0.074482,0.025761,0.023162
354,0.040052,0.0852,0.11898,-0.014191,0.083901,0.030308,0.02706
355,0.033881,0.09397,0.13295,0.023162,0.099817,0.033556,0.028034
356,0.029009,0.088773,0.14594,0.065062,0.11638,0.03583,0.028684
357,0.025436,0.071234,0.15698,0.094945,0.12548,0.033556,0.032582
358,0.025761,0.047523,0.15991,0.10404,0.12255,0.023812,0.037454
359,0.024137,0.021538,0.14854,0.091047,0.11086,0.0091954,0.037454
360,0.016991,-0.0037969,0.11606,0.061814,0.09397,-0.0054209,0.028359
361,0.0017248,-0.028807,0.06831,0.024786,0.076755,-0.018413,0.01017
362,-0.018088,-0.054792,0.012443,-0.0099683,0.059216,-0.031081,-0.012892
363,-0.039201,-0.076879,-0.038876,-0.034654,0.042001,-0.041799,-0.036602
364,-0.053492,-0.093444,-0.080451,-0.046022,0.026735,-0.048296,-0.054467
365,-0.057715,-0.10481,-0.11391,-0.051868,0.014068,-0.050244,-0.063561
366,-0.055116,-0.11196,-0.14444,-0.062262,0.00075039,-0.051544,-0.06551
367,-0.045372,-0.11098,-0.17432,-0.081426,-0.014191,-0.059014,-0.064211
368,-0.031406,-0.10091,-0.19413,-0.10449,-0.026209,-0.068758,-0.063561
369,-0.010943,-0.084349,-0.19478,-0.12105,-0.032705,-0.072981,-0.05804
370,0.012443,-0.062912,-0.17205,-0.12138,-0.030756,-0.066485,-0.040825
371,0.033231,-0.042124,-0.13112,-0.10416,-0.01614,-0.04927,-0.017764
372,0.0433,-0.022636,-0.082725,-0.073306,0.008221,-0.026533,0.0036737
373,0.040702,-0.0054209,-0.044398,-0.03173,0.033556,-0.0057458,0.015042
374,0.029333,0.0052977,-0.029457,0.016666,0.053369,0.0072465,0.015692
375,0.014717,0.0072465,-0.041799,0.067011,0.064413,0.011144,0.01017
376,0.0023744,0.0017248,-0.073306,0.10956,0.058891,0.0091954,0.0014
377,-0.008669,-0.0037969,-0.10806,0.1336,0.029658,0.0043233,-0.0073698
378,-0.020037,-0.0037969,-0.13112,0.13262,-0.017764,-0.0011985,-0.010618
379,-0.028157,0.0065969,-0.13469,0.10599,-0.069408,-0.0034721,-0.007045
380,-0.029132,0.026085,-0.11423,0.058891,-0.11715,-0.0028225,0.0014
381,-0.021661,0.051745,-0.070707,-0.0050961,-0.16133,-0.0011985,0.0043233
382,-0.0083442,0.080003,-0.0093186,-0.080451,-0.20778,-0.0060706,0.0014
383,0.0039985,0.10989,0.059865,-0.1623,-0.26267,-0.025559,-0.0050961
384,0.013743,0.13879,0.12288,-0.2474,-0.32178,-0.056741,-0.013866
385,0.016341,0.15796,0.15958,-0.32795,-0.37375,-0.089871,-0.02361
386,0.0078962,0.16088,0.15471,-0.39129,-0.40363,-0.11456,-0.033679
387,-0.0073698,0.14821,0.10599,-0.42345,-0.40428,-0.12365,-0.038227
388,-0.017114,0.12743,0.033556,-0.40623,-0.37733,-0.11651,-0.034004
389,-0.011267,0.10566,-0.03303,-0.32925,-0.32341,-0.094743,-0.021337
390,0.010495,0.089423,-0.072006,-0.18277,-0.24253,-0.057065,-0.00087364
391,0.041351,0.083576,-0.073955,0.028359,-0.14184,-0.0057458,0.024786
392,0.07708,0.089423,-0.044073,0.27067,-0.033679,0.049472,0.054019
393,0.10989,0.10404,-0.00022403,0.49186,0.064413,0.099492,0.081303
394,0.13295,0.1232,0.036154,0.64842,0.14529,0.13684,0.10112
395,0.13944,0.13684,0.050446,0.71435,0.20635,0.15601,0.10891
396,0.12807,0.13555,0.033556,0.68934,0.24436,0.15666,0.10729
397,0.10209,0.11573,-0.012242,0.59093,0.25767,0.14009,0.092996
398,0.064088,0.079029,-0.075255,0.44996,0.24306,0.10761,0.066362
399,0.016341,0.03518,-0.13567,0.2973,0.20668,0.064413,0.025436
400,-0.034004,-0.0041217,-0.1714,0.1677,0.16056,0.021213,-0.021012
401,-0.075255,-0.03238,-0.17205,0.083901,0.11703,-0.010618,-0.060313
402,-0.092145,-0.044723,-0.14606,0.054019,0.081952,-0.025234,-0.080451
403,-0.084024,-0.041475,-0.11001,0.071558,0.06019,-0.016464,-0.079477
404,-0.058365,-0.030106,-0.0824,0.11671,0.055318,0.008221,-0.059664
405,-0.025234,-0.014191,-0.06681,0.1638,0.064413,0.038428,-0.028482
406,0.0056225,0.0010752,-0.068109,0.19141,0.075131,0.06084,0.0043233
407,0.029009,0.014392,-0.079152,0.18784,0.078055,0.06961,0.030957
408,0.042975,0.022512,-0.092145,0.15666,0.06896,0.062464,0.049472
409,0.049472,0.029009,-0.099615,0.11443,0.057917,0.050121,0.058566
410,0.048822,0.037129,-0.096042,0.078055,0.05142,0.040702,0.061489
411,0.047523,0.048172,-0.075579,0.057267,0.044924,0.038428,0.061165
412,0.046873,0.058566,-0.031406,0.048497,0.03453,0.036804,0.058566
413,0.048822,0.069285,0.036154,0.04395,0.020564,0.032257,0.055643
414,0.053044,0.080328,0.1206,0.036479,0.01017,0.022837,0.057917
415,0.056617,0.090397,0.2044,0.022837,0.0069217,0.013743,0.061814
416,0.060515,0.094945,0.26612,0.0036737,0.010819,0.0059473,0.065387
417,0.057592,0.088448,0.2921,-0.019388,0.017316,-0.0018481,0.064088
418,0.046223,0.069285,0.29113,-0.044723,0.025111,-0.0073698,0.06019
419,0.030957,0.041351,0.28236,-0.06551,0.034206,-0.010618,0.056617
420,0.015367,0.013418,0.28366,-0.079152,0.041027,-0.011267,0.05207
421,0.0026992,-0.010618,0.29373,-0.084999,0.037778,-0.0099683,0.044599
422,-0.0018481,-0.03303,0.30445,-0.084349,0.023162,-0.013541,0.038103
423,0.0023744,-0.056416,0.3038,-0.079477,0.0010752,-0.017764,0.03583
424,0.008221,-0.075904,0.28788,-0.073306,-0.018413,-0.019712,0.037778
425,0.012443,-0.085648,0.26482,-0.066485,-0.028157,-0.015815,0.040052
426,0.014392,-0.081101,0.24793,-0.059339,-0.025884,-0.0054209,0.041027
427,0.014717,-0.060963,0.24371,-0.053817,-0.023285,0.0062721,0.03518
428,0.011469,-0.038227,0.24371,-0.055116,-0.024585,0.016016,0.023162
429,0.0017248,-0.021986,0.23169,-0.065186,-0.027508,0.022188,0.011144
430,-0.012567,-0.015815,0.19791,-0.079802,-0.033354,0.025436,0.0072465
431,-0.02426,-0.017114,0.14626,-0.09182,-0.038227,0.027385,0.011469
432,-0.028807,-0.025884,0.089748,-0.096692,-0.041799,0.021538,0.017965
433,-0.023285,-0.036278,0.039727,-0.095393,-0.043423,0.010495,0.020888
434,-0.011592,-0.042774,0.0010752,-0.089871,-0.043423,-0.00087364,0.020888
435,0.0017248,-0.043748,-0.026209,-0.0824,-0.041475,-0.0060706,0.019914
436,0.014717,-0.0405,-0.043099,-0.077853,-0.034978,-0.0080194,0.016991
437,0.022837,-0.036278,-0.048945,-0.075255,-0.026209,-0.011917,0.014717
438,0.020564,-0.033679,-0.042774,-0.07428,-0.018413,-0.019388,0.014068
439,0.0072465,-0.03303,-0.029782,-0.075579,-0.0083442,-0.029782,0.013093
440,-0.011917,-0.03303,-0.013541,-0.078503,-0.0041217,-0.039526,0.008221
441,-0.027183,-0.034978,-0.0018481,-0.080776,-0.0047713,-0.041475,0.003024
442,-0.034004,-0.039201,0.0023744,-0.077853,-0.010943,-0.034978,-0.0034721
443,-0.03173,-0.038876,-0.0024977,-0.067459,-0.016464,-0.021661,-0.0063954
444,-0.025559,-0.032705,-0.012242,-0.048945,-0.018413,-0.0096434,-0.0041217
445,-0.016789,-0.022636,-0.020687,-0.025884,-0.019388,-0.0041217,0.003024
446,-0.0076946,-0.013866,-0.021986,-0.0050961,-0.025234,-0.010618,0.009845
447,0.0014,-0.008669,-0.016464,0.0069217,-0.034004,-0.021661,0.013093
448,0.0072465,-0.0047713,-0.0096434,0.011144,-0.042124,-0.031081,0.013093
449,0.011144,-0.0031473,-0.0018481,0.010819,-0.046022,-0.034004,0.01829
450,0.016341,0.00042559,0.0017248,0.01017,-0.045697,-0.031081,0.029333
451,0.025111,0.010495,-0.0057458,0.011144,-0.044398,-0.025559,0.040377
452,0.039078,0.028359,-0.023285,0.011469,-0.043099,-0.019063,0.048497
453,0.059541,0.047847,-0.041799,0.0085458,-0.046671,-0.012242,0.05142
454,0.081303,0.064413,-0.050244,0.0010752,-0.053168,-0.0057458,0.05207
455,0.098193,0.077405,-0.045372,-0.0080194,-0.056741,0.00010078,0.051745
456,0.10566,0.080003,-0.032705,-0.01549,-0.053168,0.0069217,0.049147
457,0.10371,0.071234,-0.023285,-0.020687,-0.041799,0.016341,0.045249
458,0.095594,0.054344,-0.022961,-0.02426,-0.022636,0.027385,0.040377
459,0.082277,0.036804,-0.031406,-0.027833,-0.0037969,0.038103,0.033231
460,0.062464,0.022512,-0.045697,-0.034329,0.010819,0.041676,0.020888
461,0.034206,0.011144,-0.059664,-0.042774,0.020888,0.033556,0.0023744
462,0.00010078,-0.0021729,-0.072981,-0.052193,0.029983,0.016991,-0.02361
463,-0.034329,-0.019063,-0.0824,-0.056416,0.038103,-0.0060706,-0.055116
464,-0.061288,-0.035953,-0.090521,-0.05804,0.042975,-0.029457,-0.086298
465,-0.084349,-0.051544,-0.09929,-0.060963,0.045574,-0.048296,-0.11001
466,-0.10221,-0.062587,-0.11001,-0.067784,0.04395,-0.057715,-0.1178
467,-0.11098,-0.062912,-0.11845,-0.072006,0.042975,-0.052843,-0.10871
468,-0.10579,-0.051868,-0.1217,-0.06551,0.049796,-0.033679,-0.089221
469,-0.088247,-0.03173,-0.11456,-0.042124,0.067661,-0.0060706,-0.06551
470,-0.065835,-0.010293,-0.098641,-0.0057458,0.089423,0.020564,-0.043099
471,-0.045372,0.0039985,-0.080776,0.038428,0.10242,0.037454,-0.026533
472,-0.029457,0.01017,-0.06616,0.081627,0.095594,0.041351,-0.013541
473,-0.021012,0.010819,-0.055766,0.10956,0.06961,0.031932,-0.0034721
474,-0.018413,0.012443,-0.048296,0.11151,0.033881,0.015692,0.0059473
475,-0.019063,0.015692,-0.043423,0.081952,-0.0021729,-0.0034721,0.012443
476,-0.017764,0.019589,-0.043099,0.027709,-0.037902,-0.020362,0.011144
477,-0.013216,0.022837,-0.044723,-0.0405,-0.073955,-0.033354,-0.0021729
478,-0.0076946,0.027385,-0.047321,-0.10871,-0.10449,-0.043099,-0.022636
479,-0.0073698,0.033881,-0.051544,-0.15678,-0.12235,-0.048296,-0.043423
480,-0.012892,0.041027,-0.055766,-0.1675,-0.1204,-0.042449,-0.053492
481,-0.019388,0.045899,-0.058689,-0.13112,-0.098965,-0.02426,-0.050569
482,-0.022311,0.050446,-0.060638,-0.057065,-0.062262,0.0033489,-0.036278
483,-0.019388,0.054019,-0.054467,0.034855,-0.022961,0.032257,-0.013541
484,-0.0096434,0.055318,-0.036602,0.1219,0.0095202,0.054993,0.009845
485,0.0036737,0.058891,-0.007045,0.18914,0.024461,0.066362,0.02706
486,0.016016,0.06896,0.027709,0.22714,0.017965,0.066686,0.036804
487,0.02706,0.083251,0.06084,0.23526,-0.0044465,0.063113,0.04395
488,0.03518,0.098517,0.0865,0.22,-0.03303,0.061814,0.056617
489,0.041351,0.11054,0.098517,0.19239,-0.059989,0.064088,0.071558
490,0.045574,0.11931,0.094945,0.15536,-0.081751,0.063763,0.081627
491,0.048172,0.1206,0.076106,0.10956,-0.090845,0.053369,0.078055
492,0.048172,0.11476,0.042326,0.057917,-0.084024,0.030308,0.057592
493,0.045249,0.10436,0.0026992,0.008221,-0.061613,0.003024,0.029333
494,0.042975,0.093645,-0.026533,-0.030756,-0.028482,-0.017764,0.0091954
495,0.041676,0.083901,-0.037252,-0.053817,0.014392,-0.025234,0.0052977
496,0.041027,0.075781,-0.028482,-0.054467,0.061165,-0.018413,0.015692
497,0.038103,0.067011,-0.011592,-0.03173,0.10079,0.00010078,0.031607
498,0.03518,0.061165,0.003024,0.0036737,0.12418,0.022512,0.038753
499,0.03518,0.057267,0.0091954,0.040702,0.12775,0.040052,0.033231
500,0.037129,0.053694,0.013418,0.072858,0.11281,0.045574,0.020564
501,0.038428,0.047847,0.020888,0.10404,0.089748,0.0433,0.008221
502,0.039078,0.037778,0.035505,0.14432,0.071234,0.04395,0.0069217
503,0.038428,0.028034,0.058566,0.19044,0.063113,0.048497,0.015692
504,0.035505,0.016666,0.080978,0.22324,0.06019,0.050121,0.028034
505,0.029333,0.0059473,0.090397,0.21772,0.053044,0.0433,0.03453
506,0.016016,-0.007045,0.081303,0.16835,0.040377,0.028034,0.027709
507,-0.0037969,-0.023285,0.058566,0.091047,0.028034,0.0078962,0.0091954
508,-0.025234,-0.037577,0.031932,0.020888,0.023812,-0.010943,-0.011267
509,-0.035628,-0.044398,0.011794,-0.0093186,0.031932,-0.021337,-0.023935
510,-0.027183,-0.040825,0.0049729,0.013743,0.053694,-0.021661,-0.025559
511,-0.0044465,-0.034004,0.009845,0.075781,0.082602,-0.01549,-0.018413
512,0.024786,-0.027508,0.019589,0.14984,0.10631,-0.007045,-0.0050961
513,0.049796,-0.021661,0.024786,0.2057,0.11248,0.0036737,0.015367
514,0.064737,-0.01484,0.024461,0.22487,0.095919,0.01829,0.039727
515,0.06831,-0.0080194,0.023162,0.20538,0.059541,0.033231,0.06019
516,0.062464,-0.0047713,0.024786,0.15731,0.014068,0.042326,0.066686
517,0.05142,-0.0067202,0.028034,0.097543,-0.029782,0.039402,0.058891
518,0.039402,-0.012242,0.029983,0.039727,-0.067134,0.023487,0.040052
519,0.030633,-0.016789,0.031607,-0.0011985,-0.089546,0.0039985,0.021213
520,0.027385,-0.018413,0.034855,-0.020362,-0.092145,-0.0073698,0.011794
521,0.029983,-0.01484,0.036479,-0.021337,-0.079477,-0.0041217,0.018615
522,0.038103,-0.0057458,0.035505,-0.011592,-0.059014,0.0091954,0.03583
523,0.047847,0.0062721,0.031282,-0.0034721,-0.038227,0.022837,0.056617
524,0.048822,0.015042,0.023162,-0.0050961,-0.024585,0.028684,0.071234
525,0.034855,0.016991,0.0085458,-0.018088,-0.020037,0.020564,0.070909
526,0.0088706,0.014392,-0.010618,-0.037252,-0.027508,-0.00054884,0.052395
527,-0.020037,0.0078962,-0.030756,-0.059014,-0.043423,-0.027183,0.017965
528,-0.046022,-0.0028225,-0.052193,-0.072981,-0.059339,-0.04927,-0.018088
529,-0.064536,-0.013541,-0.073306,-0.073955,-0.063886,-0.05804,-0.038551
530,-0.075255,-0.022961,-0.0837,-0.065835,-0.053817,-0.053817,-0.037577
531,-0.073631,-0.029782,-0.077528,-0.054142,-0.038227,-0.04115,-0.024909
532,-0.062262,-0.030431,-0.057715,-0.048945,-0.026209,-0.030431,-0.014516
533,-0.04862,-0.026209,-0.03303,-0.052193,-0.021337,-0.02361,-0.0093186
534,-0.037252,-0.021337,-0.012892,-0.059664,-0.025234,-0.019063,-0.0047713
535,-0.028157,-0.017439,-0.0031473,-0.066485,-0.038551,-0.019063,-0.00087364
536,-0.022961,-0.01484,0.00010078,-0.073955,-0.05739,-0.026209,0.003024
537,-0.022636,-0.013541,0.0026992,-0.082725,-0.073306,-0.042774,0.0052977
538,-0.027183,-0.01549,0.0039985,-0.087272,-0.076554,-0.060963,0.0049729
539,-0.034654,-0.018413,0.0017248,-0.080451,-0.059339,-0.071357,0.0023744
540,-0.038551,-0.020362,-0.0073698,-0.060313,-0.02426,-0.069733,-0.0018481
541,-0.031406,-0.019063,-0.020037,-0.025234,0.015367,-0.05804,-0.0034721
542,-0.017114,-0.011592,-0.030756,0.016666,0.0433,-0.042774,0.00010078
543,-0.0015233,0.00010078,-0.037252,0.049796,0.050771,-0.03238,0.0039985
544,0.013418,0.014392,-0.043099,0.06084,0.04395,-0.03303,0.0046481
545,0.025436,0.023487,-0.052518,0.048822,0.027385,-0.043423,0.0033489
546,0.031607,0.024786,-0.06616,0.019264,0.014068,-0.053168,0.0020496
547,0.027709,0.020564,-0.081101,-0.018413,0.015042,-0.052843,-0.00022403
548,0.013743,0.014717,-0.094418,-0.056741,0.029009,-0.045697,-0.0054209
549,-0.0050961,0.0059473,-0.10221,-0.084349,0.045249,-0.040175,-0.013866
550,-0.020687,-0.007045,-0.098641,-0.094743,0.055318,-0.043748,-0.021661
551,-0.030756,-0.020037,-0.086298,-0.086298,0.051745,-0.055766,-0.029782
552,-0.036278,-0.026533,-0.069083,-0.063886,0.03453,-0.068434,-0.037902
553,-0.040825,-0.02426,-0.050569,-0.031081,0.021538,-0.071032,-0.040825
554,-0.043748,-0.013541,-0.032055,0.0078962,0.028359,-0.056741,-0.034654
555,-0.040175,0.00042559,-0.0093186,0.053369,0.056617,-0.027508,-0.020362
556,-0.030431,0.016666,0.028684,0.10989,0.098193,0.0095202,-0.0031473
557,-0.010618,0.03453,0.09397,0.17972,0.14302,0.048822,0.013418
558,0.018615,0.056292,0.17842,0.25118,0.17777,0.082927,0.028359
559,0.050121,0.07708,0.25832,0.30152,0.19271,0.10469,0.039078
560,0.074482,0.092346,0.30412,0.31581,0.18297,0.11248,0.046223
561,0.092021,0.097218,0.2973,0.28983,0.14951,0.10501,0.051096
562,0.10079,0.093321,0.24306,0.23721,0.099492,0.0852,0.054019
563,0.099817,0.083251,0.1703,0.17257,0.0433,0.063113,0.054019
564,0.09397,0.073507,0.10826,0.11086,-0.0067202,0.0433,0.054019
565,0.089098,0.065712,0.075456,0.059865,-0.041799,0.029983,0.055968
566,0.0852,0.058241,0.07708,0.020239,-0.060638,0.022837,0.061165
567,0.083576,0.054668,0.10794,-0.008669,-0.06616,0.017316,0.064737
568,0.082927,0.058566,0.15828,-0.030431,-0.065835,0.009845,0.063113
569,0.082277,0.06831,0.21252,-0.051544,-0.063561,-0.0024977,0.056942
570,0.074806,0.075781,0.25605,-0.072656,-0.061613,-0.01614,0.050446
571,0.062139,0.073507,0.27879,-0.09117,-0.058365,-0.025884,0.044924
572,0.038428,0.055968,0.28041,-0.10546,-0.054142,-0.030756,0.036804
573,0.0062721,0.02706,0.27099,-0.11098,-0.049595,-0.034329,0.022837
574,-0.022636,-0.0015233,0.26839,-0.10156,-0.041475,-0.035953,0.0095202
575,-0.038551,-0.018738,0.29048,-0.075904,-0.022636,-0.03173,0.0033489
576,-0.038551,-0.029457,0.32718,-0.043099,0.0065969,-0.021661,0.0043233
577,-0.030106,-0.0405,0.34407,-0.017114,0.031607,-0.010943,0.0072465
578,-0.02361,-0.056416,0.30867,-0.013541,0.042651,-0.0031473,0.0088706
579,-0.019063,-0.072006,0.2122,-0.036602,0.030957,0.00010078,0.0062721
580,-0.015165,-0.077853,0.075131,-0.078827,0.0010752,0.0010752,0.0046481
581,-0.0099683,-0.071357,-0.064211,-0.12625,-0.03303,0.0023744,0.0043233
582,-0.0047713,-0.054792,-0.17562,-0.16068,-0.060963,0.0078962,0.0036737
583,-0.0044465,-0.034329,-0.24935,-0.16945,-0.069408,0.014392,0.0026992
584,-0.010943,-0.017114,-0.29742,-0.14769,-0.051544,0.01829,0.0010752
585,-0.023285,-0.0073698,-0.33802,-0.10254,-0.015165,0.018615,-0.0044465
586,-0.032055,-0.0031473,-0.37992,-0.049595,0.02706,0.019914,-0.012242
587,-0.031081,-0.00022403,-0.41533,-0.0021729,0.069934,0.025436,-0.018088
588,-0.019388,0.0036737,-0.43319,0.029983,0.10956,0.03453,-0.015815
589,-0.0018481,0.0065969,-0.42117,0.043625,0.14009,0.0433,-0.0080194
590,0.012119,0.0075714,-0.38285,0.045574,0.15601,0.047847,0.0039985
591,0.01894,0.0023744,-0.33478,0.039402,0.15503,0.044924,0.015692
592,0.019589,-0.010618,-0.28963,0.028359,0.13977,0.03518,0.025111
593,0.017965,-0.023935,-0.2513,0.012443,0.11054,0.021863,0.029009
594,0.017965,-0.029782,-0.21362,-0.0076946,0.068635,0.0088706,0.026085
595,0.021538,-0.029132,-0.17042,-0.030106,0.018615,-0.0015233,0.016016
596,0.028034,-0.022311,-0.12073,-0.049595,-0.034004,-0.0083442,0.0039985
597,0.03453,-0.011267,-0.069083,-0.056416,-0.079802,-0.0099683,-0.0034721
598,0.037454,0.0014,-0.027508,-0.043423,-0.11423,-0.0063954,0.00010078
599,0.039727,0.014392,-0.0021729,-0.0067202,-0.13697,-0.0031473,0.010819
600,0.041351,0.027709,0.010495,0.042001,-0.15061,-0.00022403,0.023162
601,0.036804,0.038428,0.016991,0.088448,-0.16393,0.0017248,0.030957
602,0.023812,0.038103,0.018615,0.11346,-0.17789,0.003024,0.032906
603,0.0072465,0.031282,0.015367,0.11054,-0.18569,0.0043233,0.034855
604,-0.0073698,0.022512,0.0052977,0.091696,-0.17659,0.0069217,0.036804
605,-0.011917,0.016016,-0.0063954,0.06961,-0.14996,0.008221,0.037778
606,-0.007045,0.012443,-0.013866,0.054019,-0.11163,0.0069217,0.039078
607,0.0023744,0.011794,-0.013216,0.048497,-0.069408,0.0052977,0.041351
608,0.015042,0.016016,-0.0037969,0.051096,-0.028482,0.0078962,0.045899
609,0.028684,0.027709,0.011469,0.058566,0.0085458,0.019914,0.053369
610,0.046548,0.044924,0.029983,0.063113,0.041351,0.042326,0.060515
611,0.061489,0.067011,0.050446,0.061814,0.072533,0.063763,0.063438
612,0.067986,0.083251,0.068635,0.052395,0.10631,0.071558,0.059216
613,0.063113,0.090397,0.076106,0.038753,0.14626,0.066362,0.05272
614,0.051096,0.091696,0.073182,0.025436,0.18362,0.054668,0.042975
615,0.036479,0.092346,0.066037,0.010819,0.2096,0.0433,0.033231
616,0.023162,0.092996,0.057917,-0.0054209,0.2174,0.034855,0.024786
617,0.01017,0.086175,0.049472,-0.022961,0.20635,0.031282,0.016991
618,0.00042559,0.072533,0.039402,-0.037577,0.17972,0.031932,0.0069217
619,-0.0044465,0.055643,0.031282,-0.043423,0.14269,0.030308,-0.0028225
620,-0.0034721,0.040702,0.021538,-0.039851,0.10177,0.025436,-0.0067202
621,0.0036737,0.034206,0.0091954,-0.029457,0.065387,0.020239,-0.0047713
622,0.011794,0.034855,-0.00087364,-0.015815,0.035505,0.01764,-0.0011985
623,0.015042,0.038103,-0.0060706,-0.0011985,0.0072465,0.021213,0.0023744
624,0.010819,0.037454,-0.0054209,0.017316,-0.024585,0.031282,0.00010078
625,0.00010078,0.032257,-0.0034721,0.035505,-0.064211,0.039078,-0.0044465
626,-0.010293,0.021863,-0.008669,0.047523,-0.10579,0.040377,-0.0060706
627,-0.012242,0.012119,-0.031406,0.054019,-0.14736,0.036479,-0.0011985
628,-0.0063954,0.0072465,-0.079152,0.054993,-0.18407,0.030308,0.0075714
629,0.0020496,0.0085458,-0.14054,0.05207,-0.21362,0.020239,0.019264
630,0.0088706,0.012119,-0.20031,0.047198,-0.23279,0.008221,0.032582
631,0.012443,0.012443,-0.2487,0.039727,-0.24286,-0.0028225,0.044599
632,0.015042,0.0072465,-0.27826,0.032257,-0.24935,-0.015815,0.055643
633,0.01764,0.00075039,-0.28443,0.02706,-0.2539,-0.031406,0.062139
634,0.022837,-0.0021729,-0.26657,0.025761,-0.25487,-0.044398,0.060515
635,0.030957,0.0014,-0.22824,0.029983,-0.24968,-0.044723,0.053369
636,0.038103,0.011144,-0.17887,0.035505,-0.24026,-0.036602,0.040052
637,0.041027,0.026085,-0.12787,0.037454,-0.22791,-0.03238,0.027709
638,0.041351,0.044924,-0.075255,0.031282,-0.21135,-0.034329,0.021213
639,0.041027,0.066362,-0.019388,0.016991,-0.19219,-0.038551,0.022837
640,0.040702,0.088124,0.05272,0.0010752,-0.1701,-0.039526,0.029983
641,0.040052,0.11054,0.1625,-0.012892,-0.14249,-0.039201,0.037454
642,0.0433,0.1323,0.32134,-0.017439,-0.11358,-0.037902,0.04395
643,0.052395,0.15666,0.51005,-0.010618,-0.078503,-0.034004,0.048497
644,0.063113,0.18427,0.69616,0.0049729,-0.033354,-0.022961,0.05142
645,0.071558,0.21155,0.8472,0.032582,0.014392,-0.0034721,0.057267
646,0.077405,0.22487,0.93944,0.070909,0.055318,0.01829,0.066362
647,0.079354,0.21317,0.95991,0.10664,0.081303,0.036154,0.071883
648,0.074157,0.17387,0.91054,0.1271,0.0865,0.042975,0.069285
649,0.065712,0.11768,0.80627,0.12743,0.067986,0.038428,0.056617
650,0.057917,0.06084,0.66563,0.10696,0.03453,0.028684,0.039402
651,0.049147,0.014717,0.50875,0.06831,-0.0021729,0.019264,0.022512
652,0.038753,-0.019712,0.35382,0.019264,-0.03303,0.014068,0.008221
653,0.023162,-0.047971,0.2148,-0.034329,-0.054467,0.01017,-0.0089938
654,0.0049729,-0.071357,0.098193,-0.081426,-0.063237,0.003024,-0.026858
655,-0.015165,-0.09117,0.0056225,-0.11066,-0.056416,-0.0054209,-0.040825
656,-0.032705,-0.10546,-0.062912,-0.1178,-0.039526,-0.014191,-0.052843
657,-0.046671,-0.11131,-0.10514,-0.10124,-0.017114,-0.018413,-0.06551
658,-0.053168,-0.11001,-0.12463,-0.064211,0.0049729,-0.012892,-0.073306
659,-0.05804,-0.10189,-0.12527,-0.012242,0.024786,0.003024,-0.073306
660,-0.065186,-0.096042,-0.11813,0.045899,0.042326,0.022512,-0.067459
661,-0.07428,-0.095393,-0.11196,0.094945,0.06019,0.033231,-0.059989
662,-0.082076,-0.097666,-0.11196,0.12613,0.079029,0.028034,-0.058365
663,-0.0837,-0.097017,-0.11683,0.13684,0.098517,0.012119,-0.063561
664,-0.084024,-0.090845,-0.12398,0.13327,0.11703,-0.0031473,-0.070707
665,-0.084674,-0.073955,-0.1334,0.1232,0.13262,-0.007045,-0.076229
666,-0.0824,-0.04862,-0.14346,0.11476,0.14464,0.0026992,-0.078178
667,-0.074605,-0.022311,-0.15873,0.10924,0.15244,0.020239,-0.076229
668,-0.062262,-0.0021729,-0.17724,0.10631,0.15406,0.03518,-0.073955
669,-0.049595,0.012119,-0.19478,0.10306,0.15341,0.040702,-0.067459
670,-0.037252,0.024137,-0.21037,0.097543,0.15244,0.03453,-0.05739
671,-0.02426,0.033231,-0.22726,0.087474,0.15276,0.024137,-0.044073
672,-0.0089938,0.036154,-0.2448,0.072208,0.15536,0.017316,-0.031081
673,0.0078962,0.031932,-0.25812,0.052395,0.15796,0.01894,-0.019712
674,0.019589,0.022837,-0.25715,0.024786,0.15731,0.025111,-0.0080194
675,0.023487,0.012768,-0.23798,-0.0041217,0.15276,0.030957,0.0046481
676,0.019264,0.0049729,-0.20355,-0.024585,0.14756,0.032582,0.014068
677,0.014392,0.0023744,-0.16068,-0.028157,0.14659,0.027385,0.021213
678,0.014068,0.0020496,-0.12235,-0.019712,0.14724,0.015042,0.023162
679,0.016016,0.0020496,-0.094418,-0.0073698,0.14594,-0.00022403,0.020239
680,0.019264,0.0049729,-0.076879,0.0033489,0.14302,-0.010943,0.017965
681,0.021863,0.011469,-0.069733,0.017965,0.14172,-0.013216,0.01764
682,0.024786,0.019264,-0.073306,0.038103,0.13879,-0.011592,0.01829
683,0.026085,0.021213,-0.096692,0.057267,0.13132,-0.012892,0.016991
684,0.025111,0.010819,-0.14606,0.066686,0.12288,-0.021012,0.012768
685,0.01829,-0.014516,-0.21849,0.056942,0.11476,-0.036602,0.0043233
686,0.0046481,-0.048945,-0.30554,0.029658,0.10469,-0.051868,-0.0089938
687,-0.013541,-0.081426,-0.39129,-0.0060706,0.092996,-0.059014,-0.02361
688,-0.031081,-0.10449,-0.45333,-0.037577,0.079029,-0.052518,-0.036602
689,-0.040175,-0.11293,-0.47509,-0.056416,0.064413,-0.038227,-0.044398
690,-0.039526,-0.10579,-0.45463,-0.064211,0.05142,-0.022636,-0.045697
691,-0.03173,-0.089546,-0.4137,-0.068758,0.041676,-0.010943,-0.039526
692,-0.021661,-0.071357,-0.3705,-0.071682,0.034206,-0.0047713,-0.027833
693,-0.012242,-0.059339,-0.3364,-0.070707,0.032582,-0.0067202,-0.017764
694,-0.0063954,-0.053817,-0.31399,-0.060638,0.037454,-0.01484,-0.012242
695,-0.0018481,-0.052193,-0.30067,-0.038227,0.048172,-0.025559,-0.0073698
696,0.0078962,-0.050894,-0.28476,-0.0050961,0.059541,-0.030756,0.00075039
697,0.019914,-0.047646,-0.24545,0.029009,0.063438,-0.028482,0.012768
698,0.030633,-0.0405,-0.16555,0.048822,0.058241,-0.021012,0.025761
699,0.036154,-0.022636,-0.043099,0.048822,0.040702,-0.010943,0.036804
700,0.035505,0.0036737,0.11021,0.028684,0.013418,-0.0054209,0.041351
701,0.028684,0.034206,0.27586,-0.0018481,-0.020362,-0.010943,0.035505
702,0.015042,0.062789,0.42722,-0.033354,-0.053817,-0.028157,0.017316
703,-0.00022403,0.084226,0.53441,-0.052193,-0.079152,-0.048945,-0.0041217
704,-0.010293,0.094295,0.57728,-0.054792,-0.087922,-0.064211,-0.015815
705,-0.007045,0.092671,0.5526,-0.043748,-0.081751,-0.063886,-0.011592
706,0.010495,0.083901,0.47757,-0.028807,-0.070058,-0.048296,0.0091954
707,0.033881,0.069934,0.38142,-0.021012,-0.061937,-0.023285,0.034855
708,0.054019,0.055643,0.2921,-0.025234,-0.05739,0.00075039,0.054993
709,0.064413,0.047198,0.22519,-0.045372,-0.050894,0.016991,0.061814
710,0.057917,0.05142,0.18589,-0.076229,-0.037902,0.020888,0.053369
711,0.03453,0.069934,0.1651,-0.10709,-0.018738,0.012443,0.031282
712,0.0052977,0.09397,0.15763,-0.1282,-0.0031473,-0.0047713,0.0020496
713,-0.018413,0.11671,0.16283,-0.12917,0.0014,-0.024909,-0.020362
714,-0.024909,0.13652,0.17517,-0.10481,0.00042559,-0.038876,-0.028807
715,-0.012567,0.15114,0.17842,-0.059989,0.0010752,-0.039851,-0.022636
716,0.012119,0.15633,0.16121,-0.0060706,0.0062721,-0.030431,-0.0034721
717,0.037129,0.15049,0.11638,0.040702,0.014068,-0.016789,0.019589
718,0.051096,0.13392,0.057267,0.070909,0.016341,-0.007045,0.042326
719,0.05272,0.11151,0.0043233,0.080003,0.0085458,-0.00022403,0.06019
720,0.044924,0.089748,-0.025559,0.067986,-0.0047713,0.009845,0.069934
721,0.032582,0.070909,-0.029132,0.045899,-0.018413,0.026735,0.072533
722,0.017316,0.055318,-0.011917,0.029333,-0.025234,0.049472,0.070909
723,0.0043233,0.042651,0.012443,0.029009,-0.016464,0.075131,0.066037
724,-0.0034721,0.029983,0.02706,0.047198,0.0043233,0.095919,0.057917
725,-0.008669,0.01764,0.022512,0.078379,0.028359,0.10696,0.049147
726,-0.011592,0.0065969,-0.00087364,0.11151,0.047523,0.10924,0.039078
727,-0.011267,-0.0024977,-0.033354,0.13295,0.055968,0.10339,0.02641
728,-0.0089938,-0.0096434,-0.061937,0.14009,0.054344,0.093645,0.012443
729,-0.0073698,-0.011917,-0.072656,0.13749,0.049472,0.08585,0.0033489
730,-0.0080194,-0.007045,-0.06551,0.13327,0.04395,0.080978,0.0056225
731,-0.011267,0.0036737,-0.046671,0.13067,0.036804,0.077405,0.015692
732,-0.01484,0.015042,-0.023285,0.1258,0.023812,0.072533,0.02641
733,-0.01484,0.024786,-0.00087364,0.11281,0.0014,0.067336,0.033556
734,-0.013866,0.029009,0.014392,0.088448,-0.029132,0.056292,0.036479
735,-0.012892,0.026735,0.015042,0.053044,-0.070058,0.038103,0.03518
736,-0.012242,0.01764,0.0036737,0.011144,-0.11553,0.01017,0.029333
737,-0.011917,0.0017248,-0.016789,-0.03238,-0.15905,-0.021337,0.017316
738,-0.0099683,-0.015815,-0.038551,-0.071357,-0.19446,-0.044723,0.0039985
739,-0.0063954,-0.029457,-0.050244,-0.093769,-0.21785,-0.054467,-0.0031473
740,0.0017248,-0.033679,-0.047321,-0.099615,-0.22726,-0.04927,0.00075039
741,0.014717,-0.030431,-0.03303,-0.094743,-0.22434,-0.034978,0.01017
742,0.031282,-0.026209,-0.012892,-0.081426,-0.2133,-0.021661,0.021538
743,0.045249,-0.022961,0.0065969,-0.063886,-0.20128,-0.011267,0.033881
744,0.054344,-0.021661,0.020888,-0.046671,-0.19219,-0.0031473,0.042326
745,0.057917,-0.018088,0.023162,-0.038551,-0.18536,0.0049729,0.046873
746,0.059216,-0.013216,0.015367,-0.041799,-0.17757,0.012768,0.047847
747,0.061489,-0.0067202,0.0052977,-0.049595,-0.16588,0.023162,0.051745
748,0.067011,-0.0028225,0.00075039,-0.052193,-0.14249,0.034206,0.059541
749,0.073182,0.00042559,0.0023744,-0.0405,-0.10709,0.041027,0.069285
750,0.076431,0.0059473,0.0091954,-0.0099683,-0.06616,0.04395,0.080003
751,0.073182,0.010495,0.01829,0.037454,-0.027508,0.043625,0.089423
752,0.063763,0.013093,0.02706,0.087149,0.0033489,0.040377,0.092021
753,0.05142,0.011144,0.032582,0.12743,0.023487,0.033231,0.087474
754,0.041351,0.0056225,0.037129,0.15309,0.031932,0.01894,0.076106
755,0.033556,-0.0031473,0.038753,0.1664,0.033881,-0.0011985,0.059865
756,0.02706,-0.011592,0.039402,0.16868,0.039402,-0.020687,0.046223
757,0.019589,-0.017114,0.037129,0.15926,0.048172,-0.033679,0.035505
758,0.0095202,-0.01614,0.030957,0.13782,0.06019,-0.037902,0.028359
759,-0.0031473,-0.0089938,0.01894,0.10599,0.066037,-0.036602,0.023487
760,-0.013541,-0.00087364,0.0010752,0.067986,0.063113,-0.03173,0.016666
761,-0.017439,0.0046481,-0.017439,0.031607,0.052395,-0.029782,0.003024
762,-0.014516,0.0085458,-0.024909,0.0039985,0.040377,-0.030431,-0.013866
763,-0.008669,0.012768,-0.021986,-0.011917,0.033556,-0.032705,-0.026858
764,-0.0018481,0.016666,-0.011917,-0.015165,0.031282,-0.03303,-0.028157
765,-0.00022403,0.018615,0.0026992,-0.0083442,0.029333,-0.027508,-0.023285
766,-0.00087364,0.01764,0.014717,0.0014,0.022188,-0.020362,-0.018738
767,-0.0060706,0.012768,0.022188,0.01017,0.0062721,-0.017114,-0.017764
768,-0.014516,0.0075714,0.024137,0.013093,-0.01549,-0.020687,-0.021337
769,-0.025884,0.0075714,0.025111,0.011469,-0.038227,-0.027508,-0.023935
770,-0.033354,0.010495,0.028034,0.0085458,-0.054142,-0.032055,-0.02426
771,-0.03173,0.012443,0.031282,0.009845,-0.056416,-0.03303,-0.020687
772,-0.020687,0.013743,0.033231,0.023812,-0.04115,-0.028482,-0.012567
773,0.0023744,0.016991,0.036479,0.05142,-0.014191,-0.018413,0.0014
774,0.030957,0.024137,0.042651,0.083576,0.018615,-0.0015233,0.019914
775,0.06019,0.032582,0.054019,0.11118,0.047198,0.017316,0.041351
776,0.081627,0.037454,0.066037,0.12872,0.061489,0.02706,0.056942
777,0.090722,0.031932,0.06896,0.1323,0.059541,0.024137,0.059216
778,0.078704,0.01894,0.06019,0.1232,0.047847,0.015367,0.048497
779,0.054668,0.0036737,0.039402,0.10924,0.03518,0.0049729,0.033231
780,0.032582,-0.008669,0.014717,0.096244,0.02641,0.00075039,0.025111
781,0.019589,-0.015165,-0.008669,0.084226,0.025436,0.0062721,0.024137
782,0.015042,-0.014191,-0.030431,0.067986,0.029658,0.015692,0.021538
783,0.013093,-0.0093186,-0.052518,0.044599,0.033231,0.021213,0.011469
784,0.0091954,-0.0047713,-0.073306,0.01894,0.034206,0.017316,-0.0024977
785,0.0039985,-0.0044465,-0.086298,-0.0031473,0.030957,0.0043233,-0.014191
786,0.0017248,-0.007045,-0.085973,-0.016464,0.023812,-0.014516,-0.018738
787,0.0052977,-0.0093186,-0.073955,-0.020362,0.016991,-0.034978,-0.01484
788,0.01764,-0.0031473,-0.054792,-0.01549,0.011469,-0.050569,-0.0028225
789,0.034206,0.011144,-0.029132,-0.0028225,0.0036737,-0.054792,0.012443
790,0.05207,0.033881,0.0036737,0.010495,-0.0067202,-0.046996,0.02641
791,0.063763,0.06084,0.041676,0.012119,-0.02426,-0.031406,0.03453
792,0.06831,0.084551,0.078704,-0.0093186,-0.053492,-0.016464,0.039727
793,0.068635,0.094945,0.10826,-0.061613,-0.093769,-0.010943,0.041676
794,0.064413,0.091696,0.1284,-0.13697,-0.13469,-0.016464,0.037778
795,0.056942,0.081627,0.14951,-0.21557,-0.16458,-0.029457,0.026735
796,0.044924,0.070584,0.18329,-0.27501,-0.17075,-0.044398,0.012443
797,0.032906,0.062464,0.23331,-0.29645,-0.14769,-0.059014,0.0026992
798,0.023812,0.057592,0.27651,-0.26754,-0.097017,-0.068109,0.0026992
799,0.018615,0.049796,0.27651,-0.19348,-0.02426,-0.067134,0.011469
800,0.019264,0.035505,0.21577,-0.090845,0.057917,-0.053168,0.023162
801,0.028359,0.016016,0.10891,0.016991,0.13717,-0.030106,0.033556
802,0.036804,-0.0047713,-0.0060706,0.10956,0.20116,-0.0041217,0.03583
803,0.034206,-0.017764,-0.094418,0.17322,0.24078,0.015367,0.026735
804,0.019264,-0.020037,-0.13924,0.20278,0.24825,0.020239,0.0075714
805,-0.0031473,-0.011917,-0.14379,0.19531,0.22487,0.0095202,-0.015165
806,-0.018738,0.0036737,-0.12365,0.15926,0.18069,-0.012242,-0.033354
807,-0.019712,0.022837,-0.092145,0.10144,0.1245,-0.036927,-0.040825
808,-0.007045,0.040702,-0.060638,0.031932,0.066037,-0.056416,-0.0405
809,0.0091954,0.05272,-0.034004,-0.035628,0.010495,-0.067784,-0.037577
810,0.021213,0.057917,-0.010618,-0.082076,-0.03303,-0.068758,-0.031081
811,0.025761,0.054993,0.0091954,-0.086623,-0.045372,-0.056416,-0.021012
812,0.026735,0.042975,0.022837,-0.036927,-0.016464,-0.026858,-0.0089938
813,0.025436,0.025436,0.025436,0.061489,0.045899,0.017316,0.0023744
814,0.020239,0.0088706,0.013743,0.18069,0.11833,0.065712,0.013418
815,0.012119,-0.0054209,-0.011917,0.28138,0.1703,0.10631,0.022512
816,-0.0018481,-0.01549,-0.049595,0.32816,0.18394,0.1271,0.023812
817,-0.017114,-0.021986,-0.09182,0.31711,0.15438,0.1219,0.012443
818,-0.029457,-0.027183,-0.13047,0.25962,0.095919,0.092996,-0.0083442
819,-0.038227,-0.034978,-0.16003,0.1781,0.028359,0.049472,-0.031081
820,-0.0405,-0.046022,-0.17432,0.09397,-0.034004,0.0043233,-0.045372
821,-0.037902,-0.052518,-0.17107,0.022188,-0.0824,-0.030106,-0.046022
822,-0.030756,-0.052193,-0.15418,-0.02361,-0.11845,-0.050244,-0.035953
823,-0.019388,-0.045372,-0.13015,-0.042449,-0.14281,-0.053168,-0.022636
824,-0.0060706,-0.037252,-0.10481,-0.035953,-0.15613,-0.043748,-0.0076946
825,0.0049729,-0.030756,-0.08305,-0.016464,-0.15743,-0.025234,0.0056225
826,0.012443,-0.02361,-0.06681,0.0052977,-0.15126,-0.007045,0.020564
827,0.014717,-0.014191,-0.04927,0.023162,-0.14281,0.0065969,0.034206
828,0.010495,-0.0037969,-0.018413,0.031607,-0.13729,0.013093,0.041027
829,0.0046481,0.0059473,0.042975,0.033881,-0.13729,0.015367,0.039727
830,0.0010752,0.0095202,0.13749,0.033881,-0.13534,0.01829,0.032257
831,0.0033489,0.009845,0.24176,0.036154,-0.11845,0.025436,0.020888
832,0.008221,0.011794,0.32134,0.041351,-0.073631,0.037778,0.014068
833,0.011469,0.016666,0.35154,0.047523,-0.0015233,0.054019,0.01894
834,0.011794,0.023487,0.32621,0.054019,0.081303,0.06831,0.029658
835,0.0075714,0.029983,0.26449,0.056942,0.15211,0.078055,0.033556
836,0.0033489,0.036479,0.19563,0.055318,0.19563,0.083576,0.028684
837,0.0023744,0.040377,0.13684,0.051745,0.20928,0.088448,0.01894
838,0.0033489,0.040702,0.087799,0.049147,0.20116,0.096893,0.0078962
839,0.0014,0.038753,0.042001,0.042651,0.18232,0.10339,0.0043233
840,-0.0028225,0.042975,-0.0041217,0.032257,0.16023,0.10047,0.010819
841,-0.0050961,0.048822,-0.046671,0.014392,0.13587,0.088124,0.022188
842,-0.0057458,0.049796,-0.075255,-0.0089938,0.11151,0.071883,0.032582
843,-0.0060706,0.041676,-0.083375,-0.034004,0.091047,0.057917,0.036479
844,-0.0063954,0.028359,-0.070382,-0.051868,0.076106,0.055968,0.034206
845,-0.0050961,0.015692,-0.043423,-0.059664,0.070909,0.064737,0.030633
846,-0.0050961,0.0078962,-0.013541,-0.058689,0.075456,0.076106,0.029009
847,-0.0057458,0.0078962,0.008221,-0.058365,0.085525,0.080653,0.028034
848,-0.0063954,0.011794,0.022837,-0.064211,0.090072,0.074806,0.029983
849,-0.0083442,0.017316,0.03583,-0.075904,0.081952,0.062464,0.034855
850,-0.013541,0.022837,0.053694,-0.090845,0.059216,0.047847,0.039727
851,-0.018088,0.032582,0.080653,-0.10579,0.027709,0.033881,0.040377
852,-0.018088,0.046873,0.11281,-0.11683,-0.0076946,0.018615,0.03518
853,-0.013541,0.064088,0.14139,-0.12787,-0.040825,0.0033489,0.026085
854,-0.0060706,0.080653,0.16121,-0.13827,-0.062587,-0.0083442,0.01894
855,0.0010752,0.094295,0.16705,-0.14444,-0.071682,-0.013866,0.018615
856,0.0091954,0.10306,0.16153,-0.14411,-0.07428,-0.01614,0.023487
857,0.019264,0.10436,0.14821,-0.1334,-0.076229,-0.019388,0.030957
858,0.030957,0.093321,0.12905,-0.10838,-0.080127,-0.026533,0.03583
859,0.041676,0.076431,0.10404,-0.063237,-0.084349,-0.034329,0.032257
860,0.048822,0.061165,0.074482,0.00075039,-0.084674,-0.038876,0.022188
861,0.052395,0.051745,0.0433,0.068635,-0.081101,-0.034329,0.011144
862,0.053044,0.049796,0.013093,0.11801,-0.077853,-0.022311,0.0026992
863,0.050121,0.051096,-0.016789,0.1323,-0.078503,-0.010293,-0.0031473
864,0.044275,0.054668,-0.046996,0.11086,-0.0824,-0.0037969,-0.0057458
865,0.031932,0.054344,-0.080127,0.064413,-0.085648,-0.0057458,-0.0076946
866,0.013418,0.048497,-0.12138,0.011469,-0.085324,-0.01484,-0.0080194
867,-0.008669,0.03518,-0.17302,-0.029132,-0.075904,-0.028482,-0.010943
868,-0.024909,0.015367,-0.22726,-0.054142,-0.059664,-0.039526,-0.018738
869,-0.032705,-0.0083442,-0.27793,-0.071032,-0.0405,-0.047646,-0.026858
870,-0.036927,-0.030431,-0.31983,-0.089871,-0.028482,-0.052193,-0.029132
871,-0.042124,-0.042774,-0.35394,-0.11163,-0.029132,-0.055116,-0.025559
872,-0.044398,-0.044398,-0.38642,-0.13307,-0.040825,-0.057065,-0.020037
873,-0.046996,-0.038227,-0.41403,-0.15126,-0.060963,-0.055766,-0.019063
874,-0.051868,-0.027833,-0.4241,-0.1623,-0.08305,-0.050244,-0.021012
875,-0.059339,-0.019388,-0.40396,-0.1662,-0.098316,-0.041799,-0.023935
876,-0.063237,-0.014191,-0.35264,-0.15905,-0.10546,-0.033354,-0.025884
877,-0.057065,-0.010618,-0.27858,-0.13404,-0.10449,-0.03238,-0.028157
878,-0.043748,-0.0073698,-0.19933,-0.094093,-0.095068,-0.040825,-0.030106
879,-0.024909,-0.0015233,-0.12982,-0.051219,-0.080451,-0.052518,-0.03173
880,-0.0054209,0.0062721,-0.079477,-0.018413,-0.060638,-0.060313,-0.031406
881,0.01017,0.016341,-0.048945,0.0014,-0.034654,-0.061613,-0.031081
882,0.019264,0.02706,-0.032055,0.011144,-0.0063954,-0.054467,-0.031406
883,0.021213,0.039402,-0.021986,0.019589,0.022837,-0.04115,-0.029782
884,0.018615,0.050121,-0.0096434,0.037129,0.05142,-0.025884,-0.025234
885,0.013743,0.057267,0.011469,0.070584,0.078055,-0.0096434,-0.017764
886,0.0095202,0.057592,0.040377,0.11476,0.10047,0.01017,-0.0041217
887,0.0078962,0.053369,0.068635,0.15536,0.11378,0.032257,0.013743
888,0.0075714,0.05142,0.091372,0.17745,0.11151,0.048822,0.027709
889,0.0091954,0.055968,0.10924,0.17647,0.090397,0.053694,0.033556
890,0.015042,0.065387,0.12255,0.15763,0.057917,0.045249,0.030633
891,0.025761,0.076431,0.12937,0.13067,0.027385,0.031932,0.029983
892,0.037778,0.081952,0.1297,0.10242,0.0065969,0.023162,0.033231
893,0.047847,0.075456,0.12223,0.080978,-0.0021729,0.024461,0.037454
894,0.05207,0.061165,0.11021,0.06831,-0.0050961,0.033881,0.042326
895,0.047198,0.045899,0.10047,0.063113,-0.010943,0.039402,0.045249
896,0.036479,0.030308,0.093645,0.063438,-0.024585,0.029009,0.039078
897,0.021213,0.0088706,0.087799,0.061165,-0.046347,0.0017248,0.020564
898,0.0056225,-0.017764,0.079679,0.054019,-0.071357,-0.027833,-0.0028225
899,-0.0057458,-0.042124,0.069285,0.041676,-0.096042,-0.044723,-0.017764
900,-0.010293,-0.05804,0.060515,0.028359,-0.11098,-0.046022,-0.020037
901,-0.0096434,-0.059989,0.059865,0.025111,-0.11293,-0.035953,-0.0089938
902,0.00010078,-0.04862,0.067336,0.038428,-0.097341,-0.020037,0.012119
903,0.022188,-0.033354,0.080653,0.065387,-0.063561,-0.0011985,0.032582
904,0.043625,-0.021012,0.094945,0.096244,-0.023285,0.020888,0.046223
905,0.057267,-0.013216,0.10436,0.11508,0.008221,0.040052,0.048497
906,0.055968,-0.014516,0.10404,0.11346,0.020888,0.052395,0.039727
907,0.041027,-0.027183,0.089748,0.090397,0.0072465,0.05142,0.022512
908,0.016991,-0.047971,0.067661,0.054993,-0.028157,0.042975,0.00075039
909,-0.0083442,-0.070707,0.048172,0.024786,-0.068434,0.033556,-0.018088
910,-0.025234,-0.0837,0.037129,0.016341,-0.094418,0.029009,-0.025884
911,-0.027833,-0.082725,0.033556,0.033881,-0.096367,0.030308,-0.021986
912,-0.018738,-0.067459,0.035505,0.06961,-0.07428,0.033881,-0.0073698
913,-0.0024977,-0.047321,0.039727,0.10761,-0.035953,0.041027,0.017965
914,0.016341,-0.025884,0.048822,0.13165,0.010819,0.050121,0.046873
915,0.03583,-0.011267,0.058241,0.12905,0.056292,0.058891,0.070259
916,0.050446,-0.0067202,0.062789,0.098842,0.090397,0.063438,0.081952
917,0.05207,-0.013216,0.057267,0.050446,0.10989,0.058566,0.07773
918,0.041676,-0.023935,0.036804,-0.0015233,0.11671,0.0433,0.063113
919,0.027709,-0.031081,0.0033489,-0.042449,0.11411,0.021213,0.043625
920,0.01764,-0.03173,-0.032705,-0.064861,0.10534,-0.0031473,0.02706
921,0.016341,-0.024585,-0.062262,-0.067459,0.093645,-0.022636,0.014717
922,0.026735,-0.010618,-0.079152,-0.050244,0.080003,-0.033354,0.0069217
923,0.044924,0.0062721,-0.085648,-0.011917,0.072208,-0.030106,0.0091954
924,0.066037,0.023162,-0.093119,0.045899,0.078379,-0.0067202,0.02706
925,0.083901,0.032906,-0.11033,0.11248,0.093645,0.030957,0.054344
926,0.092021,0.028684,-0.13664,0.1638,0.10761,0.069285,0.076106
927,0.081627,0.0091954,-0.1649,0.1781,0.10436,0.087474,0.081952
928,0.048172,-0.020362,-0.18601,0.14626,0.079029,0.076106,0.065062
929,0.00010078,-0.04992,-0.19186,0.074806,0.036154,0.037778,0.032257
930,-0.045697,-0.069408,-0.17822,-0.019388,-0.0089938,-0.01484,-0.0031473
931,-0.075904,-0.071357,-0.15126,-0.10903,-0.045047,-0.061937,-0.027183
932,-0.086298,-0.060638,-0.12268,-0.1701,-0.06551,-0.088572,-0.037252
933,-0.075255,-0.04115,-0.10026,-0.18212,-0.064536,-0.090521,-0.039201
934,-0.052193,-0.018413,-0.081426,-0.14379,-0.040175,-0.074605,-0.033679
935,-0.029132,0.0056225,-0.057065,-0.064211,-0.0011985,-0.04862,-0.023935
936,-0.012242,0.02706,-0.011917,0.033556,0.036804,-0.021012,-0.013541
937,-0.0037969,0.044599,0.070584,0.1232,0.062789,0.0017248,-0.0067202
938,-0.0018481,0.058566,0.19921,0.18719,0.076431,0.013093,-0.0024977
939,-0.0031473,0.068635,0.37038,0.22454,0.0865,0.015692,0.0078962
940,-0.0031473,0.075456,0.55,0.24111,0.10209,0.017965,0.02706
941,0.0039985,0.076431,0.68934,0.2463,0.12385,0.025761,0.050446
942,0.016016,0.073507,0.75528,0.24176,0.14626,0.038103,0.068635
943,0.027385,0.063763,0.74066,0.23071,0.16023,0.047523,0.076431
944,0.034855,0.049147,0.66661,0.21317,0.15991,0.049796,0.073832
945,0.033556,0.032257,0.56299,0.18459,0.14854,0.043625,0.06084
946,0.023487,0.01764,0.45516,0.14237,0.13457,0.031282,0.041351
947,0.0088706,0.0056225,0.35512,0.092346,0.12613,0.019914,0.021863
948,-0.0050961,-0.0047713,0.26287,0.040702,0.12223,0.011469,0.0078962
949,-0.013216,-0.013541,0.17777,-0.0083442,0.11248,0.0046481,0.0020496
950,-0.015815,-0.01549,0.10014,-0.052518,0.092346,-0.0050961,-0.00022403
951,-0.015815,-0.010618,0.031932,-0.090521,0.064088,-0.020037,-0.0028225
952,-0.016789,-0.0011985,-0.024585,-0.12008,0.032257,-0.038551,-0.0063954
953,-0.016789,0.009845,-0.071682,-0.13502,0.00010078,-0.056091,-0.0089938
954,-0.012242,0.01829,-0.10611,-0.12787,-0.026533,-0.069083,-0.008669
955,-0.0031473,0.024137,-0.1256,-0.090845,-0.046022,-0.069408,-0.0034721
956,0.0078962,0.031607,-0.1295,-0.030756,-0.057715,-0.052843,0.0046481
957,0.016991,0.0433,-0.12333,0.038753,-0.063237,-0.022961,0.012443
958,0.024461,0.054668,-0.11391,0.094945,-0.067784,0.0075714,0.018615
959,0.030957,0.065062,-0.10384,0.11931,-0.072981,0.028359,0.024461
960,0.03583,0.072208,-0.098316,0.10469,-0.080451,0.034855,0.033231
961,0.041351,0.072533,-0.098641,0.064088,-0.090196,0.030308,0.039402
962,0.04395,0.065712,-0.10774,0.017965,-0.093769,0.01764,0.040377
963,0.041027,0.056617,-0.12008,-0.017114,-0.084674,0.0039985,0.035505
964,0.035505,0.053694,-0.13145,-0.030431,-0.062262,-0.0018481,0.030633
965,0.032906,0.057592,-0.13794,-0.026858,-0.033679,-0.0011985,0.02706
966,0.033231,0.06831,-0.13632,-0.015815,-0.007045,0.0017248,0.024786
967,0.039078,0.083901,-0.12982,-0.011592,0.010819,0.0033489,0.023812
968,0.048172,0.097218,-0.11261,-0.021012,0.011469,0.0023744,0.020888
969,0.058566,0.10371,-0.084349,-0.042124,-0.0021729,-0.0054209,0.016991
970,0.06961,0.10177,-0.052193,-0.06551,-0.027183,-0.019712,0.013743
971,0.076755,0.089098,-0.027508,-0.084999,-0.056091,-0.034654,0.013093
972,0.077405,0.069285,-0.016789,-0.096692,-0.084674,-0.044723,0.011794
973,0.073832,0.049796,-0.020037,-0.097341,-0.10644,-0.045697,0.0052977
974,0.06961,0.038753,-0.031406,-0.085324,-0.11943,-0.039201,-0.0037969
975,0.065712,0.040377,-0.042449,-0.062262,-0.1217,-0.026858,-0.010618
976,0.056942,0.053369,-0.052193,-0.034004,-0.12008,-0.012242,-0.0093186
977,0.040702,0.071883,-0.062912,-0.010618,-0.12203,0.00075039,-0.0034721
978,0.021213,0.0852,-0.077203,-0.0037969,-0.13047,0.0065969,0.0010752
979,0.0062721,0.090722,-0.09182,-0.015165,-0.13729,0.0075714,0.0020496
980,-0.0034721,0.088124,-0.10254,-0.041475,-0.1334,0.0062721,-0.00022403
981,-0.0041217,0.079354,-0.10676,-0.069408,-0.11358,0.0020496,-0.0021729
982,0.0033489,0.063763,-0.10351,-0.084674,-0.084024,-0.0021729,-0.0015233
983,0.015692,0.046223,-0.098965,-0.082076,-0.054792,-0.0057458,0.0020496
984,0.029333,0.028034,-0.10156,-0.06616,-0.03238,-0.0083442,0.008221
985,0.038753,0.014068,-0.10871,-0.044398,-0.017439,-0.014516,0.013743
986,0.040377,0.009845,-0.11651,-0.022636,-0.0093186,-0.02426,0.014068
987,0.036154,0.012768,-0.12755,-0.0041217,-0.0047713,-0.033679,0.0078962
988,0.031282,0.015042,-0.14216,0.0091954,-0.0041217,-0.039851,-0.0028225
989,0.026085,0.011469,-0.15841,0.025111,-0.0063954,-0.04115,-0.010943
990,0.01829,-0.0021729,-0.1714,0.047847,-0.0057458,-0.037902,-0.013216
991,0.0075714,-0.019388,-0.1753,0.076755,0.0014,-0.030756,-0.010618
992,-0.0037969,-0.031406,-0.16458,0.099817,0.0095202,-0.020037,-0.0073698
993,-0.0099683,-0.03303,-0.13989,0.10696,0.012443,-0.010293,-0.0028225
994,-0.0089938,-0.026858,-0.10676,0.094295,0.0065969,-0.0050961,0.0020496
995,-0.0021729,-0.017764,-0.068434,0.062789,-0.0060706,-0.0034721,0.0072465
996,0.0049729,-0.012567,-0.026209,0.016341,-0.021661,-0.0050961,0.009845
997,0.010819,-0.012892,0.016016,-0.034978,-0.035303,-0.011592,0.0078962
998,0.012443,-0.019063,0.05142,-0.081426,-0.041799,-0.020037,-0.00022403
999,0.0075714,-0.026533,0.073507,-0.11488,-0.039201,-0.031406,-0.0076946
1000,-0.0054209,-0.03303,0.074157,-0.12463,-0.026533,-0.044723,-0.01484
1001,-0.022636,-0.035953,0.055318,-0.10871,-0.0028225,-0.051544,-0.018738
1002,-0.035628,-0.037252,0.026085,-0.075904,0.029333,-0.04862,-0.015815
1003,-0.036927,-0.036927,-0.0060706,-0.033679,0.061814,-0.035953,-0.0044465
1004,-0.026858,-0.03238,-0.030756,0.0078962,0.084876,-0.018088,0.0091954
1005,-0.011917,-0.026209,-0.042449,0.044599,0.095594,0.0010752,0.01764
1006,0.00042559,-0.02361,-0.04862,0.070259,0.09397,0.016016,0.019589
1007,0.0052977,-0.027183,-0.058365,0.079029,0.083901,0.023487,0.021213
1008,0.0033489,-0.036278,-0.082076,0.073507,0.070909,0.025111,0.023162
1009,0.0056225,-0.048945,-0.12333,0.056942,0.059541,0.021863,0.02641
1010,0.01764,-0.057715,-0.18082,0.038103,0.057267,0.01894,0.034206
1011,0.036154,-0.059989,-0.24091,0.022512,0.059865,0.021213,0.042326
1012,0.048822,-0.055766,-0.29385,0.009845,0.058891,0.028034,0.046223
1013,0.047523,-0.047971,-0.32958,-0.0060706,0.046873,0.033556,0.040702
1014,0.031607,-0.035628,-0.34127,-0.02426,0.023162,0.030957,0.025111
1015,0.0059473,-0.017439,-0.31431,-0.043423,-0.0037969,0.019914,0.0085458
1016,-0.015815,0.0052977,-0.23733,-0.057715,-0.029457,0.0039985,-0.0037969
1017,-0.028157,0.029009,-0.11098,-0.062587,-0.048296,-0.012892,-0.011267
1018,-0.028482,0.048172,0.047847,-0.056741,-0.054467,-0.023935,-0.011917
1019,-0.022636,0.061489,0.21155,-0.042124,-0.050569,-0.025559,-0.007045
1020,-0.018738,0.064737,0.34927,-0.021012,-0.044723,-0.014516,-0.0024977
1021,-0.022961,0.06084,0.43404,0.0033489,-0.042774,0.0014,0.0026992
1022,-0.036927,0.054019,0.45938,0.029983,-0.042774,0.013418,0.0036737
1023,-0.057065,0.05207,0.43827,0.055643,-0.038227,0.015042,0.0014
1024,-0.073955,0.054344,0.40741,0.080328,-0.02361,0.0072465,-0.0031473
1025,-0.081751,0.058891,0.39539,0.10306,-0.0015233,-0.0041217,-0.007045
1026,-0.078503,0.062464,0.40384,0.11898,0.027709,-0.010943,-0.011592
1027,-0.066485,0.06831,0.40579,0.12418,0.056292,-0.011592,-0.014191
1028,-0.052518,0.076106,0.37493,0.11703,0.07773,-0.0054209,-0.014516
1029,-0.039526,0.080328,0.30802,0.10177,0.087474,0.0046481,-0.013216
1030,-0.027508,0.075456,0.22227,0.084226,0.083251,0.015692,-0.011917
1031,-0.018413,0.063763,0.14042,0.070259,0.06896,0.025761,-0.0096434
1032,-0.012567,0.047847,0.076755,0.062789,0.054019,0.032582,-0.0073698
1033,-0.0083442,0.033231,0.032257,0.061165,0.049796,0.039078,-0.0024977
1034,-0.0050961,0.023162,0.0033489,0.061814,0.057267,0.047847,0.008221
1035,-0.0054209,0.016016,-0.017764,0.059216,0.06896,0.057917,0.021213
1036,-0.011267,0.010495,-0.042449,0.047523,0.076755,0.065387,0.032582
1037,-0.020362,0.0072465,-0.071032,0.031282,0.073832,0.067661,0.038103
1038,-0.028157,0.0056225,-0.093444,0.017965,0.064413,0.066362,0.037129
1039,-0.028157,0.0056225,-0.098316,0.01017,0.053369,0.061165,0.033556
1040,-0.021337,0.01017,-0.081751,0.003024,0.045574,0.054344,0.028684
1041,-0.008669,0.019589,-0.048945,-0.0054209,0.040052,0.047847,0.023812
1042,0.0039985,0.031932,-0.016464,-0.01614,0.034206,0.042326,0.022512
1043,0.011144,0.042651,0.00075039,-0.026533,0.027385,0.042326,0.025111
1044,0.0085458,0.046873,-0.00054884,-0.035303,0.020564,0.048497,0.024461
1045,0.0023744,0.042001,-0.01614,-0.038551,0.01764,0.059216,0.020564
1046,-0.0037969,0.029333,-0.039851,-0.034004,0.020888,0.06896,0.016341
1047,-0.0067202,0.013743,-0.061288,-0.025234,0.031282,0.072208,0.013093
1048,-0.007045,-0.00054884,-0.068434,-0.013541,0.0433,0.066686,0.011469
1049,-0.0073698,-0.011917,-0.064536,-0.00087364,0.054668,0.054344,0.011144
1050,-0.0050961,-0.021661,-0.056091,0.010819,0.067336,0.040702,0.014068
1051,-0.00054884,-0.029782,-0.049595,0.020239,0.080978,0.030957,0.01829
1052,0.0078962,-0.035628,-0.050244,0.030957,0.087474,0.021213,0.020564
1053,0.016991,-0.037577,-0.057715,0.037129,0.086175,0.012443,0.020564
1054,0.023812,-0.039201,-0.069408,0.037454,0.072533,0.008221,0.017965
1055,0.030308,-0.04115,-0.084349,0.034206,0.052395,0.009845,0.014392
1056,0.037454,-0.042124,-0.096692,0.029658,0.030633,0.012119,0.0078962
1057,0.040052,-0.042124,-0.10351,0.024461,0.011469,0.011794,-0.0018481
1058,0.033881,-0.038227,-0.10384,0.019264,-0.0034721,0.0078962,-0.014191
1059,0.020564,-0.026533,-0.10091,0.015692,-0.017439,0.0023744,-0.021986
1060,0.008221,-0.0063954,-0.089546,0.015367,-0.029132,-0.0037969,-0.022961
1061,0.0020496,0.026735,-0.062262,0.01764,-0.036602,-0.0067202,-0.013541
1062,0.0033489,0.073182,-0.017439,0.024137,-0.046022,-0.0041217,0.0052977
1063,0.009845,0.12483,0.040702,0.031282,-0.060313,0.0014,0.02706
1064,0.018615,0.16835,0.10014,0.033231,-0.076229,0.0078962,0.042651
1065,0.028684,0.19044,0.14854,0.027709,-0.09182,0.011469,0.045249
1066,0.037778,0.18297,0.17777,0.013743,-0.10416,0.008221,0.042326
1067,0.042001,0.14854,0.18492,0.00042559,-0.11845,-0.0018481,0.037454
1068,0.040702,0.098517,0.18394,-0.0054209,-0.13697,-0.014516,0.031932
1069,0.03518,0.046223,0.19531,0.0014,-0.16003,-0.023935,0.023812
1070,0.027709,-0.00022403,0.22324,0.01764,-0.18212,-0.029782,0.014717
1071,0.021538,-0.039526,0.24273,0.035505,-0.19283,-0.034329,0.0075714
1072,0.01829,-0.070382,0.22974,0.048172,-0.18861,-0.035303,0.0020496
1073,0.014392,-0.091495,0.18102,0.05272,-0.17075,-0.029782,-0.0018481
1074,0.008221,-0.09929,0.11443,0.047523,-0.14606,-0.01614,-0.0050961
1075,-0.0024977,-0.093444,0.054019,0.038753,-0.12657,0.0010752,-0.0063954
1076,-0.010943,-0.078178,0.01764,0.032582,-0.11553,0.014068,0.00010078
1077,-0.010618,-0.05739,0.0049729,0.031282,-0.10871,0.018615,0.014717
1078,0.00075039,-0.03303,0.0085458,0.036804,-0.098641,0.016341,0.029658
1079,0.019914,-0.0080194,0.01764,0.048497,-0.082725,0.01017,0.041351
1080,0.038103,0.012443,0.024137,0.06084,-0.063886,0.0049729,0.048822
1081,0.049472,0.027385,0.023162,0.067661,-0.047321,0.0020496,0.053044
1082,0.053369,0.033881,0.014392,0.066686,-0.036927,-0.0031473,0.054019
1083,0.050446,0.028359,-0.0034721,0.061165,-0.029132,-0.011917,0.050121
1084,0.044599,0.013418,-0.024909,0.050771,-0.022311,-0.022961,0.042975
1085,0.036479,-0.0050961,-0.043423,0.038103,-0.017439,-0.032055,0.036804
1086,0.027385,-0.019712,-0.050894,0.024786,-0.014191,-0.033679,0.030308
1087,0.019914,-0.028157,-0.047646,0.014717,-0.014191,-0.026533,0.023812
1088,0.013418,-0.035628,-0.036602,0.009845,-0.014516,-0.014191,0.014392
1089,0.0069217,-0.04115,-0.021661,0.012119,-0.011592,-0.0028225,0.0033489
1090,0.0069217,-0.04115,-0.0050961,0.021538,-0.0047713,0.0023744,-0.0037969
1091,0.016341,-0.035303,0.0059473,0.033231,0.0020496,0.0036737,-0.0050961
1092,0.030308,-0.026858,0.0033489,0.041676,0.008221,0.0046481,-0.00087364
1093,0.043625,-0.018413,-0.016789,0.039727,0.010819,0.0069217,0.0026992
1094,0.05142,-0.013866,-0.051544,0.028359,0.009845,0.0069217,0.0046481
1095,0.054344,-0.012567,-0.096367,0.008221,0.0075714,0.0039985,0.0078962
1096,0.05142,-0.015165,-0.14152,-0.010943,0.0075714,-0.0015233,0.015692
1097,0.044599,-0.021012,-0.17692,-0.020687,0.013418,-0.0047713,0.023162
1098,0.039727,-0.025884,-0.19966,-0.018088,0.027709,-0.0057458,0.028359
1099,0.041676,-0.025559,-0.21492,-0.0024977,0.048497,-0.0031473,0.030633
1100,0.046548,-0.017764,-0.22434,0.01829,0.069934,0.00075039,0.031607
1101,0.051745,-0.0034721,-0.22661,0.037129,0.081627,0.0062721,0.031932
1102,0.059216,0.01764,-0.22304,0.051096,0.082927,0.013418,0.031932
1103,0.06831,0.042651,-0.21914,0.058891,0.076431,0.023812,0.029983
1104,0.07773,0.066037,-0.21817,0.058566,0.068635,0.033556,0.023162
1105,0.082602,0.08585,-0.21947,0.048172,0.06896,0.040377,0.015367
1106,0.07773,0.098517,-0.2094,0.033881,0.083251,0.041027,0.0065969
1107,0.065387,0.10079,-0.17497,0.023487,0.11541,0.037454,-0.00054884
1108,0.051745,0.099167,-0.10124,0.021213,0.16153,0.032582,-0.0021729
1109,0.045899,0.099492,0.021863,0.028359,0.20116,0.02706,0.0046481
1110,0.050121,0.10371,0.17842,0.039727,0.21837,0.019589,0.016991
1111,0.06084,0.11378,0.33075,0.047847,0.20408,0.012443,0.033556
1112,0.068635,0.12515,0.43274,0.048497,0.16023,0.0056225,0.048172
1113,0.068635,0.131,0.46295,0.042975,0.10729,0.00075039,0.057592
1114,0.059865,0.12385,0.42495,0.031932,0.055968,-0.0028225,0.062139
1115,0.043625,0.10859,0.35057,0.01894,0.013418,-0.010293,0.057917
1116,0.022837,0.087474,0.27359,0.0072465,-0.019063,-0.020687,0.04395
1117,0.0026992,0.063113,0.21805,-0.00087364,-0.038227,-0.032705,0.025436
1118,-0.010943,0.037778,0.18622,-0.0018481,-0.044073,-0.040825,0.0052977
1119,-0.015165,0.014392,0.17192,0.0049729,-0.035953,-0.04115,-0.0099683
1120,-0.017439,-0.0050961,0.16185,0.020564,-0.019388,-0.034329,-0.017114
1121,-0.026209,-0.019712,0.14464,0.036154,-0.0011985,-0.027183,-0.019063
1122,-0.044398,-0.028807,0.11118,0.040377,0.010495,-0.027508,-0.021012
1123,-0.063561,-0.032055,0.065712,0.027385,0.011794,-0.037252,-0.028482
1124,-0.081426,-0.034654,0.020239,-0.0034721,0.0014,-0.049595,-0.039851
1125,-0.095393,-0.038227,-0.012242,-0.043423,-0.016464,-0.060638,-0.049595
1126,-0.10221,-0.043423,-0.025234,-0.079802,-0.03238,-0.066485,-0.048945
1127,-0.098641,-0.048296,-0.021012,-0.097991,-0.038227,-0.066485,-0.035303
1128,-0.081101,-0.048296,-0.0073698,-0.090521,-0.029457,-0.059339,-0.013866
1129,-0.055116,-0.042449,0.0072465,-0.05804,-0.0073698,-0.042449,0.0069217
1130,-0.026209,-0.026533,0.017965,-0.0083442,0.021538,-0.017764,0.023162
1131,-0.00054884,-0.0067202,0.022837,0.045249,0.052395,0.0085458,0.032582
1132,0.019914,0.011794,0.021213,0.089748,0.07773,0.027709,0.033231
1133,0.034206,0.025111,0.013418,0.11833,0.095594,0.037129,0.029658
1134,0.045249,0.031607,-0.0057458,0.13002,0.10014,0.037778,0.02706
1135,0.050446,0.032582,-0.034329,0.12743,0.093645,0.032582,0.02706
1136,0.050446,0.030633,-0.076554,0.11638,0.083901,0.024137,0.030308
1137,0.04395,0.02641,-0.1308,0.10404,0.074157,0.01829,0.031607
1138,0.033881,0.021863,-0.19348,0.09397,0.064413,0.017965,0.027385
1139,0.023487,0.01764,-0.25325,0.082602,0.051745,0.022188,0.017316
1140,0.01894,0.014392,-0.30197,0.065712,0.03583,0.025436,0.0072465
1141,0.024137,0.009845,-0.33802,0.043625,0.018615,0.027385,0.0014
1142,0.032582,0.0014,-0.36888,0.01764,0.0033489,0.026735,0.00042559
1143,0.039402,-0.007045,-0.39811,-0.008669,-0.0076946,0.020888,-0.0028225
1144,0.038103,-0.015815,-0.42215,-0.03303,-0.013541,0.0062721,-0.011267
1145,0.028034,-0.022636,-0.43839,-0.053492,-0.015165,-0.016789,-0.020362
1146,0.015692,-0.027508,-0.44261,-0.069733,-0.012892,-0.037577,-0.027508
1147,0.0072465,-0.027183,-0.42767,-0.076229,-0.0099683,-0.046347,-0.031406
1148,0.0065969,-0.021661,-0.37765,-0.06551,-0.0031473,-0.0405,-0.029782
1149,0.014717,-0.010943,-0.27469,-0.03238,0.0059473,-0.026533,-0.020037
1150,0.030308,0.0046481,-0.11163,0.016666,0.015042,-0.0096434,-0.0057458
1151,0.042975,0.022512,0.09462,0.06831,0.023487,0.0059473,0.0069217
1152,0.046873,0.040052,0.29892,0.10631,0.029333,0.018615,0.014392
1153,0.041027,0.051745,0.45646,0.12028,0.029333,0.029658,0.018615
1154,0.029009,0.054993,0.54253,0.10989,0.020564,0.037778,0.021538
1155,0.01764,0.048172,0.56234,0.0852,0.0052977,0.038753,0.025436
1156,0.0091954,0.033231,0.53961,0.058241,-0.0096434,0.029009,0.031282
1157,0.0020496,0.015042,0.49933,0.037129,-0.021661,0.016016,0.03453
1158,-0.0076946,-0.0011985,0.45028,0.02706,-0.029132,0.0049729,0.030633
1159,-0.017439,-0.015165,0.39409,0.022512,-0.037577,-0.0031473,0.020239
1160,-0.021337,-0.020362,0.32881,0.018615,-0.046347,-0.0073698,0.009845
1161,-0.019712,-0.019063,0.25735,0.015692,-0.053817,-0.007045,0.0052977
1162,-0.013541,-0.011592,0.18329,0.0069217,-0.056091,-0.0031473,0.0062721
1163,-0.0057458,-0.00087364,0.11508,-0.0076946,-0.053492,-0.0011985,0.0075714
1164,0.0049729,0.011144,0.06019,-0.02426,-0.045047,-0.0050961,0.009845
1165,0.014068,0.020564,0.020239,-0.037252,-0.032055,-0.010293,0.015042
1166,0.023162,0.023487,-0.0050961,-0.043748,-0.021012,-0.012567,0.019914
1167,0.02641,0.019589,-0.019063,-0.045047,-0.015165,-0.011917,0.01894
1168,0.020564,0.014068,-0.023935,-0.041475,-0.011267,-0.008669,0.011144
1169,0.012119,0.011794,-0.022961,-0.032055,-0.0093186,-0.0028225,0.0010752
1170,0.0052977,0.013743,-0.022961,-0.018088,-0.0080194,0.0020496,-0.0063954
1171,0.0046481,0.020564,-0.030431,-0.0050961,-0.0037969,0.0020496,-0.0080194
1172,0.0069217,0.026085,-0.047321,0.0017248,0.0014,-0.0021729,-0.0031473
1173,0.008221,0.028034,-0.070058,0.0017248,0.0020496,-0.0063954,0.0052977
1174,0.0085458,0.02641,-0.093769,-0.0024977,-0.0067202,-0.010618,0.011469
1175,0.0085458,0.025436,-0.11131,-0.0067202,-0.021986,-0.01614,0.015367
1176,0.01017,0.028359,-0.1191,-0.012892,-0.039526,-0.019388,0.016341
1177,0.0088706,0.031282,-0.11553,-0.020362,-0.059989,-0.020037,0.014717
1178,0.0046481,0.030633,-0.10871,-0.029457,-0.077528,-0.013541,0.010495
1179,-0.00087364,0.025111,-0.10416,-0.035953,-0.080451,-0.0037969,0.0075714
1180,-0.0050961,0.016341,-0.10838,-0.039201,-0.06616,0.0072465,0.008221
1181,-0.0034721,0.0091954,-0.12138,-0.039526,-0.042124,0.015367,0.013093
1182,-0.00054884,0.0036737,-0.13697,-0.034004,-0.021986,0.019589,0.016991
1183,-0.0011985,0.0010752,-0.14022,-0.029457,-0.014516,0.020239,0.016016
1184,-0.0099683,0.0010752,-0.12203,-0.028482,-0.015815,0.015367,0.013093
1185,-0.022961,0.0023744,-0.082725,-0.026858,-0.018413,0.009845,0.011144
1186,-0.034978,0.0065969,-0.034329,-0.021986,-0.017439,0.0056225,0.011794
1187,-0.035628,0.016341,0.011794,-0.01549,-0.012892,0.0036737,0.015692
1188,-0.024909,0.029983,0.047198,-0.008669,-0.0063954,0.0033489,0.018615
1189,-0.013541,0.043625,0.066686,-0.00087364,-0.0011985,0.0039985,0.019589
1190,-0.0080194,0.056292,0.077405,0.0075714,-0.00054884,0.0020496,0.01894
1191,-0.0083442,0.067336,0.088448,0.018615,-0.0031473,-0.0018481,0.014717
1192,-0.012567,0.075131,0.10177,0.025111,-0.0089938,-0.0034721,0.013743
1193,-0.01484,0.074482,0.11183,0.023487,-0.017114,-0.0037969,0.011469
1194,-0.01549,0.065062,0.10534,0.013418,-0.026209,-0.0041217,0.0065969
1195,-0.014516,0.050771,0.079029,0.0017248,-0.033354,-0.0060706,0.0010752
1196,-0.012567,0.036804,0.039727,-0.0041217,-0.034978,-0.0089938,0.0020496
1197,-0.0080194,0.023812,0.0014,-0.0024977,-0.03173,-0.007045,0.0095202
1198,-0.0041217,0.013418,-0.023285,0.0043233,-0.025884,0.0039985,0.019264
1199,-0.00022403,0.0052977,-0.030106,0.011794,-0.021012,0.020564,0.026735
1200,0.0023744,0.003024,-0.021337,0.015692,-0.018413,0.03453,0.029009
1201,0.0014,0.0091954,-0.0047713,0.020888,-0.021012,0.040052,0.024137
1202,0.00075039,0.023162,0.01829,0.029333,-0.027833,0.037778,0.01829
1203,0.0033489,0.039727,0.053694,0.038428,-0.037902,0.033881,0.015042
1204,0.0085458,0.053369,0.096893,0.044599,-0.051544,0.031607,0.013418
1205,0.013093,0.06019,0.1336,0.048822,-0.064211,0.031282,0.015042
1206,0.012768,0.055968,0.14626,0.051096,-0.069408,0.029658,0.01894
1207,0.0049729,0.042326,0.12775,0.050446,-0.067134,0.024137,0.025436
1208,-0.0073698,0.025761,0.083251,0.043625,-0.057065,0.016991,0.031282
1209,-0.017764,0.015692,0.030957,0.029009,-0.040825,0.012119,0.031932
1210,-0.019712,0.016341,-0.0083442,0.014717,-0.018413,0.0075714,0.029009
1211,-0.011592,0.02641,-0.025884,0.0023744,0.0023744,0.0017248,0.02641
1212,-0.00087364,0.041027,-0.022961,-0.0060706,0.01829,-0.0067202,0.02641
1213,0.0052977,0.054019,-0.0076946,-0.013216,0.024137,-0.014516,0.029658
1214,0.0091954,0.062139,0.009845,-0.01549,0.020888,-0.020037,0.03453
1215,0.010819,0.064737,0.023162,-0.012242,0.013093,-0.021661,0.039078
1216,0.011144,0.056617,0.030633,-0.007045,0.0052977,-0.021337,0.040702
1217,0.0069217,0.039402,0.030633,-0.0018481,0.0014,-0.021012,0.036154
1218,-0.0011985,0.012768,0.025436,0.0033489,0.0039985,-0.016464,0.024786
1219,-0.008669,-0.01549,0.012768,0.011794,0.01017,-0.0080194,0.010495
1220,-0.013216,-0.037902,-0.0067202,0.020888,0.017316,0.0052977,-0.00087364
1221,-0.013866,-0.048296,-0.028157,0.026735,0.02706,0.021538,-0.0041217
1222,-0.011917,-0.04927,-0.047321,0.024137,0.037454,0.036154,-0.0011985
1223,-0.0099683,-0.04862,-0.061613,0.013093,0.044275,0.046873,0.0033489
1224,-0.0089938,-0.044073,-0.073955,-0.0011985,0.048497,0.05207,0.0091954
1225,-0.0057458,-0.035303,-0.086623,-0.010943,0.057267,0.052395,0.014717
1226,0.00010078,-0.022636,-0.097666,-0.0047713,0.070259,0.047847,0.01764
1227,0.0085458,-0.0047713,-0.11326,0.014068,0.081303,0.037778,0.020564
1228,0.016016,0.014392,-0.13502,0.038428,0.083901,0.028359,0.023487
1229,0.019589,0.027709,-0.15516,0.056292,0.075456,0.021213,0.02706
1230,0.017316,0.031607,-0.1597,0.062789,0.059865,0.01894,0.032582
1231,0.011794,0.028034,-0.14509,0.059865,0.040377,0.01894,0.039727
1232,0.0085458,0.020239,-0.11293,0.054019,0.024786,0.01829,0.048497
1233,0.010495,0.01017,-0.070058,0.046223,0.014717,0.016341,0.054993
1234,0.014392,0.00075039,-0.026858,0.038428,0.0065969,0.012768,0.056617
1235,0.013743,-0.0044465,0.0069217,0.033231,-0.0067202,0.0091954,0.056617
1236,0.01017,-0.0076946,0.026735,0.028684,-0.025234,0.0088706,0.054668
1237,0.0046481,-0.010293,0.036804,0.027709,-0.044073,0.01017,0.048822
1238,0.00010078,-0.012242,0.043625,0.027709,-0.057715,0.0091954,0.036804
1239,-0.0034721,-0.015165,0.051096,0.025761,-0.06616,0.0036737,0.01894
1240,-0.0028225,-0.018088,0.057917,0.020239,-0.073631,-0.0028225,0.0043233
1241,0.003024,-0.019063,0.057917,0.013743,-0.081426,-0.0067202,-0.00022403
1242,0.013743,-0.017439,0.048497,0.010819,-0.090521,-0.010618,0.0023744
1243,0.029333,-0.013541,0.035505,0.011469,-0.096042,-0.013866,0.0065969
1244,0.042326,-0.0080194,0.02706,0.016991,-0.094093,-0.015165,0.01017
1245,0.048172,-0.0031473,0.026085,0.026735,-0.081101,-0.010943,0.015367
1246,0.048497,0.00010078,0.028359,0.034206,-0.062587,-0.0028225,0.021863
1247,0.044924,0.0026992,0.028684,0.041027,-0.046347,0.0017248,0.025111
1248,0.048172,0.009845,0.024786,0.047523,-0.031081,-0.00087364,0.02641
1249,0.058241,0.020888,0.020564,0.057267,-0.016789,-0.0089938,0.028359
1250,0.069934,0.030308,0.019914,0.070259,-0.0028225,-0.014191,0.028684
1251,0.077405,0.03453,0.023162,0.084876,0.0069217,-0.013216,0.025111
1252,0.079679,0.034206,0.028684,0.096569,0.014068,-0.0080194,0.016666
1253,0.075781,0.033556,0.033231,0.097218,0.019589,-0.0015233,0.0085458
1254,0.067336,0.031282,0.042001,0.087149,0.027385,0.0049729,0.0020496
1255,0.054993,0.026735,0.056942,0.072533,0.041027,0.0091954,-0.0050961
1256,0.040052,0.014068,0.076431,0.059865,0.06084,0.012443,-0.013541
1257,0.022188,-0.0041217,0.095594,0.047847,0.081303,0.013743,-0.023285
1258,0.0088706,-0.02426,0.11151,0.037129,0.096244,0.014392,-0.031406
1259,0.0052977,-0.039526,0.12158,0.028684,0.10079,0.012443,-0.037252
1260,0.011469,-0.044398,0.1271,0.017965,0.096244,0.011794,-0.041799
1261,0.022188,-0.037902,0.12872,0.0039985,0.087474,0.009845,-0.043423
1262,0.032906,-0.025559,0.12515,-0.008669,0.080978,0.0091954,-0.039526
1263,0.039402,-0.013866,0.11313,-0.017439,0.080003,0.010819,-0.034004
1264,0.041351,-0.0080194,0.093645,-0.020362,0.086175,0.01764,-0.028482
1265,0.036479,-0.0093186,0.070259,-0.019712,0.096244,0.023812,-0.023935
1266,0.025436,-0.013216,0.049147,-0.01484,0.10242,0.026085,-0.020687
1267,0.012443,-0.01484,0.030633,-0.0067202,0.10209,0.024786,-0.018413
1268,0.0010752,-0.0093186,0.011144,0.0010752,0.097218,0.022188,-0.01614
1269,-0.0047713,-0.00054884,-0.0099683,0.0062721,0.089098,0.019914,-0.010943
1270,-0.0060706,0.012768,-0.035953,0.0085458,0.080653,0.01764,-0.0037969
1271,-0.0044465,0.031607,-0.069733,0.0075714,0.076106,0.016016,0.0026992
1272,-0.00087364,0.054019,-0.10774,0.0059473,0.072208,0.015692,0.0069217
1273,0.0062721,0.076106,-0.14022,0.0059473,0.06961,0.015042,0.0069217
1274,0.015692,0.093645,-0.1636,0.0091954,0.067661,0.012119,0.0049729
1275,0.023487,0.10794,-0.17757,0.015367,0.062789,0.0046481,0.00075039
1276,0.028359,0.11768,-0.18244,0.01764,0.050446,-0.0047713,-0.0034721
1277,0.030957,0.11671,-0.17432,0.016016,0.027709,-0.013866,-0.008669
1278,0.029658,0.10826,-0.15061,0.01017,-0.0021729,-0.022636,-0.011917
1279,0.027385,0.098517,-0.11391,0.00075039,-0.03173,-0.033679,-0.013541
1280,0.023487,0.0865,-0.073306,-0.010618,-0.054142,-0.045047,-0.0089938
1281,0.01764,0.072208,-0.041475,-0.020037,-0.069408,-0.053492,-0.0015233
1282,0.0095202,0.054668,-0.025559,-0.025884,-0.073306,-0.058365,0.0056225
1283,-0.00087364,0.033231,-0.025884,-0.028482,-0.070058,-0.059014,0.0088706
1284,-0.014191,0.012443,-0.035628,-0.035303,-0.068109,-0.060638,0.010495
1285,-0.025884,-0.0041217,-0.039851,-0.04927,-0.069408,-0.061937,0.009845
1286,-0.028157,-0.012242,-0.027508,-0.06616,-0.071682,-0.065835,0.0075714
1287,-0.019388,-0.0099683,0.00010078,-0.078503,-0.078178,-0.070058,0.0043233
1288,-0.007045,0.00042559,0.031282,-0.078503,-0.085973,-0.072981,-0.0021729
1289,0.0014,0.015367,0.047523,-0.059339,-0.092794,-0.070058,-0.014191
1290,0.0017248,0.027385,0.044599,-0.022961,-0.088572,-0.056416,-0.021986
1291,0.00042559,0.03518,0.029333,0.021863,-0.069408,-0.031406,-0.02361
1292,0.00075039,0.038428,0.010819,0.063438,-0.033679,0.00010078,-0.016464
1293,0.008221,0.041027,0.0026992,0.095269,0.010495,0.036154,0.00075039
1294,0.022512,0.044924,0.010495,0.11866,0.055968,0.070909,0.024137
1295,0.041027,0.049796,0.034206,0.13977,0.089423,0.097543,0.045249
1296,0.053044,0.057592,0.064737,0.16283,0.099817,0.10891,0.056617
1297,0.053044,0.064737,0.091372,0.18102,0.087799,0.10371,0.05272
1298,0.039402,0.064088,0.10209,0.18557,0.057267,0.0865,0.040377
1299,0.021213,0.053694,0.093321,0.17192,0.014392,0.064737,0.024461
1300,0.0062721,0.03583,0.070909,0.14042,-0.029457,0.047523,0.012443
1301,-0.0018481,0.016666,0.042975,0.099492,-0.063561,0.037778,0.0072465
1302,-0.0083442,0.0017248,0.01829,0.061165,-0.082076,0.030957,0.0056225
1303,-0.017114,-0.010618,-0.00022403,0.032257,-0.094093,0.024137,0.003024
1304,-0.025884,-0.023285,-0.011917,0.013743,-0.11423,0.013418,-0.0034721
1305,-0.036278,-0.038876,-0.020037,-0.0021729,-0.14899,-0.00087364,-0.014516
1306,-0.045697,-0.051868,-0.029457,-0.025559,-0.19673,-0.020037,-0.029457
1307,-0.051868,-0.061613,-0.040175,-0.063886,-0.24805,-0.041799,-0.043748
1308,-0.054467,-0.063561,-0.052193,-0.11423,-0.29125,-0.058689,-0.055116
1309,-0.052193,-0.057065,-0.061937,-0.16523,-0.32016,-0.068434,-0.060638
1310,-0.045697,-0.042449,-0.066485,-0.20258,-0.3325,-0.068758,-0.057715
1311,-0.036278,-0.028157,-0.063237,-0.21622,-0.32698,-0.059014,-0.044398
1312,-0.022636,-0.019063,-0.035953,-0.19738,-0.29677,-0.041475,-0.025234
1313,-0.0050961,-0.013541,0.022837,-0.14379,-0.23766,-0.017764,-0.0031473
1314,0.011144,-0.0054209,0.10501,-0.059339,-0.15223,0.0088706,0.015367
1315,0.022188,0.0056225,0.19271,0.048497,-0.058689,0.030957,0.030308
1316,0.025111,0.020239,0.27326,0.16965,0.024137,0.042001,0.044599
1317,0.026735,0.03518,0.3314,0.28788,0.090722,0.044275,0.058891
1318,0.029658,0.044924,0.34635,0.37818,0.14074,0.040052,0.072533
1319,0.033881,0.045899,0.30704,0.42008,0.17062,0.033556,0.080003
1320,0.036479,0.041676,0.22422,0.40611,0.17972,0.027385,0.079029
1321,0.039727,0.037129,0.12678,0.34505,0.1703,0.023162,0.068635
1322,0.045574,0.03453,0.039402,0.25865,0.14756,0.021863,0.056292
1323,0.05207,0.031932,-0.021986,0.16835,0.12353,0.024461,0.046873
1324,0.054993,0.022837,-0.057715,0.084551,0.10826,0.028359,0.041676
1325,0.047847,0.0078962,-0.07428,0.010495,0.10079,0.030633,0.038753
1326,0.025761,-0.015165,-0.088896,-0.054142,0.095919,0.029009,0.033231
1327,-0.012892,-0.043099,-0.11293,-0.10384,0.090722,0.020564,0.024137
1328,-0.054142,-0.065186,-0.14704,-0.1321,0.082927,0.0017248,0.011794
1329,-0.079477,-0.070382,-0.17659,-0.13567,0.082277,-0.023935,0.0017248
1330,-0.075255,-0.051544,-0.18634,-0.11521,0.097543,-0.043099,0.0014
1331,-0.045697,-0.018088,-0.16945,-0.078503,0.1219,-0.044398,0.016991
1332,-0.007045,0.021863,-0.1256,-0.039851,0.13977,-0.026533,0.044924
1333,0.027709,0.061165,-0.06616,-0.015165,0.14334,0.0046481,0.075456
1334,0.050446,0.091047,-0.0015233,-0.01484,0.13684,0.040377,0.096893
1335,0.058566,0.10534,0.065712,-0.040175,0.12158,0.066037,0.10566
1336,0.056617,0.10436,0.14172,-0.078178,0.10631,0.073507,0.10242
1337,0.047198,0.092671,0.22877,-0.10644,0.10209,0.066037,0.092671
1338,0.033556,0.074157,0.3038,-0.10384,0.11736,0.053044,0.084551
1339,0.021863,0.054344,0.33238,-0.061937,0.15081,0.04395,0.084876
1340,0.019264,0.034855,0.29438,0.0065969,0.18784,0.043625,0.091696
1341,0.026085,0.01829,0.20538,0.084551,0.21252,0.047523,0.095269
1342,0.039727,0.013093,0.10501,0.15211,0.21707,0.048497,0.090397
1343,0.048497,0.019264,0.036154,0.19986,0.20148,0.04395,0.075781
1344,0.048172,0.032582,0.022837,0.21577,0.1768,0.031932,0.053044
1345,0.038103,0.047198,0.063113,0.19693,0.15341,0.015042,0.023487
1346,0.024461,0.059216,0.1323,0.14919,0.13132,-0.0011985,-0.0050961
1347,0.011144,0.065712,0.19693,0.089423,0.10501,-0.010943,-0.027183
1348,-0.0018481,0.070259,0.23039,0.029658,0.071234,-0.01549,-0.038227
1349,-0.011267,0.070909,0.2187,-0.020037,0.032582,-0.016789,-0.037577
1350,-0.015815,0.064737,0.16933,-0.058365,0.0026992,-0.01614,-0.028157
1351,-0.015165,0.053369,0.097543,-0.084024,-0.013216,-0.011917,-0.013541
1352,-0.0076946,0.040377,0.021863,-0.098316,-0.013866,-0.0057458,-0.00087364
1353,0.0020496,0.028359,-0.042449,-0.10189,-0.007045,-0.0024977,0.0085458
1354,0.011469,0.019264,-0.086623,-0.093769,0.003024,-0.0060706,0.011794
1355,0.017316,0.011794,-0.10903,-0.073631,0.011794,-0.015815,0.009845
1356,0.019914,0.0069217,-0.11488,-0.044723,0.015367,-0.027833,0.0046481
1357,0.020888,0.0059473,-0.11326,-0.012242,0.012768,-0.034978,-0.00022403
1358,0.023487,0.0085458,-0.11131,0.016341,0.0059473,-0.034654,-0.0028225
1359,0.031282,0.015692,-0.10806,0.033556,-0.0047713,-0.025884,-0.0037969
1360,0.047523,0.026085,-0.10254,0.031932,-0.018088,-0.013216,-0.0011985
1361,0.067661,0.037778,-0.09182,0.015692,-0.020037,0.0069217,0.0069217
1362,0.086175,0.048497,-0.079152,-0.0076946,-0.0031473,0.031932,0.023162
1363,0.098193,0.053044,-0.070382,-0.028807,0.030633,0.056942,0.039727
1364,0.096569,0.046873,-0.067134,-0.045372,0.067011,0.074482,0.050771
1365,0.075456,0.029333,-0.06681,-0.055441,0.090397,0.079029,0.049796
1366,0.041027,0.0046481,-0.062912,-0.064536,0.09397,0.068635,0.038103
1367,0.010495,-0.019388,-0.051544,-0.078827,0.080003,0.050446,0.01894
1368,-0.0031473,-0.030756,-0.037577,-0.098316,0.058241,0.032582,0.0014
1369,0.0017248,-0.028482,-0.027183,-0.11423,0.038103,0.016991,-0.0089938
1370,0.016666,-0.015165,-0.018413,-0.11456,0.02706,0.0062721,-0.011917
1371,0.032582,0.00042559,-0.0096434,-0.096367,0.027385,-0.0011985,-0.012242
1372,0.041027,0.011794,-0.0021729,-0.059664,0.036479,-0.0063954,-0.011267
1373,0.042651,0.013743,0.0062721,-0.013541,0.045249,-0.007045,-0.0063954
1374,0.036479,0.0088706,0.011794,0.028034,0.045574,-0.0034721,0.0036737
1375,0.025111,0.00075039,0.014068,0.054993,0.037454,0.0049729,0.013093
1376,0.012119,-0.0063954,0.0088706,0.064088,0.01764,0.013418,0.016666
1377,0.0033489,-0.0099683,-0.0099683,0.055643,-0.012567,0.016016,0.011144
1378,-0.0060706,-0.010618,-0.040175,0.033231,-0.043099,0.013743,-0.0024977
1379,-0.021012,-0.012242,-0.075255,0.008221,-0.060638,0.0078962,-0.018413
1380,-0.039201,-0.017114,-0.11033,-0.01614,-0.063561,0.0010752,-0.03173
1381,-0.054142,-0.019063,-0.14022,-0.032705,-0.054792,-0.0041217,-0.036602
1382,-0.058365,-0.01614,-0.16295,-0.036927,-0.043099,-0.011267,-0.026858
1383,-0.051219,-0.0063954,-0.18244,-0.029782,-0.036927,-0.02361,-0.0063954
1384,-0.039526,0.0039985,-0.2081,-0.018738,-0.037902,-0.035303,0.012768
1385,-0.029132,0.012768,-0.23701,-0.011592,-0.045372,-0.043748,0.021863
1386,-0.027183,0.01894,-0.2565,-0.008669,-0.05804,-0.046347,0.020564
1387,-0.032055,0.020888,-0.2526,-0.010943,-0.072981,-0.046347,0.016341
1388,-0.034004,0.020888,-0.22337,-0.01549,-0.087922,-0.047971,0.010819
1389,-0.031081,0.01764,-0.17465,-0.022636,-0.094743,-0.050569,0.003024
1390,-0.026209,0.012119,-0.12105,-0.027508,-0.089221,-0.053492,-0.0057458
1391,-0.024585,0.0069217,-0.07428,-0.029132,-0.079477,-0.055441,-0.014516
1392,-0.027183,0.00010078,-0.04115,-0.025234,-0.079802,-0.052843,-0.021012
1393,-0.029132,-0.0096434,-0.020687,-0.021337,-0.093119,-0.047646,-0.023935
1394,-0.027833,-0.021012,-0.0073698,-0.020037,-0.11066,-0.045047,-0.023935
1395,-0.021337,-0.03238,0.0023744,-0.022636,-0.12105,-0.047971,-0.022311
1396,-0.014191,-0.043423,0.011469,-0.025234,-0.11845,-0.053168,-0.021986
1397,-0.0050961,-0.049595,0.024461,-0.028807,-0.10806,-0.059664,-0.021986
1398,-0.0011985,-0.048945,0.041351,-0.03173,-0.10286,-0.063886,-0.02426
1399,0.00075039,-0.04115,0.057917,-0.03238,-0.10936,-0.065835,-0.03303
1400,0.0056225,-0.03173,0.072208,-0.025884,-0.12755,-0.065835,-0.043099
1401,0.009845,-0.023285,0.083251,-0.013541,-0.14834,-0.061937,-0.048296
1402,0.013743,-0.017764,0.082277,0.0017248,-0.16295,-0.050894,-0.044398
1403,0.016991,-0.017764,0.063113,0.016666,-0.1688,-0.032705,-0.034004
1404,0.021538,-0.021661,0.028034,0.025761,-0.161,-0.012892,-0.021012
1405,0.024786,-0.027833,-0.01549,0.025761,-0.14152,0.0026992,-0.011592
1406,0.026085,-0.035953,-0.057715,0.017316,-0.11553,0.008221,-0.0054209
1407,0.02641,-0.044398,-0.090521,0.0039985,-0.092469,0.0049729,-0.0015233
1408,0.028034,-0.048296,-0.11131,-0.0060706,-0.07428,0.00075039,0.0059473
1409,0.033881,-0.044723,-0.11845,-0.0041217,-0.05739,0.0023744,0.013418
1410,0.046223,-0.033354,-0.11521,0.016016,-0.039851,0.0088706,0.022512
1411,0.062789,-0.01549,-0.10644,0.054344,-0.028482,0.014717,0.03518
1412,0.075456,0.0033489,-0.09994,0.098842,-0.026209,0.01764,0.047523
1413,0.079679,0.020239,-0.093444,0.13587,-0.034004,0.014068,0.058241
1414,0.072533,0.033231,-0.087272,0.15341,-0.04992,0.0033489,0.059865
1415,0.053369,0.038103,-0.080776,0.14464,-0.075579,-0.015165,0.05142
1416,0.022188,0.037778,-0.073955,0.10924,-0.11001,-0.038227,0.033881
1417,-0.015815,0.039402,-0.060638,0.057592,-0.14704,-0.063886,0.010495
1418,-0.04927,0.050446,-0.026209,0.0072465,-0.17789,-0.084999,-0.015165
1419,-0.068758,0.07773,0.046223,-0.025884,-0.19089,-0.096367,-0.034654
1420,-0.068758,0.11703,0.15926,-0.035953,-0.18309,-0.095393,-0.041799
1421,-0.054142,0.15309,0.28788,-0.027508,-0.161,-0.081426,-0.035953
1422,-0.035303,0.16998,0.39312,-0.010293,-0.13372,-0.061937,-0.022311
1423,-0.01614,0.16088,0.44249,0.0056225,-0.10741,-0.043423,-0.0093186
1424,-0.0011985,0.12743,0.42527,0.011144,-0.084674,-0.030431,-0.00054884
1425,0.0062721,0.083251,0.35901,0.0020496,-0.064211,-0.021012,0.00075039
1426,0.0049729,0.040702,0.28138,-0.018738,-0.044723,-0.015165,-0.0028225
1427,-0.0011985,0.0091954,0.22422,-0.036602,-0.023285,-0.015165,-0.007045
1428,-0.008669,-0.0060706,0.19823,-0.041475,0.0026992,-0.018413,-0.011592
1429,-0.018088,-0.0067202,0.19369,-0.023935,0.031932,-0.021661,-0.012567
1430,-0.023935,0.0043233,0.19758,0.016666,0.061165,-0.018088,-0.0080194
1431,-0.022636,0.022188,0.19499,0.071883,0.089423,-0.007045,0.00075039
1432,-0.011592,0.037129,0.17907,0.12872,0.11801,0.012768,0.0085458
1433,0.0043233,0.042326,0.15406,0.17842,0.14399,0.038428,0.011794
1434,0.01894,0.03453,0.1219,0.21025,0.16088,0.062789,0.0088706
1435,0.023812,0.019914,0.090397,0.21707,0.16738,0.079029,0.0056225
1436,0.022188,0.0033489,0.058241,0.19953,0.16315,0.087474,0.0049729
1437,0.018615,-0.010293,0.027385,0.16738,0.15309,0.090397,0.011794
1438,0.015692,-0.016464,0.0033489,0.13327,0.14139,0.091372,0.025761
1439,0.016341,-0.016464,-0.0099683,0.10891,0.13002,0.090722,0.044599
1440,0.01829,-0.012242,-0.010293,0.097868,0.12158,0.091047,0.061165
1441,0.01894,-0.0018481,-0.0028225,0.099167,0.11346,0.096244,0.066037
1442,0.016991,0.012443,0.0072465,0.10469,0.10242,0.10112,0.06019
1443,0.011794,0.029333,0.013093,0.10339,0.0865,0.098842,0.048497
1444,0.0069217,0.039078,0.013093,0.091696,0.067986,0.087149,0.038428
1445,0.0014,0.038428,0.013743,0.06961,0.047523,0.06896,0.035505
1446,-0.0063954,0.030957,0.01894,0.041351,0.027385,0.053369,0.039727
1447,-0.014516,0.020888,0.023162,0.013418,0.011794,0.046548,0.047847
1448,-0.019063,0.012443,0.016666,-0.011592,0.0039985,0.046548,0.056292
1449,-0.017439,0.009845,-0.0093186,-0.029132,0.0069217,0.050771,0.062139
1450,-0.0076946,0.014717,-0.050569,-0.039851,0.020239,0.053369,0.067011
1451,0.0062721,0.023487,-0.097666,-0.045047,0.038103,0.05142,0.071234
1452,0.016991,0.029658,-0.14119,-0.046022,0.050446,0.041027,0.069934
1453,0.021213,0.029983,-0.17205,-0.041799,0.053369,0.02706,0.06084
1454,0.016341,0.023162,-0.19056,-0.030431,0.049796,0.015042,0.046873
1455,0.003024,0.012443,-0.2029,-0.010293,0.041676,0.01017,0.032582
1456,-0.013866,0.0026992,-0.21687,0.011144,0.037454,0.0095202,0.022188
1457,-0.025884,-0.0060706,-0.23084,0.024461,0.039078,0.0088706,0.014717
1458,-0.026209,-0.015165,-0.24026,0.020564,0.041676,0.0036737,0.0059473
1459,-0.018088,-0.021661,-0.23538,-0.0018481,0.040702,-0.0073698,-0.0024977
1460,-0.0057458,-0.022636,-0.2042,-0.032055,0.03518,-0.018413,-0.0050961
1461,0.0091954,-0.014516,-0.13469,-0.055116,0.022188,-0.02426,0.00042559
1462,0.02706,0.00075039,-0.022636,-0.061937,0.009845,-0.022311,0.0095202
1463,0.042651,0.018615,0.11443,-0.046671,0.0085458,-0.01614,0.014392
1464,0.05207,0.031607,0.24533,-0.011267,0.018615,-0.0060706,0.018615
1465,0.054344,0.034206,0.33758,0.033881,0.036479,0.0065969,0.024461
1466,0.050446,0.023812,0.37006,0.074806,0.056942,0.020888,0.031932
1467,0.037778,0.0036737,0.33823,0.099492,0.071234,0.032257,0.034206
1468,0.01829,-0.019063,0.25767,0.10209,0.074157,0.036479,0.030957
1469,-0.0050961,-0.039851,0.15536,0.082927,0.058566,0.034206,0.021538
1470,-0.026858,-0.054467,0.061489,0.045899,0.022512,0.024137,0.0059473
1471,-0.042449,-0.060313,-0.0054209,-0.0018481,-0.027183,0.0056225,-0.014191
1472,-0.052843,-0.061288,-0.041475,-0.053168,-0.081426,-0.019388,-0.034004
1473,-0.059339,-0.05804,-0.056416,-0.10319,-0.1269,-0.047971,-0.047646
1474,-0.058689,-0.050894,-0.065835,-0.14769,-0.15451,-0.070382,-0.053817
1475,-0.04992,-0.041475,-0.075904,-0.18244,-0.1597,-0.08305,-0.051868
1476,-0.033679,-0.031081,-0.084349,-0.19803,-0.14411,-0.0824,-0.0405
1477,-0.015815,-0.022961,-0.084349,-0.18699,-0.11326,-0.067784,-0.021012
1478,0.00010078,-0.018413,-0.070382,-0.14866,-0.074605,-0.042449,0.0014
1479,0.015367,-0.016789,-0.043423,-0.0837,-0.031081,-0.010293,0.020564
1480,0.030633,-0.014191,-0.012242,-0.0031473,0.012443,0.019914,0.03518
1481,0.042326,-0.0073698,0.01829,0.078055,0.05142,0.044275,0.044275
1482,0.050446,0.0072465,0.043625,0.14626,0.080003,0.054993,0.049147
1483,0.055318,0.026735,0.065062,0.19271,0.098517,0.053694,0.048497
1484,0.053694,0.0433,0.080328,0.20993,0.10599,0.046223,0.04395
1485,0.048172,0.053044,0.087474,0.20083,0.10047,0.033556,0.040702
1486,0.042975,0.06084,0.090072,0.17452,0.0852,0.01829,0.038753
1487,0.039727,0.070584,0.092346,0.14561,0.06961,0.0043233,0.036479
1488,0.042001,0.084876,0.099817,0.12775,0.062464,0.00010078,0.03583
1489,0.050121,0.10144,0.11443,0.12548,0.065062,0.011144,0.039402
1490,0.066686,0.11476,0.12743,0.13262,0.074482,0.030308,0.049147
1491,0.086824,0.11768,0.13067,0.14042,0.084876,0.050771,0.060515
1492,0.10079,0.10566,0.11606,0.13847,0.090397,0.061489,0.063763
1493,0.099817,0.079679,0.083576,0.12418,0.092671,0.056617,0.056617
1494,0.0865,0.050121,0.041027,0.10242,0.095594,0.039727,0.043625
1495,0.06831,0.023812,-0.0021729,0.079679,0.10112,0.01764,0.027385
1496,0.050121,0.0088706,-0.040825,0.062789,0.10404,0.0010752,0.011469
1497,0.036804,0.0046481,-0.069408,0.056292,0.099817,-0.0073698,0.0026992
1498,0.02641,0.008221,-0.086298,0.061489,0.087799,-0.0096434,-0.0031473
1499,0.020888,0.013743,-0.089546,0.073507,0.069934,-0.0054209,-0.0067202
1500,0.020564,0.019589,-0.081751,0.087474,0.047523,0.0036737,-0.008669
1501,0.023812,0.023162,-0.066485,0.095919,0.022837,0.012443,-0.0096434
1502,0.029983,0.024137,-0.04927,0.091047,0.003024,0.01829,-0.0067202
1503,0.036804,0.023812,-0.035953,0.073182,-0.0083442,0.020564,-0.0031473
1504,0.041027,0.024461,-0.022961,0.049147,-0.0093186,0.019264,-0.0015233
1505,0.040377,0.029983,-0.0099683,0.028359,-0.0024977,0.011469,-0.0054209
1506,0.036479,0.039727,0.0023744,0.016666,0.0065969,-0.0024977,-0.013216
1507,0.032582,0.050121,0.0091954,0.016341,0.013743,-0.013866,-0.018413
1508,0.030308,0.055643,0.0075714,0.018615,0.015367,-0.016464,-0.020362
1509,0.028034,0.054344,-0.00054884,0.020888,0.011469,-0.0099683,-0.017764
1510,0.022837,0.044275,-0.0099683,0.020564,0.0059473,0.0017248,-0.0093186
1511,0.021213,0.028034,-0.021012,0.017965,0.0046481,0.012768,-0.00087364
1512,0.024786,0.011469,-0.03303,0.016991,0.0091954,0.022512,0.0085458
1513,0.030957,0.00042559,-0.046022,0.015042,0.014717,0.033556,0.016991
1514,0.033881,-0.0047713,-0.054467,0.01017,0.012768,0.042651,0.02641
1515,0.03518,-0.0037969,-0.050244,0.0065969,0.0059473,0.04395,0.033556
1516,0.039078,0.0017248,-0.038551,0.0056225,-0.0044465,0.037778,0.034206
1517,0.045249,0.011144,-0.028482,0.0072465,-0.01549,0.026085,0.030308
1518,0.050771,0.019914,-0.028807,0.009845,-0.021986,0.013743,0.026735
1519,0.05272,0.023487,-0.047971,0.0056225,-0.019712,0.0017248,0.024786
1520,0.045574,0.020239,-0.0824,-0.011917,-0.018413,-0.007045,0.025436
1521,0.030957,0.013743,-0.1191,-0.042449,-0.023285,-0.013216,0.022188
1522,0.0085458,0.0072465,-0.14574,-0.078827,-0.032705,-0.019388,0.012119
1523,-0.016464,0.00042559,-0.15483,-0.10774,-0.039526,-0.023935,-0.0021729
1524,-0.033679,-0.0054209,-0.14671,-0.11878,-0.035953,-0.02361,-0.014191
1525,-0.035628,-0.0093186,-0.12852,-0.11131,-0.021337,-0.01484,-0.016464
1526,-0.02361,-0.0067202,-0.11391,-0.088247,-0.0024977,0.0010752,-0.0083442
1527,-0.0047713,0.0049729,-0.10936,-0.059014,0.010495,0.016341,0.0088706
1528,0.010819,0.028359,-0.11456,-0.029782,0.0085458,0.026085,0.028359
1529,0.019264,0.062139,-0.10968,-0.0054209,-0.0099683,0.025111,0.039078
1530,0.021538,0.10079,-0.079152,0.0075714,-0.035303,0.015042,0.034206
1531,0.01894,0.13197,-0.033679,0.0046481,-0.061613,-0.00054884,0.015692
1532,0.010495,0.14464,-0.0041217,-0.015165,-0.085973,-0.017764,-0.0076946
1533,-0.0024977,0.13457,-0.0096434,-0.047971,-0.10741,-0.034654,-0.030106
1534,-0.017114,0.10404,-0.047646,-0.088247,-0.12333,-0.051219,-0.048296
1535,-0.028157,0.067986,-0.090196,-0.12722,-0.13015,-0.063886,-0.061288
1536,-0.034978,0.041027,-0.11098,-0.15678,-0.13372,-0.068758,-0.067459
1537,-0.040175,0.030633,-0.10351,-0.1727,-0.14411,-0.067134,-0.063561
1538,-0.047646,0.03583,-0.080451,-0.17042,-0.15646,-0.059664,-0.051219
1539,-0.054467,0.048822,-0.055766,-0.14476,-0.15938,-0.048296,-0.03303
1540,-0.050244,0.061165,-0.036927,-0.098641,-0.14541,-0.034654,-0.010943
1541,-0.029457,0.06831,-0.022636,-0.043748,-0.11975,-0.017764,0.013418
1542,-0.00054884,0.076106,-0.0076946,0.0036737,-0.09182,0.0033489,0.037778
1543,0.025111,0.084226,0.0091954,0.030633,-0.068758,0.020239,0.056292
1544,0.037129,0.091372,0.030633,0.030957,-0.059014,0.025436,0.064088
1545,0.030633,0.092671,0.056942,0.0095202,-0.067134,0.015042,0.058891
1546,0.014068,0.086824,0.0865,-0.020687,-0.081426,-0.00022403,0.045899
1547,0.00042559,0.073832,0.11866,-0.043748,-0.085648,-0.0096434,0.033881
1548,-0.0031473,0.054993,0.15893,-0.047321,-0.076229,-0.0089938,0.029333
1549,0.0043233,0.032257,0.2135,-0.029782,-0.056091,0.0014,0.030633
1550,0.014717,0.0065969,0.28073,0.010495,-0.034004,0.015692,0.034855
1551,0.023162,-0.022961,0.34277,0.070909,-0.010618,0.032906,0.038753
1552,0.025111,-0.059989,0.36583,0.13717,0.016666,0.050771,0.038753
1553,0.019589,-0.10514,0.32426,0.19271,0.046873,0.062789,0.03518
1554,0.0069217,-0.14866,0.22032,0.22454,0.072533,0.067011,0.026085
1555,-0.011267,-0.18309,0.084226,0.22389,0.089423,0.059865,0.0059473
1556,-0.031406,-0.2016,-0.042124,0.19109,0.096244,0.042326,-0.021012
1557,-0.048296,-0.20193,-0.12333,0.13847,0.09397,0.019589,-0.04115
1558,-0.054467,-0.18439,-0.15029,0.081952,0.082602,-0.0044465,-0.047321
1559,-0.051544,-0.15288,-0.1334,0.037129,0.065712,-0.022636,-0.042449
1560,-0.04115,-0.11423,-0.09182,0.010495,0.049796,-0.034004,-0.032055
1561,-0.029457,-0.077853,-0.044398,0.0023744,0.041676,-0.036278,-0.024909
1562,-0.020037,-0.04992,-0.0031473,0.0056225,0.046223,-0.032055,-0.020362
1563,-0.012567,-0.03173,0.024137,0.015042,0.062464,-0.02426,-0.013866
1564,-0.00022403,-0.018413,0.039078,0.025111,0.081303,-0.01549,-0.0015233
1565,0.019589,-0.0093186,0.045574,0.028684,0.092996,-0.0047713,0.015692
1566,0.039402,-0.0047713,0.049796,0.025436,0.095594,0.0049729,0.035505
1567,0.05272,-0.0028225,0.057267,0.016341,0.091047,0.014068,0.053044
1568,0.058241,-0.0044465,0.06831,0.0043233,0.0865,0.017965,0.063438
1569,0.06084,-0.0057458,0.075456,-0.0044465,0.088124,0.016991,0.06831
1570,0.062139,-0.0041217,0.071558,-0.0063954,0.096893,0.011794,0.06961
1571,0.057917,0.0036737,0.063113,-0.0028225,0.10956,0.0046481,0.06831
1572,0.048822,0.014392,0.054668,0.0020496,0.11931,0.00042559,0.060515
1573,0.040377,0.024461,0.05207,0.0043233,0.1232,0.00042559,0.046873
1574,0.036804,0.030957,0.053369,0.0039985,0.11898,0.0069217,0.03453
1575,0.033231,0.033556,0.048822,0.0014,0.10761,0.014717,0.028684
1576,0.026085,0.031932,0.024461,-0.0047713,0.090397,0.021213,0.031607
1577,0.015367,0.029333,-0.02426,-0.018738,0.067011,0.021538,0.040052
1578,0.00075039,0.023812,-0.088896,-0.039201,0.042001,0.011469,0.046873
1579,-0.013541,0.01764,-0.14931,-0.059989,0.01894,-0.0060706,0.045899
1580,-0.026209,0.0085458,-0.19121,-0.075255,-0.0057458,-0.023935,0.037778
1581,-0.039851,-0.0015233,-0.20972,-0.088896,-0.034004,-0.039526,0.02706
1582,-0.04927,-0.0060706,-0.20745,-0.10774,-0.059664,-0.047971,0.016991
1583,-0.048945,-0.0028225,-0.18991,-0.13437,-0.076229,-0.04862,0.010495
1584,-0.037252,0.010495,-0.16393,-0.16133,-0.081751,-0.045047,0.0085458
1585,-0.023285,0.026735,-0.13534,-0.17562,-0.079802,-0.042449,0.0091954
1586,-0.0099683,0.037454,-0.11098,-0.16782,-0.077528,-0.042449,0.01017
1587,0.0020496,0.040052,-0.09182,-0.1282,-0.078503,-0.042774,0.013743
1588,0.014068,0.03583,-0.07493,-0.054792,-0.084674,-0.04115,0.019264
1589,0.025436,0.033231,-0.050894,0.039727,-0.096042,-0.036927,0.025111
1590,0.033556,0.039078,-0.0031473,0.13132,-0.10644,-0.027183,0.031932
1591,0.037778,0.053044,0.073832,0.19758,-0.10903,-0.0060706,0.042326
1592,0.036154,0.070259,0.1651,0.23104,-0.10156,0.020888,0.053369
1593,0.030308,0.084226,0.2502,0.23071,-0.086623,0.044924,0.062464
1594,0.023162,0.092996,0.30932,0.2057,-0.068434,0.054344,0.061165
1595,0.015692,0.095594,0.33335,0.16088,-0.054792,0.048497,0.045574
1596,0.0043233,0.089748,0.32946,0.10566,-0.045047,0.033881,0.016666
1597,-0.011917,0.070584,0.30997,0.042975,-0.037252,0.017965,-0.015165
1598,-0.024585,0.04395,0.28463,-0.020037,-0.031406,0.0059473,-0.039201
1599,-0.029457,0.017965,0.2567,-0.076879,-0.028157,0.0020496,-0.04862
1600,-0.026533,0.0046481,0.23201,-0.1204,-0.027183,0.0059473,-0.042449
1601,-0.017764,0.0078962,0.21025,-0.14314,-0.027508,0.010819,-0.028807
1602,-0.0031473,0.019589,0.18622,-0.14379,-0.027183,0.012443,-0.013866
1603,0.012119,0.030633,0.15568,-0.12073,-0.022961,0.009845,0.00010078
1604,0.021863,0.033231,0.11443,-0.072331,-0.007045,0.0046481,0.011794
1605,0.023487,0.029009,0.060515,-0.0018481,0.018615,0.0023744,0.021213
1606,0.019264,0.022512,-0.0011985,0.079679,0.049472,0.0059473,0.026735
1607,0.0075714,0.016016,-0.059664,0.15211,0.074157,0.015692,0.025111
1608,-0.0093186,0.0065969,-0.10579,0.19434,0.089423,0.02706,0.013093
1609,-0.027183,-0.0044465,-0.1334,0.19531,0.095269,0.033881,-0.0089938
1610,-0.037252,-0.01549,-0.14769,0.1638,0.095269,0.028034,-0.033354
1611,-0.035628,-0.021012,-0.15613,0.11768,0.089423,0.012119,-0.050894
1612,-0.022636,-0.020037,-0.16328,0.073182,0.073832,-0.0060706,-0.054792
1613,0.0017248,-0.013541,-0.16198,0.042651,0.049472,-0.021012,-0.044073
1614,0.031932,-0.0037969,-0.14736,0.031282,0.020239,-0.029457,-0.024585
1615,0.050446,0.0033489,-0.11813,0.032582,-0.0067202,-0.029132,-0.007045
1616,0.050771,0.0075714,-0.0837,0.042001,-0.029782,-0.021337,0.003024
1617,0.037129,0.0085458,-0.052193,0.046873,-0.054467,-0.0093186,0.0036737
1618,0.021213,0.011144,-0.027508,0.04395,-0.078827,0.0014,-0.00054884
1619,0.009845,0.013743,0.0014,0.036154,-0.094743,0.0052977,-0.0063954
1620,0.0085458,0.01764,0.046548,0.031282,-0.089546,0.0052977,-0.013866
1621,0.013743,0.024137,0.12028,0.033881,-0.060638,0.0078962,-0.018738
1622,0.026085,0.040052,0.2161,0.045899,-0.020362,0.013743,-0.021337
1623,0.041027,0.067661,0.31451,0.063438,0.01764,0.021538,-0.018738
1624,0.058241,0.098193,0.38922,0.079679,0.041676,0.028359,-0.010943
1625,0.072533,0.12125,0.41585,0.082602,0.046548,0.031932,-0.0011985
1626,0.082927,0.12937,0.38597,0.068635,0.037129,0.027709,0.0091954
1627,0.0852,0.12125,0.30964,0.043625,0.028034,0.016991,0.01894
1628,0.079354,0.10014,0.20376,0.021538,0.038753,0.0065969,0.02706
1629,0.065712,0.074806,0.083251,0.012768,0.079029,0.0039985,0.034855
1630,0.046548,0.052395,-0.03173,0.019589,0.14107,0.012768,0.040377
1631,0.029983,0.03583,-0.12495,0.038103,0.20018,0.028684,0.043625
1632,0.026085,0.027385,-0.18959,0.061165,0.23494,0.0433,0.044275
1633,0.036154,0.025436,-0.22986,0.083901,0.23883,0.049147,0.042651
1634,0.052395,0.028034,-0.24968,0.10339,0.2187,0.046223,0.042001
1635,0.066037,0.027709,-0.24708,0.12158,0.18362,0.038428,0.042001
1636,0.066362,0.020564,-0.22142,0.13457,0.14204,0.030633,0.042975
1637,0.051096,0.0069217,-0.17724,0.13555,0.098842,0.025436,0.037129
1638,0.023162,-0.014516,-0.12365,0.1206,0.057917,0.022837,0.022512
1639,-0.0076946,-0.037252,-0.069733,0.09397,0.021213,0.016991,0.00075039
1640,-0.028482,-0.054467,-0.023935,0.060515,-0.008669,0.0046481,-0.024909
1641,-0.034978,-0.058365,0.0065969,0.023487,-0.03303,-0.012567,-0.046347
1642,-0.027833,-0.049595,0.019914,-0.014191,-0.056416,-0.031406,-0.057715
1643,-0.013866,-0.035628,0.01764,-0.046996,-0.080127,-0.045372,-0.055766
1644,-0.0024977,-0.022311,0.0085458,-0.066485,-0.10481,-0.051868,-0.044723
1645,0.0020496,-0.015815,-0.0018481,-0.06681,-0.12657,-0.051219,-0.029132
1646,-0.00022403,-0.016464,-0.0089938,-0.049595,-0.14281,-0.048296,-0.015815
1647,-0.0083442,-0.018088,-0.010943,-0.024585,-0.15061,-0.041475,-0.0096434
1648,-0.013541,-0.020362,-0.010618,-0.0024977,-0.14899,-0.030756,-0.011267
1649,-0.012242,-0.021012,-0.008669,0.008221,-0.14281,-0.021337,-0.013541
1650,-0.0057458,-0.019063,-0.0073698,0.008221,-0.13469,-0.018413,-0.0096434
1651,0.003024,-0.012242,-0.0050961,0.0033489,-0.12657,-0.021661,0.0033489
1652,0.011794,0.00075039,-0.0028225,0.0043233,-0.11975,-0.030756,0.021863
1653,0.020564,0.01764,0.0017248,0.013743,-0.11098,-0.042449,0.041027
1654,0.029658,0.027385,0.01017,0.031932,-0.097666,-0.046996,0.058241
1655,0.034206,0.029333,0.021213,0.054668,-0.077203,-0.0405,0.074482
1656,0.030308,0.02706,0.027709,0.076755,-0.048945,-0.025884,0.080653
1657,0.019589,0.026085,0.023487,0.087149,-0.022961,-0.0073698,0.074482
1658,0.0075714,0.023487,0.0088706,0.074157,-0.0076946,0.0069217,0.057592
1659,-0.0034721,0.020564,-0.008669,0.034855,-0.0067202,0.015367,0.038428
1660,-0.014191,0.019589,-0.026533,-0.02426,-0.017114,0.014717,0.022512
1661,-0.023935,0.019264,-0.039851,-0.090521,-0.033679,0.0056225,0.0095202
1662,-0.032055,0.01894,-0.051219,-0.14704,-0.053492,-0.0063954,0.00075039
1663,-0.0405,0.016341,-0.061937,-0.17432,-0.069733,-0.01484,-0.0054209
1664,-0.046347,0.0085458,-0.068109,-0.15905,-0.073631,-0.018738,-0.0076946
1665,-0.043748,-0.00022403,-0.06681,-0.098641,-0.059989,-0.011592,-0.0028225
1666,-0.032055,-0.0018481,-0.055116,-0.012892,-0.024585,0.0069217,0.012119
1667,-0.017764,0.0069217,-0.035303,0.068635,0.023487,0.028684,0.033231
1668,-0.0073698,0.023812,-0.013216,0.11801,0.06961,0.044275,0.050121
1669,-0.0060706,0.042001,0.0033489,0.12937,0.10306,0.047523,0.056617
1670,-0.011267,0.05207,0.009845,0.11021,0.11931,0.039402,0.051745
1671,-0.018738,0.048497,0.0065969,0.080653,0.11638,0.029658,0.037129
1672,-0.021986,0.034206,-0.0063954,0.059541,0.099167,0.020888,0.020564
1673,-0.021661,0.016016,-0.022636,0.05272,0.073182,0.013418,0.0043233
1674,-0.018738,0.0026992,-0.038227,0.053694,0.046223,0.0056225,-0.0073698
1675,-0.01484,-0.00022403,-0.047646,0.056292,0.026085,-0.0018481,-0.013541
1676,-0.011592,0.0039985,-0.051868,0.058566,0.014068,0.00010078,-0.01484
1677,-0.0093186,0.010495,-0.056091,0.059541,0.01017,0.012443,-0.0060706
1678,-0.0083442,0.012768,-0.061937,0.059541,0.012768,0.031282,0.011794
1679,-0.0076946,0.01017,-0.063561,0.056942,0.020888,0.044924,0.030308
1680,-0.007045,0.0039985,-0.061288,0.046873,0.033881,0.046223,0.039078
1681,-0.0050961,0.0020496,-0.059989,0.028034,0.045574,0.040702,0.03583
1682,-0.0024977,0.0026992,-0.06551,0.0020496,0.047847,0.036479,0.026085
1683,0.00010078,0.008221,-0.077528,-0.024909,0.04395,0.033556,0.016341
1684,0.0014,0.015042,-0.096692,-0.046671,0.034206,0.028034,0.012443
1685,0.0059473,0.018615,-0.11748,-0.056741,0.022188,0.017965,0.015367
1686,0.012768,0.01894,-0.14184,-0.054142,0.0078962,0.0085458,0.019589
1687,0.021863,0.016666,-0.17562,-0.043099,-0.0057458,-0.0031473,0.021213
1688,0.026085,0.011794,-0.21687,-0.028482,-0.016789,-0.013216,0.019589
1689,0.022837,0.0085458,-0.2578,-0.019712,-0.021337,-0.021986,0.016016
1690,0.019264,0.0078962,-0.29125,-0.021012,-0.013216,-0.028807,0.009845
1691,0.023812,0.012443,-0.31301,-0.031406,0.0065969,-0.030431,0.0085458
1692,0.031932,0.020564,-0.32016,-0.045697,0.029333,-0.023285,0.013093
1693,0.041027,0.030633,-0.31659,-0.056741,0.044599,-0.0096434,0.023812
1694,0.048172,0.036154,-0.30912,-0.059339,0.053369,0.003024,0.037454
1695,0.049796,0.033881,-0.30229,-0.051868,0.056617,0.013093,0.047847
1696,0.044924,0.02641,-0.29677,-0.037902,0.054993,0.019264,0.055643
1697,0.034855,0.020888,-0.2893,-0.023285,0.045899,0.023162,0.059865
1698,0.023812,0.020564,-0.26364,-0.010943,0.030308,0.028034,0.062789
1699,0.01764,0.027385,-0.19576,0.00010078,0.010819,0.03453,0.063763
1700,0.017965,0.039727,-0.05804,0.013093,-0.0054209,0.04395,0.061489
1701,0.023487,0.054668,0.14984,0.033231,-0.015165,0.053369,0.056292
1702,0.029009,0.071234,0.39734,0.062139,-0.013541,0.054344,0.046223
1703,0.031932,0.085525,0.63575,0.097218,-0.0028225,0.044599,0.03518
1704,0.033231,0.092996,0.81407,0.13035,0.0091954,0.027709,0.028684
1705,0.034855,0.089423,0.90274,0.15503,0.013743,0.0069217,0.025761
1706,0.042001,0.07708,0.90339,0.16998,0.0059473,-0.0099683,0.027709
1707,0.051745,0.057917,0.8446,0.17322,-0.014191,-0.018738,0.031282
1708,0.055318,0.040702,0.76242,0.16315,-0.04115,-0.013216,0.037454
1709,0.048497,0.028359,0.67992,0.14009,-0.069733,0.0014,0.042001
1710,0.033556,0.021538,0.60164,0.10729,-0.097017,0.013093,0.037778
1711,0.019589,0.017316,0.52174,0.070584,-0.12073,0.015042,0.028034
1712,0.014068,0.016666,0.43339,0.036154,-0.13534,0.0069217,0.016991
1713,0.016341,0.015692,0.33173,0.0095202,-0.13957,-0.0044465,0.010495
1714,0.019914,0.013418,0.21967,-0.0099683,-0.13859,-0.015165,0.0069217
1715,0.016666,0.0091954,0.10469,-0.026858,-0.13632,-0.023935,0.0039985
1716,0.0078962,-0.00054884,0.0020496,-0.041799,-0.13047,-0.028807,-0.00087364
1717,-0.0021729,-0.01549,-0.075255,-0.05739,-0.11813,-0.028482,-0.0093186
