,channel_1,channel_2,channel_3,channel_4,channel_5,channel_6,channel_7
0,0.0036737,-0.065186,-0.052193,0.17939,-0.17205,-0.047971,0.01017
1,0.013093,-0.06551,-0.080127,0.03518,-0.19024,-0.070707,-0.012242
2,0.024137,-0.059989,-0.11813,-0.15223,-0.21102,-0.11326,-0.029457
3,0.042001,-0.045047,-0.15418,-0.32016,-0.23246,-0.17692,-0.035303
4,0.06896,-0.020687,-0.17302,-0.41793,-0.25357,-0.26104,-0.028807
5,0.10144,0.010495,-0.1649,-0.42962,-0.26916,-0.35686,-0.012567
6,0.13067,0.04395,-0.13307,-0.36985,-0.27696,-0.44716,0.0069217
7,0.15146,0.076755,-0.083375,-0.27241,-0.26981,-0.50952,0.019914
8,0.15633,0.10566,-0.032705,-0.17335,-0.24448,-0.52739,0.017965
9,0.14107,0.12158,0.0065969,-0.097666,-0.20518,-0.48938,-0.0037969
10,0.10469,0.11736,0.025436,-0.054467,-0.1688,-0.39487,-0.04115
11,0.061814,0.092346,0.023812,-0.040175,-0.15288,-0.25975,-0.0824
12,0.025111,0.056942,0.0072465,-0.038551,-0.15451,-0.10546,-0.10676
13,0.00075039,0.024137,-0.01484,-0.040175,-0.15321,0.044924,-0.10189
14,-0.0099683,-0.00022403,-0.035953,-0.040825,-0.13015,0.1716,-0.065835
15,-0.011917,-0.018088,-0.054467,-0.038876,-0.084024,0.25313,-0.014191
16,-0.014191,-0.03303,-0.069733,-0.036602,-0.031406,0.26449,0.029333
17,-0.021661,-0.050894,-0.079152,-0.03303,0.0062721,0.19271,0.049796
18,-0.033354,-0.070382,-0.081426,-0.029132,0.009845,0.053044,0.041027
19,-0.046347,-0.089221,-0.076554,-0.02361,-0.023285,-0.11521,0.013093
20,-0.060313,-0.10611,-0.068434,-0.015815,-0.077853,-0.26754,-0.021012
21,-0.075904,-0.11748,-0.060963,-0.0063954,-0.12852,-0.37862,-0.053492
22,-0.092145,-0.123,-0.054467,0.0020496,-0.15938,-0.44424,-0.0824
23,-0.10676,-0.11748,-0.044723,0.010819,-0.16328,-0.47055,-0.10351
24,-0.11131,-0.098965,-0.028482,0.021538,-0.13794,-0.46275,-0.11001
25,-0.09994,-0.068434,-0.0024977,0.037778,-0.085973,-0.43222,-0.10059
26,-0.079802,-0.030756,0.030633,0.056942,-0.020687,-0.38804,-0.082076
27,-0.061288,0.0043233,0.064737,0.075131,0.046223,-0.33153,-0.062262
28,-0.04927,0.030957,0.088773,0.089748,0.10794,-0.25942,-0.044073
29,-0.042774,0.045249,0.098517,0.095919,0.16348,-0.174,-0.028157
30,-0.036278,0.052395,0.099492,0.093645,0.20505,-0.0837,-0.011267
31,-0.028807,0.051745,0.095919,0.089098,0.23104,-0.0050961,0.0039985
32,-0.026209,0.04395,0.089098,0.084226,0.23104,0.049147,0.011469
33,-0.026858,0.029333,0.078055,0.080653,0.20798,0.079029,0.010495
34,-0.028482,0.014717,0.066037,0.080328,0.1742,0.098517,0.0043233
35,-0.029782,0.0072465,0.057267,0.079679,0.15276,0.12288,-0.0089938
36,-0.030756,0.008221,0.05207,0.076431,0.15536,0.15731,-0.031081
37,-0.034654,0.012119,0.05207,0.070259,0.18524,0.20148,-0.05804
38,-0.040175,0.016341,0.055968,0.059216,0.23818,0.25507,-0.080776
39,-0.046671,0.016016,0.06084,0.042975,0.30574,0.31874,-0.091495
40,-0.055766,0.010495,0.063763,0.023487,0.36973,0.39117,-0.091495
41,-0.063237,0.0023744,0.060515,0.0010752,0.40481,0.46912,-0.080127
42,-0.065186,-0.0011985,0.049472,-0.022636,0.39247,0.5422,-0.064211
43,-0.060638,0.00042559,0.029658,-0.047646,0.33205,0.59255,-0.04927
44,-0.052518,0.0023744,0.0039985,-0.069733,0.24338,0.60489,-0.042449
45,-0.046022,-0.0021729,-0.02426,-0.084674,0.15471,0.58021,-0.041799
46,-0.042774,-0.008669,-0.047321,-0.092145,0.090397,0.53116,-0.04115
47,-0.039851,-0.012567,-0.063237,-0.086623,0.061165,0.48147,-0.031406
48,-0.028157,-0.0063954,-0.071032,-0.068758,0.065387,0.44704,-0.0099683
49,-0.0028225,0.0059473,-0.077853,-0.042449,0.090072,0.4295,0.01829
50,0.030957,0.020239,-0.0837,-0.013541,0.11411,0.41748,0.044599
51,0.061489,0.030633,-0.089871,0.010819,0.12288,0.39539,0.06019
52,0.077405,0.037129,-0.096042,0.029658,0.11021,0.34927,0.063438
53,0.072208,0.040377,-0.096367,0.048822,0.076431,0.27846,0.062139
54,0.05207,0.038428,-0.084674,0.069285,0.02706,0.19628,0.063763
55,0.027385,0.034206,-0.061613,0.090397,-0.026209,0.11573,0.07708
56,0.011469,0.029009,-0.035953,0.10989,-0.07493,0.050121,0.10242
57,0.015692,0.026735,-0.017114,0.12807,-0.10806,0.0075714,0.13749
58,0.041027,0.028034,-0.0076946,0.14204,-0.12268,-0.011267,0.17582
59,0.077405,0.035505,-0.0037969,0.15373,-0.1178,-0.01484,0.2122
60,0.11216,0.046873,-0.00054884,0.1651,-0.10059,-0.013866,0.23689
61,0.13035,0.056617,0.0049729,0.17322,-0.081751,-0.013866,0.24501
62,0.12483,0.064413,0.015042,0.17712,-0.075579,-0.012892,0.23786
63,0.095919,0.068635,0.029009,0.1768,-0.084999,-0.010943,0.21772
64,0.048497,0.070584,0.048172,0.17225,-0.10968,-0.01549,0.18589
65,-0.007045,0.072533,0.074482,0.1703,-0.14281,-0.03173,0.14561
66,-0.054792,0.074482,0.10501,0.17322,-0.17367,-0.051868,0.10144
67,-0.081101,0.071234,0.13425,0.17874,-0.18731,-0.055441,0.063763
68,-0.077203,0.059216,0.15081,0.18394,-0.17107,-0.027508,0.047523
69,-0.044723,0.038103,0.14269,0.18492,-0.12592,0.02641,0.059216
70,0.0069217,0.011794,0.10794,0.18427,-0.067134,0.087474,0.0865
71,0.058891,-0.01549,0.057592,0.18037,-0.020362,0.1258,0.10631
72,0.091047,-0.037577,0.0052977,0.17225,-0.0047713,0.11833,0.098842
73,0.094295,-0.049595,-0.03238,0.15796,-0.022961,0.061489,0.060515
74,0.071883,-0.055441,-0.053168,0.13782,-0.068434,-0.02361,-0.0037969
75,0.033881,-0.062912,-0.059339,0.11573,-0.12203,-0.10741,-0.072006
76,-0.0083442,-0.077528,-0.055116,0.099817,-0.16458,-0.1623,-0.12008
77,-0.046996,-0.09929,-0.045372,0.094295,-0.18504,-0.17627,-0.13242
78,-0.076879,-0.12203,-0.030756,0.097218,-0.18277,-0.15711,-0.11001
79,-0.092469,-0.13534,-0.015165,0.10566,-0.16425,-0.12755,-0.071032
80,-0.092469,-0.1334,-0.0031473,0.11021,-0.14054,-0.10741,-0.027508
81,-0.078178,-0.11488,0.01017,0.10664,-0.1204,-0.10156,0.010495
82,-0.053817,-0.09117,0.032257,0.089748,-0.10936,-0.10254,0.036154
83,-0.028482,-0.067784,0.062139,0.065712,-0.10124,-0.10709,0.050771
84,-0.0063954,-0.04927,0.093321,0.041027,-0.087272,-0.11521,0.062139
85,0.0085458,-0.03303,0.11866,0.01764,-0.05739,-0.1243,0.074157
86,0.020239,-0.01549,0.14009,-0.0041217,-0.007045,-0.1321,0.085525
87,0.033231,0.0062721,0.15568,-0.02426,0.066362,-0.13794,0.092346
88,0.045249,0.032257,0.1664,-0.043099,0.15698,-0.14314,0.093321
89,0.054668,0.057592,0.16868,-0.062587,0.24728,-0.15288,0.083901
90,0.063438,0.079029,0.1625,-0.082725,0.31809,-0.17107,0.062139
91,0.06896,0.09397,0.15211,-0.10124,0.36291,-0.19673,0.03518
92,0.067986,0.10274,0.14399,-0.11521,0.37915,-0.22856,0.0085458
93,0.060515,0.10274,0.14367,-0.12333,0.36941,-0.26592,-0.014191
94,0.046548,0.094945,0.14854,-0.12495,0.33205,-0.31009,-0.028482
95,0.031932,0.083576,0.15016,-0.12138,0.27326,-0.35719,-0.034654
96,0.021863,0.073832,0.14107,-0.11651,0.20311,-0.39259,-0.030756
97,0.020239,0.072208,0.11898,-0.11488,0.13749,-0.40071,-0.020362
98,0.021863,0.079679,0.08585,-0.1178,0.092671,-0.37668,-0.0073698
99,0.027385,0.092346,0.044275,-0.12657,0.079354,-0.32178,0.0075714
100,0.036804,0.11054,0.00075039,-0.13697,0.092996,-0.24286,0.024786
101,0.045249,0.1297,-0.038551,-0.14996,0.11118,-0.15191,0.046223
102,0.048822,0.14626,-0.071032,-0.16165,0.11346,-0.060313,0.070584
103,0.046873,0.15698,-0.094418,-0.1688,0.090722,0.01829,0.090722
104,0.042651,0.15796,-0.10774,-0.17237,0.046548,0.072858,0.099167
105,0.037778,0.14756,-0.11423,-0.17432,-0.010293,0.099492,0.094945
106,0.032257,0.12807,-0.1217,-0.17659,-0.063561,0.10534,0.084226
107,0.027709,0.10404,-0.13047,-0.17789,-0.09994,0.10371,0.071558
108,0.028034,0.085525,-0.13567,-0.1753,-0.11261,0.10242,0.061489
109,0.029658,0.076755,-0.13372,-0.1636,-0.10968,0.098193,0.046223
110,0.029658,0.078704,-0.12333,-0.14379,-0.10449,0.079679,0.019589
111,0.024786,0.086175,-0.10676,-0.12592,-0.11228,0.033556,-0.022636
112,0.014717,0.093321,-0.09117,-0.11845,-0.13762,-0.041799,-0.071682
113,0.0010752,0.095594,-0.078827,-0.12105,-0.17172,-0.12755,-0.11715
114,-0.01614,0.089748,-0.063561,-0.12398,-0.19738,-0.19089,-0.14509
115,-0.034978,0.076755,-0.040825,-0.11196,-0.2055,-0.212,-0.15321
116,-0.050244,0.061165,-0.014516,-0.080776,-0.19251,-0.18114,-0.14509
117,-0.05739,0.048822,0.0049729,-0.038227,-0.16425,-0.098641,-0.12495
118,-0.055766,0.042326,0.0036737,0.003024,-0.13632,0.0062721,-0.096367
119,-0.046671,0.041676,-0.019388,0.031607,-0.12235,0.088448,-0.065835
120,-0.034329,0.046548,-0.050569,0.04395,-0.12333,0.10924,-0.04115
121,-0.02361,0.051745,-0.081426,0.04395,-0.13957,0.059865,-0.028807
122,-0.019388,0.054993,-0.10546,0.034855,-0.16458,-0.04115,-0.031081
123,-0.020037,0.056942,-0.11943,0.025761,-0.19186,-0.1623,-0.043099
124,-0.019712,0.057917,-0.11878,0.022512,-0.2133,-0.26624,-0.052193
125,-0.008669,0.056942,-0.097991,0.033231,-0.22434,-0.32503,-0.047646
126,0.011144,0.054019,-0.062912,0.057917,-0.22044,-0.32536,-0.024909
127,0.032906,0.049796,-0.020037,0.095594,-0.20128,-0.27306,0.011144
128,0.054019,0.046548,0.023487,0.14464,-0.1662,-0.18569,0.044599
129,0.073182,0.044599,0.055968,0.19758,-0.12105,-0.082076,0.065062
130,0.090072,0.0433,0.072533,0.2463,-0.072331,0.025111,0.067011
131,0.10112,0.041027,0.080003,0.27814,-0.020362,0.12743,0.059541
132,0.10404,0.038428,0.088124,0.28431,0.03518,0.22,0.050446
133,0.099492,0.033881,0.098842,0.26774,0.092021,0.30152,0.042001
134,0.089423,0.029658,0.11671,0.24176,0.13977,0.36616,0.033231
135,0.076431,0.026085,0.14594,0.2174,0.17485,0.40806,0.023487
136,0.060515,0.023812,0.18751,0.20278,0.19888,0.43827,0.01764
137,0.042001,0.021863,0.23656,0.19791,0.21707,0.47335,0.017316
138,0.020564,0.019914,0.27716,0.20018,0.23591,0.51622,0.016991
139,-0.00087364,0.019589,0.296,0.20668,0.25702,0.56072,0.013743
140,-0.021986,0.023487,0.28691,0.20798,0.27879,0.5932,0.0039985
141,-0.042124,0.024786,0.25507,0.20083,0.29405,0.61139,-0.010618
142,-0.061937,0.015042,0.21155,0.17874,0.29568,0.62406,-0.025559
143,-0.081101,-0.0089938,0.16445,0.14691,0.28171,0.65231,-0.03303
144,-0.091495,-0.042449,0.11801,0.11248,0.25475,0.70136,-0.030431
145,-0.090196,-0.072981,0.077405,0.081952,0.21837,0.76048,-0.020037
146,-0.073955,-0.093444,0.041676,0.062139,0.17939,0.8014,-0.0034721
147,-0.04862,-0.10091,0.012119,0.049796,0.14204,0.79393,0.016991
148,-0.022311,-0.097341,-0.011267,0.042001,0.10826,0.7241,0.037129
149,-0.00087364,-0.088572,-0.027508,0.032257,0.07773,0.59905,0.05207
150,0.014068,-0.079802,-0.039526,0.015042,0.050121,0.43859,0.060515
151,0.025111,-0.072331,-0.050244,-0.0096434,0.030633,0.27002,0.065712
152,0.038428,-0.065186,-0.058689,-0.035628,0.022512,0.11541,0.073182
153,0.053044,-0.056741,-0.060638,-0.058689,0.02706,-0.010293,0.074806
154,0.063438,-0.047646,-0.059664,-0.076229,0.037454,-0.094743,0.065062
155,0.062139,-0.042449,-0.057715,-0.09182,0.045574,-0.14054,0.041027
156,0.047847,-0.038551,-0.051544,-0.10384,0.04395,-0.161,0.0065969
157,0.026735,-0.034978,-0.038551,-0.11228,0.025111,-0.1701,-0.022311
158,0.010495,-0.030106,-0.017439,-0.1178,-0.0080194,-0.18114,-0.036602
159,0.0026992,-0.022311,0.0056225,-0.12268,-0.04927,-0.2029,-0.034329
160,-0.0018481,-0.01484,0.020239,-0.12722,-0.09117,-0.23831,-0.022961
161,-0.0063954,-0.012892,0.019914,-0.13404,-0.12138,-0.28216,-0.0099683
162,-0.013541,-0.020687,0.0072465,-0.14216,-0.13632,-0.32536,-0.0011985
163,-0.016789,-0.033354,-0.010943,-0.15061,-0.14152,-0.36466,0.0010752
164,-0.01549,-0.041799,-0.028482,-0.15841,-0.14411,-0.40363,-0.0044465
165,-0.008669,-0.039201,-0.046347,-0.16523,-0.15191,-0.45008,-0.021661
166,-0.0028225,-0.028482,-0.062262,-0.17075,-0.16425,-0.5053,-0.050894
167,0.0014,-0.014516,-0.077528,-0.17465,-0.17594,-0.55727,-0.084349
168,0.0033489,-0.00087364,-0.094418,-0.174,-0.18277,-0.5865,-0.11131
169,-0.0021729,0.0085458,-0.11261,-0.16425,-0.18244,-0.58878,-0.12203
170,-0.01549,0.011144,-0.12722,-0.14639,-0.17627,-0.56636,-0.11488
171,-0.03303,0.0069217,-0.13177,-0.12268,-0.16685,-0.52544,-0.088247
172,-0.042774,-0.00022403,-0.12592,-0.097341,-0.15678,-0.47444,-0.046996
173,-0.0405,-0.0047713,-0.11228,-0.071032,-0.14606,-0.42215,-0.0024977
174,-0.030756,-0.0015233,-0.098965,-0.047971,-0.13145,-0.37473,0.035505
175,-0.021337,0.0065969,-0.096367,-0.028157,-0.11715,-0.33867,0.054019
176,-0.016789,0.015692,-0.10806,-0.015815,-0.10319,-0.31659,0.048822
177,-0.013866,0.021863,-0.1269,-0.0099683,-0.094418,-0.30782,0.021538
178,-0.014516,0.023162,-0.14736,-0.0080194,-0.092469,-0.31171,-0.019712
179,-0.01614,0.015692,-0.1636,-0.0080194,-0.092469,-0.32666,-0.062912
180,-0.014516,0.0010752,-0.17465,-0.007045,-0.087597,-0.34582,-0.092145
181,-0.00022403,-0.012567,-0.17335,-0.007045,-0.078178,-0.35524,-0.097991
182,0.026735,-0.019712,-0.15873,-0.0089938,-0.067459,-0.33997,-0.081101
183,0.059865,-0.019063,-0.13892,-0.010293,-0.061613,-0.29125,-0.052193
184,0.090722,-0.014191,-0.13112,-0.0054209,-0.061613,-0.21752,-0.021661
185,0.11346,-0.0060706,-0.13599,0.0046481,-0.064536,-0.13664,0.0026992
186,0.12645,0.0056225,-0.14411,0.016016,-0.063237,-0.06616,0.018615
187,0.13425,0.021538,-0.14184,0.028684,-0.055116,-0.014516,0.025761
188,0.14269,0.038753,-0.12235,0.047198,-0.038551,0.023487,0.033881
189,0.15081,0.053044,-0.084999,0.073832,-0.013866,0.054019,0.047198
190,0.15633,0.057267,-0.038227,0.10696,0.015367,0.081303,0.061814
191,0.15536,0.050446,0.0078962,0.13879,0.042651,0.10047,0.069285
192,0.14269,0.03518,0.0433,0.16283,0.06019,0.10696,0.063113
193,0.11313,0.0091954,0.061165,0.16998,0.062789,0.094945,0.037129
194,0.06961,-0.028482,0.06019,0.15503,0.053044,0.070584,-0.0099683
195,0.020239,-0.073306,0.039402,0.11703,0.039078,0.042975,-0.067784
196,-0.021012,-0.11196,0.011469,0.068635,0.031932,0.029983,-0.11586
197,-0.04862,-0.1308,-0.011592,0.022188,0.036479,0.048497,-0.13762
198,-0.065835,-0.1256,-0.021337,-0.013541,0.049472,0.098193,-0.12657
199,-0.078503,-0.10351,-0.017439,-0.032705,0.061814,0.15991,-0.088572
200,-0.086948,-0.079477,-0.0067202,-0.037902,0.068635,0.21155,-0.043099
201,-0.089221,-0.067459,0.00010078,-0.035628,0.067011,0.23299,-0.0054209
202,-0.087272,-0.071357,-0.0018481,-0.035303,0.057592,0.22194,0.018615
203,-0.080127,-0.080776,-0.012892,-0.038551,0.046548,0.19076,0.030308
204,-0.06616,-0.086298,-0.028482,-0.0405,0.038753,0.15471,0.038753
205,-0.04862,-0.082076,-0.042124,-0.040175,0.037129,0.1245,0.050771
206,-0.032055,-0.066485,-0.045697,-0.037252,0.0433,0.10469,0.064737
207,-0.021012,-0.042774,-0.038227,-0.034329,0.054344,0.086175,0.081952
208,-0.022311,-0.013866,-0.021986,-0.027833,0.060515,0.063113,0.096893
209,-0.030106,0.017316,-0.00087364,-0.019063,0.053369,0.035505,0.10729
210,-0.035303,0.047847,0.022837,-0.0083442,0.030308,0.012119,0.10826
211,-0.031406,0.07708,0.043625,0.0069217,-0.0028225,0.0043233,0.10274
212,-0.020687,0.10242,0.057592,0.025436,-0.039526,0.021863,0.098193
213,-0.0096434,0.11768,0.063438,0.043625,-0.077853,0.059216,0.095594
214,-0.0047713,0.12158,0.062464,0.061814,-0.11975,0.10306,0.09397
215,-0.0057458,0.11508,0.061489,0.076431,-0.16295,0.13782,0.092346
216,-0.007045,0.10631,0.06896,0.087474,-0.19121,0.15244,0.084551
217,-0.007045,0.10696,0.087799,0.09397,-0.17692,0.14691,0.06896
218,-0.0028225,0.11898,0.11703,0.098517,-0.10936,0.1232,0.047198
219,0.0046481,0.13977,0.15081,0.099817,-0.0031473,0.087149,0.01894
220,0.009845,0.16056,0.18329,0.10371,0.10501,0.048497,-0.011267
221,0.013093,0.17257,0.20635,0.11086,0.18232,0.012443,-0.042449
222,0.010495,0.16738,0.21252,0.11963,0.21252,-0.026533,-0.079152
223,0.0010752,0.14399,0.20343,0.12483,0.20343,-0.078827,-0.11975
224,-0.015815,0.10469,0.18199,0.12028,0.17517,-0.14801,-0.16068
225,-0.036602,0.056292,0.15211,0.10339,0.15633,-0.21752,-0.19478
226,-0.053817,0.012443,0.11866,0.079354,0.15958,-0.26429,-0.20972
227,-0.058689,-0.020362,0.087474,0.055968,0.18167,-0.27664,-0.19381
228,-0.04992,-0.035953,0.063438,0.036154,0.21317,-0.25877,-0.14639
229,-0.030106,-0.035953,0.050121,0.020239,0.24208,-0.21232,-0.078503
230,-0.0044465,-0.02426,0.045899,0.01017,0.25637,-0.14606,-0.0076946
231,0.023487,-0.0093186,0.04395,0.0056225,0.2515,-0.070707,0.053369
232,0.049147,0.0026992,0.034855,0.0033489,0.22584,0.0033489,0.096244
233,0.068635,0.0056225,0.021213,0.0056225,0.18492,0.067336,0.12125
234,0.082277,0.003024,0.01017,0.009845,0.14009,0.11671,0.13522
235,0.091372,0.003024,0.0091954,0.015042,0.098517,0.15016,0.14302
236,0.092996,0.0059473,0.019914,0.020239,0.062789,0.17582,0.15179
237,0.084876,0.011469,0.041676,0.022837,0.036479,0.19888,0.16445
238,0.071558,0.019589,0.069934,0.022188,0.019589,0.22422,0.17712
239,0.059541,0.032257,0.10209,0.017965,0.0072465,0.2554,0.18492
240,0.055643,0.048822,0.131,0.015042,-0.0060706,0.30022,0.18881
241,0.056292,0.065062,0.14691,0.016666,-0.025559,0.35641,0.18979
242,0.055968,0.072858,0.14237,0.023487,-0.051219,0.41618,0.18719
243,0.053044,0.064737,0.11866,0.031282,-0.074605,0.46458,0.18037
244,0.04395,0.039078,0.084226,0.035505,-0.084349,0.49576,0.16998
245,0.025436,0.0020496,0.046223,0.032257,-0.078178,0.51232,0.15471
246,0.0017248,-0.03303,0.0088706,0.022837,-0.058689,0.51817,0.13717
247,-0.015815,-0.055116,-0.02361,0.0095202,-0.029457,0.51882,0.11898
248,-0.018413,-0.060963,-0.050894,-0.0044465,0.003024,0.51135,0.099167
249,-0.0083442,-0.054792,-0.075579,-0.015815,0.027385,0.48829,0.080978
250,0.0075714,-0.043423,-0.10156,-0.021661,0.033231,0.43567,0.06831
251,0.023162,-0.033354,-0.1282,-0.021986,0.023162,0.35674,0.066686
252,0.033231,-0.029457,-0.15646,-0.018413,0.0052977,0.26904,0.074806
253,0.035505,-0.034978,-0.18601,-0.015165,-0.0037969,0.19271,0.084876
254,0.029009,-0.051219,-0.21492,-0.010618,0.0069217,0.13392,0.090397
255,0.018615,-0.072656,-0.23993,-0.0060706,0.029009,0.090397,0.090397
256,0.0085458,-0.088896,-0.25617,-0.0011985,0.042651,0.054993,0.081627
257,0.00075039,-0.097017,-0.26332,0.003024,0.029983,0.01764,0.065387
258,-0.0031473,-0.098641,-0.26494,0.0062721,-0.0096434,-0.030756,0.048172
259,-0.0060706,-0.097017,-0.26234,0.01017,-0.063561,-0.10806,0.042326
260,-0.0083442,-0.089546,-0.25455,0.01829,-0.11813,-0.21947,0.047847
261,-0.0093186,-0.073955,-0.24513,0.033231,-0.16393,-0.35004,0.059865
262,-0.0096434,-0.055441,-0.23636,0.049147,-0.19576,-0.47412,0.063438
263,-0.0089938,-0.035628,-0.22564,0.06084,-0.21362,-0.56441,0.049472
264,-0.007045,-0.010943,-0.20096,0.06831,-0.21882,-0.60924,0.017965
265,-0.0054209,0.01829,-0.14476,0.078704,-0.21232,-0.61411,-0.021337
266,-0.0011985,0.049147,-0.032705,0.10144,-0.19316,-0.59495,-0.056416
267,0.0075714,0.080653,0.14821,0.14172,-0.16458,-0.56376,-0.076554
268,0.019264,0.11671,0.37655,0.19434,-0.13957,-0.53356,-0.077528
269,0.031932,0.15341,0.59287,0.24728,-0.13437,-0.51862,-0.067134
270,0.042326,0.18946,0.72637,0.28236,-0.15223,-0.52446,-0.056416
271,0.047198,0.22584,0.74099,0.28821,-0.18991,-0.53356,-0.051219
272,0.038103,0.25962,0.65426,0.26579,-0.23701,-0.51569,-0.045697
273,0.013093,0.28658,0.51557,0.22649,-0.28053,-0.45625,-0.032705
274,-0.02361,0.29925,0.37753,0.18394,-0.30717,-0.35686,-0.012892
275,-0.060963,0.28983,0.27424,0.15114,-0.30392,-0.24156,0.0049729
276,-0.088572,0.25702,0.21545,0.1323,-0.27144,-0.12398,0.017965
277,-0.097991,0.21058,0.18719,0.1297,-0.22142,-0.0096434,0.029009
278,-0.0837,0.16315,0.1677,0.13717,-0.16425,0.10404,0.041027
279,-0.04992,0.12223,0.14237,0.14529,-0.10774,0.21935,0.049472
280,-0.0083442,0.093321,0.10794,0.14919,-0.054792,0.33725,0.053044
281,0.031282,0.075781,0.064088,0.14464,-0.00022403,0.45353,0.050121
282,0.058891,0.064088,0.010819,0.12775,0.059216,0.56039,0.040377
283,0.074806,0.052395,-0.042124,0.10112,0.12028,0.65069,0.019264
284,0.080978,0.038103,-0.084024,0.066686,0.17517,0.71857,-0.01614
285,0.078704,0.01894,-0.11131,0.033556,0.21707,0.76177,-0.059664
286,0.066362,-0.0057458,-0.12463,0.0065969,0.23981,0.77964,-0.096692
287,0.043625,-0.035303,-0.12982,-0.014191,0.24111,0.77087,-0.11391
288,0.0091954,-0.06681,-0.13307,-0.033354,0.22227,0.72832,-0.11618
289,-0.03303,-0.098316,-0.13957,-0.057715,0.18589,0.63997,-0.11975
290,-0.075579,-0.12268,-0.15191,-0.084024,0.13749,0.5068,-0.14314
291,-0.10838,-0.14119,-0.16945,-0.10449,0.089748,0.3444,-0.19154
292,-0.13372,-0.15581,-0.19024,-0.12008,0.049796,0.17615,-0.25812
293,-0.15353,-0.16718,-0.20518,-0.1282,0.030633,0.032582,-0.32893
294,-0.16588,-0.17172,-0.20778,-0.13015,0.044275,-0.068434,-0.38252
295,-0.16847,-0.1662,-0.20323,-0.12333,0.099817,-0.12073,-0.40266
296,-0.16328,-0.14964,-0.18601,-0.10968,0.19271,-0.12917,-0.3822
297,-0.14834,-0.12235,-0.13827,-0.089546,0.31029,-0.10806,-0.3286
298,-0.1269,-0.09117,-0.046022,-0.061937,0.43177,-0.073306,-0.25877
299,-0.10286,-0.065186,0.082277,-0.026209,0.53343,-0.0405,-0.18796
300,-0.080127,-0.04927,0.21188,0.0078962,0.59742,-0.012242,-0.123
301,-0.056741,-0.043748,0.30055,0.033556,0.60847,0.018615,-0.067134
302,-0.029782,-0.038227,0.32361,0.038753,0.56657,0.055968,-0.017439
303,0.0036737,-0.024909,0.28593,0.021213,0.48374,0.094295,0.029658
304,0.041676,-0.0028225,0.21123,-0.013866,0.38565,0.12288,0.078379
305,0.075456,0.01829,0.12613,-0.056416,0.29503,0.13262,0.12158
306,0.091696,0.029983,0.048822,-0.094418,0.22357,0.11768,0.15341
307,0.089098,0.029983,-0.008669,-0.11878,0.17257,0.079354,0.16673
308,0.072858,0.01764,-0.042774,-0.12495,0.13555,0.026735,0.16283
309,0.05207,-0.0031473,-0.05739,-0.12008,0.10631,-0.029457,0.15341
310,0.03583,-0.025234,-0.061937,-0.11098,0.078379,-0.078827,0.15146
311,0.031607,-0.037902,-0.062912,-0.10319,0.04395,-0.11001,0.16185
312,0.03583,-0.035628,-0.061288,-0.099615,-0.0015233,-0.11683,0.17874
313,0.048172,-0.023285,-0.05804,-0.097341,-0.054142,-0.097666,0.19823
314,0.064088,-0.0080194,-0.055116,-0.092794,-0.11098,-0.051219,0.21577
315,0.081627,0.0017248,-0.053492,-0.084674,-0.16718,0.01894,0.23039
316,0.099817,0.0033489,-0.053168,-0.078178,-0.21297,0.096569,0.23948
317,0.11216,-0.0018481,-0.055441,-0.078503,-0.24415,0.15666,0.23948
318,0.11638,-0.0096434,-0.059989,-0.090196,-0.26494,0.17615,0.22779
319,0.11086,-0.015815,-0.063886,-0.11098,-0.27826,0.14399,0.20213
320,0.096244,-0.021012,-0.06616,-0.1334,-0.2932,0.062464,0.16478
321,0.078055,-0.025234,-0.06616,-0.15029,-0.30554,-0.052518,0.11736
322,0.066037,-0.026533,-0.06681,-0.15873,-0.31399,-0.17952,0.065387
323,0.065387,-0.022311,-0.069408,-0.16328,-0.31659,-0.30262,0.01829
324,0.073832,-0.012242,-0.07493,-0.16458,-0.31529,-0.40428,-0.014191
325,0.082277,0.0014,-0.080127,-0.16393,-0.30847,-0.47217,-0.023935
326,0.085525,0.016666,-0.0837,-0.16068,-0.2997,-0.50108,-0.0093186
327,0.084551,0.034206,-0.0837,-0.15256,-0.2945,-0.49945,0.018615
328,0.080653,0.051096,-0.081101,-0.13794,-0.29482,-0.47867,0.046873
329,0.075456,0.06084,-0.077528,-0.11813,-0.30002,-0.44326,0.063763
330,0.06961,0.063438,-0.073306,-0.095717,-0.30717,-0.39422,0.069934
331,0.06084,0.057917,-0.065186,-0.071032,-0.31659,-0.33348,0.069934
332,0.050771,0.049147,-0.04992,-0.048945,-0.32828,-0.27046,0.069934
333,0.037129,0.040052,-0.028157,-0.034978,-0.34062,-0.2172,0.06961
334,0.022188,0.031282,-0.008669,-0.028157,-0.35102,-0.18179,0.062464
335,0.010819,0.022837,0.0017248,-0.025234,-0.35232,-0.16912,0.048822
336,0.008221,0.015042,0.0023744,-0.017439,-0.33672,-0.18049,0.032257
337,0.015042,0.016341,-0.0011985,0.0033489,-0.30489,-0.22012,0.011469
338,0.026735,0.029333,-0.0011985,0.042651,-0.26657,-0.28768,-0.012242
339,0.041351,0.047198,-0.0015233,0.097543,-0.22954,-0.37668,-0.040175
340,0.055968,0.059541,-0.0093186,0.15276,-0.20031,-0.47087,-0.072981
341,0.065387,0.063113,-0.031406,0.19434,-0.18309,-0.54947,-0.10936
342,0.063763,0.061165,-0.06616,0.21252,-0.1714,-0.58813,-0.14216
343,0.049147,0.057917,-0.10416,0.20798,-0.15711,-0.57513,-0.1623
344,0.021863,0.059541,-0.13047,0.18622,-0.13469,-0.51245,-0.16068
345,-0.0083442,0.067011,-0.13404,0.15601,-0.097666,-0.42247,-0.13599
346,-0.03303,0.077405,-0.11131,0.12775,-0.043423,-0.32633,-0.093444
347,-0.044073,0.083901,-0.067784,0.10956,0.028034,-0.23603,-0.044073
348,-0.046671,0.091696,-0.014191,0.10599,0.11573,-0.15581,0.0014
349,-0.048296,0.10631,0.032582,0.12548,0.207,-0.092145,0.036154
350,-0.04927,0.12743,0.061489,0.16705,0.28561,-0.052193,0.054019
351,-0.04862,0.14204,0.065712,0.22552,0.3353,-0.035628,0.05207
352,-0.04927,0.13197,0.049472,0.29892,0.35057,-0.029782,0.03518
353,-0.054792,0.088448,0.022512,0.37071,0.33823,-0.024585,0.011794
354,-0.071682,0.020564,0.00075039,0.42203,0.31257,-0.0096434,-0.011267
355,-0.092794,-0.046996,-0.0044465,0.4269,0.28463,0.013743,-0.022636
356,-0.10644,-0.087922,0.0052977,0.35836,0.2541,0.033881,-0.020362
357,-0.10481,-0.092145,0.023812,0.20765,0.2174,0.036804,-0.01549
358,-0.09182,-0.067784,0.03583,0.0085458,0.1703,0.017965,-0.015165
359,-0.067784,-0.030431,0.032906,-0.17594,0.11021,-0.012242,-0.020362
360,-0.037577,0.0088706,0.01829,-0.29125,0.044924,-0.036927,-0.029457
361,-0.0089938,0.043625,0.0020496,-0.31301,-0.013216,-0.040175,-0.034978
362,0.013418,0.069285,-0.013216,-0.2565,-0.046347,-0.019388,-0.03238
363,0.027709,0.085525,-0.028482,-0.1623,-0.043423,0.01894,-0.020687
364,0.032582,0.089748,-0.047971,-0.07428,-0.0057458,0.062139,-0.0044465
365,0.027385,0.081303,-0.069083,-0.020037,0.050771,0.098842,0.012443
366,0.01829,0.061814,-0.085973,-0.0031473,0.10274,0.1284,0.026085
367,0.012768,0.040052,-0.092794,-0.012892,0.13262,0.15406,0.036804
368,0.019264,0.024786,-0.093769,-0.033679,0.13944,0.18492,0.051096
369,0.039402,0.018615,-0.097341,-0.04992,0.12743,0.22324,0.071234
370,0.06831,0.01829,-0.10546,-0.053817,0.10794,0.26352,0.094295
371,0.097543,0.021863,-0.11553,-0.046022,0.089423,0.29957,0.11151
372,0.12093,0.027385,-0.12105,-0.03303,0.076106,0.32491,0.11378
373,0.13522,0.031932,-0.1191,-0.02361,0.068635,0.33465,0.10371
374,0.13912,0.034206,-0.11098,-0.017764,0.065062,0.33303,0.088448
375,0.13392,0.037129,-0.096692,-0.012892,0.064088,0.32946,0.075781
376,0.12093,0.039402,-0.080776,-0.0099683,0.063113,0.33238,0.069934
377,0.097868,0.039727,-0.062262,-0.0073698,0.066037,0.33628,0.066037
378,0.071234,0.040702,-0.039526,-0.0011985,0.070909,0.33043,0.059216
379,0.047847,0.045574,-0.011917,0.0072465,0.070584,0.30412,0.046223
380,0.028684,0.051745,0.019914,0.018615,0.058566,0.24858,0.024786
381,0.011144,0.054993,0.050771,0.032906,0.038428,0.16705,-0.0041217
382,-0.0080194,0.047847,0.07708,0.049796,0.015692,0.082602,-0.035953
383,-0.028157,0.030633,0.098842,0.066686,-0.0047713,0.019914,-0.064211
384,-0.043099,0.011794,0.11541,0.081303,-0.019063,-0.010943,-0.081751
385,-0.048945,-0.0031473,0.12743,0.087799,-0.027508,-0.018088,-0.088247
386,-0.046671,-0.010618,0.13717,0.083251,-0.03238,-0.013541,-0.090521
387,-0.039851,-0.011592,0.14204,0.069285,-0.037577,-0.0080194,-0.093444
388,-0.035628,-0.012892,0.14399,0.047198,-0.043748,-0.0018481,-0.097666
389,-0.034978,-0.019388,0.15146,0.022837,-0.053817,0.008221,-0.10319
390,-0.034654,-0.031081,0.17939,0.0017248,-0.070707,0.030308,-0.10384
391,-0.03173,-0.044398,0.23006,-0.0063954,-0.094093,0.065712,-0.093444
392,-0.024909,-0.056091,0.28885,-0.0028225,-0.11586,0.10891,-0.072656
393,-0.010618,-0.06681,0.33205,0.0062721,-0.12917,0.14886,-0.046996
394,0.0091954,-0.072981,0.34407,0.013743,-0.13275,0.1755,-0.022311
395,0.032906,-0.073306,0.32556,0.016666,-0.1282,0.18622,0.00010078
396,0.057917,-0.06551,0.2934,0.011144,-0.11878,0.18394,0.020564
397,0.074482,-0.051219,0.2606,-0.0024977,-0.10709,0.17257,0.041351
398,0.078704,-0.037902,0.22974,-0.015815,-0.096692,0.15991,0.064088
399,0.071558,-0.033354,0.19531,-0.028157,-0.088247,0.14626,0.08585
400,0.056617,-0.036927,0.15341,-0.039201,-0.08305,0.13067,0.097218
401,0.041676,-0.043748,0.10469,-0.051219,-0.081101,0.10242,0.092996
402,0.028684,-0.046996,0.055643,-0.065835,-0.083375,0.065387,0.072533
403,0.015367,-0.042124,0.013093,-0.079152,-0.092145,0.027709,0.042975
404,-0.0018481,-0.03173,-0.018413,-0.088247,-0.10741,-0.0021729,0.014717
405,-0.018413,-0.015815,-0.038227,-0.090845,-0.12268,-0.013541,-0.0057458
406,-0.030106,0.00010078,-0.04115,-0.085324,-0.12885,0.00075039,-0.012892
407,-0.033354,0.014068,-0.029782,-0.071357,-0.12008,0.041676,-0.0057458
408,-0.030431,0.023812,-0.013866,-0.053817,-0.095717,0.095269,0.011144
409,-0.026533,0.029333,-0.00054884,-0.037577,-0.064211,0.13814,0.029658
410,-0.026533,0.030308,0.0059473,-0.022961,-0.033679,0.14724,0.038103
411,-0.033679,0.030308,0.0065969,-0.012567,-0.007045,0.11833,0.03583
412,-0.047646,0.029658,0.0052977,-0.0063954,0.023162,0.061489,0.030308
413,-0.065186,0.028034,0.0014,0.0017248,0.078379,0.0020496,0.027709
414,-0.080127,0.024461,-0.0057458,0.022512,0.17712,-0.041799,0.028684
415,-0.087597,0.019264,-0.013541,0.066037,0.31224,-0.061288,0.03453
416,-0.086298,0.016666,-0.020037,0.1323,0.45321,-0.057065,0.042975
417,-0.078178,0.016666,-0.026209,0.20733,0.54935,-0.035628,0.048172
418,-0.065835,0.011794,-0.039201,0.26449,0.56657,-0.0076946,0.054019
419,-0.053492,-0.0024977,-0.060963,0.28333,0.49965,0.014717,0.059216
420,-0.046347,-0.025559,-0.084674,0.26417,0.3759,0.021213,0.063438
421,-0.047646,-0.045372,-0.10059,0.22422,0.23786,0.0091954,0.06019
422,-0.053817,-0.054792,-0.096367,0.18524,0.13295,-0.017439,0.047198
423,-0.063561,-0.053168,-0.066485,0.16445,0.0865,-0.050894,0.026735
424,-0.070382,-0.044073,-0.016789,0.16348,0.094945,-0.084999,-0.00054884
425,-0.069408,-0.034004,0.031932,0.1742,0.14367,-0.1204,-0.03303
426,-0.055116,-0.029132,0.053369,0.18264,0.21058,-0.15613,-0.06616
427,-0.025234,-0.026533,0.042001,0.17777,0.27196,-0.18829,-0.096042
428,0.013743,-0.022311,0.0052977,0.15601,0.30834,-0.21005,-0.1191
429,0.055318,-0.012892,-0.036602,0.1258,0.30477,-0.21557,-0.1308
430,0.095919,0.00010078,-0.067459,0.095594,0.26222,-0.19641,-0.13047
431,0.12515,0.015042,-0.078503,0.072533,0.19693,-0.14834,-0.12268
432,0.13262,0.031932,-0.069733,0.055318,0.1284,-0.075255,-0.11001
433,0.11671,0.051096,-0.051544,0.0433,0.067661,0.0072465,-0.096042
434,0.091047,0.073507,-0.035628,0.032906,0.01764,0.079029,-0.077203
435,0.067336,0.097218,-0.027183,0.020888,-0.022636,0.12288,-0.050894
436,0.052395,0.11801,-0.022636,0.0026992,-0.054792,0.12743,-0.018738
437,0.041027,0.1245,-0.018088,-0.020037,-0.081426,0.098193,0.015692
438,0.028359,0.10956,-0.01484,-0.041799,-0.10806,0.049147,0.045249
439,0.009845,0.076755,-0.01484,-0.059339,-0.13762,-0.0096434,0.066037
440,-0.012242,0.040702,-0.019712,-0.075255,-0.1714,-0.068758,0.075781
441,-0.033354,0.015367,-0.025884,-0.087922,-0.21037,-0.13145,0.076431
442,-0.048296,0.0033489,-0.034004,-0.096692,-0.25455,-0.2055,0.073507
443,-0.054467,0.0017248,-0.040175,-0.098641,-0.29645,-0.29255,0.074806
444,-0.050244,0.0059473,-0.041799,-0.096367,-0.32958,-0.37603,0.084226
445,-0.037902,0.011794,-0.040175,-0.089871,-0.34744,-0.43287,0.096893
446,-0.019712,0.021213,-0.036927,-0.081426,-0.35199,-0.44586,0.10144
447,0.0023744,0.033556,-0.033354,-0.072006,-0.33997,-0.41663,0.096244
448,0.026085,0.050121,-0.033354,-0.06551,-0.31042,-0.36044,0.08585
449,0.042651,0.06831,-0.036602,-0.062587,-0.26916,-0.29255,0.073507
450,0.046873,0.084551,-0.042124,-0.062912,-0.22369,-0.22856,0.063438
451,0.040052,0.092996,-0.043748,-0.062262,-0.18309,-0.1727,0.056617
452,0.02706,0.092021,-0.042774,-0.056416,-0.14996,-0.11553,0.049147
453,0.011794,0.083576,-0.037902,-0.047321,-0.11878,-0.044073,0.039402
454,0.0033489,0.072208,-0.028482,-0.035953,-0.081101,0.045574,0.027385
455,0.003024,0.058566,-0.01549,-0.022311,-0.040825,0.14626,0.013093
456,0.0049729,0.045574,-0.0057458,-0.010618,-0.0080194,0.24241,-0.0067202
457,0.0059473,0.036479,-0.0021729,-0.00054884,0.0052977,0.31939,-0.030756
458,0.0026992,0.030633,0.00010078,0.0059473,-0.00054884,0.37688,-0.050569
459,-0.0031473,0.023487,0.0062721,0.009845,-0.01484,0.42852,-0.061288
460,-0.013541,0.013418,0.014068,0.0085458,-0.028482,0.48374,-0.062912
461,-0.026209,0.00075039,0.014717,-0.0018481,-0.039201,0.5435,-0.057065
462,-0.035628,-0.012242,0.008221,-0.019388,-0.047971,0.59677,-0.053168
463,-0.039201,-0.022311,-0.0054209,-0.042124,-0.062262,0.62893,-0.054142
464,-0.03303,-0.029457,-0.02361,-0.062587,-0.079802,0.63088,-0.056741
465,-0.014516,-0.034004,-0.038551,-0.076229,-0.092145,0.60457,-0.053168
466,0.011794,-0.033354,-0.045372,-0.079477,-0.086298,0.55909,-0.038876
467,0.036479,-0.029782,-0.044398,-0.07428,-0.05739,0.50453,-0.016464
468,0.056292,-0.025234,-0.036278,-0.062587,-0.0083442,0.44379,0.01017
469,0.068635,-0.021986,-0.024909,-0.046022,0.053694,0.37948,0.039727
470,0.074482,-0.017114,-0.019712,-0.03173,0.11248,0.30997,0.066362
471,0.073182,-0.0099683,-0.019063,-0.017764,0.15016,0.23169,0.083901
472,0.066362,-0.0031473,-0.017114,-0.0028225,0.15471,0.14496,0.091372
473,0.056292,0.0039985,-0.011592,0.015042,0.1271,0.056942,0.094945
474,0.046223,0.010819,-0.0037969,0.032257,0.078704,-0.027183,0.096244
475,0.039078,0.022512,0.0069217,0.044924,0.027709,-0.098641,0.09397
476,0.03583,0.04395,0.022837,0.05142,-0.0099683,-0.15321,0.089423
477,0.038103,0.073182,0.044924,0.053369,-0.02426,-0.18471,0.083901
478,0.042975,0.10209,0.072208,0.057917,-0.012567,-0.19543,0.073182
479,0.043625,0.11573,0.097218,0.066037,0.021213,-0.19186,0.054993
480,0.031932,0.10079,0.11151,0.070909,0.065062,-0.18277,0.028359
481,0.0069217,0.057267,0.10859,0.068635,0.10729,-0.17335,0.0023744
482,-0.027833,-0.0041217,0.090072,0.057267,0.13944,-0.161,-0.016464
483,-0.060963,-0.06616,0.067011,0.040702,0.1625,-0.14022,-0.026209
484,-0.081101,-0.10968,0.044924,0.026735,0.18004,-0.10384,-0.024909
485,-0.080127,-0.12592,0.028359,0.017316,0.19174,-0.050894,-0.014191
486,-0.060313,-0.11715,0.019914,0.014717,0.18427,0.009845,0.003024
487,-0.034654,-0.091495,0.021538,0.021538,0.14204,0.069934,0.022512
488,-0.012892,-0.058365,0.036804,0.033881,0.057592,0.11703,0.044599
489,0.0033489,-0.025234,0.063438,0.043625,-0.047321,0.14204,0.067011
490,0.019264,0.0026992,0.083576,0.042651,-0.14022,0.1362,0.084226
491,0.03518,0.022512,0.081303,0.030308,-0.19446,0.097543,0.0865
492,0.050771,0.032906,0.052395,0.0065969,-0.20225,0.039078,0.070259
493,0.059541,0.031607,0.0056225,-0.02426,-0.16977,-0.020037,0.044275
494,0.058241,0.021863,-0.044073,-0.05739,-0.11521,-0.067459,0.021213
495,0.05272,0.0085458,-0.082076,-0.084349,-0.060963,-0.096692,0.011794
496,0.05272,0.0033489,-0.097991,-0.099615,-0.023935,-0.10709,0.022837
497,0.063113,0.0095202,-0.091495,-0.10254,-0.012892,-0.10254,0.045899
498,0.080003,0.024786,-0.073306,-0.097341,-0.021986,-0.094418,0.074806
499,0.095269,0.044924,-0.051544,-0.088247,-0.043748,-0.093444,0.099492
500,0.10209,0.063113,-0.034329,-0.075904,-0.065835,-0.10644,0.11378
501,0.10631,0.07708,-0.02426,-0.063886,-0.078827,-0.12852,0.11476
502,0.10924,0.087474,-0.019063,-0.053817,-0.08305,-0.14996,0.10274
503,0.10826,0.095269,-0.012242,-0.051219,-0.077203,-0.1649,0.076755
504,0.10079,0.10047,0.00010078,-0.055766,-0.062912,-0.1727,0.040702
505,0.0852,0.10014,0.023162,-0.059989,-0.047321,-0.18536,-0.00022403
506,0.068635,0.092996,0.055968,-0.056741,-0.037902,-0.21849,-0.042449
507,0.054344,0.081627,0.087474,-0.043748,-0.036927,-0.27534,-0.079477
508,0.043625,0.069934,0.10924,-0.024909,-0.041475,-0.3403,-0.10611
509,0.032582,0.056617,0.11346,-0.0018481,-0.036927,-0.39097,-0.11748
510,0.021213,0.040702,0.097868,0.020888,-0.017764,-0.41046,-0.11391
511,0.0072465,0.020888,0.064737,0.041027,0.014068,-0.39194,-0.09929
512,-0.0044465,0.0036737,0.024786,0.062464,0.052395,-0.34614,-0.084999
513,-0.011267,-0.007045,-0.011267,0.087799,0.090072,-0.28963,-0.076554
514,-0.012242,-0.010618,-0.034329,0.11801,0.12158,-0.23538,-0.072331
515,-0.010943,-0.0083442,-0.037902,0.15081,0.14756,-0.19154,-0.069733
516,-0.014191,-0.00087364,-0.021337,0.17972,0.1651,-0.15873,-0.067134
517,-0.02426,0.008221,0.011469,0.20538,0.17062,-0.12885,-0.062587
518,-0.035953,0.015042,0.051745,0.22487,0.15861,-0.097666,-0.054792
519,-0.045047,0.013093,0.085525,0.23916,0.13067,-0.064211,-0.047646
520,-0.048296,0.003024,0.10079,0.24533,0.092346,-0.030756,-0.040825
521,-0.047971,-0.0076946,0.090722,0.24046,0.053369,-0.0028225,-0.032055
522,-0.046671,-0.01549,0.061814,0.22877,0.023812,0.01764,-0.018738
523,-0.044723,-0.018413,0.029658,0.21707,0.0078962,0.03453,-0.0021729
524,-0.033679,-0.016464,0.0088706,0.21058,0.00042559,0.056292,0.016991
525,-0.017439,-0.0099683,0.0075714,0.20798,-0.0060706,0.081627,0.037454
526,0.00042559,0.0010752,0.023487,0.20635,-0.01484,0.10729,0.057592
527,0.020564,0.021213,0.049796,0.19986,-0.02361,0.1323,0.072858
528,0.043625,0.049796,0.073182,0.18784,-0.028807,0.15341,0.083576
529,0.063438,0.078704,0.084876,0.16868,-0.035303,0.16543,0.090397
530,0.073182,0.10306,0.083576,0.14367,-0.04862,0.16283,0.093645
531,0.071558,0.1206,0.072208,0.12093,-0.068434,0.14756,0.092996
532,0.064737,0.13132,0.053694,0.10469,-0.085648,0.13944,0.095919
533,0.063438,0.13197,0.029333,0.097543,-0.090521,0.15828,0.11118
534,0.072533,0.1258,0.0026992,0.096244,-0.076229,0.20895,0.14204
535,0.095594,0.1206,-0.018413,0.10177,-0.045697,0.27944,0.18459
536,0.12548,0.11866,-0.025559,0.11151,-0.0054209,0.34862,0.23006
537,0.15341,0.12255,-0.020037,0.12288,0.031282,0.39117,0.26969
538,0.16348,0.12937,-0.0073698,0.1245,0.06084,0.38987,0.2895
539,0.14529,0.13295,0.003024,0.10566,0.079679,0.34212,0.27164
540,0.099492,0.12353,0.0020496,0.062789,0.080328,0.25183,0.20733
541,0.035505,0.093645,-0.010943,0.0043233,0.057917,0.13295,0.10631
542,-0.03238,0.050121,-0.034329,-0.052193,0.016341,-0.0031473,-0.0047713
543,-0.09182,0.0026992,-0.054467,-0.089546,-0.032055,-0.15093,-0.093769
544,-0.1321,-0.034329,-0.057065,-0.10124,-0.072981,-0.30619,-0.13794
545,-0.14801,-0.05739,-0.042449,-0.093119,-0.097341,-0.4634,-0.1282
546,-0.14152,-0.072981,-0.020687,-0.077203,-0.10546,-0.62548,-0.077203
547,-0.11845,-0.089546,-0.0044465,-0.064861,-0.10709,-0.80412,-0.012567
548,-0.087272,-0.10838,-0.0047713,-0.060638,-0.11878,-0.99121,0.034206
549,-0.051219,-0.1256,-0.026533,-0.062912,-0.14736,-1.1497,0.047198
550,-0.016789,-0.13599,-0.064861,-0.068109,-0.18796,-1.2397,0.029983
551,0.012443,-0.13859,-0.11163,-0.073631,-0.22889,-1.242,0.00075039
552,0.030957,-0.13924,-0.15418,-0.078827,-0.25292,-1.1598,-0.019712
553,0.03583,-0.14216,-0.17952,-0.084999,-0.25552,-1.0136,-0.025559
554,0.02706,-0.14931,-0.18439,-0.089546,-0.23896,-0.82783,-0.021661
555,0.01017,-0.14996,-0.1688,-0.087922,-0.21005,-0.62158,-0.010943
556,-0.012567,-0.13664,-0.13892,-0.081426,-0.17659,-0.41468,-0.0031473
557,-0.034978,-0.10676,-0.10416,-0.075579,-0.14574,-0.22889,-0.0060706
558,-0.058689,-0.071032,-0.073955,-0.074605,-0.123,-0.076554,-0.017114
559,-0.083375,-0.047321,-0.060963,-0.078827,-0.11326,0.042651,-0.037902
560,-0.11326,-0.047971,-0.066485,-0.088572,-0.11358,0.14724,-0.067134
561,-0.14541,-0.068109,-0.085648,-0.098316,-0.11326,0.2619,-0.096367
562,-0.17205,-0.090521,-0.10611,-0.10059,-0.097017,0.40254,-0.11975
563,-0.18634,-0.10319,-0.11391,-0.09182,-0.054142,0.56104,-0.14054
564,-0.18634,-0.09994,-0.10059,-0.069408,0.014392,0.71695,-0.16945
565,-0.17692,-0.0824,-0.059989,-0.038227,0.10144,0.85532,-0.21232
566,-0.16393,-0.055441,0.014717,-0.0031473,0.19531,0.9729,-0.27046
567,-0.15029,-0.029132,0.11411,0.028684,0.28463,1.0716,-0.32958
568,-0.13924,-0.013541,0.20798,0.050446,0.35966,1.1626,-0.36985
569,-0.13047,-0.011592,0.26417,0.063113,0.41585,1.2506,-0.37473
570,-0.1256,-0.020037,0.27067,0.066686,0.45418,1.3331,-0.33802
571,-0.1217,-0.034004,0.23461,0.061814,0.47335,1.3893,-0.26851
572,-0.11586,-0.051544,0.17062,0.046873,0.47432,1.3932,-0.19056
573,-0.10644,-0.068109,0.098517,0.019914,0.45386,1.3237,-0.12527
574,-0.093119,-0.079152,0.03453,-0.016789,0.40968,1.1834,-0.087272
575,-0.077853,-0.078827,-0.012892,-0.055766,0.34147,0.99239,-0.07493
576,-0.063561,-0.06551,-0.03303,-0.086623,0.2593,0.78419,-0.078178
577,-0.048296,-0.042449,-0.024585,-0.10319,0.17972,0.59255,-0.079802
578,-0.03303,-0.021012,0.00010078,-0.10481,0.11801,0.43794,-0.069733
579,-0.018738,-0.0080194,0.019914,-0.098641,0.080653,0.32783,-0.046996
580,-0.0083442,-0.0067202,0.023162,-0.092145,0.067011,0.2541,-0.021337
581,-0.0037969,-0.012892,0.008221,-0.087922,0.072858,0.207,-0.00022403
582,-0.00022403,-0.019388,-0.016464,-0.085648,0.091372,0.17712,0.012119
583,0.0052977,-0.018413,-0.038551,-0.082076,0.11118,0.15309,0.019589
584,0.01017,-0.0083442,-0.047321,-0.076229,0.1206,0.12645,0.028359
585,0.015042,0.011794,-0.038876,-0.067459,0.11151,0.098517,0.043625
586,0.022512,0.039727,-0.018088,-0.059014,0.084226,0.076431,0.070909
587,0.036479,0.071558,0.0049729,-0.052843,0.044599,0.059865,0.10534
588,0.051745,0.099492,0.023162,-0.04992,-0.007045,0.036154,0.13587
589,0.066037,0.12093,0.029009,-0.050569,-0.072656,-0.0037969,0.15731
590,0.080003,0.13684,0.024137,-0.051868,-0.14801,-0.062912,0.17257
591,0.10047,0.15536,0.024461,-0.04927,-0.22272,-0.13729,0.18427
592,0.12645,0.18329,0.045249,-0.041475,-0.28573,-0.21557,0.19531
593,0.14789,0.21935,0.087799,-0.027508,-0.32341,-0.2867,0.20311
594,0.15633,0.25572,0.14269,-0.0083442,-0.32893,-0.34192,0.20343
595,0.15309,0.27781,0.18979,0.010495,-0.30035,-0.37375,0.19726
596,0.14496,0.27554,0.21415,0.026085,-0.24123,-0.37927,0.18362
597,0.14172,0.24955,0.20928,0.039402,-0.16458,-0.36563,0.16835
598,0.14302,0.20928,0.18134,0.050121,-0.088896,-0.34549,0.15633
599,0.14432,0.1703,0.14107,0.057917,-0.034329,-0.33802,0.14886
600,0.14139,0.14107,0.10014,0.058566,-0.0099683,-0.36109,0.13879
601,0.13392,0.12158,0.064413,0.05207,-0.015815,-0.41468,0.1219
602,0.1258,0.11183,0.037454,0.040377,-0.046671,-0.47996,0.097543
603,0.12028,0.11216,0.022512,0.030308,-0.088896,-0.52869,0.072858
604,0.11638,0.12028,0.021213,0.027709,-0.12982,-0.53453,0.062789
605,0.11118,0.12678,0.025761,0.03518,-0.15191,-0.49068,0.067011
606,0.10144,0.1245,0.022837,0.048172,-0.14736,-0.40883,0.079679
607,0.082602,0.11118,0.0046481,0.062464,-0.11488,-0.31009,0.096244
608,0.059216,0.090397,-0.028482,0.071883,-0.062912,-0.21492,0.11346
609,0.037129,0.065712,-0.06616,0.075131,-0.0028225,-0.13567,0.1284
610,0.022837,0.044275,-0.098965,0.075131,0.058241,-0.08305,0.13847
611,0.019264,0.028684,-0.12398,0.075131,0.11606,-0.063561,0.14042
612,0.027385,0.023812,-0.14249,0.077405,0.1677,-0.074605,0.13002
613,0.042001,0.029983,-0.15808,0.07773,0.2148,-0.10871,0.10306
614,0.057592,0.039402,-0.16977,0.079354,0.25215,-0.15516,0.066037
615,0.069285,0.046873,-0.17659,0.083251,0.26937,-0.20453,0.032906
616,0.069934,0.047847,-0.18439,0.090722,0.25995,-0.25617,0.0062721
617,0.057592,0.041027,-0.19543,0.10014,0.22617,-0.31626,-0.014191
618,0.035505,0.028359,-0.20843,0.099167,0.17517,-0.39097,-0.035953
619,0.0088706,0.014717,-0.21525,0.080003,0.11638,-0.46957,-0.064211
620,-0.016789,0.0062721,-0.21135,0.046548,0.054993,-0.53323,-0.092469
621,-0.037252,0.0049729,-0.19543,0.0085458,-0.0021729,-0.55792,-0.11423
622,-0.04992,0.0056225,-0.17172,-0.024909,-0.050894,-0.53681,-0.12073
623,-0.054142,-0.00054884,-0.14996,-0.050894,-0.090521,-0.47867,-0.11228
624,-0.048296,-0.021337,-0.13762,-0.068109,-0.11748,-0.39844,-0.092794
625,-0.034329,-0.051544,-0.13307,-0.075255,-0.13047,-0.31301,-0.066485
626,-0.010943,-0.077528,-0.13307,-0.070707,-0.13307,-0.23766,-0.034654
627,0.020564,-0.090845,-0.12235,-0.057065,-0.13112,-0.18309,0.0049729
628,0.05272,-0.088572,-0.0837,-0.036927,-0.13404,-0.15418,0.045249
629,0.075456,-0.072331,-0.00022403,-0.011592,-0.14704,-0.14411,0.07773
630,0.08585,-0.046996,0.12905,0.01764,-0.16393,-0.13404,0.095594
631,0.083576,-0.018738,0.27261,0.045899,-0.17822,-0.11033,0.099492
632,0.075131,0.0039985,0.38142,0.06831,-0.19251,-0.06681,0.092996
633,0.06831,0.018615,0.42235,0.081303,-0.21005,-0.011267,0.08585
634,0.067986,0.026085,0.38922,0.083901,-0.23538,0.046873,0.082602
635,0.07708,0.028684,0.31062,0.080978,-0.26397,0.10274,0.081627
636,0.091047,0.032257,0.22357,0.07708,-0.28443,0.15601,0.080653
637,0.10144,0.039727,0.15373,0.074806,-0.28248,0.20765,0.081303
638,0.10404,0.045574,0.10989,0.073182,-0.25422,0.25085,0.082927
639,0.10047,0.042651,0.083576,0.071234,-0.20583,0.27716,0.0865
640,0.091047,0.029658,0.068635,0.071883,-0.15061,0.28008,0.090072
641,0.076431,0.009845,0.062464,0.078379,-0.096042,0.26255,0.096569
642,0.056942,-0.0099683,0.059865,0.088448,-0.04927,0.23201,0.10534
643,0.03583,-0.025559,0.060515,0.095919,-0.0060706,0.19239,0.10956
644,0.012443,-0.040175,0.056617,0.093645,0.039727,0.14756,0.10339
645,-0.018088,-0.057715,0.042001,0.078055,0.093321,0.097868,0.084876
646,-0.052518,-0.083375,0.013743,0.055318,0.15341,0.048822,0.059216
647,-0.084999,-0.11618,-0.023935,0.032906,0.21317,0.0046481,0.032257
648,-0.11131,-0.14899,-0.062587,0.016016,0.26482,-0.0405,0.0033489
649,-0.12852,-0.17367,-0.09117,0.0046481,0.30217,-0.093444,-0.029457
650,-0.13437,-0.18309,-0.10546,0.0020496,0.32393,-0.15483,-0.06681
651,-0.13145,-0.18212,-0.10546,0.0088706,0.31614,-0.21785,-0.10481
652,-0.1243,-0.17237,-0.10189,0.022188,0.27261,-0.27111,-0.13534
653,-0.11683,-0.16165,-0.097017,0.037778,0.20473,-0.30067,-0.15126
654,-0.10709,-0.15061,-0.094418,0.049147,0.13457,-0.301,-0.14671
655,-0.092469,-0.13827,-0.093769,0.054993,0.081627,-0.27566,-0.12852
656,-0.072981,-0.1217,-0.09117,0.054668,0.05272,-0.23376,-0.10903
657,-0.053492,-0.098965,-0.084674,0.05272,0.046873,-0.18407,-0.093119
658,-0.036278,-0.071032,-0.077853,0.05207,0.063438,-0.12787,-0.077528
659,-0.022311,-0.045047,-0.077853,0.054019,0.10047,-0.059989,-0.058365
660,-0.011917,-0.024909,-0.084349,0.058891,0.14886,0.023162,-0.034978
661,-0.0041217,-0.012242,-0.090196,0.061814,0.19401,0.11476,-0.0096434
662,0.0014,-0.0096434,-0.090196,0.058241,0.21837,0.20278,0.016666
663,0.0043233,-0.011267,-0.088247,0.050121,0.21155,0.27424,0.039078
664,0.0036737,-0.0099683,-0.087597,0.039078,0.17127,0.32036,0.054344
665,0.0017248,-0.0044465,-0.086298,0.030957,0.10242,0.34147,0.064413
666,-0.0028225,0.0023744,-0.079477,0.026735,0.01764,0.34764,0.071883
667,-0.010618,0.012443,-0.060638,0.025111,-0.069408,0.35869,0.077405
668,-0.019388,0.025436,-0.017439,0.025761,-0.13794,0.3811,0.081952
669,-0.026533,0.040702,0.062789,0.030633,-0.1727,0.41293,0.084876
670,-0.027183,0.056617,0.18589,0.044924,-0.16912,0.44411,0.088124
671,-0.022636,0.072208,0.34635,0.066686,-0.14119,0.45938,0.091047
672,-0.01549,0.087149,0.51232,0.092021,-0.10968,0.44963,0.09462
673,-0.0076946,0.10079,0.6377,0.11671,-0.086623,0.41098,0.092346
674,0.0020496,0.11411,0.67505,0.13392,-0.076554,0.35284,0.081303
675,0.018615,0.12223,0.61106,0.13879,-0.083375,0.28008,0.062139
676,0.040702,0.1232,0.46847,0.1336,-0.10384,0.19693,0.036479
677,0.059541,0.11703,0.29568,0.12418,-0.13437,0.10826,0.0075714
678,0.070259,0.10761,0.14042,0.11346,-0.16977,0.012119,-0.027833
679,0.071558,0.10274,0.028359,0.10047,-0.20128,-0.096367,-0.072331
680,0.066362,0.10274,-0.036927,0.082602,-0.22629,-0.21979,-0.12398
681,0.052395,0.10209,-0.070058,0.057592,-0.24123,-0.35102,-0.17465
682,0.034206,0.10209,-0.089871,0.026085,-0.24675,-0.4673,-0.21395
683,0.016991,0.10014,-0.10838,-0.0080194,-0.24286,-0.54363,-0.23344
684,0.0065969,0.096893,-0.13177,-0.036927,-0.22791,-0.56506,-0.22824
685,0.0049729,0.091047,-0.15646,-0.05804,-0.19933,-0.52998,-0.19998
686,0.012119,0.079029,-0.17692,-0.070707,-0.15905,-0.45528,-0.15938
687,0.019264,0.061165,-0.18894,-0.078503,-0.10936,-0.36271,-0.11748
688,0.022837,0.040702,-0.19251,-0.083375,-0.056416,-0.27891,-0.085973
689,0.023812,0.024786,-0.18569,-0.085648,0.0023744,-0.22109,-0.072981
690,0.024137,0.019914,-0.16912,-0.086623,0.070584,-0.19154,-0.077203
691,0.026735,0.023812,-0.14509,-0.085648,0.14269,-0.17952,-0.087597
692,0.026085,0.028034,-0.11586,-0.081426,0.2044,-0.17724,-0.097666
693,0.021863,0.028034,-0.085324,-0.080451,0.23591,-0.18082,-0.10838
694,0.012768,0.028034,-0.055116,-0.087597,0.22389,-0.17984,-0.11813
695,0.003024,0.032582,-0.028482,-0.10709,0.17615,-0.1597,-0.11683
696,-0.00087364,0.043625,-0.0057458,-0.13827,0.10989,-0.11488,-0.09994
697,0.0052977,0.058566,0.012768,-0.16977,0.047523,-0.047321,-0.068109
698,0.024137,0.076106,0.024786,-0.19283,0.0049729,0.032582,-0.025234
699,0.049147,0.090722,0.029983,-0.19998,-0.012892,0.10631,0.018615
700,0.070584,0.097868,0.025761,-0.19186,-0.014191,0.15373,0.056617
701,0.078704,0.092021,0.014392,-0.17497,-0.0083442,0.1638,0.08585
702,0.071883,0.074806,-0.00054884,-0.15581,-0.0050961,0.14107,0.10664
703,0.059541,0.053694,-0.010293,-0.13989,-0.0037969,0.10729,0.12158
704,0.052395,0.033881,-0.013216,-0.12592,-0.0067202,0.089098,0.1362
705,0.053044,0.019264,-0.010618,-0.11456,-0.017114,0.096244,0.15568
706,0.05207,0.0075714,-0.0089938,-0.10514,-0.036927,0.11995,0.17485
707,0.039078,-0.00054884,-0.0096434,-0.098965,-0.06616,0.14074,0.18232
708,0.011794,-0.010943,-0.010618,-0.097341,-0.10156,0.14139,0.1625
709,-0.021661,-0.024909,-0.013541,-0.096367,-0.13697,0.1219,0.11411
710,-0.055766,-0.042124,-0.017439,-0.096692,-0.16588,0.10209,0.050121
711,-0.088247,-0.060963,-0.024909,-0.099615,-0.18147,0.098842,-0.012567
712,-0.12203,-0.080776,-0.039851,-0.10449,-0.18374,0.11703,-0.058689
713,-0.15126,-0.10351,-0.065186,-0.11033,-0.18049,0.15536,-0.085648
714,-0.17075,-0.1282,-0.092794,-0.11651,-0.17497,0.21025,-0.093119
715,-0.17724,-0.14541,-0.11358,-0.11845,-0.17107,0.27359,-0.080451
716,-0.1688,-0.14671,-0.123,-0.11098,-0.16718,0.33433,-0.052193
717,-0.14899,-0.12722,-0.12527,-0.092469,-0.16295,0.38597,-0.015815
718,-0.1204,-0.093444,-0.12755,-0.067459,-0.15613,0.41748,0.014392
719,-0.087922,-0.058365,-0.13437,-0.038227,-0.14054,0.41715,0.032582
720,-0.057065,-0.034004,-0.14346,-0.0073698,-0.11293,0.37688,0.035505
721,-0.03303,-0.025884,-0.14736,0.024786,-0.073631,0.31322,0.026735
722,-0.017439,-0.030106,-0.14314,0.058566,-0.025234,0.2489,0.010495
723,-0.0050961,-0.039851,-0.12885,0.09397,0.029333,0.20863,-0.0015233
724,0.0075714,-0.044398,-0.10676,0.13295,0.088773,0.20148,-0.0024977
725,0.022512,-0.036602,-0.081426,0.1755,0.14886,0.22389,0.0095202
726,0.039078,-0.018413,-0.056741,0.22,0.2044,0.26255,0.031282
727,0.056292,0.0056225,-0.029132,0.2606,0.25345,0.30022,0.062789
728,0.071558,0.028684,0.0014,0.28918,0.29568,0.32198,0.10209
729,0.084226,0.048172,0.036154,0.29827,0.32913,0.31939,0.14237
730,0.094945,0.063438,0.06831,0.28528,0.34894,0.29633,0.17355
731,0.10242,0.075781,0.092996,0.2619,0.35512,0.25865,0.19109
732,0.10664,0.084226,0.10859,0.24013,0.34537,0.21447,0.19628
733,0.10696,0.088773,0.11443,0.23071,0.32069,0.1677,0.18751
734,0.10566,0.08585,0.11378,0.23851,0.28301,0.11671,0.17192
735,0.10112,0.075131,0.11281,0.2528,0.23364,0.059541,0.15373
736,0.092996,0.058566,0.11573,0.26514,0.17517,-0.0018481,0.13814
737,0.0865,0.040052,0.12775,0.26969,0.11606,-0.055766,0.12678
738,0.082602,0.022837,0.14496,0.26514,0.064413,-0.089546,0.11736
739,0.084876,0.011144,0.16023,0.2515,0.030633,-0.097341,0.10371
740,0.086824,0.0075714,0.1729,0.22844,0.020564,-0.080451,0.077405
741,0.084226,0.010495,0.18004,0.20083,0.033231,-0.053168,0.03518
742,0.070584,0.016666,0.17647,0.1703,0.057917,-0.026209,-0.023285
743,0.045249,0.020564,0.16088,0.13782,0.087149,-0.0093186,-0.091495
744,0.0085458,0.022837,0.1336,0.10761,0.11801,-0.0041217,-0.15223
745,-0.030106,0.020239,0.097218,0.082277,0.14886,-0.0050961,-0.19511
746,-0.05804,0.013093,0.055968,0.061489,0.16575,-0.013216,-0.21395
747,-0.062262,0.0043233,0.012119,0.041676,0.15958,-0.02426,-0.20518
748,-0.047971,-0.0021729,-0.028482,0.021538,0.1245,-0.029782,-0.17237
749,-0.025234,-0.0011985,-0.055441,0.0056225,0.073832,-0.022636,-0.1243
750,-0.0021729,0.0091954,-0.062587,-0.0011985,0.030633,0.0010752,-0.069733
751,0.016016,0.026735,-0.053817,0.003024,0.016341,0.042326,-0.017114
752,0.027385,0.046873,-0.035953,0.012768,0.034855,0.088773,0.024786
753,0.030957,0.063438,-0.014516,0.019914,0.077405,0.1219,0.047847
754,0.025436,0.06896,0.0059473,0.017965,0.12288,0.1258,0.047198
755,0.011794,0.061165,0.019589,0.0036737,0.14919,0.092346,0.02641
756,-0.007045,0.047198,0.029009,-0.018413,0.14042,0.03518,-0.0060706
757,-0.02361,0.031932,0.034206,-0.041799,0.090072,-0.024909,-0.039201
758,-0.030431,0.022188,0.036804,-0.060963,0.010495,-0.067784,-0.05739
759,-0.024585,0.019914,0.038428,-0.073631,-0.082725,-0.084024,-0.04862
760,-0.0054209,0.025436,0.038103,-0.077853,-0.17042,-0.080127,-0.01614
761,0.025111,0.03583,0.03583,-0.074605,-0.23896,-0.067784,0.02706
762,0.062789,0.048822,0.033556,-0.066485,-0.28313,-0.05804,0.064088
763,0.095269,0.059216,0.032906,-0.05804,-0.30457,-0.058689,0.088448
764,0.11086,0.060515,0.031932,-0.055116,-0.30782,-0.07493,0.097218
765,0.10014,0.047198,0.029009,-0.059989,-0.29742,-0.099615,0.090397
766,0.065062,0.025436,0.026085,-0.072656,-0.27826,-0.1217,0.073507
767,0.016341,0.0072465,0.026085,-0.085324,-0.25195,-0.13599,0.057267
768,-0.027508,0.00075039,0.029983,-0.097017,-0.22077,-0.14671,0.047847
769,-0.059339,0.0072465,0.034206,-0.10936,-0.18926,-0.15288,0.043625
770,-0.072656,0.019264,0.030633,-0.12235,-0.16003,-0.15613,0.042326
771,-0.065835,0.029983,0.012768,-0.13469,-0.13599,-0.15223,0.046223
772,-0.0405,0.031282,-0.01549,-0.14281,-0.11845,-0.13892,0.055318
773,-0.0037969,0.026085,-0.044073,-0.14704,-0.10189,-0.1191,0.063438
774,0.032906,0.019914,-0.062262,-0.14769,-0.079802,-0.097017,0.064088
775,0.061489,0.013418,-0.069733,-0.14866,-0.055766,-0.079802,0.057592
776,0.080328,0.0052977,-0.072331,-0.15191,-0.038227,-0.072331,0.051096
777,0.091372,0.0020496,-0.072331,-0.15678,-0.03238,-0.073955,0.042326
778,0.096893,0.0062721,-0.071032,-0.16003,-0.032055,-0.082725,0.027709
779,0.095919,0.017316,-0.069083,-0.15288,-0.032055,-0.096042,0.0078962
780,0.08585,0.029658,-0.067134,-0.13469,-0.028807,-0.11618,-0.012567
781,0.06831,0.034855,-0.064211,-0.10741,-0.018088,-0.14054,-0.028157
782,0.049472,0.034855,-0.060638,-0.077528,0.0043233,-0.1597,-0.037902
783,0.03453,0.031932,-0.057065,-0.053492,0.03583,-0.1636,-0.042124
784,0.022512,0.029009,-0.048945,-0.04115,0.066362,-0.14931,-0.040825
785,0.01017,0.030957,-0.035953,-0.035953,0.084551,-0.12268,-0.033679
786,-0.0050961,0.038753,-0.020037,-0.033354,0.081627,-0.085973,-0.021661
787,-0.021012,0.050771,-0.0054209,-0.027183,0.053044,-0.045047,-0.0054209
788,-0.037577,0.058891,0.0062721,-0.015165,0.012768,-0.0067202,0.013418
789,-0.054467,0.052395,0.009845,0.0020496,-0.022636,0.021213,0.030633
790,-0.068434,0.02706,0.0020496,0.020888,-0.037252,0.031932,0.038753
791,-0.076554,-0.010943,-0.01549,0.037454,-0.026209,0.021538,0.032257
792,-0.076554,-0.045372,-0.036602,0.05272,-0.00054884,-0.0057458,0.011794
793,-0.06616,-0.063886,-0.048945,0.067336,0.029333,-0.04115,-0.013216
794,-0.047971,-0.059014,-0.044398,0.078055,0.056942,-0.069733,-0.031406
795,-0.025559,-0.039201,-0.023935,0.084876,0.08585,-0.081426,-0.039201
796,-0.0050961,-0.01484,-0.00022403,0.087474,0.12125,-0.076229,-0.038227
797,0.003024,0.0059473,0.017316,0.088448,0.16218,-0.062262,-0.031081
798,-0.0044465,0.016991,0.025111,0.082927,0.19888,-0.054142,-0.020037
799,-0.019388,0.01894,0.024786,0.065712,0.21837,-0.06551,-0.007045
800,-0.031406,0.015042,0.019914,0.038103,0.2109,-0.096692,0.0014
801,-0.033679,0.0095202,0.015367,0.0059473,0.17842,-0.13404,0.0072465
802,-0.028157,-0.0021729,0.01017,-0.021661,0.12515,-0.16198,0.013093
803,-0.020037,-0.018738,0.0062721,-0.039201,0.065062,-0.1675,0.021538
804,-0.014191,-0.034004,0.0052977,-0.042124,0.014068,-0.15126,0.029333
805,-0.010943,-0.0405,0.011469,-0.030756,-0.012892,-0.11975,0.036154
806,-0.0054209,-0.036602,0.02641,-0.010618,-0.011592,-0.084999,0.043625
807,0.0085458,-0.023285,0.045249,0.015692,0.015692,-0.057715,0.049472
808,0.026735,-0.0060706,0.06084,0.042326,0.06019,-0.041475,0.048172
809,0.040702,0.0072465,0.071234,0.066686,0.10956,-0.034329,0.040377
810,0.046873,0.015042,0.073832,0.091047,0.14399,-0.033354,0.027385
811,0.047847,0.01894,0.067661,0.1245,0.15244,-0.036602,0.013418
812,0.048822,0.022837,0.051745,0.1768,0.13457,-0.037902,0.0020496
813,0.053369,0.028359,0.031282,0.24403,0.099492,-0.035628,-0.0041217
814,0.055643,0.034855,0.008221,0.30639,0.057592,-0.027183,-0.007045
815,0.048822,0.040702,-0.014191,0.33335,0.016016,-0.016789,-0.011917
816,0.028684,0.042975,-0.030431,0.29113,-0.019712,-0.007045,-0.015165
817,0.0020496,0.042001,-0.038551,0.1677,-0.041799,-0.0028225,-0.018413
818,-0.025559,0.040377,-0.036927,-0.0028225,-0.044723,-0.0067202,-0.018413
819,-0.045697,0.039402,-0.02426,-0.15938,-0.030431,-0.013541,-0.010618
820,-0.053492,0.042975,-0.0060706,-0.2435,-0.011267,-0.012242,0.010819
821,-0.047971,0.050446,0.013418,-0.24026,-0.0034721,0.0033489,0.044275
822,-0.036927,0.057267,0.024137,-0.16945,-0.024909,0.030633,0.075131
823,-0.028482,0.056942,0.023812,-0.072331,-0.076229,0.055318,0.093321
824,-0.024585,0.046873,0.013743,0.015042,-0.14216,0.066037,0.094295
825,-0.023935,0.027709,0.0014,0.071234,-0.20063,0.057267,0.084226
826,-0.018413,0.011144,-0.0096434,0.095269,-0.23441,0.033881,0.070259
827,-0.0054209,0.0056225,-0.014191,0.099492,-0.23668,0.0046481,0.059541
828,0.012119,0.015367,-0.0076946,0.10501,-0.2159,-0.021012,0.055643
829,0.030308,0.037778,0.0095202,0.11801,-0.18796,-0.041799,0.057592
830,0.044599,0.06084,0.029983,0.13425,-0.1662,-0.058689,0.056292
831,0.045899,0.076106,0.0433,0.14724,-0.15353,-0.082725,0.046548
832,0.032906,0.081627,0.044924,0.15081,-0.15126,-0.12592,0.025111
833,0.009845,0.080003,0.03583,0.14561,-0.15613,-0.19024,-0.00087364
834,-0.013866,0.072533,0.023812,0.13262,-0.16523,-0.26104,-0.021337
835,-0.030431,0.06019,0.013418,0.11443,-0.17497,-0.32308,-0.028157
836,-0.039851,0.0433,0.0036737,0.095594,-0.17952,-0.36271,-0.025559
837,-0.043423,0.022512,-0.0073698,0.077405,-0.17984,-0.377,-0.01614
838,-0.041799,-0.00054884,-0.021661,0.059541,-0.17302,-0.36661,-0.007045
839,-0.038227,-0.019388,-0.03238,0.04395,-0.15711,-0.34387,-0.0011985
840,-0.036927,-0.031081,-0.038227,0.031607,-0.13307,-0.32081,-0.0047713
841,-0.0405,-0.033354,-0.043423,0.02641,-0.10286,-0.30294,-0.020362
842,-0.047971,-0.028807,-0.051868,0.030957,-0.070058,-0.28216,-0.046671
843,-0.055116,-0.019712,-0.062587,0.039078,-0.040825,-0.2513,-0.076229
844,-0.054792,-0.010943,-0.070707,0.047523,-0.020037,-0.2081,-0.095717
845,-0.04115,-0.0018481,-0.073631,0.056942,-0.011917,-0.15191,-0.093444
846,-0.010293,0.0069217,-0.069083,0.067986,-0.019388,-0.080776,-0.06616
847,0.03453,0.017316,-0.061937,0.081952,-0.043099,0.0069217,-0.020362
848,0.080653,0.028359,-0.056416,0.090397,-0.079477,0.10664,0.030957
849,0.11378,0.038103,-0.058365,0.088448,-0.123,0.21545,0.078704
850,0.1258,0.045249,-0.064536,0.076755,-0.16035,0.32393,0.11508
851,0.12028,0.04395,-0.06616,0.061165,-0.18049,0.4191,0.13879
852,0.10501,0.038103,-0.057065,0.048497,-0.18082,0.49218,0.14756
853,0.081952,0.030633,-0.039201,0.0433,-0.16003,0.5435,0.13977
854,0.048822,0.023812,-0.019712,0.039078,-0.11651,0.5867,0.11411
855,0.012119,0.020239,-0.00022403,0.032582,-0.056416,0.62373,0.078379
856,-0.016464,0.021538,0.018615,0.023162,0.0085458,0.6325,0.050121
857,-0.030756,0.025761,0.030957,0.01017,0.053369,0.57501,0.037129
858,-0.03173,0.027385,0.036479,-0.0047713,0.059541,0.4256,0.03518
859,-0.024585,0.024461,0.03583,-0.019388,0.026085,0.20505,0.033881
860,-0.011267,0.01764,0.028034,-0.029132,-0.032705,-0.036278,0.022837
861,0.0049729,0.01017,0.012443,-0.036927,-0.098641,-0.24545,0.003024
862,0.018615,0.0049729,-0.007045,-0.04862,-0.15158,-0.38902,-0.021337
863,0.028684,0.0026992,-0.027508,-0.069408,-0.18309,-0.45755,-0.047321
864,0.035505,0.00075039,-0.046022,-0.09994,-0.19121,-0.4556,-0.068434
865,0.039402,-0.0031473,-0.060313,-0.12885,-0.17335,-0.40071,-0.077528
866,0.036804,-0.011592,-0.070058,-0.14671,-0.13275,-0.30522,-0.075255
867,0.025761,-0.021661,-0.075255,-0.14866,-0.078503,-0.17984,-0.06616
868,0.0059473,-0.027508,-0.076229,-0.13957,-0.018738,-0.034004,-0.05804
869,-0.013541,-0.028807,-0.07428,-0.12755,0.042651,0.11898,-0.051544
870,-0.019388,-0.02426,-0.070058,-0.11618,0.10274,0.25865,-0.047646
871,-0.0060706,-0.012242,-0.061288,-0.09929,0.15796,0.36259,-0.039526
872,0.020888,0.0017248,-0.046996,-0.07493,0.19986,0.4191,-0.026533
873,0.049472,0.011794,-0.025884,-0.045372,0.22,0.43307,-0.012567
874,0.066686,0.014068,0.0014,-0.01484,0.21675,0.43015,-0.00087364
875,0.070584,0.0065969,0.042326,0.017965,0.19888,0.43957,0.0014
876,0.064088,-0.0041217,0.10664,0.051096,0.18069,0.4714,-0.008669
877,0.05142,-0.0063954,0.20278,0.086175,0.18979,0.52272,-0.029782
878,0.040052,0.0017248,0.31744,0.12353,0.25085,0.58703,-0.056091
879,0.034206,0.012443,0.4191,0.15568,0.36259,0.65751,-0.082725
880,0.029658,0.019264,0.47692,0.17517,0.49933,0.7267,-0.10774
881,0.016341,0.017316,0.47692,0.17615,0.62893,0.78776,-0.1269
882,-0.01484,0.0056225,0.42787,0.16121,0.72442,0.83226,-0.13989
883,-0.05739,-0.014191,0.35187,0.13879,0.77542,0.84915,-0.14411
884,-0.094093,-0.037577,0.27196,0.11541,0.78419,0.82154,-0.13437
885,-0.10709,-0.059664,0.20798,0.093645,0.7673,0.73546,-0.10838
886,-0.088896,-0.073631,0.16965,0.076431,0.73969,0.59093,-0.067134
887,-0.046996,-0.070382,0.15568,0.066686,0.70656,0.40806,-0.012892
888,0.0062721,-0.051544,0.15406,0.061814,0.66401,0.22357,0.046223
889,0.059216,-0.023935,0.15698,0.06019,0.60457,0.074157,0.10014
890,0.10306,0.003024,0.15926,0.058241,0.52109,-0.023285,0.14237
891,0.13295,0.024786,0.15796,0.05207,0.42008,-0.079152,0.17257
892,0.14756,0.037129,0.14724,0.037778,0.31386,-0.12008,0.18946
893,0.14919,0.037778,0.1219,0.012768,0.20895,-0.16718,0.18816
894,0.13977,0.029658,0.079029,-0.017439,0.11248,-0.21979,0.1729
895,0.12125,0.01894,0.027709,-0.043099,0.028684,-0.26559,0.15179
896,0.096569,0.0078962,-0.021012,-0.058365,-0.036927,-0.28443,0.1323
897,0.069934,0.0026992,-0.05739,-0.060963,-0.086623,-0.27111,0.12028
898,0.042001,0.0059473,-0.080127,-0.052518,-0.12268,-0.23896,0.11281
899,0.015367,0.016666,-0.093444,-0.033354,-0.14834,-0.20485,0.10404
900,-0.0024977,0.031607,-0.10124,-0.010293,-0.16458,-0.17562,0.089423
901,-0.007045,0.045899,-0.10579,0.0095202,-0.17854,-0.14379,0.067986
902,0.00042559,0.053369,-0.11456,0.022512,-0.19283,-0.089871,0.043625
903,0.011144,0.054668,-0.12787,0.028034,-0.21525,-0.0063954,0.020564
904,0.014068,0.050771,-0.14769,0.026085,-0.24838,0.10339,-0.0011985
905,0.0026992,0.040702,-0.1675,0.022188,-0.288,0.2174,-0.022961
906,-0.021012,0.023162,-0.1753,0.020564,-0.32568,0.31451,-0.046022
907,-0.054142,-0.00022403,-0.1701,0.022512,-0.35199,0.37688,-0.070707
908,-0.090196,-0.023285,-0.15029,0.026085,-0.36596,0.39312,-0.094743
909,-0.11683,-0.0405,-0.10871,0.033881,-0.37083,0.36583,-0.10644
910,-0.12657,-0.050244,-0.034978,0.044599,-0.36693,0.30412,-0.096042
911,-0.11651,-0.051544,0.062464,0.058241,-0.35296,0.21577,-0.063561
912,-0.09117,-0.046996,0.15568,0.070909,-0.32698,0.10144,-0.022961
913,-0.059989,-0.035953,0.21317,0.074482,-0.29417,-0.038551,0.011794
914,-0.03173,-0.020362,0.2122,0.062789,-0.26169,-0.19608,0.029009
915,-0.0083442,-0.0037969,0.15373,0.033231,-0.22661,-0.35654,0.026735
916,0.01017,0.01017,0.062464,-0.0034721,-0.18082,-0.50725,0.0095202
917,0.021538,0.019264,-0.031081,-0.034329,-0.12333,-0.63782,-0.0096434
918,0.024461,0.024137,-0.097991,-0.052518,-0.071357,-0.74663,-0.028482
919,0.016666,0.030633,-0.12787,-0.059989,-0.045697,-0.84342,-0.047971
920,0.0043233,0.040052,-0.1269,-0.062587,-0.05804,-0.94152,-0.067459
921,-0.010293,0.048497,-0.11293,-0.069083,-0.10449,-1.0526,-0.092469
922,-0.028482,0.05272,-0.098316,-0.082076,-0.17172,-1.1767,-0.12722
923,-0.04862,0.051096,-0.094418,-0.10156,-0.24091,-1.2959,-0.1727
924,-0.065835,0.045249,-0.10416,-0.12138,-0.29612,-1.3797,-0.21655
925,-0.071682,0.041676,-0.11845,-0.13534,-0.32568,-1.3975,-0.24091
926,-0.06551,0.040377,-0.13047,-0.13599,-0.32731,-1.3417,-0.23668
927,-0.047971,0.041351,-0.13502,-0.12333,-0.30619,-1.2264,-0.20745
928,-0.025234,0.042326,-0.13567,-0.10481,-0.27371,-1.0786,-0.16555
929,-0.0034721,0.041351,-0.13892,-0.089871,-0.24026,-0.923,-0.12203
930,0.016341,0.038428,-0.14379,-0.084674,-0.21102,-0.77424,-0.086948
931,0.033556,0.03453,-0.14769,-0.087597,-0.19056,-0.63587,-0.064211
932,0.046223,0.031607,-0.15029,-0.092794,-0.18049,-0.50855,-0.047971
933,0.051745,0.034206,-0.14931,-0.096042,-0.17627,-0.39227,-0.031081
934,0.048822,0.045249,-0.13924,-0.092145,-0.16977,-0.29353,-0.0093186
935,0.042975,0.065062,-0.12138,-0.084024,-0.15061,-0.21265,0.01894
936,0.033231,0.08585,-0.097666,-0.073306,-0.11878,-0.14834,0.046223
937,0.020564,0.098517,-0.070707,-0.067784,-0.082725,-0.094093,0.070584
938,0.0072465,0.097218,-0.045372,-0.071357,-0.053817,-0.046347,0.082602
939,-0.0041217,0.080653,-0.025234,-0.085324,-0.036278,-0.0067202,0.082602
940,-0.010293,0.053369,-0.012567,-0.09994,-0.029457,0.02706,0.076431
941,-0.012242,0.017965,-0.0021729,-0.10611,-0.027183,0.054344,0.06896
942,-0.0096434,-0.017439,0.010495,-0.10091,-0.025884,0.07773,0.063438
943,-0.0067202,-0.047321,0.030308,-0.087272,-0.017114,0.099167,0.06084
944,-0.0031473,-0.064861,0.062464,-0.067459,0.0062721,0.1206,0.06084
945,-0.0037969,-0.065835,0.11118,-0.046996,0.045899,0.14009,0.063763
946,-0.0096434,-0.050569,0.16413,-0.029782,0.091696,0.15373,0.070584
947,-0.015815,-0.026533,0.20311,-0.014516,0.12937,0.16185,0.081303
948,-0.017439,-0.0021729,0.21642,0.00075039,0.13879,0.1716,0.092996
949,-0.011267,0.015692,0.20083,0.017965,0.10631,0.18687,0.10631
950,0.0010752,0.022837,0.16283,0.03583,0.033881,0.20408,0.12125
951,0.016341,0.022837,0.10729,0.053694,-0.059339,0.22032,0.13977
952,0.030633,0.015367,0.045574,0.06831,-0.14639,0.23494,0.15503
953,0.039727,0.003024,-0.011592,0.080653,-0.20778,0.25085,0.16998
954,0.036804,-0.0096434,-0.057715,0.09397,-0.23474,0.27132,0.18524
955,0.024137,-0.020362,-0.089871,0.10242,-0.22791,0.30022,0.19953
956,0.0088706,-0.027833,-0.11553,0.10436,-0.19966,0.33563,0.2083
957,-0.00022403,-0.034004,-0.13762,0.10112,-0.16133,0.36389,0.21317
958,0.00075039,-0.039526,-0.15646,0.10112,-0.12105,0.37493,0.21382
959,0.01017,-0.044723,-0.16295,0.11021,-0.086298,0.37038,0.21025
960,0.029658,-0.040825,-0.15613,0.12743,-0.060963,0.35934,0.20473
961,0.059541,-0.019388,-0.13599,0.14626,-0.037902,0.35219,0.20051
962,0.091696,0.019589,-0.10514,0.16056,-0.014516,0.35317,0.19791
963,0.11573,0.062789,-0.064536,0.1664,0.01017,0.35641,0.18816
964,0.12905,0.094945,-0.022636,0.1625,0.03583,0.35674,0.16348
965,0.13067,0.10794,0.010819,0.15536,0.059865,0.34862,0.1232
966,0.12353,0.10826,0.031932,0.15146,0.081952,0.32783,0.078704
967,0.11476,0.11021,0.045899,0.15406,0.10047,0.30282,0.041027
968,0.10664,0.12223,0.062789,0.16315,0.11508,0.28431,0.018615
969,0.099492,0.14496,0.088773,0.17907,0.12872,0.28626,0.010495
970,0.095269,0.17322,0.12255,0.19596,0.14204,0.32004,0.01894
971,0.089423,0.20148,0.15731,0.21382,0.15211,0.38727,0.044924
972,0.078055,0.22097,0.18362,0.23266,0.16283,0.4714,0.079679
973,0.055643,0.22162,0.18914,0.24858,0.17712,0.55162,0.11508
974,0.024137,0.19466,0.1703,0.25865,0.19304,0.61106,0.14561
975,-0.008669,0.14107,0.13197,0.2606,0.20895,0.6377,0.16543
976,-0.032055,0.075781,0.088448,0.2489,0.22877,0.6325,0.1729
977,-0.038551,0.015367,0.053044,0.22227,0.2476,0.5932,0.16835
978,-0.029782,-0.025884,0.02641,0.18004,0.25053,0.51784,0.14529
979,-0.014516,-0.04992,0.0043233,0.12288,0.22584,0.41098,0.10242
980,-0.0034721,-0.060638,-0.015815,0.053369,0.17322,0.28756,0.050771
981,-0.0067202,-0.067134,-0.035628,-0.020362,0.10436,0.16673,0.00042559
982,-0.021012,-0.071682,-0.051219,-0.086623,0.0433,0.065712,-0.036278
983,-0.035303,-0.069408,-0.056741,-0.13664,0.0043233,-0.0060706,-0.051544
984,-0.042449,-0.057065,-0.053168,-0.16458,-0.0067202,-0.046347,-0.046022
985,-0.037577,-0.033679,-0.047646,-0.1701,0.0075714,-0.060963,-0.031081
986,-0.020037,-0.0015233,-0.045697,-0.1597,0.037454,-0.060313,-0.020037
987,0.0033489,0.035505,-0.052518,-0.14476,0.073507,-0.056091,-0.023285
988,0.026735,0.06961,-0.067459,-0.13112,0.10177,-0.061288,-0.047646
989,0.048822,0.098193,-0.082725,-0.11651,0.11541,-0.084024,-0.090196
990,0.066686,0.11963,-0.091495,-0.10319,0.11638,-0.1282,-0.14054
991,0.074157,0.12872,-0.095068,-0.092469,0.10794,-0.19348,-0.18764
992,0.066686,0.11866,-0.10124,-0.085973,0.094295,-0.27696,-0.22499
993,0.048822,0.089098,-0.11261,-0.085324,0.075456,-0.36109,-0.25098
994,0.027709,0.047847,-0.12755,-0.087272,0.055318,-0.41988,-0.26592
995,0.011469,0.0052977,-0.13827,-0.088247,0.040702,-0.42897,-0.26787
996,0.0020496,-0.036278,-0.14281,-0.088572,0.037454,-0.37798,-0.25
997,-0.00054884,-0.071682,-0.14509,-0.09117,0.045899,-0.27891,-0.20648
998,-0.00022403,-0.093119,-0.14346,-0.096692,0.059865,-0.15841,-0.14411
999,0.00075039,-0.098641,-0.13794,-0.10481,0.075781,-0.041475,-0.073955
1000,-0.00087364,-0.091495,-0.12885,-0.11163,0.087149,0.054668,-0.0089938
1001,-0.0034721,-0.081101,-0.11358,-0.11845,0.090722,0.11898,0.03453
1002,-0.0028225,-0.069083,-0.094093,-0.11975,0.0865,0.14984,0.045899
1003,0.00010078,-0.061613,-0.073955,-0.11326,0.073507,0.15276,0.024786
1004,0.0062721,-0.061937,-0.053492,-0.10091,0.055318,0.14269,-0.01549
1005,0.012768,-0.070382,-0.030106,-0.090521,0.034855,0.14172,-0.04862
1006,0.017316,-0.086948,-0.00087364,-0.082076,0.015042,0.1651,-0.059014
1007,0.021213,-0.10286,0.03583,-0.072331,0.00010078,0.2161,-0.042449
1008,0.025111,-0.11098,0.073507,-0.058365,-0.0099683,0.28236,-0.0054209
1009,0.031932,-0.10644,0.10826,-0.040825,-0.014191,0.3457,0.039078
1010,0.039727,-0.090196,0.13912,-0.02361,-0.0073698,0.39214,0.079679
1011,0.046223,-0.065835,0.16348,-0.0080194,0.0049729,0.41358,0.10664
1012,0.048822,-0.035953,0.18102,0.0078962,0.018615,0.40643,0.11443
1013,0.04395,-0.0057458,0.18979,0.021863,0.026735,0.3733,0.10599
1014,0.030633,0.025436,0.18589,0.025436,0.023162,0.31874,0.084551
1015,0.012443,0.058891,0.17095,0.014068,0.0062721,0.25248,0.055968
1016,-0.0054209,0.087799,0.15049,-0.0050961,-0.021986,0.18362,0.030633
1017,-0.025884,0.10242,0.13132,-0.021012,-0.055441,0.12125,0.013743
1018,-0.047646,0.095269,0.11736,-0.025234,-0.092145,0.065387,0.0052977
1019,-0.06616,0.069285,0.10599,-0.018413,-0.13469,0.015367,0.0017248
1020,-0.073631,0.032582,0.094295,-0.0047713,-0.18536,-0.029132,0.0017248
1021,-0.067784,-0.0050961,0.082602,0.012443,-0.23993,-0.067784,0.0036737
1022,-0.055116,-0.034978,0.069285,0.030957,-0.28833,-0.096042,0.0033489
1023,-0.042774,-0.051219,0.057267,0.054344,-0.32341,-0.11651,-0.00054884
1024,-0.039851,-0.055441,0.054668,0.083576,-0.33867,-0.13892,-0.012892
1025,-0.046671,-0.050569,0.067336,0.11346,-0.33283,-0.18407,-0.034004
1026,-0.057715,-0.038227,0.090072,0.1362,-0.31399,-0.26592,-0.059339
1027,-0.066485,-0.018738,0.11606,0.14984,-0.28703,-0.37473,-0.077853
1028,-0.068758,0.0049729,0.13717,0.15406,-0.25715,-0.47932,-0.090845
1029,-0.059664,0.024461,0.14789,0.15471,-0.22467,-0.54655,-0.098965
1030,-0.040175,0.028034,0.14139,0.15536,-0.19186,-0.55889,-0.10416
1031,-0.024585,0.010495,0.1206,0.16056,-0.15646,-0.51569,-0.10059
1032,-0.021986,-0.022961,0.092346,0.17062,-0.11586,-0.43449,-0.0837
1033,-0.026209,-0.059664,0.067011,0.17842,-0.068434,-0.33478,-0.053817
1034,-0.025884,-0.083375,0.053369,0.17972,-0.019712,-0.23181,-0.01614
1035,-0.014516,-0.085324,0.054344,0.17452,0.028034,-0.13145,0.021863
1036,0.0033489,-0.06616,0.060515,0.16315,0.074157,-0.038227,0.05207
1037,0.021863,-0.037252,0.061165,0.14724,0.12223,0.044599,0.071234
1038,0.03518,-0.0083442,0.057267,0.131,0.17062,0.11476,0.081303
1039,0.041676,0.013743,0.05272,0.11898,0.21902,0.17387,0.084551
1040,0.048172,0.02706,0.047523,0.11313,0.26742,0.22292,0.084226
1041,0.056942,0.037129,0.043625,0.11573,0.31744,0.26352,0.084876
1042,0.06831,0.047523,0.042326,0.12548,0.36551,0.29568,0.087474
1043,0.07708,0.056942,0.041351,0.13749,0.40806,0.31614,0.092021
1044,0.078704,0.063438,0.039078,0.14756,0.44509,0.32621,0.093645
1045,0.06831,0.070909,0.03583,0.15081,0.48147,0.33108,0.094295
1046,0.054993,0.081303,0.034855,0.14756,0.52012,0.33043,0.098842
1047,0.049147,0.092671,0.037778,0.14237,0.55227,0.32134,0.10371
1048,0.051096,0.095919,0.041676,0.13555,0.56104,0.30542,0.10599
1049,0.057917,0.091372,0.045899,0.13132,0.54448,0.28268,0.10209
1050,0.061165,0.080328,0.046223,0.13002,0.5068,0.2567,0.089423
1051,0.056617,0.063763,0.040702,0.12548,0.44476,0.22584,0.067986
1052,0.046548,0.045249,0.028034,0.11671,0.35317,0.19011,0.040377
1053,0.039402,0.02706,0.0095202,0.10339,0.23721,0.14691,0.016341
1054,0.038753,0.0069217,-0.0096434,0.086175,0.10989,0.092996,0.0010752
1055,0.037454,-0.013866,-0.023935,0.067661,-0.011592,0.02706,-0.010293
1056,0.028034,-0.034978,-0.031081,0.046873,-0.10546,-0.04862,-0.023935
1057,0.0075714,-0.060638,-0.032705,0.024461,-0.16393,-0.12495,-0.044723
1058,-0.026209,-0.090521,-0.029782,0.0043233,-0.19024,-0.19348,-0.07428
1059,-0.071682,-0.11943,-0.027833,-0.012892,-0.19933,-0.24383,-0.11066
1060,-0.1217,-0.14314,-0.030106,-0.02361,-0.2094,-0.27274,-0.14736
1061,-0.16588,-0.16003,-0.032705,-0.027833,-0.23571,-0.28443,-0.17562
1062,-0.19868,-0.16945,-0.031081,-0.024909,-0.27696,-0.28476,-0.19154
1063,-0.21362,-0.1714,-0.02426,-0.017114,-0.32178,-0.28151,-0.19511
1064,-0.2107,-0.1675,-0.018088,-0.0057458,-0.35232,-0.27826,-0.18894
1065,-0.19186,-0.16003,-0.019063,0.0046481,-0.35784,-0.27404,-0.17854
1066,-0.1662,-0.14866,-0.026858,0.0072465,-0.33802,-0.26267,-0.17237
1067,-0.13892,-0.13242,-0.045047,-0.0037969,-0.30165,-0.23798,-0.1714
1068,-0.11423,-0.10838,-0.071357,-0.02426,-0.26332,-0.20518,-0.17367
1069,-0.090521,-0.077528,-0.10124,-0.049595,-0.23279,-0.17205,-0.17205
1070,-0.067784,-0.043748,-0.1269,-0.074605,-0.21005,-0.14541,-0.16263
1071,-0.04862,-0.012567,-0.14444,-0.095717,-0.18926,-0.12852,-0.14379
1072,-0.03173,0.016991,-0.15029,-0.11261,-0.16198,-0.11618,-0.11683
1073,-0.016789,0.044599,-0.14314,-0.12722,-0.1204,-0.10741,-0.086948
1074,-0.0021729,0.068635,-0.12982,-0.14184,-0.069083,-0.10611,-0.057715
1075,0.009845,0.0852,-0.11683,-0.15451,-0.019712,-0.11521,-0.03238
1076,0.018615,0.094945,-0.10838,-0.16523,0.014717,-0.1321,-0.01549
1077,0.025111,0.10014,-0.10644,-0.17302,0.03583,-0.15061,-0.0060706
1078,0.028359,0.10079,-0.10838,-0.17854,0.048822,-0.16393,-0.0018481
1079,0.027709,0.099817,-0.11228,-0.17854,0.06019,-0.1649,0.00042559
1080,0.02706,0.095594,-0.1204,-0.17692,0.076431,-0.14834,0.0056225
1081,0.027385,0.090397,-0.13177,-0.17205,0.10112,-0.11293,0.019589
1082,0.025436,0.084551,-0.13957,-0.16555,0.131,-0.069083,0.040052
1083,0.013093,0.075131,-0.13827,-0.15678,0.15796,-0.041475,0.060515
1084,-0.013541,0.063113,-0.1256,-0.14704,0.1664,-0.05804,0.073507
1085,-0.043099,0.051745,-0.10514,-0.13404,0.15049,-0.1204,0.080003
1086,-0.064211,0.041351,-0.079152,-0.11066,0.11183,-0.20128,0.083901
1087,-0.070058,0.033881,-0.04992,-0.071357,0.065387,-0.26397,0.092021
1088,-0.061613,0.031932,-0.023935,-0.021661,0.025436,-0.28346,0.10599
1089,-0.046347,0.033556,-0.0028225,0.028684,0.0072465,-0.26104,0.1245
1090,-0.028482,0.039727,0.01017,0.067336,0.022512,-0.20908,0.14464
1091,-0.0089938,0.048822,0.021863,0.088124,0.067011,-0.14314,0.16283
1092,0.012443,0.062789,0.037454,0.094295,0.1206,-0.080127,0.1768
1093,0.034206,0.079679,0.05272,0.084876,0.15276,-0.030106,0.18329
1094,0.049472,0.093321,0.065062,0.061489,0.14237,0.0036737,0.17485
1095,0.057917,0.098517,0.071558,0.029983,0.087474,0.022188,0.15211
1096,0.060515,0.095594,0.071234,0.0017248,0.0010752,0.028359,0.12125
1097,0.060515,0.088773,0.067986,-0.018413,-0.094743,0.028684,0.089748
1098,0.06019,0.086175,0.065712,-0.025234,-0.17659,0.03453,0.065062
1099,0.061814,0.092346,0.064737,-0.019063,-0.22467,0.052395,0.049147
1100,0.070584,0.10501,0.069285,-0.0060706,-0.23311,0.083251,0.044275
1101,0.081952,0.11736,0.080328,0.0069217,-0.21102,0.1271,0.051745
1102,0.092021,0.12385,0.089423,0.013093,-0.1727,0.18134,0.06961
1103,0.097543,0.1232,0.086824,0.012119,-0.13307,0.23559,0.090397
1104,0.094945,0.11476,0.070584,0.0010752,-0.10124,0.26417,0.10826
1105,0.084876,0.10047,0.042975,-0.014516,-0.0824,0.24923,0.11606
1106,0.073832,0.086175,0.013093,-0.030106,-0.075579,0.18459,0.11086
1107,0.067986,0.076106,-0.0080194,-0.040175,-0.077528,0.083576,0.096893
1108,0.06896,0.071558,-0.013216,-0.041475,-0.081101,-0.024909,0.080978
1109,0.078055,0.071234,-0.0028225,-0.036927,-0.08305,-0.11618,0.06896
1110,0.088773,0.074806,0.012768,-0.028482,-0.080451,-0.17919,0.064737
1111,0.095269,0.07708,0.022837,-0.021661,-0.07493,-0.21265,0.065712
1112,0.093321,0.076431,0.023812,-0.01614,-0.068434,-0.2172,0.070584
1113,0.090397,0.079029,0.016991,-0.010293,-0.054467,-0.19608,0.079029
1114,0.091047,0.086175,0.014392,-0.00087364,-0.034329,-0.14541,0.091372
1115,0.099167,0.095269,0.026085,0.016341,-0.010943,-0.063561,0.10631
1116,0.11183,0.10242,0.05272,0.04395,0.0069217,0.047523,0.1258
1117,0.12255,0.10079,0.086824,0.074806,0.0069217,0.18069,0.15081
1118,0.12515,0.089098,0.11281,0.10177,-0.010618,0.31906,0.17387
1119,0.12125,0.073182,0.12353,0.11768,-0.034004,0.44541,0.18622
1120,0.11378,0.061489,0.12418,0.12093,-0.047646,0.5487,0.18394
1121,0.10696,0.056292,0.1206,0.11411,-0.04115,0.61886,0.16835
1122,0.10306,0.06019,0.11801,0.10729,-0.01614,0.65199,0.14302
1123,0.10501,0.06831,0.11216,0.10242,0.019914,0.64777,0.11541
1124,0.10826,0.069285,0.10177,0.10014,0.049147,0.60911,0.084551
1125,0.10501,0.058891,0.0865,0.10209,0.062464,0.54383,0.046548
1126,0.095594,0.039727,0.070259,0.10599,0.059541,0.45873,0.0033489
1127,0.079679,0.015042,0.054668,0.10826,0.041351,0.35999,-0.038551
1128,0.057592,-0.010618,0.040702,0.10274,0.011144,0.26222,-0.071682
1129,0.030633,-0.030756,0.029009,0.087149,-0.020037,0.18329,-0.089546
1130,0.0065969,-0.040175,0.020239,0.065062,-0.043423,0.13067,-0.092145
1131,-0.0093186,-0.037577,0.013418,0.041676,-0.059664,0.095919,-0.084024
1132,-0.013866,-0.026858,0.015367,0.025436,-0.070382,0.053044,-0.070382
1133,-0.0089938,-0.011917,0.029009,0.01764,-0.083375,-0.03303,-0.059339
1134,-0.0041217,0.00075039,0.04395,0.012443,-0.10319,-0.18212,-0.058689
1135,-0.0083442,0.008221,0.052395,0.0085458,-0.1321,-0.38415,-0.071357
1136,-0.018413,0.01017,0.053694,0.009845,-0.16782,-0.59722,-0.087597
1137,-0.030106,0.008221,0.049147,0.02706,-0.20745,-0.77586,-0.093119
1138,-0.039526,0.0065969,0.039402,0.063763,-0.24545,-0.88403,-0.080776
1139,-0.044398,0.011144,0.025436,0.12093,-0.27209,-0.90579,-0.053492
1140,-0.041799,0.020239,0.014068,0.18719,-0.28216,-0.85219,-0.020037
1141,-0.033354,0.029333,0.012443,0.24273,-0.27534,-0.74955,0.011144
1142,-0.028157,0.030633,0.017316,0.258,-0.25487,-0.62223,0.033556
1143,-0.032055,0.017965,0.015367,0.20278,-0.23051,-0.48906,0.040702
1144,-0.043099,-0.0067202,-0.0011985,0.074806,-0.20843,-0.35719,0.029333
1145,-0.057065,-0.034654,-0.025234,-0.095393,-0.18082,-0.23701,0.0020496
1146,-0.068434,-0.054792,-0.047646,-0.2487,-0.13534,-0.13145,-0.035303
1147,-0.075255,-0.060963,-0.05804,-0.33478,-0.072981,-0.042774,-0.079152
1148,-0.076879,-0.057715,-0.054467,-0.3364,-0.0089938,0.036154,-0.12495
1149,-0.072981,-0.049595,-0.0405,-0.27534,0.039078,0.11216,-0.16328
1150,-0.063886,-0.039526,-0.02426,-0.18796,0.058566,0.18881,-0.18959
1151,-0.052843,-0.029782,-0.011917,-0.10709,0.066686,0.27424,-0.19966
1152,-0.042449,-0.022636,-0.0034721,-0.04927,0.092996,0.3733,-0.18959
1153,-0.029782,-0.016464,0.0023744,-0.015815,0.15406,0.48309,-0.16133
1154,-0.018738,-0.012567,0.0069217,-0.0011985,0.24306,0.59645,-0.12008
1155,-0.010618,-0.0083442,0.0088706,0.0014,0.32783,0.68772,-0.078827
1156,-0.0067202,-0.0028225,0.009845,-0.0015233,0.37883,0.72345,-0.04862
1157,-0.0044465,0.0023744,0.0052977,-0.0076946,0.3837,0.68577,-0.031081
1158,0.00042559,0.0056225,-0.0099683,-0.014191,0.34472,0.59255,-0.018738
1159,0.008221,0.0091954,-0.03173,-0.020687,0.27424,0.47854,0.00010078
1160,0.021213,0.014717,-0.052518,-0.024585,0.19693,0.37428,0.030633
1161,0.038103,0.024137,-0.068109,-0.026533,0.13522,0.28723,0.071234
1162,0.052395,0.035505,-0.076554,-0.021986,0.098193,0.207,0.11118
1163,0.060515,0.050771,-0.076554,-0.011267,0.081952,0.11963,0.14139
1164,0.064413,0.067011,-0.069733,0.0056225,0.073182,0.016341,0.15568
1165,0.067661,0.080653,-0.06551,0.026735,0.063113,-0.098965,0.15179
1166,0.071883,0.086175,-0.064861,0.053369,0.054668,-0.21297,0.13652
1167,0.076431,0.0852,-0.065186,0.077405,0.06084,-0.30035,0.11541
1168,0.083251,0.080653,-0.068109,0.091372,0.096244,-0.34322,0.094295
1169,0.092996,0.073507,-0.079152,0.088448,0.17062,-0.33543,0.080328
1170,0.10631,0.063113,-0.10059,0.073507,0.27716,-0.28865,0.076106
1171,0.12255,0.047198,-0.13275,0.053044,0.39052,-0.21979,0.075131
1172,0.13197,0.031282,-0.1753,0.03583,0.47042,-0.14476,0.064737
1173,0.12385,0.016016,-0.21655,0.028359,0.48374,-0.076879,0.038428
1174,0.098193,0.00010078,-0.25195,0.032906,0.42982,-0.019712,-0.0024977
1175,0.059865,-0.017764,-0.27469,0.050771,0.33985,0.028359,-0.048945
1176,0.016666,-0.037577,-0.28313,0.081952,0.2554,0.073182,-0.092794
1177,-0.023285,-0.056091,-0.27176,0.12743,0.19758,0.12223,-0.12592
1178,-0.053817,-0.068758,-0.23279,0.18427,0.16965,0.1716,-0.14281
1179,-0.070382,-0.071357,-0.1727,0.23721,0.16056,0.2122,-0.14184
1180,-0.072656,-0.063886,-0.10968,0.26872,0.15796,0.23948,-0.12495
1181,-0.063886,-0.049595,-0.06551,0.26417,0.14886,0.27002,-0.096692
1182,-0.052518,-0.039201,-0.052843,0.21902,0.1245,0.31744,-0.062262
1183,-0.045697,-0.038876,-0.066485,0.14951,0.084551,0.37525,-0.028482
1184,-0.047321,-0.045697,-0.085648,0.075456,0.034855,0.42105,-0.0021729
1185,-0.055441,-0.052193,-0.084674,0.019264,-0.018738,0.43729,0.015367
1186,-0.065186,-0.051868,-0.046996,-0.0047713,-0.06551,0.41456,0.027385
1187,-0.072331,-0.047646,0.035505,0.008221,-0.10124,0.35447,0.033231
1188,-0.076879,-0.046671,0.16803,0.051745,-0.12592,0.27391,0.031282
1189,-0.077853,-0.054142,0.34472,0.11118,-0.14119,0.19304,0.029009
1190,-0.073306,-0.070058,0.53896,0.16478,-0.15029,0.1271,0.030308
1191,-0.06551,-0.08305,0.70493,0.19791,-0.16165,0.079679,0.037454
1192,-0.056416,-0.086948,0.7962,0.2044,-0.17919,0.042651,0.049472
1193,-0.050894,-0.078503,0.79458,0.19044,-0.2029,0.0088706,0.061489
1194,-0.04992,-0.060313,0.7202,0.16283,-0.22726,-0.024585,0.067986
1195,-0.053817,-0.039851,0.61106,0.13327,-0.24545,-0.055766,0.06831
1196,-0.059014,-0.025884,0.49803,0.11054,-0.25033,-0.085973,0.066037
1197,-0.059989,-0.022311,0.39994,0.095919,-0.23636,-0.12138,0.056292
1198,-0.050894,-0.029782,0.31484,0.08585,-0.2029,-0.1688,0.03518
1199,-0.033679,-0.0405,0.23364,0.071883,-0.14899,-0.23214,0.0049729
1200,-0.0089938,-0.049595,0.15438,0.048172,-0.076879,-0.30197,-0.024909
1201,0.022837,-0.051868,0.084551,0.015042,-0.0050961,-0.36336,-0.04992
1202,0.057267,-0.045697,0.027709,-0.02361,0.046548,-0.40493,-0.063886
1203,0.087149,-0.034654,-0.015815,-0.059339,0.065387,-0.42312,-0.062262
1204,0.10891,-0.023935,-0.048296,-0.084349,0.053694,-0.42442,-0.046671
1205,0.11898,-0.017439,-0.06616,-0.089221,0.026735,-0.41923,-0.019388
1206,0.11931,-0.0099683,-0.062262,-0.071357,0.0026992,-0.41565,0.014392
1207,0.11638,0.0062721,-0.040175,-0.039526,-0.011917,-0.41923,0.048822
1208,0.10664,0.034206,-0.010618,-0.0089938,-0.017114,-0.43936,0.067336
1209,0.092021,0.067661,0.014717,0.0049729,-0.013541,-0.47964,0.06019
1210,0.072858,0.10144,0.026735,-0.0047713,-0.010293,-0.53648,0.023487
1211,0.048497,0.12645,0.020888,-0.035628,-0.018413,-0.59267,-0.032055
1212,0.017316,0.13035,0.00075039,-0.077528,-0.044398,-0.6258,-0.086948
1213,-0.019388,0.10599,-0.03238,-0.11878,-0.0837,-0.62126,-0.12463
1214,-0.057715,0.058241,-0.069083,-0.14801,-0.12592,-0.57806,-0.13404
1215,-0.090196,-0.00087364,-0.096042,-0.15938,-0.1623,-0.50692,-0.11196
1216,-0.10838,-0.04862,-0.10676,-0.15126,-0.18244,-0.41695,-0.068758
1217,-0.10351,-0.068758,-0.10968,-0.1282,-0.18699,-0.32503,-0.019063
1218,-0.078827,-0.059664,-0.11261,-0.097991,-0.18212,-0.24675,0.022837
1219,-0.044073,-0.038227,-0.12365,-0.067459,-0.17724,-0.19543,0.043625
1220,-0.013541,-0.023285,-0.14216,-0.042124,-0.17757,-0.17335,0.036154
1221,-0.0028225,-0.019712,-0.16198,-0.025559,-0.18374,-0.17302,0.0046481
1222,-0.012567,-0.026533,-0.18114,-0.021337,-0.19089,-0.18244,-0.034329
1223,-0.034004,-0.034004,-0.19413,-0.029457,-0.19316,-0.18634,-0.064211
1224,-0.056091,-0.035953,-0.19868,-0.051544,-0.19024,-0.17822,-0.076879
1225,-0.06616,-0.028807,-0.19836,-0.079802,-0.18666,-0.16068,-0.078178
1226,-0.058365,-0.01484,-0.19478,-0.10741,-0.18861,-0.14022,-0.079477
1227,-0.036278,0.00075039,-0.18536,-0.1295,-0.19641,-0.1256,-0.080776
1228,-0.010618,0.013418,-0.16458,-0.14216,-0.20453,-0.11293,-0.075255
1229,0.012768,0.020888,-0.13437,-0.14216,-0.2029,-0.093769,-0.055766
1230,0.026735,0.028034,-0.10449,-0.13145,-0.18699,-0.058689,-0.026533
1231,0.029009,0.036154,-0.080776,-0.11586,-0.15581,-0.0031473,0.003024
1232,0.021538,0.04395,-0.067134,-0.10449,-0.11488,0.065062,0.027709
1233,0.0069217,0.046223,-0.061937,-0.09929,-0.07493,0.1336,0.044924
1234,-0.0099683,0.047523,-0.059664,-0.098641,-0.038876,0.19304,0.056292
1235,-0.022961,0.048172,-0.060963,-0.094418,-0.0015233,0.23461,0.067336
1236,-0.028807,0.050771,-0.064861,-0.080451,0.042001,0.25865,0.082927
1237,-0.026533,0.056942,-0.072981,-0.057715,0.087799,0.26904,0.10177
1238,-0.01549,0.067011,-0.084024,-0.034004,0.13749,0.26742,0.11671
1239,-0.0031473,0.081303,-0.097991,-0.017114,0.18751,0.25767,0.12678
1240,0.0033489,0.092671,-0.10806,-0.0083442,0.23039,0.24728,0.13425
1241,-0.00054884,0.091372,-0.123,-0.0080194,0.2515,0.23851,0.13587
1242,-0.010943,0.072533,-0.14509,-0.01484,0.24955,0.23006,0.1284
1243,-0.022961,0.044599,-0.16523,-0.023935,0.22877,0.21805,0.11281
1244,-0.027833,0.022837,-0.1753,-0.028157,0.20181,0.20148,0.095919
1245,-0.019388,0.017965,-0.17497,-0.025884,0.1768,0.18037,0.088448
1246,0.0026992,0.032906,-0.16523,-0.01614,0.15796,0.15763,0.092996
1247,0.033556,0.059865,-0.14834,-0.0034721,0.14107,0.13392,0.098517
1248,0.065062,0.087799,-0.12917,0.0078962,0.11833,0.11248,0.099167
1249,0.093321,0.10436,-0.11553,0.012768,0.0852,0.097868,0.090722
1250,0.11378,0.10534,-0.11618,0.013093,0.045574,0.092346,0.073832
1251,0.12548,0.095269,-0.12722,0.015367,0.0072465,0.092996,0.057592
1252,0.12937,0.078704,-0.13957,0.020564,-0.02426,0.099817,0.050121
1253,0.12905,0.061814,-0.14314,0.023812,-0.051544,0.10794,0.054993
1254,0.1271,0.046548,-0.1321,0.022188,-0.072656,0.11671,0.06831
1255,0.12678,0.03583,-0.10026,0.021213,-0.084999,0.12937,0.0852
1256,0.1271,0.032906,-0.034654,0.028034,-0.086623,0.14464,0.10177
1257,0.1232,0.037129,0.06831,0.047198,-0.082725,0.16056,0.11346
1258,0.11606,0.046873,0.18881,0.073832,-0.079802,0.17225,0.11671
1259,0.10404,0.058566,0.29178,0.096244,-0.079802,0.18881,0.11378
1260,0.09462,0.070259,0.34797,0.10501,-0.0824,0.22292,0.10924
1261,0.088124,0.084226,0.34602,0.097543,-0.092145,0.27911,0.10534
1262,0.086824,0.10274,0.29762,0.078379,-0.11196,0.3444,0.10371
1263,0.088773,0.1206,0.22812,0.055968,-0.14022,0.39702,0.10436
1264,0.092346,0.12872,0.1625,0.038428,-0.16425,0.41553,0.10599
1265,0.090722,0.12255,0.11508,0.031607,-0.1714,0.39377,0.10501
1266,0.082277,0.10404,0.088448,0.034855,-0.16198,0.34407,0.10014
1267,0.068635,0.081627,0.075131,0.0433,-0.14411,0.28561,0.096569
1268,0.054668,0.063113,0.066686,0.053044,-0.12495,0.22617,0.095269
1269,0.047847,0.048822,0.059216,0.058891,-0.11358,0.16153,0.090072
1270,0.047523,0.039402,0.052395,0.063763,-0.11423,0.088448,0.078704
1271,0.048172,0.029333,0.041676,0.069934,-0.12333,0.011144,0.061489
1272,0.041676,0.016341,0.028684,0.079679,-0.12917,-0.062912,0.040377
1273,0.021863,-0.00087364,0.013418,0.091372,-0.11943,-0.1256,0.012119
1274,-0.012567,-0.025559,-0.00054884,0.10014,-0.090845,-0.1727,-0.025234
1275,-0.050894,-0.056091,-0.0073698,0.10112,-0.050894,-0.20485,-0.064536
1276,-0.076879,-0.087597,-0.007045,0.096569,-0.016464,-0.22109,-0.093444
1277,-0.081751,-0.11228,-0.00054884,0.088448,0.0014,-0.2172,-0.10221
1278,-0.069408,-0.12527,0.0049729,0.082277,0.0056225,-0.19673,-0.091495
1279,-0.055441,-0.12495,0.0043233,0.078704,0.01017,-0.16815,-0.075255
1280,-0.046671,-0.11423,-0.0031473,0.076755,0.031607,-0.14281,-0.064536
1281,-0.046347,-0.095717,-0.013866,0.075456,0.073182,-0.12463,-0.064861
1282,-0.052843,-0.076879,-0.024909,0.073832,0.1219,-0.12073,-0.07428
1283,-0.062587,-0.068109,-0.038876,0.069934,0.1638,-0.13177,-0.091495
1284,-0.072006,-0.07428,-0.056416,0.060515,0.18622,-0.15418,-0.11423
1285,-0.078503,-0.085648,-0.078827,0.046223,0.18459,-0.17822,-0.13924
1286,-0.080127,-0.091495,-0.10221,0.031607,0.16575,-0.17919,-0.15711
1287,-0.078178,-0.087922,-0.11845,0.019914,0.13879,-0.13762,-0.16003
1288,-0.077203,-0.075255,-0.12138,0.014717,0.11216,-0.055116,-0.14346
1289,-0.078827,-0.055441,-0.11196,0.016341,0.089098,0.045899,-0.11391
1290,-0.075904,-0.032055,-0.091495,0.021863,0.065712,0.13717,-0.077203
1291,-0.064211,-0.007045,-0.063237,0.026735,0.037129,0.20278,-0.04115
1292,-0.0405,0.016341,-0.03238,0.026085,0.0046481,0.23786,-0.014191
1293,-0.013541,0.037454,-0.0054209,0.022837,-0.023285,0.24436,-0.00087364
1294,0.0059473,0.05207,0.012768,0.015692,-0.039851,0.22974,-0.0060706
1295,0.014392,0.058891,0.019914,0.0033489,-0.039526,0.2044,-0.026533
1296,0.015042,0.058566,0.01764,-0.016789,-0.024585,0.18037,-0.04992
1297,0.013093,0.054019,0.0075714,-0.045697,-0.0018481,0.16673,-0.066485
1298,0.01017,0.048497,-0.0083442,-0.080127,0.019914,0.16868,-0.07493
1299,0.0039985,0.050771,-0.030431,-0.11033,0.031932,0.18037,-0.07493
1300,-0.0060706,0.063438,-0.051219,-0.1256,0.032906,0.19596,-0.06616
1301,-0.017114,0.083251,-0.061613,-0.12495,0.029983,0.20765,-0.053817
1302,-0.026858,0.10014,-0.056091,-0.11001,0.032582,0.21188,-0.041475
1303,-0.032055,0.10274,-0.043099,-0.086948,0.045249,0.19953,-0.030431
1304,-0.036927,0.081952,-0.038551,-0.059339,0.065387,0.16868,-0.023285
1305,-0.046671,0.041027,-0.048296,-0.031081,0.089098,0.12255,-0.022636
1306,-0.062262,-0.0083442,-0.059339,-0.0060706,0.11411,0.06896,-0.029782
1307,-0.076554,-0.053817,-0.059339,0.012443,0.13782,0.015042,-0.042449
1308,-0.082076,-0.088247,-0.042124,0.02706,0.16185,-0.033679,-0.056091
1309,-0.074605,-0.10709,-0.014191,0.042326,0.18622,-0.076879,-0.066485
1310,-0.054792,-0.10968,0.013418,0.055643,0.20343,-0.11553,-0.069408
1311,-0.029132,-0.097666,0.035505,0.069285,0.20278,-0.14314,-0.06616
1312,-0.0028225,-0.075255,0.044924,0.078055,0.18037,-0.15451,-0.060638
1313,0.020564,-0.050569,0.045899,0.084226,0.13814,-0.14736,-0.050244
1314,0.036804,-0.031081,0.048497,0.091696,0.083901,-0.1217,-0.030431
1315,0.044599,-0.020037,0.059216,0.10242,0.034206,-0.082725,-0.0015233
1316,0.045574,-0.01549,0.079029,0.11736,-0.0015233,-0.039526,0.030957
1317,0.0433,-0.014191,0.099167,0.13262,-0.015165,-0.0073698,0.055643
1318,0.038103,-0.01549,0.11378,0.14237,-0.0083442,0.0020496,0.066686
1319,0.027385,-0.013866,0.12255,0.14724,0.011469,-0.010618,0.063438
1320,0.015042,-0.0096434,0.12613,0.14399,0.032906,-0.039851,0.053694
1321,0.0052977,-0.0034721,0.12645,0.13165,0.045574,-0.075255,0.041027
1322,-0.0031473,0.0075714,0.12548,0.11216,0.040702,-0.10579,0.031607
1323,-0.0083442,0.023812,0.12775,0.090397,0.014717,-0.11845,0.030633
1324,-0.010618,0.045574,0.13879,0.06831,-0.020362,-0.10449,0.038753
1325,-0.0099683,0.067986,0.15926,0.050121,-0.056416,-0.061613,0.058566
1326,-0.0037969,0.088124,0.18232,0.038753,-0.083375,0.0078962,0.086824
1327,0.012119,0.10274,0.20213,0.038428,-0.097991,0.09462,0.12125
1328,0.037129,0.11248,0.21415,0.047523,-0.10189,0.18134,0.15341
1329,0.064413,0.12028,0.22,0.061814,-0.096367,0.2502,0.17225
1330,0.084876,0.12905,0.21935,0.071883,-0.09117,0.28236,0.16998
1331,0.09397,0.14399,0.21447,0.068635,-0.091495,0.27229,0.14529
1332,0.09462,0.16413,0.2096,0.050771,-0.09994,0.22552,0.10047
1333,0.09397,0.18687,0.20928,0.023812,-0.11521,0.15146,0.045574
1334,0.096244,0.20895,0.21707,0.0026992,-0.12625,0.063763,-0.0073698
1335,0.10144,0.22974,0.22844,-0.0024977,-0.12852,-0.026533,-0.047646
1336,0.10469,0.24371,0.23494,0.0091954,-0.12105,-0.11196,-0.068434
1337,0.10306,0.24501,0.22552,0.029658,-0.10806,-0.18082,-0.065835
1338,0.094295,0.23071,0.19791,0.04395,-0.09994,-0.22304,-0.047321
1339,0.0865,0.20278,0.1625,0.039727,-0.097991,-0.23636,-0.021337
1340,0.081303,0.16315,0.13067,0.014717,-0.10254,-0.22304,0.0095202
1341,0.080653,0.11736,0.10501,-0.021661,-0.098316,-0.19608,0.041676
1342,0.079354,0.074482,0.087474,-0.054467,-0.076229,-0.16263,0.072208
1343,0.076106,0.038753,0.076106,-0.073631,-0.031081,-0.12657,0.10209
1344,0.069285,0.011469,0.067986,-0.077528,0.029658,-0.092794,0.12743
1345,0.057592,-0.0083442,0.05272,-0.068434,0.097543,-0.068758,0.14464
1346,0.046873,-0.02361,0.030308,-0.050569,0.16056,-0.060313,0.14756
1347,0.038103,-0.041799,-0.0015233,-0.026858,0.21382,-0.065835,0.13425
1348,0.029658,-0.061613,-0.037577,0.00075039,0.2567,-0.077528,0.11118
1349,0.017965,-0.082725,-0.070382,0.034855,0.29113,-0.079802,0.086824
1350,0.00075039,-0.10514,-0.096692,0.074157,0.32491,-0.064536,0.067661
1351,-0.021661,-0.12625,-0.12008,0.11476,0.36356,-0.036927,0.045574
1352,-0.047971,-0.13762,-0.14444,0.14919,0.40384,-0.0050961,0.015042
1353,-0.073631,-0.13664,-0.16945,0.169,0.43827,0.030633,-0.020687
1354,-0.09117,-0.12268,-0.19251,0.16998,0.46035,0.075131,-0.050569
1355,-0.097017,-0.10514,-0.21232,0.15601,0.46328,0.12743,-0.061288
1356,-0.094743,-0.088896,-0.22921,0.13457,0.44216,0.17615,-0.051219
1357,-0.092794,-0.081751,-0.2435,0.11378,0.39864,0.20733,-0.03303
1358,-0.095393,-0.088572,-0.25357,0.099167,0.34602,0.20376,-0.018413
1359,-0.10286,-0.10774,-0.25585,0.090072,0.29568,0.16121,-0.015815
1360,-0.10968,-0.1308,-0.24643,0.08585,0.25475,0.089748,-0.022311
1361,-0.10774,-0.14801,-0.22272,0.083576,0.22259,0.014068,-0.027833
1362,-0.092469,-0.15061,-0.18504,0.086175,0.19758,-0.037577,-0.022636
1363,-0.068434,-0.13729,-0.13762,0.092346,0.17777,-0.056416,-0.0054209
1364,-0.040825,-0.11163,-0.090196,0.097543,0.15958,-0.042774,0.025111
1365,-0.01484,-0.080127,-0.048945,0.099817,0.13132,-0.011917,0.063438
1366,0.003024,-0.052843,-0.017439,0.097218,0.087149,0.020888,0.095919
1367,0.014717,-0.035953,0.008221,0.092346,0.022188,0.040377,0.10956
1368,0.021538,-0.028482,0.031282,0.084551,-0.058365,0.040702,0.095269
1369,0.023812,-0.025559,0.05207,0.074157,-0.14249,0.019914,0.058241
1370,0.019589,-0.022636,0.065387,0.054993,-0.21947,-0.021661,0.0078962
1371,0.014717,-0.014516,0.067661,0.025111,-0.28508,-0.077528,-0.042124
1372,0.0085458,-0.0047713,0.061814,-0.013216,-0.339,-0.13729,-0.080776
1373,0.0020496,0.003024,0.059541,-0.04992,-0.37798,-0.18894,-0.10124
1374,-0.0047713,0.0039985,0.065062,-0.075579,-0.39844,-0.22402,-0.10124
1375,-0.0073698,0.00042559,0.07773,-0.084349,-0.39551,-0.23603,-0.087922
1376,-0.0011985,-0.00054884,0.093645,-0.079802,-0.37018,-0.22142,-0.065186
1377,0.016016,0.0046481,0.10989,-0.070058,-0.32763,-0.18342,-0.034654
1378,0.042326,0.01829,0.12515,-0.056091,-0.27923,-0.13047,0.0014
1379,0.074482,0.039078,0.13782,-0.039851,-0.2435,-0.073306,0.040702
1380,0.096893,0.064413,0.14204,-0.029782,-0.22174,-0.02426,0.076755
1381,0.10566,0.085525,0.13327,-0.030756,-0.20972,0.012768,0.099167
1382,0.097218,0.094295,0.11671,-0.045047,-0.19511,0.0433,0.10047
1383,0.073182,0.086175,0.095594,-0.068758,-0.15516,0.080653,0.08585
1384,0.039727,0.067011,0.073182,-0.095717,-0.082725,0.13067,0.067661
1385,0.0065969,0.046873,0.054668,-0.11813,0.0049729,0.18524,0.050771
1386,-0.014191,0.03518,0.04395,-0.1295,0.076431,0.23169,0.040702
1387,-0.021986,0.03583,0.041676,-0.12852,0.10436,0.25767,0.03453
1388,-0.017764,0.045249,0.042651,-0.1191,0.080328,0.25572,0.030957
1389,-0.0093186,0.054344,0.042326,-0.11163,0.017965,0.22877,0.02706
1390,-0.0031473,0.060515,0.033231,-0.10741,-0.058365,0.18784,0.023162
1391,-0.0044465,0.061165,0.015692,-0.10351,-0.12495,0.14334,0.019914
1392,-0.011592,0.057592,-0.010943,-0.099615,-0.16393,0.099492,0.013418
1393,-0.016789,0.05207,-0.042449,-0.093119,-0.17237,0.058566,0.0020496
1394,-0.0067202,0.047847,-0.07493,-0.081751,-0.15321,0.020564,-0.008669
1395,0.022512,0.048822,-0.10254,-0.063237,-0.11261,-0.0054209,-0.012892
1396,0.064088,0.054344,-0.11715,-0.032055,-0.063561,-0.014191,-0.0096434
1397,0.10436,0.060515,-0.11975,0.0088706,-0.022961,-0.01484,-0.0015233
1398,0.1297,0.059216,-0.11651,0.055643,0.00010078,-0.02361,0.011794
1399,0.13327,0.048497,-0.11131,0.094295,0.0043233,-0.051868,0.023812
1400,0.11508,0.033881,-0.10416,0.11216,-0.01549,-0.11066,0.029658
1401,0.081303,0.020239,-0.094743,0.10306,-0.054467,-0.19803,0.02641
1402,0.043625,0.012443,-0.0824,0.072533,-0.10221,-0.28833,0.016341
1403,0.0095202,0.015692,-0.065186,0.037778,-0.14152,-0.35329,0.0091954
1404,-0.015165,0.028034,-0.041799,0.011469,-0.15548,-0.37375,0.0072465
1405,-0.027183,0.045249,-0.012892,-0.00054884,-0.14184,-0.34517,0.012443
1406,-0.027833,0.061165,0.022837,0.0036737,-0.10416,-0.27664,0.022188
1407,-0.023935,0.071234,0.058891,0.019264,-0.051868,-0.18861,0.034855
1408,-0.024585,0.069934,0.087474,0.036479,-0.0050961,-0.10838,0.04395
1409,-0.030756,0.055968,0.098517,0.045574,0.017316,-0.063886,0.041027
1410,-0.038551,0.031932,0.086824,0.040377,0.008221,-0.070058,0.026085
1411,-0.042449,0.0065969,0.057592,0.023812,-0.025234,-0.11001,0.0052977
1412,-0.043423,-0.012567,0.023812,0.0010752,-0.060963,-0.15093,-0.012242
1413,-0.044073,-0.022961,-0.0093186,-0.02361,-0.071682,-0.16653,-0.022311
1414,-0.043099,-0.024585,-0.038227,-0.045372,-0.043423,-0.14606,-0.025559
1415,-0.035953,-0.018738,-0.058365,-0.060963,0.012443,-0.10189,-0.024585
1416,-0.02361,-0.0063954,-0.070707,-0.071032,0.065387,-0.050569,-0.025234
1417,-0.010618,0.0069217,-0.077528,-0.075255,0.080003,-0.0057458,-0.030106
1418,0.0014,0.017316,-0.083375,-0.072981,0.042001,0.033881,-0.036927
1419,0.012119,0.02706,-0.085973,-0.06616,-0.03303,0.06961,-0.040825
1420,0.01764,0.03518,-0.087597,-0.061288,-0.11033,0.10794,-0.037252
1421,0.022188,0.038753,-0.088572,-0.059014,-0.1623,0.15276,-0.025559
1422,0.030308,0.039727,-0.085648,-0.059664,-0.17659,0.19661,-0.0041217
1423,0.041676,0.043625,-0.079152,-0.058689,-0.1597,0.21707,0.024137
1424,0.058241,0.049472,-0.06681,-0.055441,-0.12268,0.20603,0.054344
1425,0.075456,0.055968,-0.04927,-0.046996,-0.07428,0.17192,0.080978
1426,0.085525,0.061814,-0.025884,-0.033679,-0.025884,0.13262,0.095594
1427,0.084226,0.064737,-0.0034721,-0.019388,0.011469,0.10209,0.098193
1428,0.076431,0.063763,0.015042,-0.008669,0.03518,0.086824,0.090722
1429,0.061814,0.058566,0.025761,-0.0073698,0.051096,0.079354,0.075456
1430,0.04395,0.048497,0.025436,-0.013216,0.074157,0.071883,0.059216
1431,0.025111,0.031932,0.016666,-0.021986,0.10956,0.064737,0.05207
1432,0.0059473,0.011144,0.0069217,-0.024909,0.14789,0.062139,0.057917
1433,-0.0093186,-0.013216,0.0039985,-0.01614,0.17387,0.072208,0.06896
1434,-0.021012,-0.037577,0.01017,0.00075039,0.17387,0.096569,0.074157
1435,-0.034329,-0.059339,0.027709,0.021538,0.14399,0.1284,0.062139
1436,-0.055766,-0.073631,0.055643,0.039078,0.087799,0.15244,0.029983
1437,-0.075579,-0.077203,0.082602,0.053044,0.016341,0.15698,-0.013216
1438,-0.084024,-0.069408,0.095919,0.067986,-0.051544,0.14009,-0.054467
1439,-0.071032,-0.053817,0.091372,0.087799,-0.093444,0.10664,-0.0824
1440,-0.044398,-0.037252,0.072533,0.10501,-0.095393,0.058891,-0.093769
1441,-0.019063,-0.027183,0.046548,0.11216,-0.062912,-0.010943,-0.095393
1442,-0.0041217,-0.027833,0.021538,0.10501,-0.019712,-0.1178,-0.095717
1443,0.0023744,-0.036602,0.00010078,0.083901,0.00075039,-0.25552,-0.10091
1444,0.0062721,-0.047971,-0.016464,0.053694,-0.010293,-0.39454,-0.10871
1445,0.016991,-0.052843,-0.027833,0.024786,-0.045047,-0.4962,-0.11196
1446,0.03518,-0.044723,-0.03238,0.0056225,-0.083375,-0.53388,-0.10709
1447,0.058891,-0.022961,-0.031406,-0.0024977,-0.10579,-0.5053,-0.092469
1448,0.080328,0.0049729,-0.026858,-0.0054209,-0.10709,-0.42962,-0.073631
1449,0.091696,0.029009,-0.017439,-0.0067202,-0.092469,-0.33315,-0.056416
1450,0.089098,0.046548,-0.0067202,-0.0083442,-0.070707,-0.23766,-0.04115
1451,0.07773,0.058566,0.0062721,-0.010618,-0.052193,-0.1597,-0.02426
1452,0.063113,0.065712,0.020564,-0.011267,-0.044723,-0.10611,-0.0063954
1453,0.044275,0.062789,0.032582,-0.011917,-0.04862,-0.071357,0.0052977
1454,0.016016,0.045899,0.031607,-0.01614,-0.061613,-0.046347,0.0017248
1455,-0.02361,0.016991,0.014068,-0.027183,-0.078827,-0.019712,-0.01549
1456,-0.062587,-0.01549,-0.019388,-0.035628,-0.095717,0.022512,-0.039201
1457,-0.090845,-0.044398,-0.055441,-0.025884,-0.10611,0.097218,-0.057065
1458,-0.10221,-0.060638,-0.080776,0.017965,-0.10611,0.21123,-0.064536
1459,-0.098316,-0.064211,-0.092145,0.095919,-0.097341,0.35414,-0.062587
1460,-0.080451,-0.059664,-0.091495,0.19076,-0.08305,0.49998,-0.053168
1461,-0.051868,-0.047321,-0.081426,0.26547,-0.063237,0.61853,-0.035303
1462,-0.020687,-0.031081,-0.06681,0.27002,-0.038227,0.69129,-0.014516
1463,-0.00022403,-0.014191,-0.055441,0.17192,-0.013541,0.7189,0.0020496
1464,0.0023744,0.0017248,-0.050569,-0.008669,0.0069217,0.71663,0.0095202
1465,-0.012242,0.015692,-0.054792,-0.21362,0.021213,0.70136,0.011469
1466,-0.033679,0.029333,-0.062587,-0.37408,0.031607,0.68025,0.015692
1467,-0.046996,0.041351,-0.067784,-0.44618,0.039078,0.65426,0.027385
1468,-0.050244,0.05207,-0.064861,-0.42377,0.037129,0.61139,0.046223
1469,-0.044073,0.066686,-0.053168,-0.33575,0.01894,0.54188,0.067336
1470,-0.034654,0.085525,-0.03303,-0.22759,-0.017764,0.44379,0.086824
1471,-0.029132,0.10696,-0.0076946,-0.13502,-0.06681,0.32653,0.10242
1472,-0.032055,0.1232,0.017965,-0.071032,-0.11326,0.20505,0.11118
1473,-0.046022,0.12743,0.039078,-0.033354,-0.14152,0.09462,0.11508
1474,-0.063886,0.1206,0.050771,-0.012567,-0.14574,-0.0041217,0.11411
1475,-0.075579,0.10794,0.054993,0.0026992,-0.13112,-0.096042,0.10566
1476,-0.07428,0.097218,0.055968,0.017965,-0.10611,-0.20063,0.096244
1477,-0.058365,0.089748,0.053369,0.035505,-0.079802,-0.34225,0.087799
1478,-0.03173,0.086175,0.050771,0.057592,-0.054467,-0.51959,0.080978
1479,-0.0018481,0.083901,0.051745,0.083251,-0.026209,-0.70311,0.070909
1480,0.026085,0.082602,0.055968,0.10696,0.012768,-0.85057,0.058891
1481,0.05272,0.07773,0.058566,0.12483,0.064737,-0.92495,0.048172
1482,0.074806,0.071558,0.053694,0.13327,0.12905,-0.91358,0.042651
1483,0.089423,0.070259,0.043625,0.13295,0.19466,-0.83888,0.045574
1484,0.095919,0.075781,0.030957,0.12515,0.25605,-0.73364,0.053369
1485,0.093321,0.082277,0.016016,0.11736,0.30737,-0.62613,0.056617
1486,0.0865,0.084226,0.00010078,0.11638,0.35024,-0.53713,0.046873
1487,0.075456,0.081303,-0.01614,0.12743,0.38532,-0.47574,0.023812
1488,0.06084,0.072208,-0.030106,0.15179,0.41196,-0.43514,-0.014516
1489,0.046223,0.059541,-0.039851,0.18459,0.42495,-0.40071,-0.055441
1490,0.03518,0.047198,-0.046347,0.22,0.4204,-0.36336,-0.089546
1491,0.032906,0.038753,-0.046347,0.25053,0.39669,-0.31529,-0.11391
1492,0.041351,0.03518,-0.035303,0.26839,0.35706,-0.24805,-0.13177
1493,0.053694,0.037129,-0.015815,0.26027,0.30769,-0.1662,-0.14866
1494,0.058241,0.042975,0.0065969,0.21512,0.25572,-0.083375,-0.16782
1495,0.050446,0.048822,0.022837,0.14074,0.20376,-0.011917,-0.18277
1496,0.031932,0.051096,0.02641,0.057592,0.15633,0.047198,-0.18179
1497,0.014068,0.045249,0.020564,-0.012242,0.12028,0.098842,-0.15808
1498,0.0026992,0.033556,0.010495,-0.051544,0.098193,0.16023,-0.11033
1499,0.0023744,0.021213,0.0033489,-0.056741,0.089748,0.2476,-0.050569
1500,0.017316,0.014717,0.0069217,-0.038227,0.09462,0.36161,0.0065969
1501,0.045574,0.014068,0.023162,-0.0080194,0.10501,0.47692,0.054668
1502,0.079679,0.015367,0.046873,0.01894,0.11021,0.56267,0.091696
1503,0.10826,0.013418,0.072858,0.034206,0.10436,0.59482,0.11281
1504,0.1258,0.0059473,0.10274,0.039727,0.083576,0.55942,0.11736
1505,0.13165,-0.0041217,0.14626,0.042651,0.044924,0.4597,0.11021
1506,0.12937,-0.012242,0.2122,0.050771,-0.0028225,0.31192,0.095269
1507,0.11898,-0.017439,0.28236,0.062139,-0.04927,0.14561,0.07773
1508,0.098842,-0.024909,0.32946,0.073507,-0.085324,-0.0028225,0.055643
1509,0.070259,-0.034978,0.3366,0.081952,-0.10124,-0.10709,0.032257
1510,0.03583,-0.048296,0.30737,0.085525,-0.097991,-0.16035,0.014392
1511,-0.0047713,-0.059339,0.2567,0.086175,-0.085973,-0.1688,0.0072465
1512,-0.046996,-0.059339,0.20051,0.087799,-0.072981,-0.14639,0.010495
1513,-0.081426,-0.047321,0.14984,0.093321,-0.064536,-0.11131,0.023162
1514,-0.10189,-0.030756,0.10696,0.096244,-0.063886,-0.078503,0.041676
1515,-0.10579,-0.018738,0.074482,0.092671,-0.072006,-0.052193,0.057267
1516,-0.092469,-0.018413,0.049796,0.080003,-0.085973,-0.03238,0.063763
1517,-0.066485,-0.033679,0.030957,0.066362,-0.10514,-0.018088,0.061814
1518,-0.029132,-0.062262,0.013093,0.058241,-0.1243,-0.0073698,0.058241
1519,0.012119,-0.092145,0.00075039,0.059216,-0.14054,-0.0073698,0.061489
1520,0.047198,-0.11033,-0.0067202,0.065712,-0.15093,-0.019712,0.074482
1521,0.073182,-0.10936,-0.012567,0.073832,-0.15158,-0.035628,0.09397
1522,0.092671,-0.092794,-0.020362,0.083251,-0.14379,-0.035953,0.11508
1523,0.10599,-0.068758,-0.024909,0.090722,-0.1334,-0.010293,0.13457
1524,0.10534,-0.048296,-0.021012,0.092346,-0.12852,0.034206,0.14269
1525,0.0865,-0.036602,-0.011592,0.087474,-0.13242,0.075131,0.13197
1526,0.056617,-0.034978,-0.0011985,0.079679,-0.13664,0.096244,0.10599
1527,0.025436,-0.039526,0.0046481,0.070584,-0.13372,0.091047,0.075781
1528,0.0010752,-0.046347,0.0020496,0.061489,-0.11715,0.067661,0.051096
1529,-0.0089938,-0.052518,-0.011592,0.052395,-0.089221,0.038753,0.032257
1530,-0.0041217,-0.055766,-0.030431,0.040052,-0.059014,0.016341,0.015042
1531,0.0046481,-0.056091,-0.051219,0.028034,-0.038551,0.010495,-0.007045
1532,0.0023744,-0.054467,-0.070058,0.017316,-0.037902,0.019264,-0.039201
1533,-0.020362,-0.052193,-0.085324,0.0072465,-0.055441,0.031282,-0.080127
1534,-0.059989,-0.051219,-0.094743,-0.0060706,-0.090845,0.039727,-0.12365
1535,-0.10189,-0.051544,-0.097991,-0.023935,-0.13729,0.042326,-0.161
1536,-0.13242,-0.050244,-0.093119,-0.043748,-0.18212,0.045899,-0.18147
1537,-0.14541,-0.046671,-0.084024,-0.062262,-0.21265,0.057592,-0.18114
1538,-0.13794,-0.040825,-0.078827,-0.075579,-0.22272,0.075456,-0.16068
1539,-0.11521,-0.03303,-0.082076,-0.084349,-0.21622,0.10079,-0.12463
1540,-0.085973,-0.02361,-0.09182,-0.084674,-0.19803,0.13684,-0.079802
1541,-0.054792,-0.011267,-0.10091,-0.080127,-0.16977,0.17517,-0.036927
1542,-0.029457,0.0036737,-0.10416,-0.07428,-0.13859,0.19888,-0.0096434
1543,-0.011267,0.022512,-0.09929,-0.069408,-0.11033,0.19401,-0.0018481
1544,0.0017248,0.043625,-0.088572,-0.060313,-0.083375,0.1625,-0.0041217
1545,0.016016,0.066686,-0.076879,-0.044073,-0.054142,0.11898,-0.0041217
1546,0.036154,0.087799,-0.063886,-0.021337,-0.019388,0.080328,0.0078962
1547,0.054668,0.10014,-0.04992,0.0095202,0.021538,0.055318,0.033231
1548,0.066362,0.097218,-0.034978,0.042001,0.06019,0.041027,0.064088
1549,0.066037,0.078379,-0.020362,0.067986,0.088448,0.02641,0.090072
1550,0.053044,0.050121,-0.0050961,0.080653,0.10599,-0.00054884,0.10371
1551,0.039402,0.02641,0.0085458,0.078379,0.11703,-0.04862,0.10144
1552,0.028684,0.016341,0.021213,0.065062,0.12905,-0.12008,0.086175
1553,0.019914,0.020564,0.027709,0.043625,0.1362,-0.20453,0.062789
1554,0.0069217,0.033556,0.026085,0.020239,0.12418,-0.28768,0.034206
1555,-0.011267,0.042975,0.022837,-0.0018481,0.085525,-0.34842,0.0049729
1556,-0.034329,0.044924,0.025436,-0.01614,0.022512,-0.37213,-0.021337
1557,-0.058689,0.036479,0.033881,-0.021986,-0.04927,-0.35816,-0.041475
1558,-0.079477,0.024137,0.042326,-0.019063,-0.11163,-0.31594,-0.049595
1559,-0.09117,0.014068,0.044275,-0.013541,-0.14444,-0.26169,-0.043748
1560,-0.09182,0.008221,0.039078,-0.0080194,-0.14476,-0.20258,-0.027833
1561,-0.082076,0.0039985,0.030957,-0.0034721,-0.1217,-0.13794,-0.0057458
1562,-0.062262,0.0010752,0.023162,0.00010078,-0.089221,-0.061613,0.017965
1563,-0.029132,0.0072465,0.01017,0.00010078,-0.05804,0.02706,0.040377
1564,0.015042,0.024137,-0.011917,-0.0050961,-0.033679,0.11736,0.060515
1565,0.056617,0.05272,-0.043423,-0.01549,-0.020037,0.19628,0.078704
1566,0.087474,0.080978,-0.079152,-0.026858,-0.014516,0.25378,0.094945
1567,0.10371,0.10209,-0.11586,-0.033354,-0.013541,0.28561,0.10566
1568,0.10631,0.11021,-0.14801,-0.038876,-0.011592,0.29957,0.11476
1569,0.10209,0.10599,-0.17367,-0.046347,-0.0028225,0.30477,0.1206
1570,0.094295,0.094945,-0.19121,-0.057715,0.016666,0.30997,0.12548
1571,0.087799,0.085525,-0.19576,-0.066485,0.046223,0.31906,0.13587
1572,0.089098,0.084876,-0.18049,-0.064211,0.080978,0.3353,0.15666
1573,0.097868,0.092021,-0.14119,-0.045697,0.11443,0.35771,0.18881
1574,0.10631,0.098517,-0.085648,-0.013866,0.14302,0.38305,0.22065
1575,0.10469,0.096893,-0.028807,0.01764,0.16315,0.40773,0.23786
1576,0.086824,0.084551,0.01764,0.036154,0.17095,0.42203,0.22682
1577,0.056292,0.065062,0.049796,0.031607,0.16348,0.41715,0.19011
1578,0.026735,0.041351,0.060515,0.0072465,0.14009,0.38792,0.14009
1579,0.0085458,0.015692,0.046873,-0.026209,0.10501,0.33823,0.091372
1580,0.0026992,-0.010293,0.013418,-0.05804,0.063438,0.26807,0.05142
1581,0.00042559,-0.037252,-0.030756,-0.078827,0.024137,0.18134,0.015692
1582,-0.0096434,-0.062262,-0.072331,-0.086298,-0.012892,0.0852,-0.024585
1583,-0.022636,-0.078827,-0.09994,-0.082725,-0.038227,-0.010943,-0.067459
1584,-0.026533,-0.078503,-0.10514,-0.072006,-0.038876,-0.089546,-0.10351
1585,-0.013541,-0.059989,-0.087272,-0.05804,-0.01549,-0.13664,-0.12138
1586,0.016666,-0.024585,-0.043748,-0.040175,0.016666,-0.15061,-0.11845
1587,0.050771,0.023812,0.037454,-0.015815,0.038103,-0.13859,-0.099615
1588,0.074482,0.075456,0.15438,0.013418,0.036479,-0.11293,-0.075579
1589,0.081303,0.11638,0.28268,0.041351,0.017316,-0.087597,-0.054467
1590,0.070584,0.13847,0.37525,0.060515,-0.0089938,-0.071682,-0.040175
1591,0.048822,0.13977,0.39507,0.06961,-0.026858,-0.066485,-0.03173
1592,0.023487,0.11898,0.3379,0.070909,-0.025234,-0.06616,-0.025234
1593,0.00010078,0.080978,0.22779,0.070909,-0.0044465,-0.066485,-0.016789
1594,-0.018738,0.038428,0.097868,0.071558,0.025436,-0.067459,-0.008669
1595,-0.029782,0.00075039,-0.022636,0.073507,0.05207,-0.071682,-0.0054209
1596,-0.035628,-0.022636,-0.11521,0.079679,0.06831,-0.076879,-0.0096434
1597,-0.040175,-0.035953,-0.17367,0.088773,0.078704,-0.078503,-0.015815
1598,-0.046671,-0.044398,-0.19836,0.089748,0.0852,-0.076879,-0.018088
1599,-0.052843,-0.05739,-0.18666,0.080978,0.087799,-0.073955,-0.016789
1600,-0.055766,-0.073955,-0.1243,0.066362,0.088448,-0.065835,-0.010618
1601,-0.054467,-0.083375,-0.0047713,0.054019,0.087474,-0.04927,-0.007045
1602,-0.052518,-0.077853,0.14529,0.050121,0.089098,-0.027183,-0.013216
1603,-0.048945,-0.058689,0.27456,0.053694,0.092671,-0.0083442,-0.030756
1604,-0.040825,-0.036278,0.33563,0.057592,0.10014,-0.010293,-0.054467
1605,-0.030756,-0.022311,0.31484,0.053369,0.11086,-0.047971,-0.076554
1606,-0.022311,-0.022961,0.23299,0.038103,0.1323,-0.11683,-0.09117
1607,-0.022961,-0.036602,0.1284,0.014068,0.16315,-0.19543,-0.097017
1608,-0.034329,-0.054467,0.034206,-0.0080194,0.19628,-0.26429,-0.09929
1609,-0.051868,-0.067784,-0.029132,-0.021337,0.21837,-0.31789,-0.10416
1610,-0.068109,-0.069083,-0.053817,-0.021986,0.22552,-0.35914,-0.11293
1611,-0.075579,-0.054792,-0.044073,-0.0063954,0.22454,-0.39357,-0.12073
1612,-0.075255,-0.028807,-0.010618,0.019914,0.22747,-0.415,-0.11813
1613,-0.076554,-0.0044465,0.030633,0.049796,0.23916,-0.40851,-0.10221
1614,-0.08305,-0.00022403,0.065387,0.075131,0.25637,-0.36791,-0.07428
1615,-0.090845,-0.016464,0.090072,0.093321,0.26709,-0.30197,-0.040175
1616,-0.091495,-0.038876,0.10664,0.10501,0.26287,-0.22986,-0.014191
1617,-0.080451,-0.04992,0.11866,0.11021,0.24143,-0.17172,-0.0063954
1618,-0.057065,-0.042774,0.12515,0.10664,0.2096,-0.13697,-0.019712
1619,-0.025884,-0.016789,0.1232,0.090722,0.17517,-0.12463,-0.042774
1620,0.0056225,0.016991,0.10859,0.06019,0.13522,-0.12463,-0.064861
1621,0.030957,0.050121,0.0865,0.020239,0.090397,-0.12625,-0.076229
1622,0.050121,0.077405,0.063113,-0.017764,0.041027,-0.12138,-0.076554
1623,0.063438,0.097218,0.041676,-0.043748,-0.0089938,-0.10741,-0.070382
1624,0.06896,0.10924,0.023487,-0.053817,-0.053492,-0.088896,-0.062262
1625,0.061165,0.11151,0.0078962,-0.051868,-0.089546,-0.069733,-0.056741
1626,0.042975,0.10339,-0.0063954,-0.044398,-0.11715,-0.04992,-0.048945
1627,0.022188,0.089098,-0.021012,-0.0405,-0.14216,-0.025884,-0.03238
1628,0.012768,0.075131,-0.035628,-0.050244,-0.17205,0.0052977,-0.0060706
1629,0.020239,0.066362,-0.04992,-0.073955,-0.2146,0.042326,0.023162
1630,0.048497,0.067661,-0.059664,-0.10481,-0.26332,0.080653,0.049147
1631,0.091047,0.081303,-0.060313,-0.13047,-0.30912,0.11638,0.06961
1632,0.13555,0.10112,-0.050894,-0.14152,-0.34809,0.14107,0.083901
1633,0.16738,0.11736,-0.036602,-0.13632,-0.38382,0.15016,0.087474
1634,0.17939,0.12255,-0.021012,-0.1217,-0.41825,0.14561,0.079679
1635,0.1781,0.11606,-0.0057458,-0.09929,-0.44294,0.13327,0.06019
1636,0.16705,0.10339,0.0069217,-0.075255,-0.44911,0.11541,0.037129
1637,0.14886,0.092021,0.016991,-0.046022,-0.43482,0.093645,0.020888
1638,0.1245,0.081627,0.023487,-0.015815,-0.40363,0.070584,0.009845
1639,0.097543,0.070584,0.026085,0.014392,-0.36109,0.053369,-0.0015233
1640,0.070909,0.05207,0.022188,0.041676,-0.32048,0.041351,-0.017114
1641,0.044275,0.025111,0.0091954,0.061489,-0.28865,0.033231,-0.035303
1642,0.017316,-0.010293,-0.011917,0.070584,-0.26104,0.028684,-0.051544
1643,-0.010618,-0.046671,-0.036278,0.074157,-0.23149,0.026085,-0.063237
1644,-0.035628,-0.076879,-0.059664,0.079029,-0.19251,0.020888,-0.066485
1645,-0.055766,-0.092794,-0.075255,0.092346,-0.14736,0.013418,-0.05804
1646,-0.070707,-0.094743,-0.085648,0.11248,-0.095717,0.010495,-0.037252
1647,-0.083375,-0.082725,-0.096367,0.13295,-0.036602,0.017965,-0.0073698
1648,-0.095068,-0.064861,-0.10936,0.14854,0.030633,0.036804,0.025436
1649,-0.10644,-0.047971,-0.12495,0.15244,0.10209,0.066686,0.056292
1650,-0.10838,-0.035628,-0.13827,0.14367,0.17225,0.10599,0.086175
1651,-0.09117,-0.023935,-0.14671,0.12483,0.23559,0.14886,0.11541
1652,-0.056741,-0.01484,-0.14769,0.10242,0.2947,0.18849,0.14269
1653,-0.017114,-0.0099683,-0.14054,0.081303,0.36064,0.21967,0.16803
1654,0.012443,-0.0096434,-0.12722,0.066686,0.44184,0.24533,0.19076
1655,0.031282,-0.011592,-0.11131,0.061165,0.53636,0.26255,0.20863
1656,0.0433,-0.011917,-0.09117,0.063763,0.62763,0.27034,0.22032
1657,0.053369,-0.0083442,-0.068758,0.06961,0.67635,0.26449,0.22941
1658,0.063438,-0.00054884,-0.042774,0.075456,0.64842,0.24176,0.23624
1659,0.071883,0.012119,-0.020362,0.077405,0.53246,0.20278,0.23494
1660,0.078704,0.029009,-0.0034721,0.074157,0.35024,0.14984,0.22259
1661,0.084551,0.049796,0.008221,0.066362,0.14139,0.094295,0.19856
1662,0.095269,0.072858,0.016341,0.058566,-0.04862,0.044599,0.17517
1663,0.11476,0.099167,0.01829,0.053369,-0.18959,0.01017,0.15991
1664,0.14204,0.12418,0.011794,0.048822,-0.26884,-0.0073698,0.15309
1665,0.1677,0.14139,0.00010078,0.038753,-0.2984,-0.0073698,0.14984
1666,0.18264,0.14626,-0.0073698,0.020239,-0.2971,-0.0024977,0.14269
1667,0.18199,0.13684,-0.0057458,-0.0054209,-0.28151,-0.0096434,0.12743
1668,0.1651,0.11118,0.0072465,-0.03173,-0.26104,-0.039526,0.099492
1669,0.13425,0.073182,0.022188,-0.049595,-0.23636,-0.082725,0.064413
1670,0.096244,0.032582,0.030957,-0.055441,-0.2042,-0.12365,0.028684
1671,0.059541,-0.00022403,0.030308,-0.052518,-0.15353,-0.14606,-0.00022403
1672,0.031932,-0.019712,0.026735,-0.0405,-0.075255,-0.14119,-0.014191
1673,0.011794,-0.023935,0.027709,-0.020687,0.025436,-0.10611,-0.0096434
1674,-0.0041217,-0.011592,0.039402,0.00010078,0.13067,-0.043099,0.0088706
1675,-0.020362,0.0085458,0.058891,0.016666,0.21447,0.04395,0.036479
1676,-0.04115,0.022188,0.074806,0.02641,0.25313,0.14691,0.063763
1677,-0.067784,0.021538,0.080653,0.028684,0.23948,0.2502,0.080003
1678,-0.095717,0.0049729,0.07708,0.026735,0.18362,0.3327,0.074806
1679,-0.11391,-0.021012,0.06896,0.025436,0.10729,0.3785,0.042326
1680,-0.11586,-0.044073,0.058241,0.030957,0.031932,0.3824,-0.01614
1681,-0.10286,-0.051868,0.048497,0.041676,-0.021661,0.35349,-0.088247
1682,-0.081426,-0.045697,0.036804,0.052395,-0.042124,0.30282,-0.16035
1683,-0.062262,-0.038876,0.021863,0.050121,-0.039526,0.23331,-0.22499
1684,-0.052193,-0.039526,-0.0050961,0.029009,-0.036927,0.14919,-0.27891
1685,-0.052518,-0.053817,-0.044073,-0.0073698,-0.04927,0.055318,-0.31659
1686,-0.061288,-0.07493,-0.088247,-0.04927,-0.079802,-0.037902,-0.32893
1687,-0.068434,-0.095717,-0.12203,-0.081101,-0.11813,-0.11488,-0.31171
1688,-0.067134,-0.11326,-0.13632,-0.094418,-0.14866,-0.15353,-0.26819
1689,-0.054142,-0.1269,-0.13177,-0.090845,-0.15808,-0.14119,-0.20615
1690,-0.034004,-0.13599,-0.11293,-0.075904,-0.14769,-0.085324,-0.14087
1691,-0.014516,-0.13437,-0.089871,-0.061288,-0.1243,-0.0063954,-0.079152
1692,-0.0015233,-0.1217,-0.072981,-0.052843,-0.097991,0.071558,-0.028157
1693,0.0056225,-0.10709,-0.067134,-0.055116,-0.079802,0.12743,0.011469
1694,0.0046481,-0.095393,-0.072656,-0.063561,-0.076554,0.14269,0.041351
1695,-0.00087364,-0.084999,-0.076554,-0.07428,-0.091495,0.11476,0.065387
1696,-0.0063954,-0.072006,-0.069083,-0.083375,-0.11618,0.048497,0.088124
1697,-0.0093186,-0.053168,-0.050569,-0.088896,-0.14119,-0.040825,0.11118
1698,-0.0067202,-0.032705,-0.029132,-0.089221,-0.15808,-0.13275,0.1323
1699,0.00042559,-0.014191,-0.011267,-0.084674,-0.16425,-0.21102,0.14756
1700,0.0088706,-0.00054884,0.0017248,-0.081426,-0.15418,-0.26949,0.15373
1701,0.011144,0.008221,0.010819,-0.081751,-0.1321,-0.30782,0.14919
1702,0.003024,0.010495,0.018615,-0.086298,-0.10936,-0.32828,0.13327
1703,-0.013216,0.012443,0.027385,-0.092794,-0.094743,-0.33315,0.10599
1704,-0.038551,0.014392,0.03518,-0.093769,-0.095068,-0.32406,0.066037
1705,-0.069083,0.014717,0.041351,-0.088572,-0.10351,-0.30392,0.021213
1706,-0.092794,0.016341,0.049147,-0.077528,-0.11293,-0.26884,-0.013541
1707,-0.096367,0.024461,0.058241,-0.062587,-0.12073,-0.21525,-0.024909
1708,-0.075579,0.042001,0.065712,-0.046347,-0.12982,-0.15483,-0.015815
1709,-0.038227,0.070584,0.070259,-0.030106,-0.14411,-0.10189,-0.0024977
1710,0.0043233,0.10534,0.06896,-0.020687,-0.16815,-0.060963,0.00010078
1711,0.038428,0.14432,0.069285,-0.015165,-0.19348,-0.030431,-0.014516
1712,0.057267,0.18264,0.082927,-0.0093186,-0.20875,-0.0099683,-0.045697
1713,0.056942,0.21675,0.12125,0.0052977,-0.20453,0.00075039,-0.090521
1714,0.037129,0.24143,0.18362,0.032257,-0.18017,0.0039985,-0.13957
1715,0.0043233,0.25475,0.25637,0.070259,-0.13924,0.0059473,-0.17887
1716,-0.034004,0.25962,0.32231,0.10859,-0.096692,0.011144,-0.19966
1717,-0.068758,0.26222,0.36421,0.1349,-0.06551,0.022512,-0.19608
1718,-0.089871,0.26027,0.36876,0.13879,-0.050894,0.044599,-0.16977
1719,-0.094418,0.24858,0.33368,0.11963,-0.044398,0.080653,-0.12527
1720,-0.084999,0.22519,0.26709,0.086175,-0.035303,0.13295,-0.070707
1721,-0.068758,0.18979,0.18459,0.049472,-0.013541,0.19401,-0.01549
1722,-0.051868,0.14561,0.10794,0.020564,0.019264,0.24955,0.029333
1723,-0.038876,0.099167,0.047847,0.008221,0.056617,0.27911,0.058566
1724,-0.027833,0.057917,0.003024,0.014717,0.084551,0.27034,0.077405
1725,-0.014191,0.029009,-0.029782,0.033231,0.096244,0.22389,0.088124
1726,0.0017248,0.016016,-0.053168,0.050121,0.089423,0.15763,0.092346
1727,0.021213,0.014068,-0.065186,0.059216,0.071883,0.096569,0.090072
1728,0.042651,0.01764,-0.067784,0.060515,0.048172,0.061489,0.087474
1729,0.062789,0.019589,-0.063561,0.057917,0.028684,0.054019,0.088124
1730,0.078704,0.015042,-0.059989,0.054344,0.024786,0.062464,0.089423
1731,0.08585,0.0046481,-0.064536,0.049796,0.036804,0.064413,0.087799
1732,0.082602,-0.0076946,-0.075255,0.042975,0.057592,0.039402,0.081627
1733,0.070259,-0.02426,-0.085973,0.032582,0.07708,-0.024585,0.067336
1734,0.055318,-0.042124,-0.095717,0.019589,0.088448,-0.12657,0.045899
1735,0.040377,-0.054467,-0.098641,0.008221,0.087149,-0.24643,0.023812
1736,0.033556,-0.059339,-0.084349,0.0062721,0.074157,-0.35816,0.01017
1737,0.03453,-0.059014,-0.04927,0.01764,0.054668,-0.44034,0.008221
1738,0.041676,-0.056416,0.00010078,0.039727,0.039402,-0.47737,0.016341
1739,0.054019,-0.054142,0.048822,0.066362,0.041027,-0.46892,0.031282
1740,0.063438,-0.04992,0.076755,0.086824,0.061489,-0.42345,0.044924
1741,0.065062,-0.047646,0.075131,0.095594,0.097868,-0.35296,0.055318
1742,0.058241,-0.044723,0.055968,0.09397,0.13944,-0.27436,0.058241
1743,0.047847,-0.039526,0.032906,0.08585,0.1677,-0.20485,0.052395
1744,0.03453,-0.030431,0.01829,0.076431,0.16868,-0.15905,0.039727
1745,0.019264,-0.019712,0.016991,0.070909,0.14432,-0.13762,0.022188
1746,0.0069217,-0.0096434,0.026735,0.069285,0.10826,-0.1282,0.00075039
1747,0.00010078,-0.0044465,0.037778,0.069285,0.075131,-0.11683,-0.01484
1748,-0.0015233,-0.0083442,0.040702,0.067661,0.050446,-0.096367,-0.018738
1749,0.0026992,-0.021661,0.029983,0.065387,0.03583,-0.076554,-0.013541
1750,0.0065969,-0.039201,0.0078962,0.061165,0.030633,-0.069083,-0.0067202
1751,0.0078962,-0.053492,-0.018738,0.056617,0.031607,-0.085973,-0.0037969
1752,0.0049729,-0.065186,-0.037252,0.054019,0.035505,-0.13047,-0.012242
1753,0.00042559,-0.077528,-0.044723,0.053044,0.039727,-0.18731,-0.031081
1754,-0.0015233,-0.089221,-0.04115,0.055318,0.043625,-0.23019,-0.050894
1755,-0.00087364,-0.098316,-0.03173,0.061165,0.049472,-0.23928,-0.062587
1756,-0.0031473,-0.098316,-0.018413,0.06896,0.066037,-0.20518,-0.065186
1757,-0.0080194,-0.089221,-0.007045,0.075781,0.097218,-0.13177,-0.059664
