,channel_1,channel_2,channel_3,channel_4,channel_5,channel_6,channel_7
0,0.015367,-0.010618,0.063113,0.12515,0.56202,0.21317,0.065712
1,0.0085458,-0.042774,0.056292,0.11151,0.47497,0.18069,0.054019
2,0.00042559,-0.073631,0.045249,0.095594,0.41228,0.1703,0.049147
3,-0.0099683,-0.097991,0.030308,0.080003,0.38662,0.18134,0.05207
4,-0.020037,-0.11228,0.015367,0.066362,0.38825,0.20181,0.055968
5,-0.02361,-0.11358,0.0026992,0.057592,0.39961,0.21772,0.054668
6,-0.020037,-0.10286,-0.0050961,0.048497,0.40936,0.22227,0.048822
7,-0.010293,-0.084024,-0.010943,0.033556,0.40968,0.21707,0.042001
8,0.0014,-0.059339,-0.012242,0.010819,0.39572,0.20376,0.034206
9,0.012443,-0.028807,-0.0067202,-0.015165,0.35414,0.18329,0.027709
10,0.023487,0.00010078,-0.00054884,-0.035953,0.27359,0.14951,0.023487
11,0.032906,0.021213,-0.00087364,-0.052843,0.14919,0.10209,0.017316
12,0.039402,0.031607,-0.0080194,-0.067134,-0.0044465,0.05142,0.014068
13,0.041027,0.036154,-0.019063,-0.078827,-0.16458,0.008221,0.01764
14,0.03518,0.037778,-0.028482,-0.084999,-0.30944,-0.020687,0.023812
15,0.027385,0.03518,-0.034329,-0.084024,-0.42832,-0.035953,0.023812
16,0.025111,0.027385,-0.036278,-0.076554,-0.52219,-0.043423,0.014068
17,0.02706,0.016666,-0.039201,-0.064861,-0.593,-0.051219,0.00010078
18,0.029333,0.00075039,-0.046671,-0.04992,-0.64139,-0.063561,-0.013216
19,0.027385,-0.021012,-0.05804,-0.028482,-0.66478,-0.07493,-0.021986
20,0.020564,-0.046022,-0.067784,0.00075039,-0.66478,-0.082076,-0.024585
21,0.0078962,-0.072656,-0.071682,0.03518,-0.64172,-0.079152,-0.022636
22,-0.0057458,-0.093444,-0.065835,0.066686,-0.60502,-0.067784,-0.017439
23,-0.018413,-0.10124,-0.050569,0.089748,-0.56636,-0.056741,-0.012892
24,-0.026209,-0.092469,-0.029782,0.098842,-0.5433,-0.053168,-0.008669
25,-0.022961,-0.068758,-0.0096434,0.090397,-0.54233,-0.05739,-0.0067202
26,-0.0089938,-0.037252,0.0043233,0.067336,-0.55792,-0.06681,-0.007045
27,0.0095202,-0.0089938,0.010495,0.040702,-0.57611,-0.077203,-0.0089938
28,0.017965,0.009845,0.010495,0.016341,-0.58455,-0.088572,-0.0083442
29,0.011794,0.016666,0.01017,-0.0031473,-0.57773,-0.096367,-0.0037969
30,-0.0034721,0.013418,0.011144,-0.017114,-0.56214,-0.09994,0.0046481
31,-0.022311,0.0014,0.013418,-0.026858,-0.55207,-0.10059,0.01017
32,-0.039526,-0.014516,0.018615,-0.032055,-0.55435,-0.10416,0.0088706
33,-0.04992,-0.031081,0.024461,-0.034329,-0.56376,-0.11553,0.00042559
34,-0.057065,-0.043423,0.025111,-0.035628,-0.5537,-0.13307,-0.013216
35,-0.063886,-0.047646,0.020564,-0.037252,-0.49101,-0.14931,-0.026858
36,-0.069083,-0.045697,0.014392,-0.037902,-0.36044,-0.15353,-0.03303
37,-0.068758,-0.039201,0.014068,-0.03303,-0.18049,-0.13957,-0.029132
38,-0.05739,-0.03173,0.017965,-0.017114,0.003024,-0.10968,-0.017439
39,-0.038551,-0.025884,0.025111,0.0059473,0.14042,-0.075255,-0.0050961
40,-0.020687,-0.022636,0.031282,0.027385,0.19856,-0.052843,0.0059473
41,-0.010293,-0.017439,0.031932,0.038753,0.17582,-0.045697,0.012768
42,-0.0060706,-0.0089938,0.024137,0.042651,0.10696,-0.04992,0.013743
43,-0.0073698,0.00042559,0.0091954,0.044924,0.037454,-0.055116,0.008221
44,-0.0096434,0.0095202,-0.0067202,0.046223,0.0069217,-0.055441,-0.0015233
45,-0.0063954,0.016666,-0.017764,0.050446,0.032257,-0.044398,-0.0089938
46,0.0033489,0.023812,-0.021661,0.060515,0.10404,-0.022636,-0.0096434
47,0.016341,0.032906,-0.015815,0.074482,0.18881,0.0039985,-0.0067202
48,0.031607,0.036804,-0.0060706,0.087149,0.25995,0.02641,-0.0054209
49,0.043625,0.032582,-0.0021729,0.092021,0.3051,0.041351,-0.0096434
50,0.049147,0.019589,-0.012567,0.089423,0.32848,0.050121,-0.016464
51,0.044599,0.0010752,-0.0405,0.081303,0.3405,0.057917,-0.021012
52,0.033231,-0.021012,-0.077853,0.070909,0.34862,0.065062,-0.021661
53,0.019914,-0.039851,-0.10611,0.061165,0.36031,0.068635,-0.022311
54,0.015042,-0.050894,-0.11228,0.053694,0.38142,0.065062,-0.020362
55,0.016016,-0.051544,-0.095068,0.049472,0.40221,0.056942,-0.01484
56,0.020239,-0.041799,-0.063561,0.050771,0.40871,0.046548,-0.0099683
57,0.026735,-0.023285,-0.030106,0.056292,0.3798,0.039402,-0.008669
58,0.029333,-0.0050961,-0.0057458,0.06019,0.3051,0.033231,-0.0093186
59,0.027709,0.0085458,0.0049729,0.056617,0.19271,0.022512,-0.0073698
60,0.022512,0.015042,0.0075714,0.042001,0.06084,0.0039985,-0.0044465
61,0.01764,0.017316,0.0059473,0.017965,-0.067784,-0.017439,-0.00087364
62,0.016016,0.021863,0.0049729,-0.007045,-0.17302,-0.033354,0.0017248
63,0.014068,0.024461,0.0056225,-0.027833,-0.24545,-0.035628,0.0010752
64,0.008221,0.023487,0.0078962,-0.041475,-0.28411,-0.021986,-0.00022403
65,-0.0015233,0.017965,0.012443,-0.050894,-0.2945,0.00075039,-0.0021729
66,-0.011267,0.011144,0.01764,-0.055766,-0.27923,0.024461,-0.0034721
67,-0.01484,0.011469,0.022512,-0.054142,-0.23961,0.046223,-0.0018481
68,-0.0063954,0.01764,0.026085,-0.046022,-0.18536,0.054993,0.0026992
69,0.0091954,0.025111,0.022512,-0.038227,-0.13437,0.041351,0.009845
70,0.020888,0.030308,0.013093,-0.033679,-0.10416,0.0072465,0.01894
71,0.022512,0.03453,0.00075039,-0.034004,-0.10026,-0.040825,0.022837
72,0.01829,0.037129,-0.0093186,-0.039201,-0.12073,-0.097017,0.019589
73,0.012443,0.040702,-0.011592,-0.048945,-0.15353,-0.15093,0.0088706
74,0.0065969,0.050121,-0.0096434,-0.057065,-0.17367,-0.19089,-0.0089938
75,-0.00022403,0.064413,-0.0063954,-0.058365,-0.16198,-0.21752,-0.030431
76,-0.0076946,0.080003,-0.0037969,-0.051219,-0.11553,-0.23084,-0.050244
77,-0.01549,0.092021,-0.00087364,-0.039201,-0.038551,-0.23344,-0.062912
78,-0.018738,0.09397,0.0036737,-0.02361,0.057917,-0.22239,-0.064211
79,-0.016464,0.087149,0.0059473,-0.0041217,0.1677,-0.19803,-0.053492
80,-0.0080194,0.072858,0.0072465,0.016341,0.2947,-0.16068,-0.037252
81,0.0052977,0.053369,0.014068,0.03518,0.43599,-0.10871,-0.020037
82,0.019589,0.033231,0.027385,0.049147,0.56819,-0.040825,-0.0044465
83,0.028359,0.016991,0.044599,0.057267,0.66628,0.036154,0.0085458
84,0.030308,0.0059473,0.061165,0.06019,0.71078,0.11021,0.020239
85,0.029333,0.0036737,0.076431,0.065062,0.70169,0.18004,0.033881
86,0.026085,0.010819,0.091047,0.078055,0.65491,0.25767,0.053044
87,0.026735,0.023487,0.10729,0.098517,0.58735,0.34927,0.078055
88,0.03453,0.036154,0.1219,0.12223,0.49803,0.44216,0.10112
89,0.042975,0.042651,0.13425,0.13749,0.37363,0.5055,0.11703
90,0.047847,0.042975,0.14042,0.1362,0.20311,0.5146,0.11898
91,0.047847,0.037778,0.14009,0.11573,-0.00022403,0.46393,0.10631
92,0.044275,0.033231,0.1336,0.088773,-0.19901,0.36778,0.084226
93,0.041351,0.029983,0.11995,0.067986,-0.35199,0.25215,0.059865
94,0.038428,0.030308,0.10242,0.059541,-0.43189,0.14237,0.038753
95,0.041027,0.029658,0.087799,0.064088,-0.43904,0.051745,0.023487
96,0.048497,0.028359,0.079354,0.079029,-0.39779,-0.018413,0.016991
97,0.057592,0.025761,0.075131,0.095919,-0.34355,-0.066485,0.019264
98,0.06831,0.021863,0.06831,0.10761,-0.30327,-0.094418,0.026735
99,0.078379,0.014717,0.056617,0.10371,-0.28638,-0.10806,0.036154
100,0.082927,0.0014,0.0433,0.081303,-0.28281,-0.11423,0.041027
101,0.075781,-0.01484,0.029983,0.046223,-0.27501,-0.1178,0.038753
102,0.058566,-0.027833,0.01894,0.010495,-0.25325,-0.12625,0.030308
103,0.039402,-0.031406,0.0085458,-0.019063,-0.22369,-0.13957,0.020888
104,0.027385,-0.030431,-0.0024977,-0.040175,-0.19576,-0.15158,0.014717
105,0.022188,-0.027833,-0.011267,-0.054142,-0.17205,-0.15548,0.011794
106,0.023162,-0.02426,-0.012892,-0.058365,-0.14476,-0.14639,0.009845
107,0.028359,-0.023285,-0.0073698,-0.04992,-0.10709,-0.1217,0.011794
108,0.03583,-0.021012,0.00010078,-0.025559,-0.056091,-0.0837,0.017965
109,0.039402,-0.020037,0.0036737,0.010819,-0.0015233,-0.040175,0.026085
110,0.038428,-0.018088,0.0020496,0.046873,0.043625,-0.0067202,0.037778
111,0.034855,-0.011917,0.00042559,0.070909,0.066362,0.011144,0.051096
112,0.028359,-0.0037969,0.0014,0.078704,0.058891,0.0065969,0.061165
113,0.020239,0.003024,0.0052977,0.072208,0.022837,-0.016464,0.06084
114,0.0056225,0.0069217,0.01017,0.056942,-0.020362,-0.046347,0.05142
115,-0.015815,0.0062721,0.01764,0.039078,-0.048945,-0.06681,0.038103
116,-0.038876,0.0052977,0.025111,0.020564,-0.053492,-0.07428,0.030308
117,-0.04992,0.0069217,0.033231,0.0059473,-0.035628,-0.071357,0.030633
118,-0.039526,0.01894,0.043625,-0.0047713,-0.0096434,-0.067784,0.038103
119,-0.010293,0.043625,0.051745,-0.008669,0.012768,-0.070058,0.054019
120,0.025111,0.078379,0.052395,-0.0093186,0.024137,-0.074605,0.06961
121,0.051096,0.11248,0.04395,-0.0093186,0.025436,-0.079152,0.074806
122,0.057592,0.13717,0.02706,-0.0080194,0.018615,-0.084999,0.069934
123,0.044275,0.14756,0.008221,-0.0060706,0.011794,-0.086948,0.057917
124,0.016341,0.14269,-0.0093186,-0.0047713,0.012768,-0.084674,0.040702
125,-0.0089938,0.12613,-0.017114,-0.0057458,0.02706,-0.081101,0.019589
126,-0.023935,0.10469,-0.013866,-0.007045,0.052395,-0.077203,0.0023744
127,-0.027183,0.0852,-0.0034721,-0.0060706,0.079679,-0.069733,-0.0063954
128,-0.022311,0.071234,0.0049729,-0.0024977,0.10469,-0.05804,-0.0060706
129,-0.015165,0.065062,0.0091954,-0.00022403,0.13002,-0.038227,-0.0031473
130,-0.011592,0.063113,0.0052977,-0.0047713,0.15893,-0.010618,-0.0057458
131,-0.013541,0.067336,-0.0057458,-0.011592,0.19661,0.026085,-0.01484
132,-0.01549,0.078055,-0.017114,-0.014191,0.2489,0.075781,-0.022636
133,-0.014516,0.089423,-0.019388,-0.0076946,0.31451,0.13717,-0.021337
134,-0.011267,0.095269,-0.014516,0.0039985,0.38207,0.19986,-0.010943
135,-0.010943,0.094295,-0.0099683,0.013743,0.43047,0.24468,0.0010752
136,-0.017114,0.084226,-0.011267,0.020888,0.43827,0.25085,0.0059473
137,-0.027833,0.067336,-0.016464,0.023162,0.39864,0.2148,0.0023744
138,-0.034654,0.042001,-0.024585,0.01894,0.31841,0.14886,-0.008669
139,-0.034004,0.014068,-0.030106,0.009845,0.21285,0.074157,-0.023935
140,-0.028807,-0.0060706,-0.030756,-0.0018481,0.10144,0.0088706,-0.037902
141,-0.020687,-0.010943,-0.028157,-0.013866,-0.0028225,-0.038227,-0.045372
142,-0.013541,-0.00054884,-0.02426,-0.025234,-0.087597,-0.061288,-0.044073
143,-0.0089938,0.016016,-0.024585,-0.035303,-0.15516,-0.06551,-0.034654
144,-0.010293,0.031607,-0.031081,-0.042774,-0.20193,-0.061937,-0.02426
145,-0.019388,0.041351,-0.039526,-0.046671,-0.23051,-0.059339,-0.020687
146,-0.030756,0.044275,-0.044723,-0.04927,-0.2435,-0.060313,-0.02426
147,-0.035628,0.042651,-0.044073,-0.052193,-0.24903,-0.064211,-0.029782
148,-0.029457,0.040052,-0.035303,-0.053168,-0.25552,-0.068758,-0.030756
149,-0.01614,0.039727,-0.02361,-0.050569,-0.26234,-0.07428,-0.026858
150,0.00010078,0.040377,-0.016789,-0.045697,-0.26007,-0.0837,-0.021986
151,0.010819,0.038428,-0.017439,-0.042124,-0.24091,-0.097666,-0.018738
152,0.013093,0.033881,-0.017439,-0.043748,-0.2029,-0.11261,-0.013541
153,0.0033489,0.028034,-0.011917,-0.050244,-0.14964,-0.12592,-0.008669
154,-0.013866,0.022837,-0.0057458,-0.05739,-0.089546,-0.1334,-0.0054209
155,-0.026858,0.015042,-0.0080194,-0.060638,-0.030106,-0.13437,-0.0063954
156,-0.034654,0.003024,-0.018413,-0.059989,0.028359,-0.12495,-0.012892
157,-0.034654,-0.010943,-0.030756,-0.055441,0.084876,-0.10709,-0.020687
158,-0.029782,-0.022636,-0.039526,-0.045697,0.1349,-0.082725,-0.024585
159,-0.021986,-0.029782,-0.038876,-0.033354,0.16933,-0.060313,-0.024909
160,-0.012242,-0.026858,-0.032055,-0.019063,0.18329,-0.046022,-0.02426
161,0.00010078,-0.01549,-0.026209,-0.0018481,0.18362,-0.046022,-0.021337
162,0.013743,0.00075039,-0.026533,0.011144,0.18362,-0.055116,-0.014191
163,0.024786,0.01829,-0.031081,0.015692,0.18751,-0.068434,-0.0047713
164,0.029658,0.029983,-0.038227,0.0088706,0.18589,-0.07428,-0.0015233
165,0.025111,0.033556,-0.043099,-0.0031473,0.16803,-0.071682,-0.0018481
166,0.013093,0.027385,-0.040825,-0.014516,0.1258,-0.063237,-0.0031473
167,-0.0024977,0.013093,-0.033679,-0.022636,0.061814,-0.055766,-0.0015233
168,-0.012242,-0.0024977,-0.028482,-0.026533,-0.011267,-0.051868,-0.00087364
169,-0.01549,-0.012892,-0.027183,-0.026533,-0.073306,-0.04862,0.0020496
170,-0.014191,-0.019063,-0.029782,-0.02426,-0.11423,-0.038227,0.0036737
171,-0.012567,-0.025559,-0.032055,-0.022311,-0.13632,-0.01614,0.0049729
172,-0.0096434,-0.037252,-0.034004,-0.017114,-0.14964,0.017316,0.0062721
173,-0.0060706,-0.052193,-0.035628,-0.0073698,-0.16588,0.061814,0.01017
174,-0.0034721,-0.069408,-0.03238,0.01017,-0.2042,0.10599,0.01764
175,0.00042559,-0.085648,-0.020687,0.030633,-0.27209,0.13749,0.028684
176,0.0052977,-0.098641,-0.0041217,0.046548,-0.36693,0.14237,0.03518
177,0.008221,-0.10936,0.0056225,0.053044,-0.47412,0.11963,0.033556
178,0.0043233,-0.11618,0.0020496,0.050771,-0.57253,0.07773,0.028684
179,-0.0089938,-0.12203,-0.010618,0.04395,-0.64886,0.027385,0.022837
180,-0.02426,-0.12495,-0.019712,0.037778,-0.69531,-0.019712,0.016341
181,-0.030106,-0.11813,-0.011592,0.041351,-0.71383,-0.051868,0.009845
182,-0.017114,-0.091495,0.013743,0.062789,-0.70441,-0.065186,0.010495
183,0.014392,-0.043423,0.049796,0.098517,-0.66705,-0.059014,0.021863
184,0.056942,0.022512,0.084226,0.13749,-0.60079,-0.035628,0.041351
185,0.097543,0.094945,0.10696,0.16835,-0.50433,-0.00022403,0.06084
186,0.12807,0.15828,0.11248,0.18362,-0.38285,0.039727,0.072858
187,0.14172,0.20278,0.10436,0.18329,-0.24545,0.074806,0.075781
188,0.13782,0.22552,0.087474,0.17647,-0.10871,0.10112,0.074482
189,0.12353,0.22714,0.066686,0.17095,0.0065969,0.11671,0.071234
190,0.10209,0.21155,0.053044,0.17192,0.087474,0.12288,0.065387
191,0.078379,0.18102,0.049796,0.17192,0.131,0.11801,0.057917
192,0.057917,0.14237,0.056292,0.16705,0.14756,0.10274,0.048172
193,0.041351,0.099492,0.063113,0.16056,0.15244,0.080653,0.037778
194,0.02706,0.059865,0.061814,0.15796,0.16056,0.058891,0.025111
195,0.01764,0.026085,0.054993,0.15991,0.18946,0.045574,0.012443
196,0.015042,0.0023744,0.045899,0.15926,0.24955,0.037778,0.0039985
197,0.021213,-0.007045,0.041351,0.15114,0.34407,0.033881,0.0056225
198,0.037129,0.00042559,0.045574,0.1362,0.4571,0.032257,0.014717
199,0.062139,0.020239,0.058241,0.11541,0.55487,0.029983,0.023812
200,0.090397,0.04395,0.072208,0.090397,0.60262,0.022837,0.029983
201,0.11378,0.066037,0.076106,0.065062,0.58475,0.014068,0.03518
202,0.12743,0.079354,0.06831,0.042326,0.51232,0.0049729,0.0433
203,0.13165,0.080003,0.053369,0.022512,0.41196,-0.0015233,0.054668
204,0.12775,0.067661,0.034206,0.0065969,0.30574,-0.0031473,0.065387
205,0.11606,0.046223,0.014717,-0.0057458,0.20863,-0.00022403,0.069934
206,0.096893,0.023162,-0.0047713,-0.013216,0.13327,0.0052977,0.067661
207,0.075131,0.0026992,-0.020362,-0.01484,0.089423,0.01017,0.058566
208,0.053369,-0.010618,-0.032705,-0.0096434,0.082277,0.01764,0.044599
209,0.033231,-0.015165,-0.04115,-0.0018481,0.11151,0.031607,0.029333
210,0.015692,-0.014191,-0.046347,0.0059473,0.16445,0.054993,0.017965
211,0.00042559,-0.011592,-0.050244,0.013093,0.22941,0.088773,0.012443
212,-0.010293,-0.010293,-0.051868,0.016991,0.30347,0.12872,0.013093
213,-0.01549,-0.011267,-0.047321,0.013743,0.3837,0.16835,0.01829
214,-0.014516,-0.01614,-0.033679,0.003024,0.46068,0.20408,0.024137
215,-0.011267,-0.026533,-0.015165,-0.01484,0.52239,0.22617,0.023812
216,-0.010943,-0.044073,0.0014,-0.034978,0.5578,0.22974,0.015042
217,-0.020362,-0.068758,0.011469,-0.052193,0.55844,0.2096,0.00010078
218,-0.038551,-0.095068,0.010819,-0.062262,0.52889,0.1664,-0.019712
219,-0.05804,-0.11553,0.0010752,-0.064861,0.48179,0.11021,-0.039201
220,-0.071357,-0.12365,-0.012567,-0.063886,0.43145,0.057917,-0.053168
221,-0.077528,-0.11521,-0.026858,-0.062912,0.39214,0.026085,-0.059014
222,-0.07493,-0.090521,-0.040175,-0.061613,0.36941,0.015692,-0.055116
223,-0.065835,-0.055441,-0.050894,-0.061937,0.35219,0.016666,-0.047646
224,-0.056091,-0.017764,-0.056416,-0.062262,0.32036,0.019914,-0.041475
225,-0.048296,0.016016,-0.055766,-0.062262,0.2502,0.015367,-0.040175
226,-0.036278,0.042001,-0.046671,-0.060313,0.12937,-0.0031473,-0.037252
227,-0.019712,0.06084,-0.025559,-0.058689,-0.027833,-0.03173,-0.027508
228,0.0014,0.075781,0.0033489,-0.056741,-0.19543,-0.060313,-0.010943
229,0.01894,0.086175,0.033231,-0.056741,-0.35004,-0.081426,0.0059473
230,0.023812,0.089098,0.055968,-0.056416,-0.48289,-0.095393,0.01829
231,0.016991,0.084551,0.065062,-0.053492,-0.5969,-0.10189,0.023812
232,0.0033489,0.068635,0.058566,-0.052518,-0.69174,-0.10449,0.01829
233,-0.010293,0.04395,0.040052,-0.061613,-0.76904,-0.11098,0.0026992
234,-0.021661,0.016341,0.01764,-0.086948,-0.82361,-0.1191,-0.015165
235,-0.029782,-0.0073698,0.00010078,-0.12008,-0.84635,-0.12722,-0.027183
236,-0.036927,-0.025559,-0.011267,-0.14834,-0.83011,-0.13112,-0.033354
237,-0.040825,-0.04115,-0.017764,-0.15873,-0.76872,-0.12787,-0.033679
238,-0.0405,-0.059014,-0.021661,-0.14541,-0.66218,-0.11878,-0.029782
239,-0.034978,-0.0837,-0.02361,-0.11001,-0.52706,-0.10449,-0.022961
240,-0.029132,-0.11163,-0.02426,-0.059664,-0.3835,-0.079477,-0.013216
241,-0.02361,-0.13404,-0.021337,-0.0063954,-0.24188,-0.043099,-0.0024977
242,-0.018088,-0.14606,-0.014191,0.0433,-0.09117,0.0020496,0.01017
243,-0.011917,-0.14671,-0.0050961,0.083251,0.080328,0.055318,0.025436
244,-0.0076946,-0.13372,0.0052977,0.11443,0.26514,0.11054,0.041676
245,-0.0060706,-0.10676,0.021213,0.13587,0.43924,0.16738,0.058241
246,-0.0024977,-0.069408,0.041676,0.14919,0.57209,0.22065,0.072858
247,0.0026992,-0.029457,0.062464,0.15309,0.63445,0.25962,0.082602
248,0.009845,0.0049729,0.073507,0.14626,0.62016,0.27067,0.086175
249,0.016666,0.02706,0.069285,0.13002,0.5474,0.24825,0.082277
250,0.021863,0.033881,0.05142,0.11021,0.45028,0.19434,0.069934
251,0.022188,0.029658,0.027385,0.091696,0.36713,0.1245,0.053369
252,0.017316,0.019589,0.0078962,0.078704,0.32069,0.062789,0.033231
253,0.003024,0.0075714,-0.0034721,0.072858,0.30964,0.019914,0.01017
254,-0.022311,-0.0067202,-0.0060706,0.070584,0.31094,-0.0076946,-0.012242
255,-0.053168,-0.023285,-0.0021729,0.06831,0.296,-0.030431,-0.027508
256,-0.081426,-0.043099,0.0023744,0.064737,0.24176,-0.053168,-0.035303
257,-0.097341,-0.061937,0.0056225,0.058891,0.14626,-0.078178,-0.036602
258,-0.099615,-0.071032,0.0052977,0.048497,0.02641,-0.10254,-0.034329
259,-0.089871,-0.06551,0.0026992,0.033231,-0.093119,-0.11651,-0.031081
260,-0.073631,-0.04992,0.0023744,0.015042,-0.18764,-0.1204,-0.026533
261,-0.054792,-0.03173,0.0049729,-0.0041217,-0.24578,-0.12333,-0.020687
262,-0.037252,-0.015815,0.011144,-0.021337,-0.26494,-0.13047,-0.01484
263,-0.021986,-0.0031473,0.016341,-0.03173,-0.25422,-0.14314,-0.0073698
264,-0.0099683,0.0075714,0.021863,-0.031081,-0.22402,-0.15808,0.0010752
265,-0.0021729,0.01829,0.025761,-0.019063,-0.18764,-0.17107,0.0088706
266,0.0014,0.028359,0.029009,0.0036737,-0.15711,-0.17432,0.017965
267,0.0020496,0.031607,0.029658,0.033556,-0.14476,-0.16847,0.024786
268,0.00042559,0.029333,0.029009,0.060515,-0.1636,-0.16165,0.022837
269,-0.0021729,0.026735,0.028684,0.074482,-0.21232,-0.15743,0.012443
270,-0.0044465,0.02706,0.028684,0.071558,-0.27306,-0.15321,-0.0018481
271,-0.007045,0.028359,0.028684,0.055318,-0.32503,-0.14216,-0.012892
272,-0.010943,0.029658,0.025436,0.032582,-0.35037,-0.11845,-0.013866
273,-0.012567,0.030633,0.019264,0.011794,-0.3442,-0.080127,-0.0015233
274,-0.0076946,0.033881,0.013743,-0.00054884,-0.31139,-0.03173,0.019914
275,0.0062721,0.039727,0.012119,-0.0063954,-0.26851,0.015367,0.042001
276,0.028359,0.048172,0.015042,-0.012892,-0.23376,0.047847,0.062789
277,0.054019,0.054668,0.021538,-0.020362,-0.22532,0.053694,0.080978
278,0.074157,0.054344,0.026085,-0.027508,-0.24903,0.031932,0.09397
279,0.080003,0.048497,0.021213,-0.035303,-0.30165,-0.013541,0.092996
280,0.074482,0.039402,0.0095202,-0.041475,-0.37473,-0.075579,0.076106
281,0.061165,0.032257,-0.0044465,-0.046022,-0.45041,-0.14087,0.046873
282,0.046223,0.027709,-0.012242,-0.049595,-0.50595,-0.19933,0.016016
283,0.029983,0.026085,-0.013866,-0.054792,-0.52998,-0.24448,-0.007045
284,0.01764,0.023487,-0.010943,-0.06551,-0.52122,-0.27404,-0.021012
285,0.0078962,0.01829,-0.0060706,-0.079152,-0.48938,-0.2867,-0.030756
286,0.0023744,0.0088706,-0.0063954,-0.095393,-0.44716,-0.28476,-0.039526
287,0.0014,-0.00022403,-0.01484,-0.10968,-0.40136,-0.27371,-0.044723
288,0.0059473,-0.0041217,-0.026533,-0.1178,-0.35199,-0.26039,-0.046996
289,0.011469,-0.0034721,-0.037252,-0.11521,-0.28865,-0.24968,-0.047971
290,0.013418,-0.0011985,-0.043423,-0.10384,-0.20323,-0.23896,-0.049595
291,0.0095202,-0.00054884,-0.041799,-0.087597,-0.088896,-0.22142,-0.051868
292,0.0026992,0.0017248,-0.030106,-0.069083,0.053369,-0.19186,-0.047971
293,-0.0063954,0.0091954,-0.010293,-0.050244,0.21447,-0.15126,-0.038551
294,-0.01549,0.021213,0.012768,-0.032705,0.37493,-0.10221,-0.025884
295,-0.024909,0.036479,0.032582,-0.01484,0.52466,-0.046671,-0.015165
296,-0.034654,0.05207,0.042001,0.009845,0.68317,0.019914,-0.008669
297,-0.037577,0.071234,0.0433,0.045249,0.87578,0.11151,0.0023744
298,-0.028157,0.091047,0.041027,0.096244,1.1142,0.24436,0.023487
299,-0.0060706,0.10696,0.042326,0.1638,1.3851,0.4308,0.058241
300,0.028359,0.11671,0.05207,0.24176,1.6414,0.65459,0.10339
301,0.064413,0.12028,0.068635,0.31094,1.8145,0.87253,0.15049
302,0.091696,0.11898,0.082927,0.34992,1.8522,1.0375,0.18784
303,0.10047,0.11378,0.089748,0.35024,1.7372,1.1142,0.20603
304,0.092346,0.10729,0.087799,0.31549,1.4884,1.0921,0.20083
305,0.074806,0.10339,0.079029,0.25735,1.1528,0.98232,0.17647
306,0.059541,0.10436,0.063438,0.19206,0.78873,0.81342,0.14399
307,0.054344,0.10761,0.045574,0.12905,0.44931,0.62113,0.11508
308,0.058241,0.10664,0.031932,0.075781,0.16803,0.43242,0.091372
309,0.066362,0.10079,0.021213,0.031607,-0.042124,0.26417,0.070909
310,0.070909,0.095594,0.012119,-0.0015233,-0.19121,0.12613,0.05142
311,0.069934,0.09462,0.0020496,-0.024909,-0.30002,0.018615,0.034855
312,0.064088,0.09397,-0.0067202,-0.037252,-0.38772,-0.059989,0.021538
313,0.054344,0.090722,-0.010618,-0.039526,-0.45625,-0.11066,0.012443
314,0.041676,0.085525,-0.007045,-0.035628,-0.49653,-0.13729,0.0075714
315,0.035505,0.080978,0.0023744,-0.028157,-0.50465,-0.14769,0.0056225
316,0.0433,0.080653,0.013418,-0.017764,-0.49296,-0.15061,0.0091954
317,0.063763,0.087474,0.021863,-0.0054209,-0.47282,-0.15223,0.015692
318,0.088124,0.092021,0.028034,0.0059473,-0.45203,-0.15288,0.020564
319,0.10631,0.084226,0.028034,0.012119,-0.43352,-0.15613,0.017965
320,0.11118,0.060515,0.024137,0.015692,-0.41338,-0.16393,0.0072465
321,0.10014,0.029009,0.016991,0.019914,-0.39097,-0.17594,-0.0063954
322,0.074157,-0.00022403,0.0078962,0.027709,-0.36758,-0.18764,-0.020362
323,0.037778,-0.018413,-0.0024977,0.041027,-0.34355,-0.19478,-0.030756
324,-0.00022403,-0.024909,-0.012242,0.055643,-0.31561,-0.20063,-0.037577
325,-0.030756,-0.023285,-0.019388,0.063438,-0.28833,-0.21135,-0.043099
326,-0.046347,-0.016789,-0.025884,0.057917,-0.26494,-0.22694,-0.053168
327,-0.048296,-0.011917,-0.03303,0.036154,-0.24643,-0.24675,-0.067784
328,-0.043099,-0.012892,-0.045372,0.0049729,-0.22856,-0.26494,-0.0824
329,-0.039526,-0.021337,-0.062587,-0.025884,-0.20875,-0.27728,-0.091495
330,-0.039851,-0.03238,-0.075255,-0.04992,-0.18959,-0.28021,-0.090196
331,-0.044398,-0.043423,-0.080776,-0.062262,-0.17562,-0.27144,-0.080776
332,-0.053817,-0.054142,-0.076554,-0.064861,-0.17432,-0.25325,-0.06616
333,-0.061937,-0.062587,-0.067134,-0.063237,-0.18634,-0.23474,-0.053817
334,-0.064211,-0.067784,-0.056091,-0.061288,-0.20648,-0.21979,-0.047321
335,-0.060638,-0.069408,-0.045372,-0.060963,-0.22369,-0.20908,-0.047971
336,-0.053492,-0.06551,-0.035953,-0.061937,-0.23149,-0.19933,-0.051219
337,-0.045697,-0.05804,-0.028482,-0.060313,-0.22954,-0.18764,-0.053492
338,-0.035628,-0.050244,-0.025884,-0.054142,-0.22434,-0.174,-0.051219
339,-0.021986,-0.045372,-0.029132,-0.044398,-0.21914,-0.15841,-0.044073
340,-0.0044465,-0.042774,-0.036278,-0.035303,-0.21752,-0.13892,-0.034004
341,0.0088706,-0.038876,-0.042449,-0.026209,-0.22044,-0.1217,-0.022961
342,0.015042,-0.032705,-0.044073,-0.022636,-0.23506,-0.10774,-0.013866
343,0.014392,-0.025559,-0.043423,-0.028482,-0.26007,-0.096692,-0.0060706
344,0.0072465,-0.022961,-0.041799,-0.043099,-0.2867,-0.084999,-0.00087364
345,-0.0011985,-0.029132,-0.038227,-0.058365,-0.29807,-0.070707,-0.00054884
346,-0.0063954,-0.038227,-0.03303,-0.067459,-0.288,-0.053817,-0.0011985
347,-0.0063954,-0.045372,-0.030106,-0.068109,-0.26592,-0.035628,-0.0021729
348,-0.0031473,-0.04927,-0.030431,-0.062912,-0.25,-0.022311,-0.0021729
349,-0.00022403,-0.047646,-0.030106,-0.056416,-0.24058,-0.014191,-0.0011985
350,0.0020496,-0.042774,-0.026209,-0.04927,-0.21979,-0.010943,0.0014
351,0.0020496,-0.032705,-0.020362,-0.041475,-0.15938,-0.007045,0.0036737
352,-0.0021729,-0.017764,-0.017114,-0.032055,-0.042774,0.00075039,0.0059473
353,-0.011592,-0.0041217,-0.018413,-0.022311,0.11671,0.016666,0.0078962
354,-0.024585,0.0052977,-0.020687,-0.01614,0.27359,0.034855,0.013418
355,-0.034654,0.0065969,-0.020037,-0.015815,0.37818,0.045574,0.024461
356,-0.036602,0.0026992,-0.015815,-0.021986,0.39442,0.044275,0.03583
357,-0.029457,-0.0037969,-0.0076946,-0.031081,0.31322,0.026735,0.042326
358,-0.018738,-0.0083442,0.00075039,-0.034978,0.14886,-0.0096434,0.043625
359,-0.0067202,-0.010943,0.0052977,-0.035303,-0.062587,-0.053168,0.037129
360,0.0014,-0.010293,0.0043233,-0.034978,-0.27209,-0.098316,0.02641
361,0.0023744,-0.007045,-0.00022403,-0.036278,-0.44001,-0.13827,0.013743
362,-0.0034721,-0.00087364,-0.0057458,-0.036602,-0.55694,-0.1701,-0.00087364
363,-0.0089938,0.0065969,-0.0060706,-0.031081,-0.62905,-0.19121,-0.015165
364,-0.011917,0.015042,-0.0034721,-0.018738,-0.65666,-0.19771,-0.028482
365,-0.013541,0.024461,0.0017248,0.0026992,-0.62385,-0.18829,-0.035953
366,-0.0096434,0.032257,0.0091954,0.033231,-0.51602,-0.16003,-0.03303
367,-0.0011985,0.040052,0.016991,0.069934,-0.33867,-0.11715,-0.020037
368,0.012443,0.049147,0.024786,0.10566,-0.12235,-0.065186,-0.0015233
369,0.028359,0.059541,0.03453,0.13392,0.081627,-0.020687,0.016341
370,0.042651,0.069285,0.047847,0.14432,0.23591,0.011144,0.026735
371,0.048822,0.073507,0.061165,0.13262,0.32718,0.031282,0.028034
372,0.048822,0.070909,0.067661,0.10501,0.35999,0.041351,0.020564
373,0.04395,0.062789,0.063763,0.073507,0.33985,0.040052,0.0088706
374,0.037454,0.05142,0.054019,0.053694,0.27846,0.029333,0.0010752
375,0.030308,0.0433,0.048497,0.052395,0.18524,0.01894,0.00010078
376,0.025436,0.040052,0.05142,0.070909,0.072858,0.01829,0.0078962
377,0.026735,0.041676,0.063438,0.099492,-0.030431,0.03518,0.021538
378,0.031607,0.050121,0.081303,0.12807,-0.07493,0.070584,0.034855
379,0.038753,0.063113,0.099167,0.15016,-0.021986,0.12028,0.046223
380,0.046873,0.079679,0.10956,0.16185,0.1271,0.1768,0.055643
381,0.05272,0.092346,0.10696,0.16283,0.33498,0.23136,0.065387
382,0.057917,0.097868,0.090072,0.15373,0.5474,0.27326,0.068635
383,0.058566,0.096893,0.067336,0.14107,0.72377,0.2986,0.063763
384,0.05207,0.091372,0.044599,0.12678,0.83908,0.30412,0.051745
385,0.039727,0.081952,0.027709,0.11054,0.87773,0.29113,0.036154
386,0.025111,0.069934,0.016666,0.091696,0.82609,0.25735,0.023487
387,0.0091954,0.054344,0.01017,0.069934,0.67473,0.20051,0.014392
388,-0.0067202,0.034855,0.0072465,0.048172,0.4269,0.11703,0.0088706
389,-0.020037,0.016341,0.01017,0.028359,0.11054,0.017316,0.0075714
390,-0.029132,0.0049729,0.01829,0.014392,-0.22012,-0.077203,0.011794
391,-0.025234,0.0039985,0.030308,0.008221,-0.50075,-0.14444,0.020888
392,-0.0063954,0.012443,0.040377,0.0075714,-0.68719,-0.16945,0.032582
393,0.020239,0.028684,0.048497,0.010495,-0.77067,-0.16653,0.042651
394,0.044599,0.04395,0.059541,0.012768,-0.77327,-0.15191,0.044275
395,0.062139,0.05272,0.075456,0.011144,-0.72422,-0.13469,0.037778
396,0.072858,0.055968,0.088773,0.013418,-0.64529,-0.11326,0.031282
397,0.079354,0.059216,0.098517,0.025761,-0.54525,-0.081751,0.033231
398,0.083901,0.065062,0.10631,0.049796,-0.41695,-0.03303,0.04395
399,0.089098,0.070584,0.10924,0.078055,-0.2565,0.029009,0.061814
400,0.092996,0.073182,0.10371,0.10242,-0.081751,0.098842,0.080978
401,0.091696,0.069934,0.087799,0.11703,0.083901,0.16543,0.095594
402,0.087149,0.062789,0.064737,0.11898,0.2187,0.21805,0.10306
403,0.082602,0.056292,0.042326,0.10859,0.31646,0.2593,0.10469
404,0.080653,0.054344,0.027385,0.092996,0.38337,0.3012,0.10599
405,0.08585,0.057267,0.026085,0.079029,0.42885,0.35609,0.11151
406,0.09462,0.061814,0.037454,0.069285,0.44411,0.41585,0.1245
407,0.10014,0.064413,0.056942,0.063438,0.41391,0.45905,0.14334
408,0.098842,0.061489,0.077405,0.06084,0.33433,0.4623,0.15536
409,0.086175,0.05272,0.088773,0.054668,0.22617,0.41618,0.15373
410,0.067336,0.037129,0.089748,0.040702,0.12288,0.32913,0.13717
411,0.051096,0.015367,0.081303,0.019589,0.047847,0.21902,0.10761
412,0.039402,-0.0089938,0.065387,-0.0044465,0.013093,0.10696,0.073832
413,0.02706,-0.032055,0.039402,-0.028482,0.014392,0.009845,0.042975
414,0.011144,-0.051868,0.0046481,-0.050569,0.038428,-0.05739,0.020564
415,-0.0067202,-0.067459,-0.032055,-0.068109,0.067986,-0.093769,0.0046481
416,-0.018088,-0.078178,-0.061288,-0.078503,0.091372,-0.10384,-0.0076946
417,-0.022636,-0.081101,-0.072331,-0.082725,0.10047,-0.097017,-0.021337
418,-0.020362,-0.072006,-0.064536,-0.0824,0.098842,-0.087597,-0.032705
419,-0.015815,-0.057065,-0.045372,-0.080776,0.092996,-0.079802,-0.038551
420,-0.013216,-0.043423,-0.026533,-0.080776,0.085525,-0.07428,-0.038227
421,-0.012892,-0.04115,-0.019712,-0.082076,0.073182,-0.071032,-0.034654
422,-0.017764,-0.047646,-0.02426,-0.085324,0.058891,-0.070382,-0.034329
423,-0.026858,-0.055441,-0.03303,-0.087272,0.053369,-0.071357,-0.0405
424,-0.038227,-0.05739,-0.039526,-0.087597,0.058891,-0.07493,-0.04927
425,-0.049595,-0.054467,-0.040825,-0.084674,0.067336,-0.081426,-0.061613
426,-0.059664,-0.047646,-0.040175,-0.0824,0.071234,-0.091495,-0.072656
427,-0.067134,-0.039851,-0.038551,-0.082076,0.06831,-0.097341,-0.081426
428,-0.067134,-0.033354,-0.035953,-0.083375,0.067011,-0.097341,-0.087272
429,-0.059989,-0.029132,-0.034978,-0.084674,0.073507,-0.092794,-0.088247
430,-0.046347,-0.023935,-0.032705,-0.085648,0.08585,-0.083375,-0.083375
431,-0.032055,-0.019388,-0.027183,-0.084024,0.10274,-0.070382,-0.073955
432,-0.017114,-0.012892,-0.018738,-0.080127,0.11866,-0.05739,-0.060638
433,-0.0034721,-0.0050961,-0.011267,-0.074605,0.13165,-0.04927,-0.046347
434,0.0039985,0.0043233,-0.0057458,-0.072656,0.13587,-0.04992,-0.035628
435,0.0033489,0.011469,-0.0073698,-0.073955,0.12775,-0.059339,-0.033679
436,-0.0054209,0.013418,-0.018738,-0.072656,0.11248,-0.073955,-0.036278
437,-0.01614,0.013418,-0.037252,-0.063237,0.090072,-0.088247,-0.038876
438,-0.026533,0.013743,-0.055766,-0.046022,0.061165,-0.093769,-0.043099
439,-0.036602,0.011469,-0.069083,-0.020687,0.02706,-0.089221,-0.050894
440,-0.043748,0.0059473,-0.072981,0.0078962,-0.011267,-0.079152,-0.060638
441,-0.045047,-0.0041217,-0.065835,0.037454,-0.048296,-0.06616,-0.063561
442,-0.042124,-0.017764,-0.047321,0.057917,-0.082076,-0.055441,-0.056091
443,-0.034004,-0.027183,-0.021012,0.067661,-0.11358,-0.048296,-0.044398
444,-0.025884,-0.029132,0.0020496,0.06896,-0.14639,-0.04927,-0.036602
445,-0.019388,-0.022961,0.010495,0.066686,-0.18244,-0.061288,-0.037577
446,-0.016464,-0.012892,0.0017248,0.067336,-0.22044,-0.0824,-0.042774
447,-0.018088,-0.0031473,-0.013216,0.070259,-0.24383,-0.10286,-0.044073
448,-0.021012,0.0078962,-0.022311,0.075131,-0.23603,-0.11683,-0.037252
449,-0.021337,0.01829,-0.021012,0.079029,-0.19089,-0.1191,-0.022636
450,-0.019063,0.021863,-0.012567,0.078704,-0.1243,-0.11358,-0.0067202
451,-0.01484,0.018615,-0.0047713,0.073182,-0.056091,-0.10189,0.00075039
452,-0.01484,0.010819,-0.0047713,0.06084,-0.00022403,-0.088572,-0.0054209
453,-0.021986,0.00010078,-0.012892,0.045899,0.040377,-0.075579,-0.021661
454,-0.03173,-0.010618,-0.029782,0.030633,0.071234,-0.06616,-0.042449
455,-0.040175,-0.016464,-0.051219,0.016666,0.10047,-0.055766,-0.055766
456,-0.046022,-0.012242,-0.070382,0.0043233,0.13457,-0.040825,-0.05804
457,-0.053492,0.00010078,-0.079802,-0.0057458,0.17095,-0.018413,-0.053817
458,-0.061937,0.017316,-0.073955,-0.0093186,0.20538,0.010495,-0.044723
459,-0.065835,0.033881,-0.05804,-0.0063954,0.23234,0.044599,-0.033679
460,-0.06681,0.044275,-0.041475,-0.0021729,0.24793,0.074806,-0.023285
461,-0.067134,0.045249,-0.027508,0.0014,0.25378,0.093321,-0.019063
462,-0.068109,0.042001,-0.023285,0.0052977,0.25605,0.099492,-0.019063
463,-0.069733,0.039402,-0.025559,0.010495,0.26255,0.097543,-0.019712
464,-0.06551,0.037778,-0.031406,0.019914,0.27196,0.091372,-0.021012
465,-0.053492,0.037778,-0.035628,0.028684,0.27944,0.082927,-0.01614
466,-0.035953,0.036479,-0.036927,0.03583,0.27879,0.069285,-0.010293
467,-0.018738,0.036804,-0.034329,0.0433,0.26027,0.044924,-0.0031473
468,-0.0044465,0.042651,-0.027183,0.050446,0.21577,0.011144,0.0062721
469,0.01017,0.053369,-0.017114,0.058891,0.14821,-0.021012,0.022837
470,0.031932,0.068635,-0.0028225,0.066362,0.071234,-0.0405,0.044924
471,0.059541,0.0852,0.013418,0.072533,-0.00022403,-0.045047,0.067661
472,0.086824,0.099817,0.029009,0.074157,-0.059989,-0.040825,0.084876
473,0.10274,0.10956,0.039402,0.071558,-0.10514,-0.035628,0.09397
474,0.10079,0.10989,0.044275,0.06896,-0.13242,-0.034329,0.094295
475,0.084876,0.10047,0.048172,0.06961,-0.13567,-0.03303,0.091047
476,0.064088,0.085525,0.057592,0.075456,-0.11618,-0.025234,0.0865
477,0.048822,0.070909,0.075456,0.084226,-0.080127,-0.010618,0.084551
478,0.042326,0.062789,0.096244,0.089748,-0.034004,0.014068,0.087474
479,0.040377,0.058566,0.11411,0.086824,0.011469,0.045899,0.092021
480,0.037454,0.054993,0.12613,0.074806,0.040052,0.079029,0.092671
481,0.029009,0.046223,0.12743,0.058241,0.042326,0.10696,0.089423
482,0.014392,0.032582,0.11931,0.039078,0.01829,0.13295,0.084876
483,0.00010078,0.01764,0.10501,0.024137,-0.022636,0.15276,0.076431
484,-0.0054209,0.0023744,0.086824,0.013743,-0.067784,0.16121,0.063763
485,0.0010752,-0.007045,0.069285,0.0072465,-0.10416,0.15633,0.053694
486,0.017316,-0.008669,0.054993,0.00042559,-0.12008,0.13717,0.050121
487,0.033231,-0.0034721,0.050771,-0.0018481,-0.11293,0.10729,0.051745
488,0.040052,0.0043233,0.050771,0.0039985,-0.089871,0.072858,0.054993
489,0.040377,0.0078962,0.049147,0.014392,-0.060638,0.040377,0.054019
490,0.038753,0.0052977,0.041351,0.01894,-0.03303,0.014068,0.049472
491,0.037454,-0.0011985,0.027709,0.01829,-0.0080194,-0.0041217,0.044924
492,0.036804,-0.0089938,0.008221,0.011144,0.011144,-0.011592,0.042651
493,0.034855,-0.013541,-0.014191,0.0020496,0.019914,-0.008669,0.040052
494,0.029009,-0.01614,-0.036927,-0.010943,0.015042,-0.0037969,0.031932
495,0.022512,-0.01614,-0.061288,-0.02426,-0.011592,-0.0034721,0.016341
496,0.018615,-0.01484,-0.081426,-0.031406,-0.056416,-0.0089938,-0.00087364
497,0.023162,-0.008669,-0.089221,-0.03173,-0.10838,-0.021986,-0.014516
498,0.03583,0.0039985,-0.083375,-0.026209,-0.14834,-0.037252,-0.019063
499,0.053044,0.019914,-0.06616,-0.01549,-0.1701,-0.050244,-0.015165
500,0.065712,0.039078,-0.046347,-0.0024977,-0.17335,-0.056741,-0.0054209
501,0.069285,0.056292,-0.026858,0.0088706,-0.1688,-0.055441,0.008221
502,0.063113,0.065712,-0.0057458,0.01829,-0.17594,-0.052843,0.017316
503,0.049796,0.066037,0.014717,0.028034,-0.20583,-0.056741,0.017316
504,0.034855,0.059865,0.030957,0.037778,-0.2552,-0.067459,0.0091954
505,0.024786,0.052395,0.03583,0.04395,-0.30749,-0.079152,0.0023744
506,0.020888,0.046548,0.029658,0.044924,-0.34225,-0.0824,0.0043233
507,0.01894,0.039078,0.019264,0.040377,-0.34874,-0.072656,0.015692
508,0.017965,0.028359,0.011794,0.031282,-0.32731,-0.054142,0.030957
509,0.014068,0.015367,0.008221,0.019589,-0.28865,-0.037577,0.038103
510,0.0065969,0.0026992,0.0065969,0.0075714,-0.2526,-0.030431,0.031932
511,-0.0054209,-0.0089938,0.0075714,-0.0054209,-0.23961,-0.034654,0.015367
512,-0.020037,-0.022311,0.012119,-0.018738,-0.25487,-0.04992,-0.00022403
513,-0.034004,-0.038551,0.01764,-0.03173,-0.28963,-0.071357,-0.0041217
514,-0.041799,-0.053168,0.019589,-0.041799,-0.32731,-0.093444,0.0017248
515,-0.041475,-0.063886,0.018615,-0.046022,-0.35491,-0.11391,0.010495
516,-0.03238,-0.069408,0.019914,-0.043748,-0.36401,-0.13275,0.016666
517,-0.016789,-0.069733,0.025761,-0.034004,-0.35361,-0.14801,0.020564
518,0.0036737,-0.059339,0.039078,-0.017764,-0.32471,-0.15841,0.023487
519,0.026085,-0.038227,0.056617,-0.0011985,-0.2867,-0.16458,0.027385
520,0.046223,-0.011267,0.072858,0.013418,-0.24675,-0.16653,0.029333
521,0.057917,0.013093,0.075131,0.024137,-0.20875,-0.16328,0.023162
522,0.055643,0.02641,0.059541,0.028359,-0.1727,-0.15581,0.0095202
523,0.037129,0.030633,0.031282,0.029009,-0.13469,-0.14411,-0.0044465
524,0.011144,0.031607,0.00010078,0.031607,-0.087272,-0.1243,-0.010943
525,-0.014191,0.035505,-0.021337,0.038753,-0.027508,-0.094418,-0.0054209
526,-0.028482,0.044924,-0.026533,0.05142,0.044275,-0.055116,0.012443
527,-0.028157,0.060515,-0.018738,0.067661,0.12515,-0.0080194,0.033231
528,-0.013541,0.07773,-0.0057458,0.084226,0.20116,0.042326,0.051745
529,0.0065969,0.088448,0.0023744,0.093321,0.2593,0.088773,0.06019
530,0.025111,0.088124,0.0036737,0.091047,0.2895,0.12125,0.056292
531,0.037129,0.080653,0.00042559,0.075781,0.29665,0.14269,0.042001
532,0.040702,0.072208,-0.0067202,0.053044,0.29275,0.16315,0.024786
533,0.038103,0.066037,-0.015815,0.033231,0.29015,0.19596,0.015367
534,0.034206,0.063763,-0.02426,0.026735,0.2986,0.24825,0.019589
535,0.029658,0.061165,-0.024909,0.03518,0.32653,0.31354,0.03453
536,0.022188,0.056617,-0.019063,0.052395,0.36291,0.3733,0.053369
537,0.011469,0.049147,-0.011592,0.066037,0.38695,0.40676,0.06831
538,-0.0041217,0.037129,-0.008669,0.06961,0.37915,0.40026,0.071883
539,-0.018738,0.025111,-0.0093186,0.058891,0.3327,0.34894,0.060515
540,-0.024585,0.017316,-0.010943,0.037454,0.25248,0.26644,0.038428
541,-0.015815,0.016016,-0.010293,0.010495,0.15179,0.16965,0.011794
542,0.0059473,0.023162,-0.0083442,-0.018088,0.042001,0.073182,-0.011267
543,0.032257,0.031607,-0.011267,-0.046671,-0.06616,-0.012242,-0.030106
544,0.046548,0.033231,-0.018088,-0.075904,-0.16523,-0.085973,-0.046996
545,0.044275,0.019264,-0.026533,-0.10416,-0.24643,-0.14704,-0.062912
546,0.02706,-0.0073698,-0.036927,-0.12755,-0.30522,-0.19348,-0.078178
547,-0.00087364,-0.036278,-0.045047,-0.13794,-0.33478,-0.22337,-0.088896
548,-0.026533,-0.065186,-0.052518,-0.13404,-0.33445,-0.23181,-0.093444
549,-0.045697,-0.090845,-0.055766,-0.11651,-0.30457,-0.21914,-0.091495
550,-0.054467,-0.11001,-0.055116,-0.09117,-0.25975,-0.19413,-0.08305
551,-0.054792,-0.11975,-0.051868,-0.064211,-0.21557,-0.16653,-0.070058
552,-0.047971,-0.11845,-0.045372,-0.044073,-0.18342,-0.14704,-0.055116
553,-0.034004,-0.10838,-0.037577,-0.033354,-0.16198,-0.13567,-0.0405
554,-0.012567,-0.092794,-0.027508,-0.027508,-0.13957,-0.1243,-0.028807
555,0.01017,-0.072331,-0.01484,-0.020037,-0.10903,-0.10611,-0.021337
556,0.02706,-0.04862,-0.0011985,-0.0028225,-0.075579,-0.076229,-0.015165
557,0.036804,-0.023285,0.01894,0.029333,-0.057065,-0.038551,-0.0050961
558,0.04395,0.0020496,0.045249,0.072858,-0.067134,0.0065969,0.010819
559,0.050771,0.027709,0.071883,0.11606,-0.10124,0.056617,0.027709
560,0.053694,0.047847,0.089748,0.14789,-0.12463,0.10826,0.042001
561,0.054993,0.058891,0.09462,0.16478,-0.086623,0.16056,0.056292
562,0.054344,0.057917,0.089098,0.1768,0.052395,0.2135,0.073182
563,0.051096,0.046223,0.081303,0.19271,0.2973,0.26222,0.094295
564,0.049796,0.032906,0.079354,0.2187,0.60587,0.2973,0.11346
565,0.05142,0.025761,0.087149,0.25637,0.91086,0.31322,0.12645
566,0.058566,0.029983,0.10209,0.29665,1.1447,0.30867,0.12905
567,0.070584,0.045249,0.11671,0.32881,1.2633,0.28041,0.12125
568,0.081303,0.066686,0.12418,0.34212,1.2565,0.23851,0.10794
569,0.086175,0.084876,0.11801,0.33011,1.1437,0.19791,0.09397
570,0.084226,0.094295,0.10339,0.2947,0.95991,0.16738,0.081627
571,0.076431,0.095594,0.086824,0.24273,0.74748,0.14821,0.074482
572,0.065062,0.092996,0.072858,0.18622,0.54773,0.13847,0.074482
573,0.053044,0.087474,0.060515,0.13684,0.38272,0.12743,0.076755
574,0.042326,0.07708,0.045899,0.096244,0.25702,0.11021,0.07773
575,0.033231,0.062464,0.031607,0.061489,0.1625,0.082927,0.074157
576,0.022837,0.046873,0.022188,0.029333,0.090722,0.050446,0.068635
577,0.0091954,0.039402,0.020239,-0.0031473,0.03453,0.016341,0.059541
578,-0.0099683,0.039727,0.02641,-0.035628,-0.0089938,-0.018088,0.045899
579,-0.026858,0.041351,0.031932,-0.064536,-0.035953,-0.04862,0.027709
580,-0.039851,0.039402,0.029658,-0.085324,-0.046996,-0.07493,0.0088706
581,-0.051544,0.033231,0.020564,-0.097017,-0.045047,-0.098316,-0.0050961
582,-0.062912,0.024461,0.008221,-0.10286,-0.044398,-0.1217,-0.015815
583,-0.071032,0.016016,-0.0011985,-0.10741,-0.056416,-0.14509,-0.026209
584,-0.075904,0.0075714,-0.0047713,-0.11553,-0.084024,-0.16425,-0.035628
585,-0.075904,-0.0057458,-0.0057458,-0.1256,-0.12365,-0.17789,-0.042774
586,-0.071032,-0.023285,-0.007045,-0.13275,-0.1675,-0.18309,-0.046671
587,-0.062262,-0.0405,-0.008669,-0.13112,-0.21005,-0.17952,-0.053168
588,-0.052518,-0.055766,-0.0096434,-0.12268,-0.24318,-0.16718,-0.065835
589,-0.042774,-0.06681,-0.0089938,-0.11358,-0.26787,-0.14931,-0.078827
590,-0.033354,-0.069408,-0.007045,-0.10416,-0.2854,-0.12592,-0.087922
591,-0.025884,-0.063561,-0.0031473,-0.095068,-0.30197,-0.10286,-0.09182
592,-0.016789,-0.053168,0.0020496,-0.082725,-0.32146,-0.084349,-0.085648
593,-0.0031473,-0.040175,0.0062721,-0.071682,-0.34842,-0.071682,-0.068758
594,0.014392,-0.030756,0.0069217,-0.062912,-0.38674,-0.062587,-0.045047
595,0.029333,-0.025884,0.0078962,-0.055441,-0.44099,-0.058365,-0.01614
596,0.036154,-0.027508,0.0078962,-0.048945,-0.50627,-0.063886,0.0078962
597,0.038428,-0.033354,0.0085458,-0.041475,-0.57578,-0.073631,0.025436
598,0.038753,-0.038227,0.0072465,-0.034004,-0.6388,-0.085324,0.033881
599,0.039078,-0.033679,0.0056225,-0.030431,-0.67842,-0.097341,0.032906
600,0.039402,-0.019063,0.0046481,-0.032055,-0.67355,-0.10546,0.022512
601,0.037454,-0.00054884,0.0020496,-0.0405,-0.61054,-0.10709,0.0062721
602,0.032582,0.011144,-0.0037969,-0.050894,-0.48971,-0.095717,-0.0076946
603,0.025436,0.010495,-0.014516,-0.059989,-0.32243,-0.074605,-0.016789
604,0.015367,-0.0018481,-0.028157,-0.06551,-0.13307,-0.04927,-0.023285
605,0.0010752,-0.020037,-0.041799,-0.070058,0.052395,-0.024585,-0.034004
606,-0.012892,-0.040175,-0.054467,-0.07428,0.20928,-0.0034721,-0.047971
607,-0.02361,-0.05739,-0.065835,-0.079477,0.31874,0.015367,-0.059664
608,-0.030756,-0.069083,-0.077203,-0.084349,0.37428,0.029658,-0.063237
609,-0.036602,-0.072656,-0.085648,-0.085648,0.38662,0.032257,-0.061937
610,-0.041475,-0.068109,-0.086948,-0.079802,0.37655,0.022512,-0.061613
611,-0.041799,-0.055766,-0.081426,-0.070707,0.36064,-0.0024977,-0.061613
612,-0.0405,-0.038227,-0.071032,-0.062262,0.33952,-0.042124,-0.061288
613,-0.039526,-0.017764,-0.056416,-0.059014,0.31419,-0.090845,-0.060963
614,-0.034654,0.0049729,-0.0405,-0.058689,0.28333,-0.13697,-0.061937
615,-0.026209,0.029983,-0.025559,-0.054467,0.23883,-0.16945,-0.064536
616,-0.01549,0.057267,-0.01484,-0.045372,0.169,-0.18926,-0.070058
617,-0.0057458,0.08585,-0.0060706,-0.035303,0.065387,-0.20583,-0.072981
618,0.0036737,0.10859,0.00075039,-0.028482,-0.062912,-0.22694,-0.069408
619,0.0091954,0.11801,0.0052977,-0.029782,-0.19089,-0.25065,-0.059339
620,0.011469,0.10794,0.003024,-0.039201,-0.28346,-0.26981,-0.04992
621,0.01017,0.081627,-0.0073698,-0.052518,-0.31724,-0.27956,-0.044723
622,0.0026992,0.050121,-0.022311,-0.068109,-0.288,-0.27469,-0.042774
623,-0.0080194,0.024786,-0.037252,-0.077853,-0.212,-0.25845,-0.037902
624,-0.017764,0.011144,-0.045047,-0.077853,-0.10806,-0.22954,-0.026209
625,-0.018413,0.0065969,-0.046022,-0.06551,0.0075714,-0.18049,-0.008669
626,-0.0073698,0.008221,-0.042124,-0.047971,0.12548,-0.10709,0.014717
627,0.010819,0.01829,-0.033354,-0.028807,0.23851,-0.015165,0.042001
628,0.029009,0.035505,-0.023935,-0.011267,0.33465,0.082927,0.06831
629,0.042651,0.054019,-0.016789,0.0026992,0.39767,0.17452,0.087799
630,0.05207,0.070259,-0.017439,0.0088706,0.40546,0.24955,0.10242
631,0.056617,0.081952,-0.022961,0.0069217,0.34212,0.30055,0.11183
632,0.059541,0.087149,-0.027183,0.0078962,0.2135,0.33205,0.11736
633,0.06084,0.090072,-0.021012,0.024137,0.050771,0.34894,0.11638
634,0.058891,0.09462,-0.0044465,0.053694,-0.11001,0.35576,0.11216
635,0.051096,0.10112,0.015042,0.088773,-0.24838,0.35252,0.10794
636,0.040702,0.10501,0.031932,0.1258,-0.36953,0.32783,0.10566
637,0.037129,0.10436,0.042975,0.15796,-0.49328,0.28236,0.10566
638,0.047523,0.099167,0.052395,0.18394,-0.62873,0.22389,0.10729
639,0.066686,0.090397,0.066037,0.20863,-0.77164,0.16705,0.11054
640,0.081952,0.075781,0.083576,0.23136,-0.90124,0.11995,0.11476
641,0.083251,0.058241,0.095594,0.2502,-0.99576,0.0852,0.11703
642,0.071234,0.044599,0.095919,0.2606,-1.039,0.056942,0.11281
643,0.055968,0.039727,0.088773,0.26417,-1.0243,0.028359,0.10534
644,0.041027,0.041676,0.075781,0.258,-0.95126,-0.0044465,0.094295
645,0.029009,0.045899,0.061165,0.24208,-0.82816,-0.034978,0.07773
646,0.01894,0.047847,0.050771,0.2174,-0.66348,-0.055441,0.059216
647,0.013418,0.047198,0.045249,0.18622,-0.46535,-0.061937,0.043625
648,0.0091954,0.042326,0.036804,0.15016,-0.24708,-0.052518,0.032906
649,0.0043233,0.032906,0.021863,0.11378,-0.021012,-0.034329,0.028034
650,-0.0021729,0.01894,0.003024,0.082602,0.19986,-0.010293,0.029009
651,-0.0083442,0.0014,-0.011267,0.059216,0.40741,0.01894,0.032257
652,-0.017764,-0.018413,-0.016464,0.047847,0.5984,0.057592,0.036804
653,-0.027833,-0.036602,-0.012242,0.045899,0.76989,0.11216,0.044275
654,-0.03303,-0.048945,-0.0057458,0.051745,0.91996,0.17972,0.05142
655,-0.027508,-0.053168,0.00042559,0.062789,1.0418,0.25378,0.059541
656,-0.011917,-0.04862,0.0062721,0.075456,1.1178,0.32328,0.066686
657,0.0069217,-0.039851,0.012119,0.088124,1.1291,0.37006,0.073507
658,0.01764,-0.03238,0.017965,0.096244,1.0651,0.38207,0.073507
659,0.019914,-0.025234,0.024461,0.095594,0.93782,0.36064,0.064737
660,0.016016,-0.018088,0.032257,0.086175,0.76957,0.31159,0.048822
661,0.016016,-0.0089938,0.037454,0.074157,0.58378,0.24403,0.033556
662,0.019589,0.00075039,0.043625,0.059865,0.39994,0.16445,0.024461
663,0.020564,0.0091954,0.050121,0.044275,0.22617,0.081952,0.020564
664,0.016341,0.014392,0.051745,0.025111,0.061489,0.003024,0.016991
665,0.0062721,0.014392,0.047523,0.0033489,-0.098641,-0.069733,0.0095202
666,-0.008669,0.0049729,0.038428,-0.015815,-0.24545,-0.13015,0.00010078
667,-0.025234,-0.016464,0.029983,-0.026533,-0.35946,-0.16977,-0.0099683
668,-0.037252,-0.045697,0.022837,-0.025884,-0.41695,-0.18536,-0.018413
669,-0.041799,-0.069408,0.016991,-0.01614,-0.40331,-0.18699,-0.024909
670,-0.039201,-0.081101,0.01017,-0.0041217,-0.33185,-0.18179,-0.026533
671,-0.031406,-0.080451,0.0052977,0.0062721,-0.22661,-0.17205,-0.02426
672,-0.020687,-0.069408,0.0072465,0.0095202,-0.11975,-0.15905,-0.017764
673,-0.011917,-0.04992,0.012119,0.0046481,-0.036602,-0.14704,-0.0093186
674,-0.0037969,-0.026858,0.014068,-0.0076946,0.0085458,-0.13664,-0.0034721
675,0.003024,-0.0037969,0.013418,-0.023935,0.014068,-0.12852,-0.0050961
676,0.012443,0.014717,0.010819,-0.040825,-0.010293,-0.1204,-0.012892
677,0.025111,0.026085,0.0078962,-0.053168,-0.046996,-0.11001,-0.021337
678,0.036804,0.034206,0.008221,-0.058365,-0.076229,-0.098641,-0.027508
679,0.043625,0.041351,0.012768,-0.054792,-0.086298,-0.088247,-0.028482
680,0.047198,0.047523,0.01829,-0.045697,-0.081101,-0.085324,-0.02361
681,0.046548,0.051096,0.023487,-0.035303,-0.072006,-0.088896,-0.01614
682,0.041351,0.047523,0.023487,-0.029132,-0.070058,-0.092469,-0.014191
683,0.03453,0.039078,0.011469,-0.030756,-0.080451,-0.095717,-0.022636
684,0.029983,0.025111,-0.010618,-0.044398,-0.10221,-0.10124,-0.036278
685,0.023162,0.010819,-0.03303,-0.06681,-0.13372,-0.10968,-0.052518
686,0.0085458,-0.0037969,-0.046671,-0.09117,-0.16523,-0.12235,-0.06551
687,-0.012242,-0.017764,-0.050569,-0.11228,-0.17854,-0.13697,-0.073631
688,-0.034329,-0.026533,-0.049595,-0.12755,-0.16328,-0.15126,-0.079152
689,-0.050894,-0.026209,-0.04927,-0.13989,-0.11651,-0.16555,-0.082725
690,-0.061937,-0.020687,-0.053168,-0.14769,-0.045047,-0.17594,-0.084024
691,-0.06681,-0.012242,-0.057065,-0.15029,0.030633,-0.18082,-0.084024
692,-0.065835,-0.0011985,-0.059014,-0.14444,0.0865,-0.18861,-0.085973
693,-0.060638,0.011794,-0.055116,-0.1321,0.10404,-0.2055,-0.093444
694,-0.057715,0.023487,-0.047971,-0.11488,0.080978,-0.23019,-0.10319
695,-0.059989,0.032582,-0.0405,-0.097991,0.031607,-0.25357,-0.11001
696,-0.063886,0.037454,-0.038551,-0.084999,-0.031081,-0.26624,-0.11196
697,-0.064861,0.036479,-0.039526,-0.075255,-0.088896,-0.25975,-0.10514
698,-0.060313,0.034206,-0.038227,-0.059014,-0.1308,-0.22564,-0.087597
699,-0.047646,0.036804,-0.030106,-0.03173,-0.15451,-0.17172,-0.059664
700,-0.027183,0.043625,-0.01549,0.0033489,-0.1649,-0.10936,-0.029132
701,-0.0080194,0.054344,0.0062721,0.037778,-0.16555,-0.046347,-0.0028225
702,0.0085458,0.064413,0.027385,0.058891,-0.15223,0.008221,0.014068
703,0.016666,0.071234,0.041676,0.062789,-0.11488,0.05142,0.020239
704,0.016991,0.070259,0.045574,0.053694,-0.050894,0.090722,0.020564
705,0.01017,0.061489,0.0433,0.038428,0.031932,0.13295,0.022188
706,0.0039985,0.045899,0.035505,0.021538,0.12418,0.18914,0.030308
707,-0.0011985,0.029009,0.02706,0.0052977,0.2174,0.25215,0.04395
708,-0.0028225,0.015367,0.020239,-0.011267,0.28723,0.31127,0.058566
709,0.0010752,0.0085458,0.015692,-0.029132,0.30055,0.35154,0.070584
710,0.0088706,0.009845,0.015042,-0.041475,0.25572,0.37168,0.079679
711,0.023162,0.024137,0.021538,-0.038227,0.18459,0.38662,0.090072
712,0.044275,0.05207,0.031607,-0.013866,0.13847,0.41456,0.10274
713,0.069934,0.087799,0.040702,0.022837,0.14204,0.4636,0.11573
714,0.093321,0.12158,0.044599,0.059865,0.18557,0.51914,0.12548
715,0.10924,0.14464,0.041676,0.084551,0.24111,0.55455,0.1297
716,0.11216,0.15633,0.037129,0.093645,0.28073,0.54968,0.13132
717,0.10599,0.15698,0.034855,0.091372,0.28626,0.50323,0.13067
718,0.095269,0.14886,0.034206,0.082927,0.25085,0.4243,0.12678
719,0.085525,0.1336,0.033231,0.074806,0.18102,0.32523,0.11638
720,0.078704,0.11378,0.031932,0.070909,0.089423,0.21642,0.097543
721,0.072858,0.093321,0.027709,0.070584,-0.013541,0.11054,0.072533
722,0.06896,0.076106,0.020239,0.071558,-0.11456,0.023162,0.049472
723,0.067986,0.063763,0.013418,0.077405,-0.20258,-0.035628,0.033556
724,0.06961,0.056292,0.01017,0.089098,-0.27014,-0.064861,0.028034
725,0.071558,0.054993,0.010819,0.10631,-0.30522,-0.070058,0.031607
726,0.070584,0.058566,0.013418,0.12385,-0.28086,-0.05804,0.039727
727,0.067336,0.062139,0.017965,0.13425,-0.17594,-0.037577,0.047847
728,0.064737,0.059865,0.024137,0.12905,0.0036737,-0.019388,0.048497
729,0.06019,0.051096,0.030633,0.10989,0.21772,-0.0099683,0.043625
730,0.048172,0.035505,0.032906,0.081952,0.40384,-0.012892,0.036479
731,0.025436,0.012443,0.031607,0.05272,0.50095,-0.028482,0.028359
732,-0.00087364,-0.01549,0.028359,0.028034,0.47854,-0.056741,0.01829
733,-0.024909,-0.045047,0.023487,0.009845,0.3431,-0.093444,0.0091954
734,-0.045047,-0.067134,0.01764,-0.0024977,0.13717,-0.12787,0.00042559
735,-0.056091,-0.077853,0.013093,-0.0076946,-0.081751,-0.15516,-0.012242
736,-0.057065,-0.079152,0.012443,-0.007045,-0.25585,-0.1727,-0.025884
737,-0.046996,-0.07493,0.01764,0.00075039,-0.35167,-0.18114,-0.037577
738,-0.028482,-0.064536,0.02641,0.012768,-0.36173,-0.18147,-0.042449
739,-0.0083442,-0.053168,0.03518,0.024137,-0.30522,-0.17497,-0.040175
740,0.0075714,-0.047321,0.037129,0.031607,-0.21232,-0.16393,-0.032055
741,0.014392,-0.04862,0.034206,0.03583,-0.10838,-0.15158,-0.02426
742,0.01764,-0.054467,0.029658,0.040052,-0.013541,-0.13859,-0.020037
743,0.022188,-0.063561,0.023812,0.04395,0.055968,-0.1269,-0.018413
744,0.026085,-0.073631,0.020888,0.046873,0.098193,-0.11358,-0.017764
745,0.024786,-0.078827,0.017316,0.049796,0.11281,-0.098316,-0.01484
746,0.01894,-0.073306,0.013093,0.053044,0.11346,-0.082725,-0.010943
747,0.014068,-0.057715,0.0078962,0.059865,0.11638,-0.070382,-0.0073698
748,0.014392,-0.036602,0.0023744,0.06961,0.13425,-0.06551,-0.0067202
749,0.023487,-0.016464,-0.0034721,0.076431,0.16673,-0.070058,-0.0089938
750,0.037454,-0.0011985,-0.0089938,0.073832,0.20246,-0.082725,-0.011592
751,0.05142,0.008221,-0.012242,0.060515,0.22812,-0.099615,-0.012892
752,0.060515,0.014392,-0.013866,0.042001,0.22617,-0.11456,-0.0099683
753,0.062789,0.017316,-0.013866,0.021213,0.18232,-0.12755,-0.0041217
754,0.059541,0.016666,-0.014191,0.0017248,0.10047,-0.14216,0.00075039
755,0.054344,0.012768,-0.018088,-0.013216,0.00042559,-0.15841,-0.00022403
756,0.050446,0.0046481,-0.02426,-0.024909,-0.085973,-0.17042,-0.010943
757,0.047198,-0.008669,-0.027508,-0.03238,-0.13242,-0.17042,-0.021337
758,0.04395,-0.023285,-0.026858,-0.034654,-0.13242,-0.15808,-0.027833
759,0.037454,-0.037252,-0.022311,-0.031406,-0.10579,-0.13859,-0.024909
760,0.026085,-0.043099,-0.014516,-0.026533,-0.086623,-0.11715,-0.016789
761,0.015042,-0.037577,-0.0037969,-0.020037,-0.098965,-0.097666,-0.0060706
762,0.010819,-0.025234,0.0065969,-0.015815,-0.14964,-0.078827,0.0039985
763,0.015042,-0.015165,0.013093,-0.01484,-0.21687,-0.05739,0.013418
764,0.021213,-0.0080194,0.015367,-0.014516,-0.27728,-0.030756,0.025111
765,0.026085,-0.0037969,0.012768,-0.014191,-0.31042,-0.0037969,0.036154
766,0.026085,0.00075039,0.008221,-0.015815,-0.30294,0.01894,0.042326
767,0.016016,0.0052977,0.003024,-0.017114,-0.25747,0.030633,0.037454
768,-0.0034721,0.0091954,-0.00087364,-0.018088,-0.18926,0.023487,0.023487
769,-0.025559,0.013093,-0.0037969,-0.018738,-0.1269,0.00010078,0.0049729
770,-0.042124,0.015367,-0.010943,-0.021661,-0.08305,-0.029132,-0.012242
771,-0.046347,0.016666,-0.018413,-0.02361,-0.055116,-0.054467,-0.024585
772,-0.039526,0.016991,-0.023285,-0.021661,-0.029132,-0.070707,-0.033679
773,-0.031081,0.014392,-0.022961,-0.0099683,0.011469,-0.07493,-0.034978
774,-0.029457,0.013418,-0.020037,0.0095202,0.07708,-0.069408,-0.031081
775,-0.033354,0.016341,-0.016789,0.030957,0.1651,-0.056416,-0.024909
776,-0.042124,0.025111,-0.014516,0.047847,0.26677,-0.038876,-0.021337
777,-0.04992,0.03583,-0.015815,0.057592,0.36843,-0.011267,-0.021012
778,-0.053817,0.04395,-0.020687,0.062464,0.45093,0.03583,-0.017764
779,-0.050569,0.050446,-0.022636,0.067986,0.49121,0.099817,-0.0067202
780,-0.039526,0.056617,-0.017764,0.075781,0.46912,0.16153,0.011144
781,-0.025559,0.06019,-0.0080194,0.079354,0.3759,0.20148,0.028684
782,-0.0083442,0.06084,0.0020496,0.074482,0.22974,0.20376,0.038103
783,0.0052977,0.058566,0.0069217,0.059541,0.065387,0.1677,0.039402
784,0.0095202,0.054344,0.0049729,0.038753,-0.086948,0.10177,0.032906
785,0.00042559,0.05142,-0.0034721,0.019589,-0.20388,0.029333,0.023162
786,-0.016789,0.049147,-0.016789,0.0078962,-0.27274,-0.026858,0.013743
787,-0.03303,0.048172,-0.029132,0.0056225,-0.28573,-0.053817,0.0033489
788,-0.043099,0.046223,-0.034978,0.008221,-0.24448,-0.053492,-0.0057458
789,-0.046996,0.044924,-0.033679,0.011469,-0.15873,-0.036278,-0.014191
790,-0.044073,0.045574,-0.026533,0.013093,-0.04992,-0.014191,-0.018088
791,-0.034329,0.047523,-0.014191,0.015692,0.063763,0.0069217,-0.015165
792,-0.022636,0.048822,0.00042559,0.023487,0.16965,0.028034,-0.0060706
793,-0.012242,0.048172,0.016016,0.033881,0.2593,0.056292,0.0052977
794,-0.0080194,0.041676,0.027385,0.041351,0.31646,0.092021,0.013093
795,-0.0076946,0.029009,0.034206,0.042326,0.32263,0.12645,0.016341
796,-0.0096434,0.015367,0.040702,0.038103,0.27002,0.15276,0.016666
797,-0.0096434,0.0085458,0.050446,0.029658,0.17322,0.1625,0.017316
798,-0.007045,0.010819,0.063113,0.024786,0.052395,0.15309,0.015692
799,-0.0044465,0.019914,0.074157,0.024137,-0.073955,0.12645,0.015367
800,0.00010078,0.029658,0.077405,0.029983,-0.19478,0.082277,0.018615
801,0.0056225,0.03453,0.074157,0.038428,-0.30522,0.024461,0.028034
802,0.013418,0.031607,0.066686,0.045249,-0.40721,-0.042774,0.038753
803,0.015692,0.023162,0.059865,0.044924,-0.50075,-0.11358,0.043625
804,0.011144,0.012443,0.053369,0.037454,-0.57611,-0.17432,0.041676
805,0.0039985,0.0033489,0.050446,0.025111,-0.6245,-0.21232,0.03518
806,-0.0011985,-0.0024977,0.049472,0.011794,-0.63945,-0.22532,0.029658
807,-0.0034721,-0.0063954,0.045899,-0.0015233,-0.62256,-0.21882,0.02706
808,-0.0034721,-0.0083442,0.036154,-0.014191,-0.58065,-0.2068,0.023812
809,-0.0015233,-0.012567,0.022512,-0.027833,-0.52024,-0.19738,0.017316
810,0.00042559,-0.017114,0.009845,-0.039526,-0.44456,-0.18796,0.0091954
811,0.0052977,-0.017114,0.0026992,-0.040175,-0.35102,-0.1662,0.0049729
812,0.014717,-0.010293,0.0052977,-0.022311,-0.23928,-0.12333,0.0065969
813,0.029333,0.0043233,0.015692,0.013093,-0.11098,-0.061288,0.014068
814,0.045899,0.022188,0.028684,0.056617,0.025111,0.0075714,0.027385
815,0.054993,0.036154,0.033881,0.091047,0.15276,0.06896,0.0433
816,0.053369,0.045249,0.028034,0.10209,0.25183,0.10859,0.054993
817,0.041676,0.044924,0.015367,0.0865,0.30055,0.12418,0.058891
818,0.026085,0.033556,-0.0011985,0.053369,0.296,0.11931,0.054668
819,0.012768,0.014392,-0.014191,0.012119,0.2502,0.10306,0.043625
820,0.0059473,-0.0047713,-0.020687,-0.025234,0.18297,0.087474,0.029658
821,0.0095202,-0.017114,-0.019063,-0.052193,0.11573,0.086175,0.023162
822,0.022188,-0.020362,-0.015165,-0.06616,0.063763,0.10501,0.031282
823,0.036804,-0.022961,-0.011917,-0.066485,0.03583,0.13814,0.050121
824,0.044599,-0.031406,-0.0099683,-0.050894,0.037129,0.17257,0.072858
825,0.044275,-0.046996,-0.0083442,-0.022311,0.06019,0.19953,0.092021
826,0.038428,-0.059664,-0.0021729,0.013093,0.08585,0.20928,0.10014
827,0.032582,-0.061937,0.010495,0.045574,0.09462,0.19921,0.097218
828,0.029333,-0.054142,0.027709,0.072533,0.082602,0.16868,0.083576
829,0.027385,-0.041799,0.042975,0.095594,0.067011,0.12548,0.066362
830,0.020888,-0.029132,0.053044,0.11898,0.075781,0.084226,0.05207
831,0.010495,-0.017764,0.057267,0.13717,0.12353,0.058566,0.045899
832,0.0023744,-0.0028225,0.056617,0.14464,0.19109,0.048497,0.045249
833,0.0020496,0.012443,0.054019,0.13847,0.24501,0.04395,0.048822
834,0.0072465,0.025111,0.050121,0.11898,0.25702,0.038103,0.047523
835,0.012768,0.030633,0.042326,0.091696,0.22877,0.029658,0.037778
836,0.014392,0.031607,0.030957,0.062139,0.18622,0.021213,0.020564
837,0.009845,0.029983,0.023162,0.036479,0.15601,0.017965,0.0017248
838,0.0036737,0.028034,0.023487,0.019264,0.14659,0.020239,-0.014191
839,0.00010078,0.021863,0.029333,0.013093,0.15471,0.023812,-0.022961
840,0.00075039,0.011469,0.036154,0.013743,0.16933,0.02641,-0.021986
841,0.0065969,0.0026992,0.039727,0.01764,0.18622,0.026085,-0.013866
842,0.01894,0.0010752,0.041676,0.018615,0.20928,0.022837,-0.0021729
843,0.033231,0.01017,0.041027,0.014068,0.24533,0.016341,0.0095202
844,0.045249,0.027709,0.039402,0.008221,0.2908,0.0085458,0.017316
845,0.05142,0.048497,0.037129,0.0052977,0.33011,0.0033489,0.020239
846,0.05207,0.067661,0.031282,0.0017248,0.3392,0.0036737,0.01829
847,0.047523,0.081627,0.020564,-0.0076946,0.29535,0.0088706,0.015692
848,0.040702,0.083901,0.0069217,-0.024909,0.19011,0.011144,0.012443
849,0.033556,0.073832,-0.0083442,-0.044073,0.042975,0.0056225,0.0072465
850,0.024137,0.05142,-0.025884,-0.060313,-0.10546,-0.0041217,-0.0037969
851,0.011794,0.020239,-0.045697,-0.070707,-0.21232,-0.012242,-0.019388
852,-0.0054209,-0.007045,-0.064861,-0.07493,-0.25617,-0.011592,-0.031406
853,-0.022311,-0.021986,-0.07493,-0.073631,-0.24675,0.0010752,-0.035303
854,-0.035953,-0.020037,-0.075255,-0.067459,-0.20875,0.025111,-0.032055
855,-0.041475,-0.007045,-0.06551,-0.059339,-0.16588,0.05207,-0.022636
856,-0.036927,0.0091954,-0.049595,-0.053817,-0.12787,0.069285,-0.010293
857,-0.023285,0.024786,-0.033354,-0.054142,-0.098316,0.06961,0.0014
858,-0.0067202,0.03583,-0.025884,-0.058689,-0.082725,0.055643,0.012768
859,0.0056225,0.042326,-0.025559,-0.065186,-0.077853,0.032582,0.021213
860,0.011469,0.043625,-0.029457,-0.066485,-0.078827,0.0043233,0.019914
861,0.011144,0.042975,-0.035953,-0.056416,-0.0837,-0.024909,0.01017
862,0.009845,0.037454,-0.042124,-0.034004,-0.087922,-0.04862,0.0010752
863,0.011469,0.030633,-0.041799,-0.0037969,-0.088572,-0.059989,-0.0031473
864,0.01829,0.022512,-0.03303,0.027385,-0.094743,-0.056741,0.0010752
865,0.028359,0.016991,-0.023935,0.050771,-0.11586,-0.042774,0.011144
866,0.036804,0.014392,-0.02361,0.058891,-0.14866,-0.025559,0.020239
867,0.038753,0.014717,-0.034329,0.047523,-0.18601,-0.012242,0.023487
868,0.037129,0.011469,-0.050244,0.022837,-0.21914,-0.0099683,0.021538
869,0.034855,0.0010752,-0.062912,-0.0076946,-0.24286,-0.018088,0.01764
870,0.033881,-0.012567,-0.064861,-0.033354,-0.25292,-0.030431,0.019589
871,0.033556,-0.022636,-0.053817,-0.043423,-0.2474,-0.037902,0.031282
872,0.03518,-0.023935,-0.027833,-0.038227,-0.22759,-0.040825,0.048497
873,0.042326,-0.015165,0.0059473,-0.020362,-0.2016,-0.038227,0.062464
874,0.056942,-0.0024977,0.039402,0.0010752,-0.17237,-0.030431,0.073182
875,0.074482,0.009845,0.064413,0.023162,-0.14249,-0.020687,0.078704
876,0.086175,0.016666,0.075456,0.042001,-0.11586,-0.013866,0.076106
877,0.082602,0.01764,0.074157,0.053044,-0.094093,-0.011917,0.066686
878,0.064088,0.020239,0.065712,0.053369,-0.079152,-0.012567,0.055968
879,0.041027,0.023487,0.052395,0.048822,-0.070707,-0.014191,0.047198
880,0.024137,0.026735,0.041676,0.042975,-0.063561,-0.01484,0.042326
881,0.01894,0.029333,0.03583,0.041676,-0.055766,-0.019712,0.038103
882,0.023162,0.032257,0.03583,0.044599,-0.040175,-0.03238,0.029009
883,0.030308,0.036154,0.036804,0.046548,-0.01549,-0.057065,0.014068
884,0.032257,0.036804,0.032906,0.044924,0.014068,-0.090845,-0.0028225
885,0.023487,0.034855,0.020564,0.039402,0.040052,-0.12073,-0.017114
886,0.0065969,0.031282,0.0072465,0.032582,0.055318,-0.13957,-0.026858
887,-0.011917,0.024786,-0.00054884,0.025111,0.056617,-0.14216,-0.034004
888,-0.028482,0.015367,0.00075039,0.017965,0.045899,-0.12917,-0.037902
889,-0.041475,0.0062721,0.0039985,0.013093,0.030957,-0.11196,-0.039201
890,-0.046671,0.0010752,0.0056225,0.011144,0.011794,-0.10059,-0.037252
891,-0.040825,0.0010752,0.0043233,0.009845,-0.013216,-0.098316,-0.036927
892,-0.030106,0.0072465,-0.00022403,0.011144,-0.047321,-0.097017,-0.039851
893,-0.024909,0.015042,-0.0099683,0.013418,-0.087597,-0.091495,-0.044723
894,-0.028482,0.020888,-0.020687,0.013418,-0.13015,-0.087272,-0.04992
895,-0.038876,0.022837,-0.028157,0.0075714,-0.17367,-0.087597,-0.054142
896,-0.051868,0.019264,-0.031406,-0.0044465,-0.20648,-0.088247,-0.055766
897,-0.061937,0.01017,-0.034329,-0.018738,-0.21622,-0.079477,-0.055441
898,-0.065835,0.0014,-0.0405,-0.03303,-0.19576,-0.058365,-0.055766
899,-0.062587,-0.0037969,-0.048945,-0.042774,-0.14119,-0.025234,-0.058365
900,-0.05804,-0.0057458,-0.055766,-0.043748,-0.058365,0.014068,-0.059339
901,-0.055766,-0.0021729,-0.059664,-0.034329,0.03583,0.052395,-0.056741
902,-0.054467,0.003024,-0.057715,-0.019388,0.12158,0.081303,-0.04927
903,-0.04862,0.0023744,-0.048296,-0.0034721,0.18329,0.098517,-0.034978
904,-0.036927,-0.0034721,-0.032705,0.009845,0.2174,0.10079,-0.019712
905,-0.024909,-0.012892,-0.018738,0.019589,0.23071,0.093321,-0.0083442
906,-0.019388,-0.020687,-0.0054209,0.024786,0.23364,0.082602,-0.0044465
907,-0.020362,-0.025884,0.0095202,0.023487,0.23689,0.075131,-0.0057458
908,-0.024585,-0.025234,0.02706,0.016666,0.2528,0.076755,-0.0041217
909,-0.029782,-0.019063,0.045574,0.011144,0.28756,0.092671,0.0014
910,-0.030431,-0.0099683,0.059541,0.012768,0.34635,0.12548,0.011469
911,-0.027833,-0.00087364,0.063113,0.022188,0.42397,0.1651,0.023162
912,-0.024909,0.0033489,0.056617,0.031932,0.49608,0.19661,0.030633
913,-0.022311,0.0052977,0.042001,0.03583,0.53051,0.20505,0.028359
914,-0.017764,0.0075714,0.024461,0.032582,0.51525,0.18199,0.018615
915,-0.008669,0.014068,0.014068,0.028034,0.45873,0.13587,0.0062721
916,0.0023744,0.02641,0.01829,0.028359,0.38597,0.084226,-0.0060706
917,0.0088706,0.041027,0.033231,0.037778,0.31841,0.044924,-0.012892
918,0.013418,0.057267,0.051745,0.054668,0.27132,0.02641,-0.0089938
919,0.017965,0.071883,0.063438,0.071558,0.24468,0.02641,0.0026992
920,0.022188,0.081627,0.064737,0.080978,0.22877,0.035505,0.01829
921,0.023162,0.089748,0.057917,0.079029,0.21317,0.045899,0.028684
922,0.021863,0.09462,0.049147,0.067336,0.18979,0.050771,0.033231
923,0.019264,0.092996,0.042326,0.050121,0.15471,0.050446,0.030633
924,0.013743,0.080328,0.036479,0.028684,0.11021,0.042975,0.021863
925,0.0059473,0.06019,0.02641,0.0088706,0.061814,0.027385,0.0078962
926,0.0023744,0.039727,0.014392,-0.0041217,0.016666,0.0065969,-0.007045
927,0.0056225,0.024461,0.0014,-0.0080194,-0.023935,-0.010943,-0.022311
928,0.014717,0.01894,-0.012892,-0.0050961,-0.059664,-0.02361,-0.03173
929,0.02641,0.018615,-0.026533,0.0059473,-0.096367,-0.031406,-0.034004
930,0.032906,0.016016,-0.036278,0.021538,-0.13794,-0.034329,-0.027508
931,0.032582,0.010819,-0.034004,0.042001,-0.18894,-0.033679,-0.01484
932,0.026735,0.0023744,-0.019712,0.063113,-0.25162,-0.034004,-0.0021729
933,0.019914,-0.0044465,0.0062721,0.084551,-0.31983,-0.039526,0.0059473
934,0.017316,-0.0073698,0.038753,0.10047,-0.38804,-0.054467,0.0052977
935,0.019589,-0.0067202,0.067011,0.10501,-0.45008,-0.077203,-0.0034721
936,0.01894,-0.0044465,0.07708,0.091047,-0.4988,-0.10741,-0.016464
937,0.014068,-0.0054209,0.064413,0.062464,-0.52901,-0.14379,-0.030431
938,0.0052977,-0.0099683,0.037129,0.029009,-0.53453,-0.17984,-0.0405
939,-0.0057458,-0.014516,0.01017,0.00010078,-0.51699,-0.20485,-0.043748
940,-0.019063,-0.019063,-0.0067202,-0.016464,-0.48224,-0.2094,-0.037577
941,-0.026533,-0.015165,-0.007045,-0.017439,-0.43547,-0.19413,-0.020362
942,-0.021337,-0.00022403,0.0078962,-0.0044465,-0.3861,-0.16165,0.0043233
943,-0.0041217,0.025436,0.027709,0.015692,-0.34484,-0.12398,0.035505
944,0.022188,0.053694,0.0433,0.036154,-0.31009,-0.090521,0.062789
945,0.045574,0.074806,0.050121,0.050771,-0.27988,-0.064211,0.082277
946,0.06019,0.085525,0.048497,0.054668,-0.24773,-0.042449,0.095269
947,0.066686,0.0865,0.038428,0.051745,-0.19933,-0.02426,0.10177
948,0.06896,0.078704,0.025761,0.048822,-0.12495,-0.011917,0.10339
949,0.069285,0.067011,0.012768,0.047523,-0.028807,-0.0041217,0.10079
950,0.070584,0.060515,0.0036737,0.047847,0.065387,0.0039985,0.09462
951,0.070584,0.059216,-0.0037969,0.046223,0.13717,0.014068,0.083901
952,0.06961,0.064413,-0.0083442,0.042651,0.16868,0.025436,0.070259
953,0.067986,0.074482,-0.0093186,0.039727,0.15601,0.034206,0.056292
954,0.065712,0.083251,-0.0044465,0.038428,0.11151,0.038753,0.0433
955,0.063438,0.08585,0.0020496,0.03583,0.058891,0.037129,0.033231
956,0.057267,0.080653,0.0072465,0.032906,0.023487,0.027709,0.030633
957,0.048172,0.06896,0.011469,0.031282,0.021213,0.014068,0.034855
958,0.037129,0.053044,0.014392,0.033881,0.053044,-0.00022403,0.042975
959,0.029009,0.033881,0.014392,0.038428,0.10469,-0.012892,0.048172
960,0.025111,0.010819,0.011794,0.044275,0.15926,-0.022961,0.047847
961,0.021538,-0.010293,0.0091954,0.050771,0.20635,-0.028482,0.038753
962,0.013418,-0.025234,0.0072465,0.057917,0.24371,-0.030431,0.025111
963,0.0036737,-0.031081,0.0075714,0.065062,0.27619,-0.028482,0.012443
964,-0.0050961,-0.028482,0.0062721,0.071558,0.31029,-0.021337,0.0020496
965,-0.011592,-0.017439,0.00010078,0.072858,0.35089,-0.0099683,-0.007045
966,-0.01549,-0.0031473,-0.0093186,0.066686,0.39117,0.0033489,-0.015815
967,-0.014191,0.0091954,-0.01549,0.054993,0.41585,0.016341,-0.020037
968,-0.0083442,0.014717,-0.013866,0.041027,0.40806,0.029009,-0.017764
969,0.0026992,0.013743,-0.0015233,0.029009,0.36551,0.042001,-0.0096434
970,0.014717,0.010819,0.017965,0.01894,0.3038,0.06084,0.0010752
971,0.020564,0.0065969,0.034206,0.010819,0.25215,0.087474,0.010819
972,0.019264,-0.00087364,0.040377,0.0052977,0.22747,0.1219,0.01764
973,0.012443,-0.011917,0.03518,0.0043233,0.22844,0.16218,0.026735
974,0.0078962,-0.02361,0.022837,0.0039985,0.24241,0.20376,0.03583
975,0.009845,-0.036278,0.011469,0.0046481,0.2502,0.23916,0.040702
976,0.019914,-0.045372,0.0039985,0.0020496,0.22584,0.25637,0.040702
977,0.032257,-0.047646,0.0010752,-0.0093186,0.14626,0.24793,0.037129
978,0.039402,-0.04115,0.0036737,-0.032055,-0.00054884,0.21935,0.032906
979,0.040702,-0.029457,0.0078962,-0.063237,-0.19673,0.1768,0.031607
980,0.034206,-0.019063,0.0091954,-0.097017,-0.40169,0.12483,0.032582
981,0.025111,-0.013216,0.0065969,-0.12333,-0.57026,0.068635,0.031282
982,0.01894,-0.010293,0.0026992,-0.13729,-0.66868,0.0088706,0.025436
983,0.015367,-0.0063954,-0.0015233,-0.13859,-0.68232,-0.051544,0.013093
984,0.012119,-0.00022403,-0.0076946,-0.12852,-0.61379,-0.10741,-0.0047713
985,0.0095202,0.0056225,-0.017764,-0.11098,-0.48711,-0.15353,-0.023285
986,0.0043233,0.0069217,-0.029457,-0.085648,-0.34095,-0.18536,-0.037577
987,-0.0011985,0.0049729,-0.038227,-0.058365,-0.20778,-0.20388,-0.04862
988,-0.0076946,0.00075039,-0.039201,-0.030431,-0.1178,-0.21427,-0.058365
989,-0.018738,-0.0057458,-0.03303,-0.0093186,-0.079802,-0.22272,-0.067134
990,-0.028482,-0.015165,-0.02426,-0.00054884,-0.082725,-0.22759,-0.072656
991,-0.031406,-0.029132,-0.018088,-0.0037969,-0.09929,-0.22304,-0.07493
992,-0.027833,-0.045697,-0.014191,-0.01484,-0.096692,-0.2042,-0.076554
993,-0.021012,-0.057715,-0.007045,-0.026858,-0.052193,-0.16782,-0.075255
994,-0.01549,-0.061288,0.0014,-0.035628,0.037454,-0.11261,-0.068758
995,-0.0099683,-0.056091,0.011794,-0.035953,0.16348,-0.037252,-0.057715
996,0.0020496,-0.045372,0.020239,-0.026858,0.30672,0.056942,-0.038227
997,0.021538,-0.030431,0.026085,-0.010293,0.44541,0.16185,-0.0080194
998,0.047198,-0.012892,0.029983,0.014392,0.5513,0.26579,0.027709
999,0.072858,0.0065969,0.037454,0.039727,0.59612,0.35284,0.062464
1000,0.092346,0.020888,0.044275,0.057917,0.56786,0.40286,0.087799
1001,0.10306,0.030633,0.045249,0.067986,0.48959,0.41228,0.10079
1002,0.10729,0.039078,0.040377,0.072533,0.40319,0.39019,0.10371
1003,0.10079,0.048172,0.033231,0.077405,0.34797,0.35024,0.10112
1004,0.080328,0.057592,0.026085,0.08585,0.347,0.30445,0.094295
1005,0.050771,0.066362,0.01764,0.095269,0.40026,0.26417,0.081952
1006,0.023812,0.074157,0.009845,0.10274,0.49088,0.24208,0.06961
1007,0.014392,0.079354,0.0039985,0.10729,0.58638,0.24371,0.065712
1008,0.020888,0.082277,0.00042559,0.11021,0.64192,0.25962,0.071234
1009,0.033881,0.082602,0.0014,0.11021,0.61853,0.27132,0.080328
1010,0.041351,0.080653,0.0059473,0.10404,0.5081,0.26319,0.0865
1011,0.039078,0.075456,0.012119,0.088773,0.3379,0.22584,0.0852
1012,0.02706,0.06896,0.015692,0.065062,0.15146,0.15861,0.075131
1013,0.011144,0.062139,0.014068,0.03518,-0.011267,0.071558,0.055968
1014,-0.0063954,0.051096,0.0049729,0.0049729,-0.12365,-0.019712,0.033556
1015,-0.027508,0.034855,-0.0044465,-0.019388,-0.18504,-0.097341,0.016016
1016,-0.047646,0.01829,-0.011592,-0.033679,-0.21557,-0.14964,0.0046481
1017,-0.061288,0.0049729,-0.015815,-0.034329,-0.23798,-0.17497,-0.0041217
1018,-0.062912,-0.0015233,-0.015165,-0.022311,-0.26234,-0.18179,-0.010943
1019,-0.053492,-0.0011985,-0.011267,-0.0044465,-0.2893,-0.174,-0.008669
1020,-0.040175,0.00010078,-0.0018481,0.01017,-0.31496,-0.15711,0.0036737
1021,-0.023935,0.0026992,0.0069217,0.01764,-0.33478,-0.13794,0.019264
1022,-0.010293,0.0052977,0.012443,0.017965,-0.34712,-0.12138,0.030308
1023,-0.00022403,0.0072465,0.012768,0.013743,-0.35264,-0.10709,0.033231
1024,0.0085458,0.0039985,0.013093,0.01017,-0.35914,-0.095717,0.028684
1025,0.011469,-0.0067202,0.012443,0.0078962,-0.3744,-0.088247,0.018615
1026,0.0062721,-0.024909,0.012443,0.0075714,-0.40851,-0.086298,0.010819
1027,-0.0050961,-0.045047,0.011794,0.0033489,-0.46535,-0.089221,0.0075714
1028,-0.014516,-0.060313,0.0056225,-0.0067202,-0.54395,-0.097341,0.0091954
1029,-0.019388,-0.06551,-0.0037969,-0.020362,-0.63035,-0.11131,0.013418
1030,-0.019388,-0.063886,-0.013216,-0.035303,-0.70765,-0.13177,0.01894
1031,-0.01549,-0.054467,-0.018088,-0.046996,-0.7645,-0.16035,0.020888
1032,-0.0076946,-0.038876,-0.015815,-0.050244,-0.79503,-0.18926,0.021213
1033,0.0033489,-0.016464,-0.0028225,-0.042449,-0.79633,-0.20713,0.020888
1034,0.016991,0.0069217,0.01829,-0.022311,-0.76774,-0.21102,0.021863
1035,0.029009,0.025436,0.038753,0.0065969,-0.70571,-0.20031,0.025761
1036,0.039402,0.039402,0.053694,0.041676,-0.60339,-0.17887,0.03453
1037,0.048172,0.049796,0.056292,0.073507,-0.45463,-0.15321,0.0433
1038,0.050771,0.056942,0.049472,0.097543,-0.24968,-0.12592,0.042975
1039,0.042975,0.058241,0.039078,0.11021,0.0091954,-0.09994,0.029983
1040,0.022837,0.053694,0.029658,0.11054,0.29405,-0.075255,0.0065969
1041,-0.0028225,0.046548,0.022837,0.098193,0.53863,-0.054142,-0.021337
1042,-0.033354,0.040377,0.019264,0.07708,0.67797,-0.044398,-0.045047
1043,-0.063886,0.039402,0.019264,0.053044,0.68382,-0.045697,-0.060313
1044,-0.0837,0.041351,0.020564,0.033556,0.57209,-0.054142,-0.072006
1045,-0.089871,0.041351,0.023162,0.019914,0.38987,-0.06681,-0.084349
1046,-0.081426,0.036804,0.025111,0.013093,0.20473,-0.081751,-0.096692
1047,-0.064861,0.030957,0.025111,0.014068,0.074482,-0.093769,-0.10221
1048,-0.04862,0.027385,0.02706,0.022188,0.031282,-0.093119,-0.097341
1049,-0.038227,0.029658,0.030633,0.036479,0.0852,-0.071682,-0.077528
1050,-0.03238,0.037129,0.033881,0.050121,0.21577,-0.03238,-0.049595
1051,-0.028157,0.046548,0.036154,0.056942,0.37136,0.012768,-0.024585
1052,-0.020687,0.053369,0.03583,0.055643,0.48991,0.045574,-0.0089938
1053,-0.010618,0.058241,0.029333,0.047523,0.53051,0.058891,-0.0050961
1054,-0.0044465,0.060515,0.01764,0.037454,0.49673,0.052395,-0.0080194
1055,-0.0063954,0.059865,0.0062721,0.029333,0.42592,0.035505,-0.011917
1056,-0.017764,0.054019,-0.0060706,0.023812,0.35219,0.016016,-0.01484
1057,-0.029457,0.044275,-0.025884,0.016341,0.2921,-0.0060706,-0.017764
1058,-0.038227,0.034855,-0.053168,0.0088706,0.2463,-0.028157,-0.021012
1059,-0.044398,0.025761,-0.078178,0.0033489,0.22357,-0.047646,-0.023285
1060,-0.045697,0.018615,-0.09117,0.0023744,0.22812,-0.059664,-0.021337
1061,-0.044398,0.014392,-0.09117,0.0039985,0.25248,-0.064536,-0.016789
1062,-0.038876,0.011469,-0.081426,0.0091954,0.26482,-0.06681,-0.013866
1063,-0.031406,0.0078962,-0.065835,0.017316,0.24468,-0.068109,-0.011267
1064,-0.024585,0.00042559,-0.049595,0.028034,0.18881,-0.065835,-0.0083442
1065,-0.016789,-0.0060706,-0.034329,0.041027,0.10436,-0.05739,-0.00022403
1066,-0.0054209,-0.0073698,-0.019712,0.051096,0.008221,-0.041799,0.014717
1067,0.010819,-0.0034721,-0.0047713,0.058241,-0.082725,-0.018088,0.032257
1068,0.03453,0.003024,0.011144,0.062139,-0.16295,0.0091954,0.047847
1069,0.057592,0.0023744,0.028359,0.063113,-0.22726,0.037129,0.056617
1070,0.073832,-0.010293,0.040377,0.059216,-0.27501,0.062789,0.06019
1071,0.07773,-0.034978,0.044275,0.046548,-0.30554,0.080003,0.057917
1072,0.066037,-0.069083,0.034855,0.02706,-0.32276,0.081627,0.051096
1073,0.044275,-0.10286,0.015042,0.0056225,-0.32958,0.069285,0.038103
1074,0.020239,-0.12463,-0.0063954,-0.013866,-0.32276,0.055318,0.020888
1075,0.0036737,-0.13145,-0.021337,-0.027183,-0.29547,0.051745,0.0072465
1076,-0.0018481,-0.12885,-0.028157,-0.034978,-0.2526,0.061489,-0.00054884
1077,0.0010752,-0.12203,-0.029782,-0.036278,-0.2029,0.07708,-0.0031473
1078,0.010495,-0.11326,-0.028482,-0.035303,-0.15581,0.08585,-0.00087364
1079,0.023487,-0.10026,-0.026209,-0.037902,-0.11326,0.079679,0.0046481
1080,0.031282,-0.080127,-0.023935,-0.044723,-0.076554,0.061165,0.012443
1081,0.030957,-0.056416,-0.022961,-0.048945,-0.048296,0.039402,0.01894
1082,0.023162,-0.033679,-0.021986,-0.046022,-0.029782,0.022188,0.023812
1083,0.014392,-0.010943,-0.018088,-0.033354,-0.019388,0.015692,0.028034
1084,0.012768,0.012443,-0.012892,-0.021986,-0.013866,0.01829,0.034855
1085,0.01829,0.029009,-0.010293,-0.019063,-0.0073698,0.028034,0.042001
1086,0.028034,0.035505,-0.011592,-0.026209,0.0072465,0.036804,0.042975
1087,0.033231,0.033231,-0.016464,-0.0405,0.027385,0.040377,0.03518
1088,0.029009,0.029983,-0.021661,-0.051544,0.045249,0.036479,0.022512
1089,0.014392,0.027709,-0.022961,-0.051868,0.053044,0.019264,0.009845
1090,0.0010752,0.027709,-0.021012,-0.042449,0.045899,-0.015815,-0.0034721
1091,-0.0015233,0.030633,-0.017764,-0.031081,0.016341,-0.067459,-0.016464
1092,0.003024,0.038103,-0.01614,-0.030431,-0.034654,-0.12852,-0.029132
1093,0.010495,0.046873,-0.018413,-0.045697,-0.10026,-0.18894,-0.042124
1094,0.013743,0.054344,-0.023935,-0.071682,-0.16912,-0.24415,-0.054467
1095,0.011794,0.063113,-0.029457,-0.099615,-0.23928,-0.28703,-0.061937
1096,0.0085458,0.072533,-0.033679,-0.12008,-0.31042,-0.31106,-0.060638
1097,0.0059473,0.079029,-0.030431,-0.1269,-0.37765,-0.30749,-0.048296
1098,0.0085458,0.084226,-0.014516,-0.11423,-0.42572,-0.27501,-0.026533
1099,0.020888,0.086824,0.009845,-0.082076,-0.43514,-0.22304,-0.0018481
1100,0.041676,0.086824,0.034855,-0.039526,-0.39519,-0.16068,0.01894
1101,0.064413,0.087799,0.054019,0.0026992,-0.31236,-0.093444,0.031607
1102,0.080003,0.093321,0.066362,0.041027,-0.20063,-0.026209,0.03583
1103,0.0865,0.10404,0.073507,0.073507,-0.07428,0.039402,0.038428
1104,0.0865,0.11703,0.073832,0.092996,0.051096,0.10047,0.042651
1105,0.082277,0.12288,0.063438,0.098842,0.15828,0.15309,0.049796
1106,0.071883,0.11768,0.044275,0.093645,0.22812,0.19499,0.057917
1107,0.058241,0.098517,0.022188,0.084226,0.25637,0.22974,0.062789
1108,0.046873,0.070909,0.0043233,0.076755,0.25215,0.25962,0.059216
1109,0.040377,0.044275,-0.0041217,0.074157,0.24468,0.28593,0.053694
1110,0.03583,0.025436,-0.0018481,0.080653,0.26709,0.31386,0.053369
1111,0.035505,0.021863,0.012768,0.095594,0.32913,0.34732,0.059541
1112,0.038103,0.028684,0.03518,0.11768,0.40708,0.3798,0.069285
1113,0.041676,0.039078,0.056617,0.14334,0.45775,0.39344,0.080328
1114,0.045574,0.048497,0.073832,0.1638,0.44769,0.3746,0.083901
1115,0.043625,0.054344,0.082602,0.16868,0.36843,0.32328,0.079679
1116,0.033881,0.055968,0.081952,0.15633,0.24143,0.25248,0.073182
1117,0.022512,0.058241,0.073507,0.13457,0.10242,0.18134,0.067986
1118,0.018615,0.061489,0.061489,0.11346,-0.016464,0.12288,0.065712
1119,0.023812,0.065387,0.050121,0.096244,-0.096042,0.079679,0.066686
1120,0.037129,0.070909,0.042001,0.080653,-0.1321,0.045249,0.069285
1121,0.047847,0.075456,0.036154,0.059541,-0.13469,0.01017,0.067661
1122,0.05207,0.078704,0.033556,0.03583,-0.123,-0.02361,0.06084
1123,0.048497,0.080003,0.035505,0.020239,-0.11261,-0.052518,0.054993
1124,0.040702,0.076106,0.040702,0.017965,-0.11228,-0.073631,0.049796
1125,0.028684,0.06831,0.0433,0.02706,-0.12333,-0.0837,0.045574
1126,0.014717,0.056942,0.038753,0.041351,-0.14314,-0.0837,0.0433
1127,0.0017248,0.048172,0.029333,0.05272,-0.15905,-0.077853,0.042326
1128,-0.0054209,0.042326,0.020564,0.054993,-0.16588,-0.072006,0.043625
1129,-0.0047713,0.036479,0.016991,0.049796,-0.1623,-0.069733,0.045574
1130,0.0010752,0.032906,0.013743,0.042975,-0.14964,-0.071032,0.047847
1131,0.0072465,0.031282,0.011794,0.040702,-0.13599,-0.074605,0.048172
1132,0.0095202,0.028359,0.0085458,0.044599,-0.13534,-0.077203,0.043625
1133,0.0078962,0.023487,0.003024,0.047847,-0.15646,-0.071682,0.029658
1134,0.0065969,0.017316,-0.0037969,0.045574,-0.19056,-0.055766,0.011144
1135,0.0062721,0.01017,-0.0076946,0.041027,-0.21752,-0.034329,-0.0028225
1136,0.0065969,0.0039985,-0.0037969,0.038753,-0.22434,-0.019063,-0.0076946
1137,0.0017248,-0.0021729,0.0020496,0.037454,-0.20875,-0.022311,-0.0083442
1138,-0.011267,-0.0080194,0.0046481,0.029009,-0.17984,-0.044073,-0.008669
1139,-0.03173,-0.017114,-0.00022403,0.011144,-0.14379,-0.072981,-0.012567
1140,-0.04927,-0.029782,-0.0080194,-0.01484,-0.10611,-0.096692,-0.021661
1141,-0.055766,-0.043423,-0.015815,-0.04927,-0.06616,-0.10514,-0.033679
1142,-0.052193,-0.055441,-0.026209,-0.083375,-0.028482,-0.10124,-0.043748
1143,-0.043099,-0.060963,-0.039201,-0.10936,0.0026992,-0.090196,-0.051219
1144,-0.033679,-0.060313,-0.050894,-0.12105,0.029333,-0.076879,-0.052193
1145,-0.026533,-0.059339,-0.059014,-0.12203,0.055318,-0.061613,-0.046996
1146,-0.021986,-0.061288,-0.061613,-0.11521,0.092021,-0.046022,-0.039851
1147,-0.017439,-0.063561,-0.058689,-0.10319,0.14496,-0.027833,-0.031406
1148,-0.010943,-0.060313,-0.050569,-0.085648,0.21577,-0.0057458,-0.022961
1149,-0.0047713,-0.04927,-0.037902,-0.065186,0.3012,0.019914,-0.01614
1150,-0.00022403,-0.032055,-0.02426,-0.038551,0.38954,0.045249,-0.011917
1151,-0.00022403,-0.013866,-0.010618,-0.0083442,0.4662,0.069934,-0.0080194
1152,-0.0060706,0.00010078,-0.00087364,0.022512,0.52434,0.087149,-0.0096434
1153,-0.015165,0.0069217,0.0072465,0.047523,0.56267,0.091696,-0.01549
1154,-0.02361,0.0072465,0.015692,0.064737,0.58605,0.081952,-0.022636
1155,-0.030756,0.0036737,0.020888,0.074157,0.5958,0.064737,-0.030106
1156,-0.034978,0.0023744,0.022512,0.078704,0.59093,0.046548,-0.036278
1157,-0.035953,0.0049729,0.023487,0.080653,0.56104,0.03453,-0.042774
1158,-0.032055,0.011469,0.024137,0.080653,0.5068,0.03518,-0.046347
1159,-0.025559,0.020888,0.02641,0.081627,0.43242,0.053694,-0.044073
1160,-0.01549,0.033881,0.031932,0.083901,0.34667,0.090722,-0.032705
1161,-0.0034721,0.047523,0.037454,0.086175,0.24176,0.131,-0.011267
1162,0.0075714,0.054344,0.042651,0.08585,0.10339,0.15081,0.010819
1163,0.016016,0.053369,0.044924,0.078055,-0.064861,0.13132,0.025111
1164,0.020888,0.042975,0.040377,0.066686,-0.24221,0.075781,0.028034
1165,0.022837,0.026085,0.031282,0.048822,-0.39714,0.0017248,0.01894
1166,0.021538,0.0052977,0.019589,0.029333,-0.504,-0.070058,0.0056225
1167,0.015042,-0.012892,0.0020496,0.011794,-0.55435,-0.12625,-0.0060706
1168,0.0062721,-0.021661,-0.01549,-0.0041217,-0.56441,-0.16295,-0.014191
1169,-0.0015233,-0.022311,-0.025234,-0.015815,-0.5537,-0.18179,-0.014516
1170,-0.0037969,-0.020037,-0.023935,-0.025559,-0.53161,-0.19024,-0.0067202
1171,-0.0050961,-0.018413,-0.016789,-0.037577,-0.50465,-0.19381,0.0052977
1172,-0.0067202,-0.018088,-0.011917,-0.050569,-0.47444,-0.19316,0.014068
1173,-0.0057458,-0.016464,-0.0080194,-0.059664,-0.44294,-0.18764,0.018615
1174,-0.0021729,-0.013216,0.0023744,-0.059989,-0.41143,-0.18017,0.018615
1175,-0.0015233,-0.0089938,0.018615,-0.050244,-0.37927,-0.17887,0.016666
1176,-0.00087364,-0.0060706,0.038103,-0.031406,-0.35037,-0.18309,0.012443
1177,0.0020496,-0.0047713,0.055968,-0.0096434,-0.33218,-0.19154,0.0075714
1178,0.011794,-0.0034721,0.071234,0.009845,-0.32438,-0.19771,0.0059473
1179,0.029009,0.00075039,0.080653,0.021213,-0.31009,-0.19024,0.0085458
1180,0.046548,0.0065969,0.087474,0.026735,-0.27144,-0.15905,0.018615
1181,0.059541,0.012119,0.087474,0.029658,-0.18764,-0.10156,0.036479
1182,0.065712,0.016341,0.080978,0.037129,-0.047646,-0.019712,0.056617
1183,0.066037,0.019589,0.071234,0.048172,0.1336,0.074806,0.073182
1184,0.062464,0.026085,0.057917,0.058241,0.31841,0.16965,0.083576
1185,0.056942,0.036154,0.04395,0.065387,0.46685,0.25475,0.088448
1186,0.049796,0.048497,0.030957,0.066686,0.56039,0.31614,0.091696
1187,0.040702,0.059865,0.024461,0.062789,0.59742,0.35219,0.098193
1188,0.030633,0.067011,0.026735,0.057917,0.58378,0.36389,0.10534
1189,0.024461,0.070584,0.036479,0.053694,0.52726,0.35317,0.10859
1190,0.026735,0.067986,0.048822,0.045899,0.43794,0.32426,0.10534
1191,0.03453,0.061814,0.057592,0.034855,0.32848,0.28073,0.09397
1192,0.039402,0.049796,0.056942,0.024137,0.22129,0.22941,0.076106
1193,0.039727,0.03453,0.047523,0.021213,0.13749,0.18362,0.059865
1194,0.037129,0.01829,0.029658,0.029333,0.085525,0.14626,0.049796
1195,0.031282,0.0039985,0.011794,0.045574,0.058891,0.11703,0.04395
1196,0.024137,-0.0060706,0.0026992,0.066037,0.047198,0.09462,0.040052
1197,0.021213,-0.010618,0.003024,0.0852,0.045899,0.082602,0.036479
1198,0.02641,-0.007045,0.013093,0.098517,0.042975,0.080328,0.037129
1199,0.038428,0.0017248,0.02641,0.10371,0.028359,0.082927,0.042651
1200,0.05142,0.013743,0.037778,0.096893,-0.0015233,0.080978,0.047847
1201,0.058241,0.027709,0.042326,0.076755,-0.048945,0.071234,0.045574
1202,0.058241,0.040702,0.036479,0.045899,-0.10611,0.048172,0.032582
1203,0.052395,0.049472,0.021538,0.014392,-0.16198,0.013418,0.010819
1204,0.036804,0.05142,0.00010078,-0.014191,-0.20778,-0.027183,-0.010943
1205,0.013093,0.046223,-0.021661,-0.036278,-0.23798,-0.064536,-0.027508
1206,-0.013541,0.040702,-0.039851,-0.055116,-0.24188,-0.088572,-0.037252
1207,-0.035628,0.034855,-0.053168,-0.070382,-0.20388,-0.097991,-0.042124
1208,-0.04862,0.028034,-0.059664,-0.078178,-0.11975,-0.098965,-0.046347
1209,-0.050244,0.016991,-0.060963,-0.07493,0.0020496,-0.095393,-0.04992
1210,-0.045697,-0.0034721,-0.058689,-0.060313,0.13392,-0.090845,-0.053168
1211,-0.038876,-0.034654,-0.053168,-0.039526,0.23656,-0.086948,-0.056416
1212,-0.034654,-0.073631,-0.047971,-0.019063,0.27456,-0.083375,-0.058365
1213,-0.033354,-0.10774,-0.039526,-0.0054209,0.23883,-0.077853,-0.05739
1214,-0.034004,-0.1282,-0.030756,0.0020496,0.14984,-0.070382,-0.054142
1215,-0.035953,-0.13015,-0.022311,0.0010752,0.045249,-0.064536,-0.04992
1216,-0.039851,-0.11228,-0.016464,-0.0083442,-0.035953,-0.064536,-0.042774
1217,-0.040175,-0.076229,-0.012892,-0.022961,-0.070707,-0.063237,-0.034004
1218,-0.036927,-0.034329,-0.0093186,-0.035628,-0.050569,-0.051868,-0.027508
1219,-0.031081,0.0020496,-0.0060706,-0.042124,0.016341,-0.03238,-0.023285
1220,-0.026858,0.022188,-0.0054209,-0.045047,0.10112,-0.0083442,-0.022311
1221,-0.025884,0.02706,-0.0080194,-0.044073,0.17062,0.0078962,-0.020037
1222,-0.026209,0.02706,-0.017114,-0.039201,0.20148,0.009845,-0.019388
1223,-0.025559,0.029009,-0.027508,-0.032055,0.18979,-0.0018481,-0.020037
1224,-0.023285,0.037129,-0.030756,-0.025884,0.14561,-0.021012,-0.017764
1225,-0.020037,0.053369,-0.025884,-0.020037,0.0852,-0.040825,-0.011917
1226,-0.010293,0.074806,-0.01484,-0.011592,0.025761,-0.053817,-0.0037969
1227,0.0065969,0.092996,-0.00054884,0.00010078,-0.019388,-0.056741,0.0039985
1228,0.02706,0.10112,0.012768,0.016666,-0.044723,-0.059339,0.01017
1229,0.041676,0.09462,0.014392,0.034206,-0.056741,-0.068758,0.009845
1230,0.050121,0.075456,0.0059473,0.047198,-0.066485,-0.082725,0.0039985
1231,0.052395,0.051096,-0.0057458,0.053694,-0.081751,-0.092794,-0.0021729
1232,0.050771,0.030633,-0.011267,0.058891,-0.10514,-0.089221,-0.0057458
1233,0.044599,0.020888,-0.0099683,0.065387,-0.12527,-0.073955,-0.0011985
1234,0.036154,0.022188,-0.0024977,0.074157,-0.13437,-0.056416,0.0091954
1235,0.029333,0.024786,0.0056225,0.079679,-0.13145,-0.043748,0.016666
1236,0.024786,0.025761,0.009845,0.081303,-0.123,-0.042124,0.01764
1237,0.022512,0.025111,0.008221,0.078704,-0.11586,-0.04862,0.016991
1238,0.023487,0.019264,0.0020496,0.069934,-0.11131,-0.054467,0.017316
1239,0.030308,0.0072465,-0.0044465,0.055968,-0.10871,-0.058689,0.019589
1240,0.04395,-0.0057458,-0.0099683,0.041676,-0.10611,-0.061613,0.022188
1241,0.063763,-0.016464,-0.015165,0.029983,-0.10124,-0.061937,0.021213
1242,0.078055,-0.023935,-0.01614,0.020564,-0.089546,-0.05804,0.019264
1243,0.081303,-0.030431,-0.012892,0.012768,-0.070058,-0.04927,0.01829
1244,0.06831,-0.042449,-0.0083442,0.0026992,-0.043748,-0.037577,0.016666
1245,0.040377,-0.061288,-0.0047713,-0.0080194,-0.017439,-0.027183,0.012768
1246,0.0065969,-0.080451,-0.0024977,-0.017114,-0.0011985,-0.023285,0.0072465
1247,-0.017764,-0.088247,0.00075039,-0.021661,-0.00087364,-0.026858,0.00042559
1248,-0.022961,-0.080451,0.0062721,-0.017114,-0.012242,-0.035303,-0.0060706
1249,-0.013216,-0.061613,0.0085458,-0.0073698,-0.026858,-0.043099,-0.013541
1250,0.00042559,-0.040175,0.0043233,-0.00054884,-0.037902,-0.045372,-0.020037
1251,0.0072465,-0.024909,-0.0024977,0.00042559,-0.037902,-0.041475,-0.022311
1252,0.0052977,-0.016789,-0.0067202,-0.0057458,-0.029782,-0.03238,-0.022311
1253,-0.00022403,-0.012242,-0.0047713,-0.012892,-0.022636,-0.020037,-0.022636
1254,-0.0041217,-0.0083442,0.0020496,-0.01614,-0.021012,-0.0024977,-0.02426
1255,-0.0018481,-0.0021729,0.011144,-0.017439,-0.024585,0.015367,-0.025234
1256,0.0043233,0.0095202,0.016016,-0.021337,-0.027508,0.029009,-0.021012
1257,0.008221,0.026085,0.015692,-0.027183,-0.025234,0.032582,-0.013216
1258,0.0072465,0.044599,0.0095202,-0.028157,-0.020037,0.02706,-0.0057458
1259,0.0039985,0.060515,0.0020496,-0.019712,-0.018738,0.016991,-0.00054884
1260,0.00010078,0.06961,-0.00087364,-0.0018481,-0.026858,0.0046481,-0.00054884
1261,-0.0028225,0.070584,0.00010078,0.01894,-0.043423,-0.0054209,-0.0057458
1262,-0.0037969,0.066362,0.00042559,0.033556,-0.064861,-0.0096434,-0.012567
1263,-0.0050961,0.061814,0.0023744,0.041351,-0.086948,-0.0063954,-0.019063
1264,-0.0089938,0.059216,0.0088706,0.044275,-0.10774,0.003024,-0.022961
1265,-0.01614,0.057917,0.017965,0.042326,-0.12268,0.012768,-0.022636
1266,-0.022961,0.054668,0.020564,0.033881,-0.12982,0.017965,-0.020037
1267,-0.027183,0.047523,0.013093,0.019589,-0.13177,0.018615,-0.017764
1268,-0.027833,0.037454,-0.0021729,0.003024,-0.13404,0.014392,-0.017114
1269,-0.024909,0.028359,-0.01614,-0.0067202,-0.13372,0.012119,-0.016464
1270,-0.018738,0.020888,-0.022961,-0.0073698,-0.12592,0.009845,-0.015165
1271,-0.01549,0.013743,-0.022311,0.00042559,-0.10644,0.0078962,-0.011592
1272,-0.019388,0.0062721,-0.015165,0.011794,-0.082076,0.008221,-0.0067202
1273,-0.026533,-0.0024977,-0.0024977,0.021213,-0.059014,0.010819,-0.0028225
1274,-0.029782,-0.0089938,0.014392,0.024786,-0.041799,0.015042,-0.00022403
1275,-0.026209,-0.0089938,0.027385,0.021213,-0.032055,0.01764,-0.00022403
1276,-0.018088,0.00010078,0.031607,0.014717,-0.026209,0.013743,-0.0011985
1277,-0.0067202,0.016991,0.02706,0.0085458,-0.019712,0.0059473,-0.0034721
1278,0.0088706,0.039727,0.020888,0.0065969,-0.0037969,0.0010752,-0.0028225
1279,0.026735,0.066037,0.018615,0.0095202,0.024786,0.0026992,0.003024
1280,0.040702,0.099167,0.024786,0.013743,0.068635,0.012119,0.013418
1281,0.048172,0.13425,0.037778,0.014717,0.13067,0.026085,0.022512
1282,0.048497,0.16738,0.051096,0.0085458,0.20733,0.038428,0.02706
1283,0.045574,0.19011,0.057267,-0.0028225,0.28658,0.046873,0.02641
1284,0.041351,0.19596,0.05142,-0.012242,0.34959,0.051096,0.023812
1285,0.036804,0.18589,0.033556,-0.017114,0.37395,0.050771,0.024137
1286,0.028684,0.16445,0.01017,-0.018088,0.34245,0.049796,0.026085
1287,0.012119,0.13879,-0.0073698,-0.016464,0.25345,0.048497,0.027385
1288,-0.010618,0.11054,-0.01614,-0.013541,0.12807,0.042975,0.027709
1289,-0.034004,0.085525,-0.017439,-0.011592,-0.0015233,0.02641,0.023812
1290,-0.053492,0.066362,-0.013216,-0.0099683,-0.10611,0.0023744,0.016666
1291,-0.062912,0.049147,-0.007045,-0.0089938,-0.1727,-0.021012,0.009845
1292,-0.061288,0.029983,-0.00087364,-0.010618,-0.20323,-0.036278,0.0085458
1293,-0.054792,0.0056225,0.0026992,-0.012242,-0.20453,-0.042774,0.009845
1294,-0.047646,-0.020037,0.0065969,-0.013866,-0.17919,-0.042124,0.0095202
1295,-0.0405,-0.046347,0.013093,-0.013216,-0.13664,-0.034004,0.0085458
1296,-0.03238,-0.068109,0.020888,-0.010618,-0.084024,-0.022636,0.0085458
1297,-0.023935,-0.081751,0.026085,-0.0047713,-0.027508,-0.012892,0.0095202
1298,-0.016464,-0.086948,0.023812,0.0020496,0.028359,-0.0047713,0.011469
1299,-0.011592,-0.084999,0.01829,0.0091954,0.081303,0.00075039,0.013093
1300,-0.0067202,-0.077853,0.013418,0.016666,0.131,0.003024,0.012768
1301,-0.0054209,-0.067784,0.0088706,0.024461,0.1781,0.0056225,0.011794
1302,-0.0096434,-0.054467,0.0049729,0.030633,0.21545,0.012443,0.014392
1303,-0.013866,-0.0405,-0.00087364,0.031932,0.23624,0.023812,0.023162
1304,-0.01549,-0.032055,-0.011267,0.028684,0.23689,0.037454,0.032906
1305,-0.013866,-0.034978,-0.022961,0.023812,0.22,0.049796,0.040377
1306,-0.010618,-0.045047,-0.034004,0.021863,0.18979,0.058566,0.045574
1307,-0.0047713,-0.05804,-0.038551,0.023162,0.15698,0.067011,0.050121
1308,0.0056225,-0.06616,-0.032055,0.02641,0.1258,0.074806,0.055968
1309,0.021213,-0.064861,-0.012892,0.028684,0.098193,0.080003,0.065712
1310,0.042326,-0.062262,0.012443,0.030633,0.074157,0.084551,0.079354
1311,0.063763,-0.063561,0.03518,0.029658,0.054344,0.086824,0.090722
1312,0.076755,-0.069733,0.045574,0.026085,0.039727,0.082602,0.096244
1313,0.073182,-0.080127,0.04395,0.022837,0.029333,0.071234,0.094945
1314,0.055318,-0.094093,0.037778,0.021213,0.017316,0.057267,0.090722
1315,0.029009,-0.10611,0.034855,0.022512,0.0036737,0.044599,0.085525
1316,0.0046481,-0.10676,0.032582,0.027385,-0.011267,0.03453,0.078055
1317,-0.010943,-0.094093,0.029658,0.032906,-0.02361,0.033556,0.070259
1318,-0.016464,-0.071032,0.025436,0.037778,-0.032705,0.040052,0.065062
1319,-0.011917,-0.04115,0.021538,0.041676,-0.039526,0.044924,0.063438
1320,-0.0018481,-0.013866,0.020239,0.044599,-0.042774,0.042651,0.066362
1321,0.011794,0.0046481,0.021863,0.0433,-0.037902,0.033556,0.064413
1322,0.024786,0.011794,0.020888,0.037778,-0.022311,0.019589,0.055968
1323,0.032257,0.016666,0.014392,0.031607,0.0017248,0.0072465,0.040052
1324,0.035505,0.023162,0.0052977,0.028684,0.021863,0.0010752,0.02706
1325,0.038103,0.032582,-0.0047713,0.031607,0.028034,0.0020496,0.021538
1326,0.041351,0.043625,-0.0099683,0.03583,0.021213,0.011469,0.026735
1327,0.049796,0.055318,-0.0067202,0.040702,0.015367,0.024137,0.040377
1328,0.063113,0.067336,0.0065969,0.045899,0.013093,0.034206,0.054668
1329,0.073832,0.075781,0.019264,0.05142,0.0059473,0.042326,0.061814
1330,0.074157,0.078379,0.02706,0.056617,-0.016464,0.052395,0.058566
1331,0.061489,0.074806,0.02706,0.057917,-0.064211,0.059865,0.048497
1332,0.042326,0.064737,0.023162,0.053044,-0.14119,0.059541,0.037129
1333,0.024461,0.049472,0.022837,0.045249,-0.24318,0.051745,0.030633
1334,0.013743,0.029009,0.030957,0.04395,-0.35784,0.037129,0.032906
1335,0.012443,0.0095202,0.041351,0.056292,-0.46243,0.01764,0.042651
1336,0.01764,0.00075039,0.048822,0.080653,-0.53583,-0.007045,0.050446
1337,0.025111,0.0091954,0.050771,0.11118,-0.57546,-0.035303,0.052395
1338,0.036154,0.031932,0.045899,0.14237,-0.58715,-0.071032,0.049147
1339,0.050121,0.061814,0.039727,0.16413,-0.58683,-0.11358,0.043625
1340,0.066686,0.088448,0.032906,0.17095,-0.58878,-0.15613,0.038753
1341,0.084876,0.10566,0.027385,0.1625,-0.58975,-0.18439,0.034855
1342,0.096893,0.11054,0.028034,0.14172,-0.57481,-0.19186,0.032257
1343,0.099167,0.10729,0.031932,0.11606,-0.51277,-0.17822,0.034855
1344,0.093321,0.098193,0.035505,0.093321,-0.38285,-0.14671,0.0433
1345,0.082277,0.087474,0.03453,0.076431,-0.20063,-0.098316,0.05207
1346,0.070584,0.082277,0.02641,0.062464,-0.0050961,-0.036278,0.055643
1347,0.056292,0.084551,0.016016,0.049796,0.14984,0.023812,0.051096
1348,0.039727,0.089098,0.009845,0.038103,0.22941,0.065712,0.039078
1349,0.025436,0.091047,0.009845,0.026735,0.23169,0.080653,0.020239
1350,0.010495,0.086824,0.011794,0.016991,0.18557,0.068635,-0.0028225
1351,-0.0076946,0.074806,0.0091954,0.012119,0.12613,0.038428,-0.022961
1352,-0.032055,0.056942,0.0014,0.012768,0.082602,0.0059473,-0.037577
1353,-0.055116,0.035505,-0.0093186,0.016666,0.066362,-0.011267,-0.045697
1354,-0.068434,0.017316,-0.01549,0.023162,0.084551,-0.0050961,-0.050569
1355,-0.06551,0.0075714,-0.0096434,0.029009,0.13684,0.022512,-0.049595
1356,-0.04992,0.0039985,0.0043233,0.032257,0.21512,0.066037,-0.045047
1357,-0.030106,0.003024,0.023487,0.031607,0.30347,0.11768,-0.039201
1358,-0.011592,0.003024,0.042001,0.031282,0.38435,0.16738,-0.035628
1359,0.0046481,0.0056225,0.054668,0.034855,0.45191,0.20505,-0.031081
1360,0.021213,0.012119,0.056292,0.042975,0.50453,0.22617,-0.023285
1361,0.040052,0.01894,0.050771,0.050121,0.5448,0.22747,-0.012567
1362,0.058891,0.021538,0.037778,0.051745,0.57371,0.2109,-0.0024977
1363,0.071234,0.019264,0.019914,0.046223,0.57988,0.17647,0.0036737
1364,0.078055,0.014068,0.00010078,0.033556,0.55357,0.13165,0.0069217
1365,0.078704,0.010819,-0.020362,0.016016,0.49965,0.084226,0.0088706
1366,0.074157,0.010819,-0.035303,-0.0044465,0.43729,0.041676,0.012119
1367,0.062464,0.013743,-0.045697,-0.02361,0.38727,0.01829,0.014717
1368,0.047198,0.017965,-0.050569,-0.039851,0.36064,0.029658,0.01894
1369,0.034855,0.023162,-0.050244,-0.046347,0.34505,0.073182,0.025436
1370,0.029658,0.028684,-0.043099,-0.042774,0.31581,0.12743,0.031282
1371,0.026735,0.034206,-0.036927,-0.030106,0.25118,0.16023,0.03453
1372,0.023162,0.036154,-0.03303,-0.014191,0.14399,0.15211,0.033881
1373,0.015692,0.034855,-0.031406,0.0017248,0.009845,0.10371,0.029658
1374,0.0039985,0.031282,-0.025884,0.017965,-0.12138,0.038753,0.022837
1375,-0.0024977,0.029333,-0.016789,0.037129,-0.21492,-0.0076946,0.020239
1376,-0.00054884,0.032582,-0.0028225,0.055643,-0.2526,-0.019712,0.026085
1377,0.0088706,0.040702,0.0069217,0.065062,-0.23214,-0.00087364,0.038753
1378,0.018615,0.045574,0.0039985,0.056617,-0.174,0.032582,0.050121
1379,0.020564,0.040702,-0.010943,0.029658,-0.10838,0.057917,0.054019
1380,0.0095202,0.022512,-0.026858,-0.0073698,-0.061937,0.058566,0.049472
1381,-0.0096434,-0.00022403,-0.037577,-0.0405,-0.047321,0.029333,0.03583
1382,-0.026533,-0.013216,-0.038876,-0.059989,-0.061613,-0.02361,0.016341
1383,-0.034654,-0.012242,-0.036278,-0.060313,-0.089221,-0.086623,-0.0044465
1384,-0.030106,-0.0011985,-0.029132,-0.044723,-0.11456,-0.14119,-0.024909
1385,-0.019712,0.01017,-0.020687,-0.024909,-0.13047,-0.17854,-0.042124
1386,-0.016464,0.012443,-0.014516,-0.011267,-0.13924,-0.19738,-0.057715
1387,-0.022311,0.0020496,-0.014191,-0.010293,-0.14281,-0.20193,-0.069408
1388,-0.031406,-0.016464,-0.020362,-0.019063,-0.14639,-0.19901,-0.078178
1389,-0.040175,-0.034978,-0.028157,-0.034004,-0.15158,-0.19738,-0.080451
1390,-0.044073,-0.04927,-0.033354,-0.048945,-0.16068,-0.19381,-0.07428
1391,-0.041475,-0.052843,-0.037252,-0.059339,-0.17107,-0.18536,-0.063561
1392,-0.035303,-0.04927,-0.044398,-0.068434,-0.17887,-0.17042,-0.05739
1393,-0.030431,-0.040825,-0.053817,-0.076879,-0.17692,-0.14769,-0.060638
1394,-0.026533,-0.028807,-0.057065,-0.085973,-0.16165,-0.11975,-0.069408
1395,-0.021986,-0.019063,-0.051219,-0.096367,-0.13469,-0.087597,-0.078178
1396,-0.013541,-0.013866,-0.039201,-0.10481,-0.10026,-0.049595,-0.079802
1397,-0.0018481,-0.010943,-0.024585,-0.10579,-0.075904,-0.0096434,-0.068758
1398,0.009845,-0.0054209,-0.008669,-0.10026,-0.081101,0.027709,-0.047971
1399,0.019589,0.0023744,0.0091954,-0.090521,-0.12073,0.05272,-0.023935
1400,0.02641,0.0072465,0.028034,-0.084349,-0.17724,0.054993,-0.0034721
1401,0.023487,0.0062721,0.043625,-0.082076,-0.2172,0.034206,0.009845
1402,0.01017,0.00010078,0.054668,-0.08305,-0.20388,0.0052977,0.015367
1403,-0.0080194,-0.007045,0.059541,-0.081751,-0.11098,-0.017114,0.016991
1404,-0.027508,-0.013216,0.055968,-0.07428,0.060515,-0.030431,0.017316
1405,-0.044073,-0.013216,0.046873,-0.060638,0.27196,-0.036602,0.017316
1406,-0.052843,-0.0099683,0.036479,-0.037577,0.46328,-0.037902,0.014392
1407,-0.055766,-0.010293,0.027709,-0.0093186,0.58638,-0.038876,0.0095202
1408,-0.056741,-0.017114,0.022837,0.022188,0.62178,-0.044073,0.0033489
1409,-0.058365,-0.023935,0.022837,0.05207,0.58216,-0.05804,-0.00022403
1410,-0.059014,-0.021337,0.028684,0.077405,0.49608,-0.075579,-0.0015233
1411,-0.056741,-0.0076946,0.040377,0.10112,0.38695,-0.089221,-0.0047713
1412,-0.050244,0.015367,0.055968,0.1245,0.26677,-0.096042,-0.0093186
1413,-0.033679,0.040702,0.073507,0.15179,0.15114,-0.098965,-0.0099683
1414,-0.011592,0.059541,0.088448,0.18004,0.055643,-0.10059,-0.0031473
1415,0.0062721,0.070584,0.095594,0.20148,-0.014516,-0.095717,0.0085458
1416,0.014392,0.073832,0.093645,0.21025,-0.062912,-0.083375,0.021213
1417,0.01829,0.072208,0.088124,0.20408,-0.09929,-0.06681,0.031932
1418,0.023487,0.067986,0.080653,0.18362,-0.13404,-0.051544,0.036804
1419,0.030633,0.061489,0.070584,0.15114,-0.17075,-0.046022,0.030957
1420,0.035505,0.054668,0.056292,0.11086,-0.19868,-0.052518,0.017316
1421,0.030957,0.047198,0.041027,0.069285,-0.2107,-0.069083,0.0020496
1422,0.014717,0.038428,0.028034,0.031932,-0.20096,-0.0837,-0.008669
1423,-0.0083442,0.027709,0.017316,-0.00054884,-0.17205,-0.087922,-0.014191
1424,-0.029782,0.016666,0.0091954,-0.028157,-0.13372,-0.081751,-0.015815
1425,-0.04115,0.0065969,0.003024,-0.04992,-0.09117,-0.070058,-0.016789
1426,-0.039851,0.0036737,0.0026992,-0.066485,-0.042449,-0.057715,-0.012892
1427,-0.029457,0.008221,0.0020496,-0.077528,0.0085458,-0.046671,-0.0080194
1428,-0.018738,0.015367,-0.00022403,-0.087597,0.058891,-0.036602,-0.0054209
1429,-0.011267,0.021863,-0.0018481,-0.096042,0.10274,-0.027508,-0.0044465
1430,-0.0063954,0.023162,-0.0011985,-0.10156,0.13587,-0.017764,-0.0047713
1431,0.0010752,0.019914,-0.0018481,-0.10156,0.15601,-0.0024977,-0.0044465
1432,0.01017,0.015692,-0.007045,-0.095717,0.16056,0.023162,-0.0021729
1433,0.017965,0.015042,-0.01484,-0.085648,0.15276,0.058241,0.0033489
1434,0.020888,0.019589,-0.022311,-0.067134,0.1323,0.096893,0.014068
1435,0.021213,0.025436,-0.025884,-0.044073,0.10306,0.12775,0.029333
1436,0.022188,0.029333,-0.025234,-0.02361,0.075456,0.14139,0.045249
1437,0.024461,0.031932,-0.019063,-0.0096434,0.059865,0.1323,0.054993
1438,0.02706,0.035505,-0.010618,-0.0047713,0.063113,0.10696,0.055643
1439,0.02641,0.038428,-0.0044465,-0.008669,0.078379,0.072533,0.047523
1440,0.020888,0.036479,0.00010078,-0.021012,0.090072,0.037778,0.032906
1441,0.015042,0.029658,0.0056225,-0.037577,0.081627,0.0078962,0.016991
1442,0.011469,0.01764,0.012119,-0.050244,0.0433,-0.017439,0.0062721
1443,0.011469,0.0062721,0.015367,-0.051544,-0.02426,-0.044073,0.0033489
1444,0.011144,-0.0024977,0.013418,-0.042774,-0.10709,-0.077203,0.0046481
1445,0.0091954,-0.0076946,0.0065969,-0.027183,-0.18407,-0.11001,0.0014
1446,0.0095202,-0.0093186,-0.0063954,-0.0060706,-0.2461,-0.13892,-0.010618
1447,0.0075714,-0.0083442,-0.020037,0.014717,-0.29482,-0.16035,-0.025234
1448,0.0020496,-0.0041217,-0.030756,0.030957,-0.3325,-0.17237,-0.039201
1449,-0.0083442,0.0010752,-0.035303,0.042001,-0.35459,-0.17627,-0.048945
1450,-0.021337,0.0043233,-0.037252,0.053044,-0.34744,-0.16782,-0.050569
1451,-0.027508,0.0062721,-0.039526,0.066037,-0.30294,-0.13989,-0.042774
1452,-0.021986,0.0059473,-0.042774,0.084551,-0.22824,-0.090521,-0.023285
1453,-0.0080194,0.0046481,-0.045047,0.10534,-0.13664,-0.026209,0.0052977
1454,0.0062721,0.00042559,-0.043423,0.11898,-0.042124,0.040052,0.03518
1455,0.016666,-0.0047713,-0.038227,0.11898,0.043625,0.10047,0.056617
1456,0.022512,-0.012892,-0.031081,0.10209,0.11606,0.14984,0.063763
1457,0.024461,-0.021661,-0.02426,0.076431,0.16738,0.18589,0.060515
1458,0.026085,-0.028157,-0.019063,0.053369,0.18719,0.2109,0.054344
1459,0.028684,-0.029132,-0.013541,0.040052,0.17647,0.22454,0.053044
1460,0.027709,-0.023935,-0.010943,0.038428,0.13977,0.22682,0.057592
1461,0.025111,-0.015165,-0.0096434,0.046548,0.088773,0.21837,0.063438
1462,0.026085,-0.0080194,-0.0063954,0.056617,0.031607,0.207,0.067336
1463,0.031607,-0.0024977,0.00042559,0.064088,-0.033354,0.19823,0.073182
1464,0.043625,0.003024,0.013743,0.068635,-0.11651,0.18881,0.084226
1465,0.059216,0.010495,0.030308,0.069285,-0.22402,0.17257,0.099167
1466,0.073507,0.01829,0.043625,0.064413,-0.35134,0.14399,0.11021
1467,0.082277,0.023812,0.053044,0.056942,-0.47899,0.10371,0.10989
1468,0.087799,0.029009,0.057592,0.048822,-0.57383,0.058241,0.096569
1469,0.0865,0.037129,0.054019,0.038753,-0.60956,0.013418,0.072533
1470,0.073832,0.045899,0.044924,0.030308,-0.59007,-0.029132,0.043625
1471,0.054344,0.051096,0.033231,0.022512,-0.54038,-0.067784,0.016991
1472,0.038103,0.053694,0.023812,0.019589,-0.49263,-0.094093,-0.00054884
1473,0.030633,0.053044,0.024137,0.022837,-0.46567,-0.10221,-0.0037969
1474,0.03518,0.050121,0.033881,0.033881,-0.45203,-0.092794,0.0043233
1475,0.046223,0.047198,0.049796,0.048172,-0.42897,-0.073306,0.015367
1476,0.056617,0.046223,0.061165,0.061489,-0.377,-0.053817,0.020888
1477,0.064737,0.047198,0.066362,0.073832,-0.28638,-0.036927,0.018615
1478,0.073182,0.048172,0.066686,0.087474,-0.17075,-0.023935,0.016341
1479,0.079679,0.047198,0.065712,0.10566,-0.054792,-0.013216,0.017316
1480,0.079354,0.046548,0.065062,0.12807,0.038428,-0.0024977,0.01894
1481,0.071558,0.046223,0.065712,0.14561,0.092996,0.0078962,0.017965
1482,0.054993,0.044599,0.066362,0.15179,0.10859,0.010819,0.012119
1483,0.029983,0.044275,0.065712,0.14724,0.09397,0.0043233,0.0059473
1484,0.0039985,0.042651,0.062139,0.13327,0.06019,-0.0050961,0.0014
1485,-0.013866,0.037454,0.054344,0.10891,0.024461,-0.0063954,0.0036737
1486,-0.023285,0.032582,0.039078,0.078055,0.00075039,0.0052977,0.012119
1487,-0.025559,0.028359,0.01894,0.043625,-0.0047713,0.024137,0.020888
1488,-0.019388,0.024461,-0.0021729,0.011469,0.0091954,0.0433,0.02706
1489,-0.0096434,0.022188,-0.022311,-0.014191,0.042651,0.057592,0.029333
1490,-0.00054884,0.022188,-0.042449,-0.030106,0.094945,0.067986,0.032582
1491,0.0039985,0.025111,-0.055116,-0.038876,0.16218,0.078379,0.038753
1492,0.0033489,0.028684,-0.057065,-0.042124,0.23754,0.092346,0.04395
1493,0.003024,0.029983,-0.052193,-0.037577,0.31192,0.10859,0.041676
1494,0.0043233,0.029333,-0.046022,-0.029132,0.37103,0.12125,0.032257
1495,0.0062721,0.026735,-0.043423,-0.021986,0.39961,0.12548,0.01829
1496,0.0091954,0.020888,-0.043423,-0.021661,0.39669,0.1206,0.0052977
1497,0.015692,0.014717,-0.044723,-0.028482,0.37525,0.11151,-0.0047713
1498,0.021863,0.0091954,-0.046022,-0.039201,0.34894,0.10112,-0.010943
1499,0.026735,0.0036737,-0.044073,-0.049595,0.32751,0.086824,-0.010293
1500,0.029333,0.0036737,-0.038227,-0.053817,0.31516,0.068635,-0.0047713
1501,0.027385,0.0075714,-0.026858,-0.048945,0.31646,0.047198,0.0033489
1502,0.017965,0.010819,-0.010943,-0.031406,0.33465,0.021863,0.0062721
1503,0.0046481,0.011469,0.0036737,-0.0034721,0.36746,-0.0037969,0.0010752
1504,-0.010943,0.0052977,0.0088706,0.022837,0.39734,-0.023935,-0.010293
1505,-0.024585,-0.0050961,0.0020496,0.037454,0.39637,-0.03303,-0.020687
1506,-0.031081,-0.012242,-0.012242,0.03583,0.35024,-0.027508,-0.025884
1507,-0.030756,-0.013541,-0.027508,0.022188,0.26319,-0.01549,-0.021012
1508,-0.026533,-0.0099683,-0.038227,0.003024,0.15341,-0.007045,-0.011917
1509,-0.019388,-0.0034721,-0.040175,-0.015165,0.048172,-0.0080194,-0.0021729
1510,-0.0093186,0.0039985,-0.034978,-0.030756,-0.031406,-0.017114,0.0039985
1511,0.0039985,0.0072465,-0.026858,-0.041475,-0.076554,-0.027833,0.0062721
1512,0.016666,0.0085458,-0.015815,-0.04115,-0.079477,-0.034329,0.003024
1513,0.020888,0.0069217,-0.0034721,-0.032705,-0.041799,-0.03238,-0.0021729
1514,0.015042,0.0043233,0.0036737,-0.018088,0.024137,-0.017439,-0.007045
1515,0.0043233,0.00075039,0.0036737,-0.0083442,0.10112,0.010819,-0.0096434
1516,-0.0050961,-0.0047713,-0.0021729,-0.0080194,0.17322,0.042975,-0.010943
1517,-0.0047713,-0.0093186,-0.0037969,-0.018413,0.23429,0.067661,-0.012567
1518,0.01017,-0.0096434,-0.00087364,-0.03303,0.27456,0.078704,-0.0099683
1519,0.033231,-0.0024977,0.0023744,-0.044073,0.28203,0.073832,-0.0018481
1520,0.051096,0.008221,0.0020496,-0.046022,0.24858,0.056617,0.0069217
1521,0.05207,0.015367,0.00075039,-0.044073,0.18492,0.033881,0.011469
1522,0.037129,0.014392,0.00075039,-0.039201,0.11378,0.012119,0.0065969
1523,0.014717,0.0059473,0.0023744,-0.031406,0.057592,-0.0037969,-0.0083442
1524,-0.0044465,-0.0028225,0.0085458,-0.020362,0.029009,-0.010943,-0.026533
1525,-0.018413,-0.0067202,0.019264,-0.0083442,0.025436,-0.0076946,-0.041475
1526,-0.026858,-0.0080194,0.026735,-0.0018481,0.038428,0.00075039,-0.045047
1527,-0.032055,-0.0099683,0.024786,0.00075039,0.053694,0.0065969,-0.038876
1528,-0.03303,-0.012242,0.014717,0.0026992,0.062139,0.0072465,-0.030756
1529,-0.027833,-0.014516,0.003024,0.0065969,0.057267,0.0039985,-0.025884
1530,-0.014516,-0.016789,-0.0031473,0.011144,0.036154,-0.007045,-0.02426
1531,0.0039985,-0.017764,0.00010078,0.016991,-0.0015233,-0.030431,-0.025559
1532,0.017316,-0.013216,0.011469,0.025111,-0.051219,-0.062262,-0.028157
1533,0.022188,-0.0034721,0.026085,0.034206,-0.10416,-0.091495,-0.031081
1534,0.017965,0.0091954,0.039078,0.044924,-0.14834,-0.11001,-0.032705
1535,0.0091954,0.021863,0.046873,0.053369,-0.17659,-0.11391,-0.030756
1536,0.0017248,0.029009,0.05207,0.056617,-0.19608,-0.10676,-0.023935
1537,-0.00054884,0.031607,0.054019,0.05272,-0.2159,-0.095068,-0.011592
1538,0.0014,0.030308,0.053044,0.041676,-0.24253,-0.092469,0.0014
1539,0.0039985,0.023812,0.047523,0.028034,-0.27696,-0.10091,0.011469
1540,0.0069217,0.015042,0.038103,0.01764,-0.31042,-0.11521,0.011469
1541,0.011469,0.0059473,0.031932,0.016991,-0.32925,-0.1269,0.0049729
1542,0.013743,-0.0024977,0.030633,0.028359,-0.32081,-0.12982,-0.0054209
1543,0.008221,-0.007045,0.032257,0.045574,-0.28021,-0.12495,-0.018088
1544,-0.00054884,-0.0093186,0.03518,0.062789,-0.2133,-0.11326,-0.029132
1545,-0.0031473,-0.0093186,0.040377,0.076106,-0.13275,-0.094743,-0.035628
1546,0.0033489,-0.0089938,0.048822,0.081952,-0.050894,-0.073955,-0.031406
1547,0.011794,-0.0067202,0.057267,0.079354,0.023812,-0.054792,-0.020362
1548,0.018615,-0.0050961,0.062464,0.066037,0.084876,-0.037252,-0.0089938
1549,0.02641,-0.0037969,0.064088,0.044275,0.1245,-0.018738,-0.0011985
1550,0.036804,-0.00022403,0.062789,0.020564,0.14269,-0.0011985,0.0049729
1551,0.043625,0.0072465,0.055643,0.0020496,0.14302,0.014392,0.012119
1552,0.041351,0.014068,0.042651,-0.008669,0.13392,0.029333,0.020564
1553,0.031282,0.014717,0.031932,-0.012242,0.12158,0.045899,0.029333
1554,0.020239,0.0091954,0.026735,-0.013216,0.10014,0.061165,0.036154
1555,0.009845,-0.0021729,0.021863,-0.016789,0.056942,0.066037,0.036804
1556,0.0017248,-0.01549,0.013418,-0.026533,-0.0099683,0.058891,0.034855
1557,-0.0037969,-0.025559,0.0056225,-0.039526,-0.097017,0.040377,0.030308
1558,-0.0054209,-0.029132,0.0046481,-0.050244,-0.18796,0.016991,0.028034
1559,-0.0028225,-0.025559,0.0085458,-0.051868,-0.26429,-0.0024977,0.030957
1560,0.0033489,-0.017439,0.008221,-0.041799,-0.31464,-0.010943,0.038753
1561,0.009845,-0.0047713,0.0023744,-0.021012,-0.3377,-0.012242,0.049147
1562,0.016341,0.01017,-0.0037969,0.0020496,-0.3377,-0.014191,0.055968
1563,0.022837,0.024137,-0.0044465,0.021538,-0.31821,-0.022636,0.059865
1564,0.025111,0.030633,-0.0037969,0.030957,-0.28898,-0.038876,0.061814
1565,0.01764,0.029333,-0.0024977,0.031607,-0.25715,-0.056741,0.063763
1566,0.003024,0.026085,-0.0021729,0.027709,-0.22726,-0.070707,0.066037
1567,-0.011917,0.022837,-0.0047713,0.022512,-0.19673,-0.079152,0.067661
1568,-0.019712,0.025111,-0.010618,0.017965,-0.14996,-0.079477,0.06896
1569,-0.021337,0.033231,-0.018088,0.018615,-0.082076,-0.072006,0.06896
1570,-0.020037,0.04395,-0.024585,0.023487,0.0017248,-0.056741,0.065712
1571,-0.019388,0.051745,-0.030756,0.030633,0.082277,-0.034004,0.062464
1572,-0.023285,0.055968,-0.035303,0.036154,0.14399,-0.011267,0.058241
1573,-0.031406,0.056617,-0.037577,0.036479,0.18394,0.0091954,0.051745
1574,-0.043099,0.05272,-0.039526,0.028684,0.20733,0.024786,0.042651
1575,-0.052843,0.042975,-0.042124,0.017965,0.2122,0.038103,0.031282
1576,-0.052518,0.028684,-0.046996,0.013418,0.19628,0.05272,0.022188
1577,-0.043748,0.019264,-0.04992,0.015692,0.15568,0.072858,0.01764
1578,-0.029782,0.021863,-0.04992,0.01894,0.093321,0.095594,0.015042
1579,-0.017114,0.037129,-0.046671,0.016341,0.019264,0.11411,0.013093
1580,-0.008669,0.053369,-0.044073,0.010495,-0.054792,0.12353,0.010495
1581,-0.0076946,0.061165,-0.043748,0.0043233,-0.11845,0.1258,0.0088706
1582,-0.008669,0.059541,-0.043748,0.0039985,-0.1636,0.1297,0.010819
1583,-0.0076946,0.050771,-0.042449,0.012119,-0.18309,0.13555,0.013418
1584,-0.0073698,0.040702,-0.041799,0.028684,-0.17887,0.13814,0.012119
1585,-0.012892,0.031282,-0.038227,0.047523,-0.15256,0.12613,0.0065969
1586,-0.022961,0.021863,-0.030431,0.059541,-0.10546,0.094945,-0.00054884
1587,-0.033354,0.014068,-0.019712,0.065712,-0.032055,0.05142,-0.0080194
1588,-0.038551,0.010819,-0.011592,0.067986,0.071883,0.0039985,-0.015815
1589,-0.034978,0.011144,-0.0050961,0.067011,0.20278,-0.03303,-0.020037
1590,-0.020687,0.010495,0.00010078,0.066686,0.34797,-0.046022,-0.016789
1591,0.0020496,0.01017,0.0072465,0.069285,0.48764,-0.033679,-0.0018481
1592,0.023487,0.009845,0.014717,0.074482,0.60294,-0.0037969,0.019589
1593,0.038753,0.010819,0.024786,0.074482,0.68902,0.033881,0.039402
1594,0.0433,0.01829,0.033231,0.066037,0.75008,0.072208,0.053369
1595,0.038753,0.030633,0.040052,0.050771,0.78841,0.10989,0.064088
1596,0.030308,0.04395,0.0433,0.033231,0.80173,0.14919,0.072533
1597,0.024786,0.055318,0.044924,0.017316,0.78289,0.19563,0.082602
1598,0.02706,0.063763,0.048497,0.0091954,0.72832,0.24923,0.096244
1599,0.03453,0.066362,0.055318,0.0095202,0.63218,0.29957,0.10696
1600,0.039078,0.063113,0.06019,0.018615,0.48406,0.32848,0.11183
1601,0.041027,0.056292,0.061165,0.030308,0.27619,0.31776,0.10436
1602,0.042001,0.047198,0.056942,0.037129,0.0085458,0.26222,0.087474
1603,0.045249,0.038428,0.050446,0.03518,-0.30782,0.16738,0.063763
1604,0.048172,0.032582,0.044599,0.02706,-0.65049,0.044275,0.041027
1605,0.046548,0.029658,0.046873,0.01894,-0.98861,-0.096042,0.02641
1606,0.040702,0.028034,0.059216,0.015042,-1.2809,-0.23538,0.016991
1607,0.031282,0.02706,0.072208,0.015042,-1.4934,-0.35394,0.012119
1608,0.024461,0.024786,0.07773,0.01894,-1.607,-0.43514,0.011144
1609,0.024786,0.01829,0.075456,0.026085,-1.622,-0.46632,0.013093
1610,0.033231,0.011469,0.071234,0.037454,-1.5525,-0.45073,0.016991
1611,0.046223,0.011469,0.072858,0.056292,-1.4232,-0.40688,0.022188
1612,0.054668,0.021213,0.080328,0.081303,-1.2579,-0.36044,0.027385
1613,0.056292,0.033231,0.093321,0.10664,-1.0721,-0.32828,0.029009
1614,0.048822,0.039402,0.10534,0.12028,-0.8772,-0.31886,0.021538
1615,0.034855,0.03518,0.11086,0.11638,-0.68135,-0.32276,0.0072465
1616,0.01894,0.021863,0.10306,0.098193,-0.48971,-0.32666,-0.008669
1617,0.0049729,0.009845,0.080978,0.072208,-0.30002,-0.31399,-0.023935
1618,-0.0073698,0.003024,0.054019,0.04395,-0.10741,-0.27469,-0.039201
1619,-0.018088,-0.0031473,0.030308,0.015692,0.088773,-0.2133,-0.054467
1620,-0.028482,-0.014516,0.012119,-0.0099683,0.2921,-0.13372,-0.064861
1621,-0.035628,-0.029132,-0.0073698,-0.028482,0.50648,-0.035953,-0.064861
1622,-0.039851,-0.040825,-0.030756,-0.036278,0.73027,0.081303,-0.053492
1623,-0.040825,-0.043748,-0.051544,-0.029132,0.94821,0.21155,-0.034004
1624,-0.036927,-0.037902,-0.059989,-0.0096434,1.134,0.33693,-0.012242
1625,-0.026533,-0.030431,-0.055766,0.014392,1.2659,0.43762,0.0062721
1626,-0.011267,-0.024909,-0.044073,0.034206,1.3279,0.50128,0.01894
1627,0.0052977,-0.021986,-0.031081,0.040377,1.3143,0.51947,0.024786
1628,0.017965,-0.016789,-0.02361,0.029658,1.2301,0.49641,0.025761
1629,0.029009,-0.0067202,-0.021012,0.0052977,1.0947,0.44476,0.022837
1630,0.039078,0.0020496,-0.02361,-0.024585,0.9362,0.37948,0.021538
1631,0.041676,0.0062721,-0.025234,-0.054467,0.78646,0.31386,0.022512
1632,0.03453,0.0069217,-0.025234,-0.081751,0.66433,0.25637,0.025761
1633,0.017316,0.0056225,-0.025234,-0.10124,0.57371,0.2122,0.02706
1634,-0.0031473,0.00010078,-0.025559,-0.10968,0.5055,0.17972,0.025436
1635,-0.019388,-0.0089938,-0.025884,-0.11131,0.44476,0.15503,0.022512
1636,-0.027508,-0.018088,-0.030431,-0.10741,0.37948,0.12937,0.017316
1637,-0.027833,-0.024909,-0.036278,-0.098641,0.30932,0.099492,0.0095202
1638,-0.019712,-0.025559,-0.041799,-0.086623,0.24403,0.06831,0.0010752
1639,-0.0093186,-0.022636,-0.0405,-0.071032,0.19628,0.036804,-0.0054209
1640,0.00010078,-0.01549,-0.036278,-0.054792,0.17485,0.0056225,-0.0083442
1641,0.0033489,-0.0034721,-0.035628,-0.038876,0.17842,-0.020687,-0.0050961
1642,0.00042559,0.0078962,-0.036927,-0.027508,0.19791,-0.0405,0.0023744
1643,-0.0054209,0.015042,-0.039526,-0.020037,0.21935,-0.051868,0.008221
1644,-0.017439,0.014392,-0.043423,-0.021986,0.22422,-0.05739,0.003024
1645,-0.031406,0.0043233,-0.04992,-0.03173,0.20018,-0.057065,-0.015165
1646,-0.042124,-0.008669,-0.056416,-0.044723,0.14886,-0.053492,-0.037577
1647,-0.047321,-0.019712,-0.059014,-0.055441,0.07773,-0.053817,-0.057715
1648,-0.047646,-0.026533,-0.052843,-0.059014,-0.0024977,-0.064211,-0.071682
1649,-0.043748,-0.028807,-0.037902,-0.056416,-0.077203,-0.086298,-0.075579
1650,-0.036927,-0.026858,-0.020037,-0.046347,-0.13502,-0.11423,-0.069083
1651,-0.025559,-0.020687,-0.0028225,-0.030106,-0.17659,-0.13892,-0.054142
1652,-0.0083442,-0.011267,0.013418,-0.0041217,-0.2081,-0.15776,-0.037577
1653,0.016341,0.0059473,0.031282,0.033881,-0.24253,-0.16718,-0.021012
1654,0.042975,0.030308,0.051745,0.081627,-0.29158,-0.16555,-0.0034721
1655,0.069285,0.059216,0.072533,0.1323,-0.36563,-0.15418,0.016666
1656,0.087474,0.0852,0.090072,0.1716,-0.46437,-0.14216,0.034206
1657,0.094295,0.10566,0.093645,0.18881,-0.56961,-0.13697,0.0433
1658,0.090722,0.11898,0.081303,0.18394,-0.65666,-0.14054,0.044924
1659,0.083251,0.12645,0.061165,0.16738,-0.70376,-0.14964,0.041676
1660,0.075131,0.12483,0.046223,0.14821,-0.707,-0.15905,0.036154
1661,0.067986,0.11281,0.042001,0.13295,-0.67063,-0.16165,0.029658
1662,0.059541,0.094945,0.046873,0.1232,-0.60729,-0.15191,0.024461
1663,0.05142,0.07708,0.054344,0.11768,-0.53746,-0.12852,0.020564
1664,0.049147,0.064413,0.057592,0.11021,-0.47412,-0.090196,0.017965
1665,0.049147,0.057917,0.057267,0.098517,-0.41468,-0.04115,0.01894
1666,0.047523,0.051096,0.050446,0.082927,-0.33932,0.011794,0.027709
1667,0.042651,0.042975,0.037454,0.065712,-0.22304,0.058241,0.039727
1668,0.03583,0.037454,0.024137,0.050121,-0.05804,0.088124,0.049147
1669,0.031282,0.036804,0.012768,0.033556,0.13262,0.097868,0.049796
1670,0.029983,0.040702,0.0020496,0.01017,0.30574,0.091696,0.039727
1671,0.030633,0.049147,-0.0076946,-0.01549,0.4243,0.074806,0.024786
1672,0.033881,0.061489,-0.013866,-0.038876,0.4701,0.057267,0.012443
1673,0.038753,0.072858,-0.012567,-0.053168,0.44476,0.042326,0.0023744
1674,0.044275,0.081303,-0.0047713,-0.061613,0.36908,0.030308,-0.0067202
1675,0.046548,0.0865,0.0026992,-0.065835,0.27067,0.022512,-0.014191
1676,0.039402,0.084876,0.0017248,-0.065835,0.1755,0.021538,-0.019712
1677,0.027385,0.076106,-0.008669,-0.062587,0.098842,0.024461,-0.024909
1678,0.016666,0.065062,-0.023285,-0.054142,0.04395,0.031932,-0.029457
1679,0.0088706,0.056292,-0.033354,-0.041799,0.0010752,0.038103,-0.030756
1680,0.0026992,0.05207,-0.036927,-0.029457,-0.036927,0.036479,-0.029782
1681,-0.0031473,0.05142,-0.034978,-0.022636,-0.072656,0.025761,-0.029782
1682,-0.010618,0.051096,-0.030756,-0.022961,-0.10676,0.0052977,-0.032705
1683,-0.019063,0.049796,-0.029457,-0.027183,-0.14184,-0.020362,-0.040175
1684,-0.029782,0.047198,-0.034654,-0.027508,-0.1714,-0.044398,-0.050244
1685,-0.042449,0.041027,-0.045047,-0.021012,-0.19186,-0.057715,-0.062262
1686,-0.054792,0.031932,-0.051219,-0.0076946,-0.20096,-0.059014,-0.069733
1687,-0.062587,0.021863,-0.047971,0.011794,-0.19933,-0.052193,-0.070382
1688,-0.063561,0.010819,-0.032705,0.036479,-0.18829,-0.042774,-0.061613
1689,-0.061937,0.0017248,-0.0073698,0.070584,-0.17562,-0.030756,-0.045372
1690,-0.053492,-0.0041217,0.01894,0.11054,-0.1675,-0.020687,-0.023935
1691,-0.0405,-0.0080194,0.041351,0.14561,-0.15905,-0.011917,-0.0047713
1692,-0.024585,-0.013541,0.052395,0.16218,-0.13307,-0.0041217,0.0062721
1693,-0.0096434,-0.021012,0.054668,0.15763,-0.070382,-0.00022403,0.009845
1694,0.0033489,-0.027833,0.054344,0.13587,0.030633,0.0023744,0.013418
1695,0.01894,-0.029132,0.057267,0.10826,0.15373,0.0091954,0.019914
1696,0.037129,-0.026858,0.063438,0.088773,0.27391,0.019914,0.028034
1697,0.059216,-0.020037,0.068635,0.081627,0.36421,0.025761,0.036479
1698,0.081627,-0.014516,0.073832,0.080653,0.40449,0.01894,0.046548
1699,0.10047,-0.014191,0.074482,0.076106,0.38695,-0.0024977,0.056292
1700,0.10924,-0.017764,0.067986,0.06084,0.31841,-0.035953,0.057592
1701,0.10761,-0.022636,0.048822,0.037778,0.2187,-0.073955,0.047198
1702,0.097543,-0.029132,0.023487,0.011469,0.11898,-0.10709,0.030957
1703,0.080653,-0.039526,0.0014,-0.011592,0.042001,-0.12722,0.01829
1704,0.055318,-0.060313,-0.011592,-0.024909,-0.0018481,-0.13047,0.011144
1705,0.021538,-0.089221,-0.017114,-0.026533,-0.019063,-0.12268,0.0039985
1706,-0.015165,-0.12138,-0.017114,-0.019388,-0.020687,-0.10871,-0.0073698
1707,-0.046996,-0.14801,-0.014516,-0.010618,-0.017439,-0.092794,-0.019712
1708,-0.065186,-0.15938,-0.012567,-0.0011985,-0.020037,-0.077528,-0.027183
1709,-0.060638,-0.15223,-0.013541,0.0036737,-0.036278,-0.061288,-0.022636
1710,-0.035953,-0.12755,-0.013541,0.0065969,-0.060963,-0.040825,-0.0080194
1711,-0.0015233,-0.089546,-0.0096434,0.013093,-0.079802,-0.012892,0.012443
1712,0.031607,-0.047321,0.00010078,0.021863,-0.082725,0.022512,0.029983
1713,0.054668,-0.011592,0.011144,0.027385,-0.079152,0.057917,0.041351
1714,0.061165,0.0039985,0.016991,0.024786,-0.089546,0.078055,0.042001
1715,0.05142,-0.0050961,0.013418,0.012119,-0.13502,0.078379,0.032582
1716,0.031282,-0.035303,0.0033489,-0.0034721,-0.21687,0.064088,0.022512
1717,0.0059473,-0.072006,-0.0063954,-0.01484,-0.31951,0.045899,0.01829
1718,-0.013216,-0.096692,-0.012892,-0.017114,-0.41468,0.031607,0.024786
1719,-0.01549,-0.098316,-0.010943,-0.013866,-0.47184,0.023487,0.042001
1720,0.0010752,-0.079152,-0.0031473,-0.011917,-0.47509,0.021538,0.061165
1721,0.028034,-0.047321,0.0095202,-0.011917,-0.42442,0.023812,0.075131
1722,0.057267,-0.013866,0.020564,-0.013216,-0.3442,0.029983,0.080328
1723,0.074806,0.011469,0.02706,-0.019063,-0.26754,0.038428,0.074806
1724,0.077405,0.025761,0.023162,-0.032705,-0.22499,0.045899,0.06019
1725,0.067661,0.030308,0.0059473,-0.052193,-0.22564,0.049147,0.041351
1726,0.048172,0.025436,-0.019388,-0.072656,-0.25845,0.047198,0.024786
1727,0.022512,0.0078962,-0.045047,-0.087272,-0.30489,0.03518,0.012119
